64561,10650,4,ER,1,100,1.690485
64561,10650,4,ER,1,100,1.687866
64561,10650,4,ER,1,100,1.688470
64561,10650,4,ER,1,100,1.692499
64610,10668,2,ER,1,100,1.688470
64659,10668,2,ER,1,100,1.694513
64709,10686,2,ER,1,100,1.685449
64759,10686,2,ER,1,100,1.689679
64809,10705,2,ER,1,100,1.687866
64860,10705,2,ER,1,100,1.691693
64910,10723,2,ER,1,100,1.686859
64961,10723,2,ER,1,100,1.692700
65012,10741,2,ER,1,100,1.687262
65063,10741,2,ER,1,100,1.690082
65113,10759,2,ER,1,100,1.686658
65163,10759,2,ER,1,100,1.691089
65213,10777,2,ER,1,100,1.687262
65264,10777,2,ER,1,100,1.692297
65314,10795,2,ER,1,100,1.687463
65365,10795,2,ER,1,100,1.690283
65416,10813,2,ER,1,100,1.687262
65467,10813,2,ER,1,100,1.693103
65517,10831,2,ER,1,100,1.687463
65567,10831,2,ER,1,100,1.691693
65617,10850,2,ER,1,100,1.688873
65668,10850,2,ER,1,100,1.690283
65702,10868,3,ER,1,100,1.687866
65736,10868,3,ER,1,100,1.690887
65770,10868,3,ER,1,100,1.689478
65820,10886,2,ER,1,100,1.690485
65871,10886,2,ER,1,100,1.689075
65921,10904,2,ER,1,100,1.689478
65971,10904,2,ER,1,100,1.690485
66021,10922,2,ER,1,100,1.688873
66072,10922,2,ER,1,100,1.692096
66123,10940,2,ER,1,100,1.687262
66174,10940,2,ER,1,100,1.692096
66224,10958,2,ER,1,100,1.687463
66274,10958,2,ER,1,100,1.690887
66324,10977,2,ER,1,100,1.686859
66375,10977,2,ER,1,100,1.691492
66425,10995,2,ER,1,100,1.688672
66476,10995,2,ER,1,100,1.691895
66526,11013,2,ER,1,100,1.690283
66577,11013,2,ER,1,100,1.691895
66627,11031,2,ER,1,100,1.689075
66678,11031,2,ER,1,100,1.692902
66728,11049,2,ER,1,100,1.688470
66779,11049,2,ER,1,100,1.691895
66829,11067,2,ER,1,100,1.688672
66880,11067,2,ER,1,100,1.693304
66930,11085,2,ER,1,100,1.688068
66981,11085,2,ER,1,100,1.692700
67031,11104,2,ER,1,100,1.688873
67082,11104,2,ER,1,100,1.692902
67132,11122,2,ER,1,100,1.689679
67183,11122,2,ER,1,100,1.691089
67233,11140,2,ER,1,100,1.688470
67284,11140,2,ER,1,100,1.690082
67318,11158,3,ER,1,100,1.690887
67352,11158,3,ER,1,100,1.692297
67387,11158,3,ER,1,100,1.690485
67437,11176,2,ER,1,100,1.690485
67487,11176,2,ER,1,100,1.690887
67537,11194,2,ER,1,100,1.690887
67587,11194,2,ER,1,100,1.690283
67637,11212,2,ER,1,100,1.689880
67688,11212,2,ER,1,100,1.690283
67739,11230,2,ER,1,100,1.687262
67790,11230,2,ER,1,100,1.691895
67840,11249,2,ER,1,100,1.690082
67890,11249,2,ER,1,100,1.693103
67940,11267,2,ER,1,100,1.689276
67991,11267,2,ER,1,100,1.694513
68041,11285,2,ER,1,100,1.689679
68092,11285,2,ER,1,100,1.694311
68143,11303,2,ER,1,100,1.688068
68194,11303,2,ER,1,100,1.693506
68244,11321,2,ER,1,100,1.688873
68294,11321,2,ER,1,100,1.691492
68344,11339,2,ER,1,100,1.686456
68395,11339,2,ER,1,100,1.692499
68446,11357,2,ER,1,100,1.686456
68498,11357,2,ER,1,100,1.692096
68547,11376,2,ER,1,100,1.688068
68597,11376,2,ER,1,100,1.692096
68647,11394,2,ER,1,100,1.688672
68698,11394,2,ER,1,100,1.691290
68748,11412,2,ER,1,100,1.688068
68799,11412,2,ER,1,100,1.691895
68833,11430,3,ER,1,100,1.689478
68867,11430,3,ER,1,100,1.691693
68902,11430,3,ER,1,100,1.689679
68952,11448,2,ER,1,100,1.689880
69002,11448,2,ER,1,100,1.690686
69052,11466,2,ER,1,100,1.690283
69102,11466,2,ER,1,100,1.691290
69152,11484,2,ER,1,100,1.692297
69203,11484,2,ER,1,100,1.690887
69253,11503,2,ER,1,100,1.691895
69304,11503,2,ER,1,100,1.693506
69354,11521,2,ER,1,100,1.689075
69405,11521,2,ER,1,100,1.693304
69455,11539,2,ER,1,100,1.689478
69506,11539,2,ER,1,100,1.692297
69556,11557,2,ER,1,100,1.689075
69607,11557,2,ER,1,100,1.694513
69659,11578,3,ER,1,100,1.688269
69712,11578,3,ER,1,100,1.691895
69765,11578,3,ER,1,100,1.689276
69815,11598,2,ER,1,100,1.689679
69865,11598,2,ER,1,100,1.691089
69916,11616,2,ER,1,100,1.693909
69968,11616,2,ER,1,100,1.694311
70017,11635,2,ER,1,100,1.690887
70067,11635,2,ER,1,100,1.691895
70117,11653,2,ER,1,100,1.688672
70168,11653,2,ER,1,100,1.694916
70218,11671,2,ER,1,100,1.688672
70269,11671,2,ER,1,100,1.691089
70311,11689,4,ER,1,100,1.688470
70354,11689,4,ER,1,100,1.691290
70396,11689,4,ER,1,100,1.694513
70439,11689,4,ER,1,100,1.696326
70488,11707,2,ER,1,100,1.691895
70538,11707,2,ER,1,100,1.691290
70589,11725,2,ER,1,100,1.690686
70640,11725,2,ER,1,100,1.692499
70690,11743,2,ER,1,100,1.689075
70740,11743,2,ER,1,100,1.692700
70790,11762,2,ER,1,100,1.687866
70841,11762,2,ER,1,100,1.693103
70891,11780,2,ER,1,100,1.689075
70942,11780,2,ER,1,100,1.696527
70992,11798,2,ER,1,100,1.687866
71043,11798,2,ER,1,100,1.694110
71093,11816,2,ER,1,100,1.689880
71144,11816,2,ER,1,100,1.691089
71194,11834,2,ER,1,100,1.689075
71245,11834,2,ER,1,100,1.690887
71279,11852,3,ER,1,100,1.688672
71313,11852,3,ER,1,100,1.689478
71347,11852,3,ER,1,100,1.688873
71397,11870,2,ER,1,100,1.691693
71448,11870,2,ER,1,100,1.691895
71498,11889,2,ER,1,100,1.690082
71548,11889,2,ER,1,100,1.693707
71598,11907,2,ER,1,100,1.688269
71649,11907,2,ER,1,100,1.692499
71699,11925,2,ER,1,100,1.689679
71750,11925,2,ER,1,100,1.691089
71800,11943,2,ER,1,100,1.688269
71851,11943,2,ER,1,100,1.693707
71901,11961,2,ER,1,100,1.688068
71952,11961,2,ER,1,100,1.698138
72002,11979,2,ER,1,100,1.687866
72053,11979,2,ER,1,100,1.692499
72103,11997,2,ER,1,100,1.687665
72154,11997,2,ER,1,100,1.691492
72205,12015,2,ER,1,100,1.687665
72256,12015,2,ER,1,100,1.691492
72306,12034,2,ER,1,100,1.688873
72356,12034,2,ER,1,100,1.695520
72406,12052,2,ER,1,100,1.686053
72457,12052,2,ER,1,100,1.690686
72508,12070,2,ER,1,100,1.687463
72559,12070,2,ER,1,100,1.691290
72609,12088,2,ER,1,100,1.688672
72660,12088,2,ER,1,100,1.692902
72710,12106,2,ER,1,100,1.689679
72761,12106,2,ER,1,100,1.692297
72811,12124,2,ER,1,100,1.688672
72862,12124,2,ER,1,100,1.692096
72912,12142,2,ER,1,100,1.688873
72963,12142,2,ER,1,100,1.692902
72997,12161,3,ER,1,100,1.689478
73031,12161,3,ER,1,100,1.690283
73065,12161,3,ER,1,100,1.692499
73115,12179,2,ER,1,100,1.691895
73165,12179,2,ER,1,100,1.690686
73216,12197,2,ER,1,100,1.689075
73267,12197,2,ER,1,100,1.690283
73317,12215,2,ER,1,100,1.687060
73367,12215,2,ER,1,100,1.693304
73417,12233,2,ER,1,100,1.688873
73468,12233,2,ER,1,100,1.692902
73518,12251,2,ER,1,100,1.687060
73569,12251,2,ER,1,100,1.691089
73620,12269,2,ER,1,100,1.688672
73671,12269,2,ER,1,100,1.692297
73721,12287,2,ER,1,100,1.687866
73771,12287,2,ER,1,100,1.693304
73821,12306,2,ER,1,100,1.688873
73872,12306,2,ER,1,100,1.694916
73923,12324,2,ER,1,100,1.689880
73974,12324,2,ER,1,100,1.689679
74024,12342,2,ER,1,100,1.688068
74074,12342,2,ER,1,100,1.694110
74124,12360,2,ER,1,100,1.690686
74175,12360,2,ER,1,100,1.693304
74225,12378,2,ER,1,100,1.690485
74276,12378,2,ER,1,100,1.693707
74326,12396,2,ER,1,100,1.691290
74377,12396,2,ER,1,100,1.688672
74427,12414,2,ER,1,100,1.687866
74478,12414,2,ER,1,100,1.691492
74512,12433,3,ER,1,100,1.689880
74546,12433,3,ER,1,100,1.693304
74581,12433,3,ER,1,100,1.692700
74630,12451,2,ER,1,100,1.688873
74680,12451,2,ER,1,100,1.690485
74730,12469,2,ER,1,100,1.690686
74781,12469,2,ER,1,100,1.691895
74832,12487,2,ER,1,100,1.689276
74883,12487,2,ER,1,100,1.694110
74933,12505,2,ER,1,100,1.690082
74983,12505,2,ER,1,100,1.696124
75033,12523,2,ER,1,100,1.698541
75084,12523,2,ER,1,100,1.729962
75134,12541,2,ER,1,100,1.711230
75185,12541,2,ER,1,100,1.719690
75235,12560,2,ER,1,100,1.702972
75286,12560,2,ER,1,100,1.818787
75337,12578,2,ER,1,100,1.985760
75388,12578,2,ER,1,100,2.101373
75438,12596,2,ER,1,100,2.122320
75488,12596,2,ER,1,100,2.102179
75538,12614,2,ER,1,100,2.082239
75589,12614,2,ER,1,100,2.138434
75640,12632,2,ER,1,100,1.969244
75691,12632,2,ER,1,100,2.159582
75741,12650,2,ER,1,100,2.286273
75791,12650,2,ER,1,100,2.373688
75841,12668,2,ER,1,100,2.331995
75892,12668,2,ER,1,100,2.292517
75942,12686,2,ER,1,100,2.196643
75993,12686,2,ER,1,100,2.112048
76027,12705,3,ER,1,100,2.096539
76061,12705,3,ER,1,100,2.140851
76095,12705,3,ER,1,100,1.963202
76145,12723,2,ER,1,100,1.836310
76195,12723,2,ER,1,100,1.756146
76245,12741,2,ER,1,100,1.550299
76296,12741,2,ER,1,100,1.551306
76346,12759,2,ER,1,100,1.484839
76397,12759,2,ER,1,100,1.237500
76447,12777,2,ER,1,100,1.302356
76498,12777,2,ER,1,100,1.353918
76548,12795,2,ER,1,100,1.418170
76599,12795,2,ER,1,100,1.411322
76649,12813,2,ER,1,100,1.406287
76700,12813,2,ER,1,100,1.434283
76750,12832,2,ER,1,100,1.447778
76801,12832,2,ER,1,100,1.531366
76851,12851,2,ER,1,100,1.557550
76902,12851,2,ER,1,100,1.718884
76952,12869,2,ER,1,100,1.719690
77003,12869,2,ER,1,100,1.538214
77053,12887,2,ER,1,100,1.455432
77104,12887,2,ER,1,100,1.524518
77155,12905,2,ER,1,100,1.617371
77206,12905,2,ER,1,100,2.093518
77256,12923,2,ER,1,100,2.145282
77306,12923,2,ER,1,100,2.185364
77356,12941,2,ER,1,100,2.224841
77407,12941,2,ER,1,100,2.223633
77457,12960,2,ER,1,100,2.213159
77508,12960,2,ER,1,100,2.139441
77558,12978,2,ER,1,100,1.993616
77609,12978,2,ER,1,100,1.970654
77643,12996,3,ER,1,100,1.978510
77677,12996,3,ER,1,100,1.973474
77712,12996,3,ER,1,100,1.950513
77761,13014,2,ER,1,100,1.908417
77811,13014,2,ER,1,100,1.923321
77861,13032,2,ER,1,100,1.863299
77912,13032,2,ER,1,100,1.809723
77963,13050,2,ER,1,100,1.787164
78014,13050,2,ER,1,100,1.829865
78064,13068,2,ER,1,100,1.869141
78114,13068,2,ER,1,100,1.984552
78164,13086,2,ER,1,100,2.022217
78215,13086,2,ER,1,100,1.975287
78265,13105,2,ER,1,100,1.954138
78316,13105,2,ER,1,100,1.902777
78367,13123,2,ER,1,100,1.795422
78418,13123,2,ER,1,100,1.774274
78468,13141,2,ER,1,100,1.759167
78518,13141,2,ER,1,100,1.754333
78568,13159,2,ER,1,100,1.699951
78619,13159,2,ER,1,100,1.693909
78669,13177,2,ER,1,100,1.674573
78720,13177,2,ER,1,100,1.666718
78770,13195,2,ER,1,100,1.671954
78821,13195,2,ER,1,100,1.655438
78871,13213,2,ER,1,100,1.627240
78922,13213,2,ER,1,100,1.618780
78972,13232,2,ER,1,100,1.613947
79023,13232,2,ER,1,100,1.594409
79057,13250,3,ER,1,100,1.575073
79091,13250,3,ER,1,100,1.565808
79125,13250,3,ER,1,100,1.603876
79175,13268,2,ER,1,100,1.644965
79226,13268,2,ER,1,100,1.663696
79276,13286,2,ER,1,100,1.619788
79326,13286,2,ER,1,100,1.591388
79377,13304,2,ER,1,100,1.587762
79428,13304,2,ER,1,100,1.574066
79478,13322,2,ER,1,100,1.550299
79529,13322,2,ER,1,100,1.554529
79579,13340,2,ER,1,100,1.585547
79629,13340,2,ER,1,100,1.624420
79679,13358,2,ER,1,100,1.665509
79730,13358,2,ER,1,100,1.657654
79780,13377,2,ER,1,100,1.631268
79831,13377,2,ER,1,100,1.629456
79881,13395,2,ER,1,100,1.611127
79932,13395,2,ER,1,100,1.605890
79982,13413,2,ER,1,100,1.603876
80033,13413,2,ER,1,100,1.621197
80083,13431,2,ER,1,100,1.625830
80134,13431,2,ER,1,100,1.681018
80184,13449,2,ER,1,100,1.745068
80235,13449,2,ER,1,100,1.827246
80285,13467,2,ER,1,100,1.814355
80336,13467,2,ER,1,100,1.857660
80386,13485,2,ER,1,100,1.881628
80437,13485,2,ER,1,100,1.853833
80487,13504,2,ER,1,100,1.782330
80538,13504,2,ER,1,100,1.756549
80578,13525,4,ER,1,100,1.759570
80618,13525,4,ER,1,100,1.713446
80658,13525,4,ER,1,100,1.708008
80699,13525,4,ER,1,100,1.716064
80749,13545,2,ER,1,100,1.633282
80800,13545,2,ER,1,100,1.631268
80849,13563,2,ER,1,100,1.631470
80899,13563,2,ER,1,100,1.597229
80949,13581,2,ER,1,100,1.597632
81000,13581,2,ER,1,100,1.600452
81050,13599,2,ER,1,100,1.623816
81101,13599,2,ER,1,100,1.635297
81152,13617,2,ER,1,100,1.600653
81203,13617,2,ER,1,100,1.572052
81253,13636,2,ER,1,100,1.558758
81303,13636,2,ER,1,100,1.632678
81353,13654,2,ER,1,100,1.651611
81404,13654,2,ER,1,100,1.650403
81454,13672,2,ER,1,100,1.687665
81505,13672,2,ER,1,100,1.639526
81556,13690,2,ER,1,100,1.610120
81607,13690,2,ER,1,100,1.619385
81657,13708,2,ER,1,100,1.611529
81707,13708,2,ER,1,100,1.611127
81757,13726,2,ER,1,100,1.613947
81808,13726,2,ER,1,100,1.629657
81858,13744,2,ER,1,100,1.648389
81909,13744,2,ER,1,100,1.677191
81959,13763,2,ER,1,100,1.652820
82010,13763,2,ER,1,100,1.620996
82044,13781,3,ER,1,100,1.618176
82078,13781,3,ER,1,100,1.641742
82113,13781,3,ER,1,100,1.651209
82163,13799,2,ER,1,100,1.665509
82213,13799,2,ER,1,100,1.657251
82263,13817,2,ER,1,100,1.644562
82313,13817,2,ER,1,100,1.643957
82363,13835,2,ER,1,100,1.633685
82414,13835,2,ER,1,100,1.613745
82464,13853,2,ER,1,100,1.644965
82515,13853,2,ER,1,100,1.659869
82565,13871,2,ER,1,100,1.650604
82616,13871,2,ER,1,100,1.649799
82666,13889,2,ER,1,100,1.638116
82717,13889,2,ER,1,100,1.606091
82767,13908,2,ER,1,100,1.608710
82818,13908,2,ER,1,100,1.691290
82868,13926,2,ER,1,100,1.697937
82919,13926,2,ER,1,100,1.685651
82969,13944,2,ER,1,100,1.671149
83020,13944,2,ER,1,100,1.669537
83070,13962,2,ER,1,100,1.660876
83121,13962,2,ER,1,100,1.645166
83171,13980,2,ER,1,100,1.655640
83222,13980,2,ER,1,100,1.666919
83272,13998,2,ER,1,100,1.666113
83323,13998,2,ER,1,100,1.699951
83373,14016,2,ER,1,100,1.756549
83424,14016,2,ER,1,100,1.778302
83474,14035,2,ER,1,100,1.797839
83525,14035,2,ER,1,100,1.763196
83559,14053,3,ER,1,100,1.748090
83593,14053,3,ER,1,100,1.735602
83628,14053,3,ER,1,100,1.715259
83677,14071,2,ER,1,100,1.684845
83727,14071,2,ER,1,100,1.657654
83777,14089,2,ER,1,100,1.626032
83828,14089,2,ER,1,100,1.619183
83878,14107,2,ER,1,100,1.645367
83929,14107,2,ER,1,100,1.657050
83980,14125,2,ER,1,100,1.673163
84032,14125,2,ER,1,100,1.683234
84082,14143,2,ER,1,100,1.670947
84132,14143,2,ER,1,100,1.661279
84182,14162,2,ER,1,100,1.632477
84233,14162,2,ER,1,100,1.616766
84283,14180,2,ER,1,100,1.593805
84334,14180,2,ER,1,100,1.650201
84384,14198,2,ER,1,100,1.694714
84435,14198,2,ER,1,100,1.708209
84485,14216,2,ER,1,100,1.697333
84536,14216,2,ER,1,100,1.696930
84586,14234,2,ER,1,100,1.678400
84637,14234,2,ER,1,100,1.638922
84688,14252,2,ER,1,100,1.624219
84740,14252,2,ER,1,100,1.669940
84789,14270,2,ER,1,100,1.699750
84839,14270,2,ER,1,100,1.684241
84889,14288,2,ER,1,100,1.664301
84940,14288,2,ER,1,100,1.660474
84990,14307,2,ER,1,100,1.652216
85041,14307,2,ER,1,100,1.631470
85075,14325,3,ER,1,100,1.618378
85109,14325,3,ER,1,100,1.646979
85143,14325,3,ER,1,100,1.684241
85193,14343,2,ER,1,100,1.707605
85244,14343,2,ER,1,100,1.681018
85294,14361,2,ER,1,100,1.672357
85344,14361,2,ER,1,100,1.663092
85394,14379,2,ER,1,100,1.640735
85445,14379,2,ER,1,100,1.617572
85495,14397,2,ER,1,100,1.636706
85546,14397,2,ER,1,100,1.632477
85596,14415,2,ER,1,100,1.669134
85647,14415,2,ER,1,100,1.679608
85697,14434,2,ER,1,100,1.647382
85748,14434,2,ER,1,100,1.666718
85798,14452,2,ER,1,100,1.651611
85849,14452,2,ER,1,100,1.631470
85900,14470,2,ER,1,100,1.640936
85952,14470,2,ER,1,100,1.649799
86002,14488,2,ER,1,100,1.615155
86052,14488,2,ER,1,100,1.622809
86102,14506,2,ER,1,100,1.605084
86153,14506,2,ER,1,100,1.663696
86204,14524,2,ER,1,100,1.688068
86255,14524,2,ER,1,100,1.706195
86305,14542,2,ER,1,100,1.766620
86355,14542,2,ER,1,100,1.783539
86405,14561,2,ER,1,100,1.732983
86456,14561,2,ER,1,100,1.650403
86506,14579,2,ER,1,100,1.502966
86557,14579,2,ER,1,100,1.478998
86607,14597,2,ER,1,100,1.505383
86658,14597,2,ER,1,100,1.527136
86692,14615,3,ER,1,100,1.496924
86726,14615,3,ER,1,100,1.433881
86760,14615,3,ER,1,100,1.397626
86810,14633,2,ER,1,100,1.401654
86861,14633,2,ER,1,100,1.403467
86911,14651,2,ER,1,100,1.445764
86961,14651,2,ER,1,100,1.460266
87012,14669,2,ER,1,100,1.498535
87063,14669,2,ER,1,100,1.500549
87113,14687,2,ER,1,100,1.459460
87163,14687,2,ER,1,100,1.477991
87213,14706,2,ER,1,100,1.522302
87264,14706,2,ER,1,100,1.623413
87314,14724,2,ER,1,100,1.525525
87365,14724,2,ER,1,100,1.544861
87415,14742,2,ER,1,100,1.548083
87466,14742,2,ER,1,100,1.536804
87516,14760,2,ER,1,100,1.494104
87567,14760,2,ER,1,100,1.502966
87617,14778,2,ER,1,100,1.529553
87668,14778,2,ER,1,100,1.544458
87719,14796,2,ER,1,100,1.551508
87770,14796,2,ER,1,100,1.568024
87820,14814,2,ER,1,100,1.584540
87870,14814,2,ER,1,100,1.592596
87920,14833,2,ER,1,100,1.673968
87971,14833,2,ER,1,100,1.628650
88021,14851,2,ER,1,100,1.559363
88072,14851,2,ER,1,100,1.544659
88122,14869,2,ER,1,100,1.565002
88173,14869,2,ER,1,100,1.667926
88207,14887,3,ER,1,100,1.705591
88241,14887,3,ER,1,100,1.758765
88275,14887,3,ER,1,100,1.897339
88325,14905,2,ER,1,100,1.950513
88375,14905,2,ER,1,100,1.928961
88425,14923,2,ER,1,100,1.884045
88476,14923,2,ER,1,100,1.815967
88527,14941,2,ER,1,100,1.780719
88579,14941,2,ER,1,100,1.762189
88628,14959,2,ER,1,100,1.781122
88678,14959,2,ER,1,100,1.679407
88728,14978,2,ER,1,100,1.645166
88779,14978,2,ER,1,100,1.577289
88829,14996,2,ER,1,100,1.446771
88880,14996,2,ER,1,100,1.452008
88930,15014,2,ER,1,100,1.540027
88981,15014,2,ER,1,100,1.641742
89032,15032,2,ER,1,100,1.809521
89083,15032,2,ER,1,100,1.935205
89133,15050,2,ER,1,100,1.969647
89183,15050,2,ER,1,100,1.968237
89233,15068,2,ER,1,100,1.934802
89284,15068,2,ER,1,100,1.881830
89335,15086,2,ER,1,100,1.859674
89386,15086,2,ER,1,100,1.796027
89436,15105,2,ER,1,100,1.584540
89486,15105,2,ER,1,100,1.548285
89536,15123,2,ER,1,100,1.435693
89587,15123,2,ER,1,100,1.397827
89637,15141,2,ER,1,100,1.508807
89688,15141,2,ER,1,100,1.563794
89738,15159,2,ER,1,100,1.839935
89789,15159,2,ER,1,100,2.024634
89823,15177,3,ER,1,100,2.086670
89857,15177,3,ER,1,100,2.065521
89891,15177,3,ER,1,100,1.967834
89941,15195,2,ER,1,100,1.938428
89991,15195,2,ER,1,100,1.891498
90041,15213,2,ER,1,100,1.911035
90092,15213,2,ER,1,100,1.760175
90142,15232,2,ER,1,100,1.628247
90193,15232,2,ER,1,100,1.590582
90243,15250,2,ER,1,100,1.460266
90294,15250,2,ER,1,100,1.527539
90344,15268,2,ER,1,100,1.490277
90395,15268,2,ER,1,100,1.527740
90445,15286,2,ER,1,100,1.549292
90496,15286,2,ER,1,100,1.535998
90547,15304,2,ER,1,100,1.552515
90598,15304,2,ER,1,100,1.566010
90648,15322,2,ER,1,100,1.585950
90698,15322,2,ER,1,100,1.590985
90748,15340,2,ER,1,100,1.600049
90799,15340,2,ER,1,100,1.600250
90849,15358,2,ER,1,100,1.599243
90900,15358,2,ER,1,100,1.607501
90950,15377,2,ER,1,100,1.610120
91001,15377,2,ER,1,100,1.614349
91051,15395,2,ER,1,100,1.615558
91102,15395,2,ER,1,100,1.624420
91152,15413,2,ER,1,100,1.624622
91203,15413,2,ER,1,100,1.628046
91253,15431,2,ER,1,100,1.630664
91304,15431,2,ER,1,100,1.638116
91338,15449,3,ER,1,100,1.639325
91372,15449,3,ER,1,100,1.644360
91406,15449,3,ER,1,100,1.645569
91466,15470,3,ER,1,100,1.649194
91526,15470,3,ER,1,100,1.655237
91587,15470,3,ER,1,100,1.650604
91637,15491,2,ER,1,100,1.652618
91687,15491,2,ER,1,100,1.649396
91737,15509,2,ER,1,100,1.659064
91787,15509,2,ER,1,100,1.658258
91837,15527,2,ER,1,100,1.656848
91888,15527,2,ER,1,100,1.662488
91938,15545,2,ER,1,100,1.660071
91989,15545,2,ER,1,100,1.665308
92039,15563,2,ER,1,100,1.664502
92090,15563,2,ER,1,100,1.673364
92124,15581,3,ER,1,100,1.673767
92158,15581,3,ER,1,100,1.675177
92193,15581,3,ER,1,100,1.673566
92243,15599,2,ER,1,100,1.672760
92293,15599,2,ER,1,100,1.675781
92343,15617,2,ER,1,100,1.672559
92393,15617,2,ER,1,100,1.672156
92443,15636,2,ER,1,100,1.666718
92494,15636,2,ER,1,100,1.670746
92544,15654,2,ER,1,100,1.665509
92595,15654,2,ER,1,100,1.667120
92645,15672,2,ER,1,100,1.661481
92696,15672,2,ER,1,100,1.663092
92746,15690,2,ER,1,100,1.659668
92797,15690,2,ER,1,100,1.657251
92847,15708,2,ER,1,100,1.653827
92898,15708,2,ER,1,100,1.665308
92948,15726,2,ER,1,100,1.654431
92999,15726,2,ER,1,100,1.662085
93049,15744,2,ER,1,100,1.671954
93100,15744,2,ER,1,100,1.650000
93150,15763,2,ER,1,100,1.656445
93201,15763,2,ER,1,100,1.657654
93251,15781,2,ER,1,100,1.642548
93302,15781,2,ER,1,100,1.620593
93352,15799,2,ER,1,100,1.650201
93403,15799,2,ER,1,100,1.646979
93453,15817,2,ER,1,100,1.651209
93504,15817,2,ER,1,100,1.647986
93538,15835,3,ER,1,100,1.699145
93572,15835,3,ER,1,100,1.686255
93607,15835,3,ER,1,100,1.655841
93656,15853,2,ER,1,100,1.684644
93706,15853,2,ER,1,100,1.726941
93756,15871,2,ER,1,100,1.699145
93807,15871,2,ER,1,100,1.674573
93858,15889,2,ER,1,100,1.670142
93909,15889,2,ER,1,100,1.683234
93959,15908,2,ER,1,100,1.653021
94009,15908,2,ER,1,100,1.716064
94059,15926,2,ER,1,100,1.717474
94110,15926,2,ER,1,100,1.698944
94160,15944,2,ER,1,100,1.689478
94211,15944,2,ER,1,100,1.687463
94261,15962,2,ER,1,100,1.681018
94312,15962,2,ER,1,100,1.693304
94363,15980,2,ER,1,100,1.692902
94414,15980,2,ER,1,100,1.692297
94464,15998,2,ER,1,100,1.687262
94514,15998,2,ER,1,100,1.690485
94565,16016,2,ER,1,100,1.685046
94616,16016,2,ER,1,100,1.710425
94667,16035,2,ER,1,100,1.635498
94718,16035,2,ER,1,100,1.622809
94767,16053,2,ER,1,100,1.681824
94817,16053,2,ER,1,100,1.711029
94867,16071,2,ER,1,100,1.695319
94918,16071,2,ER,1,100,1.683032
94968,16089,2,ER,1,100,1.689075
95019,16089,2,ER,1,100,1.696527
95053,16107,3,ER,1,100,1.690485
95087,16107,3,ER,1,100,1.681018
95122,16107,3,ER,1,100,1.679407
95172,16125,2,ER,1,100,1.681824
95222,16125,2,ER,1,100,1.680414
95272,16143,2,ER,1,100,1.671350
95322,16143,2,ER,1,100,1.643353
95373,16162,2,ER,1,100,1.651007
95425,16162,2,ER,1,100,1.681018
95474,16180,2,ER,1,100,1.651410
95524,16180,2,ER,1,100,1.706598
95574,16198,2,ER,1,100,1.658057
95625,16198,2,ER,1,100,1.720697
95675,16216,2,ER,1,100,1.689478
95726,16216,2,ER,1,100,1.657855
95776,16234,2,ER,1,100,1.672961
95827,16234,2,ER,1,100,1.646777
95878,16252,2,ER,1,100,1.644763
95929,16252,2,ER,1,100,1.721704
95979,16270,2,ER,1,100,1.696728
96029,16270,2,ER,1,100,1.699750
96079,16288,2,ER,1,100,1.677191
96130,16288,2,ER,1,100,1.646374
96181,16307,2,ER,1,100,1.641541
96232,16307,2,ER,1,100,1.690485
96274,16325,4,ER,1,100,1.738824
96317,16325,4,ER,1,100,1.755341
96360,16325,4,ER,1,100,1.743256
96403,16325,4,ER,1,100,1.689478
96452,16343,2,ER,1,100,1.625024
96502,16343,2,ER,1,100,1.647382
96553,16361,2,ER,1,100,1.667322
96605,16361,2,ER,1,100,1.689478
96654,16379,2,ER,1,100,1.638721
96704,16379,2,ER,1,100,1.696326
96754,16397,2,ER,1,100,1.679608
96805,16397,2,ER,1,100,1.677795
96856,16416,2,ER,1,100,1.606293
96907,16416,2,ER,1,100,1.722913
96957,16434,2,ER,1,100,1.810529
97007,16434,2,ER,1,100,1.695319
97057,16452,2,ER,1,100,1.663293
97108,16452,2,ER,1,100,1.646173
97158,16470,2,ER,1,100,1.660272
97209,16470,2,ER,1,100,1.665509
97260,16488,2,ER,1,100,1.707001
97311,16488,2,ER,1,100,1.716870
97361,16506,2,ER,1,100,1.684442
97411,16506,2,ER,1,100,1.687866
97461,16524,2,ER,1,100,1.661279
97512,16524,2,ER,1,100,1.635498
97562,16542,2,ER,1,100,1.663495
97613,16542,2,ER,1,100,1.706799
97647,16561,3,ER,1,100,1.715460
97681,16561,3,ER,1,100,1.703979
97715,16561,3,ER,1,100,1.687463
97765,16579,2,ER,1,100,1.669940
97815,16579,2,ER,1,100,1.661883
97865,16597,2,ER,1,100,1.659064
97916,16597,2,ER,1,100,1.660272
97967,16615,2,ER,1,100,1.667725
98018,16615,2,ER,1,100,1.685651
98068,16633,2,ER,1,100,1.691290
98118,16633,2,ER,1,100,1.684845
98168,16651,2,ER,1,100,1.674774
98219,16651,2,ER,1,100,1.677594
98269,16669,2,ER,1,100,1.678802
98320,16669,2,ER,1,100,1.679407
98371,16688,2,ER,1,100,1.677191
98422,16688,2,ER,1,100,1.686859
98472,16706,2,ER,1,100,1.682629
98522,16706,2,ER,1,100,1.691895
98572,16724,2,ER,1,100,1.682227
98623,16724,2,ER,1,100,1.682629
98673,16742,2,ER,1,100,1.688873
98724,16742,2,ER,1,100,1.694916
98775,16760,2,ER,1,100,1.662085
98827,16760,2,ER,1,100,1.683838
98876,16778,2,ER,1,100,1.679407
98926,16778,2,ER,1,100,1.679407
98976,16796,2,ER,1,100,1.684644
99027,16796,2,ER,1,100,1.697736
99077,16814,2,ER,1,100,1.706598
99128,16814,2,ER,1,100,1.706396
99162,16833,3,ER,1,100,1.698743
99196,16833,3,ER,1,100,1.703174
99231,16833,3,ER,1,100,1.693506
99281,16851,2,ER,1,100,1.682428
99331,16851,2,ER,1,100,1.666919
99381,16869,2,ER,1,100,1.657654
99431,16869,2,ER,1,100,1.658862
99481,16887,2,ER,1,100,1.662286
99532,16887,2,ER,1,100,1.679205
99583,16905,2,ER,1,100,1.698743
99634,16905,2,ER,1,100,1.711633
99684,16923,2,ER,1,100,1.703174
99734,16923,2,ER,1,100,1.696527
99784,16941,2,ER,1,100,1.683636
99835,16941,2,ER,1,100,1.686053
99886,16960,2,ER,1,100,1.678198
99937,16960,2,ER,1,100,1.686255
99987,16978,2,ER,1,100,1.679205
100037,16978,2,ER,1,100,1.682025
100087,16996,2,ER,1,100,1.681622
100138,16996,2,ER,1,100,1.689075
100188,17014,2,ER,1,100,1.693707
100239,17014,2,ER,1,100,1.711029
100290,17032,2,ER,1,100,1.715662
100341,17032,2,ER,1,100,1.689478
100391,17050,2,ER,1,100,1.666113
100442,17050,2,ER,1,100,1.704785
100492,17068,2,ER,1,100,1.636706
100542,17068,2,ER,1,100,1.711029
100592,17087,2,ER,1,100,1.651007
100643,17087,2,ER,1,100,1.654633
100693,17105,2,ER,1,100,1.672357
100744,17105,2,ER,1,100,1.623816
100778,17123,3,ER,1,100,1.660675
100812,17123,3,ER,1,100,1.734393
100847,17123,3,ER,1,100,1.747687
100896,17141,2,ER,1,100,1.719891
100946,17141,2,ER,1,100,1.611127
100996,17159,2,ER,1,100,1.707001
101047,17159,2,ER,1,100,1.831476
101097,17177,2,ER,1,100,1.757153
101148,17177,2,ER,1,100,1.755945
101198,17195,2,ER,1,100,1.747082
101249,17195,2,ER,1,100,1.838122
101300,17213,2,ER,1,100,1.891901
101351,17213,2,ER,1,100,1.931177
101401,17232,2,ER,1,100,1.920099
101451,17232,2,ER,1,100,1.971460
101501,17250,2,ER,1,100,1.964007
101552,17250,2,ER,1,100,1.908618
101602,17268,2,ER,1,100,1.831476
101653,17268,2,ER,1,100,1.805896
101703,17286,2,ER,1,100,1.755341
101754,17286,2,ER,1,100,1.712439
101804,17304,2,ER,1,100,1.643152
101855,17304,2,ER,1,100,1.619385
101905,17322,2,ER,1,100,1.619385
101956,17322,2,ER,1,100,1.587360
102006,17340,2,ER,1,100,1.594006
102057,17340,2,ER,1,100,1.601862
102107,17359,2,ER,1,100,1.602264
102158,17359,2,ER,1,100,1.602869
102208,17377,2,ER,1,100,1.601257
102259,17377,2,ER,1,100,1.611529
102293,17395,3,ER,1,100,1.622607
102327,17395,3,ER,1,100,1.664502
102361,17395,3,ER,1,100,1.668329
102415,17416,3,ER,1,100,1.649597
102469,17416,3,ER,1,100,1.590381
102524,17416,3,ER,1,100,1.599646
102574,17436,2,ER,1,100,1.714453
102624,17436,2,ER,1,100,1.828857
102674,17454,2,ER,1,100,1.878003
102725,17454,2,ER,1,100,2.001471
102776,17472,2,ER,1,100,2.065118
102827,17472,2,ER,1,100,2.041754
102877,17491,2,ER,1,100,1.927148
102927,17491,2,ER,1,100,1.833289
102977,17509,2,ER,1,100,1.767828
103028,17509,2,ER,1,100,1.607501
103079,17527,2,ER,1,100,1.528949
103130,17527,2,ER,1,100,1.668530
103180,17545,2,ER,1,100,1.636304
103230,17545,2,ER,1,100,1.553723
103280,17563,2,ER,1,100,1.412128
103331,17563,2,ER,1,100,1.377484
103381,17581,2,ER,1,100,1.472955
103432,17581,2,ER,1,100,1.579303
103482,17599,2,ER,1,100,1.901166
103533,17599,2,ER,1,100,2.112048
103583,17618,2,ER,1,100,2.107617
103634,17618,2,ER,1,100,2.089893
103668,17636,3,ER,1,100,2.054645
103702,17636,3,ER,1,100,2.006305
103736,17636,3,ER,1,100,1.816168
103786,17654,2,ER,1,100,1.601257
103836,17654,2,ER,1,100,1.538214
103886,17672,2,ER,1,100,1.545868
103937,17672,2,ER,1,100,1.380505
103988,17690,2,ER,1,100,1.337805
104040,17690,2,ER,1,100,1.371844
104089,17708,2,ER,1,100,1.634692
104139,17708,2,ER,1,100,1.744263
104189,17726,2,ER,1,100,2.085058
104240,17726,2,ER,1,100,2.220007
104290,17744,2,ER,1,100,2.392017
104341,17744,2,ER,1,100,2.416791
104391,17763,2,ER,1,100,2.274390
104442,17763,2,ER,1,100,2.057263
104492,17781,2,ER,1,100,1.971057
104543,17781,2,ER,1,100,1.920099
104593,17799,2,ER,1,100,1.902777
104644,17799,2,ER,1,100,1.798242
104695,17817,2,ER,1,100,1.682025
104746,17817,2,ER,1,100,1.590784
104796,17835,2,ER,1,100,1.545868
104846,17835,2,ER,1,100,1.413739
104896,17853,2,ER,1,100,1.419781
104947,17853,2,ER,1,100,1.426025
104997,17871,2,ER,1,100,1.444354
105048,17871,2,ER,1,100,1.461877
105098,17890,2,ER,1,100,1.482623
105149,17890,2,ER,1,100,1.485242
105183,17908,3,ER,1,100,1.460870
105217,17908,3,ER,1,100,1.443951
105251,17908,3,ER,1,100,1.454425
105301,17926,2,ER,1,100,1.494910
105351,17926,2,ER,1,100,1.497528
105401,17944,2,ER,1,100,1.539825
105452,17944,2,ER,1,100,1.573462
105503,17962,2,ER,1,100,1.605688
105555,17962,2,ER,1,100,1.619385
105604,17980,2,ER,1,100,1.629657
105654,17980,2,ER,1,100,1.598236
105704,17998,2,ER,1,100,1.556140
105755,17998,2,ER,1,100,1.576685
105805,18017,2,ER,1,100,1.554327
105856,18017,2,ER,1,100,1.566614
105906,18035,2,ER,1,100,1.576483
105957,18035,2,ER,1,100,1.576483
106008,18053,2,ER,1,100,1.570441
106059,18053,2,ER,1,100,1.583734
106109,18071,2,ER,1,100,1.576483
106159,18071,2,ER,1,100,1.586151
106209,18089,2,ER,1,100,1.576685
106260,18089,2,ER,1,100,1.581921
106310,18107,2,ER,1,100,1.578900
106361,18107,2,ER,1,100,1.589777
106411,18125,2,ER,1,100,1.584943
106462,18125,2,ER,1,100,1.590381
106513,18143,2,ER,1,100,1.593805
106565,18143,2,ER,1,100,1.600049
106614,18162,2,ER,1,100,1.597833
106664,18162,2,ER,1,100,1.606293
106714,18180,2,ER,1,100,1.606293
106765,18180,2,ER,1,100,1.617975
106799,18198,3,ER,1,100,1.619183
106833,18198,3,ER,1,100,1.627240
106867,18198,3,ER,1,100,1.627441
106917,18216,2,ER,1,100,1.634692
106968,18216,2,ER,1,100,1.641943
107018,18234,2,ER,1,100,1.641541
107068,18234,2,ER,1,100,1.644159
107119,18252,2,ER,1,100,1.645569
107170,18252,2,ER,1,100,1.652820
107220,18270,2,ER,1,100,1.654230
107270,18270,2,ER,1,100,1.658459
107320,18289,2,ER,1,100,1.657050
107371,18289,2,ER,1,100,1.662085
107421,18307,2,ER,1,100,1.662891
107472,18307,2,ER,1,100,1.666718
107523,18325,2,ER,1,100,1.667926
107574,18325,2,ER,1,100,1.672156
107624,18343,2,ER,1,100,1.672357
107674,18343,2,ER,1,100,1.684845
107724,18361,2,ER,1,100,1.672156
107775,18361,2,ER,1,100,1.679004
107825,18379,2,ER,1,100,1.680212
107876,18379,2,ER,1,100,1.675177
107926,18397,2,ER,1,100,1.741241
107977,18397,2,ER,1,100,1.777496
108027,18415,2,ER,1,100,1.753931
108078,18415,2,ER,1,100,1.736407
108128,18434,2,ER,1,100,1.742249
108179,18434,2,ER,1,100,1.713446
108229,18452,2,ER,1,100,1.689679
108280,18452,2,ER,1,100,1.701965
108314,18470,3,ER,1,100,1.691290
108348,18470,3,ER,1,100,1.684241
108382,18470,3,ER,1,100,1.681824
108432,18488,2,ER,1,100,1.683435
108483,18488,2,ER,1,100,1.684442
108533,18506,2,ER,1,100,1.682428
108583,18506,2,ER,1,100,1.678601
108633,18524,2,ER,1,100,1.681421
108684,18524,2,ER,1,100,1.690485
108734,18542,2,ER,1,100,1.680212
108785,18542,2,ER,1,100,1.684442
108835,18561,2,ER,1,100,1.680817
108886,18561,2,ER,1,100,1.731573
108936,18579,2,ER,1,100,1.982739
108987,18579,2,ER,1,100,2.018994
109037,18597,2,ER,1,100,1.971259
109088,18597,2,ER,1,100,1.946082
109139,18615,2,ER,1,100,1.917682
109190,18615,2,ER,1,100,1.903986
109240,18633,2,ER,1,100,1.893512
109290,18633,2,ER,1,100,1.871759
109340,18651,2,ER,1,100,1.840942
109391,18651,2,ER,1,100,1.826038
109441,18669,2,ER,1,100,1.803479
109492,18669,2,ER,1,100,1.699347
109543,18688,2,ER,1,100,1.614349
109594,18688,2,ER,1,100,1.585144
109644,18706,2,ER,1,100,1.570239
109694,18706,2,ER,1,100,1.573059
109744,18724,2,ER,1,100,1.557751
109795,18724,2,ER,1,100,1.553320
109829,18742,3,ER,1,100,1.553723
109863,18742,3,ER,1,100,1.568426
109897,18742,3,ER,1,100,1.572858
109947,18760,2,ER,1,100,1.580310
109998,18760,2,ER,1,100,1.601056
110048,18778,2,ER,1,100,1.596222
110098,18778,2,ER,1,100,1.589172
110148,18796,2,ER,1,100,1.596826
110199,18796,2,ER,1,100,1.611328
110250,18814,2,ER,1,100,1.612537
110301,18814,2,ER,1,100,1.621802
110351,18833,2,ER,1,100,1.626032
110401,18833,2,ER,1,100,1.634894
110451,18851,2,ER,1,100,1.632074
110502,18851,2,ER,1,100,1.634692
110552,18869,2,ER,1,100,1.635095
110603,18869,2,ER,1,100,1.642950
110654,18887,2,ER,1,100,1.642548
110705,18887,2,ER,1,100,1.652820
110755,18905,2,ER,1,100,1.647583
110805,18905,2,ER,1,100,1.653827
110855,18923,2,ER,1,100,1.651611
110906,18923,2,ER,1,100,1.658057
110956,18941,2,ER,1,100,1.654834
111007,18941,2,ER,1,100,1.661078
111057,18960,2,ER,1,100,1.657654
111108,18960,2,ER,1,100,1.663696
111159,18978,2,ER,1,100,1.659668
111210,18978,2,ER,1,100,1.668329
111260,18996,2,ER,1,100,1.664703
111310,18996,2,ER,1,100,1.670142
111360,19014,2,ER,1,100,1.667120
111411,19014,2,ER,1,100,1.672760
111445,19032,3,ER,1,100,1.667926
111479,19032,3,ER,1,100,1.671954
111514,19032,3,ER,1,100,1.670343
111564,19050,2,ER,1,100,1.672559
111614,19050,2,ER,1,100,1.674371
111664,19068,2,ER,1,100,1.676184
111714,19068,2,ER,1,100,1.675781
111764,19086,2,ER,1,100,1.676788
111815,19086,2,ER,1,100,1.679407
111865,19105,2,ER,1,100,1.675781
111916,19105,2,ER,1,100,1.681824
111966,19123,2,ER,1,100,1.672357
112017,19123,2,ER,1,100,1.678198
112067,19141,2,ER,1,100,1.673364
112118,19141,2,ER,1,100,1.682629
112169,19159,2,ER,1,100,1.676990
112220,19159,2,ER,1,100,1.681018
112270,19177,2,ER,1,100,1.677795
112320,19177,2,ER,1,100,1.681219
112370,19195,2,ER,1,100,1.679407
112421,19195,2,ER,1,100,1.682428
112471,19213,2,ER,1,100,1.681421
112522,19213,2,ER,1,100,1.683636
112573,19232,2,ER,1,100,1.680212
112624,19232,2,ER,1,100,1.685852
112674,19250,2,ER,1,100,1.681219
112724,19250,2,ER,1,100,1.685852
112774,19268,2,ER,1,100,1.683032
112825,19268,2,ER,1,100,1.686859
112875,19286,2,ER,1,100,1.684241
112926,19286,2,ER,1,100,1.685248
112960,19304,3,ER,1,100,1.684442
112994,19304,3,ER,1,100,1.687262
113029,19304,3,ER,1,100,1.685248
113078,19322,2,ER,1,100,1.686859
113128,19322,2,ER,1,100,1.686658
113178,19340,2,ER,1,100,1.685046
113229,19340,2,ER,1,100,1.685449
113290,19362,3,ER,1,100,1.679205
113351,19362,3,ER,1,100,1.682831
113412,19362,3,ER,1,100,1.679407
113463,19382,2,ER,1,100,1.680414
113514,19382,2,ER,1,100,1.680817
113564,19400,2,ER,1,100,1.689880
113614,19400,2,ER,1,100,1.682428
113648,19418,3,ER,1,100,1.679407
113682,19418,3,ER,1,100,1.683234
113716,19418,3,ER,1,100,1.682629
113766,19436,2,ER,1,100,1.681824
113816,19436,2,ER,1,100,1.681622
113866,19454,2,ER,1,100,1.681824
113917,19454,2,ER,1,100,1.682629
113968,19472,2,ER,1,100,1.681421
114019,19472,2,ER,1,100,1.684039
114069,19491,2,ER,1,100,1.680817
114119,19491,2,ER,1,100,1.685852
114169,19509,2,ER,1,100,1.681421
114220,19509,2,ER,1,100,1.685449
114270,19527,2,ER,1,100,1.682428
114321,19527,2,ER,1,100,1.685449
114371,19545,2,ER,1,100,1.684241
114422,19545,2,ER,1,100,1.690283
114472,19563,2,ER,1,100,1.682831
114523,19563,2,ER,1,100,1.688068
114573,19581,2,ER,1,100,1.686255
114624,19581,2,ER,1,100,1.690082
114675,19599,2,ER,1,100,1.684845
114727,19599,2,ER,1,100,1.690485
114776,19618,2,ER,1,100,1.684845
114826,19618,2,ER,1,100,1.688672
114876,19636,2,ER,1,100,1.685852
114927,19636,2,ER,1,100,1.688470
114977,19654,2,ER,1,100,1.683838
115028,19654,2,ER,1,100,1.689075
115078,19672,2,ER,1,100,1.684845
115129,19672,2,ER,1,100,1.687262
115163,19690,3,ER,1,100,1.683636
115197,19690,3,ER,1,100,1.687060
115231,19690,3,ER,1,100,1.685248
115281,19708,2,ER,1,100,1.685248
115331,19708,2,ER,1,100,1.685852
115381,19726,2,ER,1,100,1.683838
115432,19726,2,ER,1,100,1.686859
115483,19744,2,ER,1,100,1.684039
115534,19744,2,ER,1,100,1.684442
115584,19763,2,ER,1,100,1.682831
115634,19763,2,ER,1,100,1.688068
115684,19781,2,ER,1,100,1.685449
115735,19781,2,ER,1,100,1.687665
115785,19799,2,ER,1,100,1.684442
115836,19799,2,ER,1,100,1.687262
115887,19817,2,ER,1,100,1.684442
115938,19817,2,ER,1,100,1.689276
115988,19835,2,ER,1,100,1.686255
116038,19835,2,ER,1,100,1.691492
116088,19853,2,ER,1,100,1.685852
116139,19853,2,ER,1,100,1.689880
116189,19871,2,ER,1,100,1.685046
116240,19871,2,ER,1,100,1.692096
116291,19890,2,ER,1,100,1.685852
116342,19890,2,ER,1,100,1.690082
116392,19908,2,ER,1,100,1.682629
116442,19908,2,ER,1,100,1.688470
116492,19926,2,ER,1,100,1.685248
116543,19926,2,ER,1,100,1.690485
116577,19944,3,ER,1,100,1.686255
116611,19944,3,ER,1,100,1.686456
116645,19944,3,ER,1,100,1.686456
116695,19962,2,ER,1,100,1.688873
116746,19962,2,ER,1,100,1.686859
116796,19980,2,ER,1,100,1.686456
116846,19980,2,ER,1,100,1.691089
116897,19998,2,ER,1,100,1.684039
116949,19998,2,ER,1,100,1.689276
116998,20017,2,ER,1,100,1.686255
117048,20017,2,ER,1,100,1.689075
117098,20035,2,ER,1,100,1.686255
117149,20035,2,ER,1,100,1.689478
117199,20053,2,ER,1,100,1.686053
117250,20053,2,ER,1,100,1.692297
117300,20071,2,ER,1,100,1.686255
117351,20071,2,ER,1,100,1.692499
117402,20089,2,ER,1,100,1.686658
117453,20089,2,ER,1,100,1.691290
117503,20107,2,ER,1,100,1.686658
117553,20107,2,ER,1,100,1.691089
117603,20125,2,ER,1,100,1.686658
117654,20125,2,ER,1,100,1.692499
117704,20143,2,ER,1,100,1.687866
117755,20143,2,ER,1,100,1.689880
117806,20162,2,ER,1,100,1.686053
117857,20162,2,ER,1,100,1.688873
117907,20180,2,ER,1,100,1.687665
117957,20180,2,ER,1,100,1.693506
118007,20198,2,ER,1,100,1.686859
118058,20198,2,ER,1,100,1.690686
118108,20216,2,ER,1,100,1.687060
118159,20216,2,ER,1,100,1.687866
118209,20234,2,ER,1,100,1.684644
118260,20234,2,ER,1,100,1.687463
118294,20252,3,ER,1,100,1.685449
118328,20252,3,ER,1,100,1.687262
118362,20252,3,ER,1,100,1.685852
118412,20270,2,ER,1,100,1.686053
118462,20270,2,ER,1,100,1.686255
118512,20289,2,ER,1,100,1.686053
118563,20289,2,ER,1,100,1.687262
118614,20307,2,ER,1,100,1.684644
118665,20307,2,ER,1,100,1.686859
118715,20325,2,ER,1,100,1.683032
118765,20325,2,ER,1,100,1.687463
118815,20343,2,ER,1,100,1.680212
118866,20343,2,ER,1,100,1.683838
118916,20361,2,ER,1,100,1.682025
118967,20361,2,ER,1,100,1.685248
119017,20379,2,ER,1,100,1.679608
119068,20379,2,ER,1,100,1.682428
119118,20397,2,ER,1,100,1.677795
119169,20397,2,ER,1,100,1.684644
119219,20415,2,ER,1,100,1.675580
119270,20415,2,ER,1,100,1.675983
119321,20434,2,ER,1,100,1.674170
119372,20434,2,ER,1,100,1.678400
119422,20452,2,ER,1,100,1.674976
119472,20452,2,ER,1,100,1.679004
119522,20470,2,ER,1,100,1.676386
119573,20470,2,ER,1,100,1.679810
119623,20488,2,ER,1,100,1.678601
119674,20488,2,ER,1,100,1.682831
119724,20506,2,ER,1,100,1.679407
119775,20506,2,ER,1,100,1.684039
119809,20524,3,ER,1,100,1.683234
119843,20524,3,ER,1,100,1.682025
119877,20524,3,ER,1,100,1.682428
119927,20542,2,ER,1,100,1.682831
119977,20542,2,ER,1,100,1.683636
120027,20561,2,ER,1,100,1.683435
120078,20561,2,ER,1,100,1.688068
120129,20579,2,ER,1,100,1.685046
120181,20579,2,ER,1,100,1.687866
120231,20597,2,ER,1,100,1.684241
120281,20597,2,ER,1,100,1.691492
120331,20615,2,ER,1,100,1.687060
120381,20615,2,ER,1,100,1.689679
120431,20633,2,ER,1,100,1.685248
120482,20633,2,ER,1,100,1.692096
120532,20651,2,ER,1,100,1.684845
120583,20651,2,ER,1,100,1.691492
120634,20669,2,ER,1,100,1.687262
120685,20669,2,ER,1,100,1.690686
120735,20688,2,ER,1,100,1.686658
120785,20688,2,ER,1,100,1.691290
120835,20706,2,ER,1,100,1.688068
120886,20706,2,ER,1,100,1.691895
120937,20724,2,ER,1,100,1.686456
120988,20724,2,ER,1,100,1.693506
121038,20742,2,ER,1,100,1.686456
121088,20742,2,ER,1,100,1.691089
121138,20760,2,ER,1,100,1.687060
121189,20760,2,ER,1,100,1.691693
121239,20778,2,ER,1,100,1.686658
121290,20778,2,ER,1,100,1.690686
121324,20796,3,ER,1,100,1.688269
121358,20796,3,ER,1,100,1.687866
121392,20796,3,ER,1,100,1.685852
121442,20814,2,ER,1,100,1.686859
121492,20814,2,ER,1,100,1.690082
121542,20833,2,ER,1,100,1.688068
121593,20833,2,ER,1,100,1.690887
121644,20851,2,ER,1,100,1.685852
121695,20851,2,ER,1,100,1.695721
121745,20869,2,ER,1,100,1.685651
121795,20869,2,ER,1,100,1.692096
121845,20887,2,ER,1,100,1.687665
121896,20887,2,ER,1,100,1.689880
121946,20905,2,ER,1,100,1.685852
121997,20905,2,ER,1,100,1.691290
122051,20923,3,ER,1,100,1.687060
122105,20923,3,ER,1,100,1.697333
122159,20923,3,ER,1,100,1.695520
122208,20942,2,ER,1,100,1.691693
122258,20942,2,ER,1,100,1.685046
122308,20960,2,ER,1,100,1.691693
122359,20960,2,ER,1,100,1.689276
122409,20978,2,ER,1,100,1.685651
122460,20978,2,ER,1,100,1.687866
122510,20996,2,ER,1,100,1.684845
122561,20996,2,ER,1,100,1.687463
122611,21014,2,ER,1,100,1.684039
122662,21014,2,ER,1,100,1.687060
122696,21032,3,ER,1,100,1.686658
122730,21032,3,ER,1,100,1.688470
122764,21032,3,ER,1,100,1.687060
122814,21050,2,ER,1,100,1.687665
122864,21050,2,ER,1,100,1.687866
122914,21068,2,ER,1,100,1.687060
122965,21068,2,ER,1,100,1.689478
123016,21087,2,ER,1,100,1.685651
123068,21087,2,ER,1,100,1.690686
123117,21105,2,ER,1,100,1.686255
123167,21105,2,ER,1,100,1.689276
123217,21123,2,ER,1,100,1.686859
123268,21123,2,ER,1,100,1.692297
123318,21141,2,ER,1,100,1.686456
123369,21141,2,ER,1,100,1.688873
123419,21159,2,ER,1,100,1.685449
123470,21159,2,ER,1,100,1.688672
123520,21177,2,ER,1,100,1.686456
123571,21177,2,ER,1,100,1.689478
123621,21195,2,ER,1,100,1.686255
123672,21195,2,ER,1,100,1.696124
123722,21214,2,ER,1,100,1.685449
123773,21214,2,ER,1,100,1.695319
123824,21232,2,ER,1,100,1.690082
123875,21232,2,ER,1,100,1.693103
123925,21250,2,ER,1,100,1.686859
123975,21250,2,ER,1,100,1.692499
124025,21268,2,ER,1,100,1.687262
124076,21268,2,ER,1,100,1.687262
124126,21286,2,ER,1,100,1.682629
124177,21286,2,ER,1,100,1.687262
124217,21307,4,ER,1,100,1.684039
124258,21307,4,ER,1,100,1.687463
124298,21307,4,ER,1,100,1.687262
124339,21307,4,ER,1,100,1.683636
124388,21327,2,ER,1,100,1.687866
124438,21327,2,ER,1,100,1.691693
124488,21346,2,ER,1,100,1.684845
124539,21346,2,ER,1,100,1.689075
124589,21364,2,ER,1,100,1.683435
124640,21364,2,ER,1,100,1.689075
124691,21382,2,ER,1,100,1.684845
124742,21382,2,ER,1,100,1.691895
124792,21400,2,ER,1,100,1.687060
124842,21400,2,ER,1,100,1.689478
124892,21418,2,ER,1,100,1.684845
124943,21418,2,ER,1,100,1.690283
124993,21436,2,ER,1,100,1.686053
125044,21436,2,ER,1,100,1.685248
125095,21454,2,ER,1,100,1.682227
125146,21454,2,ER,1,100,1.689478
125196,21472,2,ER,1,100,1.687866
125246,21472,2,ER,1,100,1.687866
125296,21491,2,ER,1,100,1.681824
125347,21491,2,ER,1,100,1.684241
125397,21509,2,ER,1,100,1.684442
125448,21509,2,ER,1,100,1.684845
125498,21527,2,ER,1,100,1.680615
125549,21527,2,ER,1,100,1.683636
125583,21545,3,ER,1,100,1.681219
125617,21545,3,ER,1,100,1.018359
125651,21545,3,ER,1,100,1.596625
125701,21563,2,ER,1,100,1.651813
125752,21563,2,ER,1,100,1.694311
125802,21581,2,ER,1,100,1.727142
125852,21581,2,ER,1,100,1.743860
125903,21599,2,ER,1,100,1.722913
125954,21599,2,ER,1,100,1.738220
126004,21618,2,ER,1,100,1.771857
126054,21618,2,ER,1,100,1.862897
126104,21636,2,ER,1,100,1.861285
126155,21636,2,ER,1,100,1.722107
126205,21654,2,ER,1,100,1.704382
126256,21654,2,ER,1,100,1.703979
126307,21672,2,ER,1,100,1.697736
126358,21672,2,ER,1,100,1.679205
126408,21690,2,ER,1,100,1.661279
126458,21690,2,ER,1,100,1.672961
126508,21708,2,ER,1,100,1.666315
126559,21708,2,ER,1,100,1.678601
126609,21726,2,ER,1,100,1.679004
126660,21726,2,ER,1,100,1.685852
126710,21745,2,ER,1,100,1.680615
126761,21745,2,ER,1,100,1.675983
126811,21763,2,ER,1,100,1.660474
126862,21763,2,ER,1,100,1.664099
126912,21781,2,ER,1,100,1.665912
126963,21781,2,ER,1,100,1.667725
126997,21799,3,ER,1,100,1.669739
127031,21799,3,ER,1,100,1.675580
127065,21799,3,ER,1,100,1.860278
127115,21817,2,ER,1,100,1.891498
127165,21817,2,ER,1,100,1.771252
127215,21835,2,ER,1,100,1.695923
127266,21835,2,ER,1,100,1.690283
127316,21853,2,ER,1,100,1.685046
127367,21853,2,ER,1,100,1.686859
127417,21871,2,ER,1,100,1.682025
127468,21871,2,ER,1,100,1.685449
127518,21890,2,ER,1,100,1.682831
127569,21890,2,ER,1,100,1.689679
127619,21908,2,ER,1,100,1.687665
127670,21908,2,ER,1,100,1.691895
127720,21926,2,ER,1,100,1.688470
127771,21926,2,ER,1,100,1.687665
127821,21944,2,ER,1,100,1.683234
127872,21944,2,ER,1,100,1.685046
127922,21962,2,ER,1,100,1.681018
127973,21962,2,ER,1,100,1.686658
128023,21980,2,ER,1,100,1.686053
128074,21980,2,ER,1,100,1.691089
128124,21998,2,ER,1,100,1.688068
128175,21998,2,ER,1,100,1.692096
128225,22017,2,ER,1,100,1.683838
128276,22017,2,ER,1,100,1.689478
128326,22035,2,ER,1,100,1.685852
128377,22035,2,ER,1,100,1.691492
128427,22053,2,ER,1,100,1.689075
128478,22053,2,ER,1,100,1.692499
128528,22071,2,ER,1,100,1.688470
128579,22071,2,ER,1,100,1.692499
128613,22089,3,ER,1,100,1.690686
128647,22089,3,ER,1,100,1.691492
128681,22089,3,ER,1,100,1.690686
128731,22107,2,ER,1,100,1.691492
128782,22107,2,ER,1,100,1.691492
128832,22125,2,ER,1,100,1.691693
128882,22125,2,ER,1,100,1.689679
128933,22144,2,ER,1,100,1.685248
128984,22144,2,ER,1,100,1.690082
129034,22162,2,ER,1,100,1.688269
129084,22162,2,ER,1,100,1.691089
129134,22180,2,ER,1,100,1.688672
129185,22180,2,ER,1,100,1.691693
129235,22198,2,ER,1,100,1.688470
129286,22198,2,ER,1,100,1.694110
129336,22216,2,ER,1,100,1.688269
129387,22216,2,ER,1,100,1.694513
129438,22234,2,ER,1,100,1.689075
129489,22234,2,ER,1,100,1.694311
129539,22252,2,ER,1,100,1.687463
129589,22252,2,ER,1,100,1.692096
129639,22270,2,ER,1,100,1.688269
129690,22270,2,ER,1,100,1.689880
129741,22289,2,ER,1,100,1.688269
129792,22289,2,ER,1,100,1.690887
129842,22307,2,ER,1,100,1.687866
129892,22307,2,ER,1,100,1.689478
129942,22325,2,ER,1,100,1.687463
129993,22325,2,ER,1,100,1.693103
130043,22343,2,ER,1,100,1.686658
130094,22343,2,ER,1,100,1.690283
130144,22361,2,ER,1,100,1.685449
130195,22361,2,ER,1,100,1.689276
130229,22379,3,ER,1,100,1.685449
130263,22379,3,ER,1,100,1.689276
130298,22379,3,ER,1,100,1.689478
130347,22397,2,ER,1,100,1.688672
130397,22397,2,ER,1,100,1.689679
130447,22416,2,ER,1,100,1.686658
130498,22416,2,ER,1,100,1.693103
130549,22434,2,ER,1,100,1.684845
130600,22434,2,ER,1,100,1.689075
130650,22452,2,ER,1,100,1.685449
130700,22452,2,ER,1,100,1.690283
130750,22470,2,ER,1,100,1.685449
130801,22470,2,ER,1,100,1.689880
130851,22488,2,ER,1,100,1.686255
130902,22488,2,ER,1,100,1.689075
130953,22506,2,ER,1,100,1.685651
131004,22506,2,ER,1,100,1.692499
131054,22524,2,ER,1,100,1.686255
131104,22524,2,ER,1,100,1.693103
131154,22542,2,ER,1,100,1.687665
131205,22542,2,ER,1,100,1.690887
131255,22561,2,ER,1,100,1.686859
131306,22561,2,ER,1,100,1.691089
131356,22579,2,ER,1,100,1.688068
131407,22579,2,ER,1,100,1.694916
131457,22597,2,ER,1,100,1.687665
131508,22597,2,ER,1,100,1.693506
131558,22615,2,ER,1,100,1.690082
131609,22615,2,ER,1,100,1.690283
131643,22633,3,ER,1,100,1.689276
131677,22633,3,ER,1,100,1.690283
131711,22633,3,ER,1,100,1.688470
131761,22651,2,ER,1,100,1.690887
131812,22651,2,ER,1,100,1.689679
131862,22669,2,ER,1,100,1.691693
131912,22669,2,ER,1,100,1.690283
131962,22688,2,ER,1,100,1.690082
132013,22688,2,ER,1,100,1.691895
132064,22706,2,ER,1,100,1.689276
132115,22706,2,ER,1,100,1.696930
132165,22724,2,ER,1,100,1.688470
132215,22724,2,ER,1,100,1.694311
132265,22742,2,ER,1,100,1.687463
132316,22742,2,ER,1,100,1.694311
132366,22760,2,ER,1,100,1.689075
132417,22760,2,ER,1,100,1.691693
132467,22778,2,ER,1,100,1.689478
132518,22778,2,ER,1,100,1.690082
132569,22796,2,ER,1,100,1.687866
132620,22796,2,ER,1,100,1.692700
132670,22815,2,ER,1,100,1.688068
132720,22815,2,ER,1,100,1.694311
132770,22833,2,ER,1,100,1.688470
132821,22833,2,ER,1,100,1.693707
132872,22851,2,ER,1,100,1.689075
132923,22851,2,ER,1,100,1.692096
132973,22869,2,ER,1,100,1.689276
133023,22869,2,ER,1,100,1.693909
133073,22887,2,ER,1,100,1.688470
133124,22887,2,ER,1,100,1.693506
133174,22905,2,ER,1,100,1.687262
133225,22905,2,ER,1,100,1.692096
133275,22923,2,ER,1,100,1.687665
133326,22923,2,ER,1,100,1.688672
133360,22941,3,ER,1,100,1.686456
133394,22941,3,ER,1,100,1.689880
133428,22941,3,ER,1,100,1.692499
133478,22960,2,ER,1,100,1.687866
133528,22960,2,ER,1,100,1.689276
133579,22978,2,ER,1,100,1.686456
133631,22978,2,ER,1,100,1.690082
133680,22996,2,ER,1,100,1.687463
133730,22996,2,ER,1,100,1.688672
133780,23014,2,ER,1,100,1.685248
133831,23014,2,ER,1,100,1.691895
133881,23032,2,ER,1,100,1.684241
133932,23032,2,ER,1,100,1.691089
133982,23050,2,ER,1,100,1.685651
134033,23050,2,ER,1,100,1.688068
134083,23068,2,ER,1,100,1.686859
134134,23068,2,ER,1,100,1.691290
134184,23087,2,ER,1,100,1.687262
134235,23087,2,ER,1,100,1.693304
134285,23105,2,ER,1,100,1.688269
134336,23105,2,ER,1,100,1.693304
134386,23123,2,ER,1,100,1.687665
134437,23123,2,ER,1,100,1.692902
134488,23141,2,ER,1,100,1.687665
134539,23141,2,ER,1,100,1.692902
134589,23159,2,ER,1,100,1.687866
134639,23159,2,ER,1,100,1.692499
134689,23177,2,ER,1,100,1.687866
134740,23177,2,ER,1,100,1.692902
134790,23195,2,ER,1,100,1.687060
134841,23195,2,ER,1,100,1.691290
134891,23213,2,ER,1,100,1.687665
134942,23213,2,ER,1,100,1.689880
134976,23232,3,ER,1,100,1.686456
135010,23232,3,ER,1,100,1.689276
135044,23232,3,ER,1,100,1.690283
135104,23253,3,ER,1,100,1.689679
135165,23253,3,ER,1,100,1.691895
135226,23253,3,ER,1,100,1.687060
135276,23273,2,ER,1,100,1.685651
135326,23273,2,ER,1,100,1.687866
135376,23290,2,ER,1,100,1.694916
135427,23290,2,ER,1,100,1.692297
135477,23308,2,ER,1,100,1.687262
135528,23308,2,ER,1,100,1.689679
135562,23326,3,ER,1,100,1.688269
135596,23326,3,ER,1,100,1.688672
135630,23326,3,ER,1,100,1.692902
135680,23345,2,ER,1,100,1.687060
135730,23345,2,ER,1,100,1.689075
135780,23363,2,ER,1,100,1.689478
135831,23363,2,ER,1,100,1.692700
135881,23381,2,ER,1,100,1.688672
135932,23381,2,ER,1,100,1.689478
135982,23399,2,ER,1,100,1.687262
136033,23399,2,ER,1,100,1.692096
136083,23417,2,ER,1,100,1.688068
136134,23417,2,ER,1,100,1.693103
136185,23435,2,ER,1,100,1.687463
136236,23435,2,ER,1,100,1.692297
136286,23453,2,ER,1,100,1.686658
136336,23453,2,ER,1,100,1.691693
136386,23471,2,ER,1,100,1.687665
136437,23471,2,ER,1,100,1.692297
136487,23490,2,ER,1,100,1.687866
136538,23490,2,ER,1,100,1.690485
136589,23508,2,ER,1,100,1.686456
136640,23508,2,ER,1,100,1.690283
136690,23526,2,ER,1,100,1.686658
136740,23526,2,ER,1,100,1.692096
136790,23544,2,ER,1,100,1.686859
136841,23544,2,ER,1,100,1.689679
136891,23562,2,ER,1,100,1.687060
136942,23562,2,ER,1,100,1.687463
136992,23580,2,ER,1,100,1.686859
137043,23580,2,ER,1,100,1.690485
137077,23598,3,ER,1,100,1.687866
137111,23598,3,ER,1,100,1.688873
137145,23598,3,ER,1,100,1.687463
137195,23617,2,ER,1,100,1.687262
137245,23617,2,ER,1,100,1.688672
137295,23635,2,ER,1,100,1.687463
137346,23635,2,ER,1,100,1.689679
137397,23653,2,ER,1,100,1.688068
137448,23653,2,ER,1,100,1.693103
137498,23671,2,ER,1,100,1.687060
137548,23671,2,ER,1,100,1.692297
137598,23689,2,ER,1,100,1.686053
137649,23689,2,ER,1,100,1.690082
137699,23707,2,ER,1,100,1.686053
137750,23707,2,ER,1,100,1.690686
137800,23725,2,ER,1,100,1.684442
137851,23725,2,ER,1,100,1.692902
137901,23744,2,ER,1,100,1.686255
137952,23744,2,ER,1,100,1.689679
138002,23762,2,ER,1,100,1.685651
138053,23762,2,ER,1,100,1.690887
138103,23780,2,ER,1,100,1.685046
138154,23780,2,ER,1,100,1.688672
138204,23798,2,ER,1,100,1.684845
138255,23798,2,ER,1,100,1.688873
138305,23816,2,ER,1,100,1.686456
138356,23816,2,ER,1,100,1.689075
138406,23834,2,ER,1,100,1.685449
138457,23834,2,ER,1,100,1.688470
138507,23852,2,ER,1,100,1.687060
138558,23852,2,ER,1,100,1.690283
138592,23870,3,ER,1,100,1.686053
138626,23870,3,ER,1,100,1.688269
138660,23870,3,ER,1,100,1.689478
138710,23889,2,ER,1,100,1.685449
138760,23889,2,ER,1,100,1.689478
138810,23907,2,ER,1,100,1.685046
138861,23907,2,ER,1,100,1.686658
138911,23925,2,ER,1,100,1.685046
138962,23925,2,ER,1,100,1.688269
139012,23943,2,ER,1,100,1.685248
139063,23943,2,ER,1,100,1.690082
139113,23961,2,ER,1,100,1.687665
139164,23961,2,ER,1,100,1.692700
139214,23979,2,ER,1,100,1.685248
139265,23979,2,ER,1,100,1.688873
139316,23997,2,ER,1,100,1.686255
139367,23997,2,ER,1,100,1.689075
139417,24016,2,ER,1,100,1.687060
139467,24016,2,ER,1,100,1.691492
139517,24034,2,ER,1,100,1.686456
139568,24034,2,ER,1,100,1.690485
139618,24052,2,ER,1,100,1.687060
139669,24052,2,ER,1,100,1.691290
139719,24070,2,ER,1,100,1.686456
139770,24070,2,ER,1,100,1.690686
139820,24088,2,ER,1,100,1.687060
139871,24088,2,ER,1,100,1.690686
139921,24106,2,ER,1,100,1.687463
139972,24106,2,ER,1,100,1.691492
140022,24124,2,ER,1,100,1.688672
140073,24124,2,ER,1,100,1.689880
140123,24143,2,ER,1,100,1.687665
140174,24143,2,ER,1,100,1.690283
140208,24161,3,ER,1,100,1.688470
140242,24161,3,ER,1,100,1.689880
140276,24161,3,ER,1,100,1.689679
140326,24179,2,ER,1,100,1.690082
140377,24179,2,ER,1,100,1.690082
140427,24197,2,ER,1,100,1.687866
140477,24197,2,ER,1,100,1.690485
140528,24215,2,ER,1,100,1.687463
140579,24215,2,ER,1,100,1.689679
140629,24233,2,ER,1,100,1.688269
140679,24233,2,ER,1,100,1.691693
140729,24251,2,ER,1,100,1.687060
140780,24251,2,ER,1,100,1.694311
140830,24269,2,ER,1,100,1.687060
140881,24269,2,ER,1,100,1.692499
140932,24288,2,ER,1,100,1.684442
140983,24288,2,ER,1,100,1.691290
141033,24306,2,ER,1,100,1.688470
141084,24306,2,ER,1,100,1.690887
141135,24324,2,ER,1,100,1.688068
141186,24324,2,ER,1,100,1.691693
141236,24342,2,ER,1,100,1.688269
141286,24342,2,ER,1,100,1.691693
141336,24360,2,ER,1,100,1.687866
141387,24360,2,ER,1,100,1.691895
141437,24378,2,ER,1,100,1.687665
141488,24378,2,ER,1,100,1.689276
141538,24396,2,ER,1,100,1.689075
141589,24396,2,ER,1,100,1.689478
141623,24415,3,ER,1,100,1.689276
141657,24415,3,ER,1,100,1.688672
141691,24415,3,ER,1,100,1.689679
141741,24433,2,ER,1,100,1.689679
141791,24433,2,ER,1,100,1.690887
141841,24451,2,ER,1,100,1.687866
141892,24451,2,ER,1,100,1.691492
141942,24469,2,ER,1,100,1.687665
141993,24469,2,ER,1,100,1.690283
142043,24487,2,ER,1,100,1.687262
142094,24487,2,ER,1,100,1.689075
142144,24505,2,ER,1,100,1.688672
142195,24505,2,ER,1,100,1.689679
142245,24523,2,ER,1,100,1.686658
142296,24523,2,ER,1,100,1.691895
142346,24541,2,ER,1,100,1.685852
142397,24541,2,ER,1,100,1.692096
142447,24560,2,ER,1,100,1.684845
142498,24560,2,ER,1,100,1.690686
142549,24578,2,ER,1,100,1.686658
142600,24578,2,ER,1,100,1.690887
142650,24596,2,ER,1,100,1.687463
142700,24596,2,ER,1,100,1.690485
142751,24614,2,ER,1,100,1.685449
142802,24614,2,ER,1,100,1.692700
142852,24632,2,ER,1,100,1.685248
142902,24632,2,ER,1,100,1.689478
142952,24650,2,ER,1,100,1.685651
143003,24650,2,ER,1,100,1.689880
143053,24668,2,ER,1,100,1.686658
143104,24668,2,ER,1,100,1.690686
143154,24687,2,ER,1,100,1.690887
143205,24687,2,ER,1,100,1.687060
143239,24705,3,ER,1,100,1.687060
143273,24705,3,ER,1,100,1.690887
143307,24705,3,ER,1,100,1.689478
143357,24723,2,ER,1,100,1.688269
143407,24723,2,ER,1,100,1.690485
143457,24741,2,ER,1,100,1.686859
143508,24741,2,ER,1,100,1.690082
143558,24759,2,ER,1,100,1.687262
143609,24759,2,ER,1,100,1.692096
143659,24777,2,ER,1,100,1.687060
143710,24777,2,ER,1,100,1.690082
143760,24795,2,ER,1,100,1.686859
143811,24795,2,ER,1,100,1.691492
143861,24814,2,ER,1,100,1.685852
143912,24814,2,ER,1,100,1.690283
143962,24832,2,ER,1,100,1.685449
144013,24832,2,ER,1,100,1.692499
144063,24850,2,ER,1,100,1.685651
144114,24850,2,ER,1,100,1.689478
144164,24868,2,ER,1,100,1.685651
144215,24868,2,ER,1,100,1.691290
144265,24886,2,ER,1,100,1.686255
144316,24886,2,ER,1,100,1.688470
144366,24904,2,ER,1,100,1.685248
144417,24904,2,ER,1,100,1.689276
144467,24922,2,ER,1,100,1.686255
144518,24922,2,ER,1,100,1.688873
144568,24940,2,ER,1,100,1.687463
144619,24940,2,ER,1,100,1.690485
144669,24959,2,ER,1,100,1.686053
144720,24959,2,ER,1,100,1.688470
144754,24977,3,ER,1,100,1.686456
144788,24977,3,ER,1,100,1.686859
144822,24977,3,ER,1,100,1.686053
144872,24995,2,ER,1,100,1.688470
144923,24995,2,ER,1,100,1.686255
144973,25013,2,ER,1,100,1.686053
145023,25013,2,ER,1,100,1.687060
145074,25031,2,ER,1,100,1.687665
145125,25031,2,ER,1,100,1.689075
145175,25049,2,ER,1,100,1.685449
145225,25049,2,ER,1,100,1.690887
145275,25067,2,ER,1,100,1.685852
145326,25067,2,ER,1,100,1.690686
145376,25086,2,ER,1,100,1.686456
145427,25086,2,ER,1,100,1.691693
145477,25104,2,ER,1,100,1.685852
145528,25104,2,ER,1,100,1.690686
145579,25122,2,ER,1,100,1.687060
145630,25122,2,ER,1,100,1.692700
145680,25140,2,ER,1,100,1.685651
145730,25140,2,ER,1,100,1.692700
145781,25158,2,ER,1,100,1.686255
145832,25158,2,ER,1,100,1.689880
145882,25176,2,ER,1,100,1.684644
145932,25176,2,ER,1,100,1.693304
146073,25216,2,ER,1,100,1.688269
146215,25216,2,ER,1,100,1.689679
146265,25236,2,ER,1,100,1.699145
146315,25236,2,ER,1,100,1.690485
146365,25254,2,ER,1,100,1.688672
146416,25254,2,ER,1,100,1.692700
146466,25272,2,ER,1,100,1.687866
146517,25272,2,ER,1,100,1.690485
146567,25290,2,ER,1,100,1.688068
146618,25290,2,ER,1,100,1.691089
146668,25308,2,ER,1,100,1.687866
146719,25308,2,ER,1,100,1.691290
146769,25326,2,ER,1,100,1.687060
146820,25326,2,ER,1,100,1.690485
146870,25345,2,ER,1,100,1.687665
146921,25345,2,ER,1,100,1.692700
146971,25363,2,ER,1,100,1.688672
147022,25363,2,ER,1,100,1.690283
147056,25381,3,ER,1,100,1.688672
147090,25381,3,ER,1,100,1.691290
147125,25381,3,ER,1,100,1.688873
147174,25399,2,ER,1,100,1.689880
147224,25399,2,ER,1,100,1.693103
147274,25417,2,ER,1,100,1.689276
147325,25417,2,ER,1,100,1.689478
147376,25435,2,ER,1,100,1.686255
147427,25435,2,ER,1,100,1.693506
147477,25453,2,ER,1,100,1.687262
147527,25453,2,ER,1,100,1.695319
147577,25472,2,ER,1,100,1.687262
147628,25472,2,ER,1,100,1.690082
147678,25490,2,ER,1,100,1.686658
147729,25490,2,ER,1,100,1.690887
147780,25508,2,ER,1,100,1.685046
147831,25508,2,ER,1,100,1.690887
147873,25526,4,ER,1,100,1.688269
147916,25526,4,ER,1,100,1.693909
147959,25526,4,ER,1,100,1.694110
148002,25526,4,ER,1,100,1.694311
148051,25544,2,ER,1,100,1.686658
148101,25544,2,ER,1,100,1.691492
148151,25562,2,ER,1,100,1.687262
148202,25562,2,ER,1,100,1.691089
148252,25580,2,ER,1,100,1.685852
148303,25580,2,ER,1,100,1.691895
148353,25599,2,ER,1,100,1.685248
148404,25599,2,ER,1,100,1.689478
148454,25617,2,ER,1,100,1.685651
148505,25617,2,ER,1,100,1.691693
148555,25635,2,ER,1,100,1.686255
148606,25635,2,ER,1,100,1.690283
148657,25653,2,ER,1,100,1.686859
148708,25653,2,ER,1,100,1.690887
148758,25671,2,ER,1,100,1.687463
148808,25671,2,ER,1,100,1.691895
148858,25689,2,ER,1,100,1.686255
148909,25689,2,ER,1,100,1.689679
148959,25707,2,ER,1,100,1.685651
149010,25707,2,ER,1,100,1.689679
149061,25725,2,ER,1,100,1.687262
149112,25725,2,ER,1,100,1.691895
149162,25744,2,ER,1,100,1.685449
149212,25744,2,ER,1,100,1.689880
149262,25762,2,ER,1,100,1.686456
149313,25762,2,ER,1,100,1.690485
149363,25780,2,ER,1,100,1.686255
149414,25780,2,ER,1,100,1.692700
149464,25798,2,ER,1,100,1.688470
149515,25798,2,ER,1,100,1.687262
149549,25816,3,ER,1,100,1.685651
149583,25816,3,ER,1,100,1.688672
149617,25816,3,ER,1,100,1.687866
149667,25834,2,ER,1,100,1.688068
149717,25834,2,ER,1,100,1.688269
149767,25852,2,ER,1,100,1.686658
149818,25852,2,ER,1,100,1.687463
149869,25871,2,ER,1,100,1.684845
149920,25871,2,ER,1,100,1.691895
149970,25889,2,ER,1,100,1.685248
150020,25889,2,ER,1,100,1.689478
150070,25907,2,ER,1,100,1.685852
150121,25907,2,ER,1,100,1.688672
150171,25925,2,ER,1,100,1.683636
150222,25925,2,ER,1,100,1.687060
150272,25943,2,ER,1,100,1.684845
150323,25943,2,ER,1,100,1.690283
150373,25961,2,ER,1,100,1.684241
150424,25961,2,ER,1,100,1.690485
150475,25979,2,ER,1,100,1.685852
150526,25979,2,ER,1,100,1.689880
150576,25998,2,ER,1,100,1.685651
150627,25998,2,ER,1,100,1.690485
150677,26016,2,ER,1,100,1.686658
150727,26016,2,ER,1,100,1.689276
150777,26034,2,ER,1,100,1.687262
150828,26034,2,ER,1,100,1.692096
150878,26052,2,ER,1,100,1.686053
150929,26052,2,ER,1,100,1.690283
150979,26070,2,ER,1,100,1.685046
151030,26070,2,ER,1,100,1.688068
151064,26088,3,ER,1,100,1.684442
151098,26088,3,ER,1,100,1.687665
151132,26088,3,ER,1,100,1.687060
151182,26106,2,ER,1,100,1.687463
151232,26106,2,ER,1,100,1.688269
151282,26124,2,ER,1,100,1.688873
151333,26124,2,ER,1,100,1.687866
151384,26143,2,ER,1,100,1.686053
151435,26143,2,ER,1,100,1.687463
151485,26161,2,ER,1,100,1.687060
151536,26161,2,ER,1,100,1.692499
151586,26179,2,ER,1,100,1.686456
151636,26179,2,ER,1,100,1.694513
151686,26197,2,ER,1,100,1.686658
151737,26197,2,ER,1,100,1.692096
151787,26215,2,ER,1,100,1.685852
151838,26215,2,ER,1,100,1.688672
151889,26233,2,ER,1,100,1.685651
151940,26233,2,ER,1,100,1.689478
151990,26251,2,ER,1,100,1.687463
152040,26251,2,ER,1,100,1.693304
152090,26270,2,ER,1,100,1.687463
152141,26270,2,ER,1,100,1.688672
152191,26288,2,ER,1,100,1.684644
152242,26288,2,ER,1,100,1.690082
152293,26306,2,ER,1,100,1.685852
152345,26306,2,ER,1,100,1.689679
152394,26324,2,ER,1,100,1.687060
152444,26324,2,ER,1,100,1.690082
152494,26342,2,ER,1,100,1.687262
152545,26342,2,ER,1,100,1.692902
152595,26360,2,ER,1,100,1.687665
152646,26360,2,ER,1,100,1.690485
152680,26378,3,ER,1,100,1.688068
152714,26378,3,ER,1,100,1.690485
152748,26378,3,ER,1,100,1.687060
152798,26396,2,ER,1,100,1.688068
152848,26396,2,ER,1,100,1.688672
152898,26415,2,ER,1,100,1.687665
152949,26415,2,ER,1,100,1.689880
153000,26433,2,ER,1,100,1.685248
153051,26433,2,ER,1,100,1.689679
153101,26451,2,ER,1,100,1.684845
153151,26451,2,ER,1,100,1.689075
153201,26469,2,ER,1,100,1.686456
153252,26469,2,ER,1,100,1.690283
153302,26487,2,ER,1,100,1.686456
153353,26487,2,ER,1,100,1.691089
153403,26505,2,ER,1,100,1.688269
153454,26505,2,ER,1,100,1.690887
153504,26523,2,ER,1,100,1.686053
153555,26523,2,ER,1,100,1.687866
153605,26542,2,ER,1,100,1.686053
153656,26542,2,ER,1,100,1.688672
153707,26560,2,ER,1,100,1.685449
153758,26560,2,ER,1,100,1.690485
153808,26578,2,ER,1,100,1.685248
153858,26578,2,ER,1,100,1.690082
153908,26596,2,ER,1,100,1.685248
153959,26596,2,ER,1,100,1.689880
154009,26614,2,ER,1,100,1.687060
154060,26614,2,ER,1,100,1.687262
154110,26632,2,ER,1,100,1.685651
154161,26632,2,ER,1,100,1.687463
154195,26650,3,ER,1,100,1.685046
154229,26650,3,ER,1,100,1.686255
154264,26650,3,ER,1,100,1.685046
154313,26669,2,ER,1,100,1.687866
154363,26669,2,ER,1,100,1.688269
154413,26687,2,ER,1,100,1.687060
154464,26687,2,ER,1,100,1.686255
154514,26705,2,ER,1,100,1.684845
154565,26705,2,ER,1,100,1.687866
154615,26723,2,ER,1,100,1.685852
154666,26723,2,ER,1,100,1.689276
154716,26741,2,ER,1,100,1.684442
154767,26741,2,ER,1,100,1.689478
154817,26759,2,ER,1,100,1.686053
154868,26759,2,ER,1,100,1.688672
154918,26777,2,ER,1,100,1.686456
154969,26777,2,ER,1,100,1.691693
155019,26795,2,ER,1,100,1.685852
155070,26795,2,ER,1,100,1.689679
155120,26814,2,ER,1,100,1.685248
155171,26814,2,ER,1,100,1.686859
155221,26832,2,ER,1,100,1.684845
155272,26832,2,ER,1,100,1.690887
155324,26850,2,ER,1,100,1.683435
155376,26850,2,ER,1,100,1.689478
155426,26868,2,ER,1,100,1.684845
155476,26868,2,ER,1,100,1.689276
155526,26886,2,ER,1,100,1.684644
155577,26886,2,ER,1,100,1.689880
155611,26904,3,ER,1,100,1.688068
155645,26904,3,ER,1,100,1.688068
155679,26904,3,ER,1,100,1.688068
155729,26922,2,ER,1,100,1.688873
155779,26922,2,ER,1,100,1.686859
155829,26941,2,ER,1,100,1.685651
155880,26941,2,ER,1,100,1.689679
155931,26959,2,ER,1,100,1.684241
155983,26959,2,ER,1,100,1.693707
156032,26977,2,ER,1,100,1.684644
156082,26977,2,ER,1,100,1.690485
156132,26995,2,ER,1,100,1.686456
156183,26995,2,ER,1,100,1.689679
156233,27013,2,ER,1,100,1.685449
156284,27013,2,ER,1,100,1.688269
156334,27031,2,ER,1,100,1.683435
156385,27031,2,ER,1,100,1.687866
156436,27049,2,ER,1,100,1.683032
156487,27049,2,ER,1,100,1.686255
156537,27068,2,ER,1,100,1.683838
156587,27068,2,ER,1,100,1.686859
156637,27086,2,ER,1,100,1.682227
156688,27086,2,ER,1,100,1.686859
156738,27104,2,ER,1,100,1.683838
156789,27104,2,ER,1,100,1.686658
156840,27122,2,ER,1,100,1.683234
156892,27122,2,ER,1,100,1.685852
156932,27143,4,ER,1,100,1.683636
156972,27143,4,ER,1,100,1.686658
157012,27143,4,ER,1,100,1.683435
157052,27143,4,ER,1,100,1.683435
157102,27163,2,ER,1,100,1.684241
157153,27163,2,ER,1,100,1.688672
157203,27181,2,ER,1,100,1.686456
157253,27181,2,ER,1,100,1.688470
157304,27200,2,ER,1,100,1.683838
157355,27200,2,ER,1,100,1.689276
157405,27218,2,ER,1,100,1.687463
157455,27218,2,ER,1,100,1.688672
157505,27236,2,ER,1,100,1.685046
157556,27236,2,ER,1,100,1.688269
157606,27254,2,ER,1,100,1.685046
157657,27254,2,ER,1,100,1.687262
157708,27272,2,ER,1,100,1.685651
157759,27272,2,ER,1,100,1.690082
157809,27290,2,ER,1,100,1.684039
157859,27290,2,ER,1,100,1.689276
157910,27308,2,ER,1,100,1.685449
157961,27308,2,ER,1,100,1.688269
158011,27326,2,ER,1,100,1.683234
158061,27326,2,ER,1,100,1.689075
158111,27345,2,ER,1,100,1.687060
158162,27345,2,ER,1,100,1.689075
158212,27363,2,ER,1,100,1.685449
158263,27363,2,ER,1,100,1.686859
158297,27381,3,ER,1,100,1.684241
158331,27381,3,ER,1,100,1.688470
158366,27381,3,ER,1,100,1.683435
158416,27399,2,ER,1,100,1.687060
158466,27399,2,ER,1,100,1.688068
158517,27417,2,ER,1,100,1.689075
158568,27417,2,ER,1,100,1.688873
158618,27435,2,ER,1,100,1.687665
158668,27435,2,ER,1,100,1.687866
158719,27453,2,ER,1,100,1.685651
158771,27453,2,ER,1,100,1.688672
158820,27472,2,ER,1,100,1.684644
158870,27472,2,ER,1,100,1.688068
158920,27490,2,ER,1,100,1.684442
158971,27490,2,ER,1,100,1.688470
159021,27508,2,ER,1,100,1.686456
159072,27508,2,ER,1,100,1.689276
159122,27526,2,ER,1,100,1.685651
159173,27526,2,ER,1,100,1.689880
159223,27544,2,ER,1,100,1.686255
159274,27544,2,ER,1,100,1.688873
159324,27562,2,ER,1,100,1.686658
159375,27562,2,ER,1,100,1.692096
159425,27580,2,ER,1,100,1.685248
159476,27580,2,ER,1,100,1.691290
159526,27599,2,ER,1,100,1.687665
159577,27599,2,ER,1,100,1.688470
159627,27617,2,ER,1,100,1.685449
159678,27617,2,ER,1,100,1.687665
159728,27635,2,ER,1,100,1.687060
159779,27635,2,ER,1,100,1.693103
159829,27653,2,ER,1,100,1.686456
159880,27653,2,ER,1,100,1.689478
159914,27671,3,ER,1,100,1.687665
159948,27671,3,ER,1,100,1.693304
159982,27671,3,ER,1,100,1.687665
160032,27689,2,ER,1,100,1.688672
160083,27689,2,ER,1,100,1.690082
160133,27707,2,ER,1,100,1.687262
160183,27707,2,ER,1,100,1.689075
160234,27725,2,ER,1,100,1.686658
160285,27725,2,ER,1,100,1.690283
160335,27744,2,ER,1,100,1.686456
160385,27744,2,ER,1,100,1.691693
160435,27762,2,ER,1,100,1.686658
160486,27762,2,ER,1,100,1.690283
160536,27780,2,ER,1,100,1.687665
160587,27780,2,ER,1,100,1.689478
160637,27798,2,ER,1,100,1.686658
160688,27798,2,ER,1,100,1.690283
160739,27816,2,ER,1,100,1.685852
160790,27816,2,ER,1,100,1.691693
160840,27834,2,ER,1,100,1.685248
160890,27834,2,ER,1,100,1.690485
160940,27852,2,ER,1,100,1.686255
160991,27852,2,ER,1,100,1.691895
161041,27871,2,ER,1,100,1.685651
161092,27871,2,ER,1,100,1.690283
161142,27889,2,ER,1,100,1.687060
161193,27889,2,ER,1,100,1.690082
161243,27907,2,ER,1,100,1.684442
161294,27907,2,ER,1,100,1.689679
161344,27925,2,ER,1,100,1.684644
161395,27925,2,ER,1,100,1.688672
161445,27943,2,ER,1,100,1.686255
161496,27943,2,ER,1,100,1.687262
161530,27961,3,ER,1,100,1.685248
161564,27961,3,ER,1,100,1.689478
161599,27961,3,ER,1,100,1.688470
161648,27979,2,ER,1,100,1.686658
161698,27979,2,ER,1,100,1.688672
161748,27997,2,ER,1,100,1.687060
161799,27997,2,ER,1,100,1.687262
161850,28016,2,ER,1,100,1.686255
161901,28016,2,ER,1,100,1.688068
161952,28034,2,ER,1,100,1.684039
162003,28034,2,ER,1,100,1.691492
162053,28052,2,ER,1,100,1.684241
162103,28052,2,ER,1,100,1.691492
162153,28070,2,ER,1,100,1.684845
162204,28070,2,ER,1,100,1.692297
162255,28088,2,ER,1,100,1.684845
162306,28088,2,ER,1,100,1.688873
162356,28106,2,ER,1,100,1.687262
162406,28106,2,ER,1,100,1.690887
162456,28124,2,ER,1,100,1.686053
162507,28124,2,ER,1,100,1.692499
162558,28143,2,ER,1,100,1.685449
162609,28143,2,ER,1,100,1.690485
162659,28161,2,ER,1,100,1.686658
162709,28161,2,ER,1,100,1.690283
162759,28179,2,ER,1,100,1.686859
162810,28179,2,ER,1,100,1.692499
162860,28197,2,ER,1,100,1.687262
162911,28197,2,ER,1,100,1.690283
162945,28215,3,ER,1,100,1.689075
162979,28215,3,ER,1,100,1.689478
163013,28215,3,ER,1,100,1.688672
163063,28233,2,ER,1,100,1.687463
163114,28233,2,ER,1,100,1.689679
163164,28251,2,ER,1,100,1.687866
163214,28251,2,ER,1,100,1.687665
163264,28270,2,ER,1,100,1.687060
163315,28270,2,ER,1,100,1.691089
163366,28288,2,ER,1,100,1.685651
163417,28288,2,ER,1,100,1.692096
163467,28306,2,ER,1,100,1.686255
163517,28306,2,ER,1,100,1.691693
163567,28324,2,ER,1,100,1.686859
163618,28324,2,ER,1,100,1.693506
163668,28342,2,ER,1,100,1.685449
163719,28342,2,ER,1,100,1.690485
163769,28360,2,ER,1,100,1.684845
163820,28360,2,ER,1,100,1.685651
163871,28378,2,ER,1,100,1.684241
163922,28378,2,ER,1,100,1.689276
163972,28396,2,ER,1,100,1.688269
164022,28396,2,ER,1,100,1.691693
164072,28415,2,ER,1,100,1.688873
164123,28415,2,ER,1,100,1.691895
164174,28433,2,ER,1,100,1.687463
164225,28433,2,ER,1,100,1.690283
164275,28451,2,ER,1,100,1.688269
164325,28451,2,ER,1,100,1.693707
164375,28469,2,ER,1,100,1.686658
164426,28469,2,ER,1,100,1.691492
164476,28487,2,ER,1,100,1.686053
164527,28487,2,ER,1,100,1.692499
164561,28505,3,ER,1,100,1.686658
164595,28505,3,ER,1,100,1.690082
164630,28505,3,ER,1,100,1.685449
164680,28523,2,ER,1,100,1.688269
164730,28523,2,ER,1,100,1.690283
164780,28542,2,ER,1,100,1.687463
164830,28542,2,ER,1,100,1.691290
164881,28560,2,ER,1,100,1.686255
164933,28560,2,ER,1,100,1.686456
164982,28578,2,ER,1,100,1.686456
165032,28578,2,ER,1,100,1.688068
165082,28596,2,ER,1,100,1.685852
165133,28596,2,ER,1,100,1.689276
165183,28614,2,ER,1,100,1.684644
165234,28614,2,ER,1,100,1.690887
165284,28632,2,ER,1,100,1.684241
165335,28632,2,ER,1,100,1.689679
165385,28650,2,ER,1,100,1.687665
165436,28650,2,ER,1,100,1.689880
165486,28669,2,ER,1,100,1.685852
165537,28669,2,ER,1,100,1.689276
165587,28687,2,ER,1,100,1.684845
165638,28687,2,ER,1,100,1.691089
165688,28705,2,ER,1,100,1.684039
165739,28705,2,ER,1,100,1.688672
165790,28723,2,ER,1,100,1.685852
165841,28723,2,ER,1,100,1.689880
165891,28741,2,ER,1,100,1.684039
165941,28741,2,ER,1,100,1.689478
165991,28759,2,ER,1,100,1.684845
166042,28759,2,ER,1,100,1.688470
166092,28777,2,ER,1,100,1.685248
166143,28777,2,ER,1,100,1.687060
166193,28795,2,ER,1,100,1.682227
166244,28795,2,ER,1,100,1.689276
166278,28814,3,ER,1,100,1.687060
166312,28814,3,ER,1,100,1.690887
166346,28814,3,ER,1,100,1.688269
166396,28832,2,ER,1,100,1.685651
166446,28832,2,ER,1,100,1.687866
166496,28850,2,ER,1,100,1.687262
166547,28850,2,ER,1,100,1.687665
166598,28868,2,ER,1,100,1.685046
166649,28868,2,ER,1,100,1.688470
166699,28886,2,ER,1,100,1.686658
166749,28886,2,ER,1,100,1.691089
166799,28904,2,ER,1,100,1.685248
166850,28904,2,ER,1,100,1.685651
166900,28922,2,ER,1,100,1.683234
166951,28922,2,ER,1,100,1.689478
167001,28941,2,ER,1,100,1.686053
167052,28941,2,ER,1,100,1.692499
167102,28959,2,ER,1,100,1.684845
167153,28959,2,ER,1,100,1.694110
167203,28977,2,ER,1,100,1.688470
167254,28977,2,ER,1,100,1.692096
167304,28995,2,ER,1,100,1.683838
167355,28995,2,ER,1,100,1.687262
167405,29013,2,ER,1,100,1.682831
167456,29013,2,ER,1,100,1.688470
167506,29031,2,ER,1,100,1.685651
167557,29031,2,ER,1,100,1.690887
167607,29049,2,ER,1,100,1.687060
167658,29049,2,ER,1,100,1.689679
167708,29067,2,ER,1,100,1.685248
167759,29067,2,ER,1,100,1.690485
167900,29109,2,ER,1,100,1.685449
168041,29109,2,ER,1,100,1.685248
168091,29127,2,ER,1,100,1.687463
168141,29127,2,ER,1,100,1.689478
168191,29145,2,ER,1,100,1.685046
168242,29145,2,ER,1,100,1.690082
168292,29163,2,ER,1,100,1.685651
168343,29163,2,ER,1,100,1.691290
168393,29181,2,ER,1,100,1.684845
168444,29181,2,ER,1,100,1.692096
168478,29200,3,ER,1,100,1.686859
168512,29200,3,ER,1,100,1.688873
168546,29200,3,ER,1,100,1.685248
168596,29218,2,ER,1,100,1.688873
168647,29218,2,ER,1,100,1.687463
168697,29236,2,ER,1,100,1.686053
168747,29236,2,ER,1,100,1.688672
168797,29254,2,ER,1,100,1.685651
168848,29254,2,ER,1,100,1.686859
168899,29272,2,ER,1,100,1.686053
168950,29272,2,ER,1,100,1.690686
169000,29290,2,ER,1,100,1.685248
169050,29290,2,ER,1,100,1.688269
169100,29308,2,ER,1,100,1.683636
169151,29308,2,ER,1,100,1.689880
169201,29326,2,ER,1,100,1.685449
169252,29326,2,ER,1,100,1.688470
169302,29345,2,ER,1,100,1.685248
169353,29345,2,ER,1,100,1.688470
169403,29363,2,ER,1,100,1.685852
169454,29363,2,ER,1,100,1.689880
169504,29381,2,ER,1,100,1.686456
169555,29381,2,ER,1,100,1.691492
169606,29399,2,ER,1,100,1.685852
169657,29399,2,ER,1,100,1.687866
169707,29417,2,ER,1,100,1.685449
169757,29417,2,ER,1,100,1.689679
169807,29435,2,ER,1,100,1.684845
169858,29435,2,ER,1,100,1.690283
169908,29453,2,ER,1,100,1.684845
169959,29453,2,ER,1,100,1.687665
169993,29472,3,ER,1,100,1.685852
170027,29472,3,ER,1,100,1.690283
170061,29472,3,ER,1,100,1.691693
170111,29490,2,ER,1,100,1.687463
170162,29490,2,ER,1,100,1.687866
170212,29508,2,ER,1,100,1.687463
170262,29508,2,ER,1,100,1.688672
170313,29526,2,ER,1,100,1.687060
170364,29526,2,ER,1,100,1.691290
170414,29544,2,ER,1,100,1.686053
170465,29544,2,ER,1,100,1.688068
170515,29562,2,ER,1,100,1.685852
170565,29562,2,ER,1,100,1.690082
170615,29580,2,ER,1,100,1.685651
170666,29580,2,ER,1,100,1.689880
170716,29599,2,ER,1,100,1.687665
170767,29599,2,ER,1,100,1.690082
170817,29617,2,ER,1,100,1.686456
170868,29617,2,ER,1,100,1.691895
170918,29635,2,ER,1,100,1.687665
170969,29635,2,ER,1,100,1.690485
171019,29653,2,ER,1,100,1.686053
171070,29653,2,ER,1,100,1.690485
171120,29671,2,ER,1,100,1.686255
171171,29671,2,ER,1,100,1.689880
171222,29689,2,ER,1,100,1.686255
171273,29689,2,ER,1,100,1.689679
171323,29707,2,ER,1,100,1.688269
171374,29707,2,ER,1,100,1.690283
171424,29725,2,ER,1,100,1.686859
171474,29725,2,ER,1,100,1.688672
171524,29744,2,ER,1,100,1.686456
171575,29744,2,ER,1,100,1.689276
171625,29762,2,ER,1,100,1.685852
171676,29762,2,ER,1,100,1.692297
171710,29780,3,ER,1,100,1.687463
171744,29780,3,ER,1,100,1.690686
171779,29780,3,ER,1,100,1.686456
171828,29798,2,ER,1,100,1.687866
171878,29798,2,ER,1,100,1.691895
171928,29816,2,ER,1,100,1.685046
171979,29816,2,ER,1,100,1.688672
172030,29834,2,ER,1,100,1.685651
172081,29834,2,ER,1,100,1.690283
172131,29852,2,ER,1,100,1.684845
172181,29852,2,ER,1,100,1.688269
172231,29871,2,ER,1,100,1.686255
172282,29871,2,ER,1,100,1.688672
172332,29889,2,ER,1,100,1.685046
172383,29889,2,ER,1,100,1.687866
172433,29907,2,ER,1,100,1.685248
172484,29907,2,ER,1,100,1.689276
172534,29925,2,ER,1,100,1.685248
172585,29925,2,ER,1,100,1.692297
172635,29943,2,ER,1,100,1.684644
172686,29943,2,ER,1,100,1.688068
172737,29961,2,ER,1,100,1.683636
172788,29961,2,ER,1,100,1.689478
172838,29979,2,ER,1,100,1.685046
172888,29979,2,ER,1,100,1.690686
172938,29997,2,ER,1,100,1.686456
172989,29997,2,ER,1,100,1.688068
173039,30016,2,ER,1,100,1.687060
173090,30016,2,ER,1,100,1.689276
173140,30034,2,ER,1,100,1.688269
173191,30034,2,ER,1,100,1.689478
173225,30052,3,ER,1,100,1.687866
173259,30052,3,ER,1,100,1.689276
173293,30052,3,ER,1,100,1.688470
173343,30070,2,ER,1,100,1.687665
173393,30070,2,ER,1,100,1.689075
173443,30088,2,ER,1,100,1.686456
173494,30088,2,ER,1,100,1.688672
173544,30106,2,ER,1,100,1.686658
173595,30106,2,ER,1,100,1.689478
173646,30124,2,ER,1,100,1.686456
173698,30124,2,ER,1,100,1.689880
173747,30143,2,ER,1,100,1.686456
173797,30143,2,ER,1,100,1.688470
173847,30161,2,ER,1,100,1.686658
173898,30161,2,ER,1,100,1.692499
173953,30179,3,ER,1,100,1.685651
174008,30179,3,ER,1,100,1.693909
174064,30179,3,ER,1,100,1.693707
174113,30197,2,ER,1,100,1.693103
174163,30197,2,ER,1,100,1.684039
174213,30215,2,ER,1,100,1.690283
174264,30215,2,ER,1,100,1.689075
174314,30233,2,ER,1,100,1.684644
174365,30233,2,ER,1,100,1.689679
174399,30251,3,ER,1,100,1.686255
174433,30251,3,ER,1,100,1.687665
174467,30251,3,ER,1,100,1.686456
174517,30270,2,ER,1,100,1.687060
174567,30270,2,ER,1,100,1.686658
174617,30288,2,ER,1,100,1.688068
174668,30288,2,ER,1,100,1.688269
174719,30306,2,ER,1,100,1.687262
174770,30306,2,ER,1,100,1.688470
174820,30324,2,ER,1,100,1.686859
174870,30324,2,ER,1,100,1.689880
174920,30342,2,ER,1,100,1.686859
174971,30342,2,ER,1,100,1.690082
175021,30360,2,ER,1,100,1.688470
175072,30360,2,ER,1,100,1.691693
175122,30378,2,ER,1,100,1.688068
175173,30378,2,ER,1,100,1.694311
175223,30397,2,ER,1,100,1.686053
175274,30397,2,ER,1,100,1.691089
175324,30415,2,ER,1,100,1.686255
175375,30415,2,ER,1,100,1.689075
175426,30433,2,ER,1,100,1.685449
175478,30433,2,ER,1,100,1.689075
175527,30451,2,ER,1,100,1.685651
175577,30451,2,ER,1,100,1.689075
175627,30469,2,ER,1,100,1.686658
175678,30469,2,ER,1,100,1.693103
175728,30487,2,ER,1,100,1.687060
175779,30487,2,ER,1,100,1.688873
175813,30505,3,ER,1,100,1.685852
175847,30505,3,ER,1,100,1.689679
175882,30505,3,ER,1,100,1.687463
175932,30524,2,ER,1,100,1.688269
175982,30524,2,ER,1,100,1.690082
176032,30542,2,ER,1,100,1.689679
176082,30542,2,ER,1,100,1.686658
176132,30560,2,ER,1,100,1.687060
176183,30560,2,ER,1,100,1.687060
176234,30578,2,ER,1,100,1.686456
176285,30578,2,ER,1,100,1.688470
176335,30596,2,ER,1,100,1.686053
176385,30596,2,ER,1,100,1.691089
176435,30614,2,ER,1,100,1.685248
176486,30614,2,ER,1,100,1.692902
176536,30632,2,ER,1,100,1.685449
176587,30632,2,ER,1,100,1.688873
176637,30650,2,ER,1,100,1.686859
176688,30650,2,ER,1,100,1.688672
176738,30669,2,ER,1,100,1.686456
176789,30669,2,ER,1,100,1.694513
176839,30687,2,ER,1,100,1.685449
176890,30687,2,ER,1,100,1.689679
176940,30705,2,ER,1,100,1.684039
176991,30705,2,ER,1,100,1.689679
177041,30723,2,ER,1,100,1.686456
177092,30723,2,ER,1,100,1.689075
177142,30741,2,ER,1,100,1.684644
177193,30741,2,ER,1,100,1.687665
177243,30759,2,ER,1,100,1.685046
177294,30759,2,ER,1,100,1.688068
177328,30777,3,ER,1,100,1.685852
177362,30777,3,ER,1,100,1.687866
177397,30777,3,ER,1,100,1.685852
177447,30796,2,ER,1,100,1.687665
177497,30796,2,ER,1,100,1.687463
177547,30814,2,ER,1,100,1.688269
177597,30814,2,ER,1,100,1.687060
177647,30832,2,ER,1,100,1.686859
177698,30832,2,ER,1,100,1.689276
177748,30850,2,ER,1,100,1.686658
177799,30850,2,ER,1,100,1.687866
177849,30868,2,ER,1,100,1.684644
177900,30868,2,ER,1,100,1.689075
177950,30886,2,ER,1,100,1.683636
178001,30886,2,ER,1,100,1.688873
178051,30904,2,ER,1,100,1.685046
178102,30904,2,ER,1,100,1.689880
178152,30922,2,ER,1,100,1.686053
178203,30922,2,ER,1,100,1.693506
178254,30941,2,ER,1,100,1.686859
178305,30941,2,ER,1,100,1.691693
178355,30959,2,ER,1,100,1.688068
178405,30959,2,ER,1,100,1.690485
178455,30977,2,ER,1,100,1.686859
178506,30977,2,ER,1,100,1.690686
178556,30995,2,ER,1,100,1.686456
178607,30995,2,ER,1,100,1.688873
178657,31013,2,ER,1,100,1.685852
178708,31013,2,ER,1,100,1.690283
178747,31034,4,ER,1,100,1.687463
178787,31034,4,ER,1,100,1.690283
178826,31034,4,ER,1,100,1.687665
178866,31034,4,ER,1,100,1.684644
178916,31055,2,ER,1,100,1.686053
178966,31055,2,ER,1,100,1.692297
179016,31073,2,ER,1,100,1.687866
179066,31073,2,ER,1,100,1.686255
179116,31091,2,ER,1,100,1.686255
179167,31091,2,ER,1,100,1.688873
179218,31109,2,ER,1,100,1.685852
179270,31109,2,ER,1,100,1.691693
179319,31127,2,ER,1,100,1.686456
179369,31127,2,ER,1,100,1.690686
179419,31145,2,ER,1,100,1.686658
179470,31145,2,ER,1,100,1.691290
179521,31163,2,ER,1,100,1.686658
179572,31163,2,ER,1,100,1.690686
179622,31181,2,ER,1,100,1.686859
179672,31181,2,ER,1,100,1.689679
179722,31200,2,ER,1,100,1.684241
179773,31200,2,ER,1,100,1.687866
179823,31218,2,ER,1,100,1.684442
179874,31218,2,ER,1,100,1.688672
179924,31236,2,ER,1,100,1.683838
179975,31236,2,ER,1,100,1.688873
180025,31254,2,ER,1,100,1.684442
180076,31254,2,ER,1,100,1.687262
180126,31272,2,ER,1,100,1.685248
180177,31272,2,ER,1,100,1.688470
180227,31290,2,ER,1,100,1.686456
180278,31290,2,ER,1,100,1.688470
180328,31308,2,ER,1,100,1.684845
180379,31308,2,ER,1,100,1.687060
180413,31327,3,ER,1,100,1.685651
180447,31327,3,ER,1,100,1.686255
180482,31327,3,ER,1,100,1.684442
180531,31345,2,ER,1,100,1.684845
180581,31345,2,ER,1,100,1.686053
180631,31363,2,ER,1,100,1.686456
180682,31363,2,ER,1,100,1.685651
180733,31381,2,ER,1,100,1.684241
180784,31381,2,ER,1,100,1.686658
180834,31399,2,ER,1,100,1.681622
180884,31399,2,ER,1,100,1.687463
180934,31417,2,ER,1,100,1.682428
180985,31417,2,ER,1,100,1.687463
181035,31435,2,ER,1,100,1.683234
181086,31435,2,ER,1,100,1.687262
181137,31453,2,ER,1,100,1.685248
181188,31453,2,ER,1,100,1.689075
181238,31472,2,ER,1,100,1.685651
181288,31472,2,ER,1,100,1.692096
181338,31490,2,ER,1,100,1.684442
181389,31490,2,ER,1,100,1.689075
181439,31508,2,ER,1,100,1.684644
181490,31508,2,ER,1,100,1.688269
181541,31526,2,ER,1,100,1.684241
181592,31526,2,ER,1,100,1.688672
181642,31544,2,ER,1,100,1.687665
181692,31544,2,ER,1,100,1.689276
181742,31562,2,ER,1,100,1.685046
181793,31562,2,ER,1,100,1.688672
181827,31580,3,ER,1,100,1.686658
181861,31580,3,ER,1,100,1.689679
181895,31580,3,ER,1,100,1.689478
181945,31599,2,ER,1,100,1.688470
181996,31599,2,ER,1,100,1.692700
182046,31617,2,ER,1,100,1.686859
182096,31617,2,ER,1,100,1.685852
182146,31635,2,ER,1,100,1.686255
182197,31635,2,ER,1,100,1.689880
182247,31653,2,ER,1,100,1.684039
182298,31653,2,ER,1,100,1.686456
182348,31671,2,ER,1,100,1.684039
182399,31671,2,ER,1,100,1.688269
182449,31689,2,ER,1,100,1.685248
182500,31689,2,ER,1,100,1.688873
182550,31707,2,ER,1,100,1.684241
182601,31707,2,ER,1,100,1.690082
182651,31726,2,ER,1,100,1.684039
182702,31726,2,ER,1,100,1.687262
182753,31744,2,ER,1,100,1.682428
182804,31744,2,ER,1,100,1.686053
182854,31762,2,ER,1,100,1.683636
182904,31762,2,ER,1,100,1.688672
182954,31780,2,ER,1,100,1.683435
183005,31780,2,ER,1,100,1.689276
183055,31798,2,ER,1,100,1.683838
183106,31798,2,ER,1,100,1.687866
183157,31816,2,ER,1,100,1.685046
183209,31816,2,ER,1,100,1.687866
183258,31834,2,ER,1,100,1.684241
183308,31834,2,ER,1,100,1.686859
183358,31852,2,ER,1,100,1.682227
183409,31852,2,ER,1,100,1.687060
183459,31871,2,ER,1,100,1.682428
183510,31871,2,ER,1,100,1.687060
183560,31889,2,ER,1,100,1.686658
183611,31889,2,ER,1,100,1.687060
183645,31907,3,ER,1,100,1.684241
183679,31907,3,ER,1,100,1.688873
183713,31907,3,ER,1,100,1.685651
183763,31925,2,ER,1,100,1.685852
183814,31925,2,ER,1,100,1.686859
183864,31943,2,ER,1,100,1.687262
183914,31943,2,ER,1,100,1.689276
183965,31961,2,ER,1,100,1.686053
184016,31961,2,ER,1,100,1.689276
184066,31979,2,ER,1,100,1.686658
184116,31979,2,ER,1,100,1.690887
184166,31998,2,ER,1,100,1.687463
184217,31998,2,ER,1,100,1.690485
184267,32016,2,ER,1,100,1.686658
184318,32016,2,ER,1,100,1.691290
184368,32034,2,ER,1,100,1.684241
184419,32034,2,ER,1,100,1.690686
184469,32052,2,ER,1,100,1.687463
184520,32052,2,ER,1,100,1.691693
184570,32070,2,ER,1,100,1.686859
184621,32070,2,ER,1,100,1.690283
184672,32088,2,ER,1,100,1.687060
184723,32088,2,ER,1,100,1.689075
184773,32106,2,ER,1,100,1.687463
184823,32106,2,ER,1,100,1.692096
184873,32124,2,ER,1,100,1.688470
184924,32124,2,ER,1,100,1.692096
184974,32143,2,ER,1,100,1.688873
185025,32143,2,ER,1,100,1.688672
185059,32161,3,ER,1,100,1.688672
185093,32161,3,ER,1,100,1.689679
185127,32161,3,ER,1,100,1.689075
185177,32179,2,ER,1,100,1.691290
185227,32179,2,ER,1,100,1.689075
185277,32197,2,ER,1,100,1.691492
185328,32197,2,ER,1,100,1.688672
185378,32215,2,ER,1,100,1.687866
185429,32215,2,ER,1,100,1.689075
185480,32233,2,ER,1,100,1.688672
185531,32233,2,ER,1,100,1.690283
185581,32251,2,ER,1,100,1.687866
185631,32251,2,ER,1,100,1.693707
185681,32270,2,ER,1,100,1.685852
185732,32270,2,ER,1,100,1.690082
185782,32288,2,ER,1,100,1.686658
185833,32288,2,ER,1,100,1.692297
185883,32306,2,ER,1,100,1.686658
185934,32306,2,ER,1,100,1.688672
185984,32324,2,ER,1,100,1.686255
186035,32324,2,ER,1,100,1.691290
186085,32342,2,ER,1,100,1.685046
186136,32342,2,ER,1,100,1.692096
186186,32360,2,ER,1,100,1.687262
186237,32360,2,ER,1,100,1.691895
186287,32378,2,ER,1,100,1.684845
186338,32378,2,ER,1,100,1.688269
186388,32397,2,ER,1,100,1.686456
186439,32397,2,ER,1,100,1.691089
186489,32415,2,ER,1,100,1.685248
186540,32415,2,ER,1,100,1.688068
186590,32433,2,ER,1,100,1.683435
186641,32433,2,ER,1,100,1.689075
186675,32451,3,ER,1,100,1.685852
186709,32451,3,ER,1,100,1.691895
186743,32451,3,ER,1,100,1.685651
186793,32469,2,ER,1,100,1.687060
186844,32469,2,ER,1,100,1.685046
186894,32487,2,ER,1,100,1.686053
186944,32487,2,ER,1,100,1.684644
186995,32505,2,ER,1,100,1.684039
187046,32505,2,ER,1,100,1.686859
187096,32523,2,ER,1,100,1.685248
187146,32523,2,ER,1,100,1.686053
187196,32542,2,ER,1,100,1.684241
187247,32542,2,ER,1,100,1.688269
187297,32560,2,ER,1,100,1.684039
187348,32560,2,ER,1,100,1.687866
187398,32578,2,ER,1,100,1.683234
187449,32578,2,ER,1,100,1.685651
187500,32596,2,ER,1,100,1.684241
187551,32596,2,ER,1,100,1.687665
187601,32614,2,ER,1,100,1.684442
187651,32614,2,ER,1,100,1.689880
187701,32632,2,ER,1,100,1.685651
187752,32632,2,ER,1,100,1.692096
187802,32650,2,ER,1,100,1.685852
187853,32650,2,ER,1,100,1.692297
187903,32669,2,ER,1,100,1.683435
187954,32669,2,ER,1,100,1.689075
188004,32687,2,ER,1,100,1.684241
188055,32687,2,ER,1,100,1.690082
188105,32705,2,ER,1,100,1.683838
188156,32705,2,ER,1,100,1.688873
188206,32723,2,ER,1,100,1.686859
188257,32723,2,ER,1,100,1.691895
188307,32741,2,ER,1,100,1.685852
188358,32741,2,ER,1,100,1.688068
188392,32759,3,ER,1,100,1.683435
188426,32759,3,ER,1,100,1.686859
188461,32759,3,ER,1,100,1.685046
188511,32777,2,ER,1,100,1.687665
188561,32777,2,ER,1,100,1.688068
188611,32796,2,ER,1,100,1.687060
188661,32796,2,ER,1,100,1.686658
188711,32814,2,ER,1,100,1.684241
188762,32814,2,ER,1,100,1.687060
188812,32832,2,ER,1,100,1.683435
188863,32832,2,ER,1,100,1.693304
188913,32850,2,ER,1,100,1.687262
188964,32850,2,ER,1,100,1.692297
189014,32868,2,ER,1,100,1.684442
189065,32868,2,ER,1,100,1.686053
189116,32886,2,ER,1,100,1.682629
189167,32886,2,ER,1,100,1.688672
189217,32904,2,ER,1,100,1.685046
189267,32904,2,ER,1,100,1.689880
189317,32922,2,ER,1,100,1.685046
189368,32922,2,ER,1,100,1.689276
189418,32941,2,ER,1,100,1.684442
189469,32941,2,ER,1,100,1.689478
189519,32959,2,ER,1,100,1.684442
189570,32959,2,ER,1,100,1.688068
189712,33000,2,ER,1,100,1.685852
189854,33000,2,ER,1,100,1.686053
189904,33018,2,ER,1,100,1.693707
189954,33018,2,ER,1,100,1.690485
190004,33036,2,ER,1,100,1.685248
190055,33036,2,ER,1,100,1.689880
190105,33055,2,ER,1,100,1.685248
190156,33055,2,ER,1,100,1.687060
190206,33073,2,ER,1,100,1.683838
190257,33073,2,ER,1,100,1.692096
190307,33091,2,ER,1,100,1.687060
190358,33091,2,ER,1,100,1.686859
190408,33109,2,ER,1,100,1.685852
190459,33109,2,ER,1,100,1.688672
190493,33127,3,ER,1,100,1.688068
190527,33127,3,ER,1,100,1.685449
190561,33127,3,ER,1,100,1.686255
190611,33145,2,ER,1,100,1.686859
190661,33145,2,ER,1,100,1.686859
190711,33163,2,ER,1,100,1.686658
190762,33163,2,ER,1,100,1.686658
190812,33181,2,ER,1,100,1.685046
190863,33181,2,ER,1,100,1.690485
190913,33200,2,ER,1,100,1.685852
190964,33200,2,ER,1,100,1.689075
191014,33218,2,ER,1,100,1.685248
191065,33218,2,ER,1,100,1.690082
191115,33236,2,ER,1,100,1.685449
191166,33236,2,ER,1,100,1.691895
191216,33254,2,ER,1,100,1.683838
191267,33254,2,ER,1,100,1.687866
191318,33272,2,ER,1,100,1.685046
191369,33272,2,ER,1,100,1.689880
191419,33290,2,ER,1,100,1.685046
191469,33290,2,ER,1,100,1.691895
191519,33308,2,ER,1,100,1.685248
191570,33308,2,ER,1,100,1.688672
191621,33327,2,ER,1,100,1.685651
191672,33327,2,ER,1,100,1.693707
191722,33345,2,ER,1,100,1.684845
191772,33345,2,ER,1,100,1.688672
191822,33363,2,ER,1,100,1.687463
191873,33363,2,ER,1,100,1.690283
191923,33381,2,ER,1,100,1.686658
191974,33381,2,ER,1,100,1.687665
192008,33399,3,ER,1,100,1.685449
192042,33399,3,ER,1,100,1.687665
192077,33399,3,ER,1,100,1.685248
192127,33417,2,ER,1,100,1.687060
192177,33417,2,ER,1,100,1.686456
192227,33435,2,ER,1,100,1.687463
192277,33435,2,ER,1,100,1.687060
192328,33453,2,ER,1,100,1.685046
192379,33453,2,ER,1,100,1.689276
192429,33472,2,ER,1,100,1.684644
192479,33472,2,ER,1,100,1.688470
192529,33490,2,ER,1,100,1.685651
192580,33490,2,ER,1,100,1.689478
192630,33508,2,ER,1,100,1.686255
192681,33508,2,ER,1,100,1.689075
192731,33526,2,ER,1,100,1.686456
192782,33526,2,ER,1,100,1.690686
192833,33544,2,ER,1,100,1.684241
192884,33544,2,ER,1,100,1.686859
192934,33562,2,ER,1,100,1.684442
192984,33562,2,ER,1,100,1.690283
193034,33580,2,ER,1,100,1.686456
193085,33580,2,ER,1,100,1.689679
193135,33599,2,ER,1,100,1.684644
193186,33599,2,ER,1,100,1.688269
193237,33617,2,ER,1,100,1.685651
193288,33617,2,ER,1,100,1.689880
193338,33635,2,ER,1,100,1.684644
193388,33635,2,ER,1,100,1.689880
193438,33653,2,ER,1,100,1.685449
193489,33653,2,ER,1,100,1.689075
193539,33671,2,ER,1,100,1.684644
193590,33671,2,ER,1,100,1.690686
193624,33689,3,ER,1,100,1.686658
193658,33689,3,ER,1,100,1.687060
193693,33689,3,ER,1,100,1.684845
193743,33707,2,ER,1,100,1.686859
193793,33707,2,ER,1,100,1.690887
193843,33726,2,ER,1,100,1.685449
193893,33726,2,ER,1,100,1.687060
193943,33744,2,ER,1,100,1.685651
193994,33744,2,ER,1,100,1.688068
194044,33762,2,ER,1,100,1.684241
194095,33762,2,ER,1,100,1.689478
194145,33780,2,ER,1,100,1.683234
194196,33780,2,ER,1,100,1.687866
194246,33798,2,ER,1,100,1.684644
194297,33798,2,ER,1,100,1.689478
194348,33816,2,ER,1,100,1.683234
194399,33816,2,ER,1,100,1.689075
194449,33834,2,ER,1,100,1.683838
194499,33834,2,ER,1,100,1.689478
194549,33852,2,ER,1,100,1.683636
194600,33852,2,ER,1,100,1.689679
194651,33871,2,ER,1,100,1.683838
194702,33871,2,ER,1,100,1.690485
194752,33889,2,ER,1,100,1.684241
194802,33889,2,ER,1,100,1.689276
194852,33907,2,ER,1,100,1.684442
194903,33907,2,ER,1,100,1.689478
194953,33925,2,ER,1,100,1.685046
195004,33925,2,ER,1,100,1.689075
195054,33943,2,ER,1,100,1.687060
195105,33943,2,ER,1,100,1.687866
195139,33961,3,ER,1,100,1.684845
195173,33961,3,ER,1,100,1.687463
195208,33961,3,ER,1,100,1.687060
195257,33979,2,ER,1,100,1.688269
195307,33979,2,ER,1,100,1.688269
195357,33998,2,ER,1,100,1.685248
195408,33998,2,ER,1,100,1.688269
195458,34016,2,ER,1,100,1.684039
195509,34016,2,ER,1,100,1.687262
195559,34034,2,ER,1,100,1.685449
195610,34034,2,ER,1,100,1.687665
195660,34052,2,ER,1,100,1.684241
195711,34052,2,ER,1,100,1.687060
195761,34070,2,ER,1,100,1.683435
195812,34070,2,ER,1,100,1.687665
195863,34088,2,ER,1,100,1.686053
195914,34088,2,ER,1,100,1.689679
195964,34106,2,ER,1,100,1.683636
196014,34106,2,ER,1,100,1.687665
196064,34124,2,ER,1,100,1.683032
196115,34124,2,ER,1,100,1.687665
196165,34143,2,ER,1,100,1.682629
196216,34143,2,ER,1,100,1.689075
196266,34161,2,ER,1,100,1.684644
196317,34161,2,ER,1,100,1.688470
196367,34179,2,ER,1,100,1.683435
196418,34179,2,ER,1,100,1.687060
196468,34197,2,ER,1,100,1.687060
196519,34197,2,ER,1,100,1.688269
196569,34215,2,ER,1,100,1.685651
196620,34215,2,ER,1,100,1.686658
196654,34233,3,ER,1,100,1.685852
196688,34233,3,ER,1,100,1.688470
196722,34233,3,ER,1,100,1.686255
196772,34251,2,ER,1,100,1.688068
196823,34251,2,ER,1,100,1.688873
196873,34270,2,ER,1,100,1.686255
196923,34270,2,ER,1,100,1.687262
196973,34288,2,ER,1,100,1.686053
197024,34288,2,ER,1,100,1.689679
197074,34306,2,ER,1,100,1.686859
197125,34306,2,ER,1,100,1.690686
197175,34324,2,ER,1,100,1.685248
197226,34324,2,ER,1,100,1.689075
197276,34342,2,ER,1,100,1.685852
197327,34342,2,ER,1,100,1.687866
197377,34360,2,ER,1,100,1.687262
197428,34360,2,ER,1,100,1.689276
197478,34378,2,ER,1,100,1.686053
197529,34378,2,ER,1,100,1.688873
197579,34397,2,ER,1,100,1.685248
197630,34397,2,ER,1,100,1.688873
197680,34415,2,ER,1,100,1.685852
197731,34415,2,ER,1,100,1.693909
197782,34433,2,ER,1,100,1.685852
197834,34433,2,ER,1,100,1.691492
197883,34451,2,ER,1,100,1.687060
197933,34451,2,ER,1,100,1.691089
197983,34469,2,ER,1,100,1.684644
198034,34469,2,ER,1,100,1.691492
198084,34487,2,ER,1,100,1.686255
198135,34487,2,ER,1,100,1.689679
198185,34505,2,ER,1,100,1.686658
198236,34505,2,ER,1,100,1.686255
198270,34523,3,ER,1,100,1.685046
198304,34523,3,ER,1,100,1.685046
198338,34523,3,ER,1,100,1.684039
198388,34542,2,ER,1,100,1.687866
198439,34542,2,ER,1,100,1.686456
198489,34560,2,ER,1,100,1.687262
198539,34560,2,ER,1,100,1.689276
198590,34578,2,ER,1,100,1.684644
198641,34578,2,ER,1,100,1.689880
198691,34596,2,ER,1,100,1.685046
198741,34596,2,ER,1,100,1.688470
198791,34614,2,ER,1,100,1.684442
198842,34614,2,ER,1,100,1.687262
198892,34632,2,ER,1,100,1.684039
198943,34632,2,ER,1,100,1.687463
198994,34650,2,ER,1,100,1.683838
199046,34650,2,ER,1,100,1.686859
199095,34669,2,ER,1,100,1.685449
199145,34669,2,ER,1,100,1.690485
199195,34687,2,ER,1,100,1.686053
199246,34687,2,ER,1,100,1.689075
199297,34705,2,ER,1,100,1.684644
199348,34705,2,ER,1,100,1.688672
199398,34723,2,ER,1,100,1.686658
199448,34723,2,ER,1,100,1.689075
199498,34741,2,ER,1,100,1.686053
199549,34741,2,ER,1,100,1.687866
199599,34759,2,ER,1,100,1.686859
199650,34759,2,ER,1,100,1.691089
199700,34777,2,ER,1,100,1.688470
199751,34777,2,ER,1,100,1.690887
199801,34796,2,ER,1,100,1.691492
199852,34796,2,ER,1,100,1.690686
199896,34814,4,ER,1,100,1.692902
199941,34814,4,ER,1,100,1.689880
199985,34814,4,ER,1,100,1.694513
200030,34814,4,ER,1,100,1.694513
200079,34832,2,ER,1,100,1.689075
200129,34832,2,ER,1,100,1.683636
200179,34850,2,ER,1,100,1.690485
200230,34850,2,ER,1,100,1.689276
200281,34868,2,ER,1,100,1.685651
200333,34868,2,ER,1,100,1.689075
200382,34886,2,ER,1,100,1.684644
200432,34886,2,ER,1,100,1.690082
200482,34904,2,ER,1,100,1.686255
200533,34904,2,ER,1,100,1.687866
200573,34926,4,ER,1,100,1.685248
200613,34926,4,ER,1,100,1.687866
200653,34926,4,ER,1,100,1.684039
200693,34926,4,ER,1,100,1.683838
200742,34946,2,ER,1,100,1.684845
200792,34946,2,ER,1,100,1.690887
200842,34964,2,ER,1,100,1.686859
200893,34964,2,ER,1,100,1.687665
200943,34982,2,ER,1,100,1.683435
200994,34982,2,ER,1,100,1.689679
201044,35000,2,ER,1,100,1.685449
201095,35000,2,ER,1,100,1.689478
201145,35018,2,ER,1,100,1.686053
201196,35018,2,ER,1,100,1.688873
201246,35036,2,ER,1,100,1.685651
201297,35036,2,ER,1,100,1.691693
201347,35055,2,ER,1,100,1.686658
201398,35055,2,ER,1,100,1.689478
201448,35073,2,ER,1,100,1.686255
201499,35073,2,ER,1,100,1.690283
201550,35091,2,ER,1,100,1.684442
201601,35091,2,ER,1,100,1.687262
201651,35109,2,ER,1,100,1.685046
201701,35109,2,ER,1,100,1.689478
201751,35127,2,ER,1,100,1.684241
201802,35127,2,ER,1,100,1.689679
201852,35145,2,ER,1,100,1.685248
201903,35145,2,ER,1,100,1.687262
201953,35163,2,ER,1,100,1.684442
202004,35163,2,ER,1,100,1.687665
202038,35182,3,ER,1,100,1.686053
202072,35182,3,ER,1,100,1.687463
202107,35182,3,ER,1,100,1.686658
202157,35200,2,ER,1,100,1.688470
202207,35200,2,ER,1,100,1.686456
202257,35218,2,ER,1,100,1.688672
202307,35218,2,ER,1,100,1.687665
202357,35236,2,ER,1,100,1.684644
202408,35236,2,ER,1,100,1.689478
202459,35254,2,ER,1,100,1.687060
202511,35254,2,ER,1,100,1.687665
202560,35272,2,ER,1,100,1.685852
202610,35272,2,ER,1,100,1.689075
202660,35290,2,ER,1,100,1.684241
202711,35290,2,ER,1,100,1.688269
202761,35308,2,ER,1,100,1.685449
202812,35308,2,ER,1,100,1.689679
202862,35327,2,ER,1,100,1.684442
202913,35327,2,ER,1,100,1.686859
202963,35345,2,ER,1,100,1.682629
203014,35345,2,ER,1,100,1.686658
203064,35363,2,ER,1,100,1.683838
203115,35363,2,ER,1,100,1.689075
203165,35381,2,ER,1,100,1.685046
203216,35381,2,ER,1,100,1.688269
203267,35399,2,ER,1,100,1.685248
203318,35399,2,ER,1,100,1.688873
203368,35417,2,ER,1,100,1.685449
203418,35417,2,ER,1,100,1.691492
203468,35435,2,ER,1,100,1.685449
203519,35435,2,ER,1,100,1.688672
203569,35454,2,ER,1,100,1.686255
203620,35454,2,ER,1,100,1.688068
203654,35472,3,ER,1,100,1.685651
203688,35472,3,ER,1,100,1.688269
203722,35472,3,ER,1,100,1.685449
203772,35490,2,ER,1,100,1.687060
203822,35490,2,ER,1,100,1.689276
203872,35508,2,ER,1,100,1.688068
203923,35508,2,ER,1,100,1.687463
203973,35526,2,ER,1,100,1.686053
204024,35526,2,ER,1,100,1.688269
204074,35544,2,ER,1,100,1.686658
204125,35544,2,ER,1,100,1.691492
204175,35562,2,ER,1,100,1.686255
204226,35562,2,ER,1,100,1.689478
204276,35581,2,ER,1,100,1.685248
204327,35581,2,ER,1,100,1.688873
204377,35599,2,ER,1,100,1.685046
204428,35599,2,ER,1,100,1.690485
204479,35617,2,ER,1,100,1.685248
204530,35617,2,ER,1,100,1.691290
204580,35635,2,ER,1,100,1.683838
204630,35635,2,ER,1,100,1.690082
204680,35653,2,ER,1,100,1.687463
204731,35653,2,ER,1,100,1.688269
204782,35671,2,ER,1,100,1.685651
204833,35671,2,ER,1,100,1.687262
204883,35689,2,ER,1,100,1.684241
204934,35689,2,ER,1,100,1.690283
204984,35707,2,ER,1,100,1.685248
205034,35707,2,ER,1,100,1.689075
205084,35726,2,ER,1,100,1.685046
205135,35726,2,ER,1,100,1.687665
205185,35744,2,ER,1,100,1.686456
205236,35744,2,ER,1,100,1.690283
205286,35762,2,ER,1,100,1.687463
205337,35762,2,ER,1,100,1.689075
205371,35780,3,ER,1,100,1.687060
205405,35780,3,ER,1,100,1.687866
205440,35780,3,ER,1,100,1.687463
205489,35798,2,ER,1,100,1.686658
205539,35798,2,ER,1,100,1.687060
205589,35816,2,ER,1,100,1.684442
205640,35816,2,ER,1,100,1.688068
205690,35834,2,ER,1,100,1.684442
205741,35834,2,ER,1,100,1.688470
205791,35853,2,ER,1,100,1.684241
205842,35853,2,ER,1,100,1.691089
205892,35871,2,ER,1,100,1.683838
205943,35871,2,ER,1,100,1.690887
205993,35889,2,ER,1,100,1.683838
206044,35889,2,ER,1,100,1.685852
206095,35907,2,ER,1,100,1.683032
206146,35907,2,ER,1,100,1.690082
206196,35925,2,ER,1,100,1.682428
206246,35925,2,ER,1,100,1.687665
206296,35943,2,ER,1,100,1.682629
206347,35943,2,ER,1,100,1.686456
206398,35961,2,ER,1,100,1.682428
206450,35961,2,ER,1,100,1.686053
206499,35979,2,ER,1,100,1.682025
206549,35979,2,ER,1,100,1.687665
206599,35998,2,ER,1,100,1.682025
206650,35998,2,ER,1,100,1.685852
206700,36016,2,ER,1,100,1.682831
206751,36016,2,ER,1,100,1.686255
206801,36034,2,ER,1,100,1.684039
206852,36034,2,ER,1,100,1.686658
206886,36052,3,ER,1,100,1.683838
206920,36052,3,ER,1,100,1.686053
206955,36052,3,ER,1,100,1.684644
207004,36070,2,ER,1,100,1.686658
207054,36070,2,ER,1,100,1.688068
207104,36088,2,ER,1,100,1.685046
207155,36088,2,ER,1,100,1.687262
207205,36106,2,ER,1,100,1.686053
207256,36106,2,ER,1,100,1.687463
207307,36125,2,ER,1,100,1.685046
207358,36125,2,ER,1,100,1.688068
207408,36143,2,ER,1,100,1.685449
207458,36143,2,ER,1,100,1.687463
207508,36161,2,ER,1,100,1.684241
207559,36161,2,ER,1,100,1.689276
207609,36179,2,ER,1,100,1.686053
207660,36179,2,ER,1,100,1.688873
207710,36197,2,ER,1,100,1.686053
207761,36197,2,ER,1,100,1.691895
207811,36215,2,ER,1,100,1.684241
207862,36215,2,ER,1,100,1.692499
207912,36233,2,ER,1,100,1.686456
207963,36233,2,ER,1,100,1.688470
208014,36252,2,ER,1,100,1.686053
208066,36252,2,ER,1,100,1.689880
208115,36270,2,ER,1,100,1.686456
208165,36270,2,ER,1,100,1.690283
208215,36288,2,ER,1,100,1.685449
208266,36288,2,ER,1,100,1.690082
208316,36306,2,ER,1,100,1.686053
208367,36306,2,ER,1,100,1.689075
208401,36324,3,ER,1,100,1.687665
208435,36324,3,ER,1,100,1.689276
208469,36324,3,ER,1,100,1.688873
208519,36342,2,ER,1,100,1.686658
208569,36342,2,ER,1,100,1.690082
208619,36360,2,ER,1,100,1.687262
208670,36360,2,ER,1,100,1.689679
208721,36378,2,ER,1,100,1.689679
208772,36378,2,ER,1,100,1.691089
208822,36397,2,ER,1,100,1.686456
208872,36397,2,ER,1,100,1.691290
208922,36415,2,ER,1,100,1.686859
208973,36415,2,ER,1,100,1.692096
209023,36433,2,ER,1,100,1.688269
209074,36433,2,ER,1,100,1.691492
209125,36451,2,ER,1,100,1.688269
209176,36451,2,ER,1,100,1.690686
209226,36469,2,ER,1,100,1.687463
209276,36469,2,ER,1,100,1.692700
209326,36487,2,ER,1,100,1.687262
209377,36487,2,ER,1,100,1.693506
209427,36505,2,ER,1,100,1.687262
209478,36505,2,ER,1,100,1.690686
209529,36524,2,ER,1,100,1.687463
209580,36524,2,ER,1,100,1.689075
209630,36542,2,ER,1,100,1.686456
209680,36542,2,ER,1,100,1.692499
209730,36560,2,ER,1,100,1.686859
209781,36560,2,ER,1,100,1.688873
209831,36578,2,ER,1,100,1.687060
209882,36578,2,ER,1,100,1.689478
209932,36596,2,ER,1,100,1.685651
209983,36596,2,ER,1,100,1.689276
210017,36614,3,ER,1,100,1.686658
210051,36614,3,ER,1,100,1.689880
210085,36614,3,ER,1,100,1.688470
210135,36632,2,ER,1,100,1.689075
210185,36632,2,ER,1,100,1.690485
210235,36650,2,ER,1,100,1.689679
210286,36650,2,ER,1,100,1.692700
210337,36669,2,ER,1,100,1.686658
210388,36669,2,ER,1,100,1.691492
210438,36687,2,ER,1,100,1.685651
210488,36687,2,ER,1,100,1.691089
210538,36705,2,ER,1,100,1.687262
210589,36705,2,ER,1,100,1.689075
210639,36723,2,ER,1,100,1.685449
210690,36723,2,ER,1,100,1.688068
210740,36741,2,ER,1,100,1.684845
210791,36741,2,ER,1,100,1.689880
210841,36759,2,ER,1,100,1.685248
210892,36759,2,ER,1,100,1.689276
210942,36777,2,ER,1,100,1.685449
210993,36777,2,ER,1,100,1.693103
211044,36796,2,ER,1,100,1.686053
211095,36796,2,ER,1,100,1.690887
211145,36814,2,ER,1,100,1.685852
211195,36814,2,ER,1,100,1.692499
211245,36832,2,ER,1,100,1.687262
211296,36832,2,ER,1,100,1.693506
211346,36850,2,ER,1,100,1.686658
211397,36850,2,ER,1,100,1.688672
211538,36891,2,ER,1,100,1.687866
211679,36891,2,ER,1,100,1.687866
211730,36909,2,ER,1,100,1.689478
211781,36909,2,ER,1,100,1.689679
211831,36928,2,ER,1,100,1.685651
211881,36928,2,ER,1,100,1.689075
211931,36946,2,ER,1,100,1.686053
211982,36946,2,ER,1,100,1.690082
212032,36964,2,ER,1,100,1.686053
212083,36964,2,ER,1,100,1.691492
212133,36982,2,ER,1,100,1.686859
212184,36982,2,ER,1,100,1.686658
212218,37000,3,ER,1,100,1.686255
212252,37000,3,ER,1,100,1.687262
212286,37000,3,ER,1,100,1.688068
212336,37018,2,ER,1,100,1.686255
212386,37018,2,ER,1,100,1.688269
212436,37036,2,ER,1,100,1.685449
212487,37036,2,ER,1,100,1.687665
212538,37055,2,ER,1,100,1.684442
212590,37055,2,ER,1,100,1.689075
212639,37073,2,ER,1,100,1.683435
212689,37073,2,ER,1,100,1.687866
212739,37091,2,ER,1,100,1.682428
212790,37091,2,ER,1,100,1.690686
212840,37109,2,ER,1,100,1.683636
212891,37109,2,ER,1,100,1.686658
212941,37127,2,ER,1,100,1.684442
212992,37127,2,ER,1,100,1.688269
213042,37145,2,ER,1,100,1.684241
213093,37145,2,ER,1,100,1.691492
213143,37163,2,ER,1,100,1.683234
213194,37163,2,ER,1,100,1.690686
213245,37182,2,ER,1,100,1.684644
213296,37182,2,ER,1,100,1.691089
213346,37200,2,ER,1,100,1.684644
213396,37200,2,ER,1,100,1.689276
213446,37218,2,ER,1,100,1.683234
213497,37218,2,ER,1,100,1.686053
213547,37236,2,ER,1,100,1.683032
213598,37236,2,ER,1,100,1.689679
213648,37254,2,ER,1,100,1.686255
213699,37254,2,ER,1,100,1.685852
213733,37272,3,ER,1,100,1.684845
213767,37272,3,ER,1,100,1.687060
213801,37272,3,ER,1,100,1.685651
213851,37290,2,ER,1,100,1.684644
213901,37290,2,ER,1,100,1.687262
213951,37308,2,ER,1,100,1.685046
214002,37308,2,ER,1,100,1.685852
214053,37327,2,ER,1,100,1.683234
214104,37327,2,ER,1,100,1.689075
214154,37345,2,ER,1,100,1.683636
214204,37345,2,ER,1,100,1.686658
214254,37363,2,ER,1,100,1.685248
214305,37363,2,ER,1,100,1.688873
214355,37381,2,ER,1,100,1.684241
214406,37381,2,ER,1,100,1.688068
214456,37399,2,ER,1,100,1.683636
214507,37399,2,ER,1,100,1.687665
214558,37417,2,ER,1,100,1.682831
214609,37417,2,ER,1,100,1.688873
214659,37435,2,ER,1,100,1.681622
214709,37435,2,ER,1,100,1.687463
214759,37454,2,ER,1,100,1.681018
214810,37454,2,ER,1,100,1.689075
214860,37472,2,ER,1,100,1.683032
214911,37472,2,ER,1,100,1.685852
214962,37490,2,ER,1,100,1.683032
215013,37490,2,ER,1,100,1.686456
215063,37508,2,ER,1,100,1.680212
215114,37508,2,ER,1,100,1.683838
215164,37526,2,ER,1,100,1.681421
215214,37526,2,ER,1,100,1.685248
215264,37544,2,ER,1,100,1.681421
215315,37544,2,ER,1,100,1.684039
215349,37562,3,ER,1,100,1.680011
215383,37562,3,ER,1,100,1.683838
215417,37562,3,ER,1,100,1.681824
215467,37581,2,ER,1,100,1.681824
215517,37581,2,ER,1,100,1.683838
215567,37599,2,ER,1,100,1.679810
215618,37599,2,ER,1,100,1.683234
215669,37617,2,ER,1,100,1.681622
215720,37617,2,ER,1,100,1.683234
215770,37635,2,ER,1,100,1.680817
215820,37635,2,ER,1,100,1.685449
215870,37653,2,ER,1,100,1.681018
215921,37653,2,ER,1,100,1.683234
215971,37671,2,ER,1,100,1.679004
216022,37671,2,ER,1,100,1.686456
216073,37689,2,ER,1,100,1.682831
216124,37689,2,ER,1,100,1.687262
216174,37707,2,ER,1,100,1.682025
216224,37707,2,ER,1,100,1.689679
216274,37726,2,ER,1,100,1.681018
216325,37726,2,ER,1,100,1.687866
216375,37744,2,ER,1,100,1.681421
216426,37744,2,ER,1,100,1.685651
216476,37762,2,ER,1,100,1.680414
216527,37762,2,ER,1,100,1.684241
216577,37780,2,ER,1,100,1.681421
216628,37780,2,ER,1,100,1.683636
216678,37798,2,ER,1,100,1.685248
216729,37798,2,ER,1,100,1.688672
216779,37816,2,ER,1,100,1.674976
216830,37816,2,ER,1,100,1.687463
216864,37834,3,ER,1,100,1.690485
216898,37834,3,ER,1,100,1.687262
216932,37834,3,ER,1,100,1.685449
216982,37853,2,ER,1,100,1.685651
217032,37853,2,ER,1,100,1.693506
217082,37871,2,ER,1,100,1.684241
217133,37871,2,ER,1,100,1.681219
217183,37889,2,ER,1,100,1.682025
217234,37889,2,ER,1,100,1.679205
217284,37907,2,ER,1,100,1.676990
217335,37907,2,ER,1,100,1.683234
217386,37925,2,ER,1,100,1.676788
217437,37925,2,ER,1,100,1.680615
217487,37943,2,ER,1,100,1.681622
217537,37943,2,ER,1,100,1.686456
217587,37961,2,ER,1,100,1.677997
217638,37961,2,ER,1,100,1.679004
217689,37979,2,ER,1,100,1.674774
217740,37979,2,ER,1,100,1.680011
217790,37998,2,ER,1,100,1.676587
217840,37998,2,ER,1,100,1.683032
217890,38016,2,ER,1,100,1.675983
217941,38016,2,ER,1,100,1.682428
217991,38034,2,ER,1,100,1.675983
218042,38034,2,ER,1,100,1.684845
218092,38052,2,ER,1,100,1.675781
218143,38052,2,ER,1,100,1.678601
218193,38070,2,ER,1,100,1.675378
218244,38070,2,ER,1,100,1.677997
218294,38088,2,ER,1,100,1.675580
218345,38088,2,ER,1,100,1.677997
218379,38106,3,ER,1,100,1.676184
218413,38106,3,ER,1,100,1.678400
218447,38106,3,ER,1,100,1.677594
218497,38125,2,ER,1,100,1.677795
218547,38125,2,ER,1,100,1.679407
218597,38143,2,ER,1,100,1.676788
218648,38143,2,ER,1,100,1.680615
218698,38161,2,ER,1,100,1.677795
218749,38161,2,ER,1,100,1.682831
218800,38179,2,ER,1,100,1.679810
218851,38179,2,ER,1,100,1.680615
218901,38197,2,ER,1,100,1.677594
218951,38197,2,ER,1,100,1.681622
219001,38215,2,ER,1,100,1.674573
219052,38215,2,ER,1,100,1.681018
219102,38233,2,ER,1,100,1.677997
219153,38233,2,ER,1,100,1.681622
219204,38252,2,ER,1,100,1.677393
219255,38252,2,ER,1,100,1.681824
219305,38270,2,ER,1,100,1.677997
219355,38270,2,ER,1,100,1.684442
219405,38288,2,ER,1,100,1.678400
219456,38288,2,ER,1,100,1.685248
219506,38306,2,ER,1,100,1.679205
219557,38306,2,ER,1,100,1.685852
219607,38324,2,ER,1,100,1.680011
219658,38324,2,ER,1,100,1.682428
219709,38342,2,ER,1,100,1.680212
219761,38342,2,ER,1,100,1.682831
219810,38360,2,ER,1,100,1.679407
219860,38360,2,ER,1,100,1.689276
219910,38378,2,ER,1,100,1.681219
219961,38378,2,ER,1,100,1.685248
220011,38397,2,ER,1,100,1.680817
220062,38397,2,ER,1,100,1.686456
220096,38415,3,ER,1,100,1.682629
220130,38415,3,ER,1,100,1.686255
220164,38415,3,ER,1,100,1.681622
220214,38433,2,ER,1,100,1.682025
220265,38433,2,ER,1,100,1.685852
220315,38451,2,ER,1,100,1.685046
220365,38451,2,ER,1,100,1.685046
220415,38469,2,ER,1,100,1.682629
220466,38469,2,ER,1,100,1.687665
220516,38487,2,ER,1,100,1.682227
220567,38487,2,ER,1,100,1.688269
220617,38505,2,ER,1,100,1.681219
220668,38505,2,ER,1,100,1.686053
220718,38524,2,ER,1,100,1.682227
220769,38524,2,ER,1,100,1.685852
220820,38542,2,ER,1,100,1.682428
220871,38542,2,ER,1,100,1.687463
220921,38560,2,ER,1,100,1.683234
220971,38560,2,ER,1,100,1.687866
221021,38578,2,ER,1,100,1.682428
221072,38578,2,ER,1,100,1.690686
221122,38596,2,ER,1,100,1.682227
221173,38596,2,ER,1,100,1.686255
221224,38614,2,ER,1,100,1.681824
221275,38614,2,ER,1,100,1.685852
221325,38632,2,ER,1,100,1.682428
221375,38632,2,ER,1,100,1.686658
221425,38650,2,ER,1,100,1.682025
221476,38650,2,ER,1,100,1.688672
221526,38669,2,ER,1,100,1.683636
221577,38669,2,ER,1,100,1.685651
221611,38687,3,ER,1,100,1.683032
221645,38687,3,ER,1,100,1.686255
221680,38687,3,ER,1,100,1.683838
221729,38705,2,ER,1,100,1.684442
221779,38705,2,ER,1,100,1.685046
221829,38723,2,ER,1,100,1.684845
221880,38723,2,ER,1,100,1.683636
221930,38741,2,ER,1,100,1.685248
221981,38741,2,ER,1,100,1.684644
222032,38759,2,ER,1,100,1.684039
222083,38759,2,ER,1,100,1.687262
222133,38777,2,ER,1,100,1.680011
222183,38777,2,ER,1,100,1.683435
222233,38796,2,ER,1,100,1.680615
222284,38796,2,ER,1,100,1.686053
222330,38817,4,ER,1,100,1.680414
222376,38817,4,ER,1,100,1.683636
222422,38817,4,ER,1,100,1.680615
222468,38817,4,ER,1,100,1.682831
222519,38837,2,ER,1,100,1.681219
222570,38837,2,ER,1,100,1.687866
222620,38855,2,ER,1,100,1.684039
222670,38855,2,ER,1,100,1.684845
222720,38873,2,ER,1,100,1.682025
222771,38873,2,ER,1,100,1.687463
222821,38891,2,ER,1,100,1.682025
222872,38891,2,ER,1,100,1.687866
222923,38909,2,ER,1,100,1.681622
222974,38909,2,ER,1,100,1.684442
223024,38928,2,ER,1,100,1.680817
223074,38928,2,ER,1,100,1.687463
223124,38946,2,ER,1,100,1.683032
223175,38946,2,ER,1,100,1.686859
223225,38964,2,ER,1,100,1.681622
223276,38964,2,ER,1,100,1.688873
223327,38982,2,ER,1,100,1.683032
223378,38982,2,ER,1,100,1.686658
223428,39000,2,ER,1,100,1.682831
223478,39000,2,ER,1,100,1.687665
223528,39018,2,ER,1,100,1.683234
223579,39018,2,ER,1,100,1.688470
223629,39036,2,ER,1,100,1.683838
223680,39036,2,ER,1,100,1.685852
223714,39055,3,ER,1,100,1.683838
223748,39055,3,ER,1,100,1.685248
223783,39055,3,ER,1,100,1.684442
223833,39073,2,ER,1,100,1.684039
223883,39073,2,ER,1,100,1.684241
223933,39091,2,ER,1,100,1.682831
223983,39091,2,ER,1,100,1.684644
224033,39109,2,ER,1,100,1.684039
224084,39109,2,ER,1,100,1.685651
224135,39127,2,ER,1,100,1.683032
224187,39127,2,ER,1,100,1.685852
224236,39145,2,ER,1,100,1.684241
224286,39145,2,ER,1,100,1.687060
224336,39163,2,ER,1,100,1.683636
224387,39163,2,ER,1,100,1.687866
224437,39182,2,ER,1,100,1.683636
224488,39182,2,ER,1,100,1.689679
224538,39200,2,ER,1,100,1.683032
224589,39200,2,ER,1,100,1.686053
224640,39218,2,ER,1,100,1.684241
224691,39218,2,ER,1,100,1.687665
224741,39236,2,ER,1,100,1.682629
224791,39236,2,ER,1,100,1.689075
224841,39254,2,ER,1,100,1.684442
224892,39254,2,ER,1,100,1.687060
224943,39272,2,ER,1,100,1.682227
224994,39272,2,ER,1,100,1.686658
225044,39290,2,ER,1,100,1.683234
225094,39290,2,ER,1,100,1.688672
225144,39308,2,ER,1,100,1.683435
225195,39308,2,ER,1,100,1.687665
225229,39327,3,ER,1,100,1.684644
225263,39327,3,ER,1,100,1.687060
225298,39327,3,ER,1,100,1.684039
225348,39345,2,ER,1,100,1.685248
225398,39345,2,ER,1,100,1.687060
225448,39363,2,ER,1,100,1.685852
225498,39363,2,ER,1,100,1.688269
225548,39381,2,ER,1,100,1.686658
225599,39381,2,ER,1,100,1.688873
225650,39399,2,ER,1,100,1.685046
225701,39399,2,ER,1,100,1.687060
225751,39417,2,ER,1,100,1.684039
225801,39417,2,ER,1,100,1.689478
225851,39435,2,ER,1,100,1.684241
225902,39435,2,ER,1,100,1.689276
225946,39454,4,ER,1,100,1.683435
225991,39454,4,ER,1,100,1.690887
226036,39454,4,ER,1,100,1.692499
226081,39454,4,ER,1,100,1.691492
226130,39472,2,ER,1,100,1.684039
226180,39472,2,ER,1,100,1.689075
226230,39490,2,ER,1,100,1.686053
226281,39490,2,ER,1,100,1.685248
226331,39508,2,ER,1,100,1.681219
226382,39508,2,ER,1,100,1.687866
226433,39526,2,ER,1,100,1.684442
226485,39526,2,ER,1,100,1.687665
226534,39544,2,ER,1,100,1.684442
226584,39544,2,ER,1,100,1.689478
226634,39562,2,ER,1,100,1.684644
226685,39562,2,ER,1,100,1.689276
226735,39581,2,ER,1,100,1.684241
226786,39581,2,ER,1,100,1.689276
226837,39599,2,ER,1,100,1.684442
226888,39599,2,ER,1,100,1.690686
226938,39617,2,ER,1,100,1.685449
226988,39617,2,ER,1,100,1.689478
227038,39635,2,ER,1,100,1.684644
227089,39635,2,ER,1,100,1.690485
227139,39653,2,ER,1,100,1.686255
227190,39653,2,ER,1,100,1.690485
227241,39671,2,ER,1,100,1.685449
227292,39671,2,ER,1,100,1.689478
227342,39689,2,ER,1,100,1.685449
227393,39689,2,ER,1,100,1.689679
227443,39708,2,ER,1,100,1.684442
227493,39708,2,ER,1,100,1.687262
227543,39726,2,ER,1,100,1.684442
227594,39726,2,ER,1,100,1.687665
227628,39744,3,ER,1,100,1.685651
227662,39744,3,ER,1,100,1.687262
227696,39744,3,ER,1,100,1.685852
227746,39762,2,ER,1,100,1.686456
227796,39762,2,ER,1,100,1.684039
227846,39780,2,ER,1,100,1.684039
227897,39780,2,ER,1,100,1.683435
227948,39798,2,ER,1,100,1.683234
227999,39798,2,ER,1,100,1.685248
228049,39816,2,ER,1,100,1.683234
228099,39816,2,ER,1,100,1.687060
228149,39835,2,ER,1,100,1.682025
228200,39835,2,ER,1,100,1.687866
228250,39853,2,ER,1,100,1.684845
228301,39853,2,ER,1,100,1.692297
228351,39871,2,ER,1,100,1.684644
228402,39871,2,ER,1,100,1.689276
228452,39889,2,ER,1,100,1.686255
228503,39889,2,ER,1,100,1.689075
228553,39907,2,ER,1,100,1.685651
228604,39907,2,ER,1,100,1.688873
228655,39925,2,ER,1,100,1.683435
228706,39925,2,ER,1,100,1.688269
228756,39943,2,ER,1,100,1.684241
228806,39943,2,ER,1,100,1.687262
228856,39961,2,ER,1,100,1.684845
228907,39961,2,ER,1,100,1.687665
228957,39980,2,ER,1,100,1.684644
229008,39980,2,ER,1,100,1.688068
229042,39998,3,ER,1,100,1.686053
229076,39998,3,ER,1,100,1.688068
229110,39998,3,ER,1,100,1.685651
229160,40016,2,ER,1,100,1.686456
229211,40016,2,ER,1,100,1.687262
229261,40034,2,ER,1,100,1.686053
229311,40034,2,ER,1,100,1.687866
229361,40052,2,ER,1,100,1.687665
229412,40052,2,ER,1,100,1.687262
229462,40070,2,ER,1,100,1.687665
229513,40070,2,ER,1,100,1.694513
229563,40088,2,ER,1,100,1.685852
229614,40088,2,ER,1,100,1.694513
229665,40107,2,ER,1,100,1.685046
229716,40107,2,ER,1,100,1.687060
229766,40125,2,ER,1,100,1.683032
229816,40125,2,ER,1,100,1.687463
229866,40143,2,ER,1,100,1.683234
229917,40143,2,ER,1,100,1.689075
229967,40161,2,ER,1,100,1.683435
230018,40161,2,ER,1,100,1.688068
230068,40179,2,ER,1,100,1.684241
230119,40179,2,ER,1,100,1.688068
230169,40197,2,ER,1,100,1.684442
230220,40197,2,ER,1,100,1.691290
230271,40215,2,ER,1,100,1.683234
230323,40215,2,ER,1,100,1.686859
230372,40233,2,ER,1,100,1.683032
230422,40233,2,ER,1,100,1.687665
230472,40252,2,ER,1,100,1.684442
230523,40252,2,ER,1,100,1.688269
230573,40270,2,ER,1,100,1.683435
230624,40270,2,ER,1,100,1.689679
230658,40288,3,ER,1,100,1.685248
230692,40288,3,ER,1,100,1.684241
230726,40288,3,ER,1,100,1.685852
230776,40306,2,ER,1,100,1.684241
230826,40306,2,ER,1,100,1.684039
230876,40324,2,ER,1,100,1.683234
230927,40324,2,ER,1,100,1.685651
230977,40342,2,ER,1,100,1.681622
231028,40342,2,ER,1,100,1.690082
231079,40360,2,ER,1,100,1.682025
231130,40360,2,ER,1,100,1.685046
231180,40379,2,ER,1,100,1.683032
231230,40379,2,ER,1,100,1.689880
231280,40397,2,ER,1,100,1.683032
231331,40397,2,ER,1,100,1.686255
231381,40415,2,ER,1,100,1.682629
231432,40415,2,ER,1,100,1.689276
231482,40433,2,ER,1,100,1.682831
231533,40433,2,ER,1,100,1.687262
231583,40451,2,ER,1,100,1.682629
231634,40451,2,ER,1,100,1.688269
231684,40469,2,ER,1,100,1.684039
231735,40469,2,ER,1,100,1.687262
231785,40487,2,ER,1,100,1.682025
231836,40487,2,ER,1,100,1.687866
231886,40506,2,ER,1,100,1.684039
231937,40506,2,ER,1,100,1.686456
231987,40524,2,ER,1,100,1.682831
232038,40524,2,ER,1,100,1.687665
232088,40542,2,ER,1,100,1.684442
232139,40542,2,ER,1,100,1.686456
232189,40560,2,ER,1,100,1.683032
232240,40560,2,ER,1,100,1.686859
232274,40578,3,ER,1,100,1.684845
232308,40578,3,ER,1,100,1.687060
232343,40578,3,ER,1,100,1.690082
232392,40596,2,ER,1,100,1.683032
232442,40596,2,ER,1,100,1.684241
232492,40614,2,ER,1,100,1.684241
232543,40614,2,ER,1,100,1.686255
232593,40632,2,ER,1,100,1.684241
232644,40632,2,ER,1,100,1.686456
232694,40651,2,ER,1,100,1.683838
232745,40651,2,ER,1,100,1.688269
232795,40669,2,ER,1,100,1.684241
232846,40669,2,ER,1,100,1.691290
232896,40687,2,ER,1,100,1.683636
232947,40687,2,ER,1,100,1.687463
232997,40705,2,ER,1,100,1.682831
233048,40705,2,ER,1,100,1.687665
233098,40723,2,ER,1,100,1.682428
233149,40723,2,ER,1,100,1.685852
233199,40741,2,ER,1,100,1.684039
233250,40741,2,ER,1,100,1.687262
233303,40762,3,ER,1,100,1.682831
233356,40762,3,ER,1,100,1.688269
233410,40762,3,ER,1,100,1.684039
233460,40783,2,ER,1,100,1.682629
233510,40783,2,ER,1,100,1.684241
233544,40801,3,ER,1,100,1.690283
233578,40801,3,ER,1,100,1.686255
233612,40801,3,ER,1,100,1.686053
233662,40819,2,ER,1,100,1.686859
233713,40819,2,ER,1,100,1.685651
233763,40837,2,ER,1,100,1.685248
233813,40837,2,ER,1,100,1.688068
233863,40855,2,ER,1,100,1.683838
233914,40855,2,ER,1,100,1.685651
233965,40873,2,ER,1,100,1.685046
234016,40873,2,ER,1,100,1.687665
234066,40891,2,ER,1,100,1.682831
234116,40891,2,ER,1,100,1.686658
234166,40910,2,ER,1,100,1.683032
234217,40910,2,ER,1,100,1.685248
234267,40928,2,ER,1,100,1.683838
234318,40928,2,ER,1,100,1.687262
234369,40946,2,ER,1,100,1.682428
234420,40946,2,ER,1,100,1.688470
234470,40964,2,ER,1,100,1.683435
234520,40964,2,ER,1,100,1.693909
234570,40982,2,ER,1,100,1.682831
234621,40982,2,ER,1,100,1.689276
234671,41000,2,ER,1,100,1.682025
234722,41000,2,ER,1,100,1.686053
234773,41018,2,ER,1,100,1.682629
234825,41018,2,ER,1,100,1.689276
234874,41037,2,ER,1,100,1.683234
234924,41037,2,ER,1,100,1.687262
234974,41055,2,ER,1,100,1.684241
235025,41055,2,ER,1,100,1.688068
235075,41073,2,ER,1,100,1.683032
235126,41073,2,ER,1,100,1.686053
235160,41091,3,ER,1,100,1.684644
235194,41091,3,ER,1,100,1.687463
235228,41091,3,ER,1,100,1.687060
235278,41109,2,ER,1,100,1.683435
235328,41109,2,ER,1,100,1.684845
235378,41127,2,ER,1,100,1.684845
235429,41127,2,ER,1,100,1.688873
235480,41145,2,ER,1,100,1.684241
235531,41145,2,ER,1,100,1.687060
235581,41163,2,ER,1,100,1.681421
235631,41163,2,ER,1,100,1.689075
235681,41182,2,ER,1,100,1.683032
235732,41182,2,ER,1,100,1.686658
235782,41200,2,ER,1,100,1.683435
235833,41200,2,ER,1,100,1.685852
235883,41218,2,ER,1,100,1.684241
235934,41218,2,ER,1,100,1.688068
235984,41236,2,ER,1,100,1.684241
236035,41236,2,ER,1,100,1.688068
236085,41254,2,ER,1,100,1.685651
236136,41254,2,ER,1,100,1.690283
236186,41272,2,ER,1,100,1.685651
236237,41272,2,ER,1,100,1.687262
236288,41290,2,ER,1,100,1.684241
236339,41290,2,ER,1,100,1.688873
236389,41309,2,ER,1,100,1.685248
236439,41309,2,ER,1,100,1.687665
236489,41327,2,ER,1,100,1.685046
236540,41327,2,ER,1,100,1.688873
236590,41345,2,ER,1,100,1.684644
236641,41345,2,ER,1,100,1.688873
236691,41363,2,ER,1,100,1.685449
236742,41363,2,ER,1,100,1.688068
236776,41381,3,ER,1,100,1.684241
236810,41381,3,ER,1,100,1.686053
236844,41381,3,ER,1,100,1.685248
236894,41399,2,ER,1,100,1.685449
236944,41399,2,ER,1,100,1.683636
236994,41417,2,ER,1,100,1.683838
237045,41417,2,ER,1,100,1.687060
237096,41435,2,ER,1,100,1.684644
237147,41435,2,ER,1,100,1.686456
237197,41454,2,ER,1,100,1.684442
237247,41454,2,ER,1,100,1.687665
237297,41472,2,ER,1,100,1.684845
237348,41472,2,ER,1,100,1.689880
237398,41490,2,ER,1,100,1.683435
237449,41490,2,ER,1,100,1.687463
237499,41508,2,ER,1,100,1.684039
237550,41508,2,ER,1,100,1.688269
237600,41526,2,ER,1,100,1.684442
237651,41526,2,ER,1,100,1.688068
237701,41544,2,ER,1,100,1.684845
237752,41544,2,ER,1,100,1.691693
237803,41562,2,ER,1,100,1.685046
237854,41562,2,ER,1,100,1.688068
237904,41581,2,ER,1,100,1.684241
237955,41581,2,ER,1,100,1.691290
238005,41599,2,ER,1,100,1.683435
238055,41599,2,ER,1,100,1.686859
238105,41617,2,ER,1,100,1.685449
238156,41617,2,ER,1,100,1.686456
238206,41635,2,ER,1,100,1.685046
238257,41635,2,ER,1,100,1.689478
238291,41653,3,ER,1,100,1.685248
238325,41653,3,ER,1,100,1.688269
238359,41653,3,ER,1,100,1.685852
238409,41671,2,ER,1,100,1.687665
238459,41671,2,ER,1,100,1.687463
238509,41689,2,ER,1,100,1.686658
238560,41689,2,ER,1,100,1.687866
238610,41708,2,ER,1,100,1.685852
238661,41708,2,ER,1,100,1.689276
238712,41726,2,ER,1,100,1.683838
238763,41726,2,ER,1,100,1.686658
238813,41744,2,ER,1,100,1.683234
238864,41744,2,ER,1,100,1.689679
238914,41762,2,ER,1,100,1.683838
238964,41762,2,ER,1,100,1.689075
239014,41780,2,ER,1,100,1.685449
239065,41780,2,ER,1,100,1.688068
239115,41798,2,ER,1,100,1.686053
239166,41798,2,ER,1,100,1.694311
239216,41816,2,ER,1,100,1.684241
239267,41816,2,ER,1,100,1.687463
239317,41834,2,ER,1,100,1.684241
239368,41834,2,ER,1,100,1.687866
239418,41853,2,ER,1,100,1.684644
239469,41853,2,ER,1,100,1.688068
239520,41871,2,ER,1,100,1.685046
239571,41871,2,ER,1,100,1.689075
239621,41889,2,ER,1,100,1.685046
239671,41889,2,ER,1,100,1.689276
239721,41907,2,ER,1,100,1.685651
239772,41907,2,ER,1,100,1.690485
239806,41925,3,ER,1,100,1.684845
239840,41925,3,ER,1,100,1.687060
239874,41925,3,ER,1,100,1.684845
239924,41943,2,ER,1,100,1.686859
239975,41943,2,ER,1,100,1.686255
240025,41961,2,ER,1,100,1.685651
240075,41961,2,ER,1,100,1.687060
240125,41980,2,ER,1,100,1.685248
240176,41980,2,ER,1,100,1.686053
240227,41998,2,ER,1,100,1.684039
240279,41998,2,ER,1,100,1.688470
240328,42016,2,ER,1,100,1.685449
240378,42016,2,ER,1,100,1.691290
240428,42034,2,ER,1,100,1.682831
240479,42034,2,ER,1,100,1.689276
240529,42052,2,ER,1,100,1.684845
240580,42052,2,ER,1,100,1.686658
240630,42070,2,ER,1,100,1.683838
240681,42070,2,ER,1,100,1.690082
240731,42088,2,ER,1,100,1.683636
240782,42088,2,ER,1,100,1.688470
240832,42107,2,ER,1,100,1.683032
240883,42107,2,ER,1,100,1.687463
240933,42125,2,ER,1,100,1.683838
240984,42125,2,ER,1,100,1.687463
241035,42143,2,ER,1,100,1.682227
241086,42143,2,ER,1,100,1.686456
241136,42161,2,ER,1,100,1.684442
241186,42161,2,ER,1,100,1.690887
241236,42179,2,ER,1,100,1.684241
241287,42179,2,ER,1,100,1.687060
241337,42197,2,ER,1,100,1.683234
241388,42197,2,ER,1,100,1.684442
241422,42215,3,ER,1,100,1.683234
241456,42215,3,ER,1,100,1.685852
241490,42215,3,ER,1,100,1.684241
241540,42233,2,ER,1,100,1.685248
241591,42233,2,ER,1,100,1.683636
241641,42252,2,ER,1,100,1.686053
241691,42252,2,ER,1,100,1.685852
241741,42270,2,ER,1,100,1.686053
241792,42270,2,ER,1,100,1.687665
241842,42288,2,ER,1,100,1.683838
241893,42288,2,ER,1,100,1.686255
241943,42306,2,ER,1,100,1.684039
241994,42306,2,ER,1,100,1.686255
242044,42324,2,ER,1,100,1.684845
242095,42324,2,ER,1,100,1.688873
242145,42342,2,ER,1,100,1.684845
242196,42342,2,ER,1,100,1.688672
242246,42360,2,ER,1,100,1.684845
242297,42360,2,ER,1,100,1.690485
242347,42379,2,ER,1,100,1.684644
242398,42379,2,ER,1,100,1.688873
242448,42397,2,ER,1,100,1.684442
242499,42397,2,ER,1,100,1.689880
242550,42415,2,ER,1,100,1.685651
242602,42415,2,ER,1,100,1.694110
242651,42433,2,ER,1,100,1.684644
242701,42433,2,ER,1,100,1.691895
242751,42451,2,ER,1,100,1.687463
242802,42451,2,ER,1,100,1.691089
242852,42469,2,ER,1,100,1.686456
242903,42469,2,ER,1,100,1.687665
242937,42487,3,ER,1,100,1.686053
242971,42487,3,ER,1,100,1.688672
243005,42487,3,ER,1,100,1.686658
243055,42505,2,ER,1,100,1.687262
243105,42505,2,ER,1,100,1.688672
243155,42524,2,ER,1,100,1.686456
243206,42524,2,ER,1,100,1.689679
243256,42542,2,ER,1,100,1.686658
243307,42542,2,ER,1,100,1.688873
243358,42560,2,ER,1,100,1.685651
243409,42560,2,ER,1,100,1.690082
243459,42578,2,ER,1,100,1.685046
243509,42578,2,ER,1,100,1.691693
243559,42596,2,ER,1,100,1.685046
243610,42596,2,ER,1,100,1.686859
243660,42614,2,ER,1,100,1.683636
243711,42614,2,ER,1,100,1.688672
243761,42632,2,ER,1,100,1.684845
243812,42632,2,ER,1,100,1.690283
243862,42651,2,ER,1,100,1.686053
243913,42651,2,ER,1,100,1.690887
243963,42669,2,ER,1,100,1.686658
244014,42669,2,ER,1,100,1.689679
244064,42687,2,ER,1,100,1.684845
244115,42687,2,ER,1,100,1.688470
