64570,10656,1,H0,1,100,32.013
64664,10674,1,H0,1,100,31.994
64765,10692,1,H0,1,100,31.975
64816,10711,2,H0,1,100,31.956
64868,10711,2,H0,1,100,31.941
64968,10729,1,H0,1,100,31.907
65070,10747,1,H0,1,100,31.880
65169,10765,1,H0,1,100,31.868
65270,10783,1,H0,1,100,31.842
65372,10801,1,H0,1,100,31.823
65473,10819,1,H0,1,100,31.796
65573,10837,1,H0,1,100,31.785
65675,10856,1,H0,1,100,31.746
65777,10874,1,H0,1,100,31.739
65876,10892,1,H0,1,100,31.712
65979,10910,1,H0,1,100,31.697
66079,10928,1,H0,1,100,31.670
66181,10946,1,H0,1,100,31.674
66280,10964,1,H0,1,100,31.636
66381,10983,1,H0,1,100,31.617
66483,11001,1,H0,1,100,31.594
66583,11019,1,H0,1,100,31.571
66686,11037,1,H0,1,100,31.548
66786,11055,1,H0,1,100,31.533
66887,11073,1,H0,1,100,31.510
66987,11091,1,H0,1,100,31.506
67088,11110,1,H0,1,100,31.468
67191,11128,1,H0,1,100,31.445
67291,11146,1,H0,1,100,31.411
67393,11164,1,H0,1,100,31.418
67492,11182,1,H0,1,100,31.380
67595,11200,1,H0,1,100,31.365
67695,11218,1,H0,1,100,31.354
67796,11236,1,H0,1,100,31.342
67896,11255,1,H0,1,100,31.312
67947,11273,2,H0,1,100,31.273
67998,11273,2,H0,1,100,31.262
68100,11291,1,H0,1,100,31.231
68200,11309,1,H0,1,100,31.231
68302,11327,1,H0,1,100,31.197
68401,11345,1,H0,1,100,31.186
68504,11363,1,H0,1,100,31.167
68603,11382,1,H0,1,100,31.140
68705,11400,1,H0,1,100,31.121
68806,11418,1,H0,1,100,31.098
68909,11436,1,H0,1,100,31.086
69007,11454,1,H0,1,100,31.052
69108,11472,1,H0,1,100,31.033
69211,11490,1,H0,1,100,31.018
69310,11509,1,H0,1,100,31.006
69412,11527,1,H0,1,100,30.972
69513,11545,1,H0,1,100,30.949
69614,11563,1,H0,1,100,30.942
69695,11584,2,H0,1,100,30.907
69776,11584,2,H0,1,100,30.888
69872,11604,1,H0,1,100,30.880
69974,11622,1,H0,1,100,30.831
70073,11641,1,H0,1,100,30.827
70174,11659,1,H0,1,100,30.804
70278,11677,1,H0,1,100,30.777
70364,11695,2,H0,1,100,30.766
70450,11695,2,H0,1,100,30.747
70545,11713,1,H0,1,100,30.739
70647,11731,1,H0,1,100,30.709
70746,11749,1,H0,1,100,30.690
70849,11768,1,H0,1,100,30.655
70948,11786,1,H0,1,100,30.652
71049,11804,1,H0,1,100,30.633
71152,11822,1,H0,1,100,30.613
71253,11840,1,H0,1,100,30.579
71353,11858,1,H0,1,100,30.541
71453,11876,1,H0,1,100,30.533
71556,11895,1,H0,1,100,30.514
71655,11913,1,H0,1,100,30.491
71757,11931,1,H0,1,100,30.472
71857,11949,1,H0,1,100,30.453
71958,11967,1,H0,1,100,30.407
72061,11985,1,H0,1,100,30.419
72162,12003,1,H0,1,100,30.385
72263,12021,1,H0,1,100,30.366
72363,12040,1,H0,1,100,30.327
72465,12058,1,H0,1,100,30.320
72565,12076,1,H0,1,100,30.293
72666,12094,1,H0,1,100,30.285
72769,12112,1,H0,1,100,30.240
72869,12130,1,H0,1,100,30.198
72970,12148,1,H0,1,100,30.198
73071,12167,1,H0,1,100,30.179
73171,12185,1,H0,1,100,30.144
73274,12203,1,H0,1,100,30.133
73374,12221,1,H0,1,100,30.133
73474,12239,1,H0,1,100,30.087
73525,12257,2,H0,1,100,30.064
73577,12257,2,H0,1,100,30.041
73678,12275,1,H0,1,100,30.007
73777,12293,1,H0,1,100,29.995
73880,12312,1,H0,1,100,29.957
73980,12330,1,H0,1,100,29.938
74081,12348,1,H0,1,100,29.934
74181,12366,1,H0,1,100,29.900
74283,12384,1,H0,1,100,29.885
74386,12402,1,H0,1,100,29.862
74484,12420,1,H0,1,100,29.828
74587,12439,1,H0,1,100,29.828
74686,12457,1,H0,1,100,29.789
74789,12475,1,H0,1,100,29.759
74889,12493,1,H0,1,100,29.740
74989,12511,1,H0,1,100,29.717
75091,12529,1,H0,1,100,29.694
75191,12547,1,H0,1,100,29.675
75293,12566,1,H0,1,100,29.656
75395,12584,1,H0,1,100,29.637
75496,12602,1,H0,1,100,29.618
75595,12620,1,H0,1,100,29.591
75697,12638,1,H0,1,100,29.561
75797,12656,1,H0,1,100,29.519
75898,12674,1,H0,1,100,29.500
76000,12692,1,H0,1,100,29.458
76101,12711,1,H0,1,100,29.400
76202,12729,1,H0,1,100,29.400
76303,12747,1,H0,1,100,29.358
76404,12765,1,H0,1,100,29.328
76504,12783,1,H0,1,100,29.297
76555,12801,2,H0,1,100,29.252
76606,12801,2,H0,1,100,29.255
76708,12819,1,H0,1,100,29.210
76809,12838,1,H0,1,100,29.175
76908,12857,1,H0,1,100,29.145
77010,12875,1,H0,1,100,29.286
77111,12893,1,H0,1,100,29.553
77211,12911,1,H0,1,100,29.797
77313,12929,1,H0,1,100,30.057
77413,12947,1,H0,1,100,30.266
77514,12966,1,H0,1,100,30.461
77617,12984,1,H0,1,100,30.621
77718,13002,1,H0,1,100,30.766
77819,13020,1,H0,1,100,30.915
77919,13038,1,H0,1,100,31.056
78020,13056,1,H0,1,100,31.197
78120,13074,1,H0,1,100,31.350
78222,13092,1,H0,1,100,31.449
78324,13111,1,H0,1,100,31.334
78425,13129,1,H0,1,100,30.823
78525,13147,1,H0,1,100,30.068
78626,13165,1,H0,1,100,29.473
78726,13183,1,H0,1,100,29.072
78827,13201,1,H0,1,100,28.805
78930,13219,1,H0,1,100,28.595
79029,13238,1,H0,1,100,28.428
79132,13256,1,H0,1,100,28.302
79232,13274,1,H0,1,100,28.210
79333,13292,1,H0,1,100,28.122
79435,13310,1,H0,1,100,28.031
79535,13328,1,H0,1,100,27.981
79636,13346,1,H0,1,100,27.905
79736,13364,1,H0,1,100,27.833
79837,13383,1,H0,1,100,27.783
79888,13401,2,H0,1,100,27.714
79940,13401,2,H0,1,100,27.680
80040,13419,1,H0,1,100,27.638
80140,13437,1,H0,1,100,27.569
80243,13455,1,H0,1,100,27.531
80342,13473,1,H0,1,100,27.493
80443,13491,1,H0,1,100,27.463
80546,13510,1,H0,1,100,27.409
80708,13531,1,H0,1,100,27.375
80806,13551,1,H0,1,100,27.295
80905,13569,1,H0,1,100,27.264
80955,13587,2,H0,1,100,27.211
81006,13587,2,H0,1,100,27.169
81109,13605,1,H0,1,100,27.115
81210,13623,1,H0,1,100,27.062
81309,13642,1,H0,1,100,27.016
81410,13660,1,H0,1,100,26.970
81512,13678,1,H0,1,100,26.925
81613,13696,1,H0,1,100,26.887
81714,13714,1,H0,1,100,26.841
81814,13732,1,H0,1,100,26.818
81915,13750,1,H0,1,100,26.761
82019,13769,1,H0,1,100,26.726
82119,13787,1,H0,1,100,26.684
82220,13805,1,H0,1,100,26.650
82320,13823,1,H0,1,100,26.604
82421,13841,1,H0,1,100,26.570
82521,13859,1,H0,1,100,26.505
82622,13877,1,H0,1,100,26.475
82725,13895,1,H0,1,100,26.406
82825,13914,1,H0,1,100,26.383
82926,13932,1,H0,1,100,26.326
83026,13950,1,H0,1,100,26.276
83129,13968,1,H0,1,100,26.242
83228,13986,1,H0,1,100,26.196
83331,14004,1,H0,1,100,26.146
83430,14022,1,H0,1,100,26.097
83534,14041,1,H0,1,100,26.051
83634,14059,1,H0,1,100,25.994
83733,14077,1,H0,1,100,25.952
83836,14095,1,H0,1,100,25.914
83935,14113,1,H0,1,100,25.857
84038,14131,1,H0,1,100,25.807
84138,14149,1,H0,1,100,25.776
84189,14168,2,H0,1,100,25.708
84240,14168,2,H0,1,100,25.658
84342,14186,1,H0,1,100,25.628
84441,14204,1,H0,1,100,25.593
84543,14222,1,H0,1,100,25.528
84644,14240,1,H0,1,100,25.487
84746,14258,1,H0,1,100,25.433
84845,14276,1,H0,1,100,25.403
84946,14294,1,H0,1,100,25.349
85050,14313,1,H0,1,100,25.303
85150,14331,1,H0,1,100,25.250
85249,14349,1,H0,1,100,25.197
85351,14367,1,H0,1,100,25.166
85452,14385,1,H0,1,100,25.124
85552,14403,1,H0,1,100,25.075
85655,14421,1,H0,1,100,25.013
85755,14440,1,H0,1,100,24.968
85857,14458,1,H0,1,100,24.926
85958,14476,1,H0,1,100,24.857
86058,14494,1,H0,1,100,24.830
86161,14512,1,H0,1,100,24.773
86261,14530,1,H0,1,100,24.739
86362,14548,1,H0,1,100,24.678
86462,14567,1,H0,1,100,24.651
86564,14585,1,H0,1,100,24.598
86666,14603,1,H0,1,100,24.552
86767,14621,1,H0,1,100,24.506
86866,14639,1,H0,1,100,24.472
86967,14657,1,H0,1,100,24.434
87070,14675,1,H0,1,100,24.357
87169,14693,1,H0,1,100,24.323
87220,14712,2,H0,1,100,24.281
87272,14712,2,H0,1,100,24.239
87372,14730,1,H0,1,100,24.190
87474,14748,1,H0,1,100,24.159
87573,14766,1,H0,1,100,24.094
87675,14784,1,H0,1,100,24.064
87776,14802,1,H0,1,100,24.014
87876,14820,1,H0,1,100,23.987
87978,14839,1,H0,1,100,24.006
88080,14857,1,H0,1,100,24.018
88180,14875,1,H0,1,100,23.819
88281,14893,1,H0,1,100,23.789
88383,14911,1,H0,1,100,23.762
88482,14929,1,H0,1,100,23.739
88585,14947,1,H0,1,100,23.697
88684,14965,1,H0,1,100,23.671
88785,14984,1,H0,1,100,23.659
88888,15002,1,H0,1,100,23.701
88989,15020,1,H0,1,100,23.526
89090,15038,1,H0,1,100,23.499
89190,15056,1,H0,1,100,23.457
89292,15074,1,H0,1,100,23.427
89392,15092,1,H0,1,100,23.392
89492,15111,1,H0,1,100,23.385
89594,15129,1,H0,1,100,23.457
89695,15147,1,H0,1,100,23.266
89796,15165,1,H0,1,100,23.221
89898,15183,1,H0,1,100,23.190
89997,15201,1,H0,1,100,23.163
90100,15219,1,H0,1,100,23.118
90200,15238,1,H0,1,100,23.114
90300,15256,1,H0,1,100,23.064
90351,15274,2,H0,1,100,23.007
90402,15274,2,H0,1,100,22.984
90504,15292,1,H0,1,100,22.931
90603,15310,1,H0,1,100,22.896
90706,15328,1,H0,1,100,22.828
90806,15346,1,H0,1,100,22.793
90907,15364,1,H0,1,100,22.759
91007,15383,1,H0,1,100,22.721
91108,15401,1,H0,1,100,22.667
91212,15419,1,H0,1,100,22.629
91310,15437,1,H0,1,100,22.587
91413,15455,1,H0,1,100,22.553
91504,15476,2,H0,1,100,22.515
91596,15476,2,H0,1,100,22.469
91692,15497,1,H0,1,100,22.427
91794,15515,1,H0,1,100,22.389
91894,15533,1,H0,1,100,22.355
91995,15551,1,H0,1,100,22.320
92098,15569,1,H0,1,100,22.271
92199,15587,1,H0,1,100,22.233
92300,15605,1,H0,1,100,22.187
92400,15623,1,H0,1,100,22.172
92501,15642,1,H0,1,100,22.137
92601,15660,1,H0,1,100,22.099
92703,15678,1,H0,1,100,22.076
92805,15696,1,H0,1,100,22.023
92905,15714,1,H0,1,100,21.992
93006,15732,1,H0,1,100,21.969
93107,15750,1,H0,1,100,21.935
93207,15769,1,H0,1,100,21.924
93309,15787,1,H0,1,100,21.882
93411,15805,1,H0,1,100,21.843
93510,15823,1,H0,1,100,21.817
93613,15841,1,H0,1,100,21.786
93712,15859,1,H0,1,100,21.760
93815,15877,1,H0,1,100,21.740
93915,15895,1,H0,1,100,21.706
94015,15914,1,H0,1,100,21.676
94066,15932,2,H0,1,100,21.630
94118,15932,2,H0,1,100,21.607
94218,15950,1,H0,1,100,21.584
94319,15968,1,H0,1,100,21.550
94421,15986,1,H0,1,100,21.512
94522,16004,1,H0,1,100,21.470
94622,16022,1,H0,1,100,21.466
94724,16041,1,H0,1,100,21.443
94823,16059,1,H0,1,100,21.405
94924,16077,1,H0,1,100,21.401
95027,16095,1,H0,1,100,21.374
95128,16113,1,H0,1,100,21.336
95229,16131,1,H0,1,100,21.309
95329,16149,1,H0,1,100,21.275
95431,16168,1,H0,1,100,21.248
95530,16186,1,H0,1,100,21.210
95631,16204,1,H0,1,100,21.184
95734,16222,1,H0,1,100,21.142
95835,16240,1,H0,1,100,21.107
95935,16258,1,H0,1,100,21.077
96035,16276,1,H0,1,100,21.050
96137,16294,1,H0,1,100,21.012
96238,16313,1,H0,1,100,20.981
96326,16331,2,H0,1,100,20.958
96414,16331,2,H0,1,100,20.936
96509,16349,1,H0,1,100,20.871
96611,16367,1,H0,1,100,20.867
96710,16385,1,H0,1,100,20.821
96812,16403,1,H0,1,100,20.794
96914,16422,1,H0,1,100,20.745
97014,16440,1,H0,1,100,20.726
97115,16458,1,H0,1,100,20.688
97217,16476,1,H0,1,100,20.669
97317,16494,1,H0,1,100,20.604
97417,16512,1,H0,1,100,20.581
97519,16530,1,H0,1,100,20.554
97619,16548,1,H0,1,100,20.508
97722,16567,1,H0,1,100,20.497
97822,16585,1,H0,1,100,20.455
97924,16603,1,H0,1,100,20.413
98024,16621,1,H0,1,100,20.382
98124,16639,1,H0,1,100,20.371
98175,16657,2,H0,1,100,20.321
98227,16657,2,H0,1,100,20.287
98327,16675,1,H0,1,100,20.257
98429,16694,1,H0,1,100,20.241
98528,16712,1,H0,1,100,20.215
98629,16730,1,H0,1,100,20.169
98732,16748,1,H0,1,100,20.138
98833,16766,1,H0,1,100,20.112
98932,16784,1,H0,1,100,20.066
99033,16802,1,H0,1,100,20.051
99135,16820,1,H0,1,100,20.024
99238,16839,1,H0,1,100,19.990
99338,16857,1,H0,1,100,19.959
99438,16875,1,H0,1,100,19.948
99538,16893,1,H0,1,100,19.898
99641,16911,1,H0,1,100,19.883
99740,16929,1,H0,1,100,19.845
99843,16947,1,H0,1,100,19.818
99943,16966,1,H0,1,100,19.784
100044,16984,1,H0,1,100,19.753
100145,17002,1,H0,1,100,19.734
100246,17020,1,H0,1,100,19.707
100348,17038,1,H0,1,100,19.677
100448,17056,1,H0,1,100,19.658
100549,17074,1,H0,1,100,19.631
100649,17093,1,H0,1,100,19.593
100752,17111,1,H0,1,100,19.558
100854,17129,1,H0,1,100,19.539
100953,17147,1,H0,1,100,19.494
101053,17165,1,H0,1,100,19.467
101156,17183,1,H0,1,100,19.433
101257,17201,1,H0,1,100,19.383
101357,17219,1,H0,1,100,19.349
101458,17238,1,H0,1,100,19.311
101508,17256,2,H0,1,100,19.288
101559,17256,2,H0,1,100,19.230
101661,17274,1,H0,1,100,19.219
101760,17292,1,H0,1,100,19.192
101861,17310,1,H0,1,100,19.124
101964,17328,1,H0,1,100,19.097
102063,17346,1,H0,1,100,19.070
102165,17365,1,H0,1,100,19.032
102267,17383,1,H0,1,100,18.998
102368,17401,1,H0,1,100,18.982
102451,17422,2,H0,1,100,19.043
102534,17422,2,H0,1,100,18.952
102632,17442,1,H0,1,100,18.826
102732,17460,1,H0,1,100,18.818
102834,17478,1,H0,1,100,18.796
102933,17497,1,H0,1,100,18.750
103034,17515,1,H0,1,100,18.734
103137,17533,1,H0,1,100,18.715
103236,17551,1,H0,1,100,18.799
103339,17569,1,H0,1,100,18.803
103438,17587,1,H0,1,100,18.586
103541,17605,1,H0,1,100,18.574
103642,17624,1,H0,1,100,18.567
103744,17642,1,H0,1,100,18.536
103843,17660,1,H0,1,100,18.509
103944,17678,1,H0,1,100,18.555
104046,17696,1,H0,1,100,18.666
104145,17714,1,H0,1,100,18.448
104248,17732,1,H0,1,100,18.410
104348,17750,1,H0,1,100,18.387
104449,17769,1,H0,1,100,18.364
104549,17787,1,H0,1,100,18.330
104652,17805,1,H0,1,100,18.300
104753,17823,1,H0,1,100,18.296
104852,17841,1,H0,1,100,18.277
104954,17859,1,H0,1,100,18.239
105055,17877,1,H0,1,100,18.208
105158,17896,1,H0,1,100,18.185
105257,17914,1,H0,1,100,18.174
105358,17932,1,H0,1,100,18.147
105460,17950,1,H0,1,100,18.097
105561,17968,1,H0,1,100,18.067
105660,17986,1,H0,1,100,18.044
105761,18004,1,H0,1,100,18.014
105812,18023,2,H0,1,100,17.968
105864,18023,2,H0,1,100,17.945
105964,18041,1,H0,1,100,17.914
106066,18059,1,H0,1,100,17.888
106166,18077,1,H0,1,100,17.872
106267,18095,1,H0,1,100,17.842
106369,18113,1,H0,1,100,17.804
106469,18131,1,H0,1,100,17.788
106571,18149,1,H0,1,100,17.743
106670,18168,1,H0,1,100,17.743
106772,18186,1,H0,1,100,17.720
106874,18204,1,H0,1,100,17.689
106974,18222,1,H0,1,100,17.666
107076,18240,1,H0,1,100,17.643
107176,18258,1,H0,1,100,17.617
107277,18276,1,H0,1,100,17.598
107377,18295,1,H0,1,100,17.567
107478,18313,1,H0,1,100,17.540
107581,18331,1,H0,1,100,17.521
107682,18349,1,H0,1,100,17.502
107782,18367,1,H0,1,100,17.491
107883,18385,1,H0,1,100,17.472
107983,18403,1,H0,1,100,17.430
108084,18421,1,H0,1,100,17.422
108187,18440,1,H0,1,100,17.403
108286,18458,1,H0,1,100,17.361
108389,18476,1,H0,1,100,17.342
108489,18494,1,H0,1,100,17.312
108590,18512,1,H0,1,100,17.296
108692,18530,1,H0,1,100,17.273
108792,18548,1,H0,1,100,17.247
108894,18567,1,H0,1,100,17.224
108993,18585,1,H0,1,100,17.205
109044,18603,2,H0,1,100,17.174
109095,18603,2,H0,1,100,17.148
109197,18621,1,H0,1,100,17.129
109297,18639,1,H0,1,100,17.117
109398,18657,1,H0,1,100,17.106
109500,18675,1,H0,1,100,17.067
109600,18694,1,H0,1,100,17.045
109700,18712,1,H0,1,100,17.018
109803,18730,1,H0,1,100,16.999
109903,18748,1,H0,1,100,17.003
110006,18766,1,H0,1,100,16.957
110105,18784,1,H0,1,100,16.953
110207,18802,1,H0,1,100,16.919
110307,18820,1,H0,1,100,16.907
110407,18839,1,H0,1,100,16.865
110510,18857,1,H0,1,100,16.858
110610,18875,1,H0,1,100,16.831
110712,18893,1,H0,1,100,16.808
110811,18911,1,H0,1,100,16.812
110914,18929,1,H0,1,100,16.774
111014,18947,1,H0,1,100,16.758
111116,18966,1,H0,1,100,16.755
111216,18984,1,H0,1,100,16.724
111316,19002,1,H0,1,100,16.701
111418,19020,1,H0,1,100,16.686
111520,19038,1,H0,1,100,16.652
111621,19056,1,H0,1,100,16.655
111721,19074,1,H0,1,100,16.625
111822,19092,1,H0,1,100,16.614
111922,19111,1,H0,1,100,16.583
112023,19129,1,H0,1,100,16.564
112074,19147,2,H0,1,100,16.541
112126,19147,2,H0,1,100,16.537
112227,19165,1,H0,1,100,16.514
112327,19183,1,H0,1,100,16.476
112428,19201,1,H0,1,100,16.472
112530,19219,1,H0,1,100,16.453
112629,19238,1,H0,1,100,16.453
112731,19256,1,H0,1,100,16.408
112832,19274,1,H0,1,100,16.385
112933,19292,1,H0,1,100,16.366
113035,19310,1,H0,1,100,16.358
113134,19328,1,H0,1,100,16.350
113237,19346,1,H0,1,100,16.324
113330,19368,2,H0,1,100,16.320
113423,19368,2,H0,1,100,16.285
113520,19388,1,H0,1,100,16.266
113621,19406,1,H0,1,100,16.240
113722,19424,1,H0,1,100,16.221
113824,19442,1,H0,1,100,16.198
113924,19460,1,H0,1,100,16.198
114025,19478,1,H0,1,100,16.156
114125,19497,1,H0,1,100,16.156
114227,19515,1,H0,1,100,16.121
114329,19533,1,H0,1,100,16.114
114428,19551,1,H0,1,100,16.099
114531,19569,1,H0,1,100,16.064
114631,19587,1,H0,1,100,16.060
114733,19605,1,H0,1,100,16.041
114832,19624,1,H0,1,100,16.018
114933,19642,1,H0,1,100,16.018
115035,19660,1,H0,1,100,15.992
115137,19678,1,H0,1,100,15.976
115237,19696,1,H0,1,100,15.957
115338,19714,1,H0,1,100,15.942
115440,19732,1,H0,1,100,15.919
115540,19750,1,H0,1,100,15.900
115641,19769,1,H0,1,100,15.881
115741,19787,1,H0,1,100,15.877
115792,19805,2,H0,1,100,15.851
115843,19805,2,H0,1,100,15.832
115945,19823,1,H0,1,100,15.812
116044,19841,1,H0,1,100,15.801
116147,19859,1,H0,1,100,15.786
116247,19877,1,H0,1,100,15.770
116349,19896,1,H0,1,100,15.740
116448,19914,1,H0,1,100,15.740
116550,19932,1,H0,1,100,15.729
116652,19950,1,H0,1,100,15.698
116753,19968,1,H0,1,100,15.687
116853,19986,1,H0,1,100,15.683
116955,20004,1,H0,1,100,15.652
117054,20023,1,H0,1,100,15.641
117155,20041,1,H0,1,100,15.629
117259,20059,1,H0,1,100,15.614
117358,20077,1,H0,1,100,15.580
117460,20095,1,H0,1,100,15.584
117559,20113,1,H0,1,100,15.542
117660,20131,1,H0,1,100,15.538
117763,20149,1,H0,1,100,15.515
117863,20168,1,H0,1,100,15.507
117964,20186,1,H0,1,100,15.500
118064,20204,1,H0,1,100,15.488
118166,20222,1,H0,1,100,15.473
118268,20240,1,H0,1,100,15.458
118370,20258,1,H0,1,100,15.427
118469,20276,1,H0,1,100,15.431
118570,20295,1,H0,1,100,15.408
118672,20313,1,H0,1,100,15.389
118771,20331,1,H0,1,100,15.370
118822,20349,2,H0,1,100,15.347
118874,20349,2,H0,1,100,15.336
118974,20367,1,H0,1,100,15.313
119075,20385,1,H0,1,100,15.317
119176,20403,1,H0,1,100,15.297
119278,20421,1,H0,1,100,15.286
119378,20440,1,H0,1,100,15.259
119478,20458,1,H0,1,100,15.244
119580,20476,1,H0,1,100,15.236
119681,20494,1,H0,1,100,15.217
119784,20512,1,H0,1,100,15.210
119883,20530,1,H0,1,100,15.191
119985,20548,1,H0,1,100,15.168
120085,20567,1,H0,1,100,15.172
120187,20585,1,H0,1,100,15.145
120287,20603,1,H0,1,100,15.126
120387,20621,1,H0,1,100,15.118
120490,20639,1,H0,1,100,15.095
120590,20657,1,H0,1,100,15.065
120691,20675,1,H0,1,100,15.065
120792,20694,1,H0,1,100,15.057
120894,20712,1,H0,1,100,15.034
120995,20730,1,H0,1,100,15.015
121094,20748,1,H0,1,100,15.004
121196,20766,1,H0,1,100,14.981
121297,20784,1,H0,1,100,14.981
121399,20802,1,H0,1,100,14.966
121499,20820,1,H0,1,100,14.950
121600,20839,1,H0,1,100,14.943
121702,20857,1,H0,1,100,14.924
121802,20875,1,H0,1,100,14.924
121902,20893,1,H0,1,100,14.889
121953,20911,2,H0,1,100,14.859
122005,20911,2,H0,1,100,14.855
122168,20929,1,H0,1,100,14.851
122264,20948,1,H0,1,100,14.824
122367,20966,1,H0,1,100,14.821
122466,20984,1,H0,1,100,14.817
122569,21002,1,H0,1,100,14.790
122670,21020,1,H0,1,100,14.782
122770,21038,1,H0,1,100,14.756
122872,21056,1,H0,1,100,14.744
122971,21074,1,H0,1,100,14.733
123074,21093,1,H0,1,100,14.721
123173,21111,1,H0,1,100,14.710
123274,21129,1,H0,1,100,14.687
123376,21147,1,H0,1,100,14.672
123426,21165,2,H0,1,100,14.641
123476,21165,2,H0,1,100,14.641
123579,21183,1,H0,1,100,14.622
123678,21201,1,H0,1,100,14.618
123781,21220,1,H0,1,100,14.603
123881,21238,1,H0,1,100,14.599
123982,21256,1,H0,1,100,14.576
124083,21274,1,H0,1,100,14.569
124185,21292,1,H0,1,100,14.546
124348,21313,1,H0,1,100,14.523
124444,21333,1,H0,1,100,14.519
124495,21352,2,H0,1,100,14.512
124547,21352,2,H0,1,100,14.489
124648,21370,1,H0,1,100,14.481
124748,21388,1,H0,1,100,14.470
124848,21406,1,H0,1,100,14.443
124950,21424,1,H0,1,100,14.428
125051,21442,1,H0,1,100,14.432
125153,21460,1,H0,1,100,14.405
125252,21478,1,H0,1,100,14.382
125353,21497,1,H0,1,100,14.378
125457,21515,1,H0,1,100,14.359
125556,21533,1,H0,1,100,14.344
125658,21551,1,H0,1,100,14.329
125758,21569,1,H0,1,100,14.317
125858,21587,1,H0,1,100,14.306
125961,21605,1,H0,1,100,14.290
126060,21624,1,H0,1,100,14.267
126163,21642,1,H0,1,100,14.245
126264,21660,1,H0,1,100,14.226
126364,21678,1,H0,1,100,14.210
126464,21696,1,H0,1,100,14.176
126567,21714,1,H0,1,100,14.149
126666,21732,1,H0,1,100,14.077
126768,21751,1,H0,1,100,14.073
126868,21769,1,H0,1,100,14.142
126972,21787,1,H0,1,100,14.256
127071,21805,1,H0,1,100,14.351
127171,21823,1,H0,1,100,14.447
127274,21841,1,H0,1,100,14.489
127373,21859,1,H0,1,100,14.542
127475,21877,1,H0,1,100,14.580
127575,21896,1,H0,1,100,14.615
127676,21914,1,H0,1,100,14.653
127727,21932,2,H0,1,100,14.660
127779,21932,2,H0,1,100,14.676
127880,21950,1,H0,1,100,14.695
127980,21968,1,H0,1,100,14.706
128080,21986,1,H0,1,100,14.718
128183,22004,1,H0,1,100,14.725
128282,22023,1,H0,1,100,14.729
128384,22041,1,H0,1,100,14.744
128485,22059,1,H0,1,100,14.760
128586,22077,1,H0,1,100,14.737
128688,22095,1,H0,1,100,14.763
128787,22113,1,H0,1,100,14.763
128889,22131,1,H0,1,100,14.763
128990,22150,1,H0,1,100,14.782
129091,22168,1,H0,1,100,14.775
129191,22186,1,H0,1,100,14.771
129293,22204,1,H0,1,100,14.763
129394,22222,1,H0,1,100,14.782
129495,22240,1,H0,1,100,14.782
129597,22258,1,H0,1,100,14.763
129698,22276,1,H0,1,100,14.771
129798,22295,1,H0,1,100,14.752
129898,22313,1,H0,1,100,14.760
130001,22331,1,H0,1,100,14.763
130101,22349,1,H0,1,100,14.763
130202,22367,1,H0,1,100,14.763
130304,22385,1,H0,1,100,14.763
130403,22403,1,H0,1,100,14.760
130506,22422,1,H0,1,100,14.782
130605,22440,1,H0,1,100,14.775
130707,22458,1,H0,1,100,14.752
130757,22476,2,H0,1,100,14.756
130808,22476,2,H0,1,100,14.760
130910,22494,1,H0,1,100,14.741
131010,22512,1,H0,1,100,14.752
131110,22530,1,H0,1,100,14.752
131213,22548,1,H0,1,100,14.737
131312,22567,1,H0,1,100,14.741
131414,22585,1,H0,1,100,14.744
131516,22603,1,H0,1,100,14.733
131616,22621,1,H0,1,100,14.729
131717,22639,1,H0,1,100,14.721
131819,22657,1,H0,1,100,14.718
131918,22675,1,H0,1,100,14.721
132021,22694,1,H0,1,100,14.714
132121,22712,1,H0,1,100,14.710
132221,22730,1,H0,1,100,14.702
132324,22748,1,H0,1,100,14.706
132424,22766,1,H0,1,100,14.683
132525,22784,1,H0,1,100,14.691
132626,22802,1,H0,1,100,14.691
132726,22821,1,H0,1,100,14.676
132828,22839,1,H0,1,100,14.691
132929,22857,1,H0,1,100,14.664
133030,22875,1,H0,1,100,14.683
133130,22893,1,H0,1,100,14.668
133231,22911,1,H0,1,100,14.649
133334,22929,1,H0,1,100,14.653
133435,22947,1,H0,1,100,14.653
133535,22966,1,H0,1,100,14.649
133637,22984,1,H0,1,100,14.630
133736,23002,1,H0,1,100,14.638
133837,23020,1,H0,1,100,14.634
133888,23038,2,H0,1,100,14.618
133940,23038,2,H0,1,100,14.611
134040,23056,1,H0,1,100,14.603
134142,23074,1,H0,1,100,14.599
134241,23093,1,H0,1,100,14.580
134342,23111,1,H0,1,100,14.599
134445,23129,1,H0,1,100,14.573
134544,23147,1,H0,1,100,14.584
134646,23165,1,H0,1,100,14.554
134746,23183,1,H0,1,100,14.554
134849,23201,1,H0,1,100,14.546
134950,23219,1,H0,1,100,14.557
135052,23238,1,H0,1,100,14.546
135144,23259,2,H0,1,100,14.538
135237,23259,2,H0,1,100,14.527
135331,23278,1,H0,1,100,14.531
135434,23296,1,H0,1,100,14.515
135536,23314,1,H0,1,100,14.515
135637,23332,1,H0,1,100,14.504
135737,23351,1,H0,1,100,14.493
135839,23369,1,H0,1,100,14.500
135938,23387,1,H0,1,100,14.493
136039,23405,1,H0,1,100,14.470
136142,23423,1,H0,1,100,14.458
136242,23441,1,H0,1,100,14.462
136343,23459,1,H0,1,100,14.462
136444,23477,1,H0,1,100,14.447
136544,23496,1,H0,1,100,14.451
136646,23514,1,H0,1,100,14.447
136746,23532,1,H0,1,100,14.447
136849,23550,1,H0,1,100,14.424
136948,23568,1,H0,1,100,14.416
137052,23586,1,H0,1,100,14.412
137151,23604,1,H0,1,100,14.397
137251,23623,1,H0,1,100,14.405
137354,23641,1,H0,1,100,14.393
137454,23659,1,H0,1,100,14.378
137554,23677,1,H0,1,100,14.370
137655,23695,1,H0,1,100,14.370
137706,23713,2,H0,1,100,14.363
137758,23713,2,H0,1,100,14.348
137858,23731,1,H0,1,100,14.336
137959,23750,1,H0,1,100,14.332
138059,23768,1,H0,1,100,14.329
138162,23786,1,H0,1,100,14.313
138261,23804,1,H0,1,100,14.309
138362,23822,1,H0,1,100,14.306
138465,23840,1,H0,1,100,14.298
138565,23858,1,H0,1,100,14.283
138667,23876,1,H0,1,100,14.306
138767,23895,1,H0,1,100,14.294
138869,23913,1,H0,1,100,14.267
138968,23931,1,H0,1,100,14.264
139069,23949,1,H0,1,100,14.260
139172,23967,1,H0,1,100,14.248
139273,23985,1,H0,1,100,14.245
139373,24003,1,H0,1,100,14.233
139473,24022,1,H0,1,100,14.222
139575,24040,1,H0,1,100,14.218
139676,24058,1,H0,1,100,14.203
139777,24076,1,H0,1,100,14.195
139877,24094,1,H0,1,100,14.191
139978,24112,1,H0,1,100,14.191
140081,24130,1,H0,1,100,14.191
140181,24149,1,H0,1,100,14.172
140283,24167,1,H0,1,100,14.161
140382,24185,1,H0,1,100,14.168
140483,24203,1,H0,1,100,14.149
140585,24221,1,H0,1,100,14.145
140685,24239,1,H0,1,100,14.142
140736,24257,2,H0,1,100,14.107
140788,24257,2,H0,1,100,14.126
140889,24275,1,H0,1,100,14.100
140989,24294,1,H0,1,100,14.096
141090,24312,1,H0,1,100,14.100
141193,24330,1,H0,1,100,14.077
141292,24348,1,H0,1,100,14.077
141396,24366,1,H0,1,100,14.077
141494,24384,1,H0,1,100,14.065
141598,24402,1,H0,1,100,14.054
141697,24421,1,H0,1,100,14.054
141797,24439,1,H0,1,100,14.039
141900,24457,1,H0,1,100,14.035
141999,24475,1,H0,1,100,14.016
142101,24493,1,H0,1,100,14.020
142201,24511,1,H0,1,100,13.985
142302,24529,1,H0,1,100,13.997
142405,24547,1,H0,1,100,13.989
142506,24566,1,H0,1,100,13.970
142606,24584,1,H0,1,100,13.966
142707,24602,1,H0,1,100,13.962
142809,24620,1,H0,1,100,13.958
142908,24638,1,H0,1,100,13.943
143010,24656,1,H0,1,100,13.932
143111,24674,1,H0,1,100,13.936
143213,24693,1,H0,1,100,13.920
143313,24711,1,H0,1,100,13.917
143414,24729,1,H0,1,100,13.909
143515,24747,1,H0,1,100,13.905
143615,24765,1,H0,1,100,13.894
143666,24783,2,H0,1,100,13.886
143718,24783,2,H0,1,100,13.875
143818,24801,1,H0,1,100,13.875
143920,24820,1,H0,1,100,13.855
144019,24838,1,H0,1,100,13.844
144121,24856,1,H0,1,100,13.848
144222,24874,1,H0,1,100,13.840
144323,24892,1,H0,1,100,13.833
144423,24910,1,H0,1,100,13.833
144524,24928,1,H0,1,100,13.821
144628,24946,1,H0,1,100,13.814
144727,24965,1,H0,1,100,13.791
144829,24983,1,H0,1,100,13.791
144928,25001,1,H0,1,100,13.775
145029,25019,1,H0,1,100,13.783
145132,25037,1,H0,1,100,13.772
145231,25055,1,H0,1,100,13.753
145333,25073,1,H0,1,100,13.749
145434,25092,1,H0,1,100,13.753
145536,25110,1,H0,1,100,13.733
145636,25128,1,H0,1,100,13.714
145737,25146,1,H0,1,100,13.714
145839,25164,1,H0,1,100,13.699
145939,25182,1,H0,1,100,13.699
146221,25222,1,H0,1,100,13.653
146321,25242,1,H0,1,100,13.665
146424,25260,1,H0,1,100,13.638
146524,25278,1,H0,1,100,13.630
146625,25296,1,H0,1,100,13.646
146725,25314,1,H0,1,100,13.615
146827,25332,1,H0,1,100,13.615
146929,25351,1,H0,1,100,13.611
147029,25369,1,H0,1,100,13.600
147131,25387,1,H0,1,100,13.608
147230,25405,1,H0,1,100,13.588
147333,25423,1,H0,1,100,13.581
147433,25441,1,H0,1,100,13.558
147534,25459,1,H0,1,100,13.550
147584,25478,2,H0,1,100,13.554
147635,25478,2,H0,1,100,13.527
147737,25496,1,H0,1,100,13.516
147837,25514,1,H0,1,100,13.524
148013,25532,1,H0,1,100,13.524
148108,25550,1,H0,1,100,13.505
148209,25568,1,H0,1,100,13.501
148309,25586,1,H0,1,100,13.489
148411,25605,1,H0,1,100,13.463
148511,25623,1,H0,1,100,13.470
148562,25641,2,H0,1,100,13.455
148613,25641,2,H0,1,100,13.447
148715,25659,1,H0,1,100,13.432
148814,25677,1,H0,1,100,13.444
148917,25695,1,H0,1,100,13.444
149017,25713,1,H0,1,100,13.421
149118,25731,1,H0,1,100,13.421
149218,25750,1,H0,1,100,13.413
149319,25768,1,H0,1,100,13.402
149423,25786,1,H0,1,100,13.371
149522,25804,1,H0,1,100,13.379
149624,25822,1,H0,1,100,13.371
149723,25840,1,H0,1,100,13.356
149826,25858,1,H0,1,100,13.352
149925,25877,1,H0,1,100,13.356
150027,25895,1,H0,1,100,13.341
150128,25913,1,H0,1,100,13.310
150228,25931,1,H0,1,100,13.306
150330,25949,1,H0,1,100,13.299
150431,25967,1,H0,1,100,13.310
150533,25985,1,H0,1,100,13.279
150633,26004,1,H0,1,100,13.276
150734,26022,1,H0,1,100,13.268
150834,26040,1,H0,1,100,13.268
150935,26058,1,H0,1,100,13.241
151037,26076,1,H0,1,100,13.249
151139,26094,1,H0,1,100,13.238
151238,26112,1,H0,1,100,13.222
151340,26130,1,H0,1,100,13.215
151442,26149,1,H0,1,100,13.203
151542,26167,1,H0,1,100,13.207
151643,26185,1,H0,1,100,13.196
151693,26203,2,H0,1,100,13.192
151744,26203,2,H0,1,100,13.180
151846,26221,1,H0,1,100,13.150
151946,26239,1,H0,1,100,13.157
152046,26257,1,H0,1,100,13.138
152149,26276,1,H0,1,100,13.131
152249,26294,1,H0,1,100,13.119
152351,26312,1,H0,1,100,13.108
152450,26330,1,H0,1,100,13.096
152552,26348,1,H0,1,100,13.089
152653,26366,1,H0,1,100,13.081
152754,26384,1,H0,1,100,13.070
152856,26402,1,H0,1,100,13.073
152957,26421,1,H0,1,100,13.062
153056,26439,1,H0,1,100,13.062
153157,26457,1,H0,1,100,13.028
153260,26475,1,H0,1,100,13.024
153360,26493,1,H0,1,100,13.012
153461,26511,1,H0,1,100,12.990
153562,26529,1,H0,1,100,12.990
153663,26548,1,H0,1,100,12.993
153764,26566,1,H0,1,100,12.986
153864,26584,1,H0,1,100,12.974
153966,26602,1,H0,1,100,12.955
154066,26620,1,H0,1,100,12.940
154168,26638,1,H0,1,100,12.940
154270,26656,1,H0,1,100,12.940
154369,26675,1,H0,1,100,12.917
154472,26693,1,H0,1,100,12.902
154571,26711,1,H0,1,100,12.894
154674,26729,1,H0,1,100,12.902
154773,26747,1,H0,1,100,12.887
154874,26765,1,H0,1,100,12.867
154925,26783,2,H0,1,100,12.860
154977,26783,2,H0,1,100,12.833
155077,26801,1,H0,1,100,12.822
155178,26820,1,H0,1,100,12.826
155280,26838,1,H0,1,100,12.826
155382,26856,1,H0,1,100,12.818
155482,26874,1,H0,1,100,12.795
155585,26892,1,H0,1,100,12.791
155685,26910,1,H0,1,100,12.776
155786,26928,1,H0,1,100,12.761
155887,26947,1,H0,1,100,12.761
155989,26965,1,H0,1,100,12.749
156088,26983,1,H0,1,100,12.753
156189,27001,1,H0,1,100,12.742
156292,27019,1,H0,1,100,12.730
156392,27037,1,H0,1,100,12.719
156494,27055,1,H0,1,100,12.707
156593,27074,1,H0,1,100,12.692
156696,27092,1,H0,1,100,12.692
156796,27110,1,H0,1,100,12.669
156898,27128,1,H0,1,100,12.665
156979,27149,2,H0,1,100,12.658
157061,27149,2,H0,1,100,12.631
157159,27169,1,H0,1,100,12.646
157261,27187,1,H0,1,100,12.627
157361,27206,1,H0,1,100,12.604
157462,27224,1,H0,1,100,12.597
157563,27242,1,H0,1,100,12.600
157665,27260,1,H0,1,100,12.593
157764,27278,1,H0,1,100,12.570
157867,27296,1,H0,1,100,12.578
157967,27314,1,H0,1,100,12.555
158068,27332,1,H0,1,100,12.543
158168,27351,1,H0,1,100,12.539
158271,27369,1,H0,1,100,12.543
158373,27387,1,H0,1,100,12.509
158471,27405,1,H0,1,100,12.501
158575,27423,1,H0,1,100,12.482
158674,27441,1,H0,1,100,12.490
158777,27459,1,H0,1,100,12.475
158876,27478,1,H0,1,100,12.467
158977,27496,1,H0,1,100,12.452
159028,27514,2,H0,1,100,12.433
159080,27514,2,H0,1,100,12.421
159181,27532,1,H0,1,100,12.406
159281,27550,1,H0,1,100,12.421
159381,27568,1,H0,1,100,12.402
159484,27586,1,H0,1,100,12.402
159583,27605,1,H0,1,100,12.379
159685,27623,1,H0,1,100,12.379
159786,27641,1,H0,1,100,12.368
159887,27659,1,H0,1,100,12.345
159989,27677,1,H0,1,100,12.341
160088,27695,1,H0,1,100,12.333
160190,27713,1,H0,1,100,12.326
160291,27731,1,H0,1,100,12.307
160392,27750,1,H0,1,100,12.291
160492,27768,1,H0,1,100,12.295
160594,27786,1,H0,1,100,12.276
160695,27804,1,H0,1,100,12.280
160797,27822,1,H0,1,100,12.265
160896,27840,1,H0,1,100,12.253
160998,27858,1,H0,1,100,12.219
161099,27877,1,H0,1,100,12.227
161199,27895,1,H0,1,100,12.204
161302,27913,1,H0,1,100,12.208
161402,27931,1,H0,1,100,12.196
161503,27949,1,H0,1,100,12.169
161606,27967,1,H0,1,100,12.169
161704,27985,1,H0,1,100,12.139
161807,28003,1,H0,1,100,12.154
161907,28022,1,H0,1,100,12.150
162010,28040,1,H0,1,100,12.135
162060,28058,2,H0,1,100,12.116
162110,28058,2,H0,1,100,12.101
162212,28076,1,H0,1,100,12.101
162313,28094,1,H0,1,100,12.089
162412,28112,1,H0,1,100,12.074
162515,28130,1,H0,1,100,12.078
162615,28149,1,H0,1,100,12.047
162715,28167,1,H0,1,100,12.055
162818,28185,1,H0,1,100,12.040
162918,28203,1,H0,1,100,12.017
163019,28221,1,H0,1,100,11.990
163120,28239,1,H0,1,100,11.998
163220,28257,1,H0,1,100,11.979
163323,28276,1,H0,1,100,11.986
163423,28294,1,H0,1,100,11.956
163523,28312,1,H0,1,100,11.971
163626,28330,1,H0,1,100,11.948
163726,28348,1,H0,1,100,11.925
163828,28366,1,H0,1,100,11.925
163928,28384,1,H0,1,100,11.921
164028,28402,1,H0,1,100,11.910
164130,28421,1,H0,1,100,11.899
164231,28439,1,H0,1,100,11.887
164332,28457,1,H0,1,100,11.876
164432,28475,1,H0,1,100,11.872
164534,28493,1,H0,1,100,11.860
164636,28511,1,H0,1,100,11.849
164737,28529,1,H0,1,100,11.826
164837,28548,1,H0,1,100,11.815
164939,28566,1,H0,1,100,11.822
165038,28584,1,H0,1,100,11.784
165139,28602,1,H0,1,100,11.784
165190,28620,2,H0,1,100,11.765
165242,28620,2,H0,1,100,11.765
165342,28638,1,H0,1,100,11.750
165444,28656,1,H0,1,100,11.742
165543,28675,1,H0,1,100,11.719
165644,28693,1,H0,1,100,11.704
165747,28711,1,H0,1,100,11.700
165846,28729,1,H0,1,100,11.677
165948,28747,1,H0,1,100,11.666
166048,28765,1,H0,1,100,11.681
166151,28783,1,H0,1,100,11.654
166252,28801,1,H0,1,100,11.658
166354,28820,1,H0,1,100,11.643
166453,28838,1,H0,1,100,11.628
166553,28856,1,H0,1,100,11.609
166655,28874,1,H0,1,100,11.605
166755,28892,1,H0,1,100,11.578
166858,28910,1,H0,1,100,11.567
166958,28928,1,H0,1,100,11.563
167059,28947,1,H0,1,100,11.548
167159,28965,1,H0,1,100,11.555
167262,28983,1,H0,1,100,11.532
167361,29001,1,H0,1,100,11.513
167462,29019,1,H0,1,100,11.517
167564,29037,1,H0,1,100,11.502
167666,29055,1,H0,1,100,11.471
167767,29073,1,H0,1,100,11.483
168047,29115,1,H0,1,100,11.445
168148,29133,1,H0,1,100,11.410
168248,29151,1,H0,1,100,11.422
168350,29169,1,H0,1,100,11.391
168452,29187,1,H0,1,100,11.380
168552,29206,1,H0,1,100,11.372
168654,29224,1,H0,1,100,11.365
168753,29242,1,H0,1,100,11.357
168856,29260,1,H0,1,100,11.338
168956,29278,1,H0,1,100,11.334
169057,29296,1,H0,1,100,11.323
169157,29314,1,H0,1,100,11.307
169208,29332,2,H0,1,100,11.303
169259,29332,2,H0,1,100,11.273
169361,29351,1,H0,1,100,11.273
169460,29369,1,H0,1,100,11.265
169563,29387,1,H0,1,100,11.258
169663,29405,1,H0,1,100,11.246
169764,29423,1,H0,1,100,11.223
169864,29441,1,H0,1,100,11.216
169966,29459,1,H0,1,100,11.204
170068,29478,1,H0,1,100,11.193
170168,29496,1,H0,1,100,11.197
170269,29514,1,H0,1,100,11.174
170370,29532,1,H0,1,100,11.143
170472,29550,1,H0,1,100,11.162
170571,29568,1,H0,1,100,11.136
170672,29586,1,H0,1,100,11.105
170776,29605,1,H0,1,100,11.090
170876,29623,1,H0,1,100,11.071
170975,29641,1,H0,1,100,11.078
171077,29659,1,H0,1,100,11.044
171179,29677,1,H0,1,100,11.036
171279,29695,1,H0,1,100,11.029
171381,29713,1,H0,1,100,11.029
171480,29731,1,H0,1,100,11.014
171581,29750,1,H0,1,100,10.983
171683,29768,1,H0,1,100,10.991
171785,29786,1,H0,1,100,10.975
171886,29804,1,H0,1,100,10.964
171986,29822,1,H0,1,100,10.953
172087,29840,1,H0,1,100,10.933
172187,29858,1,H0,1,100,10.911
172238,29877,2,H0,1,100,10.911
172289,29877,2,H0,1,100,10.891
172391,29895,1,H0,1,100,10.869
172491,29913,1,H0,1,100,10.857
172592,29931,1,H0,1,100,10.846
172693,29949,1,H0,1,100,10.846
172793,29967,1,H0,1,100,10.823
172894,29985,1,H0,1,100,10.800
172998,30003,1,H0,1,100,10.796
173096,30022,1,H0,1,100,10.777
173198,30040,1,H0,1,100,10.766
173299,30058,1,H0,1,100,10.762
173400,30076,1,H0,1,100,10.750
173502,30094,1,H0,1,100,10.735
173602,30112,1,H0,1,100,10.716
173704,30130,1,H0,1,100,10.708
173803,30149,1,H0,1,100,10.701
173904,30167,1,H0,1,100,10.682
173988,30185,2,H0,1,100,10.670
174073,30185,2,H0,1,100,10.666
174170,30203,1,H0,1,100,10.621
174272,30221,1,H0,1,100,10.628
174372,30239,1,H0,1,100,10.598
174473,30257,1,H0,1,100,10.602
174573,30276,1,H0,1,100,10.590
174675,30294,1,H0,1,100,10.579
174776,30312,1,H0,1,100,10.567
174877,30330,1,H0,1,100,10.556
174978,30348,1,H0,1,100,10.529
175080,30366,1,H0,1,100,10.518
175179,30384,1,H0,1,100,10.502
175282,30403,1,H0,1,100,10.514
175382,30421,1,H0,1,100,10.487
175484,30439,1,H0,1,100,10.460
175583,30457,1,H0,1,100,10.453
175684,30475,1,H0,1,100,10.441
175787,30493,1,H0,1,100,10.430
175888,30511,1,H0,1,100,10.415
175989,30530,1,H0,1,100,10.399
176088,30548,1,H0,1,100,10.392
176189,30566,1,H0,1,100,10.369
176292,30584,1,H0,1,100,10.369
176391,30602,1,H0,1,100,10.342
176442,30620,2,H0,1,100,10.323
176494,30620,2,H0,1,100,10.327
176594,30638,1,H0,1,100,10.304
176696,30656,1,H0,1,100,10.281
176795,30675,1,H0,1,100,10.277
176896,30693,1,H0,1,100,10.270
176999,30711,1,H0,1,100,10.266
177099,30729,1,H0,1,100,10.239
177199,30747,1,H0,1,100,10.216
177302,30765,1,H0,1,100,10.220
177404,30783,1,H0,1,100,10.212
177502,30802,1,H0,1,100,10.190
177604,30820,1,H0,1,100,10.171
177704,30838,1,H0,1,100,10.167
177807,30856,1,H0,1,100,10.148
177906,30874,1,H0,1,100,10.136
178007,30892,1,H0,1,100,10.140
178110,30910,1,H0,1,100,10.109
178210,30928,1,H0,1,100,10.109
178312,30947,1,H0,1,100,10.090
178411,30965,1,H0,1,100,10.075
178513,30983,1,H0,1,100,10.060
178614,31001,1,H0,1,100,10.048
178714,31019,1,H0,1,100,10.029
178795,31040,2,H0,1,100,10.026
178877,31040,2,H0,1,100,9.987
178972,31061,1,H0,1,100,9.991
179074,31079,1,H0,1,100,9.972
179174,31097,1,H0,1,100,9.972
179276,31115,1,H0,1,100,9.968
179375,31133,1,H0,1,100,9.930
179476,31151,1,H0,1,100,9.926
179578,31169,1,H0,1,100,9.919
179678,31187,1,H0,1,100,9.911
179781,31206,1,H0,1,100,9.892
179881,31224,1,H0,1,100,9.873
179982,31242,1,H0,1,100,9.865
180082,31260,1,H0,1,100,9.831
180183,31278,1,H0,1,100,9.839
180285,31296,1,H0,1,100,9.804
180387,31314,1,H0,1,100,9.816
180488,31333,1,H0,1,100,9.797
180587,31351,1,H0,1,100,9.785
180690,31369,1,H0,1,100,9.778
180790,31387,1,H0,1,100,9.770
180891,31405,1,H0,1,100,9.755
180941,31423,2,H0,1,100,9.728
180992,31423,2,H0,1,100,9.713
181094,31441,1,H0,1,100,9.694
181195,31459,1,H0,1,100,9.682
181294,31478,1,H0,1,100,9.671
181397,31496,1,H0,1,100,9.667
181497,31514,1,H0,1,100,9.633
181599,31532,1,H0,1,100,9.625
181699,31550,1,H0,1,100,9.614
181801,31568,1,H0,1,100,9.606
181901,31586,1,H0,1,100,9.594
182002,31605,1,H0,1,100,9.575
182103,31623,1,H0,1,100,9.556
182204,31641,1,H0,1,100,9.549
182306,31659,1,H0,1,100,9.553
182405,31677,1,H0,1,100,9.530
182507,31695,1,H0,1,100,9.526
182608,31713,1,H0,1,100,9.488
182709,31732,1,H0,1,100,9.484
182811,31750,1,H0,1,100,9.472
182910,31768,1,H0,1,100,9.472
183013,31786,1,H0,1,100,9.457
183113,31804,1,H0,1,100,9.427
183215,31822,1,H0,1,100,9.404
183314,31840,1,H0,1,100,9.400
183415,31858,1,H0,1,100,9.377
183518,31877,1,H0,1,100,9.362
183618,31895,1,H0,1,100,9.362
183720,31913,1,H0,1,100,9.354
183819,31931,1,H0,1,100,9.335
183920,31949,1,H0,1,100,9.320
184023,31967,1,H0,1,100,9.320
184123,31985,1,H0,1,100,9.285
184173,32004,2,H0,1,100,9.274
184224,32004,2,H0,1,100,9.266
184326,32022,1,H0,1,100,9.259
184425,32040,1,H0,1,100,9.244
184526,32058,1,H0,1,100,9.224
184629,32076,1,H0,1,100,9.202
184729,32094,1,H0,1,100,9.205
184830,32112,1,H0,1,100,9.167
184931,32130,1,H0,1,100,9.156
185034,32149,1,H0,1,100,9.171
185133,32167,1,H0,1,100,9.152
185233,32185,1,H0,1,100,9.133
185336,32203,1,H0,1,100,9.129
185435,32221,1,H0,1,100,9.114
185537,32239,1,H0,1,100,9.091
185637,32257,1,H0,1,100,9.076
185738,32276,1,H0,1,100,9.079
185841,32294,1,H0,1,100,9.049
185942,32312,1,H0,1,100,9.030
186042,32330,1,H0,1,100,9.015
186142,32348,1,H0,1,100,9.007
186245,32366,1,H0,1,100,8.996
186344,32384,1,H0,1,100,8.992
186446,32403,1,H0,1,100,8.965
186547,32421,1,H0,1,100,8.946
186648,32439,1,H0,1,100,8.938
186750,32457,1,H0,1,100,8.915
186849,32475,1,H0,1,100,8.923
186951,32493,1,H0,1,100,8.900
187052,32511,1,H0,1,100,8.889
187153,32529,1,H0,1,100,8.874
187253,32548,1,H0,1,100,8.881
187304,32566,2,H0,1,100,8.858
187356,32566,2,H0,1,100,8.824
187457,32584,1,H0,1,100,8.820
187558,32602,1,H0,1,100,8.805
187657,32620,1,H0,1,100,8.790
187759,32638,1,H0,1,100,8.793
187860,32656,1,H0,1,100,8.759
187960,32675,1,H0,1,100,8.751
188062,32693,1,H0,1,100,8.755
188162,32711,1,H0,1,100,8.740
188264,32729,1,H0,1,100,8.732
188366,32747,1,H0,1,100,8.702
188467,32765,1,H0,1,100,8.694
188568,32783,1,H0,1,100,8.679
188668,32802,1,H0,1,100,8.683
188769,32820,1,H0,1,100,8.679
188869,32838,1,H0,1,100,8.652
188971,32856,1,H0,1,100,8.641
189073,32874,1,H0,1,100,8.633
189174,32892,1,H0,1,100,8.614
189274,32910,1,H0,1,100,8.606
189375,32928,1,H0,1,100,8.587
189475,32947,1,H0,1,100,8.572
189576,32965,1,H0,1,100,8.561
189861,33006,1,H0,1,100,8.526
189961,33024,1,H0,1,100,8.530
190062,33042,1,H0,1,100,8.500
190162,33061,1,H0,1,100,8.477
190265,33079,1,H0,1,100,8.469
190365,33097,1,H0,1,100,8.465
190466,33115,1,H0,1,100,8.435
190568,33133,1,H0,1,100,8.431
190667,33151,1,H0,1,100,8.416
190770,33169,1,H0,1,100,8.416
190870,33187,1,H0,1,100,8.404
190971,33206,1,H0,1,100,8.397
191071,33224,1,H0,1,100,8.378
191122,33242,2,H0,1,100,8.351
191173,33242,2,H0,1,100,8.355
191275,33260,1,H0,1,100,8.336
191375,33278,1,H0,1,100,8.320
191477,33296,1,H0,1,100,8.309
191577,33314,1,H0,1,100,8.305
191678,33333,1,H0,1,100,8.297
191780,33351,1,H0,1,100,8.294
191880,33369,1,H0,1,100,8.275
191981,33387,1,H0,1,100,8.259
192084,33405,1,H0,1,100,8.259
192182,33423,1,H0,1,100,8.244
192284,33441,1,H0,1,100,8.210
192386,33459,1,H0,1,100,8.225
192485,33478,1,H0,1,100,8.194
192588,33496,1,H0,1,100,8.179
192688,33514,1,H0,1,100,8.156
192789,33532,1,H0,1,100,8.156
192891,33550,1,H0,1,100,8.153
192990,33568,1,H0,1,100,8.122
193092,33586,1,H0,1,100,8.114
193193,33605,1,H0,1,100,8.107
193295,33623,1,H0,1,100,8.091
193394,33641,1,H0,1,100,8.088
193495,33659,1,H0,1,100,8.065
193598,33677,1,H0,1,100,8.065
193700,33695,1,H0,1,100,8.042
193798,33713,1,H0,1,100,8.030
193901,33732,1,H0,1,100,8.027
194001,33750,1,H0,1,100,8.000
194101,33768,1,H0,1,100,7.996
194152,33786,2,H0,1,100,7.981
194204,33786,2,H0,1,100,7.981
194304,33804,1,H0,1,100,7.962
194406,33822,1,H0,1,100,7.958
194505,33840,1,H0,1,100,7.947
194606,33858,1,H0,1,100,7.920
194709,33877,1,H0,1,100,7.912
194808,33895,1,H0,1,100,7.889
194912,33913,1,H0,1,100,7.897
195010,33931,1,H0,1,100,7.870
195113,33949,1,H0,1,100,7.870
195214,33967,1,H0,1,100,7.855
195315,33985,1,H0,1,100,7.840
195415,34004,1,H0,1,100,7.817
195516,34022,1,H0,1,100,7.836
195616,34040,1,H0,1,100,7.802
195717,34058,1,H0,1,100,7.794
195820,34076,1,H0,1,100,7.783
195920,34094,1,H0,1,100,7.760
196021,34112,1,H0,1,100,7.756
196121,34130,1,H0,1,100,7.737
196224,34149,1,H0,1,100,7.721
196323,34167,1,H0,1,100,7.714
196424,34185,1,H0,1,100,7.702
196526,34203,1,H0,1,100,7.695
196629,34221,1,H0,1,100,7.687
196728,34239,1,H0,1,100,7.668
196828,34257,1,H0,1,100,7.657
196931,34276,1,H0,1,100,7.634
197030,34294,1,H0,1,100,7.634
197132,34312,1,H0,1,100,7.615
197232,34330,1,H0,1,100,7.607
197333,34348,1,H0,1,100,7.577
197384,34366,2,H0,1,100,7.580
197436,34366,2,H0,1,100,7.561
197536,34384,1,H0,1,100,7.542
197637,34403,1,H0,1,100,7.546
197738,34421,1,H0,1,100,7.531
197840,34439,1,H0,1,100,7.508
197939,34457,1,H0,1,100,7.496
198040,34475,1,H0,1,100,7.485
198144,34493,1,H0,1,100,7.474
198243,34511,1,H0,1,100,7.470
198345,34529,1,H0,1,100,7.443
198445,34548,1,H0,1,100,7.443
198545,34566,1,H0,1,100,7.420
198647,34584,1,H0,1,100,7.416
198748,34602,1,H0,1,100,7.401
198849,34620,1,H0,1,100,7.397
198951,34638,1,H0,1,100,7.386
199052,34656,1,H0,1,100,7.367
199151,34675,1,H0,1,100,7.367
199254,34693,1,H0,1,100,7.340
199354,34711,1,H0,1,100,7.313
199455,34729,1,H0,1,100,7.309
199555,34747,1,H0,1,100,7.290
199657,34765,1,H0,1,100,7.290
199759,34783,1,H0,1,100,7.264
199858,34802,1,H0,1,100,7.264
199950,34820,2,H0,1,100,7.268
200042,34820,2,H0,1,100,7.252
200136,34838,1,H0,1,100,7.233
200237,34856,1,H0,1,100,7.233
200339,34874,1,H0,1,100,7.199
200438,34892,1,H0,1,100,7.184
200539,34910,1,H0,1,100,7.161
200621,34932,2,H0,1,100,7.157
200704,34932,2,H0,1,100,7.149
200799,34952,1,H0,1,100,7.138
200900,34970,1,H0,1,100,7.123
201000,34988,1,H0,1,100,7.111
201101,35006,1,H0,1,100,7.096
201204,35024,1,H0,1,100,7.088
201305,35042,1,H0,1,100,7.054
201404,35061,1,H0,1,100,7.046
201505,35079,1,H0,1,100,7.054
201608,35097,1,H0,1,100,7.035
201707,35115,1,H0,1,100,7.020
201810,35133,1,H0,1,100,7.008
201909,35151,1,H0,1,100,6.985
202012,35169,1,H0,1,100,6.981
202113,35188,1,H0,1,100,6.981
202212,35206,1,H0,1,100,6.947
202315,35224,1,H0,1,100,6.924
202414,35242,1,H0,1,100,6.917
202517,35260,1,H0,1,100,6.905
202616,35278,1,H0,1,100,6.905
202717,35296,1,H0,1,100,6.875
202768,35314,2,H0,1,100,6.875
202820,35314,2,H0,1,100,6.859
202919,35333,1,H0,1,100,6.840
203022,35351,1,H0,1,100,6.833
203121,35369,1,H0,1,100,6.821
203224,35387,1,H0,1,100,6.806
203324,35405,1,H0,1,100,6.787
203425,35423,1,H0,1,100,6.787
203526,35441,1,H0,1,100,6.772
203627,35460,1,H0,1,100,6.775
203729,35478,1,H0,1,100,6.745
203828,35496,1,H0,1,100,6.737
203930,35514,1,H0,1,100,6.722
204030,35532,1,H0,1,100,6.699
204132,35550,1,H0,1,100,6.688
204232,35568,1,H0,1,100,6.680
204334,35587,1,H0,1,100,6.676
204437,35605,1,H0,1,100,6.653
204537,35623,1,H0,1,100,6.642
204637,35641,1,H0,1,100,6.619
204739,35659,1,H0,1,100,6.623
204839,35677,1,H0,1,100,6.592
204939,35695,1,H0,1,100,6.585
205041,35713,1,H0,1,100,6.569
205141,35732,1,H0,1,100,6.573
205242,35750,1,H0,1,100,6.543
205344,35768,1,H0,1,100,6.531
205446,35786,1,H0,1,100,6.520
205547,35804,1,H0,1,100,6.520
205647,35822,1,H0,1,100,6.486
205748,35840,1,H0,1,100,6.482
205848,35859,1,H0,1,100,6.474
205949,35877,1,H0,1,100,6.459
206000,35895,2,H0,1,100,6.444
206052,35895,2,H0,1,100,6.424
206151,35913,1,H0,1,100,6.417
206254,35931,1,H0,1,100,6.409
206354,35949,1,H0,1,100,6.390
206456,35967,1,H0,1,100,6.379
206555,35985,1,H0,1,100,6.360
206659,36004,1,H0,1,100,6.360
206757,36022,1,H0,1,100,6.344
206859,36040,1,H0,1,100,6.329
206961,36058,1,H0,1,100,6.306
207061,36076,1,H0,1,100,6.310
207163,36094,1,H0,1,100,6.276
207263,36112,1,H0,1,100,6.283
207364,36131,1,H0,1,100,6.272
207464,36149,1,H0,1,100,6.238
207565,36167,1,H0,1,100,6.230
207668,36185,1,H0,1,100,6.203
207767,36203,1,H0,1,100,6.188
207870,36221,1,H0,1,100,6.192
207970,36239,1,H0,1,100,6.177
208072,36258,1,H0,1,100,6.177
208171,36276,1,H0,1,100,6.157
208272,36294,1,H0,1,100,6.135
208374,36312,1,H0,1,100,6.131
208476,36330,1,H0,1,100,6.104
208576,36348,1,H0,1,100,6.112
208678,36366,1,H0,1,100,6.085
208778,36384,1,H0,1,100,6.085
208878,36403,1,H0,1,100,6.058
208929,36421,2,H0,1,100,6.039
208981,36421,2,H0,1,100,6.028
209081,36439,1,H0,1,100,6.024
209183,36457,1,H0,1,100,6.001
209282,36475,1,H0,1,100,5.986
209383,36493,1,H0,1,100,5.971
209486,36511,1,H0,1,100,5.955
209586,36530,1,H0,1,100,5.944
209687,36548,1,H0,1,100,5.944
209787,36566,1,H0,1,100,5.917
209888,36584,1,H0,1,100,5.906
209992,36602,1,H0,1,100,5.909
210093,36620,1,H0,1,100,5.883
210192,36638,1,H0,1,100,5.868
210292,36656,1,H0,1,100,5.848
210395,36675,1,H0,1,100,5.848
210494,36693,1,H0,1,100,5.829
210597,36711,1,H0,1,100,5.833
210697,36729,1,H0,1,100,5.806
210798,36747,1,H0,1,100,5.791
210899,36765,1,H0,1,100,5.761
211001,36783,1,H0,1,100,5.749
211101,36802,1,H0,1,100,5.753
211201,36820,1,H0,1,100,5.730
211303,36838,1,H0,1,100,5.726
211403,36856,1,H0,1,100,5.707
211686,36897,1,H0,1,100,5.673
211787,36915,1,H0,1,100,5.669
211888,36934,1,H0,1,100,5.654
211988,36952,1,H0,1,100,5.642
212089,36970,1,H0,1,100,5.627
212192,36988,1,H0,1,100,5.612
212292,37006,1,H0,1,100,5.581
212394,37024,1,H0,1,100,5.600
212494,37042,1,H0,1,100,5.551
212596,37061,1,H0,1,100,5.566
212695,37079,1,H0,1,100,5.539
212746,37097,2,H0,1,100,5.536
212798,37097,2,H0,1,100,5.520
212898,37115,1,H0,1,100,5.490
212999,37133,1,H0,1,100,5.482
213099,37151,1,H0,1,100,5.467
213202,37169,1,H0,1,100,5.459
213302,37188,1,H0,1,100,5.448
213402,37206,1,H0,1,100,5.433
213505,37224,1,H0,1,100,5.429
213605,37242,1,H0,1,100,5.414
213708,37260,1,H0,1,100,5.395
213807,37278,1,H0,1,100,5.379
213908,37296,1,H0,1,100,5.387
214010,37314,1,H0,1,100,5.375
214110,37333,1,H0,1,100,5.326
214211,37351,1,H0,1,100,5.326
214311,37369,1,H0,1,100,5.326
214413,37387,1,H0,1,100,5.311
214515,37405,1,H0,1,100,5.284
214615,37423,1,H0,1,100,5.265
214716,37441,1,H0,1,100,5.272
214817,37460,1,H0,1,100,5.246
214919,37478,1,H0,1,100,5.250
215019,37496,1,H0,1,100,5.238
215121,37514,1,H0,1,100,5.208
215220,37532,1,H0,1,100,5.204
215322,37550,1,H0,1,100,5.185
215424,37568,1,H0,1,100,5.173
215523,37587,1,H0,1,100,5.150
215626,37605,1,H0,1,100,5.143
215726,37623,1,H0,1,100,5.139
215827,37641,1,H0,1,100,5.116
215927,37659,1,H0,1,100,5.108
215978,37677,2,H0,1,100,5.078
216029,37677,2,H0,1,100,5.063
216131,37695,1,H0,1,100,5.066
216232,37713,1,H0,1,100,5.063
216332,37732,1,H0,1,100,5.051
216433,37750,1,H0,1,100,5.036
216533,37768,1,H0,1,100,5.013
216634,37786,1,H0,1,100,4.994
216738,37804,1,H0,1,100,4.994
216836,37822,1,H0,1,100,4.979
216939,37840,1,H0,1,100,4.963
217038,37859,1,H0,1,100,4.963
217140,37877,1,H0,1,100,4.937
217242,37895,1,H0,1,100,4.925
217342,37913,1,H0,1,100,4.918
217443,37931,1,H0,1,100,4.902
217543,37949,1,H0,1,100,4.880
217645,37967,1,H0,1,100,4.860
217746,37985,1,H0,1,100,4.849
217848,38004,1,H0,1,100,4.834
217948,38022,1,H0,1,100,4.818
218050,38040,1,H0,1,100,4.807
218149,38058,1,H0,1,100,4.796
218250,38076,1,H0,1,100,4.780
218352,38094,1,H0,1,100,4.777
218453,38112,1,H0,1,100,4.765
218555,38131,1,H0,1,100,4.731
218655,38149,1,H0,1,100,4.723
218757,38167,1,H0,1,100,4.708
218857,38185,1,H0,1,100,4.696
218957,38203,1,H0,1,100,4.689
219008,38221,2,H0,1,100,4.670
219060,38221,2,H0,1,100,4.670
219160,38239,1,H0,1,100,4.662
219262,38258,1,H0,1,100,4.628
219361,38276,1,H0,1,100,4.632
219462,38294,1,H0,1,100,4.601
219565,38312,1,H0,1,100,4.601
219666,38330,1,H0,1,100,4.582
219767,38348,1,H0,1,100,4.559
219866,38366,1,H0,1,100,4.559
219969,38384,1,H0,1,100,4.548
220069,38403,1,H0,1,100,4.536
220171,38421,1,H0,1,100,4.509
220270,38439,1,H0,1,100,4.513
220371,38457,1,H0,1,100,4.502
220474,38475,1,H0,1,100,4.479
220573,38493,1,H0,1,100,4.452
220676,38511,1,H0,1,100,4.460
220776,38530,1,H0,1,100,4.426
220878,38548,1,H0,1,100,4.422
220977,38566,1,H0,1,100,4.414
221079,38584,1,H0,1,100,4.399
221181,38602,1,H0,1,100,4.376
221281,38620,1,H0,1,100,4.368
221382,38638,1,H0,1,100,4.368
221482,38656,1,H0,1,100,4.345
221585,38675,1,H0,1,100,4.334
221687,38693,1,H0,1,100,4.319
221786,38711,1,H0,1,100,4.303
221886,38729,1,H0,1,100,4.288
221988,38747,1,H0,1,100,4.273
222090,38765,1,H0,1,100,4.265
222189,38783,1,H0,1,100,4.258
222240,38802,2,H0,1,100,4.223
222292,38802,2,H0,1,100,4.227
222479,38823,1,H0,1,100,4.204
222577,38843,1,H0,1,100,4.201
222676,38861,1,H0,1,100,4.170
222777,38879,1,H0,1,100,4.178
222828,38897,2,H0,1,100,4.159
222880,38897,2,H0,1,100,4.151
222980,38915,1,H0,1,100,4.136
223082,38934,1,H0,1,100,4.098
223182,38952,1,H0,1,100,4.113
223284,38970,1,H0,1,100,4.094
223384,38988,1,H0,1,100,4.075
223484,39006,1,H0,1,100,4.063
223587,39024,1,H0,1,100,4.048
223687,39042,1,H0,1,100,4.025
223790,39061,1,H0,1,100,4.017
223889,39079,1,H0,1,100,4.006
223991,39097,1,H0,1,100,3.987
224091,39115,1,H0,1,100,3.998
224193,39133,1,H0,1,100,3.975
224292,39151,1,H0,1,100,3.945
224393,39169,1,H0,1,100,3.937
224496,39188,1,H0,1,100,3.933
224596,39206,1,H0,1,100,3.911
224697,39224,1,H0,1,100,3.884
224798,39242,1,H0,1,100,3.872
224899,39260,1,H0,1,100,3.861
225001,39278,1,H0,1,100,3.846
225100,39296,1,H0,1,100,3.838
225202,39314,1,H0,1,100,3.815
225305,39333,1,H0,1,100,3.808
225404,39351,1,H0,1,100,3.796
225505,39369,1,H0,1,100,3.769
225607,39387,1,H0,1,100,3.769
225707,39405,1,H0,1,100,3.747
225808,39423,1,H0,1,100,3.735
225908,39441,1,H0,1,100,3.720
226000,39460,2,H0,1,100,3.708
226092,39460,2,H0,1,100,3.705
226186,39478,1,H0,1,100,3.678
226289,39496,1,H0,1,100,3.670
226390,39514,1,H0,1,100,3.655
226491,39532,1,H0,1,100,3.651
226590,39550,1,H0,1,100,3.628
226641,39568,2,H0,1,100,3.609
226693,39568,2,H0,1,100,3.598
226793,39587,1,H0,1,100,3.579
226895,39605,1,H0,1,100,3.579
226994,39623,1,H0,1,100,3.548
227096,39641,1,H0,1,100,3.544
227198,39659,1,H0,1,100,3.529
227298,39677,1,H0,1,100,3.495
227400,39695,1,H0,1,100,3.476
227500,39714,1,H0,1,100,3.480
227602,39732,1,H0,1,100,3.460
227702,39750,1,H0,1,100,3.445
227802,39768,1,H0,1,100,3.457
227905,39786,1,H0,1,100,3.426
228005,39804,1,H0,1,100,3.407
228106,39822,1,H0,1,100,3.396
228207,39841,1,H0,1,100,3.380
228308,39859,1,H0,1,100,3.350
228408,39877,1,H0,1,100,3.335
228511,39895,1,H0,1,100,3.331
228611,39913,1,H0,1,100,3.323
228712,39931,1,H0,1,100,3.293
228812,39949,1,H0,1,100,3.277
228913,39967,1,H0,1,100,3.258
229016,39986,1,H0,1,100,3.247
229116,40004,1,H0,1,100,3.232
229218,40022,1,H0,1,100,3.224
229317,40040,1,H0,1,100,3.201
229419,40058,1,H0,1,100,3.186
229521,40076,1,H0,1,100,3.171
229621,40094,1,H0,1,100,3.155
229722,40113,1,H0,1,100,3.140
229822,40131,1,H0,1,100,3.151
229873,40149,2,H0,1,100,3.102
229925,40149,2,H0,1,100,3.090
230025,40167,1,H0,1,100,3.087
230127,40185,1,H0,1,100,3.060
230227,40203,1,H0,1,100,3.048
230329,40221,1,H0,1,100,3.037
230428,40239,1,H0,1,100,3.010
230531,40258,1,H0,1,100,3.003
230632,40276,1,H0,1,100,2.980
230732,40294,1,H0,1,100,2.984
230834,40312,1,H0,1,100,2.965
230934,40330,1,H0,1,100,2.942
231036,40348,1,H0,1,100,2.923
231136,40366,1,H0,1,100,2.915
231236,40385,1,H0,1,100,2.884
231339,40403,1,H0,1,100,2.877
231440,40421,1,H0,1,100,2.858
231539,40439,1,H0,1,100,2.850
231640,40457,1,H0,1,100,2.827
231743,40475,1,H0,1,100,2.804
231843,40493,1,H0,1,100,2.812
231945,40512,1,H0,1,100,2.789
232044,40530,1,H0,1,100,2.778
232145,40548,1,H0,1,100,2.759
232247,40566,1,H0,1,100,2.728
232348,40584,1,H0,1,100,2.728
232450,40602,1,H0,1,100,2.717
232550,40620,1,H0,1,100,2.698
232651,40638,1,H0,1,100,2.671
232751,40657,1,H0,1,100,2.663
232852,40675,1,H0,1,100,2.644
232903,40693,2,H0,1,100,2.633
232955,40693,2,H0,1,100,2.602
233055,40711,1,H0,1,100,2.595
233156,40729,1,H0,1,100,2.579
233256,40747,1,H0,1,100,2.564
233421,40768,1,H0,1,100,2.568
233516,40789,1,H0,1,100,2.545
233619,40807,1,H0,1,100,2.522
233719,40825,1,H0,1,100,2.503
233820,40843,1,H0,1,100,2.488
233922,40861,1,H0,1,100,2.484
234022,40879,1,H0,1,100,2.461
234123,40897,1,H0,1,100,2.457
234223,40916,1,H0,1,100,2.430
234274,40934,2,H0,1,100,2.415
234325,40934,2,H0,1,100,2.396
234427,40952,1,H0,1,100,2.373
234526,40970,1,H0,1,100,2.373
234629,40988,1,H0,1,100,2.354
234730,41006,1,H0,1,100,2.343
234831,41024,1,H0,1,100,2.316
234930,41043,1,H0,1,100,2.312
235033,41061,1,H0,1,100,2.282
235132,41079,1,H0,1,100,2.286
235235,41097,1,H0,1,100,2.263
235335,41115,1,H0,1,100,2.244
235437,41133,1,H0,1,100,2.232
235537,41151,1,H0,1,100,2.224
235637,41169,1,H0,1,100,2.202
235741,41188,1,H0,1,100,2.190
235840,41206,1,H0,1,100,2.167
235942,41224,1,H0,1,100,2.163
236041,41242,1,H0,1,100,2.141
236142,41260,1,H0,1,100,2.137
236245,41278,1,H0,1,100,2.121
236345,41296,1,H0,1,100,2.102
236446,41315,1,H0,1,100,2.099
236546,41333,1,H0,1,100,2.064
236647,41351,1,H0,1,100,2.053
236750,41369,1,H0,1,100,2.038
236851,41387,1,H0,1,100,2.011
236950,41405,1,H0,1,100,2.015
237051,41423,1,H0,1,100,1.999
237154,41441,1,H0,1,100,1.988
237253,41460,1,H0,1,100,1.954
237304,41478,2,H0,1,100,1.938
237356,41478,2,H0,1,100,1.935
237456,41496,1,H0,1,100,1.923
237557,41514,1,H0,1,100,1.908
237658,41532,1,H0,1,100,1.877
237760,41550,1,H0,1,100,1.851
237861,41568,1,H0,1,100,1.851
237961,41587,1,H0,1,100,1.839
238062,41605,1,H0,1,100,1.832
238162,41623,1,H0,1,100,1.812
238265,41641,1,H0,1,100,1.801
238366,41659,1,H0,1,100,1.771
238466,41677,1,H0,1,100,1.755
238567,41695,1,H0,1,100,1.763
238668,41714,1,H0,1,100,1.740
238770,41732,1,H0,1,100,1.721
238870,41750,1,H0,1,100,1.706
238971,41768,1,H0,1,100,1.687
239072,41786,1,H0,1,100,1.679
239174,41804,1,H0,1,100,1.652
239273,41822,1,H0,1,100,1.652
239375,41840,1,H0,1,100,1.633
239477,41859,1,H0,1,100,1.614
239577,41877,1,H0,1,100,1.599
239678,41895,1,H0,1,100,1.595
239780,41913,1,H0,1,100,1.580
239881,41931,1,H0,1,100,1.557
239982,41949,1,H0,1,100,1.553
240083,41967,1,H0,1,100,1.523
240183,41986,1,H0,1,100,1.507
240285,42004,1,H0,1,100,1.519
240384,42022,1,H0,1,100,1.473
240435,42040,2,H0,1,100,1.465
240486,42040,2,H0,1,100,1.435
240588,42058,1,H0,1,100,1.431
240687,42076,1,H0,1,100,1.412
240790,42094,1,H0,1,100,1.389
240890,42113,1,H0,1,100,1.385
240991,42131,1,H0,1,100,1.374
241092,42149,1,H0,1,100,1.351
241192,42167,1,H0,1,100,1.343
241296,42185,1,H0,1,100,1.309
241394,42203,1,H0,1,100,1.320
241497,42221,1,H0,1,100,1.298
241596,42239,1,H0,1,100,1.271
241697,42258,1,H0,1,100,1.256
241800,42276,1,H0,1,100,1.248
241901,42294,1,H0,1,100,1.233
242000,42312,1,H0,1,100,1.229
242101,42330,1,H0,1,100,1.198
242204,42348,1,H0,1,100,1.187
242303,42366,1,H0,1,100,1.164
242406,42385,1,H0,1,100,1.153
242506,42403,1,H0,1,100,1.133
242608,42421,1,H0,1,100,1.133
242707,42439,1,H0,1,100,1.099
242809,42457,1,H0,1,100,1.103
242910,42475,1,H0,1,100,1.076
243011,42493,1,H0,1,100,1.053
243113,42511,1,H0,1,100,1.050
243213,42530,1,H0,1,100,1.019
243315,42548,1,H0,1,100,1.027
243415,42566,1,H0,1,100,1.011
243515,42584,1,H0,1,100,0.989
243566,42602,2,H0,1,100,0.969
243618,42602,2,H0,1,100,0.962
243719,42620,1,H0,1,100,0.939
243818,42638,1,H0,1,100,0.931
243919,42657,1,H0,1,100,0.912
244022,42675,1,H0,1,100,0.874
244122,42693,1,H0,1,100,0.878
244404,42732,1,H0,1,100,0.836
244504,42752,1,H0,1,100,0.802
244607,42770,1,H0,1,100,0.798
244707,42789,1,H0,1,100,0.775
244809,42807,1,H0,1,100,0.771
244908,42825,1,H0,1,100,0.752
245011,42843,1,H0,1,100,0.729
245112,42861,1,H0,1,100,0.733
245211,42879,1,H0,1,100,0.714
245314,42897,1,H0,1,100,0.699
245414,42916,1,H0,1,100,0.683
245516,42934,1,H0,1,100,0.683
245615,42952,1,H0,1,100,0.645
245716,42970,1,H0,1,100,0.622
245819,42988,1,H0,1,100,0.626
245920,43006,1,H0,1,100,0.603
246020,43024,1,H0,1,100,0.603
246121,43043,1,H0,1,100,0.573
246223,43061,1,H0,1,100,0.561
246323,43079,1,H0,1,100,0.535
246425,43097,1,H0,1,100,0.516
246524,43115,1,H0,1,100,0.508
246626,43133,1,H0,1,100,0.493
246727,43151,1,H0,1,100,0.489
246828,43169,1,H0,1,100,0.462
246930,43188,1,H0,1,100,0.454
247030,43206,1,H0,1,100,0.435
247131,43224,1,H0,1,100,0.413
247231,43242,1,H0,1,100,0.386
247332,43260,1,H0,1,100,0.378
247383,43278,2,H0,1,100,0.371
247435,43278,2,H0,1,100,0.359
247535,43296,1,H0,1,100,0.348
247636,43315,1,H0,1,100,0.321
247737,43333,1,H0,1,100,0.302
247838,43351,1,H0,1,100,0.290
247938,43369,1,H0,1,100,0.287
248040,43387,1,H0,1,100,0.264
248141,43405,1,H0,1,100,0.241
248242,43423,1,H0,1,100,0.226
248343,43441,1,H0,1,100,0.214
248443,43460,1,H0,1,100,0.203
248546,43478,1,H0,1,100,0.180
248646,43496,1,H0,1,100,0.176
248748,43514,1,H0,1,100,0.157
248847,43532,1,H0,1,100,0.149
248948,43550,1,H0,1,100,0.126
249051,43568,1,H0,1,100,0.107
249151,43587,1,H0,1,100,0.104
249253,43605,1,H0,1,100,0.088
249353,43623,1,H0,1,100,0.062
249455,43641,1,H0,1,100,0.046
249554,43659,1,H0,1,100,0.042
249656,43677,1,H0,1,100,0.027
249756,43695,1,H0,1,100,-0.003
249859,43714,1,H0,1,100,-0.003
249959,43732,1,H0,1,100,-0.038
250060,43750,1,H0,1,100,-0.041
250162,43768,1,H0,1,100,-0.053
250262,43786,1,H0,1,100,-0.068
250363,43804,1,H0,1,100,-0.076
250413,43822,2,H0,1,100,-0.106
250464,43822,2,H0,1,100,-0.110
250566,43840,1,H0,1,100,-0.141
250666,43859,1,H0,1,100,-0.144
250766,43877,1,H0,1,100,-0.156
250869,43895,1,H0,1,100,-0.183
250969,43913,1,H0,1,100,-0.179
251071,43931,1,H0,1,100,-0.194
251170,43949,1,H0,1,100,-0.209
251271,43967,1,H0,1,100,-0.232
251375,43986,1,H0,1,100,-0.263
251475,44004,1,H0,1,100,-0.259
251575,44022,1,H0,1,100,-0.282
251675,44040,1,H0,1,100,-0.286
251778,44058,1,H0,1,100,-0.305
251927,44076,1,H0,1,100,-0.316
252027,44094,1,H0,1,100,-0.335
252078,44113,2,H0,1,100,-0.331
252130,44113,2,H0,1,100,-0.370
252230,44131,1,H0,1,100,-0.385
252331,44149,1,H0,1,100,-0.392
252431,44167,1,H0,1,100,-0.411
252533,44185,1,H0,1,100,-0.411
252635,44203,1,H0,1,100,-0.434
252735,44221,1,H0,1,100,-0.450
252836,44240,1,H0,1,100,-0.461
252937,44258,1,H0,1,100,-0.484
253039,44276,1,H0,1,100,-0.495
253140,44294,1,H0,1,100,-0.514
253240,44312,1,H0,1,100,-0.518
253340,44330,1,H0,1,100,-0.549
253442,44348,1,H0,1,100,-0.545
253543,44366,1,H0,1,100,-0.572
253643,44385,1,H0,1,100,-0.595
253746,44403,1,H0,1,100,-0.602
253846,44421,1,H0,1,100,-0.617
253948,44439,1,H0,1,100,-0.640
254047,44457,1,H0,1,100,-0.648
254149,44475,1,H0,1,100,-0.652
254251,44493,1,H0,1,100,-0.678
254350,44512,1,H0,1,100,-0.682
254452,44530,1,H0,1,100,-0.705
254555,44548,1,H0,1,100,-0.709
254654,44566,1,H0,1,100,-0.720
254754,44584,1,H0,1,100,-0.743
254857,44602,1,H0,1,100,-0.762
254956,44620,1,H0,1,100,-0.766
255059,44638,1,H0,1,100,-0.781
255144,44660,2,H0,1,100,-0.808
255230,44660,2,H0,1,100,-0.831
255327,44680,1,H0,1,100,-0.843
255427,44698,1,H0,1,100,-0.835
255528,44716,1,H0,1,100,-0.858
255631,44734,1,H0,1,100,-0.873
255731,44752,1,H0,1,100,-0.896
255832,44771,1,H0,1,100,-0.904
255933,44789,1,H0,1,100,-0.919
256035,44807,1,H0,1,100,-0.942
256135,44825,1,H0,1,100,-0.957
256236,44843,1,H0,1,100,-0.972
256336,44861,1,H0,1,100,-0.984
256386,44879,2,H0,1,100,-0.999
256437,44879,2,H0,1,100,-1.029
256540,44897,1,H0,1,100,-1.022
256639,44916,1,H0,1,100,-1.045
256742,44934,1,H0,1,100,-1.049
256842,44952,1,H0,1,100,-1.079
256943,44970,1,H0,1,100,-1.098
257043,44988,1,H0,1,100,-1.094
257145,45006,1,H0,1,100,-1.094
257247,45024,1,H0,1,100,-1.121
257346,45043,1,H0,1,100,-1.140
257448,45061,1,H0,1,100,-1.152
257550,45079,1,H0,1,100,-1.167
257650,45097,1,H0,1,100,-1.182
257750,45115,1,H0,1,100,-1.205
257853,45133,1,H0,1,100,-1.201
257953,45151,1,H0,1,100,-1.220
258055,45170,1,H0,1,100,-1.239
258154,45188,1,H0,1,100,-1.262
258256,45206,1,H0,1,100,-1.262
258358,45224,1,H0,1,100,-1.274
258458,45242,1,H0,1,100,-1.304
258560,45260,1,H0,1,100,-1.308
258659,45278,1,H0,1,100,-1.335
258760,45296,1,H0,1,100,-1.350
258862,45315,1,H0,1,100,-1.354
258963,45333,1,H0,1,100,-1.377
259065,45351,1,H0,1,100,-1.388
259165,45369,1,H0,1,100,-1.399
259266,45387,1,H0,1,100,-1.415
259366,45405,1,H0,1,100,-1.434
259417,45423,2,H0,1,100,-1.449
259469,45423,2,H0,1,100,-1.461
259570,45442,1,H0,1,100,-1.476
259671,45460,1,H0,1,100,-1.480
259771,45478,1,H0,1,100,-1.491
259872,45496,1,H0,1,100,-1.522
259972,45514,1,H0,1,100,-1.529
260073,45532,1,H0,1,100,-1.548
260177,45550,1,H0,1,100,-1.556
260275,45568,1,H0,1,100,-1.583
260379,45587,1,H0,1,100,-1.598
260477,45605,1,H0,1,100,-1.598
260580,45623,1,H0,1,100,-1.617
260680,45641,1,H0,1,100,-1.628
260781,45659,1,H0,1,100,-1.659
260882,45677,1,H0,1,100,-1.663
260982,45695,1,H0,1,100,-1.682
261084,45714,1,H0,1,100,-1.689
261186,45732,1,H0,1,100,-1.712
261287,45750,1,H0,1,100,-1.724
261387,45768,1,H0,1,100,-1.724
261489,45786,1,H0,1,100,-1.747
261588,45804,1,H0,1,100,-1.781
261689,45822,1,H0,1,100,-1.792
261791,45841,1,H0,1,100,-1.781
261892,45859,1,H0,1,100,-1.823
261994,45877,1,H0,1,100,-1.834
262094,45895,1,H0,1,100,-1.853
262196,45913,1,H0,1,100,-1.853
262295,45931,1,H0,1,100,-1.876
262396,45949,1,H0,1,100,-1.884
262447,45967,2,H0,1,100,-1.899
262499,45967,2,H0,1,100,-1.926
262600,45986,1,H0,1,100,-1.918
262699,46004,1,H0,1,100,-1.937
262801,46022,1,H0,1,100,-1.956
262903,46040,1,H0,1,100,-1.968
263003,46058,1,H0,1,100,-1.983
263105,46076,1,H0,1,100,-2.006
263204,46094,1,H0,1,100,-2.021
263305,46113,1,H0,1,100,-2.025
263408,46131,1,H0,1,100,-2.044
263509,46149,1,H0,1,100,-2.063
263610,46167,1,H0,1,100,-2.078
263710,46185,1,H0,1,100,-2.090
263811,46203,1,H0,1,100,-2.098
263911,46221,1,H0,1,100,-2.120
264012,46239,1,H0,1,100,-2.132
264115,46258,1,H0,1,100,-2.155
264216,46276,1,H0,1,100,-2.166
264316,46294,1,H0,1,100,-2.166
264417,46312,1,H0,1,100,-2.197
264518,46330,1,H0,1,100,-2.204
264618,46348,1,H0,1,100,-2.212
264721,46366,1,H0,1,100,-2.227
264820,46385,1,H0,1,100,-2.254
264922,46403,1,H0,1,100,-2.262
265024,46421,1,H0,1,100,-2.284
265124,46439,1,H0,1,100,-2.277
265226,46457,1,H0,1,100,-2.292
265326,46475,1,H0,1,100,-2.323
265428,46493,1,H0,1,100,-2.338
265527,46512,1,H0,1,100,-2.346
265628,46530,1,H0,1,100,-2.372
265679,46548,2,H0,1,100,-2.391
265731,46548,2,H0,1,100,-2.399
265831,46566,1,H0,1,100,-2.410
265933,46584,1,H0,1,100,-2.418
266217,46625,1,H0,1,100,-2.483
266318,46644,1,H0,1,100,-2.475
266417,46662,1,H0,1,100,-2.506
266520,46680,1,H0,1,100,-2.513
266620,46698,1,H0,1,100,-2.540
266720,46716,1,H0,1,100,-2.548
266821,46734,1,H0,1,100,-2.559
266925,46752,1,H0,1,100,-2.586
267023,46771,1,H0,1,100,-2.593
267126,46789,1,H0,1,100,-2.613
267226,46807,1,H0,1,100,-2.624
267327,46825,1,H0,1,100,-2.643
267429,46843,1,H0,1,100,-2.651
267529,46861,1,H0,1,100,-2.670
267630,46879,1,H0,1,100,-2.681
267730,46897,1,H0,1,100,-2.700
267832,46916,1,H0,1,100,-2.712
267934,46934,1,H0,1,100,-2.731
268033,46952,1,H0,1,100,-2.731
268135,46970,1,H0,1,100,-2.750
268236,46988,1,H0,1,100,-2.758
268338,47006,1,H0,1,100,-2.784
268437,47024,1,H0,1,100,-2.799
268539,47043,1,H0,1,100,-2.807
268641,47061,1,H0,1,100,-2.819
268743,47079,1,H0,1,100,-2.830
268842,47097,1,H0,1,100,-2.853
268944,47115,1,H0,1,100,-2.872
269043,47133,1,H0,1,100,-2.876
269144,47151,1,H0,1,100,-2.891
269195,47170,2,H0,1,100,-2.910
269247,47170,2,H0,1,100,-2.918
269347,47188,1,H0,1,100,-2.944
269449,47206,1,H0,1,100,-2.948
269548,47224,1,H0,1,100,-2.971
269649,47242,1,H0,1,100,-2.983
269752,47260,1,H0,1,100,-3.002
269852,47278,1,H0,1,100,-3.025
269953,47296,1,H0,1,100,-3.028
270053,47315,1,H0,1,100,-3.040
270156,47333,1,H0,1,100,-3.059
270258,47351,1,H0,1,100,-3.066
270358,47369,1,H0,1,100,-3.074
270457,47387,1,H0,1,100,-3.082
270559,47405,1,H0,1,100,-3.105
270661,47423,1,H0,1,100,-3.124
270760,47442,1,H0,1,100,-3.139
270863,47460,1,H0,1,100,-3.143
270963,47478,1,H0,1,100,-3.166
271064,47496,1,H0,1,100,-3.173
271164,47514,1,H0,1,100,-3.208
271267,47532,1,H0,1,100,-3.211
271367,47550,1,H0,1,100,-3.223
271467,47568,1,H0,1,100,-3.250
271569,47587,1,H0,1,100,-3.261
271670,47605,1,H0,1,100,-3.280
271772,47623,1,H0,1,100,-3.276
271872,47641,1,H0,1,100,-3.307
271974,47659,1,H0,1,100,-3.326
272074,47677,1,H0,1,100,-3.311
272176,47695,1,H0,1,100,-3.341
272275,47714,1,H0,1,100,-3.353
272376,47732,1,H0,1,100,-3.364
272427,47750,2,H0,1,100,-3.372
272479,47750,2,H0,1,100,-3.402
272579,47768,1,H0,1,100,-3.421
272681,47786,1,H0,1,100,-3.425
272781,47804,1,H0,1,100,-3.440
272883,47822,1,H0,1,100,-3.452
272984,47841,1,H0,1,100,-3.471
273083,47859,1,H0,1,100,-3.475
273186,47877,1,H0,1,100,-3.501
273287,47895,1,H0,1,100,-3.513
273388,47913,1,H0,1,100,-3.517
273489,47931,1,H0,1,100,-3.536
273589,47949,1,H0,1,100,-3.547
273689,47967,1,H0,1,100,-3.574
273791,47986,1,H0,1,100,-3.585
273892,48004,1,H0,1,100,-3.597
273994,48022,1,H0,1,100,-3.604
274093,48040,1,H0,1,100,-3.631
274194,48058,1,H0,1,100,-3.639
274297,48076,1,H0,1,100,-3.658
274397,48094,1,H0,1,100,-3.669
274498,48113,1,H0,1,100,-3.692
274598,48131,1,H0,1,100,-3.700
274701,48149,1,H0,1,100,-3.723
274802,48167,1,H0,1,100,-3.734
274902,48185,1,H0,1,100,-3.753
275004,48203,1,H0,1,100,-3.753
275103,48221,1,H0,1,100,-3.761
275206,48240,1,H0,1,100,-3.795
275306,48258,1,H0,1,100,-3.810
275407,48276,1,H0,1,100,-3.803
275507,48294,1,H0,1,100,-3.833
275558,48312,2,H0,1,100,-3.849
275609,48312,2,H0,1,100,-3.868
275711,48330,1,H0,1,100,-3.868
275811,48348,1,H0,1,100,-3.879
275913,48366,1,H0,1,100,-3.906
276012,48385,1,H0,1,100,-3.917
276114,48403,1,H0,1,100,-3.932
276216,48421,1,H0,1,100,-3.944
276318,48439,1,H0,1,100,-3.978
276417,48457,1,H0,1,100,-3.986
276518,48475,1,H0,1,100,-3.990
276619,48493,1,H0,1,100,-4.013
276719,48512,1,H0,1,100,-4.020
276822,48530,1,H0,1,100,-4.039
276915,48551,2,H0,1,100,-4.058
277008,48551,2,H0,1,100,-4.062
277103,48571,1,H0,1,100,-4.081
277205,48589,1,H0,1,100,-4.085
277304,48607,1,H0,1,100,-4.116
277406,48625,1,H0,1,100,-4.119
277507,48644,1,H0,1,100,-4.135
277608,48662,1,H0,1,100,-4.173
277710,48680,1,H0,1,100,-4.173
277787,48698,2,H0,1,100,-4.192
277865,48698,2,H0,1,100,-4.199
277964,48716,1,H0,1,100,-4.215
278063,48734,1,H0,1,100,-4.211
278165,48752,1,H0,1,100,-4.238
278266,48771,1,H0,1,100,-4.249
278367,48789,1,H0,1,100,-4.272
278469,48807,1,H0,1,100,-4.291
278568,48825,1,H0,1,100,-4.314
278670,48843,1,H0,1,100,-4.314
278771,48861,1,H0,1,100,-4.314
278872,48879,1,H0,1,100,-4.333
278972,48898,1,H0,1,100,-4.352
279074,48916,1,H0,1,100,-4.363
279176,48934,1,H0,1,100,-4.390
279277,48952,1,H0,1,100,-4.402
279376,48970,1,H0,1,100,-4.409
279478,48988,1,H0,1,100,-4.428
279579,49006,1,H0,1,100,-4.444
279679,49025,1,H0,1,100,-4.455
279782,49043,1,H0,1,100,-4.466
279882,49061,1,H0,1,100,-4.497
279983,49079,1,H0,1,100,-4.501
280085,49097,1,H0,1,100,-4.516
280186,49115,1,H0,1,100,-4.539
280287,49133,1,H0,1,100,-4.543
280387,49151,1,H0,1,100,-4.562
280488,49170,1,H0,1,100,-4.569
280588,49188,1,H0,1,100,-4.569
280639,49206,2,H0,1,100,-4.592
280690,49206,2,H0,1,100,-4.619
280792,49224,1,H0,1,100,-4.638
280893,49242,1,H0,1,100,-4.653
280993,49260,1,H0,1,100,-4.657
281094,49278,1,H0,1,100,-4.680
281194,49297,1,H0,1,100,-4.672
281295,49315,1,H0,1,100,-4.722
281399,49333,1,H0,1,100,-4.714
281497,49351,1,H0,1,100,-4.737
281601,49369,1,H0,1,100,-4.749
281700,49387,1,H0,1,100,-4.772
281801,49405,1,H0,1,100,-4.775
281903,49423,1,H0,1,100,-4.775
282002,49442,1,H0,1,100,-4.814
282104,49460,1,H0,1,100,-4.814
282204,49478,1,H0,1,100,-4.833
282306,49496,1,H0,1,100,-4.848
282408,49514,1,H0,1,100,-4.875
282508,49532,1,H0,1,100,-4.890
282608,49550,1,H0,1,100,-4.898
282711,49569,1,H0,1,100,-4.909
282812,49587,1,H0,1,100,-4.920
282911,49605,1,H0,1,100,-4.943
283013,49623,1,H0,1,100,-4.951
283114,49641,1,H0,1,100,-4.970
283217,49659,1,H0,1,100,-4.970
283316,49677,1,H0,1,100,-5.001
283418,49696,1,H0,1,100,-5.008
283518,49714,1,H0,1,100,-5.035
283619,49732,1,H0,1,100,-5.039
283670,49750,2,H0,1,100,-5.069
283722,49750,2,H0,1,100,-5.077
283822,49768,1,H0,1,100,-5.084
283924,49786,1,H0,1,100,-5.104
284023,49804,1,H0,1,100,-5.123
284124,49822,1,H0,1,100,-5.142
284227,49841,1,H0,1,100,-5.149
284328,49859,1,H0,1,100,-5.165
284427,49877,1,H0,1,100,-5.180
284528,49895,1,H0,1,100,-5.191
284632,49913,1,H0,1,100,-5.203
284731,49931,1,H0,1,100,-5.222
284833,49949,1,H0,1,100,-5.226
284932,49968,1,H0,1,100,-5.249
285033,49986,1,H0,1,100,-5.260
285136,50004,1,H0,1,100,-5.271
285235,50022,1,H0,1,100,-5.287
285338,50040,1,H0,1,100,-5.302
285438,50058,1,H0,1,100,-5.313
285539,50076,1,H0,1,100,-5.321
285639,50094,1,H0,1,100,-5.355
285742,50113,1,H0,1,100,-5.359
285842,50131,1,H0,1,100,-5.374
285942,50149,1,H0,1,100,-5.390
286044,50167,1,H0,1,100,-5.405
286146,50185,1,H0,1,100,-5.420
286247,50203,1,H0,1,100,-5.432
286348,50221,1,H0,1,100,-5.454
286449,50240,1,H0,1,100,-5.466
286548,50258,1,H0,1,100,-5.489
286651,50276,1,H0,1,100,-5.489
286750,50294,1,H0,1,100,-5.523
286851,50312,1,H0,1,100,-5.531
286902,50330,2,H0,1,100,-5.542
286954,50330,2,H0,1,100,-5.561
287054,50348,1,H0,1,100,-5.573
287156,50367,1,H0,1,100,-5.596
287255,50385,1,H0,1,100,-5.611
287358,50403,1,H0,1,100,-5.619
287459,50421,1,H0,1,100,-5.653
287558,50439,1,H0,1,100,-5.657
287661,50457,1,H0,1,100,-5.668
287762,50475,1,H0,1,100,-5.672
287923,50496,1,H0,1,100,-5.702
288019,50517,1,H0,1,100,-5.718
288070,50535,2,H0,1,100,-5.729
288122,50535,2,H0,1,100,-5.741
288222,50553,1,H0,1,100,-5.760
288324,50571,1,H0,1,100,-5.779
288424,50589,1,H0,1,100,-5.794
288524,50607,1,H0,1,100,-5.809
288627,50625,1,H0,1,100,-5.817
288727,50644,1,H0,1,100,-5.828
288828,50662,1,H0,1,100,-5.836
288928,50680,1,H0,1,100,-5.870
289030,50698,1,H0,1,100,-5.882
289133,50716,1,H0,1,100,-5.901
289232,50734,1,H0,1,100,-5.916
289333,50752,1,H0,1,100,-5.943
289433,50771,1,H0,1,100,-5.950
289536,50789,1,H0,1,100,-5.958
289636,50807,1,H0,1,100,-5.969
289737,50825,1,H0,1,100,-5.977
289837,50843,1,H0,1,100,118.996
289939,50861,1,H0,1,100,118.985
290041,50879,1,H0,1,100,118.969
290140,50898,1,H0,1,100,118.943
290243,50916,1,H0,1,100,118.931
290342,50934,1,H0,1,100,118.916
290444,50952,1,H0,1,100,118.905
290546,50970,1,H0,1,100,118.897
290646,50988,1,H0,1,100,118.870
290747,51006,1,H0,1,100,118.851
290848,51024,1,H0,1,100,118.832
290949,51043,1,H0,1,100,118.828
291051,51061,1,H0,1,100,118.802
291150,51079,1,H0,1,100,118.802
291251,51097,1,H0,1,100,118.786
291302,51115,2,H0,1,100,118.756
291354,51115,2,H0,1,100,118.752
291454,51133,1,H0,1,100,118.737
291556,51151,1,H0,1,100,118.718
291655,51170,1,H0,1,100,118.695
291757,51188,1,H0,1,100,118.695
291858,51206,1,H0,1,100,118.680
291958,51224,1,H0,1,100,118.653
292060,51242,1,H0,1,100,118.649
292161,51260,1,H0,1,100,118.622
292262,51278,1,H0,1,100,118.630
292363,51297,1,H0,1,100,118.603
292464,51315,1,H0,1,100,118.596
292566,51333,1,H0,1,100,118.580
292667,51351,1,H0,1,100,118.565
292766,51369,1,H0,1,100,118.550
292867,51387,1,H0,1,100,118.538
292970,51405,1,H0,1,100,118.519
293070,51423,1,H0,1,100,118.504
293171,51442,1,H0,1,100,-5.516
293272,51460,1,H0,1,100,-5.512
293373,51478,1,H0,1,100,-5.516
293473,51496,1,H0,1,100,-5.546
293574,51514,1,H0,1,100,-5.561
293677,51532,1,H0,1,100,-5.580
293776,51550,1,H0,1,100,-5.599
293879,51569,1,H0,1,100,-5.599
293979,51587,1,H0,1,100,-5.615
294081,51605,1,H0,1,100,-5.626
294182,51623,1,H0,1,100,-5.657
294281,51641,1,H0,1,100,-5.657
294383,51659,1,H0,1,100,-5.680
294483,51677,1,H0,1,100,-5.702
294534,51695,2,H0,1,100,-5.706
294585,51695,2,H0,1,100,-5.725
294687,51714,1,H0,1,100,-5.737
294787,51732,1,H0,1,100,-5.741
294887,51750,1,H0,1,100,-5.771
294990,51768,1,H0,1,100,-5.783
295089,51786,1,H0,1,100,-5.802
295190,51804,1,H0,1,100,-5.805
295293,51822,1,H0,1,100,-5.817
295392,51841,1,H0,1,100,-5.828
295495,51859,1,H0,1,100,-5.863
295595,51877,1,H0,1,100,-5.878
295697,51895,1,H0,1,100,-5.878
295796,51913,1,H0,1,100,-5.901
295897,51931,1,H0,1,100,-5.920
296000,51949,1,H0,1,100,-5.924
296101,51968,1,H0,1,100,-5.954
296201,51986,1,H0,1,100,-5.966
296301,52004,1,H0,1,100,-5.977
296403,52022,1,H0,1,100,56.504
296504,52040,1,H0,1,100,118.992
296605,52058,1,H0,1,100,118.966
296705,52076,1,H0,1,100,118.966
296806,52094,1,H0,1,100,118.943
296909,52113,1,H0,1,100,118.931
297009,52131,1,H0,1,100,118.916
297112,52149,1,H0,1,100,118.889
297211,52167,1,H0,1,100,118.870
297312,52185,1,H0,1,100,118.859
297412,52203,1,H0,1,100,118.859
297513,52221,1,H0,1,100,118.836
297564,52240,2,H0,1,100,118.821
297616,52240,2,H0,1,100,118.813
297717,52258,1,H0,1,100,118.786
297816,52276,1,H0,1,100,118.786
297917,52294,1,H0,1,100,118.771
298020,52312,1,H0,1,100,118.760
298119,52330,1,H0,1,100,118.744
298223,52348,1,H0,1,100,118.733
298321,52367,1,H0,1,100,118.718
298424,52385,1,H0,1,100,118.695
298526,52403,1,H0,1,100,118.691
298624,52421,1,H0,1,100,118.683
298909,52462,1,H0,1,100,118.630
299010,52480,1,H0,1,100,118.607
299112,52499,1,H0,1,100,118.592
299213,52517,1,H0,1,100,118.588
299315,52535,1,H0,1,100,118.573
299414,52553,1,H0,1,100,118.550
299515,52571,1,H0,1,100,118.542
299615,52589,1,H0,1,100,118.535
299716,52607,1,H0,1,100,118.512
299819,52625,1,H0,1,100,118.489
299919,52644,1,H0,1,100,118.485
300020,52662,1,H0,1,100,118.474
300120,52680,1,H0,1,100,118.462
300223,52698,1,H0,1,100,118.447
300322,52716,1,H0,1,100,118.420
300425,52734,1,H0,1,100,118.405
300524,52752,1,H0,1,100,118.397
300627,52771,1,H0,1,100,118.386
300728,52789,1,H0,1,100,118.359
300827,52807,1,H0,1,100,118.355
300930,52825,1,H0,1,100,118.340
301029,52843,1,H0,1,100,118.329
301131,52861,1,H0,1,100,118.317
301231,52879,1,H0,1,100,118.298
301332,52898,1,H0,1,100,118.290
301383,52916,2,H0,1,100,118.287
301435,52916,2,H0,1,100,118.260
301535,52934,1,H0,1,100,118.256
301637,52952,1,H0,1,100,118.226
301737,52970,1,H0,1,100,118.218
301839,52988,1,H0,1,100,118.226
301939,53006,1,H0,1,100,118.191
302039,53024,1,H0,1,100,118.168
302143,53043,1,H0,1,100,118.165
302242,53061,1,H0,1,100,118.168
302344,53079,1,H0,1,100,118.146
302444,53097,1,H0,1,100,118.126
302545,53115,1,H0,1,100,118.107
302645,53133,1,H0,1,100,118.107
302747,53151,1,H0,1,100,118.081
302847,53170,1,H0,1,100,118.073
302949,53188,1,H0,1,100,118.039
303051,53206,1,H0,1,100,118.046
303151,53224,1,H0,1,100,118.020
303253,53242,1,H0,1,100,118.039
303353,53260,1,H0,1,100,118.012
303454,53278,1,H0,1,100,118.004
303803,53314,1,H0,1,100,117.943
303907,53332,1,H0,1,100,117.943
304007,53350,1,H0,1,100,117.920
304107,53368,1,H0,1,100,117.909
304207,53386,1,H0,1,100,117.882
304310,53405,1,H0,1,100,117.882
304409,53423,1,H0,1,100,117.867
304511,53441,1,H0,1,100,117.856
304612,53459,1,H0,1,100,117.844
304713,53477,1,H0,1,100,117.833
304813,53495,1,H0,1,100,117.810
304916,53513,1,H0,1,100,117.802
305016,53531,1,H0,1,100,117.802
305116,53550,1,H0,1,100,117.795
305218,53568,1,H0,1,100,117.753
305320,53586,1,H0,1,100,117.753
305421,53604,1,H0,1,100,117.745
305521,53622,1,H0,1,100,117.734
305623,53640,1,H0,1,100,117.714
305723,53658,1,H0,1,100,117.695
305825,53677,1,H0,1,100,117.688
305924,53695,1,H0,1,100,117.669
306025,53713,1,H0,1,100,117.665
306076,53731,2,H0,1,100,117.634
306128,53731,2,H0,1,100,117.642
306228,53749,1,H0,1,100,117.619
306330,53767,1,H0,1,100,117.604
306429,53785,1,H0,1,100,117.604
306531,53804,1,H0,1,100,117.573
306633,53822,1,H0,1,100,117.566
306732,53840,1,H0,1,100,117.554
306834,53858,1,H0,1,100,117.539
306936,53876,1,H0,1,100,117.528
307037,53894,1,H0,1,100,117.516
307137,53912,1,H0,1,100,117.505
307238,53930,1,H0,1,100,117.508
307340,53949,1,H0,1,100,117.482
307440,53967,1,H0,1,100,117.474
307541,53985,1,H0,1,100,117.455
307642,54003,1,H0,1,100,117.447
307743,54021,1,H0,1,100,117.432
307843,54039,1,H0,1,100,117.421
307946,54057,1,H0,1,100,117.405
308046,54076,1,H0,1,100,117.386
308147,54094,1,H0,1,100,117.383
308247,54112,1,H0,1,100,117.383
308348,54130,1,H0,1,100,117.348
308451,54148,1,H0,1,100,117.352
308551,54166,1,H0,1,100,117.333
308653,54184,1,H0,1,100,117.325
308752,54202,1,H0,1,100,117.310
308855,54221,1,H0,1,100,117.283
308955,54239,1,H0,1,100,117.287
309056,54257,1,H0,1,100,117.264
309156,54275,1,H0,1,100,117.253
309207,54293,2,H0,1,100,117.249
309258,54293,2,H0,1,100,117.230
309360,54311,1,H0,1,100,117.222
309460,54329,1,H0,1,100,117.203
309562,54348,1,H0,1,100,117.196
309725,54369,1,H0,1,100,117.180
309823,54389,1,H0,1,100,117.165
309923,54407,1,H0,1,100,117.165
310025,54425,1,H0,1,100,117.158
310124,54443,1,H0,1,100,117.116
310225,54461,1,H0,1,100,117.116
310276,54480,2,H0,1,100,117.093
310328,54480,2,H0,1,100,117.081
310429,54498,1,H0,1,100,117.074
310529,54516,1,H0,1,100,117.055
310629,54534,1,H0,1,100,117.047
310731,54552,1,H0,1,100,117.043
310832,54570,1,H0,1,100,117.016
310933,54588,1,H0,1,100,116.997
311033,54607,1,H0,1,100,117.009
311135,54625,1,H0,1,100,116.986
311237,54643,1,H0,1,100,116.982
311337,54661,1,H0,1,100,116.948
311439,54679,1,H0,1,100,116.944
311539,54697,1,H0,1,100,116.929
311640,54715,1,H0,1,100,116.913
311741,54733,1,H0,1,100,116.910
311841,54752,1,H0,1,100,116.887
311944,54770,1,H0,1,100,116.879
312045,54788,1,H0,1,100,116.868
312145,54806,1,H0,1,100,116.852
312245,54824,1,H0,1,100,116.841
312348,54842,1,H0,1,100,116.826
312448,54860,1,H0,1,100,116.807
312549,54879,1,H0,1,100,116.795
312649,54897,1,H0,1,100,116.791
312752,54915,1,H0,1,100,116.780
312854,54933,1,H0,1,100,116.768
312952,54951,1,H0,1,100,116.753
313055,54969,1,H0,1,100,116.746
313154,54987,1,H0,1,100,116.730
313257,55006,1,H0,1,100,116.723
313356,55024,1,H0,1,100,116.704
313457,55042,1,H0,1,100,116.688
313508,55060,2,H0,1,100,116.681
313560,55060,2,H0,1,100,116.650
313660,55078,1,H0,1,100,116.650
313761,55096,1,H0,1,100,116.639
313861,55114,1,H0,1,100,116.620
313964,55132,1,H0,1,100,116.608
314063,55151,1,H0,1,100,116.593
314165,55169,1,H0,1,100,116.593
314266,55187,1,H0,1,100,116.574
314367,55205,1,H0,1,100,116.559
314469,55223,1,H0,1,100,116.547
314568,55241,1,H0,1,100,116.536
314670,55259,1,H0,1,100,116.517
314771,55278,1,H0,1,100,116.513
314872,55296,1,H0,1,100,116.498
314972,55314,1,H0,1,100,116.482
315074,55332,1,H0,1,100,116.475
315177,55350,1,H0,1,100,116.444
315276,55368,1,H0,1,100,116.448
315378,55386,1,H0,1,100,116.421
315478,55405,1,H0,1,100,116.421
315579,55423,1,H0,1,100,116.402
315679,55441,1,H0,1,100,116.391
315781,55459,1,H0,1,100,116.383
315882,55477,1,H0,1,100,116.368
315983,55495,1,H0,1,100,116.349
316084,55513,1,H0,1,100,116.345
316185,55531,1,H0,1,100,116.330
316287,55550,1,H0,1,100,116.322
316387,55568,1,H0,1,100,116.307
316488,55586,1,H0,1,100,116.288
316588,55604,1,H0,1,100,116.284
316639,55622,2,H0,1,100,116.261
316690,55622,2,H0,1,100,116.265
316792,55640,1,H0,1,100,116.238
316891,55658,1,H0,1,100,116.242
316994,55677,1,H0,1,100,116.231
317093,55695,1,H0,1,100,116.223
317196,55713,1,H0,1,100,116.185
317295,55731,1,H0,1,100,116.173
317396,55749,1,H0,1,100,116.173
317499,55767,1,H0,1,100,116.166
317599,55785,1,H0,1,100,116.169
317702,55803,1,H0,1,100,116.131
317802,55822,1,H0,1,100,116.128
317903,55840,1,H0,1,100,116.105
318003,55858,1,H0,1,100,116.112
318104,55876,1,H0,1,100,116.097
318204,55894,1,H0,1,100,116.066
318305,55912,1,H0,1,100,116.051
318408,55930,1,H0,1,100,116.044
318508,55949,1,H0,1,100,116.032
318609,55967,1,H0,1,100,116.028
318710,55985,1,H0,1,100,116.009
318812,56003,1,H0,1,100,115.986
318911,56021,1,H0,1,100,115.983
319012,56039,1,H0,1,100,115.964
319114,56057,1,H0,1,100,115.964
319217,56076,1,H0,1,100,115.952
319316,56094,1,H0,1,100,115.941
319418,56112,1,H0,1,100,115.925
319518,56130,1,H0,1,100,115.902
319618,56148,1,H0,1,100,115.899
319720,56166,1,H0,1,100,115.883
319770,56184,2,H0,1,100,115.861
319821,56184,2,H0,1,100,115.861
319923,56202,1,H0,1,100,115.845
320023,56221,1,H0,1,100,115.830
320123,56239,1,H0,1,100,115.815
320226,56257,1,H0,1,100,115.799
320326,56275,1,H0,1,100,115.792
320427,56293,1,H0,1,100,115.777
320710,56335,1,H0,1,100,115.742
320811,56353,1,H0,1,100,115.723
320912,56371,1,H0,1,100,115.723
321014,56389,1,H0,1,100,115.716
321113,56407,1,H0,1,100,115.693
321214,56425,1,H0,1,100,115.677
321318,56443,1,H0,1,100,115.651
321419,56461,1,H0,1,100,115.639
321518,56480,1,H0,1,100,115.620
321619,56498,1,H0,1,100,115.628
321720,56516,1,H0,1,100,115.616
321820,56534,1,H0,1,100,115.593
321923,56552,1,H0,1,100,115.582
322023,56570,1,H0,1,100,115.571
322125,56588,1,H0,1,100,115.563
322224,56607,1,H0,1,100,115.548
322325,56625,1,H0,1,100,115.544
322428,56643,1,H0,1,100,115.529
322527,56661,1,H0,1,100,115.510
322629,56679,1,H0,1,100,115.494
322729,56697,1,H0,1,100,115.483
322832,56715,1,H0,1,100,115.487
322933,56733,1,H0,1,100,115.464
323033,56752,1,H0,1,100,115.449
323135,56770,1,H0,1,100,115.441
323234,56788,1,H0,1,100,115.437
323337,56806,1,H0,1,100,115.418
323436,56824,1,H0,1,100,115.403
323538,56842,1,H0,1,100,115.387
323638,56860,1,H0,1,100,115.365
323689,56879,2,H0,1,100,115.361
323740,56879,2,H0,1,100,115.353
323842,56897,1,H0,1,100,115.334
323942,56915,1,H0,1,100,115.319
324044,56933,1,H0,1,100,115.315
324143,56951,1,H0,1,100,115.292
324245,56969,1,H0,1,100,115.277
324347,56987,1,H0,1,100,115.277
324448,57006,1,H0,1,100,115.254
324548,57024,1,H0,1,100,115.258
324649,57042,1,H0,1,100,115.239
324750,57060,1,H0,1,100,115.216
324850,57078,1,H0,1,100,115.204
324952,57096,1,H0,1,100,115.197
325052,57114,1,H0,1,100,115.178
325154,57132,1,H0,1,100,115.178
325256,57151,1,H0,1,100,115.155
325356,57169,1,H0,1,100,115.151
325457,57187,1,H0,1,100,115.120
325559,57205,1,H0,1,100,115.109
325658,57223,1,H0,1,100,115.113
325759,57241,1,H0,1,100,115.090
325861,57259,1,H0,1,100,115.082
325962,57278,1,H0,1,100,115.067
326063,57296,1,H0,1,100,115.059
326164,57314,1,H0,1,100,115.040
326264,57332,1,H0,1,100,115.025
326367,57350,1,H0,1,100,115.006
326466,57368,1,H0,1,100,115.014
326568,57386,1,H0,1,100,115.006
326618,57405,2,H0,1,100,114.979
326669,57405,2,H0,1,100,114.968
326770,57423,1,H0,1,100,114.956
326870,57441,1,H0,1,100,114.953
326973,57459,1,H0,1,100,114.922
327073,57477,1,H0,1,100,114.926
327174,57495,1,H0,1,100,114.895
327274,57513,1,H0,1,100,114.884
327377,57531,1,H0,1,100,114.876
327478,57550,1,H0,1,100,114.865
327578,57568,1,H0,1,100,114.857
327680,57586,1,H0,1,100,114.861
327779,57604,1,H0,1,100,114.827
327882,57622,1,H0,1,100,114.811
327981,57640,1,H0,1,100,114.796
328082,57658,1,H0,1,100,114.789
328184,57677,1,H0,1,100,114.766
328284,57695,1,H0,1,100,114.754
328387,57713,1,H0,1,100,114.750
328486,57731,1,H0,1,100,114.739
328589,57749,1,H0,1,100,114.724
328689,57767,1,H0,1,100,114.716
328790,57785,1,H0,1,100,114.693
328890,57803,1,H0,1,100,114.678
328993,57822,1,H0,1,100,114.682
329093,57840,1,H0,1,100,114.659
329194,57858,1,H0,1,100,114.655
329295,57876,1,H0,1,100,114.636
329396,57894,1,H0,1,100,114.625
329469,57912,2,H0,1,100,114.621
329542,57912,2,H0,1,100,114.613
329644,57931,1,H0,1,100,114.602
329743,57949,1,H0,1,100,114.579
329844,57967,1,H0,1,100,114.560
329947,57985,1,H0,1,100,114.552
330048,58003,1,H0,1,100,114.541
330147,58021,1,H0,1,100,114.529
330248,58039,1,H0,1,100,114.510
330351,58057,1,H0,1,100,114.499
330451,58076,1,H0,1,100,114.472
330553,58094,1,H0,1,100,114.472
330653,58112,1,H0,1,100,114.464
330753,58130,1,H0,1,100,114.457
330855,58148,1,H0,1,100,114.438
330957,58166,1,H0,1,100,114.434
331059,58184,1,H0,1,100,114.411
331158,58203,1,H0,1,100,114.415
331258,58221,1,H0,1,100,114.396
331360,58239,1,H0,1,100,114.380
331441,58260,2,H0,1,100,114.377
331523,58260,2,H0,1,100,114.365
331621,58280,1,H0,1,100,114.342
331721,58298,1,H0,1,100,114.338
331822,58316,1,H0,1,100,114.323
331922,58335,1,H0,1,100,114.308
332025,58353,1,H0,1,100,114.308
332124,58371,1,H0,1,100,114.262
332227,58389,1,H0,1,100,114.266
332327,58407,1,H0,1,100,114.251
332428,58425,1,H0,1,100,114.239
332530,58443,1,H0,1,100,114.235
332630,58461,1,H0,1,100,114.216
332731,58480,1,H0,1,100,114.220
332831,58498,1,H0,1,100,114.205
332882,58516,2,H0,1,100,114.186
332933,58516,2,H0,1,100,114.190
333035,58534,1,H0,1,100,114.159
333134,58552,1,H0,1,100,114.159
333237,58570,1,H0,1,100,114.148
333337,58588,1,H0,1,100,114.117
333439,58607,1,H0,1,100,114.110
333538,58625,1,H0,1,100,114.102
333639,58643,1,H0,1,100,114.087
333742,58661,1,H0,1,100,114.079
333844,58679,1,H0,1,100,114.060
333943,58697,1,H0,1,100,114.052
334045,58715,1,H0,1,100,114.041
334146,58734,1,H0,1,100,114.029
334245,58752,1,H0,1,100,114.014
334347,58770,1,H0,1,100,114.010
334447,58788,1,H0,1,100,113.991
334549,58806,1,H0,1,100,113.980
334650,58824,1,H0,1,100,113.968
334750,58842,1,H0,1,100,113.965
334853,58860,1,H0,1,100,113.949
334953,58879,1,H0,1,100,113.934
335054,58897,1,H0,1,100,113.915
335154,58915,1,H0,1,100,113.911
335255,58933,1,H0,1,100,113.904
335358,58951,1,H0,1,100,113.884
335459,58969,1,H0,1,100,113.873
335558,58987,1,H0,1,100,113.869
335659,59006,1,H0,1,100,113.850
335762,59024,1,H0,1,100,113.839
335861,59042,1,H0,1,100,113.812
335963,59060,1,H0,1,100,113.804
336013,59078,2,H0,1,100,113.785
336064,59078,2,H0,1,100,113.797
336165,59096,1,H0,1,100,113.774
336265,59114,1,H0,1,100,113.766
336367,59133,1,H0,1,100,113.759
336469,59151,1,H0,1,100,113.743
336569,59169,1,H0,1,100,113.736
336670,59187,1,H0,1,100,113.724
336770,59205,1,H0,1,100,113.709
336873,59223,1,H0,1,100,113.694
336974,59241,1,H0,1,100,113.690
337074,59259,1,H0,1,100,113.678
337175,59278,1,H0,1,100,113.663
337277,59296,1,H0,1,100,113.652
337378,59314,1,H0,1,100,113.633
337478,59332,1,H0,1,100,113.629
337579,59350,1,H0,1,100,113.610
337680,59368,1,H0,1,100,113.606
337782,59386,1,H0,1,100,113.606
337881,59405,1,H0,1,100,113.576
337982,59423,1,H0,1,100,113.583
338085,59441,1,H0,1,100,113.560
338185,59459,1,H0,1,100,113.541
338287,59477,1,H0,1,100,113.537
338387,59495,1,H0,1,100,113.534
338488,59513,1,H0,1,100,113.511
338589,59531,1,H0,1,100,113.499
338689,59550,1,H0,1,100,113.488
338792,59568,1,H0,1,100,113.476
338893,59586,1,H0,1,100,113.476
338992,59604,1,H0,1,100,113.450
339093,59622,1,H0,1,100,113.446
339144,59640,2,H0,1,100,113.423
339196,59640,2,H0,1,100,113.415
339296,59658,1,H0,1,100,113.400
339397,59677,1,H0,1,100,113.381
339498,59695,1,H0,1,100,113.381
339599,59713,1,H0,1,100,113.362
339701,59731,1,H0,1,100,113.354
339800,59749,1,H0,1,100,113.350
339903,59767,1,H0,1,100,113.328
340003,59785,1,H0,1,100,113.305
340105,59804,1,H0,1,100,113.308
340205,59822,1,H0,1,100,113.293
340305,59840,1,H0,1,100,113.278
340408,59858,1,H0,1,100,113.274
340508,59876,1,H0,1,100,113.263
340609,59894,1,H0,1,100,113.244
340709,59912,1,H0,1,100,113.228
340811,59930,1,H0,1,100,113.225
340913,59949,1,H0,1,100,113.213
341013,59967,1,H0,1,100,113.202
341114,59985,1,H0,1,100,113.183
341216,60003,1,H0,1,100,113.179
341315,60021,1,H0,1,100,113.175
341417,60039,1,H0,1,100,113.152
341518,60057,1,H0,1,100,113.148
341619,60076,1,H0,1,100,113.137
341721,60094,1,H0,1,100,113.122
341821,60112,1,H0,1,100,113.102
341923,60130,1,H0,1,100,113.095
342023,60148,1,H0,1,100,113.083
342123,60166,1,H0,1,100,113.083
342174,60184,2,H0,1,100,113.064
342226,60184,2,H0,1,100,113.041
342507,60226,1,H0,1,100,113.022
342609,60244,1,H0,1,100,113.015
342709,60262,1,H0,1,100,112.999
342810,60280,1,H0,1,100,112.996
342910,60298,1,H0,1,100,112.988
342961,60316,2,H0,1,100,112.973
343012,60316,2,H0,1,100,112.950
343113,60335,1,H0,1,100,112.942
343215,60353,1,H0,1,100,112.935
343315,60371,1,H0,1,100,112.919
343417,60389,1,H0,1,100,112.904
343516,60407,1,H0,1,100,112.885
343617,60425,1,H0,1,100,112.866
343720,60443,1,H0,1,100,112.874
343820,60461,1,H0,1,100,112.851
343922,60480,1,H0,1,100,112.847
344022,60498,1,H0,1,100,112.828
344124,60516,1,H0,1,100,112.824
344224,60534,1,H0,1,100,112.805
344324,60552,1,H0,1,100,112.786
344427,60570,1,H0,1,100,112.782
344527,60588,1,H0,1,100,112.771
344629,60607,1,H0,1,100,112.755
344728,60625,1,H0,1,100,112.755
344831,60643,1,H0,1,100,112.752
344931,60661,1,H0,1,100,112.732
345033,60679,1,H0,1,100,112.710
345133,60697,1,H0,1,100,112.698
345233,60715,1,H0,1,100,112.683
345335,60734,1,H0,1,100,112.675
345437,60752,1,H0,1,100,112.664
345538,60770,1,H0,1,100,112.668
345638,60788,1,H0,1,100,112.637
345739,60806,1,H0,1,100,112.633
345840,60824,1,H0,1,100,112.610
345940,60842,1,H0,1,100,112.607
345991,60860,2,H0,1,100,112.580
346043,60860,2,H0,1,100,112.580
346143,60879,1,H0,1,100,112.557
346245,60897,1,H0,1,100,112.546
346344,60915,1,H0,1,100,112.542
346447,60933,1,H0,1,100,112.519
346548,60951,1,H0,1,100,112.526
346648,60969,1,H0,1,100,112.504
346748,60987,1,H0,1,100,112.477
346850,61006,1,H0,1,100,112.473
346953,61024,1,H0,1,100,112.473
347051,61042,1,H0,1,100,112.446
347154,61060,1,H0,1,100,112.435
347254,61078,1,H0,1,100,112.412
347356,61096,1,H0,1,100,112.420
347455,61114,1,H0,1,100,112.389
347556,61132,1,H0,1,100,112.385
347659,61151,1,H0,1,100,112.374
347759,61169,1,H0,1,100,112.370
347860,61187,1,H0,1,100,112.336
347961,61205,1,H0,1,100,112.340
348063,61223,1,H0,1,100,112.324
348163,61241,1,H0,1,100,112.313
348263,61259,1,H0,1,100,112.294
348365,61278,1,H0,1,100,112.282
348468,61296,1,H0,1,100,112.279
348566,61314,1,H0,1,100,112.271
348667,61332,1,H0,1,100,112.248
348770,61350,1,H0,1,100,112.248
348870,61368,1,H0,1,100,112.217
348972,61386,1,H0,1,100,112.206
349071,61405,1,H0,1,100,112.202
349122,61423,2,H0,1,100,112.179
349173,61423,2,H0,1,100,112.168
349275,61441,1,H0,1,100,112.156
349375,61459,1,H0,1,100,112.145
349476,61477,1,H0,1,100,112.130
349577,61495,1,H0,1,100,112.126
349679,61513,1,H0,1,100,112.118
349779,61531,1,H0,1,100,112.107
349879,61550,1,H0,1,100,112.076
349983,61568,1,H0,1,100,112.069
350082,61586,1,H0,1,100,112.057
350184,61604,1,H0,1,100,112.034
350283,61622,1,H0,1,100,112.034
350386,61640,1,H0,1,100,112.011
350486,61658,1,H0,1,100,112.004
350587,61677,1,H0,1,100,111.966
350688,61695,1,H0,1,100,111.970
350790,61713,1,H0,1,100,111.954
350889,61731,1,H0,1,100,111.950
350990,61749,1,H0,1,100,111.935
351093,61767,1,H0,1,100,111.916
351193,61785,1,H0,1,100,111.901
351294,61804,1,H0,1,100,111.889
351394,61822,1,H0,1,100,111.878
351496,61840,1,H0,1,100,111.859
351598,61858,1,H0,1,100,111.855
351699,61876,1,H0,1,100,111.832
351800,61894,1,H0,1,100,111.840
351899,61912,1,H0,1,100,111.821
352002,61930,1,H0,1,100,111.798
352102,61949,1,H0,1,100,111.798
352203,61967,1,H0,1,100,111.775
352303,61985,1,H0,1,100,111.764
352354,62003,2,H0,1,100,111.741
352405,62003,2,H0,1,100,111.737
352507,62021,1,H0,1,100,111.722
352606,62039,1,H0,1,100,111.714
352709,62057,1,H0,1,100,111.695
352808,62076,1,H0,1,100,111.680
352911,62094,1,H0,1,100,111.680
353011,62112,1,H0,1,100,111.668
353112,62130,1,H0,1,100,111.657
353395,62171,1,H0,1,100,111.615
353496,62189,1,H0,1,100,111.599
353596,62208,1,H0,1,100,111.577
353699,62226,1,H0,1,100,111.580
353800,62244,1,H0,1,100,111.565
353899,62262,1,H0,1,100,111.558
354002,62280,1,H0,1,100,111.542
354102,62298,1,H0,1,100,111.538
354204,62316,1,H0,1,100,111.512
354304,62335,1,H0,1,100,111.500
354405,62353,1,H0,1,100,111.496
354506,62371,1,H0,1,100,111.477
354608,62389,1,H0,1,100,111.466
354707,62407,1,H0,1,100,111.451
354808,62425,1,H0,1,100,111.443
354911,62443,1,H0,1,100,111.420
355010,62461,1,H0,1,100,111.413
355113,62480,1,H0,1,100,111.397
355212,62498,1,H0,1,100,111.382
355314,62516,1,H0,1,100,111.371
355416,62534,1,H0,1,100,111.367
355506,62552,2,H0,1,100,111.363
355596,62552,2,H0,1,100,111.336
355692,62570,1,H0,1,100,111.329
355793,62589,1,H0,1,100,111.313
355892,62607,1,H0,1,100,111.302
355994,62625,1,H0,1,100,111.298
356094,62643,1,H0,1,100,111.268
356198,62661,1,H0,1,100,111.256
356296,62679,1,H0,1,100,111.249
356398,62697,1,H0,1,100,111.241
356500,62715,1,H0,1,100,111.222
356599,62734,1,H0,1,100,111.210
356701,62752,1,H0,1,100,111.207
356751,62770,2,H0,1,100,111.199
356802,62770,2,H0,1,100,111.172
356904,62788,1,H0,1,100,111.165
357005,62806,1,H0,1,100,111.138
357106,62824,1,H0,1,100,111.142
357205,62842,1,H0,1,100,111.134
357306,62861,1,H0,1,100,111.115
357409,62879,1,H0,1,100,111.104
357508,62897,1,H0,1,100,111.100
357611,62915,1,H0,1,100,111.088
357711,62933,1,H0,1,100,111.065
357813,62951,1,H0,1,100,111.069
357913,62969,1,H0,1,100,111.039
358013,62988,1,H0,1,100,111.023
358115,63006,1,H0,1,100,111.008
358215,63024,1,H0,1,100,111.008
358318,63042,1,H0,1,100,110.982
358419,63060,1,H0,1,100,110.982
358519,63078,1,H0,1,100,110.962
358619,63096,1,H0,1,100,110.959
358722,63114,1,H0,1,100,110.943
358822,63133,1,H0,1,100,110.928
358924,63151,1,H0,1,100,110.905
359023,63169,1,H0,1,100,110.898
359125,63187,1,H0,1,100,110.886
359228,63205,1,H0,1,100,110.882
359327,63223,1,H0,1,100,110.859
359428,63241,1,H0,1,100,110.852
359528,63260,1,H0,1,100,110.829
359629,63278,1,H0,1,100,110.833
359732,63296,1,H0,1,100,110.821
359831,63314,1,H0,1,100,110.814
359882,63332,2,H0,1,100,110.779
359934,63332,2,H0,1,100,110.768
360035,63350,1,H0,1,100,110.764
360134,63368,1,H0,1,100,110.749
360236,63386,1,H0,1,100,110.745
360338,63405,1,H0,1,100,110.722
360438,63423,1,H0,1,100,110.703
360539,63441,1,H0,1,100,110.707
360640,63459,1,H0,1,100,110.684
360743,63477,1,H0,1,100,110.676
360842,63495,1,H0,1,100,110.657
360942,63513,1,H0,1,100,110.653
361045,63532,1,H0,1,100,110.638
361144,63550,1,H0,1,100,110.631
361247,63568,1,H0,1,100,110.615
361346,63586,1,H0,1,100,110.600
361448,63604,1,H0,1,100,110.577
361550,63622,1,H0,1,100,110.577
361650,63640,1,H0,1,100,110.558
361751,63659,1,H0,1,100,110.539
361852,63677,1,H0,1,100,110.539
361954,63695,1,H0,1,100,110.516
362053,63713,1,H0,1,100,110.516
362155,63731,1,H0,1,100,110.497
362256,63749,1,H0,1,100,110.493
362358,63767,1,H0,1,100,110.470
362458,63785,1,H0,1,100,110.467
362558,63804,1,H0,1,100,110.451
362660,63822,1,H0,1,100,110.440
362761,63840,1,H0,1,100,110.436
362862,63858,1,H0,1,100,110.409
362912,63876,2,H0,1,100,110.405
362963,63876,2,H0,1,100,110.383
363065,63894,1,H0,1,100,110.371
363164,63912,1,H0,1,100,110.360
363265,63931,1,H0,1,100,110.360
363368,63949,1,H0,1,100,110.341
363468,63967,1,H0,1,100,110.322
363569,63985,1,H0,1,100,110.306
363669,64003,1,H0,1,100,110.302
363772,64021,1,H0,1,100,110.295
363874,64039,1,H0,1,100,110.283
363974,64058,1,H0,1,100,110.272
364073,64076,1,H0,1,100,110.257
364156,64097,2,H0,1,100,110.253
364239,64097,2,H0,1,100,110.234
364337,64117,1,H0,1,100,110.215
364437,64135,1,H0,1,100,110.199
364539,64153,1,H0,1,100,110.196
364639,64171,1,H0,1,100,110.192
364741,64190,1,H0,1,100,110.180
364840,64208,1,H0,1,100,110.161
364941,64226,1,H0,1,100,110.161
365044,64244,1,H0,1,100,110.135
365146,64262,1,H0,1,100,110.138
365245,64280,1,H0,1,100,110.112
365346,64298,1,H0,1,100,110.096
365448,64316,1,H0,1,100,110.085
365548,64335,1,H0,1,100,110.077
365649,64353,1,H0,1,100,110.062
365749,64371,1,H0,1,100,110.062
365851,64389,1,H0,1,100,110.035
365953,64407,1,H0,1,100,110.039
366052,64425,1,H0,1,100,110.020
366155,64443,1,H0,1,100,110.001
366255,64462,1,H0,1,100,109.997
366356,64480,1,H0,1,100,109.978
366457,64498,1,H0,1,100,109.967
366558,64516,1,H0,1,100,109.967
366661,64534,1,H0,1,100,109.952
366762,64552,1,H0,1,100,109.952
366862,64570,1,H0,1,100,109.932
366962,64589,1,H0,1,100,109.921
367065,64607,1,H0,1,100,109.921
367165,64625,1,H0,1,100,109.894
367266,64643,1,H0,1,100,109.891
367316,64661,2,H0,1,100,109.868
367367,64661,2,H0,1,100,109.871
367468,64679,1,H0,1,100,109.852
367568,64697,1,H0,1,100,109.837
367670,64715,1,H0,1,100,109.837
367772,64734,1,H0,1,100,109.814
367872,64752,1,H0,1,100,109.818
367973,64770,1,H0,1,100,109.799
368073,64788,1,H0,1,100,109.788
368176,64806,1,H0,1,100,109.780
368277,64824,1,H0,1,100,109.765
368376,64842,1,H0,1,100,109.757
368479,64861,1,H0,1,100,109.726
368580,64879,1,H0,1,100,109.726
368681,64897,1,H0,1,100,109.723
368780,64915,1,H0,1,100,109.719
368883,64933,1,H0,1,100,109.696
368983,64951,1,H0,1,100,109.681
369085,64969,1,H0,1,100,109.677
369184,64987,1,H0,1,100,109.669
369285,65006,1,H0,1,100,109.654
369388,65024,1,H0,1,100,109.646
369488,65042,1,H0,1,100,109.635
369590,65060,1,H0,1,100,109.623
369690,65078,1,H0,1,100,109.608
369791,65096,1,H0,1,100,109.593
369892,65114,1,H0,1,100,109.570
369992,65133,1,H0,1,100,109.566
370095,65151,1,H0,1,100,109.566
370195,65169,1,H0,1,100,109.547
370297,65187,1,H0,1,100,109.547
370396,65205,1,H0,1,100,109.528
370447,65223,2,H0,1,100,109.513
370498,65223,2,H0,1,100,109.517
370599,65241,1,H0,1,100,109.490
370701,65260,1,H0,1,100,109.482
370801,65278,1,H0,1,100,109.467
370902,65296,1,H0,1,100,109.459
371003,65314,1,H0,1,100,109.456
371103,65332,1,H0,1,100,109.440
371207,65350,1,H0,1,100,109.429
371305,65368,1,H0,1,100,109.410
371408,65386,1,H0,1,100,109.406
371507,65405,1,H0,1,100,109.398
371608,65423,1,H0,1,100,109.395
371711,65441,1,H0,1,100,109.376
371811,65459,1,H0,1,100,109.368
371912,65477,1,H0,1,100,109.356
372012,65495,1,H0,1,100,109.341
372114,65513,1,H0,1,100,109.322
372216,65532,1,H0,1,100,109.311
372316,14,1,H0,1,100,109.307
372417,32,1,H0,1,100,109.284
372519,50,1,H0,1,100,109.280
372618,68,1,H0,1,100,109.273
372719,86,1,H0,1,100,109.257
372821,104,1,H0,1,100,109.242
372922,123,1,H0,1,100,109.242
373023,141,1,H0,1,100,109.231
373124,159,1,H0,1,100,109.200
373225,177,1,H0,1,100,109.208
373327,195,1,H0,1,100,109.185
373426,213,1,H0,1,100,109.181
373477,231,2,H0,1,100,109.154
373529,231,2,H0,1,100,109.150
373629,249,1,H0,1,100,109.128
373731,268,1,H0,1,100,109.135
373830,286,1,H0,1,100,109.108
373933,304,1,H0,1,100,109.101
374033,322,1,H0,1,100,109.089
374134,340,1,H0,1,100,109.089
374236,358,1,H0,1,100,109.074
374335,376,1,H0,1,100,109.059
374438,395,1,H0,1,100,109.055
374539,413,1,H0,1,100,109.036
374639,431,1,H0,1,100,109.021
374740,449,1,H0,1,100,109.021
374840,467,1,H0,1,100,108.994
374942,485,1,H0,1,100,109.005
375033,506,2,H0,1,100,108.975
375125,506,2,H0,1,100,108.979
375223,527,1,H0,1,100,108.952
375323,545,1,H0,1,100,108.948
375424,563,1,H0,1,100,108.941
375526,581,1,H0,1,100,108.925
375626,599,1,H0,1,100,108.914
375729,617,1,H0,1,100,108.902
375829,635,1,H0,1,100,108.887
375931,654,1,H0,1,100,108.880
376030,672,1,H0,1,100,108.864
376131,690,1,H0,1,100,108.864
376234,708,1,H0,1,100,108.841
376335,726,1,H0,1,100,108.841
376435,744,1,H0,1,100,108.815
376535,762,1,H0,1,100,108.811
376637,780,1,H0,1,100,108.803
376738,799,1,H0,1,100,108.792
376840,817,1,H0,1,100,108.792
376939,835,1,H0,1,100,108.765
377040,853,1,H0,1,100,108.754
377143,871,1,H0,1,100,108.750
377242,889,1,H0,1,100,108.746
377293,907,2,H0,1,100,108.731
377345,907,2,H0,1,100,108.716
377445,926,1,H0,1,100,108.697
377546,944,1,H0,1,100,108.697
377647,962,1,H0,1,100,108.677
377748,980,1,H0,1,100,108.666
377850,998,1,H0,1,100,108.666
377949,1016,1,H0,1,100,108.643
378052,1034,1,H0,1,100,108.647
378152,1053,1,H0,1,100,108.632
378254,1071,1,H0,1,100,108.624
378353,1089,1,H0,1,100,108.609
378456,1107,1,H0,1,100,108.590
378556,1125,1,H0,1,100,108.574
378658,1143,1,H0,1,100,108.578
378757,1161,1,H0,1,100,108.552
378858,1179,1,H0,1,100,108.548
378961,1198,1,H0,1,100,108.548
379061,1216,1,H0,1,100,108.536
379162,1234,1,H0,1,100,108.525
379263,1252,1,H0,1,100,108.494
379365,1270,1,H0,1,100,108.502
379465,1288,1,H0,1,100,108.494
379565,1306,1,H0,1,100,108.475
379667,1325,1,H0,1,100,108.468
379770,1343,1,H0,1,100,108.460
379868,1361,1,H0,1,100,108.449
379970,1379,1,H0,1,100,108.433
380072,1397,1,H0,1,100,108.414
380172,1415,1,H0,1,100,108.414
380273,1433,1,H0,1,100,108.399
380323,1451,2,H0,1,100,108.403
380374,1451,2,H0,1,100,108.384
380476,1470,1,H0,1,100,108.376
380576,1488,1,H0,1,100,108.365
380676,1506,1,H0,1,100,108.353
380779,1524,1,H0,1,100,108.338
380879,1542,1,H0,1,100,108.334
380981,1560,1,H0,1,100,108.319
381080,1578,1,H0,1,100,108.307
381181,1597,1,H0,1,100,108.300
381285,1615,1,H0,1,100,108.281
381371,1633,2,H0,1,100,108.273
381458,1633,2,H0,1,100,108.269
381553,1651,1,H0,1,100,108.246
381655,1669,1,H0,1,100,108.246
381754,1687,1,H0,1,100,108.231
381856,1705,1,H0,1,100,108.227
381957,1724,1,H0,1,100,108.208
382057,1742,1,H0,1,100,108.197
382160,1760,1,H0,1,100,108.193
382260,1778,1,H0,1,100,108.162
382362,1796,1,H0,1,100,108.162
382461,1814,1,H0,1,100,108.159
382563,1832,1,H0,1,100,108.151
382664,1851,1,H0,1,100,108.124
382765,1869,1,H0,1,100,108.124
382865,1887,1,H0,1,100,108.101
382967,1905,1,H0,1,100,108.086
383069,1923,1,H0,1,100,108.090
383169,1941,1,H0,1,100,108.071
383270,1959,1,H0,1,100,108.063
383370,1978,1,H0,1,100,108.063
383473,1996,1,H0,1,100,108.037
383572,2014,1,H0,1,100,108.029
383673,2032,1,H0,1,100,108.021
383776,2050,1,H0,1,100,108.014
383876,2068,1,H0,1,100,108.014
383977,2086,1,H0,1,100,107.983
384079,2104,1,H0,1,100,107.979
384178,2123,1,H0,1,100,107.960
384281,2141,1,H0,1,100,107.949
384381,2159,1,H0,1,100,107.934
384481,2177,1,H0,1,100,107.918
384532,2195,2,H0,1,100,107.918
384583,2195,2,H0,1,100,107.918
384685,2213,1,H0,1,100,107.907
384785,2231,1,H0,1,100,107.892
384887,2250,1,H0,1,100,107.884
384987,2268,1,H0,1,100,107.861
385088,2286,1,H0,1,100,107.857
385188,2304,1,H0,1,100,107.842
385291,2322,1,H0,1,100,107.834
385392,2340,1,H0,1,100,107.827
385492,2358,1,H0,1,100,107.815
385594,2376,1,H0,1,100,107.808
385693,2395,1,H0,1,100,107.789
385796,2413,1,H0,1,100,107.789
385896,2431,1,H0,1,100,107.770
385979,2452,2,H0,1,100,107.758
386063,2452,2,H0,1,100,107.739
386158,2472,1,H0,1,100,107.747
386259,2490,1,H0,1,100,107.724
386362,2509,1,H0,1,100,107.712
386461,2527,1,H0,1,100,107.697
386563,2545,1,H0,1,100,107.689
386665,2563,1,H0,1,100,107.693
386766,2581,1,H0,1,100,107.667
386865,2599,1,H0,1,100,107.659
386966,2617,1,H0,1,100,107.644
387069,2635,1,H0,1,100,107.644
387168,2654,1,H0,1,100,107.632
387271,2672,1,H0,1,100,107.617
387372,2690,1,H0,1,100,107.605
387472,2708,1,H0,1,100,107.594
387572,2726,1,H0,1,100,107.586
387675,2744,1,H0,1,100,107.564
387775,2762,1,H0,1,100,107.556
387877,2781,1,H0,1,100,107.548
387976,2799,1,H0,1,100,107.541
388077,2817,1,H0,1,100,107.541
388180,2835,1,H0,1,100,107.525
388281,2853,1,H0,1,100,107.510
388382,2871,1,H0,1,100,107.499
388481,2889,1,H0,1,100,107.491
388582,2907,1,H0,1,100,107.487
388685,2926,1,H0,1,100,107.480
388785,2944,1,H0,1,100,107.453
388886,2962,1,H0,1,100,107.453
388936,2980,2,H0,1,100,107.438
388986,2980,2,H0,1,100,107.438
389089,2998,1,H0,1,100,107.419
389188,3016,1,H0,1,100,107.400
389291,3034,1,H0,1,100,107.396
389391,3053,1,H0,1,100,107.377
389492,3071,1,H0,1,100,107.373
389592,3089,1,H0,1,100,107.361
389695,3107,1,H0,1,100,107.350
389796,3125,1,H0,1,100,107.350
389895,3143,1,H0,1,100,107.335
389998,3161,1,H0,1,100,107.316
390098,3180,1,H0,1,100,107.316
390200,3198,1,H0,1,100,107.289
390299,3216,1,H0,1,100,107.274
390400,3234,1,H0,1,100,107.281
390503,3252,1,H0,1,100,107.255
390603,3270,1,H0,1,100,107.251
390705,3288,1,H0,1,100,107.232
390804,3306,1,H0,1,100,107.232
390905,3325,1,H0,1,100,107.224
391007,3343,1,H0,1,100,107.213
391108,3361,1,H0,1,100,107.197
391208,3379,1,H0,1,100,107.194
391309,3397,1,H0,1,100,107.178
391411,3415,1,H0,1,100,107.167
391512,3433,1,H0,1,100,107.159
391614,3452,1,H0,1,100,107.159
391714,3470,1,H0,1,100,107.132
391816,3488,1,H0,1,100,107.113
391915,3506,1,H0,1,100,107.110
391966,3524,2,H0,1,100,107.094
392017,3524,2,H0,1,100,107.087
392119,3542,1,H0,1,100,107.083
392218,3560,1,H0,1,100,107.064
392321,3579,1,H0,1,100,107.056
392421,3597,1,H0,1,100,107.045
392522,3615,1,H0,1,100,107.029
392622,3633,1,H0,1,100,107.018
392724,3651,1,H0,1,100,107.026
392827,3669,1,H0,1,100,107.003
392927,3687,1,H0,1,100,106.995
393028,3705,1,H0,1,100,106.984
393127,3724,1,H0,1,100,106.976
393230,3742,1,H0,1,100,106.953
393330,3760,1,H0,1,100,106.972
393431,3778,1,H0,1,100,106.942
393531,3796,1,H0,1,100,106.934
393633,3814,1,H0,1,100,106.926
393735,3832,1,H0,1,100,106.904
393834,3851,1,H0,1,100,106.900
393937,3869,1,H0,1,100,106.896
394036,3887,1,H0,1,100,106.885
394139,3905,1,H0,1,100,106.873
394238,3923,1,H0,1,100,106.858
394339,3941,1,H0,1,100,106.865
394441,3959,1,H0,1,100,106.846
394544,3977,1,H0,1,100,106.823
394642,3996,1,H0,1,100,106.816
394744,4014,1,H0,1,100,106.812
394846,4032,1,H0,1,100,106.797
394945,4050,1,H0,1,100,106.793
394996,4068,2,H0,1,100,106.785
395048,4068,2,H0,1,100,106.774
395148,4086,1,H0,1,100,106.743
395250,4104,1,H0,1,100,106.740
395350,4123,1,H0,1,100,106.732
395450,4141,1,H0,1,100,106.724
395552,4159,1,H0,1,100,106.717
395653,4177,1,H0,1,100,106.709
395754,4195,1,H0,1,100,106.686
395854,4213,1,H0,1,100,106.682
395956,4231,1,H0,1,100,106.667
396058,4250,1,H0,1,100,106.659
396159,4268,1,H0,1,100,106.652
396259,4286,1,H0,1,100,106.644
396361,4304,1,H0,1,100,106.633
396460,4322,1,H0,1,100,106.617
396561,4340,1,H0,1,100,106.598
396664,4358,1,H0,1,100,106.598
396763,4376,1,H0,1,100,106.591
397046,4418,1,H0,1,100,106.556
397146,4436,1,H0,1,100,106.545
397249,4454,1,H0,1,100,106.534
397349,4472,1,H0,1,100,106.522
397450,4490,1,H0,1,100,106.511
397550,4509,1,H0,1,100,106.492
397651,4527,1,H0,1,100,106.488
397754,4545,1,H0,1,100,106.488
397854,4563,1,H0,1,100,106.465
397955,4581,1,H0,1,100,106.457
398055,4599,1,H0,1,100,106.457
398157,4617,1,H0,1,100,106.453
398259,4635,1,H0,1,100,106.427
398358,4654,1,H0,1,100,106.423
398461,4672,1,H0,1,100,106.419
398561,4690,1,H0,1,100,106.404
398662,4708,1,H0,1,100,106.389
398762,4726,1,H0,1,100,106.381
398813,4744,2,H0,1,100,106.366
398864,4744,2,H0,1,100,106.347
398966,4762,1,H0,1,100,106.347
399066,4781,1,H0,1,100,106.347
399167,4799,1,H0,1,100,106.339
399269,4817,1,H0,1,100,106.312
399369,4835,1,H0,1,100,106.305
399469,4853,1,H0,1,100,106.297
399572,4871,1,H0,1,100,106.282
399672,4889,1,H0,1,100,106.274
399773,4908,1,H0,1,100,106.274
399874,4926,1,H0,1,100,106.263
399975,4944,1,H0,1,100,106.244
400077,4962,1,H0,1,100,106.247
400176,4980,1,H0,1,100,106.236
400279,4998,1,H0,1,100,106.217
400379,5016,1,H0,1,100,106.209
400481,5034,1,H0,1,100,106.202
400580,5053,1,H0,1,100,106.183
400683,5071,1,H0,1,100,106.190
400783,5089,1,H0,1,100,106.164
400884,5107,1,H0,1,100,106.152
400984,5125,1,H0,1,100,106.152
401085,5143,1,H0,1,100,106.141
401187,5161,1,H0,1,100,106.129
401289,5180,1,H0,1,100,106.122
401390,5198,1,H0,1,100,106.114
401490,5216,1,H0,1,100,106.106
401590,5234,1,H0,1,100,106.095
401692,5252,1,H0,1,100,106.083
401792,5270,1,H0,1,100,106.072
401843,5288,2,H0,1,100,106.064
401895,5288,2,H0,1,100,106.064
401996,5306,1,H0,1,100,106.049
402095,5325,1,H0,1,100,106.034
402196,5343,1,H0,1,100,106.038
402299,5361,1,H0,1,100,106.019
402399,5379,1,H0,1,100,106.003
402501,5397,1,H0,1,100,105.988
402600,5415,1,H0,1,100,106.000
402702,5433,1,H0,1,100,105.977
402804,5452,1,H0,1,100,105.980
402905,5470,1,H0,1,100,105.961
403006,5488,1,H0,1,100,105.958
403105,5506,1,H0,1,100,105.946
403206,5524,1,H0,1,100,105.942
403309,5542,1,H0,1,100,105.931
403408,5560,1,H0,1,100,105.912
403511,5579,1,H0,1,100,105.897
403611,5597,1,H0,1,100,105.889
403713,5615,1,H0,1,100,105.885
403812,5633,1,H0,1,100,105.870
403915,5651,1,H0,1,100,105.858
404015,5669,1,H0,1,100,105.862
404116,5687,1,H0,1,100,105.855
404216,5705,1,H0,1,100,105.847
404319,5724,1,H0,1,100,105.843
404420,5742,1,H0,1,100,105.816
404519,5760,1,H0,1,100,105.813
404622,5778,1,H0,1,100,105.809
404721,5796,1,H0,1,100,105.794
404824,5814,1,H0,1,100,105.794
404923,5832,1,H0,1,100,105.774
405024,5851,1,H0,1,100,105.774
405075,5869,2,H0,1,100,105.771
405127,5869,2,H0,1,100,105.744
405227,5887,1,H0,1,100,105.736
405329,5905,1,H0,1,100,105.736
405428,5923,1,H0,1,100,105.732
405530,5941,1,H0,1,100,105.721
405631,5959,1,H0,1,100,105.706
405732,5977,1,H0,1,100,105.706
405833,5996,1,H0,1,100,105.687
405934,6014,1,H0,1,100,105.687
406035,6032,1,H0,1,100,105.675
406136,6050,1,H0,1,100,105.675
406237,6068,1,H0,1,100,105.652
406338,6086,1,H0,1,100,105.645
406439,6104,1,H0,1,100,105.637
406540,6123,1,H0,1,100,105.622
406642,6141,1,H0,1,100,105.622
406742,6159,1,H0,1,100,105.610
406842,6177,1,H0,1,100,105.610
406945,6195,1,H0,1,100,105.588
407045,6213,1,H0,1,100,105.580
407146,6231,1,H0,1,100,105.568
407246,6250,1,H0,1,100,105.568
407348,6268,1,H0,1,100,105.557
407436,6286,2,H0,1,100,105.546
407524,6286,2,H0,1,100,105.549
407619,6304,1,H0,1,100,105.526
407720,6322,1,H0,1,100,105.523
407803,6343,2,H0,1,100,105.504
407886,6343,2,H0,1,100,105.500
407981,6364,1,H0,1,100,105.504
408082,6382,1,H0,1,100,105.485
408186,6400,1,H0,1,100,105.485
408285,6418,1,H0,1,100,105.465
408386,6436,1,H0,1,100,105.465
408486,6454,1,H0,1,100,105.458
408588,6472,1,H0,1,100,105.446
408688,6490,1,H0,1,100,105.446
408791,6509,1,H0,1,100,105.431
408891,6527,1,H0,1,100,105.408
408993,6545,1,H0,1,100,105.401
409092,6563,1,H0,1,100,105.397
409193,6581,1,H0,1,100,105.393
409296,6599,1,H0,1,100,105.382
409396,6617,1,H0,1,100,105.378
409497,6636,1,H0,1,100,105.355
409597,6654,1,H0,1,100,105.347
409699,6672,1,H0,1,100,105.359
409802,6690,1,H0,1,100,105.343
409902,6708,1,H0,1,100,105.340
410001,6726,1,H0,1,100,105.313
410102,6744,1,H0,1,100,105.313
410205,6762,1,H0,1,100,105.305
410304,6781,1,H0,1,100,105.298
410355,6799,2,H0,1,100,105.282
410407,6799,2,H0,1,100,105.279
410507,6817,1,H0,1,100,105.267
410609,6835,1,H0,1,100,105.267
410708,6853,1,H0,1,100,105.256
410809,6871,1,H0,1,100,105.252
410912,6889,1,H0,1,100,105.240
411011,6908,1,H0,1,100,105.221
411113,6926,1,H0,1,100,105.229
411215,6944,1,H0,1,100,105.221
411316,6962,1,H0,1,100,105.206
411415,6980,1,H0,1,100,105.206
411516,6998,1,H0,1,100,105.187
411618,7016,1,H0,1,100,105.179
411719,7035,1,H0,1,100,105.168
411819,7053,1,H0,1,100,105.156
411921,7071,1,H0,1,100,105.153
412023,7089,1,H0,1,100,105.156
412123,7107,1,H0,1,100,105.137
412224,7125,1,H0,1,100,105.126
412324,7143,1,H0,1,100,105.115
412427,7161,1,H0,1,100,105.115
412526,7180,1,H0,1,100,105.103
412627,7198,1,H0,1,100,105.084
412730,7216,1,H0,1,100,105.088
412830,7234,1,H0,1,100,105.080
412931,7252,1,H0,1,100,105.076
413033,7270,1,H0,1,100,105.061
413133,7288,1,H0,1,100,105.050
413235,7307,1,H0,1,100,105.053
413335,7325,1,H0,1,100,105.042
413436,7343,1,H0,1,100,105.042
413486,7361,2,H0,1,100,105.019
413537,7361,2,H0,1,100,105.012
413639,7379,1,H0,1,100,105.004
413739,7397,1,H0,1,100,104.992
413840,7415,1,H0,1,100,104.981
413941,7433,1,H0,1,100,104.970
414042,7452,1,H0,1,100,104.966
414142,7470,1,H0,1,100,104.962
414245,7488,1,H0,1,100,104.954
414347,7506,1,H0,1,100,104.931
414446,7524,1,H0,1,100,104.931
414547,7542,1,H0,1,100,104.931
414647,7560,1,H0,1,100,104.909
414750,7579,1,H0,1,100,104.909
414849,7597,1,H0,1,100,104.889
414950,7615,1,H0,1,100,104.886
415053,7633,1,H0,1,100,104.878
415153,7651,1,H0,1,100,104.870
415254,7669,1,H0,1,100,104.859
415355,7687,1,H0,1,100,104.847
415457,7706,1,H0,1,100,104.844
415556,7724,1,H0,1,100,104.840
415659,7742,1,H0,1,100,104.821
415758,7760,1,H0,1,100,104.813
415859,7778,1,H0,1,100,104.798
415961,7796,1,H0,1,100,104.802
416063,7814,1,H0,1,100,104.786
416163,7832,1,H0,1,100,104.786
416264,7851,1,H0,1,100,104.764
416366,7869,1,H0,1,100,104.771
416465,7887,1,H0,1,100,104.741
416516,7905,2,H0,1,100,104.744
416567,7905,2,H0,1,100,104.737
416669,7923,1,H0,1,100,104.729
416770,7941,1,H0,1,100,104.733
416869,7959,1,H0,1,100,104.706
416971,7978,1,H0,1,100,104.699
417072,7996,1,H0,1,100,104.695
417172,8014,1,H0,1,100,104.683
417274,8032,1,H0,1,100,104.668
417374,8050,1,H0,1,100,104.661
417476,8068,1,H0,1,100,104.653
417578,8086,1,H0,1,100,104.645
417678,8105,1,H0,1,100,104.634
417781,8123,1,H0,1,100,104.619
417880,8141,1,H0,1,100,104.622
417981,8159,1,H0,1,100,104.603
418081,8177,1,H0,1,100,104.600
418182,8195,1,H0,1,100,104.592
418285,8213,1,H0,1,100,104.580
418386,8231,1,H0,1,100,104.565
418485,8250,1,H0,1,100,104.558
418586,8268,1,H0,1,100,104.554
418869,8309,1,H0,1,100,104.531
418970,8327,1,H0,1,100,104.516
419071,8345,1,H0,1,100,104.500
419171,8364,1,H0,1,100,104.500
419272,8382,1,H0,1,100,104.493
419375,8400,1,H0,1,100,104.474
419475,8418,1,H0,1,100,104.458
419576,8436,1,H0,1,100,104.455
419677,8454,1,H0,1,100,104.447
419779,8472,1,H0,1,100,104.435
419878,8490,1,H0,1,100,104.443
419981,8509,1,H0,1,100,104.420
420081,8527,1,H0,1,100,104.420
420182,8545,1,H0,1,100,104.401
420282,8563,1,H0,1,100,104.390
420383,8581,1,H0,1,100,104.382
420434,8599,2,H0,1,100,104.359
420486,8599,2,H0,1,100,104.359
420586,8617,1,H0,1,100,104.348
420687,8636,1,H0,1,100,104.336
420787,8654,1,H0,1,100,104.332
420890,8672,1,H0,1,100,104.329
420989,8690,1,H0,1,100,104.332
421090,8708,1,H0,1,100,104.306
421193,8726,1,H0,1,100,104.287
421295,8744,1,H0,1,100,104.283
421394,8762,1,H0,1,100,104.275
421494,8781,1,H0,1,100,104.260
421597,8799,1,H0,1,100,104.271
421696,8817,1,H0,1,100,104.249
421798,8835,1,H0,1,100,104.237
421898,8853,1,H0,1,100,104.233
421999,8871,1,H0,1,100,104.222
422102,8889,1,H0,1,100,104.207
422203,8908,1,H0,1,100,104.207
422304,8926,1,H0,1,100,104.195
422403,8944,1,H0,1,100,104.188
422506,8962,1,H0,1,100,104.180
422605,8980,1,H0,1,100,104.168
422706,8998,1,H0,1,100,104.161
422809,9016,1,H0,1,100,104.157
422909,9035,1,H0,1,100,104.138
423010,9053,1,H0,1,100,104.142
423110,9071,1,H0,1,100,104.126
423212,9089,1,H0,1,100,104.115
423312,9107,1,H0,1,100,104.100
423363,9125,2,H0,1,100,104.096
423415,9125,2,H0,1,100,104.085
423515,9143,1,H0,1,100,104.081
423617,9161,1,H0,1,100,104.073
423717,9180,1,H0,1,100,104.073
423817,9198,1,H0,1,100,104.054
423920,9216,1,H0,1,100,104.050
424020,9234,1,H0,1,100,104.027
424121,9252,1,H0,1,100,104.027
424221,9270,1,H0,1,100,104.020
424324,9288,1,H0,1,100,104.008
424426,9307,1,H0,1,100,104.008
424526,9325,1,H0,1,100,103.985
424625,9343,1,H0,1,100,103.985
424726,9361,1,H0,1,100,103.966
424829,9379,1,H0,1,100,103.955
424928,9397,1,H0,1,100,103.962
425030,9415,1,H0,1,100,103.947
425131,9434,1,H0,1,100,103.928
425232,9452,1,H0,1,100,103.928
425333,9470,1,H0,1,100,103.928
425433,9488,1,H0,1,100,103.905
425536,9506,1,H0,1,100,103.894
425635,9524,1,H0,1,100,103.886
425737,9542,1,H0,1,100,103.894
425838,9560,1,H0,1,100,103.875
425939,9579,1,H0,1,100,103.879
426040,9597,1,H0,1,100,103.871
426140,9615,1,H0,1,100,103.852
426242,9633,1,H0,1,100,103.848
426344,9651,1,H0,1,100,103.840
426443,9669,1,H0,1,100,103.833
426544,9687,1,H0,1,100,103.818
426595,9706,2,H0,1,100,103.814
426647,9706,2,H0,1,100,103.791
426747,9724,1,H0,1,100,103.791
426849,9742,1,H0,1,100,103.791
426948,9760,1,H0,1,100,103.760
427050,9778,1,H0,1,100,103.772
427151,9796,1,H0,1,100,103.760
427251,9814,1,H0,1,100,103.753
427354,9832,1,H0,1,100,103.737
427455,9851,1,H0,1,100,103.730
427554,9869,1,H0,1,100,103.726
427656,9887,1,H0,1,100,103.722
427757,9905,1,H0,1,100,103.703
427859,9923,1,H0,1,100,103.703
427959,9941,1,H0,1,100,103.699
428060,9959,1,H0,1,100,103.673
428160,9978,1,H0,1,100,103.665
428262,9996,1,H0,1,100,103.669
428364,10014,1,H0,1,100,103.653
428465,10032,1,H0,1,100,103.653
428565,10050,1,H0,1,100,103.642
428666,10068,1,H0,1,100,103.627
428766,10086,1,H0,1,100,103.627
428868,10105,1,H0,1,100,103.615
428970,10123,1,H0,1,100,103.596
429070,10141,1,H0,1,100,103.608
429172,10159,1,H0,1,100,103.592
429271,10177,1,H0,1,100,103.581
429374,10195,1,H0,1,100,103.573
429473,10213,1,H0,1,100,103.577
429757,10255,1,H0,1,100,103.531
429859,10273,1,H0,1,100,103.528
429958,10291,1,H0,1,100,103.520
430061,10309,1,H0,1,100,103.516
430161,10327,1,H0,1,100,103.505
430262,10345,1,H0,1,100,103.493
430312,10364,2,H0,1,100,103.489
430363,10364,2,H0,1,100,103.470
430465,10382,1,H0,1,100,103.470
430566,10400,1,H0,1,100,103.459
430666,10418,1,H0,1,100,103.447
430767,10436,1,H0,1,100,103.436
430868,10454,1,H0,1,100,103.436
430968,10472,1,H0,1,100,103.428
431071,10490,1,H0,1,100,103.413
431173,10509,1,H0,1,100,103.413
431272,10527,1,H0,1,100,103.417
431373,10545,1,H0,1,100,103.394
431473,10563,1,H0,1,100,103.386
431576,10581,1,H0,1,100,103.379
431676,10599,1,H0,1,100,103.371
431776,10617,1,H0,1,100,103.371
431879,10636,1,H0,1,100,103.356
431979,10654,1,H0,1,100,103.344
432080,10672,1,H0,1,100,103.348
432182,10690,1,H0,1,100,103.314
432283,10708,1,H0,1,100,103.322
432382,10726,1,H0,1,100,103.310
432485,10744,1,H0,1,100,103.310
432584,10762,1,H0,1,100,103.295
432685,10781,1,H0,1,100,103.276
432787,10799,1,H0,1,100,103.283
432889,10817,1,H0,1,100,103.264
432989,10835,1,H0,1,100,103.253
433090,10853,1,H0,1,100,103.238
433192,10871,1,H0,1,100,103.245
433291,10889,1,H0,1,100,103.234
433342,10908,2,H0,1,100,103.226
433394,10908,2,H0,1,100,103.222
433495,10926,1,H0,1,100,103.219
433667,10944,1,H0,1,100,103.207
433762,10962,1,H0,1,100,103.196
433865,10980,1,H0,1,100,103.192
433965,10998,1,H0,1,100,103.177
434066,11016,1,H0,1,100,103.169
434168,11035,1,H0,1,100,103.165
434268,11053,1,H0,1,100,103.158
434369,11071,1,H0,1,100,103.150
434469,11089,1,H0,1,100,103.135
434520,11107,2,H0,1,100,103.127
434571,11107,2,H0,1,100,103.119
434673,11125,1,H0,1,100,103.116
434772,11143,1,H0,1,100,103.100
434875,11162,1,H0,1,100,103.097
434975,11180,1,H0,1,100,103.089
435077,11198,1,H0,1,100,103.085
435176,11216,1,H0,1,100,103.077
435277,11234,1,H0,1,100,103.066
435380,11252,1,H0,1,100,103.058
435482,11270,1,H0,1,100,103.043
435581,11289,1,H0,1,100,103.035
435682,11307,1,H0,1,100,103.013
435784,11325,1,H0,1,100,103.035
435883,11343,1,H0,1,100,103.016
435985,11361,1,H0,1,100,102.997
436085,11379,1,H0,1,100,102.986
436187,11397,1,H0,1,100,102.978
436288,11415,1,H0,1,100,102.982
436388,11434,1,H0,1,100,102.971
436491,11452,1,H0,1,100,102.971
436591,11470,1,H0,1,100,102.955
436692,11488,1,H0,1,100,102.944
436792,11506,1,H0,1,100,102.936
436893,11524,1,H0,1,100,102.932
436996,11542,1,H0,1,100,102.921
437097,11561,1,H0,1,100,102.925
437196,11579,1,H0,1,100,102.913
437297,11597,1,H0,1,100,102.898
437400,11615,1,H0,1,100,102.887
437499,11633,1,H0,1,100,102.879
437601,11651,1,H0,1,100,102.879
437651,11669,2,H0,1,100,102.871
437702,11669,2,H0,1,100,102.864
437803,11687,1,H0,1,100,102.849
437903,11706,1,H0,1,100,102.856
438005,11724,1,H0,1,100,102.845
438107,11742,1,H0,1,100,102.833
438207,11760,1,H0,1,100,102.822
438308,11778,1,H0,1,100,102.818
438408,11796,1,H0,1,100,102.822
438511,11814,1,H0,1,100,102.795
438612,11833,1,H0,1,100,102.795
438712,11851,1,H0,1,100,102.784
438812,11869,1,H0,1,100,102.776
438914,11887,1,H0,1,100,102.772
439016,11905,1,H0,1,100,102.772
439116,11923,1,H0,1,100,102.761
439217,11941,1,H0,1,100,102.749
439318,11960,1,H0,1,100,102.742
439420,11978,1,H0,1,100,102.738
439520,11996,1,H0,1,100,102.727
439620,12014,1,H0,1,100,102.734
439723,12032,1,H0,1,100,102.719
439823,12050,1,H0,1,100,102.707
439924,12068,1,H0,1,100,102.700
440025,12086,1,H0,1,100,102.688
440127,12105,1,H0,1,100,102.692
440227,12123,1,H0,1,100,102.681
440327,12141,1,H0,1,100,102.685
440430,12159,1,H0,1,100,102.654
440513,12180,2,H0,1,100,102.654
440596,12180,2,H0,1,100,102.658
440690,12200,1,H0,1,100,102.643
440791,12218,1,H0,1,100,102.635
440894,12237,1,H0,1,100,102.624
440993,12255,1,H0,1,100,102.627
441095,12273,1,H0,1,100,102.612
441195,12291,1,H0,1,100,102.608
441297,12309,1,H0,1,100,102.604
441399,12327,1,H0,1,100,102.589
441499,12345,1,H0,1,100,102.593
441601,12364,1,H0,1,100,102.574
441700,12382,1,H0,1,100,102.574
441803,12400,1,H0,1,100,102.566
441902,12418,1,H0,1,100,102.555
442004,12436,1,H0,1,100,102.543
442104,12454,1,H0,1,100,102.547
442155,12472,2,H0,1,100,102.536
442206,12472,2,H0,1,100,102.521
442308,12491,1,H0,1,100,102.521
442408,12509,1,H0,1,100,102.513
442510,12527,1,H0,1,100,102.498
442609,12545,1,H0,1,100,102.498
442712,12563,1,H0,1,100,102.490
442812,12581,1,H0,1,100,102.482
442915,12599,1,H0,1,100,102.471
443014,12617,1,H0,1,100,102.475
443115,12636,1,H0,1,100,102.463
443216,12654,1,H0,1,100,102.459
443316,12672,1,H0,1,100,102.456
443419,12690,1,H0,1,100,102.421
443519,12708,1,H0,1,100,102.429
443621,12726,1,H0,1,100,102.425
443721,12744,1,H0,1,100,102.418
443822,12763,1,H0,1,100,102.414
443923,12781,1,H0,1,100,102.402
444025,12799,1,H0,1,100,102.406
444124,12817,1,H0,1,100,102.387
444225,12835,1,H0,1,100,102.395
444328,12853,1,H0,1,100,102.383
444428,12871,1,H0,1,100,102.360
444529,12890,1,H0,1,100,102.368
444630,12908,1,H0,1,100,102.356
444730,12926,1,H0,1,100,102.345
444833,12944,1,H0,1,100,102.349
444932,12962,1,H0,1,100,102.345
444983,12980,2,H0,1,100,102.330
445035,12980,2,H0,1,100,102.318
445135,12998,1,H0,1,100,102.318
445236,13016,1,H0,1,100,102.315
445336,13035,1,H0,1,100,102.299
445439,13053,1,H0,1,100,102.299
445538,13071,1,H0,1,100,102.292
445640,13089,1,H0,1,100,102.276
445740,13107,1,H0,1,100,102.273
445843,13125,1,H0,1,100,102.257
445944,13143,1,H0,1,100,102.250
446044,13162,1,H0,1,100,102.246
446146,13180,1,H0,1,100,102.250
446245,13198,1,H0,1,100,102.242
446348,13216,1,H0,1,100,102.242
