EpochTimestamp,EmotiBitTimestamp,PacketNumber,DataLength,TypeTag,ProtocolVersion,DataReliability,H0
1575307440.487006,176423.000,30236,1,H0,1,100,96.047
1575307440.617473,176533.000,30254,1,H0,1,100,96.039
1575307440.743196,176639.000,30272,1,H0,1,100,96.036
1575307440.880779,176755.000,30290,1,H0,1,100,96.047
1575307441.018362,176871.000,30308,1,H0,1,100,96.032
1575307441.152388,176984.000,30325,1,H0,1,100,96.036
1575307441.279296,177091.000,30343,1,H0,1,100,96.028
1575307441.408577,177200.000,30361,1,H0,1,100,96.036
1575307441.540231,177311.000,30396,1,H0,1,100,96.036
1575307441.676628,177426.000,30414,1,H0,1,100,96.043
1575307441.809467,177538.000,30432,1,H0,1,100,96.032
1575307441.932817,177642.000,30450,1,H0,1,100,96.039
1575307442.066843,177755.000,30468,1,H0,1,100,96.039
1575307442.204426,177871.000,30486,1,H0,1,100,96.039
1575307442.342010,177987.000,30503,1,H0,1,100,96.028
1575307442.468918,178094.000,30522,1,H0,1,100,96.036
1575307442.595827,178201.000,30540,1,H0,1,100,96.036
1575307442.731039,178315.000,30558,1,H0,1,100,96.028
1575307442.869808,178432.000,30592,1,H0,1,100,96.024
1575307443.002647,178544.000,30610,1,H0,1,100,96.028
1575307443.127184,178649.000,30628,1,H0,1,100,96.036
1575307443.260023,178761.000,30646,1,H0,1,100,96.032
1575307443.394048,178874.000,30665,1,H0,1,100,96.039
1575307443.531631,178990.000,30683,1,H0,1,100,96.036
1575307443.666843,179104.000,30700,1,H0,1,100,96.032
1575307443.794938,179212.000,30718,1,H0,1,100,96.028
1575307443.925405,179322.000,30736,1,H0,1,100,96.039
1575307444.065360,179440.000,30770,1,H0,1,100,96.028
1575307444.200572,179554.000,30788,1,H0,1,100,96.032
1575307444.333411,179666.000,30806,1,H0,1,100,96.036
1575307444.470994,179782.000,30825,1,H0,1,100,96.036
1575307444.596717,179888.000,30843,1,H0,1,100,96.028
1575307444.723626,179995.000,30861,1,H0,1,100,96.028
1575307444.860023,180110.000,30878,1,H0,1,100,96.036
1575307444.998792,180227.000,30896,1,H0,1,100,96.036
1575307445.128073,180336.000,30930,1,H0,1,100,96.028
1575307445.256168,180444.000,30948,1,H0,1,100,96.039
1575307445.390193,180557.000,30967,1,H0,1,100,96.032
1575307445.527777,180673.000,30985,1,H0,1,100,96.043
1575307445.664174,180788.000,31003,1,H0,1,100,96.032
1575307445.792269,180896.000,31021,1,H0,1,100,96.039
1575307445.919178,181003.000,31039,1,H0,1,100,96.036
1575307446.057947,181120.000,31056,1,H0,1,100,96.043
1575307446.193159,181234.000,31074,1,H0,1,100,96.043
1575307446.329556,181349.000,31109,1,H0,1,100,96.043
1575307446.456465,181456.000,31130,2,H0,1,100,96.039
1575307446.583374,181563.000,31130,2,H0,1,100,96.043
1575307446.719771,181678.000,31149,1,H0,1,100,96.043
1575307446.860913,181797.000,31167,1,H0,1,100,96.036
1575307446.998496,181913.000,31201,1,H0,1,100,96.036
1575307447.134893,182028.000,31219,1,H0,1,100,96.032
1575307447.273663,182145.000,31237,1,H0,1,100,96.043
1575307447.406502,182257.000,31256,1,H0,1,100,96.036
1575307447.545272,182374.000,31274,1,H0,1,100,96.051
1575307447.674552,182483.000,31292,1,H0,1,100,96.047
1575307447.806206,182594.000,31309,1,H0,1,100,96.055
1575307447.933114,182701.000,31327,1,H0,1,100,96.051
1575307448.067140,182814.000,31345,1,H0,1,100,96.062
1575307448.203537,182929.000,31379,1,H0,1,100,96.055
1575307448.338748,183043.000,31398,1,H0,1,100,96.058
1575307448.471587,183155.000,31416,1,H0,1,100,96.062
1575307448.597310,183261.000,31434,1,H0,1,100,96.066
1575307448.727777,183371.000,31452,1,H0,1,100,96.070
1575307448.865360,183487.000,31470,1,H0,1,100,96.066
1575307449.006502,183606.000,31487,1,H0,1,100,96.058
1575307449.128667,183709.000,31505,1,H0,1,100,96.074
1575307449.257948,183818.000,31523,1,H0,1,100,96.074
1575307449.395531,183934.000,31558,1,H0,1,100,96.081
1575307449.531928,184049.000,31576,1,H0,1,100,96.074
1575307449.667140,184163.000,31594,1,H0,1,100,96.062
1575307449.794049,184270.000,31612,1,H0,1,100,96.077
1575307449.923330,184379.000,31630,1,H0,1,100,96.085
1575307450.060913,184495.000,31648,1,H0,1,100,96.081
1575307450.196124,184609.000,31665,1,H0,1,100,96.089
1575307450.325405,184718.000,31683,1,H0,1,100,96.089
1575307450.451128,184824.000,31702,1,H0,1,100,96.089
1575307450.582781,184935.000,31720,1,H0,1,100,96.100
1575307450.719178,185050.000,31754,1,H0,1,100,96.093
1575307450.861506,185170.000,31772,1,H0,1,100,96.085
1575307451.000275,185287.000,31790,1,H0,1,100,96.104
1575307451.136673,185402.000,31808,1,H0,1,100,96.100
1575307451.279001,185522.000,31825,1,H0,1,100,96.112
1575307451.413026,185635.000,31844,1,H0,1,100,96.093
1575307451.550609,185751.000,31878,1,H0,1,100,96.108
1575307451.677518,185858.000,31896,1,H0,1,100,96.100
1575307451.812729,185972.000,31914,1,H0,1,100,96.116
1575307451.939638,186079.000,31932,1,H0,1,100,96.116
1575307452.076035,186194.000,31950,1,H0,1,100,96.116
1575307452.213619,186310.000,31968,1,H0,1,100,96.108
1575307452.351202,186426.000,31986,1,H0,1,100,96.112
1575307452.478111,186533.000,32004,1,H0,1,100,96.116
1575307452.606206,186641.000,32025,1,H0,1,100,96.112
1575307452.739045,186753.000,32043,1,H0,1,100,96.116
1575307452.876628,186869.000,32061,1,H0,1,100,96.112
1575307453.013026,186984.000,32081,1,H0,1,100,96.119
1575307453.138748,187090.000,32099,1,H0,1,100,96.116
1575307453.269216,187200.000,32116,1,H0,1,100,96.123
1575307453.407985,187317.000,32134,1,H0,1,100,96.116
1575307453.544382,187432.000,32169,1,H0,1,100,96.116
1575307453.673663,187541.000,32187,1,H0,1,100,96.119
1575307453.801758,187649.000,32205,1,H0,1,100,96.119
1575307453.934597,187761.000,32223,1,H0,1,100,96.119
1575307454.073367,187878.000,32241,1,H0,1,100,96.123
1575307454.212136,187995.000,32259,1,H0,1,100,96.119
1575307454.335487,188099.000,32277,1,H0,1,100,96.119
1575307454.464768,188208.000,32295,1,H0,1,100,96.119
1575307454.597607,188320.000,32313,1,H0,1,100,96.123
1575307454.734004,188435.000,32347,1,H0,1,100,96.123
1575307454.876332,188555.000,32365,1,H0,1,100,96.127
1575307455.016288,188673.000,32383,1,H0,1,100,96.119
1575307455.153871,188789.000,32401,1,H0,1,100,96.119
1575307455.296199,188909.000,32418,1,H0,1,100,96.123
1575307455.433782,189025.000,32437,1,H0,1,100,96.127
1575307455.563063,189134.000,32455,1,H0,1,100,96.119
1575307455.699460,189249.000,32489,1,H0,1,100,96.123
1575307455.826369,189356.000,32507,1,H0,1,100,96.123
1575307455.952092,189462.000,32525,1,H0,1,100,96.123
1575307456.089675,189578.000,32543,1,H0,1,100,96.119
1575307456.227259,189694.000,32561,1,H0,1,100,96.123
1575307456.358912,189805.000,32579,1,H0,1,100,96.119
1575307456.487007,189913.000,32598,1,H0,1,100,96.127
1575307456.619846,190025.000,32615,1,H0,1,100,96.123
1575307456.752685,190137.000,32633,1,H0,1,100,96.123
1575307456.891454,190254.000,32667,1,H0,1,100,96.123
1575307457.020736,190363.000,32685,1,H0,1,100,96.127
1575307457.146458,190469.000,32703,1,H0,1,100,96.123
1575307457.281669,190583.000,32721,1,H0,1,100,96.119
1575307457.421625,190701.000,32740,1,H0,1,100,96.123
1575307457.559208,190817.000,32758,1,H0,1,100,96.127
1575307457.683745,190922.000,32776,1,H0,1,100,96.119
1575307457.814212,191032.000,32793,1,H0,1,100,96.127
1575307457.949423,191146.000,32811,1,H0,1,100,96.119
1575307458.087007,191262.000,32845,1,H0,1,100,96.116
1575307458.219846,191374.000,32863,1,H0,1,100,96.119
1575307458.343197,191478.000,32882,1,H0,1,100,96.127
1575307458.479594,191593.000,32900,1,H0,1,100,96.123
1575307458.614805,191707.000,32921,2,H0,1,100,96.116
1575307458.750016,191821.000,32921,2,H0,1,100,96.127
1575307458.892344,191941.000,32957,1,H0,1,100,96.123
1575307459.026369,192054.000,32975,1,H0,1,100,96.119
1575307459.163953,192170.000,32993,1,H0,1,100,96.127
1575307459.303908,192288.000,33011,1,H0,1,100,96.123
1575307459.441492,192404.000,33029,1,H0,1,100,96.119
1575307459.579075,192520.000,33047,1,H0,1,100,96.127
1575307459.713100,192633.000,33081,1,H0,1,100,96.123
1575307459.841195,192741.000,33099,1,H0,1,100,96.123
1575307459.969290,192849.000,33117,1,H0,1,100,96.131
1575307460.108059,192966.000,33135,1,H0,1,100,96.127
1575307460.248015,193084.000,33153,1,H0,1,100,96.116
1575307460.372552,193189.000,33171,1,H0,1,100,96.131
1575307460.500647,193297.000,33190,1,H0,1,100,96.123
1575307460.635858,193411.000,33207,1,H0,1,100,96.127
1575307460.768697,193523.000,33225,1,H0,1,100,96.123
1575307460.907466,193640.000,33259,1,H0,1,100,96.127
1575307461.034375,193747.000,33277,1,H0,1,100,96.119
1575307461.163656,193856.000,33295,1,H0,1,100,96.123
1575307461.297682,193969.000,33313,1,H0,1,100,96.119
1575307461.437637,194087.000,33332,1,H0,1,100,96.119
1575307461.569290,194198.000,33350,1,H0,1,100,96.119
1575307461.695013,194304.000,33368,1,H0,1,100,96.131
1575307461.830224,194418.000,33386,1,H0,1,100,96.119
1575307461.966621,194533.000,33403,1,H0,1,100,96.123
1575307462.104205,194649.000,33421,1,H0,1,100,96.123
1575307462.232300,194757.000,33455,1,H0,1,100,96.123
1575307462.355650,194861.000,33474,1,H0,1,100,96.127
1575307462.494420,194978.000,33492,1,H0,1,100,96.123
1575307462.632003,195094.000,33510,1,H0,1,100,96.119
1575307462.768401,195209.000,33528,1,H0,1,100,96.119
1575307462.910728,195329.000,33545,1,H0,1,100,96.119
1575307463.049498,195446.000,33563,1,H0,1,100,96.119
1575307463.185895,195561.000,33597,1,H0,1,100,96.119
1575307463.328223,195681.000,33615,1,H0,1,100,96.119
1575307463.461062,195793.000,33634,1,H0,1,100,96.123
1575307463.602204,195912.000,33652,1,H0,1,100,96.112
1575307463.729112,196019.000,33670,1,H0,1,100,96.119
1575307463.859579,196129.000,33688,1,H0,1,100,96.112
1575307463.991232,196240.000,33705,1,H0,1,100,96.116
1575307464.130002,196357.000,33723,1,H0,1,100,96.112
1575307464.266399,196472.000,33757,1,H0,1,100,96.112
1575307464.405169,196589.000,33776,1,H0,1,100,96.112
1575307464.535636,196699.000,33794,1,H0,1,100,96.116
1575307464.663731,196807.000,33815,2,H0,1,100,96.116
1575307464.791826,196915.000,33815,2,H0,1,100,96.123
1575307464.929409,197031.000,33833,1,H0,1,100,96.112
1575307465.068178,197148.000,33869,1,H0,1,100,96.108
1575307465.191529,197252.000,33887,1,H0,1,100,96.112
1575307465.320810,197361.000,33905,1,H0,1,100,96.112
1575307465.458393,197477.000,33924,1,H0,1,100,96.104
1575307465.594791,197592.000,33942,1,H0,1,100,96.108
1575307465.727630,197704.000,33960,1,H0,1,100,96.112
1575307465.854539,197811.000,33978,1,H0,1,100,96.104
1575307465.983820,197920.000,33995,1,H0,1,100,96.108
1575307466.122589,198037.000,34013,1,H0,1,100,96.108
1575307466.258986,198152.000,34047,1,H0,1,100,96.108
1575307466.387081,198260.000,34066,1,H0,1,100,96.100
1575307466.512804,198366.000,34084,1,H0,1,100,96.100
1575307466.644457,198477.000,34102,1,H0,1,100,96.100
1575307466.779669,198591.000,34120,1,H0,1,100,96.097
1575307466.920810,198710.000,34138,1,H0,1,100,96.097
1575307467.059580,198827.000,34155,1,H0,1,100,96.097
1575307467.195977,198942.000,34173,1,H0,1,100,96.097
1575307467.338305,199062.000,34207,1,H0,1,100,96.097
1575307467.475888,199178.000,34226,1,H0,1,100,96.093
1575307467.609913,199291.000,34244,1,H0,1,100,96.097
1575307467.736822,199398.000,34262,1,H0,1,100,96.100
1575307467.870847,199511.000,34280,1,H0,1,100,96.089
1575307467.997756,199618.000,34298,1,H0,1,100,96.089
1575307468.135339,199734.000,34315,1,H0,1,100,96.089
1575307468.272923,199850.000,34333,1,H0,1,100,96.093
1575307468.408134,199964.000,34368,1,H0,1,100,96.089
1575307468.535043,200071.000,34386,1,H0,1,100,96.085
1575307468.664324,200180.000,34404,1,H0,1,100,96.085
1575307468.797163,200292.000,34422,1,H0,1,100,96.093
1575307468.934747,200408.000,34440,1,H0,1,100,96.089
1575307469.068772,200521.000,34458,1,H0,1,100,96.081
1575307469.193308,200626.000,34476,1,H0,1,100,96.093
1575307469.326148,200738.000,34493,1,H0,1,100,96.085
1575307469.464917,200855.000,34512,1,H0,1,100,96.077
1575307469.601314,200970.000,34530,1,H0,1,100,96.085
1575307469.729409,201078.000,34564,1,H0,1,100,96.085
1575307469.857504,201186.000,34582,1,H0,1,100,96.089
1575307469.989157,201297.000,34600,1,H0,1,100,96.085
1575307470.127927,201414.000,34618,1,H0,1,100,96.085
1575307470.264324,201529.000,34636,1,H0,1,100,96.081
1575307470.387675,201633.000,34654,1,H0,1,100,96.077
1575307470.519328,201744.000,34673,1,H0,1,100,96.081
1575307470.656911,201860.000,34690,1,H0,1,100,96.081
1575307470.787378,201970.000,34711,1,H0,1,100,96.081
1575307470.928520,202089.000,34731,1,H0,1,100,96.077
1575307471.067289,202206.000,34749,1,H0,1,100,96.070
1575307471.198942,202317.000,34766,1,H0,1,100,96.074
1575307471.337712,202434.000,34784,1,H0,1,100,96.070
1575307471.475295,202550.000,34819,1,H0,1,100,96.070
1575307471.602204,202657.000,34837,1,H0,1,100,96.074
1575307471.737415,202771.000,34855,1,H0,1,100,96.066
1575307471.864324,202878.000,34873,1,H0,1,100,96.066
1575307471.991233,202985.000,34891,1,H0,1,100,96.066
1575307472.128816,203101.000,34909,1,H0,1,100,96.074
1575307472.266400,203217.000,34927,1,H0,1,100,96.070
1575307472.395681,203326.000,34944,1,H0,1,100,96.066
1575307472.524962,203435.000,34963,1,H0,1,100,96.066
1575307472.658987,203548.000,34981,1,H0,1,100,96.070
1575307472.791826,203660.000,35015,1,H0,1,100,96.070
1575307472.931782,203778.000,35033,1,H0,1,100,96.062
1575307473.059876,203886.000,35051,1,H0,1,100,96.070
1575307473.186785,203993.000,35069,1,H0,1,100,96.058
1575307473.321996,204107.000,35087,1,H0,1,100,96.058
1575307473.461952,204225.000,35106,1,H0,1,100,96.062
1575307473.597163,204339.000,35123,1,H0,1,100,96.055
1575307473.721700,204444.000,35141,1,H0,1,100,96.066
1575307473.853353,204555.000,35159,1,H0,1,100,96.058
1575307473.988564,204669.000,35193,1,H0,1,100,96.070
1575307474.126148,204785.000,35211,1,H0,1,100,96.058
1575307474.258987,204897.000,35229,1,H0,1,100,96.055
1575307474.382338,205001.000,35248,1,H0,1,100,96.055
1575307474.518735,205116.000,35266,1,H0,1,100,96.055
1575307474.656318,205232.000,35284,1,H0,1,100,96.051
1575307474.790344,205345.000,35301,1,H0,1,100,96.055
1575307474.931485,205464.000,35319,1,H0,1,100,96.047
1575307475.069068,205580.000,35353,1,H0,1,100,96.047
1575307475.203094,205693.000,35371,1,H0,1,100,96.036
1575307475.341863,205810.000,35389,1,H0,1,100,96.043
1575307475.479447,205926.000,35408,1,H0,1,100,96.043
1575307475.603983,206031.000,35426,1,H0,1,100,96.051
1575307475.736822,206143.000,35444,1,H0,1,100,96.039
1575307475.864917,206251.000,35462,1,H0,1,100,96.039
1575307475.995384,206361.000,35479,1,H0,1,100,96.039
1575307476.134154,206478.000,35497,1,H0,1,100,96.036
1575307476.274109,206596.000,35531,1,H0,1,100,96.039
1575307476.397460,206700.000,35550,1,H0,1,100,96.036
1575307476.527927,206810.000,35568,1,H0,1,100,96.028
1575307476.663138,206924.000,35586,1,H0,1,100,96.039
1575307476.795977,207036.000,35607,1,H0,1,100,96.032
1575307476.933561,207152.000,35627,1,H0,1,100,96.028
1575307477.061656,207260.000,35645,1,H0,1,100,96.028
1575307477.192123,207370.000,35663,1,H0,1,100,96.036
1575307477.327334,207484.000,35681,1,H0,1,100,96.032
1575307477.467290,207602.000,35700,1,H0,1,100,96.028
1575307477.597757,207712.000,35718,1,H0,1,100,96.020
1575307477.725852,207820.000,35736,1,H0,1,100,96.020
1575307477.858691,207932.000,35753,1,H0,1,100,96.024
1575307477.995088,208047.000,35771,1,H0,1,100,96.020
1575307478.132671,208163.000,35805,1,H0,1,100,96.016
1575307478.259580,208270.000,35823,1,H0,1,100,96.013
1575307478.382931,208374.000,35842,1,H0,1,100,96.024
1575307478.521700,208491.000,35860,1,H0,1,100,96.016
1575307478.659284,208607.000,35878,1,H0,1,100,96.013
1575307478.795681,208722.000,35896,1,H0,1,100,96.009
1575307478.938009,208842.000,35913,1,H0,1,100,96.009
1575307479.076778,208959.000,35931,1,H0,1,100,96.016
1575307479.213176,209074.000,35965,1,H0,1,100,96.009
1575307479.353131,209192.000,35983,1,H0,1,100,96.009
1575307479.484784,209303.000,36002,1,H0,1,100,96.005
1575307479.608135,209407.000,36020,1,H0,1,100,96.016
1575307479.746904,209524.000,36038,1,H0,1,100,96.009
1575307479.876185,209633.000,36056,1,H0,1,100,96.016
1575307480.009024,209745.000,36073,1,H0,1,100,96.005
1575307480.148980,209863.000,36091,1,H0,1,100,96.013
1575307480.281819,209975.000,36125,1,H0,1,100,96.009
1575307480.405170,210079.000,36144,1,H0,1,100,96.005
1575307480.538009,210191.000,36162,1,H0,1,100,96.001
1575307480.673220,210305.000,36180,1,H0,1,100,96.001
1575307480.806059,210417.000,36198,1,H0,1,100,96.009
1575307480.937712,210528.000,36216,1,H0,1,100,95.997
1575307481.065807,210636.000,36234,1,H0,1,100,96.005
1575307481.198646,210748.000,36252,1,H0,1,100,95.997
1575307481.333858,210862.000,36269,1,H0,1,100,96.005
1575307481.474999,210981.000,36287,1,H0,1,100,95.997
1575307481.599536,211086.000,36306,1,H0,1,100,95.997
1575307481.730003,211196.000,36340,1,H0,1,100,95.997
1575307481.864028,211309.000,36358,1,H0,1,100,96.001
1575307482.000426,211424.000,36376,1,H0,1,100,96.001
1575307482.134451,211537.000,36394,1,H0,1,100,96.001
1575307482.260174,211643.000,36412,1,H0,1,100,95.990
1575307482.388268,211751.000,36430,1,H0,1,100,95.997
1575307482.528224,211869.000,36448,1,H0,1,100,95.994
1575307482.664621,211984.000,36466,1,H0,1,100,95.997
1575307482.793902,212093.000,36484,1,H0,1,100,95.994
1575307482.932672,212210.000,36505,1,H0,1,100,95.990
1575307483.071441,212327.000,36525,1,H0,1,100,95.994
1575307483.206652,212441.000,36542,1,H0,1,100,95.986
1575307483.347794,212560.000,36576,1,H0,1,100,95.997
1575307483.474703,212667.000,36595,1,H0,1,100,95.994
1575307483.601612,212774.000,36613,1,H0,1,100,95.994
1575307483.740381,212891.000,36631,1,H0,1,100,95.994
1575307483.873220,213003.000,36649,1,H0,1,100,95.997
1575307484.007246,213116.000,36667,1,H0,1,100,95.994
1575307484.148387,213235.000,36684,1,H0,1,100,95.990
1575307484.276482,213343.000,36702,1,H0,1,100,95.997
1575307484.401019,213448.000,36720,1,H0,1,100,95.997
1575307484.538602,213564.000,36739,1,H0,1,100,95.997
1575307484.676186,213680.000,36773,1,H0,1,100,95.994
1575307484.809025,213792.000,36791,1,H0,1,100,95.986
1575307484.935934,213899.000,36809,1,H0,1,100,95.986
1575307485.066401,214009.000,36827,1,H0,1,100,95.982
1575307485.202798,214124.000,36845,1,H0,1,100,95.994
1575307485.338009,214238.000,36863,1,H0,1,100,95.990
1575307485.473220,214352.000,36881,1,H0,1,100,95.982
1575307485.597757,214457.000,36899,1,H0,1,100,95.986
1575307485.734154,214572.000,36917,1,H0,1,100,95.986
1575307485.868180,214685.000,36951,1,H0,1,100,95.994
1575307486.005763,214801.000,36969,1,H0,1,100,95.986
1575307486.133858,214909.000,36987,1,H0,1,100,95.982
1575307486.260767,215016.000,37005,1,H0,1,100,95.990
1575307486.393606,215128.000,37023,1,H0,1,100,95.990
1575307486.535933,215248.000,37042,1,H0,1,100,95.990
1575307486.673517,215364.000,37059,1,H0,1,100,95.990
1575307486.807542,215477.000,37077,1,H0,1,100,95.978
1575307486.949870,215597.000,37111,1,H0,1,100,95.994
1575307487.087453,215713.000,37129,1,H0,1,100,95.990
1575307487.221478,215826.000,37147,1,H0,1,100,95.990
1575307487.356690,215940.000,37165,1,H0,1,100,95.990
1575307487.485971,216049.000,37184,1,H0,1,100,95.982
1575307487.614066,216157.000,37202,1,H0,1,100,95.982
1575307487.743346,216266.000,37220,1,H0,1,100,95.982
1575307487.878558,216380.000,37237,1,H0,1,100,95.994
1575307488.012583,216493.000,37255,1,H0,1,100,95.994
1575307488.150167,216609.000,37289,1,H0,1,100,95.994
1575307488.275889,216715.000,37307,1,H0,1,100,95.986
1575307488.403984,216823.000,37326,1,H0,1,100,95.990
1575307488.540381,216938.000,37344,1,H0,1,100,95.982
1575307488.679151,217055.000,37362,1,H0,1,100,95.978
1575307488.811990,217167.000,37380,1,H0,1,100,95.982
1575307488.937713,217273.000,37399,1,H0,1,100,95.978
1575307489.072924,217387.000,37417,1,H0,1,100,95.978
1575307489.210507,217503.000,37437,1,H0,1,100,95.974
1575307489.348091,217619.000,37455,1,H0,1,100,95.982
1575307489.476186,217727.000,37474,1,H0,1,100,95.974
1575307489.603095,217834.000,37492,1,H0,1,100,95.978
1575307489.741864,217951.000,37509,1,H0,1,100,95.974
1575307489.877075,218065.000,37527,1,H0,1,100,95.971
1575307490.013473,218180.000,37561,1,H0,1,100,95.978
1575307490.138009,218285.000,37579,1,H0,1,100,95.978
1575307490.270849,218397.000,37597,1,H0,1,100,95.982
1575307490.394199,218501.000,37616,1,H0,1,100,95.974
1575307490.532969,218618.000,37634,1,H0,1,100,95.967
1575307490.670552,218734.000,37652,1,H0,1,100,95.971
1575307490.805763,218848.000,37669,1,H0,1,100,95.974
1575307490.948091,218968.000,37687,1,H0,1,100,95.971
1575307491.084488,219083.000,37721,1,H0,1,100,95.974
1575307491.220886,219198.000,37739,1,H0,1,100,95.971
1575307491.358469,219314.000,37757,1,H0,1,100,95.967
1575307491.493680,219428.000,37776,1,H0,1,100,95.971
1575307491.618217,219533.000,37794,1,H0,1,100,95.963
1575307491.752242,219646.000,37812,1,H0,1,100,95.963
1575307491.888640,219761.000,37829,1,H0,1,100,95.971
1575307492.022665,219874.000,37847,1,H0,1,100,95.959
1575307492.155504,219986.000,37865,1,H0,1,100,95.959
1575307492.282413,220093.000,37899,1,H0,1,100,95.959
1575307492.410508,220201.000,37918,1,H0,1,100,95.963
1575307492.548091,220317.000,37936,1,H0,1,100,95.959
1575307492.689233,220436.000,37954,1,H0,1,100,95.967
1575307492.813769,220541.000,37972,1,H0,1,100,95.955
1575307492.940678,220648.000,37990,1,H0,1,100,95.955
1575307493.078262,220764.000,38008,1,H0,1,100,95.963
1575307493.214659,220879.000,38025,1,H0,1,100,95.963
1575307493.349870,220993.000,38043,1,H0,1,100,95.963
1575307493.476779,221100.000,38078,1,H0,1,100,95.967
1575307493.603688,221207.000,38096,1,H0,1,100,95.959
1575307493.742457,221324.000,38114,1,H0,1,100,95.967
1575307493.878855,221439.000,38132,1,H0,1,100,95.948
1575307494.008136,221548.000,38150,1,H0,1,100,95.959
1575307494.132672,221653.000,38168,1,H0,1,100,95.955
1575307494.270256,221769.000,38186,1,H0,1,100,95.955
1575307494.395978,221875.000,38204,1,H0,1,100,95.952
1575307494.532376,221990.000,38222,1,H0,1,100,95.948
1575307494.669959,222106.000,38240,1,H0,1,100,95.952
1575307494.795682,222212.000,38274,1,H0,1,100,95.948
1575307494.935045,222329.500,38293,2,H0,1,100,95.955
1575307495.074407,222447.000,38293,2,H0,1,100,95.948
1575307495.210804,222562.000,38315,1,H0,1,100,95.948
1575307495.351946,222681.000,38349,1,H0,1,100,95.948
1575307495.482413,222791.000,38368,1,H0,1,100,95.952
1575307495.606950,222896.000,38386,1,H0,1,100,95.948
1575307495.744533,223012.000,38404,1,H0,1,100,95.948
1575307495.882117,223128.000,38422,1,H0,1,100,95.940
1575307496.017328,223242.000,38440,1,H0,1,100,95.948
1575307496.144237,223349.000,38458,1,H0,1,100,95.940
1575307496.274704,223459.000,38475,1,H0,1,100,95.936
1575307496.406357,223570.000,38493,1,H0,1,100,95.948
1575307496.543940,223686.000,38528,1,H0,1,100,95.940
1575307496.681524,223802.000,38546,1,H0,1,100,95.944
1575307496.806060,223907.000,38564,1,H0,1,100,95.948
1575307496.936527,224017.000,38582,1,H0,1,100,95.940
1575307497.076483,224135.000,38600,1,H0,1,100,95.940
1575307497.212880,224250.000,38618,1,H0,1,100,95.944
1575307497.344533,224361.000,38636,1,H0,1,100,95.936
1575307497.470256,224467.000,38654,1,H0,1,100,95.933
1575307497.601909,224578.000,38672,1,H0,1,100,95.936
1575307497.740679,224695.000,38706,1,H0,1,100,95.944
1575307497.879448,224812.000,38724,1,H0,1,100,95.940
1575307498.002799,224916.000,38742,1,H0,1,100,95.933
1575307498.132080,225025.000,38760,1,H0,1,100,95.921
1575307498.257802,225131.000,38778,1,H0,1,100,95.944
1575307498.389455,225242.000,38796,1,H0,1,100,95.936
1575307498.529411,225360.000,38815,1,H0,1,100,95.944
1575307498.668180,225477.000,38832,1,H0,1,100,95.940
1575307498.799834,225588.000,38850,1,H0,1,100,95.940
1575307498.938603,225705.000,38884,1,H0,1,100,95.929
1575307499.076186,225821.000,38902,1,H0,1,100,95.936
1575307499.210212,225934.000,38920,1,H0,1,100,95.944
1575307499.348981,226051.000,38938,1,H0,1,100,95.936
1575307499.475890,226158.000,38957,1,H0,1,100,95.921
1575307499.601613,226264.000,38975,1,H0,1,100,95.925
1575307499.739196,226380.000,38992,1,H0,1,100,95.940
1575307499.877965,226497.000,39010,1,H0,1,100,95.933
1575307500.014363,226612.000,39044,1,H0,1,100,95.933
1575307500.155504,226731.000,39062,1,H0,1,100,95.921
1575307500.282413,226838.000,39080,1,H0,1,100,95.933
1575307500.406950,226943.000,39099,1,H0,1,100,95.921
1575307500.543347,227058.000,39117,1,H0,1,100,95.929
1575307500.680931,227174.000,39135,1,H0,1,100,95.921
1575307500.816142,227288.000,39153,1,H0,1,100,95.933
1575307500.940679,227393.000,39170,1,H0,1,100,95.936
1575307501.073518,227505.000,39191,1,H0,1,100,95.936
1575307501.211101,227621.000,39211,1,H0,1,100,95.917
1575307501.347499,227736.000,39229,1,H0,1,100,95.929
1575307501.480338,227848.000,39248,1,H0,1,100,95.929
1575307501.602502,227951.000,39266,1,H0,1,100,95.929
1575307501.738900,228066.000,39283,1,H0,1,100,95.921
1575307501.872925,228179.000,39301,1,H0,1,100,95.917
1575307502.010508,228295.000,39335,1,H0,1,100,95.925
1575307502.137417,228402.000,39353,1,H0,1,100,95.921
1575307502.269070,228513.000,39371,1,H0,1,100,95.925
1575307502.393607,228618.000,39390,1,H0,1,100,95.921
1575307502.526446,228730.000,39408,1,H0,1,100,95.933
1575307502.652169,228836.000,39426,1,H0,1,100,95.929
1575307502.787380,228950.000,39444,1,H0,1,100,95.921
1575307502.929708,229070.000,39461,1,H0,1,100,95.925
1575307503.067291,229186.000,39479,1,H0,1,100,95.917
1575307503.201316,229299.000,39513,1,H0,1,100,95.910
1575307503.335341,229412.000,39531,1,H0,1,100,95.910
1575307503.464622,229521.000,39550,1,H0,1,100,95.917
1575307503.591531,229628.000,39568,1,H0,1,100,95.906
1575307503.721998,229738.000,39586,1,H0,1,100,95.910
1575307503.857210,229852.000,39604,1,H0,1,100,95.917
1575307503.991235,229965.000,39622,1,H0,1,100,95.917
1575307504.128818,230081.000,39639,1,H0,1,100,95.925
1575307504.254541,230187.000,39657,1,H0,1,100,95.913
1575307504.381450,230294.000,39675,1,H0,1,100,95.913
1575307504.519033,230410.000,39710,1,H0,1,100,95.910
1575307504.657803,230527.000,39728,1,H0,1,100,95.913
1575307504.787084,230636.000,39746,1,H0,1,100,95.913
1575307504.912807,230742.000,39764,1,H0,1,100,95.910
1575307505.049204,230857.000,39782,1,H0,1,100,95.913
1575307505.185601,230972.000,39800,1,H0,1,100,95.910
1575307505.323184,231088.000,39817,1,H0,1,100,95.913
1575307505.451279,231196.000,39836,1,H0,1,100,95.906
1575307505.574630,231300.000,39854,1,H0,1,100,95.902
1575307505.713399,231417.000,39871,1,H0,1,100,95.913
1575307505.848611,231531.000,39906,1,H0,1,100,95.913
1575307505.982636,231644.000,39924,1,H0,1,100,95.910
1575307506.107173,231749.000,39942,1,H0,1,100,95.913
1575307506.242384,231863.000,39960,1,H0,1,100,95.910
1575307506.366921,231968.000,39978,1,H0,1,100,95.902
1575307506.503318,232083.000,39997,1,H0,1,100,95.917
1575307506.638529,232197.000,40014,1,H0,1,100,95.906
1575307506.761880,232301.000,40032,1,H0,1,100,95.913
1575307506.899463,232417.000,40050,1,H0,1,100,95.910
1575307507.037047,232533.000,40087,2,H0,1,100,95.917
1575307507.174630,232649.000,40087,2,H0,1,100,95.898
1575307507.309841,232763.000,40105,1,H0,1,100,95.910
1575307507.445053,232877.000,40125,1,H0,1,100,95.910
1575307507.569589,232982.000,40143,1,H0,1,100,95.910
1575307507.704801,233096.000,40177,1,H0,1,100,95.906
1575307507.841198,233211.000,40195,1,H0,1,100,95.902
1575307507.975223,233324.000,40213,1,H0,1,100,95.902
1575307508.105690,233434.000,40231,1,H0,1,100,95.910
1575307508.233785,233542.000,40249,1,H0,1,100,95.902
1575307508.361880,233650.000,40267,1,H0,1,100,95.898
1575307508.499463,233766.000,40285,1,H0,1,100,95.898
1575307508.640605,233885.000,40303,1,H0,1,100,95.906
1575307508.765142,233990.000,40321,1,H0,1,100,95.902
1575307508.892051,234097.000,40339,1,H0,1,100,95.898
1575307509.030820,234214.000,40373,1,H0,1,100,95.906
1575307509.167217,234329.000,40391,1,H0,1,100,95.898
1575307509.300056,234441.000,40409,1,H0,1,100,95.906
1575307509.424593,234546.000,40428,1,H0,1,100,95.906
1575307509.552688,234654.000,40446,1,H0,1,100,95.902
1575307509.691458,234771.000,40464,1,H0,1,100,95.898
1575307509.829041,234887.000,40481,1,H0,1,100,95.898
1575307509.957136,234995.000,40499,1,H0,1,100,95.902
1575307510.089975,235107.000,40517,1,H0,1,100,95.891
1575307510.218070,235215.000,40551,1,H0,1,100,95.898
1575307510.347351,235324.000,40570,1,H0,1,100,95.898
1575307510.476632,235433.000,40588,1,H0,1,100,95.898
1575307510.614215,235549.000,40606,1,H0,1,100,95.894
1575307510.739938,235655.000,40624,1,H0,1,100,95.894
1575307510.878707,235772.000,40642,1,H0,1,100,95.894
1575307511.017477,235889.000,40659,1,H0,1,100,95.894
1575307511.153874,236004.000,40677,1,H0,1,100,95.887
1575307511.295016,236123.000,40711,1,H0,1,100,95.891
1575307511.423111,236231.000,40730,1,H0,1,100,95.887
1575307511.547647,236336.000,40748,1,H0,1,100,95.894
1575307511.685231,236452.000,40766,1,H0,1,100,95.879
1575307511.824000,236569.000,40784,1,H0,1,100,95.887
1575307511.958025,236682.000,40802,1,H0,1,100,95.894
1575307512.084934,236789.000,40820,1,H0,1,100,95.887
1575307512.216587,236900.000,40838,1,H0,1,100,95.891
1575307512.349427,237012.000,40855,1,H0,1,100,95.879
1575307512.487010,237128.000,40874,1,H0,1,100,95.891
1575307512.621035,237241.000,40908,1,H0,1,100,95.887
1575307512.745572,237346.000,40926,1,H0,1,100,95.883
1575307512.877225,237457.000,40944,1,H0,1,100,95.887
1575307513.015995,237574.000,40962,1,H0,1,100,95.887
1575307513.148241,237685.500,40983,2,H0,1,100,95.887
1575307513.280487,237797.000,40983,2,H0,1,100,95.887
1575307513.407396,237904.000,41020,1,H0,1,100,95.883
1575307513.539049,238015.000,41038,1,H0,1,100,95.883
1575307513.677818,238132.000,41056,1,H0,1,100,95.891
1575307513.814215,238247.000,41074,1,H0,1,100,95.879
1575307513.937566,238351.000,41092,1,H0,1,100,95.879
1575307514.066847,238460.000,41110,1,H0,1,100,95.887
1575307514.194942,238568.000,41128,1,H0,1,100,95.879
1575307514.319479,238673.000,41146,1,H0,1,100,95.883
1575307514.448760,238782.000,41164,1,H0,1,100,95.879
1575307514.578041,238891.000,41182,1,H0,1,100,95.883
1575307514.702577,238996.000,41200,1,H0,1,100,95.879
1575307514.833044,239106.000,41218,1,H0,1,100,95.875
1575307514.968256,239220.000,41252,1,H0,1,100,95.875
1575307515.102281,239333.000,41270,1,H0,1,100,95.883
1575307515.239864,239449.000,41288,1,H0,1,100,95.883
1575307515.366773,239556.000,41307,1,H0,1,100,95.875
1575307515.496054,239665.000,41325,1,H0,1,100,95.868
1575307515.636009,239783.000,41343,1,H0,1,100,95.879
1575307515.770035,239896.000,41360,1,H0,1,100,95.868
1575307515.902874,240008.000,41378,1,H0,1,100,95.875
1575307516.044015,240127.000,41412,1,H0,1,100,95.871
1575307516.169738,240233.000,41430,1,H0,1,100,95.871
1575307516.295461,240339.000,41449,1,H0,1,100,95.868
1575307516.433044,240455.000,41467,1,H0,1,100,95.871
1575307516.571814,240572.000,41485,1,H0,1,100,95.875
1575307516.705839,240685.000,41503,1,H0,1,100,95.868
1575307516.830376,240790.000,41521,1,H0,1,100,95.864
1575307516.964401,240903.000,41538,1,H0,1,100,95.864
1575307517.101984,241019.000,41556,1,H0,1,100,95.864
1575307517.240754,241136.000,41590,1,H0,1,100,95.871
1575307517.370035,241245.000,41609,1,H0,1,100,95.868
1575307517.492199,241348.000,41627,1,H0,1,100,95.864
1575307517.630969,241465.000,41645,1,H0,1,100,95.860
1575307517.764994,241578.000,41663,1,H0,1,100,95.864
1575307517.903764,241695.000,41681,1,H0,1,100,95.868
1575307518.038975,241809.000,41698,1,H0,1,100,95.868
1575307518.171814,241921.000,41716,1,H0,1,100,95.852
1575307518.297537,242027.000,41734,1,H0,1,100,95.860
1575307518.431562,242140.000,41769,1,H0,1,100,95.860
1575307518.564401,242252.000,41787,1,H0,1,100,95.852
1575307518.688938,242357.000,41805,1,H0,1,100,95.856
1575307518.822963,242470.000,41823,1,H0,1,100,95.856
1575307518.959360,242585.000,41841,1,H0,1,100,95.860
1575307519.093385,242698.000,41859,1,H0,1,100,95.856
1575307519.232155,242815.000,41880,1,H0,1,100,95.852
1575307519.370924,242932.000,41901,1,H0,1,100,95.860
1575307519.495461,243037.000,41919,1,H0,1,100,95.849
1575307519.628300,243149.000,41937,1,H0,1,100,95.856
1575307519.763511,243263.000,41955,1,H0,1,100,95.852
1575307519.897537,243376.000,41972,1,H0,1,100,95.852
1575307520.032748,243490.000,41990,1,H0,1,100,95.849
1575307520.159657,243597.000,42008,1,H0,1,100,95.845
1575307520.285380,243703.000,42026,1,H0,1,100,95.852
1575307520.422963,243819.000,42061,1,H0,1,100,95.845
1575307520.564105,243938.000,42079,1,H0,1,100,95.849
1575307520.692199,244046.000,42097,1,H0,1,100,95.852
1575307520.817922,244152.000,42115,1,H0,1,100,95.849
1575307520.955506,244268.000,42133,1,H0,1,100,95.841
1575307521.091903,244383.000,42151,1,H0,1,100,95.845
1575307521.229486,244499.000,42168,1,H0,1,100,95.837
1575307521.355209,244605.000,42187,1,H0,1,100,95.849
1575307521.479746,244710.000,42205,1,H0,1,100,95.845
1575307521.618515,244827.000,42239,1,H0,1,100,95.845
1575307521.753726,244941.000,42257,1,H0,1,100,95.841
1575307521.884194,245051.000,42275,1,H0,1,100,95.849
1575307522.019405,245165.000,42293,1,H0,1,100,95.845
1575307522.148686,245274.000,42311,1,H0,1,100,95.849
1575307522.281525,245386.000,42329,1,H0,1,100,95.833
1575307522.416736,245500.000,42347,1,H0,1,100,95.841
1575307522.543645,245607.000,42365,1,H0,1,100,95.837
1575307522.668182,245712.000,42383,1,H0,1,100,95.833
1575307522.806951,245829.000,42401,1,H0,1,100,95.841
1575307522.938604,245940.000,42435,1,H0,1,100,95.841
1575307523.072629,246053.000,42453,1,H0,1,100,95.845
1575307523.212585,246171.000,42471,1,H0,1,100,95.841
1575307523.345424,246283.000,42490,1,H0,1,100,95.845
1575307523.469961,246388.000,42508,1,H0,1,100,95.841
1575307523.605172,246502.000,42526,1,H0,1,100,95.830
1575307523.741570,246617.000,42543,1,H0,1,100,95.833
1575307523.876781,246731.000,42561,1,H0,1,100,95.841
1575307524.006062,246840.000,42579,1,H0,1,100,95.837
1575307524.135343,246949.000,42613,1,H0,1,100,95.837
1575307524.269368,247062.000,42632,1,H0,1,100,95.822
1575307524.404579,247176.000,42650,1,H0,1,100,95.833
1575307524.543349,247293.000,42668,1,H0,1,100,95.837
1575307524.667885,247398.000,42686,1,H0,1,100,95.841
1575307524.797166,247507.000,42704,1,H0,1,100,95.826
1575307524.935936,247624.000,42721,1,H0,1,100,95.837
1575307525.072333,247739.000,42739,1,H0,1,100,95.833
1575307525.202207,247848.500,42776,2,H0,1,100,95.841
1575307525.332081,247958.000,42776,2,H0,1,100,95.841
1575307525.460176,248066.000,42797,1,H0,1,100,95.826
1575307525.598946,248183.000,42814,1,H0,1,100,95.833
1575307525.738901,248301.000,42832,1,H0,1,100,95.837
1575307525.875298,248416.000,42866,1,H0,1,100,95.830
1575307526.017626,248536.000,42884,1,H0,1,100,95.833
1575307526.157582,248654.000,42902,1,H0,1,100,95.830
1575307526.293979,248769.000,42920,1,H0,1,100,95.826
1575307526.430376,248884.000,42939,1,H0,1,100,95.814
1575307526.557285,248991.000,42956,1,H0,1,100,95.826
1575307526.686566,249100.000,42974,1,H0,1,100,95.830
1575307526.814661,249208.000,42992,1,H0,1,100,95.830
1575307526.948686,249321.000,43010,1,H0,1,100,95.830
1575307527.081525,249433.000,43044,1,H0,1,100,95.826
1575307527.225039,249554.000,43062,1,H0,1,100,95.822
1575307527.362622,249670.000,43081,1,H0,1,100,95.826
1575307527.495461,249782.000,43099,1,H0,1,100,95.830
1575307527.623556,249890.000,43117,1,H0,1,100,95.833
1575307527.754024,250000.000,43135,1,H0,1,100,95.833
1575307527.888049,250113.000,43152,1,H0,1,100,95.830
1575307528.026818,250230.000,43170,1,H0,1,100,95.833
1575307528.157285,250340.000,43204,1,H0,1,100,95.833
1575307528.279450,250443.000,43223,1,H0,1,100,95.833
1575307528.417033,250559.000,43241,1,H0,1,100,95.826
1575307528.555803,250676.000,43259,1,H0,1,100,95.826
1575307528.692200,250791.000,43277,1,H0,1,100,95.818
1575307528.816737,250896.000,43295,1,H0,1,100,95.826
1575307528.948390,251007.000,43313,1,H0,1,100,95.830
1575307529.084787,251122.000,43330,1,H0,1,100,95.830
1575307529.222370,251238.000,43348,1,H0,1,100,95.830
1575307529.356396,251351.000,43383,1,H0,1,100,95.833
1575307529.479746,251455.000,43401,1,H0,1,100,95.826
1575307529.614958,251569.000,43419,1,H0,1,100,95.830
1575307529.753727,251686.000,43437,1,H0,1,100,95.833
1575307529.886566,251798.000,43455,1,H0,1,100,95.826
1575307530.025336,251915.000,43473,1,H0,1,100,95.837
1575307530.162919,252031.000,43490,1,H0,1,100,95.830
1575307530.300503,252147.000,43508,1,H0,1,100,95.833
1575307530.440458,252265.000,43543,1,H0,1,100,95.826
1575307530.579227,252382.000,43561,1,H0,1,100,95.826
1575307530.703764,252487.000,43579,1,H0,1,100,95.830
1575307530.835417,252598.000,43597,1,H0,1,100,95.826
1575307530.963512,252706.000,43615,1,H0,1,100,95.826
1575307531.091607,252814.000,43633,1,H0,1,100,95.830
1575307531.230376,252931.000,43650,1,H0,1,100,95.833
1575307531.369146,253048.000,43672,1,H0,1,100,95.826
1575307531.494869,253154.000,43692,1,H0,1,100,95.826
1575307531.622964,253262.000,43710,1,H0,1,100,95.830
1575307531.758175,253376.000,43728,1,H0,1,100,95.830
1575307531.891014,253488.000,43746,1,H0,1,100,95.822
1575307532.029783,253605.000,43763,1,H0,1,100,95.826
1575307532.156692,253712.000,43781,1,H0,1,100,95.818
1575307532.285973,253821.000,43799,1,H0,1,100,95.826
1575307532.419999,253934.000,43834,1,H0,1,100,95.818
1575307532.559954,254052.000,43852,1,H0,1,100,95.830
1575307532.692793,254164.000,43870,1,H0,1,100,95.822
1575307532.818516,254270.000,43888,1,H0,1,100,95.818
1575307532.952541,254383.000,43906,1,H0,1,100,95.822
1575307533.088938,254498.000,43924,1,H0,1,100,95.822
1575307533.226522,254614.000,43941,1,H0,1,100,95.822
1575307533.354617,254722.000,43959,1,H0,1,100,95.818
1575307533.477968,254826.000,43978,1,H0,1,100,95.818
1575307533.613179,254940.000,44012,1,H0,1,100,95.814
1575307533.743646,255050.000,44030,1,H0,1,100,95.814
1575307533.878857,255164.000,44048,1,H0,1,100,95.814
1575307534.021185,255284.000,44066,1,H0,1,100,95.818
1575307534.159954,255401.000,44084,1,H0,1,100,95.822
1575307534.296351,255516.000,44101,1,H0,1,100,95.822
1575307534.438679,255636.000,44120,1,H0,1,100,95.822
1575307534.575077,255751.000,44154,1,H0,1,100,95.814
1575307534.712660,255867.000,44172,1,H0,1,100,95.822
1575307534.840755,255975.000,44190,1,H0,1,100,95.814
1575307534.973594,256087.000,44208,1,H0,1,100,95.822
1575307535.100503,256194.000,44226,1,H0,1,100,95.814
1575307535.235714,256308.000,44244,1,H0,1,100,95.810
1575307535.370925,256422.000,44263,1,H0,1,100,95.814
1575307535.504951,256535.000,44280,1,H0,1,100,95.822
1575307535.636604,256646.000,44298,1,H0,1,100,95.814
1575307535.763512,256753.000,44315,1,H0,1,100,95.810
1575307535.891607,256861.000,44350,1,H0,1,100,95.818
1575307536.029191,256977.000,44368,1,H0,1,100,95.822
1575307536.169146,257095.000,44386,1,H0,1,100,95.822
1575307536.293683,257200.000,44404,1,H0,1,100,95.814
1575307536.420592,257307.000,44423,1,H0,1,100,95.818
1575307536.558175,257423.000,44441,1,H0,1,100,95.814
1575307536.694572,257538.000,44458,1,H0,1,100,95.818
1575307536.828598,257651.000,44476,1,H0,1,100,95.826
1575307536.955507,257758.000,44494,1,H0,1,100,95.822
1575307537.083601,257866.000,44511,1,H0,1,100,95.810
1575307537.222371,257983.000,44546,1,H0,1,100,95.822
1575307537.354617,258094.500,44568,2,H0,1,100,95.822
1575307537.486863,258206.000,44568,2,H0,1,100,95.814
1575307537.614958,258314.000,44588,1,H0,1,100,95.818
1575307537.753727,258431.000,44622,1,H0,1,100,95.814
1575307537.880636,258538.000,44640,1,H0,1,100,95.822
1575307538.017034,258653.000,44658,1,H0,1,100,95.826
1575307538.154617,258769.000,44676,1,H0,1,100,95.826
1575307538.281526,258876.000,44694,1,H0,1,100,95.818
1575307538.417923,258991.000,44713,1,H0,1,100,95.822
1575307538.553134,259105.000,44731,1,H0,1,100,95.818
1575307538.687160,259218.000,44748,1,H0,1,100,95.814
1575307538.828301,259337.000,44766,1,H0,1,100,95.818
1575307538.957582,259446.000,44800,1,H0,1,100,95.814
1575307539.082119,259551.000,44818,1,H0,1,100,95.814
1575307539.220888,259668.000,44836,1,H0,1,100,95.818
1575307539.352542,259779.000,44855,1,H0,1,100,95.822
1575307539.486567,259892.000,44873,1,H0,1,100,95.818
1575307539.625336,260009.000,44891,1,H0,1,100,95.818
1575307539.756989,260120.000,44908,1,H0,1,100,95.814
1575307539.880340,260224.000,44926,1,H0,1,100,95.814
1575307540.015551,260338.000,44944,1,H0,1,100,95.818
1575307540.151949,260453.000,44978,1,H0,1,100,95.822
1575307540.289532,260569.000,44997,1,H0,1,100,95.818
1575307540.415255,260675.000,45015,1,H0,1,100,95.814
1575307540.545722,260785.000,45033,1,H0,1,100,95.822
1575307540.679747,260898.000,45051,1,H0,1,100,95.814
1575307540.813772,261011.000,45069,1,H0,1,100,95.818
1575307540.952542,261128.000,45087,1,H0,1,100,95.822
1575307541.075892,261232.000,45104,1,H0,1,100,95.822
1575307541.207545,261343.000,45122,1,H0,1,100,95.814
1575307541.341571,261456.000,45140,1,H0,1,100,95.814
1575307541.477968,261571.000,45175,1,H0,1,100,95.814
1575307541.609621,261682.000,45193,1,H0,1,100,95.822
1575307541.738902,261791.000,45211,1,H0,1,100,95.822
1575307541.863439,261896.000,45229,1,H0,1,100,95.822
1575307541.992720,262005.000,45247,1,H0,1,100,95.814
1575307542.120815,262113.000,45265,1,H0,1,100,95.818
1575307542.246537,262219.000,45283,1,H0,1,100,95.818
1575307542.377004,262329.000,45302,1,H0,1,100,95.814
1575307542.503913,262436.000,45320,1,H0,1,100,95.822
1575307542.630822,262543.000,45337,1,H0,1,100,95.814
1575307542.769591,262660.000,45355,1,H0,1,100,95.810
1575307542.908361,262777.000,45389,1,H0,1,100,95.818
1575307543.037642,262886.000,45407,1,H0,1,100,95.814
1575307543.174039,263001.000,45425,1,H0,1,100,95.814
1575307543.300948,263108.000,45444,1,H0,1,100,95.826
1575307543.432008,263218.500,45465,2,H0,1,100,95.818
1575307543.563068,263329.000,45465,2,H0,1,100,95.814
1575307543.700652,263445.000,45501,1,H0,1,100,95.810
1575307543.832305,263556.000,45519,1,H0,1,100,95.814
1575307543.959213,263663.000,45537,1,H0,1,100,95.818
1575307544.092053,263775.000,45555,1,H0,1,100,95.810
1575307544.229636,263891.000,45573,1,H0,1,100,95.818
1575307544.366033,264006.000,45592,1,H0,1,100,95.807
1575307544.495314,264115.000,45610,1,H0,1,100,95.810
1575307544.621037,264221.000,45627,1,H0,1,100,95.822
1575307544.756248,264335.000,45645,1,H0,1,100,95.814
1575307544.896204,264453.000,45679,1,H0,1,100,95.818
1575307545.033787,264569.000,45697,1,H0,1,100,95.807
1575307545.158324,264674.000,45715,1,H0,1,100,95.814
1575307545.286419,264782.000,45734,1,H0,1,100,95.814
1575307545.420444,264895.000,45752,1,H0,1,100,95.822
1575307545.558028,265011.000,45770,1,H0,1,100,95.810
1575307545.690867,265123.000,45787,1,H0,1,100,95.814
1575307545.828450,265239.000,45805,1,H0,1,100,95.807
1575307545.964847,265354.000,45823,1,H0,1,100,95.818
1575307546.098873,265467.000,45857,1,H0,1,100,95.822
1575307546.236456,265583.000,45876,1,H0,1,100,95.814
1575307546.365737,265692.000,45894,1,H0,1,100,95.803
1575307546.496204,265802.000,45912,1,H0,1,100,95.810
1575307546.623113,265909.000,45930,1,H0,1,100,95.814
1575307546.755952,266021.000,45948,1,H0,1,100,95.818
1575307546.892349,266136.000,45965,1,H0,1,100,95.810
1575307547.026375,266249.000,45983,1,H0,1,100,95.818
1575307547.160400,266362.000,46001,1,H0,1,100,95.807
1575307547.287308,266469.000,46036,1,H0,1,100,95.807
1575307547.414217,266576.000,46054,1,H0,1,100,95.807
1575307547.544684,266686.000,46072,1,H0,1,100,95.810
1575307547.678710,266799.000,46090,1,H0,1,100,95.803
1575307547.812735,266912.000,46108,1,H0,1,100,95.810
1575307547.950318,267028.000,46126,1,H0,1,100,95.803
1575307548.077227,267135.000,46144,1,H0,1,100,95.799
1575307548.206508,267244.000,46161,1,H0,1,100,95.807
1575307548.341719,267358.000,46180,1,H0,1,100,95.807
1575307548.482861,267477.000,46214,1,H0,1,100,95.807
1575307548.612142,267586.000,46232,1,H0,1,100,95.814
1575307548.737864,267692.000,46250,1,H0,1,100,95.807
1575307548.874262,267807.000,46268,1,H0,1,100,95.807
1575307549.009473,267921.000,46286,1,H0,1,100,95.803
1575307549.147057,268037.000,46304,1,H0,1,100,95.803
1575307549.273965,268144.000,46323,1,H0,1,100,95.807
1575307549.397316,268248.000,46341,1,H0,1,100,95.803
1575307549.536086,268365.000,46362,1,H0,1,100,95.803
1575307549.674855,268482.000,46380,1,H0,1,100,95.807
1575307549.811252,268597.000,46398,1,H0,1,100,95.810
1575307549.953580,268717.000,46415,1,H0,1,100,95.803
1575307550.092350,268834.000,46433,1,H0,1,100,95.799
1575307550.228747,268949.000,46468,1,H0,1,100,95.799
1575307550.368702,269067.000,46488,1,H0,1,100,95.803
1575307550.501541,269179.000,46506,1,H0,1,100,95.803
1575307550.639125,269295.000,46524,1,H0,1,100,95.799
1575307550.766034,269402.000,46542,1,H0,1,100,95.803
1575307550.896501,269512.000,46560,1,H0,1,100,95.799
1575307551.029340,269624.000,46578,1,H0,1,100,95.803
1575307551.169295,269742.000,46595,1,H0,1,100,95.799
1575307551.304507,269856.000,46630,1,H0,1,100,95.803
1575307551.445648,269975.000,46648,1,H0,1,100,95.791
1575307551.573743,270083.000,46666,1,H0,1,100,95.791
1575307551.700652,270190.000,46684,1,H0,1,100,95.795
1575307551.831119,270300.000,46702,1,H0,1,100,95.791
1575307551.967516,270415.000,46720,1,H0,1,100,95.799
1575307552.105100,270531.000,46738,1,H0,1,100,95.791
1575307552.229636,270636.000,46756,1,H0,1,100,95.795
1575307552.358917,270745.000,46774,1,H0,1,100,95.795
1575307552.497687,270862.000,46792,1,H0,1,100,95.791
1575307552.634084,270977.000,46826,1,H0,1,100,95.795
1575307552.765737,271088.000,46844,1,H0,1,100,95.799
1575307552.893832,271196.000,46862,1,H0,1,100,95.803
1575307553.023113,271305.000,46880,1,H0,1,100,95.795
1575307553.161883,271422.000,46898,1,H0,1,100,95.799
1575307553.298280,271537.000,46917,1,H0,1,100,95.791
1575307553.424003,271643.000,46935,1,H0,1,100,95.795
1575307553.552098,271751.000,46952,1,H0,1,100,95.795
1575307553.689681,271867.000,46970,1,H0,1,100,95.795
1575307553.820148,271977.000,46988,1,H0,1,100,95.795
1575307553.957731,272093.000,47022,1,H0,1,100,95.795
1575307554.096501,272210.000,47040,1,H0,1,100,95.784
1575307554.225782,272319.000,47058,1,H0,1,100,95.803
1575307554.364551,272436.000,47077,1,H0,1,100,95.788
1575307554.502135,272552.000,47095,1,H0,1,100,95.795
1575307554.632602,272662.000,47112,1,H0,1,100,95.799
1575307554.771371,272779.000,47130,1,H0,1,100,95.795
1575307554.897094,272885.000,47148,1,H0,1,100,95.803
1575307555.022817,272991.000,47182,1,H0,1,100,95.799
1575307555.160400,273107.000,47200,1,H0,1,100,95.788
1575307555.297984,273223.000,47219,1,H0,1,100,95.795
1575307555.432009,273336.000,47237,1,H0,1,100,95.784
1575307555.561290,273445.000,47256,2,H0,1,100,95.784
1575307555.690571,273554.000,47256,2,H0,1,100,95.784
1575307555.823410,273666.000,47291,1,H0,1,100,95.784
1575307555.962179,273783.000,47309,1,H0,1,100,95.780
1575307556.093832,273894.000,47331,1,H0,1,100,95.776
1575307556.217183,273998.000,47349,1,H0,1,100,95.776
1575307556.351208,274111.000,47368,1,H0,1,100,95.780
1575307556.489978,274228.000,47386,1,H0,1,100,95.772
1575307556.626375,274343.000,47403,1,H0,1,100,95.776
1575307556.752098,274449.000,47421,1,H0,1,100,95.776
1575307556.881379,274558.000,47439,1,H0,1,100,95.780
1575307557.014218,274670.000,47473,1,H0,1,100,95.784
1575307557.151801,274786.000,47491,1,H0,1,100,95.776
1575307557.287013,274900.000,47510,1,H0,1,100,95.776
1575307557.410363,275004.000,47528,1,H0,1,100,95.776
1575307557.542016,275115.000,47546,1,H0,1,100,95.772
1575307557.671297,275224.000,47564,1,H0,1,100,95.780
1575307557.795834,275329.000,47582,1,H0,1,100,95.784
1575307557.926301,275439.000,47600,1,H0,1,100,95.772
1575307558.054396,275547.000,47617,1,H0,1,100,95.776
1575307558.178933,275652.000,47635,1,H0,1,100,95.772
1575307558.310586,275763.000,47654,1,H0,1,100,95.772
1575307558.445797,275877.000,47688,1,H0,1,100,95.780
1575307558.579822,275990.000,47706,1,H0,1,100,95.768
1575307558.723336,276111.000,47724,1,H0,1,100,95.765
1575307558.863292,276229.000,47742,1,H0,1,100,95.765
1575307558.989014,276335.000,47760,1,H0,1,100,95.772
1575307559.118295,276444.000,47778,1,H0,1,100,95.765
1575307559.252320,276557.000,47796,1,H0,1,100,95.765
1575307559.386346,276670.000,47814,1,H0,1,100,95.765
1575307559.525115,276787.000,47848,1,H0,1,100,95.772
1575307559.652024,276894.000,47866,1,H0,1,100,95.768
1575307559.776561,276999.000,47884,1,H0,1,100,95.768
1575307559.912958,277114.000,47902,1,H0,1,100,95.753
1575307560.052913,277232.000,47920,1,H0,1,100,95.765
1575307560.184566,277343.000,47938,1,H0,1,100,95.761
1575307560.310289,277449.000,47957,1,H0,1,100,95.768
1575307560.445501,277563.000,47974,1,H0,1,100,95.761
1575307560.583084,277679.000,47992,1,H0,1,100,95.761
1575307560.720667,277795.000,48026,1,H0,1,100,95.757
1575307560.848762,277903.000,48044,1,H0,1,100,95.753
1575307560.972113,278007.000,48062,1,H0,1,100,95.757
1575307561.110882,278124.000,48080,1,H0,1,100,95.757
1575307561.246094,278238.000,48099,1,H0,1,100,95.746
1575307561.380119,278351.000,48117,1,H0,1,100,95.746
1575307561.514144,278464.000,48135,1,H0,1,100,95.746
1575307561.645797,278575.000,48154,1,H0,1,100,95.746
1575307561.784567,278692.000,48176,1,H0,1,100,95.753
1575307561.918592,278805.000,48194,1,H0,1,100,95.749
1575307562.050245,278916.000,48212,1,H0,1,100,95.746
1575307562.187828,279032.000,48230,1,H0,1,100,95.753
1575307562.313551,279138.000,48248,1,H0,1,100,95.746
1575307562.444018,279248.000,48266,1,H0,1,100,95.746
1575307562.575671,279359.000,48284,1,H0,1,100,95.746
1575307562.713255,279475.000,48318,1,H0,1,100,95.746
1575307562.848466,279589.000,48336,1,H0,1,100,95.746
1575307562.987235,279706.000,48354,1,H0,1,100,95.738
1575307563.117702,279816.000,48372,1,H0,1,100,95.742
1575307563.245797,279924.000,48391,1,H0,1,100,95.746
1575307563.376264,280034.000,48409,1,H0,1,100,95.742
1575307563.513848,280150.000,48426,1,H0,1,100,95.742
1575307563.653803,280268.000,48444,1,H0,1,100,95.734
1575307563.775968,280371.000,48462,1,H0,1,100,95.742
1575307563.906435,280481.000,48496,1,H0,1,100,95.738
1575307564.045204,280598.000,48514,1,H0,1,100,95.738
1575307564.181602,280713.000,48533,1,H0,1,100,95.742
1575307564.314441,280825.000,48551,1,H0,1,100,95.738
1575307564.441350,280932.000,48569,1,H0,1,100,95.730
1575307564.570631,281041.000,48587,1,H0,1,100,95.746
1575307564.709400,281158.000,48604,1,H0,1,100,95.738
1575307564.846983,281274.000,48622,1,H0,1,100,95.734
1575307564.975078,281382.000,48640,1,H0,1,100,95.730
1575307565.101987,281489.000,48674,1,H0,1,100,95.742
1575307565.233640,281600.000,48693,1,H0,1,100,95.738
1575307565.368851,281714.000,48711,1,H0,1,100,95.742
1575307565.511179,281834.000,48729,1,H0,1,100,95.738
1575307565.649949,281951.000,48747,1,H0,1,100,95.746
1575307565.786346,282066.000,48764,1,H0,1,100,95.738
1575307565.929860,282187.000,48782,1,H0,1,100,95.738
1575307566.068629,282304.000,48816,1,H0,1,100,95.738
1575307566.205026,282419.000,48835,1,H0,1,100,95.734
1575307566.346168,282538.000,48853,1,H0,1,100,95.734
1575307566.474263,282646.000,48871,1,H0,1,100,95.727
1575307566.598800,282751.000,48889,1,H0,1,100,95.734
1575307566.736383,282867.000,48907,1,H0,1,100,95.734
1575307566.875153,282984.000,48924,1,H0,1,100,95.734
1575307567.011550,283099.000,48942,1,H0,1,100,95.734
1575307567.151505,283217.000,48976,1,H0,1,100,95.727
1575307567.281972,283327.000,48995,1,H0,1,100,95.727
1575307567.405323,283431.000,49013,1,H0,1,100,95.734
1575307567.540534,283545.000,49031,1,H0,1,100,95.730
1575307567.676932,283660.000,49052,1,H0,1,100,95.730
1575307567.812143,283774.000,49072,1,H0,1,100,95.730
1575307567.940238,283882.000,49090,1,H0,1,100,95.734
1575307568.070705,283992.000,49108,1,H0,1,100,95.727
1575307568.204730,284105.000,49127,1,H0,1,100,95.723
1575307568.338755,284218.000,49145,1,H0,1,100,95.727
1575307568.476339,284334.000,49163,1,H0,1,100,95.730
1575307568.600875,284439.000,49181,1,H0,1,100,95.730
1575307568.733715,284551.000,49198,1,H0,1,100,95.723
1575307568.867740,284664.000,49216,1,H0,1,100,95.730
1575307569.004137,284779.000,49250,1,H0,1,100,95.719
1575307569.135790,284890.000,49268,1,H0,1,100,95.738
1575307569.262699,284997.000,49287,1,H0,1,100,95.730
1575307569.394352,285108.000,49305,1,H0,1,100,95.727
1575307569.535494,285227.000,49323,1,H0,1,100,95.738
1575307569.673077,285343.000,49341,1,H0,1,100,95.727
1575307569.804730,285454.000,49358,1,H0,1,100,95.727
1575307569.944686,285572.000,49376,1,H0,1,100,95.730
1575307570.082269,285688.000,49410,1,H0,1,100,95.730
1575307570.215108,285800.000,49429,1,H0,1,100,95.730
1575307570.357436,285920.000,49447,1,H0,1,100,95.730
1575307570.496205,286037.000,49465,1,H0,1,100,95.730
1575307570.624300,286145.000,49483,1,H0,1,100,95.738
1575307570.753581,286254.000,49501,1,H0,1,100,95.727
1575307570.887606,286367.000,49518,1,H0,1,100,95.738
1575307571.020446,286479.000,49536,1,H0,1,100,95.727
1575307571.161587,286598.000,49570,1,H0,1,100,95.730
1575307571.299170,286714.000,49589,1,H0,1,100,95.727
1575307571.429638,286824.000,49607,1,H0,1,100,95.730
1575307571.558918,286933.000,49625,1,H0,1,100,95.734
1575307571.689386,287043.000,49643,1,H0,1,100,95.742
1575307571.823411,287156.000,49661,1,H0,1,100,95.734
1575307571.963366,287274.000,49678,1,H0,1,100,95.730
1575307572.092647,287383.000,49696,1,H0,1,100,95.730
1575307572.217184,287488.000,49714,1,H0,1,100,95.727
1575307572.352395,287602.000,49733,1,H0,1,100,95.738
1575307572.491165,287719.000,49767,1,H0,1,100,95.734
1575307572.626376,287833.000,49785,1,H0,1,100,95.727
1575307572.750913,287938.000,49803,1,H0,1,100,95.734
1575307572.880194,288047.000,49821,1,H0,1,100,95.730
1575307573.015405,288161.000,49839,1,H0,1,100,95.734
1575307573.152988,288277.000,49857,1,H0,1,100,95.738
1575307573.285827,288389.000,49875,1,H0,1,100,95.727
1575307573.409178,288493.000,49893,1,H0,1,100,95.734
1575307573.543203,288606.000,49911,1,H0,1,100,95.730
1575307573.671891,288714.500,49948,2,H0,1,100,95.734
1575307573.800579,288823.000,49948,2,H0,1,100,95.742
1575307573.933418,288935.000,49968,1,H0,1,100,95.730
1575307574.062699,289044.000,49986,1,H0,1,100,95.742
1575307574.193166,289154.000,50003,1,H0,1,100,95.730
1575307574.335494,289274.000,50022,1,H0,1,100,95.730
1575307574.471891,289389.000,50056,1,H0,1,100,95.746
1575307574.607103,289503.000,50074,1,H0,1,100,95.738
1575307574.739942,289615.000,50092,1,H0,1,100,95.734
1575307574.868037,289723.000,50110,1,H0,1,100,95.742
1575307574.998504,289833.000,50128,1,H0,1,100,95.730
1575307575.138459,289951.000,50146,1,H0,1,100,95.738
1575307575.273670,290065.000,50164,1,H0,1,100,95.734
1575307575.407696,290178.000,50182,1,H0,1,100,95.730
1575307575.544093,290293.000,50216,1,H0,1,100,95.730
1575307575.669816,290399.000,50234,1,H0,1,100,95.727
1575307575.797911,290507.000,50252,1,H0,1,100,95.742
1575307575.935494,290623.000,50270,1,H0,1,100,95.727
1575307576.076636,290742.000,50288,1,H0,1,100,95.730
1575307576.205917,290851.000,50306,1,H0,1,100,95.734
1575307576.331639,290957.000,50325,1,H0,1,100,95.738
1575307576.468037,291072.000,50342,1,H0,1,100,95.734
1575307576.604434,291187.000,50360,1,H0,1,100,95.734
1575307576.742018,291303.000,50394,1,H0,1,100,95.734
1575307576.866554,291408.000,50412,1,H0,1,100,95.734
1575307576.991091,291513.000,50430,1,H0,1,100,95.734
1575307577.129860,291630.000,50448,1,H0,1,100,95.742
1575307577.265072,291744.000,50467,1,H0,1,100,95.746
1575307577.396725,291855.000,50485,1,H0,1,100,95.738
1575307577.531936,291969.000,50503,1,H0,1,100,95.730
1575307577.661217,292078.000,50520,1,H0,1,100,95.738
1575307577.795242,292191.000,50538,1,H0,1,100,95.738
1575307577.930453,292305.000,50556,1,H0,1,100,95.730
1575307578.058548,292413.000,50590,1,H0,1,100,95.734
1575307578.183085,292518.000,50609,1,H0,1,100,95.734
1575307578.321854,292635.000,50627,1,H0,1,100,95.734
1575307578.452322,292745.000,50645,1,H0,1,100,95.738
1575307578.585161,292857.000,50663,1,H0,1,100,95.734
1575307578.725116,292975.000,50681,1,H0,1,100,95.734
1575307578.859141,293088.000,50699,1,H0,1,100,95.730
1575307578.982492,293192.000,50716,1,H0,1,100,95.734
1575307579.116517,293305.000,50734,1,H0,1,100,95.734
1575307579.245798,293414.000,50753,1,H0,1,100,95.734
1575307579.377451,293525.000,50787,1,H0,1,100,95.730
1575307579.513849,293640.000,50805,1,H0,1,100,95.734
1575307579.649060,293754.000,50823,1,H0,1,100,95.730
1575307579.776562,293861.500,50844,2,H0,1,100,95.730
1575307579.904064,293969.000,50844,2,H0,1,100,95.734
1575307580.042833,294086.000,50880,1,H0,1,100,95.738
1575307580.179230,294201.000,50899,1,H0,1,100,95.738
1575307580.310884,294312.000,50917,1,H0,1,100,95.738
1575307580.438978,294420.000,50935,1,H0,1,100,95.738
1575307580.570632,294531.000,50953,1,H0,1,100,95.734
1575307580.709401,294648.000,50971,1,H0,1,100,95.734
1575307580.848171,294765.000,50988,1,H0,1,100,95.738
1575307580.972707,294870.000,51006,1,H0,1,100,95.730
1575307581.101988,294979.000,51024,1,H0,1,100,95.727
1575307581.234827,295091.000,51042,1,H0,1,100,95.730
1575307581.371225,295206.000,51077,1,H0,1,100,95.738
1575307581.513552,295326.000,51095,1,H0,1,100,95.727
1575307581.652322,295443.000,51113,1,H0,1,100,95.734
1575307581.787533,295557.000,51131,1,H0,1,100,95.727
1575307581.929861,295677.000,51148,1,H0,1,100,95.730
1575307582.063886,295790.000,51166,1,H0,1,100,95.730
1575307582.196725,295902.000,51201,1,H0,1,100,95.723
1575307582.324820,296010.000,51219,1,H0,1,100,95.730
1575307582.461217,296125.000,51237,1,H0,1,100,95.719
1575307582.589312,296233.000,51255,1,H0,1,100,95.730
1575307582.728081,296350.000,51273,1,H0,1,100,95.734
1575307582.865665,296466.000,51291,1,H0,1,100,95.727
1575307582.999690,296579.000,51308,1,H0,1,100,95.734
1575307583.126599,296686.000,51326,1,H0,1,100,95.727
1575307583.259438,296798.000,51345,1,H0,1,100,95.734
1575307583.392277,296910.000,51363,1,H0,1,100,95.723
1575307583.531047,297027.000,51397,1,H0,1,100,95.715
1575307583.662700,297138.000,51415,1,H0,1,100,95.723
1575307583.787236,297243.000,51433,1,H0,1,100,95.730
1575307583.922448,297357.000,51451,1,H0,1,100,95.723
1575307584.061217,297474.000,51469,1,H0,1,100,95.730
1575307584.198801,297590.000,51487,1,H0,1,100,95.727
1575307584.323337,297695.000,51505,1,H0,1,100,95.711
1575307584.453804,297805.000,51523,1,H0,1,100,95.715
1575307584.586643,297917.000,51541,1,H0,1,100,95.711
1575307584.724227,298033.000,51575,1,H0,1,100,95.727
1575307584.859438,298147.000,51593,1,H0,1,100,95.715
1575307584.982789,298251.000,51611,1,H0,1,100,95.719
1575307585.114442,298362.000,51629,1,H0,1,100,95.723
1575307585.252025,298478.000,51648,1,H0,1,100,95.723
1575307585.384865,298590.000,51666,1,H0,1,100,95.723
1575307585.527192,298710.000,51683,1,H0,1,100,95.723
1575307585.664776,298826.000,51701,1,H0,1,100,95.719
1575307585.802952,298942.500,51738,2,H0,1,100,95.715
1575307585.941128,299059.000,51738,2,H0,1,100,95.723
1575307586.075154,299172.000,51757,1,H0,1,100,95.715
1575307586.211551,299287.000,51775,1,H0,1,100,95.723
1575307586.346762,299401.000,51810,1,H0,1,100,95.723
1575307586.476043,299510.000,51828,1,H0,1,100,95.723
1575307586.604138,299618.000,51846,1,H0,1,100,95.723
1575307586.733419,299727.000,51864,1,H0,1,100,95.719
1575307586.868630,299841.000,51882,1,H0,1,100,95.723
1575307587.002656,299954.000,51900,1,H0,1,100,95.715
1575307587.141425,300071.000,51918,1,H0,1,100,95.723
1575307587.268334,300178.000,51936,1,H0,1,100,95.719
1575307587.394057,300284.000,51954,1,H0,1,100,95.715
1575307587.530454,300399.000,51972,1,H0,1,100,95.719
1575307587.669224,300516.000,52006,1,H0,1,100,95.727
1575307587.800877,300627.000,52024,1,H0,1,100,95.715
1575307587.925413,300732.000,52042,1,H0,1,100,95.715
1575307588.060625,300846.000,52060,1,H0,1,100,95.711
1575307588.198208,300962.000,52078,1,H0,1,100,95.727
1575307588.335791,301078.000,52097,1,H0,1,100,95.715
1575307588.463886,301186.000,52115,1,H0,1,100,95.723
1575307588.587237,301290.000,52132,1,H0,1,100,95.715
1575307588.726006,301407.000,52150,1,H0,1,100,95.719
1575307588.861217,301521.000,52184,1,H0,1,100,95.723
1575307588.997615,301636.000,52202,1,H0,1,100,95.715
1575307589.122152,301741.000,52220,1,H0,1,100,95.711
1575307589.256177,301854.000,52239,1,H0,1,100,95.719
1575307589.379528,301958.000,52257,1,H0,1,100,95.715
1575307589.515925,302073.000,52275,1,H0,1,100,95.719
1575307589.648764,302185.000,52293,1,H0,1,100,95.715
1575307589.773301,302290.000,52311,1,H0,1,100,95.719
1575307589.908512,302404.000,52328,1,H0,1,100,95.719
1575307590.040165,302515.000,52346,1,H0,1,100,95.719
1575307590.173004,302627.000,52364,1,H0,1,100,95.719
1575307590.312960,302745.000,52399,1,H0,1,100,95.719
1575307590.446985,302858.000,52417,1,H0,1,100,95.715
1575307590.585754,302975.000,52435,1,H0,1,100,95.715
1575307590.716221,303085.000,52453,1,H0,1,100,95.719
1575307590.844316,303193.000,52471,1,H0,1,100,95.715
1575307590.974783,303303.000,52489,1,H0,1,100,95.723
1575307591.113553,303420.000,52506,1,H0,1,100,95.707
1575307591.252322,303537.000,52541,1,H0,1,100,95.723
1575307591.374487,303640.000,52559,1,H0,1,100,95.723
1575307591.504954,303750.000,52577,1,H0,1,100,95.719
1575307591.641351,303865.000,52595,1,H0,1,100,95.711
1575307591.777749,303980.000,52613,1,H0,1,100,95.719
1575307591.907623,304089.500,52634,2,H0,1,100,95.719
1575307592.037497,304199.000,52634,2,H0,1,100,95.715
1575307592.166777,304308.000,52671,1,H0,1,100,95.727
1575307592.301989,304422.000,52689,1,H0,1,100,95.719
1575307592.443130,304541.000,52707,1,H0,1,100,95.715
1575307592.570039,304648.000,52725,1,H0,1,100,95.719
1575307592.698134,304756.000,52743,1,H0,1,100,95.730
1575307592.829787,304867.000,52761,1,H0,1,100,95.719
1575307592.964998,304981.000,52778,1,H0,1,100,95.723
1575307593.103768,305098.000,52796,1,H0,1,100,95.711
1575307593.230677,305205.000,52814,1,H0,1,100,95.719
1575307593.361144,305315.000,52849,1,H0,1,100,95.723
1575307593.497541,305430.000,52867,1,H0,1,100,95.727
1575307593.626822,305539.000,52885,1,H0,1,100,95.730
1575307593.757289,305649.000,52903,1,H0,1,100,95.727
1575307593.892500,305763.000,52921,1,H0,1,100,95.719
1575307594.019409,305870.000,52939,1,H0,1,100,95.719
1575307594.143946,305975.000,52957,1,H0,1,100,95.719
1575307594.281529,306091.000,52975,1,H0,1,100,95.715
1575307594.419113,306207.000,52993,1,H0,1,100,95.711
1575307594.555510,306322.000,53027,1,H0,1,100,95.719
1575307594.695466,306440.000,53045,1,H0,1,100,95.715
1575307594.827119,306551.000,53063,1,H0,1,100,95.723
1575307594.950469,306655.000,53081,1,H0,1,100,95.719
1575307595.086867,306770.000,53099,1,H0,1,100,95.719
1575307595.217334,306880.000,53118,1,H0,1,100,95.711
1575307595.348987,306991.000,53136,1,H0,1,100,95.719
1575307595.485384,307106.000,53153,1,H0,1,100,95.715
1575307595.619409,307219.000,53171,1,H0,1,100,95.715
1575307595.742760,307323.000,53189,1,H0,1,100,95.711
1575307595.876785,307436.000,53223,1,H0,1,100,95.711
1575307596.015555,307553.000,53241,1,H0,1,100,95.711
1575307596.151952,307668.000,53260,1,H0,1,100,95.719
1575307596.280047,307776.000,53278,1,H0,1,100,95.707
1575307596.409328,307885.000,53296,1,H0,1,100,95.715
1575307596.542167,307997.000,53314,1,H0,1,100,95.711
1575307596.680936,308114.000,53331,1,H0,1,100,95.715
1575307596.818520,308230.000,53349,1,H0,1,100,95.711
1575307596.941870,308334.000,53367,1,H0,1,100,95.711
1575307597.072337,308444.000,53401,1,H0,1,100,95.707
1575307597.206363,308557.000,53420,1,H0,1,100,95.707
1575307597.342760,308672.000,53438,1,H0,1,100,95.704
1575307597.485088,308792.000,53456,1,H0,1,100,95.700
1575307597.625043,308910.000,53474,1,H0,1,100,95.704
1575307597.761441,309025.000,53491,1,H0,1,100,95.704
1575307597.903768,309145.000,53509,1,H0,1,100,95.696
1575307598.042538,309262.000,53530,1,H0,1,100,95.696
1575307598.170633,309370.000,53550,1,H0,1,100,95.704
1575307598.305844,309484.000,53568,1,H0,1,100,95.704
1575307598.432753,309591.000,53586,1,H0,1,100,95.700
1575307598.559661,309698.000,53604,1,H0,1,100,95.704
1575307598.697245,309814.000,53638,1,H0,1,100,95.696
1575307598.834828,309930.000,53656,1,H0,1,100,95.696
1575307598.964109,310039.000,53674,1,H0,1,100,95.696
1575307599.092204,310147.000,53692,1,H0,1,100,95.692
1575307599.225043,310259.000,53711,1,H0,1,100,95.685
1575307599.357882,310371.000,53729,1,H0,1,100,95.692
1575307599.497838,310489.000,53746,1,H0,1,100,95.688
1575307599.627119,310598.000,53764,1,H0,1,100,95.696
1575307599.754028,310705.000,53782,1,H0,1,100,95.700
1575307599.889239,310819.000,53800,1,H0,1,100,95.692
1575307600.029195,310937.000,53834,1,H0,1,100,95.688
1575307600.165592,311052.000,53853,1,H0,1,100,95.688
1575307600.292501,311159.000,53871,1,H0,1,100,95.688
1575307600.420596,311267.000,53889,1,H0,1,100,95.688
1575307600.556993,311382.000,53907,1,H0,1,100,95.688
1575307600.694576,311498.000,53924,1,H0,1,100,95.685
1575307600.827415,311610.000,53942,1,H0,1,100,95.692
1575307600.950766,311714.000,53960,1,H0,1,100,95.692
1575307601.084791,311827.000,53978,1,H0,1,100,95.685
1575307601.217630,311939.000,54013,1,H0,1,100,95.688
1575307601.342167,312044.000,54031,1,H0,1,100,95.681
1575307601.479751,312160.000,54049,1,H0,1,100,95.681
1575307601.617334,312276.000,54067,1,H0,1,100,95.677
1575307601.751359,312389.000,54085,1,H0,1,100,95.673
1575307601.893687,312509.000,54103,1,H0,1,100,95.692
1575307602.031270,312625.000,54120,1,H0,1,100,95.681
1575307602.165295,312738.000,54138,1,H0,1,100,95.681
1575307602.305251,312856.000,54173,1,H0,1,100,95.673
1575307602.444021,312973.000,54191,1,H0,1,100,95.673
1575307602.568557,313078.000,54209,1,H0,1,100,95.685
1575307602.700210,313189.000,54227,1,H0,1,100,95.673
1575307602.837794,313305.000,54245,1,H0,1,100,95.673
1575307602.968261,313415.000,54263,1,H0,1,100,95.673
1575307603.107030,313532.000,54280,1,H0,1,100,95.677
1575307603.245800,313649.000,54315,1,H0,1,100,95.662
1575307603.370336,313754.000,54333,1,H0,1,100,95.669
1575307603.500803,313864.000,54351,1,H0,1,100,95.673
1575307603.636015,313978.000,54369,1,H0,1,100,95.673
1575307603.768854,314090.000,54387,1,H0,1,100,95.665
1575307603.908809,314208.000,54405,1,H0,1,100,95.665
1575307604.035718,314315.000,54426,1,H0,1,100,95.673
1575307604.164999,314424.000,54447,1,H0,1,100,95.662
1575307604.299024,314537.000,54465,1,H0,1,100,95.669
1575307604.438980,314655.000,54483,1,H0,1,100,95.662
1575307604.570633,314766.000,54501,1,H0,1,100,95.669
1575307604.696356,314872.000,54519,1,H0,1,100,95.662
1575307604.828009,314983.000,54537,1,H0,1,100,95.665
1575307604.964406,315098.000,54554,1,H0,1,100,95.665
1575307605.101990,315214.000,54572,1,H0,1,100,95.658
1575307605.232456,315324.000,54607,1,H0,1,100,95.662
1575307605.367668,315438.000,54625,1,H0,1,100,95.658
1575307605.502879,315552.000,54643,1,H0,1,100,95.665
1575307605.629788,315659.000,54661,1,H0,1,100,95.662
1575307605.755511,315765.000,54679,1,H0,1,100,95.662
1575307605.894280,315882.000,54697,1,H0,1,100,95.662
1575307606.029491,315996.000,54715,1,H0,1,100,95.662
1575307606.152842,316100.000,54733,1,H0,1,100,95.658
1575307606.289239,316215.000,54751,1,H0,1,100,95.662
1575307606.425637,316330.000,54769,1,H0,1,100,95.662
1575307606.563220,316446.000,54803,1,H0,1,100,95.654
1575307606.698431,316560.000,54821,1,H0,1,100,95.658
1575307606.833643,316674.000,54839,1,H0,1,100,95.658
1575307606.958179,316779.000,54857,1,H0,1,100,95.654
1575307607.093391,316893.000,54875,1,H0,1,100,95.662
1575307607.228602,317007.000,54894,1,H0,1,100,95.654
1575307607.362627,317120.000,54911,1,H0,1,100,95.654
1575307607.493094,317230.000,54929,1,H0,1,100,95.654
1575307607.621189,317338.000,54947,1,H0,1,100,95.658
1575307607.752842,317449.000,54981,1,H0,1,100,95.646
1575307607.888053,317563.000,54999,1,H0,1,100,95.646
1575307608.029195,317682.000,55017,1,H0,1,100,95.646
1575307608.153732,317787.000,55035,1,H0,1,100,95.654
1575307608.280641,317894.000,55054,1,H0,1,100,95.654
1575307608.419410,318011.000,55072,1,H0,1,100,95.639
1575307608.555807,318126.000,55089,1,H0,1,100,95.643
1575307608.689832,318239.000,55107,1,H0,1,100,95.650
1575307608.815555,318345.000,55125,1,H0,1,100,95.639
1575307608.943650,318453.000,55143,1,H0,1,100,95.639
1575307609.082420,318570.000,55177,1,H0,1,100,95.646
1575307609.221189,318687.000,55196,1,H0,1,100,95.650
1575307609.358773,318803.000,55214,1,H0,1,100,95.646
1575307609.501100,318923.000,55232,1,H0,1,100,95.639
1575307609.639870,319040.000,55249,1,H0,1,100,95.646
1575307609.775081,319154.000,55267,1,H0,1,100,95.643
1575307609.917409,319274.000,55301,1,H0,1,100,95.639
1575307610.051434,319387.000,55322,2,H0,1,100,95.643
1575307610.185459,319500.000,55322,2,H0,1,100,95.639
1575307610.313554,319608.000,55343,1,H0,1,100,95.635
1575307610.448765,319722.000,55360,1,H0,1,100,95.643
1575307610.576860,319830.000,55395,1,H0,1,100,95.643
1575307610.714443,319946.000,55413,1,H0,1,100,95.643
1575307610.852027,320062.000,55431,1,H0,1,100,95.654
1575307610.987238,320176.000,55449,1,H0,1,100,95.643
1575307611.114147,320283.000,55467,1,H0,1,100,95.643
1575307611.245800,320394.000,55486,1,H0,1,100,95.646
1575307611.378639,320506.000,55503,1,H0,1,100,95.643
1575307611.516223,320622.000,55521,1,H0,1,100,95.639
1575307611.647876,320733.000,55538,1,H0,1,100,95.650
1575307611.772412,320838.000,55573,1,H0,1,100,95.646
1575307611.906438,320951.000,55591,1,H0,1,100,95.643
1575307612.045207,321068.000,55609,1,H0,1,100,95.646
1575307612.182791,321184.000,55627,1,H0,1,100,95.654
1575307612.308513,321290.000,55646,1,H0,1,100,95.639
1575307612.438980,321400.000,55664,1,H0,1,100,95.643
1575307612.571820,321512.000,55682,1,H0,1,100,95.639
1575307612.709403,321628.000,55699,1,H0,1,100,95.643
1575307612.844614,321742.000,55717,1,H0,1,100,95.650
1575307612.967965,321846.000,55734,1,H0,1,100,95.646
1575307613.099618,321957.000,55769,1,H0,1,100,95.643
1575307613.238387,322074.000,55788,1,H0,1,100,95.646
1575307613.372412,322187.000,55806,1,H0,1,100,95.639
1575307613.514740,322307.000,55824,1,H0,1,100,95.646
1575307613.652323,322423.000,55841,1,H0,1,100,95.646
1575307613.786349,322536.000,55859,1,H0,1,100,95.643
1575307613.928676,322656.000,55893,1,H0,1,100,95.646
1575307614.066260,322772.000,55911,1,H0,1,100,95.650
1575307614.199099,322884.000,55930,1,H0,1,100,95.650
1575307614.335496,322999.000,55948,1,H0,1,100,95.643
1575307614.463591,323107.000,55966,1,H0,1,100,95.639
1575307614.591686,323215.000,55984,1,H0,1,100,95.639
1575307614.720967,323324.000,56002,1,H0,1,100,95.635
1575307614.856178,323438.000,56019,1,H0,1,100,95.650
1575307614.990204,323551.000,56037,1,H0,1,100,95.646
1575307615.128973,323668.000,56071,1,H0,1,100,95.646
1575307615.255882,323775.000,56090,1,H0,1,100,95.654
1575307615.380419,323880.000,56108,1,H0,1,100,95.643
1575307615.516816,323995.000,56126,1,H0,1,100,95.646
1575307615.655585,324112.000,56144,1,H0,1,100,95.643
1575307615.787238,324223.000,56162,1,H0,1,100,95.646
1575307615.911775,324328.000,56180,1,H0,1,100,95.646
1575307616.046986,324442.000,56198,1,H0,1,100,95.635
1575307616.184570,324558.000,56219,1,H0,1,100,95.643
1575307616.320967,324673.000,56240,1,H0,1,100,95.646
1575307616.450248,324782.000,56258,1,H0,1,100,95.643
1575307616.573599,324886.000,56276,1,H0,1,100,95.646
1575307616.712368,325003.000,56294,1,H0,1,100,95.643
1575307616.847579,325117.000,56311,1,H0,1,100,95.639
1575307616.983977,325232.000,56329,1,H0,1,100,95.627
1575307617.119188,325346.000,56363,1,H0,1,100,95.643
1575307617.250841,325457.000,56382,1,H0,1,100,95.631
1575307617.375378,325562.000,56400,1,H0,1,100,95.639
1575307617.512961,325678.000,56418,1,H0,1,100,95.639
1575307617.646986,325791.000,56436,1,H0,1,100,95.635
1575307617.771523,325896.000,56454,1,H0,1,100,95.635
1575307617.905548,326009.000,56472,1,H0,1,100,95.639
1575307618.036016,326119.000,56489,1,H0,1,100,95.643
1575307618.167669,326230.000,56507,1,H0,1,100,95.639
1575307618.308810,326349.000,56542,1,H0,1,100,95.639
1575307618.445207,326464.000,56560,1,H0,1,100,95.643
1575307618.580419,326578.000,56578,1,H0,1,100,95.624
1575307618.710886,326688.000,56596,1,H0,1,100,95.643
1575307618.838981,326796.000,56614,1,H0,1,100,95.643
1575307618.969448,326906.000,56632,1,H0,1,100,95.635
1575307619.107031,327022.000,56650,1,H0,1,100,95.639
1575307619.245800,327139.000,56668,1,H0,1,100,95.646
1575307619.367965,327242.000,56686,1,H0,1,100,95.635
1575307619.498432,327352.000,56704,1,H0,1,100,95.639
1575307619.636016,327468.000,56738,1,H0,1,100,95.635
1575307619.772413,327583.000,56756,1,H0,1,100,95.635
1575307619.905252,327695.000,56774,1,H0,1,100,95.631
1575307620.032161,327802.000,56792,1,H0,1,100,95.643
1575307620.161442,327911.000,56810,1,H0,1,100,95.646
1575307620.300211,328028.000,56829,1,H0,1,100,95.639
1575307620.437795,328144.000,56846,1,H0,1,100,95.639
1575307620.565890,328252.000,56864,1,H0,1,100,95.635
1575307620.692798,328359.000,56882,1,H0,1,100,95.639
1575307620.824451,328470.000,56916,1,H0,1,100,95.639
1575307620.959663,328584.000,56934,1,H0,1,100,95.635
1575307621.101990,328704.000,56952,1,H0,1,100,95.635
1575307621.240760,328821.000,56971,1,H0,1,100,95.643
1575307621.377157,328936.000,56989,1,H0,1,100,95.631
1575307621.520671,329057.000,57006,1,H0,1,100,95.639
1575307621.659441,329174.000,57040,1,H0,1,100,95.635
1575307621.795838,329289.000,57058,1,H0,1,100,95.635
1575307621.935793,329407.000,57076,1,H0,1,100,95.631
1575307622.063888,329515.000,57094,1,H0,1,100,95.635
1575307622.196134,329626.500,57115,2,H0,1,100,95.635
1575307622.328380,329738.000,57115,2,H0,1,100,95.635
1575307622.460033,329849.000,57152,1,H0,1,100,95.635
1575307622.594059,329962.000,57170,1,H0,1,100,95.643
1575307622.734014,330080.000,57188,1,H0,1,100,95.635
1575307622.866853,330192.000,57206,1,H0,1,100,95.635
1575307623.006809,330310.000,57224,1,H0,1,100,95.639
1575307623.133718,330417.000,57242,1,H0,1,100,95.639
1575307623.261813,330525.000,57260,1,H0,1,100,95.646
1575307623.393466,330636.000,57278,1,H0,1,100,95.646
1575307623.529863,330751.000,57312,1,H0,1,100,95.639
1575307623.665074,330865.000,57330,1,H0,1,100,95.643
1575307623.789611,330970.000,57348,1,H0,1,100,95.639
1575307623.922450,331082.000,57366,1,H0,1,100,95.646
1575307624.061220,331199.000,57384,1,H0,1,100,95.646
1575307624.197617,331314.000,57402,1,H0,1,100,95.643
1575307624.326898,331423.000,57421,1,H0,1,100,95.646
1575307624.454993,331531.000,57438,1,H0,1,100,95.639
1575307624.586646,331642.000,57456,1,H0,1,100,95.650
1575307624.725415,331759.000,57490,1,H0,1,100,95.643
1575307624.862999,331875.000,57508,1,H0,1,100,95.646
1575307624.986349,331979.000,57526,1,H0,1,100,95.646
1575307625.116817,332089.000,57544,1,H0,1,100,95.654
1575307625.255586,332206.000,57563,1,H0,1,100,95.646
1575307625.386053,332316.000,57581,1,H0,1,100,95.646
1575307625.526008,332434.000,57599,1,H0,1,100,95.650
1575307625.664778,332551.000,57616,1,H0,1,100,95.650
1575307625.796431,332662.000,57634,1,H0,1,100,95.646
1575307625.935200,332779.000,57668,1,H0,1,100,95.646
1575307626.075156,332897.000,57686,1,H0,1,100,95.635
1575307626.211553,333012.000,57704,1,H0,1,100,95.646
1575307626.350323,333129.000,57723,1,H0,1,100,95.646
1575307626.477232,333236.000,57741,1,H0,1,100,95.650
1575307626.602954,333342.000,57759,1,H0,1,100,95.650
1575307626.740538,333458.000,57776,1,H0,1,100,95.639
1575307626.879307,333575.000,57794,1,H0,1,100,95.639
1575307627.014518,333689.000,57828,1,H0,1,100,95.639
1575307627.154474,333807.000,57846,1,H0,1,100,95.646
1575307627.281383,333914.000,57865,1,H0,1,100,95.643
1575307627.407106,334020.000,57883,1,H0,1,100,95.643
1575307627.543503,334135.000,57901,1,H0,1,100,95.650
1575307627.682272,334252.000,57919,1,H0,1,100,95.643
1575307627.816298,334365.000,57936,1,H0,1,100,95.650
1575307627.940835,334470.000,57954,1,H0,1,100,95.643
1575307628.073673,334582.000,57972,1,H0,1,100,95.639
1575307628.210664,334697.500,58010,2,H0,1,100,95.643
1575307628.347654,334813.000,58010,2,H0,1,100,95.643
1575307628.480494,334925.000,58027,1,H0,1,100,95.635
1575307628.602658,335028.000,58047,1,H0,1,100,95.639
1575307628.739055,335143.000,58065,1,H0,1,100,95.635
1575307628.873080,335256.000,58099,1,H0,1,100,95.643
1575307629.010664,335372.000,58117,1,H0,1,100,95.639
1575307629.138759,335480.000,58135,1,H0,1,100,95.639
1575307629.271598,335592.000,58154,1,H0,1,100,95.646
1575307629.396135,335697.000,58172,1,H0,1,100,95.643
1575307629.528974,335809.000,58190,1,H0,1,100,95.635
1575307629.660627,335920.000,58208,1,H0,1,100,95.643
1575307629.785164,336025.000,58226,1,H0,1,100,95.643
1575307629.918003,336137.000,58243,1,H0,1,100,95.635
1575307630.056772,336254.000,58261,1,H0,1,100,95.639
1575307630.189611,336366.000,58296,1,H0,1,100,95.646
1575307630.328381,336483.000,58314,1,H0,1,100,95.639
1575307630.468336,336601.000,58332,1,H0,1,100,95.635
1575307630.592873,336706.000,58350,1,H0,1,100,95.646
1575307630.723340,336816.000,58368,1,H0,1,100,95.631
1575307630.859737,336931.000,58386,1,H0,1,100,95.639
1575307630.992577,337043.000,58403,1,H0,1,100,95.639
1575307631.128974,337158.000,58421,1,H0,1,100,95.635
1575307631.255883,337265.000,58439,1,H0,1,100,95.643
1575307631.383978,337373.000,58474,1,H0,1,100,95.639
1575307631.519189,337487.000,58492,1,H0,1,100,95.635
1575307631.660331,337606.000,58510,1,H0,1,100,95.639
1575307631.789612,337715.000,58528,1,H0,1,100,95.639
1575307631.914148,337820.000,58546,1,H0,1,100,95.643
1575307632.050545,337935.000,58564,1,H0,1,100,95.639
1575307632.186943,338050.000,58581,1,H0,1,100,95.639
1575307632.324526,338166.000,58600,1,H0,1,100,95.639
1575307632.450249,338272.000,58618,1,H0,1,100,95.631
1575307632.574786,338377.000,58636,1,H0,1,100,95.631
1575307632.713555,338494.000,58670,1,H0,1,100,95.627
1575307632.852325,338611.000,58688,1,H0,1,100,95.639
1575307632.988722,338726.000,58706,1,H0,1,100,95.631
1575307633.131050,338846.000,58724,1,H0,1,100,95.635
1575307633.269819,338963.000,58742,1,H0,1,100,95.635
1575307633.406217,339078.000,58760,1,H0,1,100,95.635
1575307633.544986,339195.000,58794,1,H0,1,100,95.631
1575307633.674267,339304.000,58812,1,H0,1,100,95.631
1575307633.809478,339418.000,58830,1,H0,1,100,95.635
1575307633.944690,339532.000,58848,1,H0,1,100,95.631
1575307634.076343,339643.000,58866,1,H0,1,100,95.631
1575307634.199693,339747.000,58884,1,H0,1,100,95.639
1575307634.336091,339862.000,58906,1,H0,1,100,95.635
1575307634.473674,339978.000,58926,1,H0,1,100,95.635
1575307634.608885,340092.000,58944,1,H0,1,100,95.631
1575307634.747655,340209.000,58962,1,H0,1,100,95.627
1575307634.882866,340323.000,58980,1,H0,1,100,95.631
1575307635.006217,340427.000,58998,1,H0,1,100,95.627
1575307635.139056,340539.000,59015,1,H0,1,100,95.624
1575307635.274267,340653.000,59034,1,H0,1,100,95.616
1575307635.407106,340765.000,59068,1,H0,1,100,95.635
1575307635.538759,340876.000,59086,1,H0,1,100,95.631
1575307635.666854,340984.000,59104,1,H0,1,100,95.627
1575307635.799693,341096.000,59122,1,H0,1,100,95.627
1575307635.934905,341210.000,59140,1,H0,1,100,95.620
1575307636.076046,341329.000,59158,1,H0,1,100,95.627
1575307636.200583,341434.000,59176,1,H0,1,100,95.627
1575307636.331050,341544.000,59194,1,H0,1,100,95.620
1575307636.463889,341656.000,59212,1,H0,1,100,95.627
1575307636.600286,341771.000,59230,1,H0,1,100,95.620
1575307636.735498,341885.000,59264,1,H0,1,100,95.616
1575307636.861220,341991.000,59282,1,H0,1,100,95.612
1575307636.990501,342100.000,59300,1,H0,1,100,95.616
1575307637.130457,342218.000,59318,1,H0,1,100,95.616
1575307637.268040,342334.000,59337,1,H0,1,100,95.624
1575307637.396135,342442.000,59355,1,H0,1,100,95.612
1575307637.533719,342558.000,59372,1,H0,1,100,95.620
1575307637.672488,342675.000,59390,1,H0,1,100,95.616
1575307637.800583,342783.000,59408,1,H0,1,100,95.620
1575307637.939353,342900.000,59442,1,H0,1,100,95.620
1575307638.076936,343016.000,59460,1,H0,1,100,95.616
1575307638.208589,343127.000,59478,1,H0,1,100,95.620
1575307638.347358,343244.000,59497,1,H0,1,100,95.616
1575307638.475453,343352.000,59515,1,H0,1,100,95.616
1575307638.599990,343457.000,59533,1,H0,1,100,95.616
1575307638.737573,343573.000,59550,1,H0,1,100,95.616
1575307638.875157,343689.000,59568,1,H0,1,100,95.608
1575307639.009182,343802.000,59602,1,H0,1,100,95.616
1575307639.136091,343909.000,59620,1,H0,1,100,95.612
1575307639.267744,344020.000,59639,1,H0,1,100,95.620
1575307639.400583,344132.000,59657,1,H0,1,100,95.620
1575307639.539352,344249.000,59675,1,H0,1,100,95.616
1575307639.672192,344361.000,59693,1,H0,1,100,95.616
1575307639.795542,344465.000,59711,1,H0,1,100,95.620
1575307639.929568,344578.000,59728,1,H0,1,100,95.612
1575307640.068337,344695.000,59746,1,H0,1,100,95.620
1575307640.205920,344811.000,59781,1,H0,1,100,95.620
1575307640.333422,344918.500,59802,2,H0,1,100,95.616
1575307640.460924,345026.000,59802,2,H0,1,100,95.608
1575307640.593763,345138.000,59819,1,H0,1,100,95.620
1575307640.731347,345254.000,59837,1,H0,1,100,95.616
1575307640.870116,345371.000,59873,1,H0,1,100,95.616
1575307641.008886,345488.000,59891,1,H0,1,100,95.616
1575307641.140539,345599.000,59909,1,H0,1,100,95.620
1575307641.269820,345708.000,59928,1,H0,1,100,95.616
1575307641.394356,345813.000,59946,1,H0,1,100,95.612
1575307641.524823,345923.000,59964,1,H0,1,100,95.620
1575307641.654104,346032.000,59982,1,H0,1,100,95.616
1575307641.778641,346137.000,60000,1,H0,1,100,95.616
1575307641.910294,346248.000,60017,1,H0,1,100,95.612
1575307642.049064,346365.000,60035,1,H0,1,100,95.620
1575307642.179531,346475.000,60053,1,H0,1,100,95.616
1575307642.318300,346592.000,60088,1,H0,1,100,95.620
1575307642.458256,346710.000,60106,1,H0,1,100,95.608
1575307642.585164,346817.000,60124,1,H0,1,100,95.608
1575307642.719190,346930.000,60142,1,H0,1,100,95.616
1575307642.846098,347037.000,60160,1,H0,1,100,95.604
1575307642.974193,347145.000,60178,1,H0,1,100,95.616
1575307643.110591,347260.000,60195,1,H0,1,100,95.604
1575307643.248174,347376.000,60214,1,H0,1,100,95.608
1575307643.377455,347485.000,60231,1,H0,1,100,95.612
1575307643.505550,347593.000,60266,1,H0,1,100,95.608
1575307643.638389,347705.000,60284,1,H0,1,100,95.612
1575307643.775973,347821.000,60302,1,H0,1,100,95.612
1575307643.913556,347937.000,60320,1,H0,1,100,95.612
1575307644.041651,348045.000,60338,1,H0,1,100,95.608
1575307644.167374,348151.000,60356,1,H0,1,100,95.612
1575307644.306143,348268.000,60374,1,H0,1,100,95.608
1575307644.441354,348382.000,60392,1,H0,1,100,95.604
1575307644.576566,348496.000,60409,1,H0,1,100,95.608
1575307644.701102,348601.000,60444,1,H0,1,100,95.604
1575307644.831569,348711.000,60462,1,H0,1,100,95.608
1575307644.967967,348826.000,60480,1,H0,1,100,95.597
1575307645.110294,348946.000,60498,1,H0,1,100,95.608
1575307645.249064,349063.000,60517,1,H0,1,100,95.601
1575307645.384275,349177.000,60534,1,H0,1,100,95.608
1575307645.521858,349293.000,60552,1,H0,1,100,95.601
1575307645.653512,349404.000,60569,1,H0,1,100,95.597
1575307645.792281,349521.000,60604,1,H0,1,100,95.597
1575307645.927492,349635.000,60622,1,H0,1,100,95.601
1575307646.062704,349749.000,60640,1,H0,1,100,95.604
1575307646.187240,349854.000,60658,1,H0,1,100,95.593
1575307646.322452,349968.000,60677,1,H0,1,100,95.604
1575307646.458849,350083.000,60698,1,H0,1,100,95.608
1575307646.591688,350195.000,60716,1,H0,1,100,95.604
1575307646.730458,350312.000,60734,1,H0,1,100,95.585
1575307646.868041,350428.000,60754,1,H0,1,100,95.593
1575307646.991391,350532.000,60772,1,H0,1,100,95.593
1575307647.123044,350643.000,60790,1,H0,1,100,95.582
1575307647.259442,350758.000,60808,1,H0,1,100,95.593
1575307647.392281,350870.000,60826,1,H0,1,100,95.597
1575307647.527492,350984.000,60860,1,H0,1,100,95.589
1575307647.655587,351092.000,60878,1,H0,1,100,95.589
1575307647.786054,351202.000,60896,1,H0,1,100,95.589
1575307647.921266,351316.000,60914,1,H0,1,100,95.585
1575307648.062407,351435.000,60932,1,H0,1,100,95.585
1575307648.189316,351542.000,60950,1,H0,1,100,95.589
1575307648.318597,351651.000,60969,1,H0,1,100,95.593
1575307648.451436,351763.000,60986,1,H0,1,100,95.597
1575307648.586647,351877.000,61004,1,H0,1,100,95.593
1575307648.724231,351993.000,61038,1,H0,1,100,95.585
1575307648.848768,352098.000,61056,1,H0,1,100,95.597
1575307648.974490,352204.000,61074,1,H0,1,100,95.593
1575307649.110888,352319.000,61092,1,H0,1,100,95.597
1575307649.248471,352435.000,61111,1,H0,1,100,95.589
1575307649.374194,352541.000,61129,1,H0,1,100,95.593
1575307649.510591,352656.000,61147,1,H0,1,100,95.593
1575307649.648175,352772.000,61164,1,H0,1,100,95.593
1575307649.773897,352878.000,61182,1,H0,1,100,95.593
1575307649.912667,352995.000,61200,1,H0,1,100,95.589
1575307650.050250,353111.000,61234,1,H0,1,100,95.585
1575307650.184275,353224.000,61253,1,H0,1,100,95.601
1575307650.321859,353340.000,61271,1,H0,1,100,95.601
1575307650.452326,353450.000,61289,1,H0,1,100,95.589
1575307650.576862,353555.000,61307,1,H0,1,100,95.597
1575307650.714446,353671.000,61325,1,H0,1,100,95.597
1575307650.850843,353786.000,61342,1,H0,1,100,95.589
1575307650.987241,353901.000,61360,1,H0,1,100,95.589
1575307651.114149,354008.000,61394,1,H0,1,100,95.593
1575307651.244616,354118.000,61413,1,H0,1,100,95.597
1575307651.375083,354228.000,61431,1,H0,1,100,95.589
1575307651.511481,354343.000,61449,1,H0,1,100,95.585
1575307651.647878,354458.000,61467,1,H0,1,100,95.582
1575307651.772415,354563.000,61485,1,H0,1,100,95.578
1575307651.904068,354674.000,61503,1,H0,1,100,95.582
1575307652.044023,354792.000,61520,1,H0,1,100,95.574
1575307652.180421,354907.000,61538,1,H0,1,100,95.582
1575307652.309702,355016.000,61557,1,H0,1,100,95.574
1575307652.438983,355125.000,61592,2,H0,1,100,95.570
1575307652.568264,355234.000,61592,2,H0,1,100,95.570
1575307652.707033,355351.000,61613,1,H0,1,100,95.570
1575307652.848175,355470.000,61631,1,H0,1,100,95.566
1575307652.985758,355586.000,61665,1,H0,1,100,95.570
1575307653.119783,355699.000,61683,1,H0,1,100,95.562
1575307653.249064,355808.000,61702,1,H0,1,100,95.570
1575307653.374787,355914.000,61720,1,H0,1,100,95.570
1575307653.505254,356024.000,61738,1,H0,1,100,95.578
1575307653.633349,356132.000,61756,1,H0,1,100,95.559
1575307653.760258,356239.000,61774,1,H0,1,100,95.566
1575307653.889539,356348.000,61792,1,H0,1,100,95.566
1575307654.027122,356464.000,61809,1,H0,1,100,95.574
1575307654.157589,356574.000,61827,1,H0,1,100,95.570
1575307654.295172,356690.000,61846,1,H0,1,100,95.562
1575307654.432756,356806.000,61880,1,H0,1,100,95.555
1575307654.563223,356916.000,61898,1,H0,1,100,95.566
1575307654.691318,357024.000,61916,1,H0,1,100,95.562
1575307654.824157,357136.000,61934,1,H0,1,100,95.566
1575307654.956996,357248.000,61952,1,H0,1,100,95.559
1575307655.096952,357366.000,61970,1,H0,1,100,95.566
1575307655.225047,357474.000,61989,1,H0,1,100,95.562
1575307655.351955,357581.000,62006,1,H0,1,100,95.559
1575307655.487167,357695.000,62024,1,H0,1,100,95.566
1575307655.627122,357813.000,62058,1,H0,1,100,95.559
1575307655.762333,357927.000,62076,1,H0,1,100,95.555
1575307655.886870,358032.000,62094,1,H0,1,100,95.555
1575307656.019709,358144.000,62112,1,H0,1,100,95.555
1575307656.156107,358259.000,62130,1,H0,1,100,95.555
1575307656.293690,358375.000,62149,1,H0,1,100,95.551
1575307656.425343,358486.000,62166,1,H0,1,100,95.551
1575307656.548694,358590.000,62184,1,H0,1,100,95.547
1575307656.683905,358704.000,62202,1,H0,1,100,95.551
1575307656.821488,358820.000,62236,1,H0,1,100,95.551
1575307656.956700,358934.000,62254,1,H0,1,100,95.555
1575307657.097841,359053.000,62272,1,H0,1,100,95.547
1575307657.235425,359169.000,62291,1,H0,1,100,95.547
1575307657.369450,359282.000,62309,1,H0,1,100,95.540
1575307657.510592,359401.000,62326,1,H0,1,100,95.551
1575307657.643431,359513.000,62344,1,H0,1,100,95.543
1575307657.781014,359629.000,62378,1,H0,1,100,95.551
1575307657.919784,359746.000,62396,1,H0,1,100,95.547
1575307658.057367,359862.000,62414,1,H0,1,100,95.551
1575307658.181904,359967.000,62432,1,H0,1,100,95.555
1575307658.314743,360079.000,62451,1,H0,1,100,95.547
1575307658.452326,360195.000,62469,1,H0,1,100,95.543
1575307658.585165,360307.000,62488,1,H0,1,100,95.532
1575307658.723935,360424.000,62508,1,H0,1,100,95.536
1575307658.863890,360542.000,62528,1,H0,1,100,95.547
1575307658.987241,360646.000,62546,1,H0,1,100,95.540
1575307659.117708,360756.000,62564,1,H0,1,100,95.528
1575307659.252919,360870.000,62582,1,H0,1,100,95.524
1575307659.385758,360982.000,62600,1,H0,1,100,95.532
1575307659.524528,361099.000,62634,1,H0,1,100,95.532
1575307659.651437,361206.000,62652,1,H0,1,100,95.528
1575307659.780718,361315.000,62670,1,H0,1,100,95.536
1575307659.915929,361429.000,62688,1,H0,1,100,95.540
1575307660.055885,361547.000,62706,1,H0,1,100,95.528
1575307660.186352,361657.000,62724,1,H0,1,100,95.536
1575307660.312074,361763.000,62743,1,H0,1,100,95.540
1575307660.443727,361874.000,62760,1,H0,1,100,95.532
1575307660.580125,361989.000,62778,1,H0,1,100,95.528
1575307660.717708,362105.000,62812,1,H0,1,100,95.536
1575307660.844617,362212.000,62830,1,H0,1,100,95.536
1575307660.971526,362319.000,62848,1,H0,1,100,95.536
1575307661.107923,362434.000,62866,1,H0,1,100,95.524
1575307661.244320,362549.000,62885,1,H0,1,100,95.532
1575307661.368857,362654.000,62903,1,H0,1,100,95.528
1575307661.505255,362769.000,62921,1,H0,1,100,95.524
1575307661.641652,362884.000,62939,1,H0,1,100,95.524
1575307661.766189,362989.000,62956,1,H0,1,100,95.532
1575307661.903772,363105.000,62974,1,H0,1,100,95.528
1575307662.041355,363221.000,63008,1,H0,1,100,95.532
1575307662.177753,363336.000,63027,1,H0,1,100,95.528
1575307662.312964,363450.000,63045,1,H0,1,100,95.528
1575307662.446989,363563.000,63063,1,H0,1,100,95.532
1575307662.571526,363668.000,63081,1,H0,1,100,95.521
1575307662.706737,363782.000,63099,1,H0,1,100,95.524
1575307662.841949,363896.000,63116,1,H0,1,100,95.517
1575307662.977160,364010.000,63134,1,H0,1,100,95.521
1575307663.106441,364119.000,63152,1,H0,1,100,95.524
1575307663.235722,364228.000,63187,1,H0,1,100,95.524
1575307663.363816,364336.000,63205,1,H0,1,100,95.521
1575307663.501400,364452.000,63223,1,H0,1,100,95.524
1575307663.641356,364570.000,63241,1,H0,1,100,95.524
1575307663.765892,364675.000,63259,1,H0,1,100,95.521
1575307663.895173,364784.000,63277,1,H0,1,100,95.521
1575307664.033942,364901.000,63295,1,H0,1,100,95.517
1575307664.170340,365016.000,63312,1,H0,1,100,95.513
1575307664.303179,365128.000,63331,1,H0,1,100,95.517
1575307664.430088,365235.000,63348,1,H0,1,100,95.517
1575307664.562927,365347.000,63386,2,H0,1,100,95.521
1575307664.695766,365459.000,63386,2,H0,1,100,95.521
1575307664.835722,365577.000,63405,1,H0,1,100,95.517
1575307664.973305,365693.000,63423,1,H0,1,100,95.513
1575307665.115633,365813.000,63457,1,H0,1,100,95.513
1575307665.254402,365930.000,63476,1,H0,1,100,95.513
1575307665.391986,366046.000,63494,1,H0,1,100,95.505
1575307665.528383,366161.000,63512,1,H0,1,100,95.509
1575307665.655292,366268.000,63530,1,H0,1,100,95.517
1575307665.785759,366378.000,63547,1,H0,1,100,95.501
1575307665.919784,366491.000,63565,1,H0,1,100,95.505
1575307666.046693,366598.000,63583,1,H0,1,100,95.513
1575307666.172416,366704.000,63601,1,H0,1,100,95.509
1575307666.311185,366821.000,63636,1,H0,1,100,95.513
1575307666.448768,366937.000,63654,1,H0,1,100,95.505
1575307666.581608,367049.000,63672,1,H0,1,100,95.513
1575307666.719191,367165.000,63690,1,H0,1,100,95.505
1575307666.847286,367273.000,63708,1,H0,1,100,95.509
1575307666.971823,367378.000,63726,1,H0,1,100,95.501
1575307667.108220,367493.000,63743,1,H0,1,100,95.517
1575307667.245803,367609.000,63762,1,H0,1,100,95.517
1575307667.381015,367723.000,63796,1,H0,1,100,95.501
1575307667.507923,367830.000,63814,1,H0,1,100,95.513
1575307667.638391,367940.000,63832,1,H0,1,100,95.501
1575307667.774788,368055.000,63850,1,H0,1,100,95.517
1575307667.909999,368169.000,63868,1,H0,1,100,95.509
1575307668.044024,368282.000,63886,1,H0,1,100,95.505
1575307668.168561,368387.000,63904,1,H0,1,100,95.505
1575307668.304958,368502.000,63922,1,H0,1,100,95.505
1575307668.438984,368615.000,63940,1,H0,1,100,95.513
1575307668.576567,368731.000,63974,1,H0,1,100,95.505
1575307668.704662,368839.000,63992,1,H0,1,100,95.505
1575307668.831571,368946.000,64010,1,H0,1,100,95.509
1575307668.964410,369058.000,64028,1,H0,1,100,95.513
1575307669.106738,369178.000,64046,1,H0,1,100,95.509
1575307669.244321,369294.000,64065,1,H0,1,100,95.509
1575307669.378346,369407.000,64082,1,H0,1,100,95.505
1575307669.520674,369527.000,64100,1,H0,1,100,95.509
1575307669.659443,369644.000,64134,1,H0,1,100,95.505
1575307669.793468,369757.000,64152,1,H0,1,100,95.513
1575307669.932238,369874.000,64170,1,H0,1,100,95.505
1575307670.072193,369992.000,64188,1,H0,1,100,95.509
1575307670.196730,370097.000,64206,1,H0,1,100,95.509
1575307670.327197,370207.000,64225,1,H0,1,100,95.501
1575307670.465967,370324.000,64242,1,H0,1,100,95.509
1575307670.595248,370433.000,64260,1,H0,1,100,95.505
1575307670.734017,370550.000,64281,1,H0,1,100,95.513
1575307670.872787,370667.000,64301,1,H0,1,100,95.505
1575307670.999695,370774.000,64319,1,H0,1,100,95.505
1575307671.128976,370883.000,64336,1,H0,1,100,95.509
1575307671.263001,370996.000,64355,1,H0,1,100,95.494
1575307671.394655,371107.000,64389,1,H0,1,100,95.501
1575307671.535796,371226.000,64407,1,H0,1,100,95.494
1575307671.662705,371333.000,64425,1,H0,1,100,95.501
1575307671.790800,371441.000,64443,1,H0,1,100,95.509
1575307671.926011,371555.000,64461,1,H0,1,100,95.498
1575307672.065967,371673.000,64479,1,H0,1,100,95.498
1575307672.199992,371786.000,64497,1,H0,1,100,95.509
1575307672.324529,371891.000,64515,1,H0,1,100,95.501
1575307672.454996,372001.000,64533,1,H0,1,100,95.505
1575307672.591393,372116.000,64551,1,H0,1,100,95.505
1575307672.728976,372232.000,64585,1,H0,1,100,95.501
1575307672.861815,372344.000,64603,1,H0,1,100,95.513
1575307672.999399,372460.000,64621,1,H0,1,100,95.505
1575307673.126308,372567.000,64639,1,H0,1,100,95.501
1575307673.260333,372680.000,64658,1,H0,1,100,95.505
1575307673.383684,372784.000,64676,1,H0,1,100,95.505
1575307673.518895,372898.000,64693,1,H0,1,100,95.494
1575307673.652920,373011.000,64711,1,H0,1,100,95.501
1575307673.777457,373116.000,64729,1,H0,1,100,95.509
1575307673.912668,373230.000,64763,1,H0,1,100,95.501
1575307674.050251,373346.000,64781,1,H0,1,100,95.505
1575307674.184277,373459.000,64800,1,H0,1,100,95.498
1575307674.323046,373576.000,64818,1,H0,1,100,95.501
1575307674.459444,373691.000,64836,1,H0,1,100,95.505
1575307674.583980,373796.000,64854,1,H0,1,100,95.505
1575307674.716819,373908.000,64871,1,H0,1,100,95.509
1575307674.853217,374023.000,64889,1,H0,1,100,95.501
1575307674.986056,374135.000,64907,1,H0,1,100,95.501
1575307675.118895,374247.000,64941,1,H0,1,100,95.505
1575307675.245804,374354.000,64960,1,H0,1,100,95.505
1575307675.377457,374465.000,64978,1,H0,1,100,95.501
1575307675.512668,374579.000,64996,1,H0,1,100,95.501
1575307675.654996,374699.000,65014,1,H0,1,100,95.498
1575307675.780719,374805.000,65032,1,H0,1,100,95.501
1575307675.906441,374911.000,65050,1,H0,1,100,95.498
1575307676.044025,375027.000,65067,1,H0,1,100,95.494
1575307676.180422,375142.000,65085,1,H0,1,100,95.498
1575307676.315633,375256.000,65120,1,H0,1,100,95.494
1575307676.441356,375362.000,65138,1,H0,1,100,95.494
1575307676.567079,375468.000,65156,1,H0,1,100,95.501
1575307676.705255,375584.500,65177,2,H0,1,100,95.486
1575307676.843432,375701.000,65177,2,H0,1,100,95.494
1575307676.978643,375815.000,65213,1,H0,1,100,95.494
1575307677.120971,375935.000,65231,1,H0,1,100,95.501
1575307677.259740,376052.000,65250,1,H0,1,100,95.490
1575307677.396137,376167.000,65268,1,H0,1,100,95.498
1575307677.534907,376284.000,65286,1,H0,1,100,95.494
1575307677.663002,376392.000,65303,1,H0,1,100,95.486
1575307677.797027,376505.000,65321,1,H0,1,100,95.501
1575307677.932238,376619.000,65339,1,H0,1,100,95.486
1575307678.060333,376727.000,65373,1,H0,1,100,95.479
1575307678.184870,376832.000,65392,1,H0,1,100,95.490
1575307678.322453,376948.000,65410,1,H0,1,100,95.482
1575307678.458851,377063.000,65428,1,H0,1,100,95.490
1575307678.592876,377176.000,65446,1,H0,1,100,95.482
1575307678.729273,377291.000,65464,1,H0,1,100,95.494
1575307678.860926,377402.000,65481,1,H0,1,100,95.482
1575307678.984277,377506.000,65499,1,H0,1,100,95.486
1575307679.119488,377620.000,65517,1,H0,1,100,95.482
1575307679.255886,377735.000,16,1,H0,1,100,95.482
1575307679.391097,377849.000,34,1,H0,1,100,95.486
1575307679.519192,377957.000,52,1,H0,1,100,95.486
1575307679.649659,378067.000,70,1,H0,1,100,95.479
1575307679.783684,378180.000,88,1,H0,1,100,95.482
1575307679.917709,378293.000,106,1,H0,1,100,95.479
1575307680.055293,378409.000,124,1,H0,1,100,95.482
1575307680.179829,378514.000,141,1,H0,1,100,95.482
1575307680.312669,378626.000,160,1,H0,1,100,95.479
1575307680.446694,378739.000,178,1,H0,1,100,95.482
1575307680.583091,378854.000,212,1,H0,1,100,95.475
1575307680.714744,378965.000,230,1,H0,1,100,95.475
1575307680.841653,379072.000,248,1,H0,1,100,95.471
1575307680.973306,379183.000,266,1,H0,1,100,95.486
1575307681.114448,379302.000,284,1,H0,1,100,95.475
1575307681.252031,379418.000,303,1,H0,1,100,95.482
1575307681.381312,379527.000,320,1,H0,1,100,95.482
1575307681.521267,379645.000,338,1,H0,1,100,95.479
1575307681.660037,379762.000,372,1,H0,1,100,95.475
1575307681.791690,379873.000,390,1,H0,1,100,95.475
1575307681.930459,379990.000,408,1,H0,1,100,95.467
1575307682.069229,380107.000,426,1,H0,1,100,95.471
1575307682.197324,380215.000,444,1,H0,1,100,95.479
1575307682.333721,380330.000,462,1,H0,1,100,95.475
1575307682.460630,380437.000,480,1,H0,1,100,95.471
1575307682.586353,380543.000,498,1,H0,1,100,95.486
1575307682.723936,380659.000,515,1,H0,1,100,95.467
1575307682.861520,380775.000,536,1,H0,1,100,95.471
1575307682.991987,380885.000,556,1,H0,1,100,95.467
1575307683.120082,380993.000,573,1,H0,1,100,95.467
1575307683.252921,381105.000,592,1,H0,1,100,95.479
1575307683.385760,381217.000,610,1,H0,1,100,95.471
1575307683.525715,381335.000,644,1,H0,1,100,95.471
1575307683.654996,381444.000,662,1,H0,1,100,95.467
1575307683.780719,381550.000,680,1,H0,1,100,95.467
1575307683.915930,381664.000,698,1,H0,1,100,95.471
1575307684.055886,381782.000,716,1,H0,1,100,95.471
1575307684.192283,381897.000,734,1,H0,1,100,95.471
1575307684.316820,382002.000,753,1,H0,1,100,95.471
1575307684.446101,382111.000,770,1,H0,1,100,95.471
1575307684.581312,382225.000,788,1,H0,1,100,95.467
1575307684.718896,382341.000,822,1,H0,1,100,95.479
1575307684.851735,382453.000,840,1,H0,1,100,95.467
1575307684.977458,382559.000,858,1,H0,1,100,95.475
1575307685.113855,382674.000,876,1,H0,1,100,95.471
1575307685.246694,382786.000,895,1,H0,1,100,95.463
1575307685.371231,382891.000,913,1,H0,1,100,95.463
1575307685.504070,383003.000,931,1,H0,1,100,95.463
1575307685.635723,383114.000,948,1,H0,1,100,95.467
1575307685.760260,383219.000,966,1,H0,1,100,95.475
1575307685.893099,383331.000,984,1,H0,1,100,95.471
1575307686.030682,383447.000,1018,1,H0,1,100,95.463
1575307686.163521,383559.000,1037,1,H0,1,100,95.471
1575307686.302291,383676.000,1055,1,H0,1,100,95.467
1575307686.441060,383793.000,1073,1,H0,1,100,95.471
1575307686.565597,383898.000,1091,1,H0,1,100,95.463
1575307686.696064,384008.000,1109,1,H0,1,100,95.463
1575307686.831275,384122.000,1127,1,H0,1,100,95.463
1575307686.964114,384234.000,1144,1,H0,1,100,95.463
1575307687.100512,384349.000,1162,1,H0,1,100,95.475
1575307687.227421,384456.000,1197,1,H0,1,100,95.467
1575307687.351957,384561.000,1215,1,H0,1,100,95.467
1575307687.489541,384677.000,1233,1,H0,1,100,95.460
1575307687.630682,384796.000,1251,1,H0,1,100,95.463
1575307687.759963,384905.000,1269,1,H0,1,100,95.471
1575307687.884500,385010.000,1287,1,H0,1,100,95.463
1575307688.020897,385125.000,1305,1,H0,1,100,95.467
1575307688.157295,385240.000,1322,1,H0,1,100,95.475
1575307688.294878,385356.000,1341,1,H0,1,100,95.471
1575307688.420601,385462.000,1359,1,H0,1,100,95.460
1575307688.545137,385567.000,1393,1,H0,1,100,95.463
1575307688.683907,385684.000,1411,1,H0,1,100,95.467
1575307688.821490,385800.000,1432,2,H0,1,100,95.467
1575307688.959074,385916.000,1432,2,H0,1,100,95.463
1575307689.101401,386036.000,1468,1,H0,1,100,95.475
1575307689.240171,386153.000,1487,1,H0,1,100,95.475
1575307689.376568,386268.000,1505,1,H0,1,100,95.471
1575307689.515338,386385.000,1523,1,H0,1,100,95.471
1575307689.644619,386494.000,1541,1,H0,1,100,95.463
1575307689.782202,386610.000,1558,1,H0,1,100,95.463
1575307689.917413,386724.000,1576,1,H0,1,100,95.475
1575307690.049066,386835.000,1610,1,H0,1,100,95.475
1575307690.172417,386939.000,1629,1,H0,1,100,95.467
1575307690.308814,387054.000,1647,1,H0,1,100,95.463
1575307690.445212,387169.000,1665,1,H0,1,100,95.467
1575307690.580423,387283.000,1683,1,H0,1,100,95.471
1575307690.718006,387399.000,1701,1,H0,1,100,95.467
1575307690.853218,387513.000,1719,1,H0,1,100,95.467
1575307690.976568,387617.000,1736,1,H0,1,100,95.479
1575307691.109407,387729.000,1754,1,H0,1,100,95.463
1575307691.243433,387842.000,1772,1,H0,1,100,95.475
1575307691.377458,387955.000,1807,1,H0,1,100,95.467
1575307691.509111,388066.000,1825,1,H0,1,100,95.471
1575307691.637206,388174.000,1843,1,H0,1,100,95.463
1575307691.770045,388286.000,1861,1,H0,1,100,95.467
1575307691.905256,388400.000,1879,1,H0,1,100,95.471
1575307692.046398,388519.000,1897,1,H0,1,100,95.467
1575307692.170935,388624.000,1915,1,H0,1,100,95.471
1575307692.301402,388734.000,1933,1,H0,1,100,95.467
1575307692.434241,388846.000,1951,1,H0,1,100,95.471
1575307692.570638,388961.000,1985,1,H0,1,100,95.471
1575307692.704663,389074.000,2003,1,H0,1,100,95.463
1575307692.830386,389180.000,2021,1,H0,1,100,95.475
1575307692.960853,389290.000,2039,1,H0,1,100,95.460
1575307693.100809,389408.000,2057,1,H0,1,100,95.471
1575307693.238392,389524.000,2076,1,H0,1,100,95.471
1575307693.366487,389632.000,2094,1,H0,1,100,95.475
1575307693.504070,389748.000,2111,1,H0,1,100,95.460
1575307693.642840,389865.000,2145,1,H0,1,100,95.471
1575307693.770935,389973.000,2163,1,H0,1,100,95.475
1575307693.909704,390090.000,2181,1,H0,1,100,95.463
1575307694.047287,390206.000,2199,1,H0,1,100,95.463
1575307694.178941,390317.000,2217,1,H0,1,100,95.460
1575307694.307035,390425.000,2236,1,H0,1,100,95.463
1575307694.444619,390541.000,2254,1,H0,1,100,95.467
1575307694.571528,390648.000,2271,1,H0,1,100,95.463
1575307694.709111,390764.000,2289,1,H0,1,100,95.460
1575307694.844915,390878.500,2326,2,H0,1,100,95.463
1575307694.980720,390993.000,2326,2,H0,1,100,95.460
1575307695.107629,391100.000,2346,1,H0,1,100,95.463
1575307695.239282,391211.000,2364,1,H0,1,100,95.479
1575307695.372121,391323.000,2382,1,H0,1,100,95.460
1575307695.510890,391440.000,2400,1,H0,1,100,95.460
1575307695.643729,391552.000,2434,1,H0,1,100,95.467
1575307695.767080,391656.000,2452,1,H0,1,100,95.471
1575307695.901105,391769.000,2470,1,H0,1,100,95.467
1575307696.033944,391881.000,2488,4,H0,1,100,95.467
1575307696.166784,391993.000,2488,4,H0,1,100,95.463
1575307696.299623,392105.000,2488,4,H0,1,100,95.467
1575307696.432462,392217.000,2488,4,H0,1,100,95.463
1575307696.568385,392331.600,2507,5,H0,1,100,95.475
1575307696.704308,392446.200,2507,5,H0,1,100,95.471
1575307696.840231,392560.800,2507,5,H0,1,100,95.467
1575307696.976154,392675.400,2507,5,H0,1,100,95.460
1575307697.112077,392790.000,2507,5,H0,1,100,95.467
1575307697.240171,392898.000,2526,6,H0,1,100,95.460
1575307697.368266,393006.000,2526,6,H0,1,100,95.463
1575307697.496361,393114.000,2526,6,H0,1,100,95.463
1575307697.624456,393222.000,2526,6,H0,1,100,95.463
1575307697.752551,393330.000,2526,6,H0,1,100,95.471
1575307697.880646,393438.000,2526,6,H0,1,100,95.460
1575307698.014819,393551.125,2544,8,H0,1,100,95.463
1575307698.148993,393664.250,2544,8,H0,1,100,95.463
1575307698.283166,393777.375,2544,8,H0,1,100,95.463
1575307698.417340,393890.500,2544,8,H0,1,100,95.467
1575307698.551513,394003.625,2544,8,H0,1,100,95.467
1575307698.685687,394116.750,2544,8,H0,1,100,95.467
1575307698.819860,394229.875,2544,8,H0,1,100,95.463
1575307698.954034,394343.000,2544,8,H0,1,100,95.467
1575307699.087004,394455.111,2563,9,H0,1,100,95.467
1575307699.219975,394567.222,2563,9,H0,1,100,95.460
1575307699.352946,394679.333,2563,9,H0,1,100,95.475
1575307699.485917,394791.444,2563,9,H0,1,100,95.463
1575307699.618888,394903.556,2563,9,H0,1,100,95.463
1575307699.751859,395015.667,2563,9,H0,1,100,95.463
1575307699.884830,395127.778,2563,9,H0,1,100,95.467
1575307700.017801,395239.889,2563,9,H0,1,100,95.463
1575307700.150772,395352.000,2563,9,H0,1,100,95.463
1575307700.286804,395466.692,2585,13,H0,1,100,95.467
1575307700.422837,395581.385,2585,13,H0,1,100,95.463
1575307700.558869,395696.077,2585,13,H0,1,100,95.467
1575307700.694901,395810.769,2585,13,H0,1,100,95.467
1575307700.830934,395925.462,2585,13,H0,1,100,95.463
1575307700.966966,396040.154,2585,13,H0,1,100,95.467
1575307701.102999,396154.846,2585,13,H0,1,100,95.463
1575307701.239031,396269.538,2585,13,H0,1,100,95.460
1575307701.375063,396384.231,2585,13,H0,1,100,95.460
1575307701.511096,396498.923,2585,13,H0,1,100,95.467
1575307701.647128,396613.615,2585,13,H0,1,100,95.463
1575307701.783161,396728.308,2585,13,H0,1,100,95.467
1575307701.919193,396843.000,2585,13,H0,1,100,95.456
1575307702.053960,396956.625,2605,16,H0,1,100,95.463
1575307702.188726,397070.250,2605,16,H0,1,100,95.463
1575307702.323493,397183.875,2605,16,H0,1,100,95.467
1575307702.458259,397297.500,2605,16,H0,1,100,95.471
1575307702.593026,397411.125,2605,16,H0,1,100,95.463
1575307702.727792,397524.750,2605,16,H0,1,100,95.463
1575307702.862559,397638.375,2605,16,H0,1,100,95.463
1575307702.997325,397752.000,2605,16,H0,1,100,95.460
1575307703.132092,397865.625,2605,16,H0,1,100,95.452
1575307703.266858,397979.250,2605,16,H0,1,100,95.463
1575307703.401625,398092.875,2605,16,H0,1,100,95.467
1575307703.536391,398206.500,2605,16,H0,1,100,95.463
1575307703.671158,398320.125,2605,16,H0,1,100,95.463
1575307703.805924,398433.750,2605,16,H0,1,100,95.467
1575307703.940691,398547.375,2605,16,H0,1,100,95.460
1575307704.075457,398661.000,2605,16,H0,1,100,95.460
1575307704.211398,398775.615,2625,13,H0,1,100,95.463
1575307704.347339,398890.231,2625,13,H0,1,100,95.460
1575307704.483281,399004.846,2625,13,H0,1,100,95.460
1575307704.619222,399119.462,2625,13,H0,1,100,95.460
1575307704.755163,399234.077,2625,13,H0,1,100,95.467
1575307704.891104,399348.692,2625,13,H0,1,100,95.463
1575307705.027045,399463.308,2625,13,H0,1,100,95.467
1575307705.162987,399577.923,2625,13,H0,1,100,95.456
1575307705.298928,399692.538,2625,13,H0,1,100,95.471
1575307705.434869,399807.154,2625,13,H0,1,100,95.452
1575307705.570810,399921.769,2625,13,H0,1,100,95.463
1575307705.706751,400036.385,2625,13,H0,1,100,95.452
1575307705.842692,400151.000,2625,13,H0,1,100,95.460
1575307705.979089,400266.000,2643,2,H0,1,100,95.456
1575307706.115487,400381.000,2643,2,H0,1,100,95.452
1575307706.243582,400489.000,2661,1,H0,1,100,95.456
1575307706.370491,400596.000,2680,1,H0,1,100,95.452
1575307706.508074,400712.000,2698,1,H0,1,100,95.452
1575307706.640913,400824.000,2715,1,H0,1,100,95.456
1575307706.782055,400943.000,2733,1,H0,1,100,95.448
1575307706.908964,401050.000,2767,1,H0,1,100,95.456
1575307707.033500,401155.000,2785,1,H0,1,100,95.463
1575307707.171084,401271.000,2803,1,H0,1,100,95.452
1575307707.308667,401387.000,2822,1,H0,1,100,95.452
1575307707.441506,401499.000,2840,1,H0,1,100,95.452
1575307707.569601,401607.000,2858,1,H0,1,100,95.452
1575307707.700068,401717.000,2876,1,H0,1,100,95.448
1575307707.834093,401830.000,2897,1,H0,1,100,95.456
1575307707.972863,401947.000,2917,1,H0,1,100,95.452
1575307708.104516,402058.000,2935,1,H0,1,100,95.456
1575307708.229053,402163.000,2953,1,H0,1,100,95.452
1575307708.361892,402275.000,2971,1,H0,1,100,95.456
1575307708.500661,402392.000,2989,1,H0,1,100,95.452
1575307708.637058,402507.000,3023,1,H0,1,100,95.444
1575307708.761595,402612.000,3041,1,H0,1,100,95.452
1575307708.890876,402721.000,3059,1,H0,1,100,95.448
1575307709.023715,402833.000,3077,1,H0,1,100,95.448
1575307709.161299,402949.000,3095,1,H0,1,100,95.452
1575307709.298882,403065.000,3114,1,H0,1,100,95.452
1575307709.436466,403181.000,3132,1,H0,1,100,95.440
1575307709.575235,403298.000,3149,1,H0,1,100,95.452
1575307709.711632,403413.000,3183,1,H0,1,100,95.448
1575307709.836169,403518.000,3201,1,H0,1,100,95.444
1575307709.969008,403630.000,3219,1,H0,1,100,95.452
1575307710.095917,403737.000,3237,1,H0,1,100,95.444
1575307710.225198,403846.000,3256,1,H0,1,100,95.444
1575307710.363967,403963.000,3274,1,H0,1,100,95.452
1575307710.505109,404082.000,3292,1,H0,1,100,95.448
1575307710.642693,404198.000,3309,1,H0,1,100,95.444
1575307710.779090,404313.000,3327,1,H0,1,100,95.448
1575307710.905999,404420.000,3345,1,H0,1,100,95.448
1575307711.032907,404527.000,3379,1,H0,1,100,95.440
1575307711.170491,404643.000,3397,1,H0,1,100,95.452
1575307711.309260,404760.000,3416,1,H0,1,100,95.444
1575307711.436169,404867.000,3434,1,H0,1,100,95.440
1575307711.564264,404975.000,3452,1,H0,1,100,95.444
1575307711.700661,405090.000,3470,1,H0,1,100,95.444
1575307711.837059,405205.000,3487,1,H0,1,100,95.440
1575307711.974642,405321.000,3505,1,H0,1,100,95.456
1575307712.101551,405428.000,3523,1,H0,1,100,95.440
1575307712.228460,405535.000,3541,1,H0,1,100,95.448
1575307712.367229,405652.000,3576,1,H0,1,100,95.444
1575307712.502441,405766.000,3594,1,H0,1,100,95.448
1575307712.636466,405879.000,3612,1,H0,1,100,95.448
1575307712.761003,405984.000,3630,1,H0,1,100,95.444
1575307712.895028,406097.000,3648,1,H0,1,100,95.444
1575307713.019564,406202.000,3666,1,H0,1,100,95.440
1575307713.158334,406319.000,3683,1,H0,1,100,95.448
1575307713.297103,406436.000,3702,1,H0,1,100,95.448
1575307713.432315,406550.000,3736,1,H0,1,100,95.452
1575307713.573456,406669.000,3754,1,H0,1,100,95.440
1575307713.712226,406786.000,3772,1,H0,1,100,95.448
1575307713.848623,406901.000,3793,1,H0,1,100,95.448
1575307713.988579,407019.000,3813,1,H0,1,100,95.448
1575307714.123790,407133.000,3831,1,H0,1,100,95.452
1575307714.264931,407252.000,3849,1,H0,1,100,95.452
1575307714.393026,407360.000,3868,1,H0,1,100,95.452
1575307714.523493,407470.000,3886,1,H0,1,100,95.456
1575307714.655146,407581.000,3904,1,H0,1,100,95.444
1575307714.792730,407697.000,3921,1,H0,1,100,95.444
1575307714.929127,407812.000,3939,1,H0,1,100,95.444
1575307715.051292,407915.000,3957,1,H0,1,100,95.460
1575307715.182945,408026.000,3991,1,H0,1,100,95.456
1575307715.319342,408141.000,4010,1,H0,1,100,95.440
1575307715.455739,408256.000,4028,1,H0,1,100,95.440
1575307715.587393,408367.000,4046,1,H0,1,100,95.440
1575307715.715487,408475.000,4064,1,H0,1,100,95.444
1575307715.847141,408586.000,4082,1,H0,1,100,95.452
1575307715.982352,408700.000,4099,1,H0,1,100,95.444
1575307716.123493,408819.000,4117,1,H0,1,100,95.456
1575307716.248030,408924.000,4135,1,H0,1,100,95.452
1575307716.377311,409033.000,4170,1,H0,1,100,95.444
1575307716.510150,409145.000,4188,1,H0,1,100,95.460
1575307716.646548,409260.000,4206,1,H0,1,100,95.448
1575307716.782945,409375.000,4224,1,H0,1,100,95.433
1575307716.909854,409482.000,4242,1,H0,1,100,95.444
1575307717.039135,409591.000,4260,1,H0,1,100,95.440
1575307717.174346,409705.000,4278,1,H0,1,100,95.440
1575307717.302441,409813.000,4296,1,H0,1,100,95.440
1575307717.431722,409922.000,4314,1,H0,1,100,95.437
1575307717.568119,410037.000,4332,1,H0,1,100,95.440
1575307717.693842,410143.000,4366,1,H0,1,100,95.444
1575307717.820751,410250.000,4384,1,H0,1,100,95.433
1575307717.959520,410367.000,4402,1,H0,1,100,95.437
1575307718.092359,410479.000,4420,1,H0,1,100,95.440
1575307718.226385,410592.000,4438,1,H0,1,100,95.440
1575307718.367526,410711.000,4457,1,H0,1,100,95.437
1575307718.497993,410821.000,4474,1,H0,1,100,95.429
1575307718.635577,410937.000,4492,1,H0,1,100,95.433
1575307718.762486,411044.000,4510,1,H0,1,100,95.437
1575307718.894139,411155.000,4544,1,H0,1,100,95.433
1575307719.028164,411268.000,4562,1,H0,1,100,95.437
1575307719.165747,411384.000,4580,1,H0,1,100,95.429
1575307719.298586,411496.000,4599,1,H0,1,100,95.448
1575307719.420751,411599.000,4617,1,H0,1,100,95.437
1575307719.555962,411713.000,4635,1,H0,1,100,95.433
1575307719.694732,411830.000,4652,1,H0,1,100,95.429
1575307719.832315,411946.000,4670,1,H0,1,100,95.433
1575307719.958038,412052.000,4691,1,H0,1,100,95.437
1575307720.088505,412162.000,4711,1,H0,1,100,95.433
1575307720.222530,412275.000,4729,1,H0,1,100,95.437
1575307720.360113,412391.000,4747,1,H0,1,100,95.433
1575307720.496511,412506.000,4765,1,H0,1,100,95.425
1575307720.619861,412610.000,4783,1,H0,1,100,95.429
1575307720.752701,412722.000,4800,1,H0,1,100,95.425
1575307720.886726,412835.000,4835,1,H0,1,100,95.421
1575307721.023123,412950.000,4853,1,H0,1,100,95.429
1575307721.164265,413069.000,4871,1,H0,1,100,95.425
1575307721.303034,413186.000,4890,1,H0,1,100,95.437
1575307721.440618,413302.000,4907,1,H0,1,100,95.429
1575307721.582945,413422.000,4925,1,H0,1,100,95.421
1575307721.722901,413540.000,4959,1,H0,1,100,95.429
1575307721.860484,413656.000,4977,1,H0,1,100,95.425
1575307721.996881,413771.000,4995,1,H0,1,100,95.425
1575307722.123790,413878.000,5013,1,H0,1,100,95.425
1575307722.253071,413987.000,5031,1,H0,1,100,95.421
1575307722.393027,414105.000,5050,1,H0,1,100,95.425
1575307722.528238,414219.000,5067,1,H0,1,100,95.421
1575307722.662263,414332.000,5085,1,H0,1,100,95.433
1575307722.801033,414449.000,5119,1,H0,1,100,95.418
1575307722.926755,414555.000,5137,1,H0,1,100,95.421
1575307723.053664,414662.000,5155,1,H0,1,100,95.421
1575307723.190062,414777.000,5173,1,H0,1,100,95.425
1575307723.328831,414894.000,5192,1,H0,1,100,95.421
1575307723.459298,415004.000,5210,1,H0,1,100,95.421
1575307723.587393,415112.000,5228,1,H0,1,100,95.418
1575307723.721418,415225.000,5245,1,H0,1,100,95.421
1575307723.859002,415341.000,5263,1,H0,1,100,95.425
1575307723.995399,415456.000,5297,1,H0,1,100,95.421
1575307724.124680,415565.000,5315,1,H0,1,100,95.429
1575307724.249217,415670.000,5334,1,H0,1,100,95.425
1575307724.387986,415787.000,5352,1,H0,1,100,95.425
1575307724.522011,415900.000,5370,1,H0,1,100,95.410
1575307724.659595,416016.000,5388,1,H0,1,100,95.418
1575307724.784132,416121.000,5406,1,H0,1,100,95.425
1575307724.915785,416232.000,5423,1,H0,1,100,95.429
1575307725.040321,416337.000,5441,1,H0,1,100,95.421
1575307725.174346,416450.000,5459,1,H0,1,100,95.421
1575307725.303627,416559.000,5476,1,H0,1,100,95.425
1575307725.438839,416673.000,5512,1,H0,1,100,95.429
1575307725.579980,416792.000,5530,1,H0,1,100,95.421
1575307725.717564,416908.000,5548,1,H0,1,100,95.418
1575307725.851589,417021.000,5566,1,H0,1,100,95.421
1575307725.992730,417140.000,5587,1,H0,1,100,95.429
1575307726.129128,417255.000,5607,1,H0,1,100,95.418
1575307726.264339,417369.000,5625,1,H0,1,100,95.421
1575307726.395992,417480.000,5644,1,H0,1,100,95.425
1575307726.524087,417588.000,5662,1,H0,1,100,95.425
1575307726.654554,417698.000,5680,1,H0,1,100,95.433
1575307726.796882,417818.000,5697,1,H0,1,100,95.429
1575307726.933279,417933.000,5731,1,H0,1,100,95.421
1575307727.067304,418046.000,5749,1,H0,1,100,95.429
1575307727.202516,418160.000,5767,1,H0,1,100,95.418
1575307727.328238,418266.000,5786,1,H0,1,100,95.425
1575307727.456333,418374.000,5804,1,H0,1,100,95.421
1575307727.593917,418490.000,5822,1,H0,1,100,95.429
1575307727.735058,418609.000,5840,1,H0,1,100,95.421
1575307727.861967,418716.000,5857,1,H0,1,100,95.429
1575307727.988876,418823.000,5875,1,H0,1,100,95.421
1575307728.126459,418939.000,5893,1,H0,1,100,95.425
1575307728.262857,419054.000,5928,1,H0,1,100,95.421
1575307728.401626,419171.000,5946,1,H0,1,100,95.421
1575307728.526163,419276.000,5964,1,H0,1,100,95.421
1575307728.650700,419381.000,5982,1,H0,1,100,95.414
1575307728.789469,419498.000,6000,1,H0,1,100,95.421
1575307728.924680,419612.000,6018,1,H0,1,100,95.421
1575307729.056333,419723.000,6035,1,H0,1,100,95.425
1575307729.192731,419838.000,6053,1,H0,1,100,95.421
1575307729.323198,419948.000,6071,1,H0,1,100,95.414
1575307729.454851,420059.000,6106,1,H0,1,100,95.421
1575307729.581760,420166.000,6124,1,H0,1,100,95.421
1575307729.718157,420281.000,6142,1,H0,1,100,95.421
1575307729.845066,420388.000,6160,1,H0,1,100,95.421
1575307729.981463,420503.000,6178,1,H0,1,100,95.425
1575307730.113116,420614.000,6196,1,H0,1,100,95.421
1575307730.247141,420727.000,6214,1,H0,1,100,95.425
1575307730.387097,420845.000,6232,1,H0,1,100,95.414
1575307730.519936,420957.000,6250,1,H0,1,100,95.421
1575307730.658705,421074.000,6284,1,H0,1,100,95.421
1575307730.785614,421181.000,6302,1,H0,1,100,95.418
1575307730.916081,421291.000,6320,1,H0,1,100,95.421
1575307731.048921,421403.000,6338,1,H0,1,100,95.418
1575307731.186504,421519.000,6356,1,H0,1,100,95.421
1575307731.322901,421634.000,6375,1,H0,1,100,95.418
1575307731.445066,421737.000,6393,1,H0,1,100,95.418
1575307731.579091,421850.000,6410,1,H0,1,100,95.425
1575307731.719047,421968.000,6428,1,H0,1,100,95.414
1575307731.855444,422083.000,6462,1,H0,1,100,95.421
1575307731.983539,422191.000,6483,2,H0,1,100,95.418
1575307732.111634,422299.000,6483,2,H0,1,100,95.418
1575307732.244473,422411.000,6502,1,H0,1,100,95.414
1575307732.383242,422528.000,6521,1,H0,1,100,95.418
1575307732.522012,422645.000,6555,1,H0,1,100,95.418
1575307732.645362,422749.000,6573,1,H0,1,100,95.414
1575307732.774643,422858.000,6591,1,H0,1,100,95.410
1575307732.907483,422970.000,6609,1,H0,1,100,95.414
1575307733.043880,423085.000,6627,1,H0,1,100,95.410
1575307733.186208,423205.000,6645,1,H0,1,100,95.410
1575307733.324977,423322.000,6663,1,H0,1,100,95.406
1575307733.462560,423438.000,6681,1,H0,1,100,95.418
1575307733.604888,423558.000,6715,1,H0,1,100,95.410
1575307733.744844,423676.000,6733,1,H0,1,100,95.418
1575307733.881241,423791.000,6751,1,H0,1,100,95.414
1575307734.020010,423908.000,6769,1,H0,1,100,95.414
1575307734.146919,424015.000,6787,1,H0,1,100,95.410
1575307734.275014,424123.000,6804,1,H0,1,100,95.406
1575307734.413784,424240.000,6823,1,H0,1,100,95.410
1575307734.547809,424353.000,6857,1,H0,1,100,95.402
1575307734.681834,424466.000,6875,1,H0,1,100,95.402
1575307734.822976,424585.000,6893,1,H0,1,100,95.414
1575307734.948698,424691.000,6911,1,H0,1,100,95.402
1575307735.073235,424796.000,6929,1,H0,1,100,95.406
1575307735.210819,424912.000,6947,1,H0,1,100,95.402
1575307735.349588,425029.000,6966,1,H0,1,100,95.406
1575307735.482427,425141.000,6983,1,H0,1,100,95.398
1575307735.609336,425248.000,7001,1,H0,1,100,95.398
1575307735.742175,425360.000,7018,1,H0,1,100,95.402
1575307735.878572,425475.000,7053,1,H0,1,100,95.398
1575307736.014970,425590.000,7071,1,H0,1,100,95.406
1575307736.147809,425702.000,7089,1,H0,1,100,95.406
1575307736.272346,425807.000,7107,1,H0,1,100,95.398
1575307736.408743,425922.000,7126,1,H0,1,100,95.410
1575307736.542768,426035.000,7144,1,H0,1,100,95.402
1575307736.680351,426151.000,7161,1,H0,1,100,95.406
1575307736.807261,426258.000,7179,1,H0,1,100,95.402
1575307736.935355,426366.000,7197,1,H0,1,100,95.398
1575307737.069381,426479.000,7231,1,H0,1,100,95.398
1575307737.211708,426599.000,7249,1,H0,1,100,95.402
1575307737.350478,426716.000,7268,1,H0,1,100,95.402
1575307737.484503,426829.000,7286,1,H0,1,100,95.402
1575307737.626831,426949.000,7304,1,H0,1,100,95.402
1575307737.765600,427066.000,7321,1,H0,1,100,95.398
1575307737.899625,427179.000,7339,1,H0,1,100,95.398
1575307738.038395,427296.000,7376,2,H0,1,100,95.402
1575307738.177164,427413.000,7376,2,H0,1,100,95.402
1575307738.313561,427528.000,7396,1,H0,1,100,95.398
1575307738.448773,427642.000,7431,1,H0,1,100,95.398
1575307738.576868,427750.000,7449,1,H0,1,100,95.402
1575307738.703776,427857.000,7467,1,H0,1,100,95.395
1575307738.843732,427975.000,7485,1,H0,1,100,95.395
1575307738.978943,428089.000,7503,1,H0,1,100,95.402
1575307739.112968,428202.000,7521,1,H0,1,100,95.402
1575307739.251738,428319.000,7539,1,H0,1,100,95.406
1575307739.377461,428425.000,7557,1,H0,1,100,95.391
1575307739.505556,428533.000,7575,1,H0,1,100,95.402
1575307739.643139,428649.000,7593,1,H0,1,100,95.395
1575307739.781909,428766.000,7627,1,H0,1,100,95.402
1575307739.912375,428876.000,7645,1,H0,1,100,95.398
1575307740.036912,428981.000,7663,1,H0,1,100,95.406
1575307740.172123,429095.000,7681,1,H0,1,100,95.395
1575307740.309707,429211.000,7699,1,H0,1,100,95.398
1575307740.449662,429329.000,7717,1,H0,1,100,95.395
1575307740.576571,429436.000,7735,1,H0,1,100,95.402
1575307740.699922,429540.000,7753,1,H0,1,100,95.402
1575307740.838691,429657.000,7771,1,H0,1,100,95.402
1575307740.973903,429771.000,7805,1,H0,1,100,95.398
1575307741.109114,429885.000,7823,1,H0,1,100,95.395
1575307741.244325,429999.000,7841,1,H0,1,100,95.398
1575307741.377164,430111.000,7860,1,H0,1,100,95.402
1575307741.514748,430227.000,7878,1,H0,1,100,95.402
1575307741.641657,430334.000,7896,1,H0,1,100,95.391
1575307741.775682,430447.000,7913,1,H0,1,100,95.391
1575307741.901405,430553.000,7931,1,H0,1,100,95.398
1575307742.036616,430667.000,7949,1,H0,1,100,95.398
1575307742.167083,430777.000,7983,1,H0,1,100,95.402
1575307742.299922,430889.000,8002,1,H0,1,100,95.402
1575307742.441064,431008.000,8020,1,H0,1,100,95.398
1575307742.577461,431123.000,8038,1,H0,1,100,95.395
1575307742.713858,431238.000,8056,1,H0,1,100,95.402
1575307742.843139,431347.000,8074,1,H0,1,100,95.395
1575307742.972420,431456.000,8091,1,H0,1,100,95.402
1575307743.102887,431566.000,8109,1,H0,1,100,95.395
