EpochTimestamp,EmotiBitTimestamp,PacketNumber,DataLength,TypeTag,ProtocolVersion,DataReliability,PI
1575308094.201509,14027.000,1921,5,PI,1,100,189207
1575308094.201509,14027.000,1921,5,PI,1,100,189887
1575308094.201509,14027.000,1921,5,PI,1,100,192405
1575308094.201509,14027.000,1921,5,PI,1,100,192456
1575308094.201509,14027.000,1921,5,PI,1,100,190310
1575308094.242724,14061.667,1939,3,PI,1,100,186337
1575308094.283938,14096.333,1939,3,PI,1,100,185922
1575308094.325153,14131.000,1939,3,PI,1,100,187013
1575308094.365575,14165.000,1957,2,PI,1,100,188572
1575308094.405996,14199.000,1957,2,PI,1,100,189960
1575308094.445526,14232.250,1973,4,PI,1,100,190608
1575308094.485057,14265.500,1973,4,PI,1,100,190328
1575308094.524587,14298.750,1973,4,PI,1,100,189593
1575308094.564117,14332.000,1973,4,PI,1,100,189446
1575308094.602557,14364.333,1991,3,PI,1,100,190107
1575308094.640997,14396.667,1991,3,PI,1,100,191011
1575308094.679438,14429.000,1991,3,PI,1,100,191689
1575308094.718671,14462.000,2009,3,PI,1,100,192140
1575308094.757904,14495.000,2009,3,PI,1,100,192373
1575308094.797137,14528.000,2009,3,PI,1,100,192511
1575308094.839540,14563.667,2027,3,PI,1,100,192587
1575308094.881943,14599.333,2027,3,PI,1,100,190600
1575308094.924346,14635.000,2027,3,PI,1,100,186570
1575308094.963975,14668.333,2045,3,PI,1,100,186038
1575308095.003605,14701.667,2045,3,PI,1,100,187089
1575308095.043234,14735.000,2045,3,PI,1,100,188629
1575308095.083259,14768.667,2064,3,PI,1,100,190147
1575308095.123285,14802.333,2064,3,PI,1,100,190948
1575308095.163311,14836.000,2064,3,PI,1,100,190700
1575308095.203732,14870.000,2082,3,PI,1,100,189948
1575308095.244154,14904.000,2082,3,PI,1,100,189905
1575308095.284576,14938.000,2082,3,PI,1,100,190697
1575308095.331536,14977.500,2099,2,PI,1,100,191535
1575308095.378497,15017.000,2099,2,PI,1,100,192067
1575308095.420108,15052.000,2117,3,PI,1,100,192310
1575308095.461718,15087.000,2117,3,PI,1,100,192539
1575308095.503329,15122.000,2117,3,PI,1,100,192786
1575308095.541769,15154.333,2133,3,PI,1,100,192935
1575308095.580210,15186.667,2133,3,PI,1,100,192055
1575308095.618650,15219.000,2133,3,PI,1,100,187987
1575308095.660657,15254.333,2151,3,PI,1,100,186141
1575308095.702664,15289.667,2151,3,PI,1,100,186967
1575308095.744671,15325.000,2151,3,PI,1,100,188629
1575308095.782715,15357.000,2169,3,PI,1,100,190204
1575308095.820759,15389.000,2169,3,PI,1,100,191122
1575308095.858803,15421.000,2169,3,PI,1,100,191232
1575308095.896847,15453.000,2187,3,PI,1,100,190711
1575308095.934891,15485.000,2187,3,PI,1,100,190578
1575308095.972935,15517.000,2187,3,PI,1,100,191135
1575308096.012564,15550.333,2205,3,PI,1,100,191796
1575308096.052193,15583.667,2205,3,PI,1,100,192276
1575308096.091823,15617.000,2205,3,PI,1,100,192581
1575308096.133037,15651.667,2224,3,PI,1,100,192798
1575308096.174252,15686.333,2224,3,PI,1,100,192966
1575308096.215466,15721.000,2224,3,PI,1,100,193093
1575308096.257077,15756.000,2242,3,PI,1,100,192822
1575308096.298687,15791.000,2242,3,PI,1,100,189534
1575308096.340298,15826.000,2242,3,PI,1,100,186616
1575308096.379531,15859.000,2259,3,PI,1,100,186972
1575308096.418764,15892.000,2259,3,PI,1,100,188485
1575308096.457997,15925.000,2259,3,PI,1,100,190160
1575308096.499607,15960.000,2277,3,PI,1,100,191286
1575308096.541218,15995.000,2277,3,PI,1,100,191697
1575308096.582829,16030.000,2277,3,PI,1,100,191288
1575308096.622458,16063.333,2295,3,PI,1,100,190964
1575308096.662087,16096.667,2295,3,PI,1,100,191304
1575308096.701716,16130.000,2295,3,PI,1,100,191956
1575308096.742931,16164.667,2311,3,PI,1,100,192423
1575308096.784145,16199.333,2311,3,PI,1,100,192746
1575308096.825359,16234.000,2311,3,PI,1,100,192970
1575308096.866177,16268.333,2329,3,PI,1,100,193137
1575308096.906996,16302.667,2329,3,PI,1,100,193293
1575308096.947814,16337.000,2329,3,PI,1,100,192555
1575308096.987443,16370.333,2347,3,PI,1,100,188845
1575308097.027072,16403.667,2347,3,PI,1,100,186748
1575308097.066701,16437.000,2347,3,PI,1,100,187549
1575308097.104349,16468.667,2366,3,PI,1,100,189248
1575308097.141997,16500.333,2366,3,PI,1,100,190887
1575308097.179644,16532.000,2366,3,PI,1,100,191773
1575308097.218481,16564.667,2384,3,PI,1,100,191999
1575308097.257318,16597.333,2384,3,PI,1,100,191553
1575308097.296154,16630.000,2384,3,PI,1,100,191374
1575308097.337369,16664.667,2402,3,PI,1,100,191840
1575308097.378583,16699.333,2402,3,PI,1,100,192379
1575308097.419797,16734.000,2402,3,PI,1,100,192748
1575308097.461408,16769.000,2420,3,PI,1,100,192995
1575308097.503019,16804.000,2420,3,PI,1,100,193172
1575308097.544629,16839.000,2420,3,PI,1,100,193321
1575308097.585051,16873.000,2437,3,PI,1,100,193087
1575308097.625473,16907.000,2437,3,PI,1,100,189965
1575308097.665895,16941.000,2437,3,PI,1,100,187042
1575308097.703542,16972.667,2455,3,PI,1,100,187321
1575308097.741190,17004.333,2455,3,PI,1,100,188821
1575308097.778838,17036.000,2455,3,PI,1,100,190534
1575308097.818071,17069.000,2473,3,PI,1,100,191658
1575308097.857304,17102.000,2473,3,PI,1,100,191958
1575308097.896537,17135.000,2473,3,PI,1,100,191391
1575308097.937751,17169.667,2489,3,PI,1,100,191130
1575308097.978966,17204.333,2489,3,PI,1,100,191562
1575308098.020180,17239.000,2489,3,PI,1,100,192202
1575308098.061790,17274.000,2508,3,PI,1,100,192632
1575308098.103401,17309.000,2508,3,PI,1,100,192977
1575308098.145012,17344.000,2508,3,PI,1,100,193166
1575308098.185434,17378.000,2526,3,PI,1,100,193187
1575308098.225855,17412.000,2526,3,PI,1,100,193216
1575308098.266277,17446.000,2526,3,PI,1,100,191409
1575308098.303132,17477.000,2544,3,PI,1,100,187270
1575308098.339988,17508.000,2544,3,PI,1,100,186177
1575308098.376843,17539.000,2544,3,PI,1,100,186899
1575308098.415679,17571.667,2562,3,PI,1,100,188162
1575308098.454516,17604.333,2562,3,PI,1,100,189445
1575308098.493353,17637.000,2562,3,PI,1,100,190389
1575308098.534567,17671.667,2580,3,PI,1,100,190460
1575308098.575781,17706.333,2580,3,PI,1,100,189940
1575308098.616996,17741.000,2580,3,PI,1,100,190090
1575308098.658210,17775.667,2598,3,PI,1,100,190605
1575308098.699425,17810.333,2598,3,PI,1,100,191196
1575308098.740639,17845.000,2598,3,PI,1,100,191713
1575308098.782249,17880.000,2616,3,PI,1,100,192117
1575308098.823860,17915.000,2616,3,PI,1,100,192371
1575308098.865471,17950.000,2616,3,PI,1,100,192956
1575308098.902722,17981.333,2633,3,PI,1,100,192813
1575308098.939974,18012.667,2633,3,PI,1,100,193128
1575308098.977225,18044.000,2633,3,PI,1,100,192949
1575308099.016855,18077.333,2651,3,PI,1,100,192664
1575308099.056484,18110.667,2651,3,PI,1,100,192810
1575308099.096113,18144.000,2651,3,PI,1,100,192982
1575308099.132175,18174.333,2668,3,PI,1,100,192969
1575308099.168238,18204.667,2668,3,PI,1,100,192902
1575308099.204301,18235.000,2668,3,PI,1,100,192539
1575308099.244425,18268.750,2686,4,PI,1,100,192286
1575308099.284550,18302.500,2686,4,PI,1,100,192251
1575308099.324674,18336.250,2686,4,PI,1,100,192269
1575308099.364799,18370.000,2686,4,PI,1,100,192594
1575308099.402447,18401.667,2704,3,PI,1,100,192777
1575308099.440094,18433.333,2704,3,PI,1,100,193104
1575308099.477742,18465.000,2704,3,PI,1,100,193800
1575308099.518164,18499.000,2722,3,PI,1,100,192786
1575308099.558586,18533.000,2722,3,PI,1,100,192834
1575308099.599007,18567.000,2722,3,PI,1,100,193422
1575308099.645968,18606.500,2740,2,PI,1,100,193240
1575308099.692929,18646.000,2740,2,PI,1,100,193403
1575308099.730973,18678.000,2758,4,PI,1,100,193383
1575308099.769017,18710.000,2758,4,PI,1,100,193386
1575308099.807061,18742.000,2758,4,PI,1,100,193168
1575308099.845105,18774.000,2758,4,PI,1,100,192887
1575308099.886319,18808.667,2776,3,PI,1,100,192687
1575308099.927534,18843.333,2776,3,PI,1,100,192755
1575308099.968748,18878.000,2776,3,PI,1,100,193101
1575308100.009764,18912.500,2794,2,PI,1,100,193569
1575308100.050780,18947.000,2794,2,PI,1,100,194474
1575308100.090013,18980.000,2815,5,PI,1,100,194742
1575308100.129246,19013.000,2815,5,PI,1,100,195111
1575308100.168479,19046.000,2815,5,PI,1,100,195211
1575308100.207712,19079.000,2815,5,PI,1,100,194579
1575308100.246945,19112.000,2815,5,PI,1,100,194518
1575308100.286178,19145.000,2835,3,PI,1,100,194083
1575308100.325411,19178.000,2835,3,PI,1,100,193582
1575308100.364644,19211.000,2835,3,PI,1,100,193293
1575308100.404669,19244.667,2853,3,PI,1,100,192549
1575308100.444695,19278.333,2853,3,PI,1,100,191228
1575308100.484720,19312.000,2853,3,PI,1,100,190433
1575308100.525935,19346.667,2871,3,PI,1,100,190767
1575308100.567149,19381.333,2871,3,PI,1,100,192190
1575308100.608363,19416.000,2871,3,PI,1,100,193069
1575308100.650370,19451.333,2889,3,PI,1,100,193596
1575308100.692377,19486.667,2889,3,PI,1,100,193741
1575308100.734384,19522.000,2889,3,PI,1,100,193815
1575308100.772032,19553.667,2906,3,PI,1,100,192158
1575308100.809680,19585.333,2906,3,PI,1,100,189112
1575308100.847327,19617.000,2906,3,PI,1,100,188262
1575308100.885768,19649.333,2924,3,PI,1,100,188505
1575308100.924208,19681.667,2924,3,PI,1,100,189000
1575308100.962648,19714.000,2924,3,PI,1,100,189666
1575308101.001881,19747.000,2942,3,PI,1,100,190122
1575308101.041114,19780.000,2942,3,PI,1,100,190250
1575308101.080347,19813.000,2942,3,PI,1,100,190235
1575308101.121562,19847.667,2959,3,PI,1,100,190378
1575308101.162776,19882.333,2959,3,PI,1,100,190543
1575308101.203990,19917.000,2959,3,PI,1,100,190529
1575308101.249960,19955.667,2977,3,PI,1,100,190794
1575308101.295930,19994.333,2977,3,PI,1,100,191496
1575308101.341900,20033.000,2977,3,PI,1,100,192177
1575308101.380340,20065.333,2995,3,PI,1,100,192656
1575308101.418781,20097.667,2995,3,PI,1,100,191313
1575308101.457221,20130.000,2995,3,PI,1,100,188273
1575308101.494869,20161.667,3013,3,PI,1,100,187322
1575308101.532516,20193.333,3013,3,PI,1,100,188163
1575308101.570164,20225.000,3013,3,PI,1,100,189826
1575308101.610586,20259.000,3031,3,PI,1,100,191406
1575308101.651008,20293.000,3031,3,PI,1,100,192317
1575308101.691430,20327.000,3031,3,PI,1,100,192671
1575308101.732644,20361.667,3049,3,PI,1,100,192803
1575308101.773858,20396.333,3049,3,PI,1,100,193025
1575308101.815073,20431.000,3049,3,PI,1,100,193202
1575308101.857080,20466.333,3067,3,PI,1,100,193384
1575308101.899086,20501.667,3067,3,PI,1,100,193545
1575308101.941093,20537.000,3067,3,PI,1,100,193695
1575308101.979930,20569.667,3084,3,PI,1,100,193807
1575308102.018767,20602.333,3084,3,PI,1,100,193795
1575308102.057603,20635.000,3084,3,PI,1,100,192101
1575308102.095647,20667.000,3103,3,PI,1,100,188496
1575308102.133692,20699.000,3103,3,PI,1,100,187411
1575308102.171736,20731.000,3103,3,PI,1,100,188262
1575308102.211761,20764.667,3121,3,PI,1,100,189687
1575308102.251786,20798.333,3121,3,PI,1,100,190921
1575308102.291812,20832.000,3121,3,PI,1,100,191682
1575308102.332630,20866.333,3137,3,PI,1,100,191896
1575308102.373448,20900.667,3137,3,PI,1,100,191697
1575308102.414266,20935.000,3137,3,PI,1,100,191739
1575308102.455481,20969.667,3155,3,PI,1,100,192130
1575308102.496695,21004.333,3155,3,PI,1,100,192452
1575308102.537909,21039.000,3155,3,PI,1,100,192681
1575308102.577538,21072.333,3173,3,PI,1,100,192863
1575308102.617168,21105.667,3173,3,PI,1,100,193042
1575308102.656797,21139.000,3173,3,PI,1,100,192990
1575308102.693652,21170.000,3191,3,PI,1,100,190896
1575308102.730507,21201.000,3191,3,PI,1,100,187824
1575308102.767363,21232.000,3191,3,PI,1,100,187386
1575308102.806595,21265.000,3209,3,PI,1,100,188248
1575308102.845828,21298.000,3209,3,PI,1,100,189578
1575308102.885061,21331.000,3209,3,PI,1,100,190728
1575308102.926275,21365.667,3227,3,PI,1,100,191135
1575308102.967490,21400.333,3227,3,PI,1,100,190753
1575308103.008704,21435.000,3227,3,PI,1,100,190266
1575308103.051108,21470.667,3246,3,PI,1,100,190155
1575308103.093511,21506.333,3246,3,PI,1,100,190562
1575308103.135914,21542.000,3246,3,PI,1,100,191202
1575308103.173958,21574.000,3264,3,PI,1,100,191741
1575308103.212002,21606.000,3264,3,PI,1,100,192153
1575308103.250046,21638.000,3264,3,PI,1,100,192460
1575308103.291260,21672.667,3281,3,PI,1,100,192260
1575308103.332475,21707.333,3281,3,PI,1,100,188853
1575308103.373689,21742.000,3281,3,PI,1,100,186325
1575308103.416489,21778.000,3298,3,PI,1,100,186351
1575308103.459288,21814.000,3298,3,PI,1,100,187312
1575308103.502088,21850.000,3298,3,PI,1,100,188549
1575308103.539339,21881.333,3315,3,PI,1,100,189413
1575308103.576591,21912.667,3315,3,PI,1,100,189552
1575308103.613842,21944.000,3315,3,PI,1,100,188910
1575308103.652283,21976.333,3333,3,PI,1,100,188282
1575308103.690723,22008.667,3333,3,PI,1,100,188439
1575308103.729163,22041.000,3333,3,PI,1,100,189000
1575308103.766811,22072.667,3351,3,PI,1,100,189619
1575308103.804459,22104.333,3351,3,PI,1,100,190173
1575308103.842107,22136.000,3351,3,PI,1,100,190671
1575308103.882528,22170.000,3369,3,PI,1,100,191047
1575308103.922950,22204.000,3369,3,PI,1,100,190655
1575308103.963372,22238.000,3369,3,PI,1,100,187349
1575308104.004190,22272.333,3387,3,PI,1,100,185843
1575308104.045008,22306.667,3387,3,PI,1,100,186190
1575308104.085826,22341.000,3387,3,PI,1,100,187212
1575308104.127437,22376.000,3406,3,PI,1,100,188348
1575308104.169048,22411.000,3406,3,PI,1,100,189113
1575308104.210658,22446.000,3406,3,PI,1,100,189039
1575308104.253854,22482.333,3424,3,PI,1,100,188337
1575308104.297050,22518.667,3424,3,PI,1,100,188020
1575308104.340246,22555.000,3424,3,PI,1,100,188459
1575308104.379082,22587.667,3441,3,PI,1,100,189197
1575308104.417919,22620.333,3441,3,PI,1,100,189839
1575308104.456756,22653.000,3441,3,PI,1,100,190370
1575308104.495196,22685.333,3459,3,PI,1,100,190806
1575308104.533636,22717.667,3459,3,PI,1,100,191076
1575308104.572077,22750.000,3459,3,PI,1,100,190528
1575308104.610517,22782.333,3477,3,PI,1,100,187026
1575308104.648957,22814.667,3477,3,PI,1,100,185624
1575308104.687397,22847.000,3477,3,PI,1,100,186053
1575308104.727819,22881.000,3493,3,PI,1,100,187055
1575308104.768241,22915.000,3493,3,PI,1,100,188225
1575308104.808663,22949.000,3493,3,PI,1,100,188917
1575308104.849481,22983.333,3511,3,PI,1,100,188809
1575308104.890299,23017.667,3511,3,PI,1,100,187993
1575308104.931117,23052.000,3511,3,PI,1,100,187635
1575308104.972332,23086.667,3529,3,PI,1,100,188065
1575308105.013546,23121.333,3529,3,PI,1,100,188615
1575308105.054760,23156.000,3529,3,PI,1,100,189118
1575308105.093993,23189.000,3548,3,PI,1,100,189609
1575308105.133226,23222.000,3548,3,PI,1,100,190056
1575308105.172459,23255.000,3548,3,PI,1,100,190318
1575308105.210107,23286.667,3566,3,PI,1,100,188931
1575308105.247755,23318.333,3566,3,PI,1,100,185725
1575308105.285402,23350.000,3566,3,PI,1,100,185138
1575308105.325032,23383.333,3584,3,PI,1,100,185816
1575308105.364661,23416.667,3584,3,PI,1,100,187001
1575308105.404290,23450.000,3584,3,PI,1,100,188139
1575308105.445108,23484.333,3602,3,PI,1,100,188600
1575308105.485926,23518.667,3602,3,PI,1,100,188044
1575308105.526744,23553.000,3602,3,PI,1,100,187170
1575308105.567562,23587.333,3620,3,PI,1,100,187210
1575308105.608380,23621.667,3620,3,PI,1,100,187877
1575308105.649198,23656.000,3620,3,PI,1,100,188612
1575308105.689620,23690.000,3637,3,PI,1,100,189156
1575308105.730042,23724.000,3637,3,PI,1,100,189604
1575308105.770464,23758.000,3637,3,PI,1,100,189955
1575308105.811678,23792.667,3655,3,PI,1,100,190024
1575308105.852892,23827.333,3655,3,PI,1,100,187224
1575308105.894107,23862.000,3655,3,PI,1,100,184750
1575308105.933340,23895.000,3671,3,PI,1,100,184642
1575308105.972573,23928.000,3671,3,PI,1,100,185389
1575308106.011806,23961.000,3671,3,PI,1,100,186289
1575308106.053416,23996.000,3690,3,PI,1,100,187026
1575308106.095027,24031.000,3690,3,PI,1,100,187140
1575308106.136638,24066.000,3690,3,PI,1,100,186609
1575308106.178010,24100.800,3711,5,PI,1,100,186308
1575308106.219383,24135.600,3711,5,PI,1,100,186518
1575308106.260756,24170.400,3711,5,PI,1,100,187109
1575308106.302129,24205.200,3711,5,PI,1,100,187790
1575308106.343502,24240.000,3711,5,PI,1,100,188349
1575308106.381150,24271.667,3731,3,PI,1,100,188697
1575308106.418797,24303.333,3731,3,PI,1,100,188972
1575308106.456445,24335.000,3731,3,PI,1,100,189110
1575308106.492111,24365.000,3749,3,PI,1,100,187176
1575308106.527778,24395.000,3749,3,PI,1,100,184580
1575308106.563444,24425.000,3749,3,PI,1,100,184182
1575308106.603866,24459.000,3767,3,PI,1,100,184758
1575308106.644288,24493.000,3767,3,PI,1,100,185585
1575308106.684710,24527.000,3767,3,PI,1,100,186272
1575308106.725924,24561.667,3783,3,PI,1,100,186578
1575308106.767138,24596.333,3783,3,PI,1,100,186232
1575308106.808353,24631.000,3783,3,PI,1,100,185894
1575308106.853134,24668.667,3801,3,PI,1,100,186084
1575308106.897915,24706.333,3801,3,PI,1,100,186610
1575308106.942696,24744.000,3801,3,PI,1,100,187265
1575308106.980740,24776.000,3819,3,PI,1,100,187833
1575308107.018784,24808.000,3819,3,PI,1,100,188225
1575308107.056828,24840.000,3819,3,PI,1,100,188457
1575308107.094476,24871.667,3838,3,PI,1,100,188657
1575308107.132123,24903.333,3838,3,PI,1,100,188806
1575308107.169771,24935.000,3838,3,PI,1,100,188120
1575308107.210589,24969.333,3856,3,PI,1,100,185101
1575308107.251407,25003.667,3856,3,PI,1,100,184006
1575308107.292225,25038.000,3856,3,PI,1,100,184376
1575308107.328684,25068.667,3874,3,PI,1,100,185213
1575308107.365143,25099.333,3874,3,PI,1,100,185896
1575308107.401602,25130.000,3874,3,PI,1,100,186429
1575308107.443213,25165.000,3892,3,PI,1,100,186268
1575308107.484823,25200.000,3892,3,PI,1,100,185816
1575308107.526434,25235.000,3892,3,PI,1,100,185806
1575308107.570819,25272.333,3909,3,PI,1,100,186252
1575308107.615203,25309.667,3909,3,PI,1,100,186952
1575308107.659588,25347.000,3909,3,PI,1,100,187635
1575308107.698425,25379.667,3927,3,PI,1,100,188125
1575308107.737261,25412.333,3927,3,PI,1,100,188416
1575308107.776098,25445.000,3927,3,PI,1,100,188597
1575308107.816916,25479.333,3943,3,PI,1,100,188764
1575308107.857734,25513.667,3943,3,PI,1,100,188942
1575308107.898552,25548.000,3943,3,PI,1,100,189236
1575308107.940559,25583.333,3961,3,PI,1,100,189505
1575308107.982566,25618.667,3961,3,PI,1,100,187887
1575308108.024573,25654.000,3961,3,PI,1,100,184714
1575308108.063013,25686.333,3980,3,PI,1,100,184246
1575308108.101454,25718.667,3980,3,PI,1,100,184882
1575308108.139894,25751.000,3980,3,PI,1,100,185753
1575308108.177938,25783.000,3998,3,PI,1,100,186595
1575308108.215982,25815.000,3998,3,PI,1,100,186906
1575308108.254026,25847.000,3998,3,PI,1,100,186412
1575308108.294448,25881.000,4016,3,PI,1,100,185982
1575308108.334870,25915.000,4016,3,PI,1,100,186171
1575308108.375291,25949.000,4016,3,PI,1,100,186780
1575308108.416506,25983.667,4034,3,PI,1,100,187505
1575308108.457720,26018.333,4034,3,PI,1,100,188076
1575308108.498935,26053.000,4034,3,PI,1,100,188507
1575308108.540941,26088.333,4052,3,PI,1,100,188840
1575308108.582948,26123.667,4052,3,PI,1,100,189051
1575308108.624955,26159.000,4052,3,PI,1,100,189257
1575308108.663396,26191.333,4069,3,PI,1,100,189557
1575308108.701836,26223.667,4069,3,PI,1,100,189903
1575308108.740276,26256.000,4069,3,PI,1,100,189874
1575308108.777924,26287.667,4087,3,PI,1,100,186725
1575308108.815572,26319.333,4087,3,PI,1,100,184425
1575308108.853220,26351.000,4087,3,PI,1,100,184507
1575308108.897208,26388.000,4105,3,PI,1,100,185425
1575308108.941196,26425.000,4105,3,PI,1,100,186462
1575308108.985185,26462.000,4105,3,PI,1,100,187308
1575308109.026796,26497.000,4121,3,PI,1,100,187294
1575308109.068406,26532.000,4121,3,PI,1,100,186554
1575308109.110017,26567.000,4121,3,PI,1,100,186267
1575308109.151231,26601.667,4140,3,PI,1,100,186688
1575308109.192446,26636.333,4140,3,PI,1,100,187541
1575308109.233660,26671.000,4140,3,PI,1,100,188341
1575308109.272893,26704.000,4158,3,PI,1,100,189008
1575308109.312126,26737.000,4158,3,PI,1,100,189446
1575308109.351359,26770.000,4158,3,PI,1,100,189766
1575308109.389007,26801.667,4176,3,PI,1,100,190110
1575308109.426654,26833.333,4176,3,PI,1,100,190367
1575308109.464302,26865.000,4176,3,PI,1,100,190587
1575308109.503931,26898.333,4194,3,PI,1,100,190665
1575308109.543561,26931.667,4194,3,PI,1,100,188016
1575308109.583190,26965.000,4194,3,PI,1,100,184805
1575308109.624800,27000.000,4212,3,PI,1,100,184699
1575308109.666411,27035.000,4212,3,PI,1,100,185538
1575308109.708022,27070.000,4212,3,PI,1,100,186560
1575308109.749236,27104.667,4230,3,PI,1,100,187419
1575308109.790450,27139.333,4230,3,PI,1,100,187696
1575308109.831665,27174.000,4230,3,PI,1,100,187182
1575308109.871690,27207.667,4247,3,PI,1,100,186743
1575308109.911716,27241.333,4247,3,PI,1,100,187094
1575308109.951741,27275.000,4247,3,PI,1,100,187906
1575308109.988993,27306.333,4265,3,PI,1,100,188773
1575308110.026244,27337.667,4265,3,PI,1,100,189522
1575308110.063496,27369.000,4265,3,PI,1,100,190093
1575308110.103521,27402.667,4284,3,PI,1,100,190488
1575308110.143547,27436.333,4284,3,PI,1,100,190748
1575308110.183572,27470.000,4284,3,PI,1,100,190962
1575308110.224787,27504.667,4300,3,PI,1,100,191180
1575308110.266001,27539.333,4300,3,PI,1,100,191350
1575308110.307215,27574.000,4300,3,PI,1,100,189898
1575308110.348033,27608.333,4318,3,PI,1,100,186016
1575308110.388851,27642.667,4318,3,PI,1,100,185220
1575308110.429669,27677.000,4318,3,PI,1,100,186020
1575308110.471280,27712.000,4336,3,PI,1,100,187244
1575308110.512891,27747.000,4336,3,PI,1,100,188366
1575308110.554502,27782.000,4336,3,PI,1,100,189027
1575308110.591357,27813.000,4354,3,PI,1,100,188817
1575308110.628212,27844.000,4354,3,PI,1,100,187842
1575308110.665067,27875.000,4354,3,PI,1,100,187565
1575308110.703904,27907.667,4372,3,PI,1,100,188209
1575308110.742740,27940.333,4372,3,PI,1,100,189139
1575308110.781577,27973.000,4372,3,PI,1,100,189968
1575308110.821999,28007.000,4390,3,PI,1,100,190568
1575308110.862420,28041.000,4390,3,PI,1,100,190902
1575308110.902842,28075.000,4390,3,PI,1,100,191187
1575308110.944057,28109.667,4408,3,PI,1,100,191385
1575308110.985271,28144.333,4408,3,PI,1,100,191535
1575308111.026485,28179.000,4408,3,PI,1,100,189945
1575308111.068096,28214.000,4426,3,PI,1,100,186020
1575308111.109707,28249.000,4426,3,PI,1,100,185235
1575308111.151317,28284.000,4426,3,PI,1,100,185937
1575308111.189758,28316.333,4444,3,PI,1,100,187039
1575308111.228198,28348.667,4444,3,PI,1,100,188059
1575308111.266638,28381.000,4444,3,PI,1,100,188652
1575308111.302305,28411.000,4462,3,PI,1,100,188310
1575308111.337971,28441.000,4462,3,PI,1,100,187587
1575308111.373637,28471.000,4462,3,PI,1,100,187615
1575308111.414851,28505.667,4478,3,PI,1,100,188379
1575308111.456066,28540.333,4478,3,PI,1,100,189350
1575308111.497280,28575.000,4478,3,PI,1,100,190194
1575308111.532154,28604.333,4496,3,PI,1,100,190763
1575308111.567028,28633.667,4496,3,PI,1,100,191157
1575308111.601901,28663.000,4496,3,PI,1,100,191421
1575308111.639946,28695.000,4514,4,PI,1,100,191643
1575308111.677989,28727.000,4514,4,PI,1,100,191823
1575308111.716033,28759.000,4514,4,PI,1,100,191651
1575308111.754077,28791.000,4514,4,PI,1,100,188232
1575308111.793707,28824.333,4532,3,PI,1,100,185261
1575308111.833336,28857.667,4532,3,PI,1,100,185338
1575308111.872965,28891.000,4532,3,PI,1,100,186311
1575308111.914576,28926.000,4550,2,PI,1,100,187309
1575308111.956187,28961.000,4550,2,PI,1,100,188164
1575308112.000968,28998.667,4568,3,PI,1,100,188434
1575308112.045748,29036.333,4568,3,PI,1,100,187904
1575308112.090529,29074.000,4568,3,PI,1,100,187408
1575308112.128970,29106.333,4587,3,PI,1,100,187752
1575308112.167410,29138.667,4587,3,PI,1,100,188634
1575308112.205851,29171.000,4587,3,PI,1,100,189682
1575308112.246748,29205.400,4608,5,PI,1,100,190488
1575308112.287645,29239.800,4608,5,PI,1,100,191019
1575308112.328542,29274.200,4608,5,PI,1,100,191375
1575308112.369440,29308.600,4608,5,PI,1,100,191629
1575308112.410337,29343.000,4608,5,PI,1,100,191846
1575308112.448777,29375.333,4628,3,PI,1,100,192016
1575308112.487218,29407.667,4628,3,PI,1,100,191839
1575308112.525658,29440.000,4628,3,PI,1,100,188619
1575308112.564099,29472.333,4646,3,PI,1,100,185624
1575308112.602539,29504.667,4646,3,PI,1,100,185728
1575308112.640979,29537.000,4646,3,PI,1,100,186766
1575308112.681797,29571.333,4664,3,PI,1,100,188051
1575308112.722615,29605.667,4664,3,PI,1,100,189150
1575308112.763433,29640.000,4664,3,PI,1,100,189486
1575308112.803855,29674.000,4682,3,PI,1,100,188918
1575308112.844277,29708.000,4682,3,PI,1,100,188431
1575308112.884699,29742.000,4682,3,PI,1,100,188850
1575308112.926309,29777.000,4700,3,PI,1,100,189838
1575308112.967920,29812.000,4700,3,PI,1,100,190691
1575308113.009531,29847.000,4700,3,PI,1,100,191279
1575308113.047575,29879.000,4718,3,PI,1,100,191666
1575308113.085619,29911.000,4718,3,PI,1,100,191944
1575308113.123663,29943.000,4718,3,PI,1,100,192124
1575308113.162103,29975.333,4736,3,PI,1,100,192266
1575308113.200544,30007.667,4736,3,PI,1,100,192423
1575308113.238984,30040.000,4736,3,PI,1,100,192287
1575308113.279406,30074.000,4754,3,PI,1,100,189441
1575308113.319828,30108.000,4754,3,PI,1,100,186445
1575308113.360249,30142.000,4754,3,PI,1,100,186602
1575308113.405427,30180.000,4770,3,PI,1,100,187925
1575308113.450604,30218.000,4770,3,PI,1,100,189390
1575308113.495781,30256.000,4770,3,PI,1,100,190522
1575308113.537392,30291.000,4788,3,PI,1,100,190975
1575308113.579002,30326.000,4788,3,PI,1,100,190569
1575308113.620613,30361.000,4788,3,PI,1,100,190236
1575308113.658657,30393.000,4806,3,PI,1,100,190611
1575308113.696701,30425.000,4806,3,PI,1,100,191304
1575308113.734745,30457.000,4806,3,PI,1,100,191798
1575308113.772789,30489.000,4824,3,PI,1,100,192118
1575308113.810833,30521.000,4824,3,PI,1,100,192366
1575308113.848877,30553.000,4824,3,PI,1,100,192545
1575308113.889299,30587.000,4842,3,PI,1,100,192670
1575308113.929721,30621.000,4842,3,PI,1,100,192746
1575308113.970143,30655.000,4842,3,PI,1,100,192767
1575308114.012150,30690.333,4860,3,PI,1,100,190788
1575308114.054157,30725.667,4860,3,PI,1,100,187497
1575308114.096164,30761.000,4860,3,PI,1,100,187010
1575308114.137774,30796.000,4879,3,PI,1,100,188307
1575308114.179385,30831.000,4879,3,PI,1,100,189868
1575308114.220996,30866.000,4879,3,PI,1,100,191073
1575308114.259832,30898.667,4896,3,PI,1,100,191594
1575308114.298669,30931.333,4896,3,PI,1,100,191428
1575308114.337506,30964.000,4896,3,PI,1,100,191021
1575308114.375153,30995.667,4914,3,PI,1,100,191195
1575308114.412801,31027.333,4914,3,PI,1,100,191722
1575308114.450449,31059.000,4914,3,PI,1,100,192135
1575308114.488889,31091.333,4932,3,PI,1,100,192438
1575308114.527329,31123.667,4932,3,PI,1,100,192644
1575308114.565770,31156.000,4932,3,PI,1,100,192784
1575308114.609758,31193.000,4948,3,PI,1,100,192866
1575308114.653747,31230.000,4948,3,PI,1,100,192989
1575308114.697735,31267.000,4948,3,PI,1,100,193017
1575308114.738949,31301.667,4966,3,PI,1,100,190922
1575308114.780164,31336.333,4966,3,PI,1,100,187114
1575308114.821378,31371.000,4966,3,PI,1,100,186191
1575308114.861404,31404.667,4984,3,PI,1,100,186941
1575308114.901429,31438.333,4984,3,PI,1,100,188254
1575308114.941455,31472.000,4984,3,PI,1,100,189610
1575308114.978310,31503.000,5002,3,PI,1,100,190661
1575308115.015165,31534.000,5002,3,PI,1,100,190808
1575308115.052020,31565.000,5002,3,PI,1,100,190330
1575308115.091649,31598.333,5021,3,PI,1,100,190168
1575308115.131279,31631.667,5021,3,PI,1,100,190706
1575308115.170908,31665.000,5021,3,PI,1,100,191473
1575308115.211726,31699.333,5039,3,PI,1,100,192007
1575308115.252544,31733.667,5039,3,PI,1,100,192314
1575308115.293362,31768.000,5039,3,PI,1,100,192547
1575308115.332199,31800.667,5057,3,PI,1,100,192729
1575308115.371035,31833.333,5057,3,PI,1,100,192906
1575308115.409872,31866.000,5057,3,PI,1,100,193009
1575308115.451086,31900.667,5074,3,PI,1,100,191503
1575308115.492301,31935.333,5074,3,PI,1,100,187813
1575308115.533515,31970.000,5074,3,PI,1,100,186503
1575308115.579881,32009.000,5092,2,PI,1,100,187348
1575308115.626247,32048.000,5092,2,PI,1,100,188757
1575308115.664588,32080.250,5108,4,PI,1,100,190197
1575308115.702930,32112.500,5108,4,PI,1,100,191174
1575308115.741271,32144.750,5108,4,PI,1,100,191559
1575308115.779612,32177.000,5108,4,PI,1,100,191246
1575308115.821223,32212.000,5126,3,PI,1,100,191110
1575308115.862834,32247.000,5126,3,PI,1,100,191363
1575308115.904444,32282.000,5126,3,PI,1,100,191835
1575308115.942885,32314.333,5144,3,PI,1,100,192302
1575308115.981325,32346.667,5144,3,PI,1,100,192655
1575308116.019765,32379.000,5144,3,PI,1,100,192877
1575308116.058602,32411.667,5163,3,PI,1,100,193036
1575308116.097439,32444.333,5163,3,PI,1,100,192968
1575308116.136275,32477.000,5163,3,PI,1,100,190585
1575308116.175508,32510.000,5181,3,PI,1,100,187796
1575308116.214741,32543.000,5181,3,PI,1,100,187573
1575308116.253974,32576.000,5181,3,PI,1,100,188931
1575308116.295585,32611.000,5199,3,PI,1,100,190564
1575308116.337195,32646.000,5199,3,PI,1,100,191668
1575308116.378806,32681.000,5199,3,PI,1,100,192216
1575308116.420020,32715.667,5217,3,PI,1,100,192420
1575308116.461235,32750.333,5217,3,PI,1,100,192497
1575308116.502449,32785.000,5217,3,PI,1,100,192660
1575308116.542276,32818.500,5234,2,PI,1,100,192881
1575308116.582104,32852.000,5234,2,PI,1,100,193068
1575308116.623417,32886.750,5252,4,PI,1,100,193255
1575308116.664731,32921.500,5252,4,PI,1,100,193394
1575308116.706044,32956.250,5252,4,PI,1,100,193520
1575308116.747358,32991.000,5252,4,PI,1,100,192891
1575308116.782628,33020.667,5270,3,PI,1,100,189694
1575308116.817898,33050.333,5270,3,PI,1,100,187257
1575308116.853168,33080.000,5270,3,PI,1,100,187636
1575308116.891608,33112.333,5288,3,PI,1,100,189098
1575308116.930048,33144.667,5288,3,PI,1,100,190725
1575308116.968488,33177.000,5288,3,PI,1,100,191734
1575308117.007721,33210.000,5304,3,PI,1,100,192145
1575308117.046954,33243.000,5304,3,PI,1,100,191977
1575308117.086187,33276.000,5304,3,PI,1,100,191842
1575308117.127402,33310.667,5323,3,PI,1,100,192205
1575308117.168616,33345.333,5323,3,PI,1,100,192557
1575308117.209830,33380.000,5323,3,PI,1,100,192807
1575308117.251837,33415.333,5341,3,PI,1,100,192903
1575308117.293844,33450.667,5341,3,PI,1,100,193127
1575308117.335851,33486.000,5341,3,PI,1,100,193225
1575308117.374688,33518.667,5359,3,PI,1,100,191302
1575308117.413524,33551.333,5359,3,PI,1,100,187519
1575308117.452361,33584.000,5359,3,PI,1,100,186584
1575308117.490405,33616.000,5377,3,PI,1,100,187507
1575308117.528449,33648.000,5377,3,PI,1,100,188967
1575308117.566493,33680.000,5377,3,PI,1,100,190416
1575308117.605726,33713.000,5395,3,PI,1,100,191305
1575308117.644959,33746.000,5395,3,PI,1,100,191298
1575308117.684192,33779.000,5395,3,PI,1,100,190921
1575308117.725010,33813.333,5413,3,PI,1,100,191042
1575308117.765828,33847.667,5413,3,PI,1,100,191658
1575308117.806646,33882.000,5413,3,PI,1,100,192222
1575308117.848257,33917.000,5430,3,PI,1,100,192577
1575308117.889868,33952.000,5430,3,PI,1,100,192802
1575308117.931478,33987.000,5430,3,PI,1,100,193053
1575308117.971107,34020.333,5448,3,PI,1,100,192852
1575308118.010737,34053.667,5448,3,PI,1,100,189662
1575308118.050366,34087.000,5448,3,PI,1,100,186576
1575308118.091976,34122.000,5467,3,PI,1,100,186495
1575308118.133587,34157.000,5467,3,PI,1,100,187485
1575308118.175198,34192.000,5467,3,PI,1,100,188740
1575308118.215223,34225.667,5483,3,PI,1,100,190004
1575308118.255249,34259.333,5483,3,PI,1,100,190580
1575308118.295274,34293.000,5483,3,PI,1,100,190376
1575308118.336588,34327.750,5504,4,PI,1,100,189992
1575308118.377901,34362.500,5504,4,PI,1,100,190051
1575308118.419215,34397.250,5504,4,PI,1,100,190842
1575308118.460528,34432.000,5504,4,PI,1,100,191648
1575308118.500058,34465.250,5524,4,PI,1,100,192128
1575308118.539588,34498.500,5524,4,PI,1,100,192356
1575308118.579118,34531.750,5524,4,PI,1,100,192481
1575308118.618649,34565.000,5524,4,PI,1,100,190587
1575308118.655900,34596.333,5541,3,PI,1,100,187357
1575308118.693151,34627.667,5541,3,PI,1,100,186532
1575308118.730403,34659.000,5541,3,PI,1,100,187271
1575308118.767654,34690.333,5559,3,PI,1,100,188583
1575308118.804906,34721.667,5559,3,PI,1,100,190001
1575308118.842157,34753.000,5559,3,PI,1,100,190818
1575308118.883768,34788.000,5577,3,PI,1,100,190635
1575308118.925379,34823.000,5577,3,PI,1,100,190153
1575308118.966989,34858.000,5577,3,PI,1,100,190156
1575308119.008204,34892.667,5593,3,PI,1,100,190800
1575308119.049418,34927.333,5593,3,PI,1,100,191579
1575308119.090632,34962.000,5593,3,PI,1,100,192101
1575308119.131649,34996.500,5612,2,PI,1,100,192432
1575308119.172665,35031.000,5612,2,PI,1,100,192559
1575308119.214276,35066.000,5630,4,PI,1,100,190693
1575308119.255886,35101.000,5630,4,PI,1,100,186838
1575308119.297497,35136.000,5630,4,PI,1,100,185818
1575308119.339108,35171.000,5630,4,PI,1,100,186334
1575308119.376755,35202.667,5648,3,PI,1,100,187278
1575308119.414403,35234.333,5648,3,PI,1,100,188348
1575308119.452051,35266.000,5648,3,PI,1,100,188849
1575308119.490095,35298.000,5666,3,PI,1,100,188476
1575308119.528139,35330.000,5666,3,PI,1,100,188020
1575308119.566183,35362.000,5666,3,PI,1,100,188180
1575308119.604227,35394.000,5684,3,PI,1,100,188812
1575308119.642271,35426.000,5684,3,PI,1,100,189622
1575308119.680315,35458.000,5684,3,PI,1,100,190382
1575308119.720340,35491.667,5702,3,PI,1,100,191011
1575308119.760366,35525.333,5702,3,PI,1,100,191415
1575308119.800391,35559.000,5702,3,PI,1,100,190809
1575308119.840813,35593.000,5719,3,PI,1,100,187216
1575308119.881235,35627.000,5719,3,PI,1,100,185195
1575308119.921657,35661.000,5719,3,PI,1,100,185299
1575308119.962079,35695.000,5737,3,PI,1,100,185968
1575308120.002501,35729.000,5737,3,PI,1,100,186685
1575308120.042922,35763.000,5737,3,PI,1,100,187311
1575308120.084533,35798.000,5756,3,PI,1,100,187343
1575308120.126144,35833.000,5756,3,PI,1,100,187004
1575308120.167754,35868.000,5756,3,PI,1,100,186927
1575308120.209365,35903.000,5772,3,PI,1,100,187364
1575308120.250976,35938.000,5772,3,PI,1,100,188088
1575308120.292586,35973.000,5772,3,PI,1,100,188834
1575308120.330234,36004.667,5790,3,PI,1,100,189399
1575308120.367882,36036.333,5790,3,PI,1,100,189854
1575308120.405529,36068.000,5790,3,PI,1,100,190371
1575308120.445159,36101.333,5808,3,PI,1,100,190563
1575308120.484788,36134.667,5808,3,PI,1,100,188398
1575308120.524417,36168.000,5808,3,PI,1,100,185285
1575308120.564046,36201.333,5826,3,PI,1,100,184738
1575308120.603676,36234.667,5826,3,PI,1,100,185236
1575308120.643305,36268.000,5826,3,PI,1,100,185988
1575308120.684916,36303.000,5844,3,PI,1,100,186784
1575308120.726526,36338.000,5844,3,PI,1,100,187158
1575308120.768137,36373.000,5844,3,PI,1,100,186854
1575308120.809351,36407.667,5862,3,PI,1,100,186573
1575308120.850565,36442.333,5862,3,PI,1,100,186850
1575308120.891780,36477.000,5862,3,PI,1,100,187576
1575308120.929824,36509.000,5880,3,PI,1,100,188412
1575308120.967868,36541.000,5880,3,PI,1,100,189106
1575308121.005912,36573.000,5880,3,PI,1,100,189566
1575308121.048315,36608.667,5898,3,PI,1,100,189942
1575308121.090719,36644.333,5898,3,PI,1,100,190313
1575308121.133122,36680.000,5898,3,PI,1,100,190666
1575308121.172355,36713.000,5916,3,PI,1,100,190615
1575308121.211588,36746.000,5916,3,PI,1,100,187935
1575308121.250820,36779.000,5916,3,PI,1,100,185073
1575308121.291639,36813.333,5934,3,PI,1,100,184830
1575308121.332457,36847.667,5934,3,PI,1,100,185638
1575308121.373275,36882.000,5934,3,PI,1,100,186729
1575308121.414886,36917.000,5950,3,PI,1,100,187621
1575308121.456496,36952.000,5950,3,PI,1,100,187769
1575308121.498107,36987.000,5950,3,PI,1,100,187213
1575308121.536547,37019.333,5968,3,PI,1,100,186880
1575308121.574987,37051.667,5968,3,PI,1,100,187218
1575308121.613428,37084.000,5968,3,PI,1,100,187853
1575308121.651868,37116.333,5986,3,PI,1,100,188651
1575308121.690308,37148.667,5986,3,PI,1,100,189333
1575308121.728749,37181.000,5986,3,PI,1,100,189838
1575308121.768378,37214.333,6004,3,PI,1,100,190214
1575308121.808007,37247.667,6004,3,PI,1,100,190523
1575308121.847636,37281.000,6004,3,PI,1,100,190792
1575308121.888851,37315.667,6022,3,PI,1,100,189845
1575308121.930065,37350.333,6022,3,PI,1,100,186507
1575308121.971279,37385.000,6022,3,PI,1,100,185034
1575308122.012890,37420.000,6040,3,PI,1,100,185351
1575308122.054501,37455.000,6040,3,PI,1,100,186411
1575308122.096112,37490.000,6040,3,PI,1,100,187679
1575308122.135741,37523.333,6059,3,PI,1,100,188510
1575308122.175370,37556.667,6059,3,PI,1,100,188281
1575308122.214999,37590.000,6059,3,PI,1,100,187371
1575308122.253439,37622.333,6076,3,PI,1,100,187140
1575308122.291880,37654.667,6076,3,PI,1,100,187708
1575308122.330320,37687.000,6076,3,PI,1,100,188466
1575308122.369553,37720.000,6094,3,PI,1,100,189216
1575308122.408786,37753.000,6094,3,PI,1,100,189901
1575308122.448019,37786.000,6094,3,PI,1,100,190366
1575308122.488837,37820.333,6112,3,PI,1,100,190652
1575308122.529655,37854.667,6112,3,PI,1,100,190714
1575308122.570473,37889.000,6112,3,PI,1,100,188690
1575308122.612084,37924.000,6128,3,PI,1,100,185392
1575308122.653694,37959.000,6128,3,PI,1,100,184759
1575308122.695305,37994.000,6128,3,PI,1,100,185344
1575308122.734934,38027.333,6146,3,PI,1,100,186443
1575308122.774564,38060.667,6146,3,PI,1,100,187631
1575308122.814193,38094.000,6146,3,PI,1,100,188163
1575308122.852633,38126.333,6164,3,PI,1,100,187628
1575308122.891073,38158.667,6164,3,PI,1,100,186882
1575308122.929514,38191.000,6164,3,PI,1,100,186902
1575308122.967558,38223.000,6182,3,PI,1,100,187547
1575308123.005602,38255.000,6182,3,PI,1,100,188349
1575308123.043646,38287.000,6182,3,PI,1,100,189071
1575308123.084068,38321.000,6201,3,PI,1,100,189659
1575308123.124489,38355.000,6201,3,PI,1,100,190143
1575308123.164911,38389.000,6201,3,PI,1,100,190433
1575308123.207314,38424.667,6219,3,PI,1,100,188730
1575308123.249718,38460.333,6219,3,PI,1,100,185186
1575308123.292121,38496.000,6219,3,PI,1,100,184324
1575308123.330561,38528.333,6237,3,PI,1,100,184744
1575308123.369002,38560.667,6237,3,PI,1,100,185631
1575308123.407442,38593.000,6237,3,PI,1,100,186696
1575308123.452619,38631.000,6254,3,PI,1,100,187465
1575308123.497797,38669.000,6254,3,PI,1,100,187338
1575308123.542974,38707.000,6254,3,PI,1,100,186829
1575308123.580621,38738.667,6272,3,PI,1,100,186769
1575308123.618269,38770.333,6272,3,PI,1,100,187260
1575308123.655917,38802.000,6272,3,PI,1,100,187976
1575308123.697131,38836.667,6288,3,PI,1,100,188682
1575308123.738346,38871.333,6288,3,PI,1,100,189379
1575308123.779560,38906.000,6288,3,PI,1,100,189914
1575308123.818397,38938.667,6306,3,PI,1,100,190336
1575308123.857233,38971.333,6306,3,PI,1,100,189858
1575308123.896070,39004.000,6306,3,PI,1,100,186101
1575308123.937284,39038.667,6324,3,PI,1,100,184147
1575308123.978499,39073.333,6324,3,PI,1,100,184233
1575308124.019713,39108.000,6324,3,PI,1,100,184954
1575308124.057361,39139.667,6342,3,PI,1,100,185725
1575308124.095009,39171.333,6342,3,PI,1,100,186459
1575308124.132656,39203.000,6342,3,PI,1,100,186729
1575308124.170304,39234.667,6361,3,PI,1,100,186467
1575308124.207952,39266.333,6361,3,PI,1,100,186307
1575308124.245600,39298.000,6361,3,PI,1,100,186678
1575308124.286021,39332.000,6379,3,PI,1,100,187382
1575308124.326443,39366.000,6379,3,PI,1,100,188168
1575308124.366865,39400.000,6379,3,PI,1,100,188883
1575308124.408178,39434.750,6400,4,PI,1,100,189447
1575308124.449492,39469.500,6400,4,PI,1,100,189874
1575308124.490805,39504.250,6400,4,PI,1,100,190224
1575308124.532119,39539.000,6400,4,PI,1,100,190476
1575308124.574126,39574.333,6420,3,PI,1,100,189803
1575308124.616133,39609.667,6420,3,PI,1,100,185917
1575308124.658140,39645.000,6420,3,PI,1,100,184161
1575308124.695886,39676.750,6438,4,PI,1,100,184289
1575308124.733633,39708.500,6438,4,PI,1,100,185052
1575308124.771380,39740.250,6438,4,PI,1,100,185937
1575308124.809127,39772.000,6438,4,PI,1,100,186672
1575308124.849152,39805.667,6456,3,PI,1,100,186822
1575308124.889178,39839.333,6456,3,PI,1,100,186527
1575308124.929204,39873.000,6456,3,PI,1,100,186385
1575308124.969625,39907.000,6474,3,PI,1,100,186754
1575308125.010047,39941.000,6474,3,PI,1,100,187431
1575308125.050469,39975.000,6474,3,PI,1,100,188234
1575308125.091485,40009.500,6493,2,PI,1,100,189014
1575308125.132501,40044.000,6493,2,PI,1,100,189600
1575308125.174112,40079.000,6511,3,PI,1,100,189993
1575308125.215723,40114.000,6511,3,PI,1,100,190298
1575308125.257333,40149.000,6511,3,PI,1,100,190579
1575308125.298548,40183.667,6528,3,PI,1,100,190845
1575308125.339762,40218.333,6528,3,PI,1,100,190268
1575308125.380976,40253.000,6528,3,PI,1,100,186301
1575308125.419020,40285.000,6546,3,PI,1,100,184253
1575308125.457064,40317.000,6546,3,PI,1,100,184385
1575308125.495108,40349.000,6546,3,PI,1,100,185212
1575308125.535530,40383.000,6564,3,PI,1,100,186154
1575308125.575952,40417.000,6564,3,PI,1,100,186961
1575308125.616374,40451.000,6564,3,PI,1,100,187208
1575308125.657192,40485.333,6580,3,PI,1,100,186741
1575308125.698010,40519.667,6580,3,PI,1,100,186397
1575308125.738828,40554.000,6580,3,PI,1,100,186759
1575308125.780042,40588.667,6598,3,PI,1,100,187605
1575308125.821257,40623.333,6598,3,PI,1,100,188559
1575308125.862471,40658.000,6598,3,PI,1,100,189302
1575308125.901308,40690.667,6616,3,PI,1,100,189844
1575308125.940145,40723.333,6616,3,PI,1,100,190179
1575308125.978981,40756.000,6616,3,PI,1,100,190417
1575308126.017025,40788.000,6634,3,PI,1,100,190676
1575308126.055069,40820.000,6634,3,PI,1,100,190876
1575308126.093113,40852.000,6634,3,PI,1,100,191125
1575308126.133535,40886.000,6653,3,PI,1,100,191335
1575308126.173957,40920.000,6653,3,PI,1,100,191528
1575308126.214379,40954.000,6653,3,PI,1,100,191028
1575308126.256386,40989.333,6671,3,PI,1,100,186905
1575308126.298393,41024.667,6671,3,PI,1,100,184465
1575308126.340400,41060.000,6671,3,PI,1,100,184646
1575308126.381217,41094.333,6689,3,PI,1,100,185627
1575308126.422036,41128.667,6689,3,PI,1,100,186763
1575308126.462854,41163.000,6689,3,PI,1,100,187740
1575308126.501690,41195.667,6706,3,PI,1,100,188125
1575308126.540527,41228.333,6706,3,PI,1,100,187768
1575308126.579364,41261.000,6706,3,PI,1,100,187293
1575308126.618002,41293.500,6724,4,PI,1,100,187536
1575308126.656641,41326.000,6724,4,PI,1,100,188266
1575308126.695279,41358.500,6724,4,PI,1,100,189065
1575308126.733917,41391.000,6724,4,PI,1,100,189742
1575308126.773150,41424.000,6742,3,PI,1,100,190324
1575308126.812383,41457.000,6742,3,PI,1,100,190749
1575308126.851616,41490.000,6742,3,PI,1,100,191027
1575308126.893821,41525.500,6758,2,PI,1,100,191226
1575308126.936026,41561.000,6758,2,PI,1,100,191404
1575308126.976448,41595.000,6776,3,PI,1,100,191563
1575308127.016870,41629.000,6776,3,PI,1,100,191737
1575308127.057292,41663.000,6776,3,PI,1,100,191768
1575308127.097317,41696.667,6795,3,PI,1,100,189416
1575308127.137343,41730.333,6795,3,PI,1,100,185567
1575308127.177368,41764.000,6795,3,PI,1,100,185037
1575308127.216304,41796.750,6813,4,PI,1,100,185912
1575308127.255240,41829.500,6813,4,PI,1,100,187246
1575308127.294175,41862.250,6813,4,PI,1,100,188475
1575308127.333111,41895.000,6813,4,PI,1,100,189334
1575308127.367589,41924.000,6831,3,PI,1,100,189501
1575308127.402066,41953.000,6831,3,PI,1,100,189165
1575308127.436543,41982.000,6831,3,PI,1,100,189025
1575308127.475380,42014.667,6849,3,PI,1,100,189464
1575308127.514216,42047.333,6849,3,PI,1,100,190173
1575308127.553053,42080.000,6849,3,PI,1,100,190735
1575308127.597438,42117.333,6867,3,PI,1,100,191129
1575308127.641823,42154.667,6867,3,PI,1,100,191417
1575308127.686207,42192.000,6867,3,PI,1,100,191637
1575308127.723459,42223.333,6885,3,PI,1,100,191782
1575308127.760710,42254.667,6885,3,PI,1,100,191903
1575308127.797962,42286.000,6885,3,PI,1,100,192017
1575308127.839176,42320.667,6902,3,PI,1,100,192144
1575308127.880390,42355.333,6902,3,PI,1,100,191587
1575308127.921605,42390.000,6902,3,PI,1,100,188093
1575308127.965989,42427.333,6920,3,PI,1,100,185772
1575308128.010374,42464.667,6920,3,PI,1,100,186194
1575308128.054759,42502.000,6920,3,PI,1,100,187492
1575308128.093596,42534.667,6937,3,PI,1,100,188898
1575308128.132432,42567.333,6937,3,PI,1,100,189940
1575308128.171269,42600.000,6937,3,PI,1,100,190470
1575308128.212483,42634.667,6955,3,PI,1,100,190462
1575308128.253697,42669.333,6955,3,PI,1,100,190287
1575308128.294912,42704.000,6955,3,PI,1,100,190537
1575308128.336523,42739.000,6973,2,PI,1,100,191039
1575308128.378133,42774.000,6973,2,PI,1,100,191424
1575308128.416772,42806.500,6991,4,PI,1,100,191725
1575308128.455410,42839.000,6991,4,PI,1,100,191934
1575308128.494049,42871.500,6991,4,PI,1,100,192109
1575308128.532687,42904.000,6991,4,PI,1,100,192222
1575308128.571127,42936.333,7009,3,PI,1,100,192301
1575308128.609568,42968.667,7009,3,PI,1,100,192446
1575308128.648008,43001.000,7009,3,PI,1,100,192581
1575308128.688826,43035.333,7027,3,PI,1,100,191435
1575308128.729644,43069.667,7027,3,PI,1,100,187768
1575308128.770462,43104.000,7027,3,PI,1,100,186141
1575308128.811280,43138.333,7045,3,PI,1,100,187027
1575308128.852098,43172.667,7045,3,PI,1,100,188534
1575308128.892917,43207.000,7045,3,PI,1,100,189863
1575308128.934527,43242.000,7062,2,PI,1,100,190736
1575308128.976138,43277.000,7062,2,PI,1,100,191134
1575308129.015074,43309.750,7080,4,PI,1,100,191049
1575308129.054009,43342.500,7080,4,PI,1,100,190961
1575308129.092945,43375.250,7080,4,PI,1,100,191306
1575308129.131881,43408.000,7080,4,PI,1,100,191687
1575308129.169925,43440.000,7099,3,PI,1,100,191944
1575308129.207969,43472.000,7099,3,PI,1,100,192175
1575308129.246013,43504.000,7099,3,PI,1,100,192375
1575308129.286435,43538.000,7115,2,PI,1,100,192519
1575308129.326856,43572.000,7115,2,PI,1,100,192640
1575308129.371241,43609.333,7133,3,PI,1,100,192745
1575308129.415626,43646.667,7133,3,PI,1,100,192831
1575308129.460011,43684.000,7133,3,PI,1,100,191769
1575308129.501225,43718.667,7151,3,PI,1,100,188460
1575308129.542439,43753.333,7151,3,PI,1,100,186719
1575308129.583654,43788.000,7151,3,PI,1,100,187427
1575308129.623283,43821.333,7169,3,PI,1,100,188944
1575308129.662912,43854.667,7169,3,PI,1,100,190389
1575308129.702541,43888.000,7169,3,PI,1,100,191247
1575308129.740585,43920.000,7187,4,PI,1,100,191541
1575308129.778629,43952.000,7187,4,PI,1,100,191443
1575308129.816673,43984.000,7187,4,PI,1,100,191409
1575308129.854717,44016.000,7187,4,PI,1,100,191689
1575308129.895139,44050.000,7205,3,PI,1,100,191974
1575308129.935561,44084.000,7205,3,PI,1,100,192220
1575308129.975983,44118.000,7205,3,PI,1,100,192423
1575308130.018188,44153.500,7223,2,PI,1,100,192626
1575308130.060393,44189.000,7223,2,PI,1,100,192725
1575308130.101607,44223.667,7241,3,PI,1,100,192852
1575308130.142822,44258.333,7241,3,PI,1,100,192911
1575308130.184036,44293.000,7241,3,PI,1,100,192348
1575308130.224458,44327.000,7259,3,PI,1,100,189368
1575308130.264880,44361.000,7259,3,PI,1,100,187115
1575308130.305301,44395.000,7259,3,PI,1,100,187516
1575308130.342751,44426.500,7277,4,PI,1,100,188956
1575308130.380201,44458.000,7277,4,PI,1,100,190412
1575308130.417650,44489.500,7277,4,PI,1,100,191345
1575308130.455100,44521.000,7277,4,PI,1,100,191764
1575308130.495224,44554.750,7296,4,PI,1,100,191678
1575308130.535349,44588.500,7296,4,PI,1,100,191432
1575308130.575474,44622.250,7296,4,PI,1,100,191666
1575308130.615598,44656.000,7296,4,PI,1,100,192019
1575308130.656813,44690.667,7314,3,PI,1,100,192345
1575308130.698027,44725.333,7314,3,PI,1,100,192543
1575308130.739241,44760.000,7314,3,PI,1,100,192673
1575308130.780456,44794.667,7333,3,PI,1,100,192806
1575308130.821670,44829.333,7333,3,PI,1,100,192979
1575308130.862885,44864.000,7333,3,PI,1,100,193050
1575308130.900532,44895.667,7351,3,PI,1,100,191212
1575308130.938180,44927.333,7351,3,PI,1,100,187947
1575308130.975828,44959.000,7351,3,PI,1,100,187078
1575308131.014268,44991.333,7369,3,PI,1,100,188172
1575308131.052708,45023.667,7369,3,PI,1,100,189695
1575308131.091149,45056.000,7369,3,PI,1,100,190996
1575308131.131174,45089.667,7388,3,PI,1,100,191677
1575308131.171200,45123.333,7388,3,PI,1,100,191846
1575308131.211225,45157.000,7388,3,PI,1,100,191514
1575308131.252439,45191.667,7404,3,PI,1,100,191498
1575308131.293654,45226.333,7404,3,PI,1,100,191874
1575308131.334868,45261.000,7404,3,PI,1,100,192231
1575308131.376875,45296.333,7422,3,PI,1,100,192490
1575308131.418882,45331.667,7422,3,PI,1,100,192678
1575308131.460889,45367.000,7422,3,PI,1,100,192828
1575308131.498141,45398.333,7440,3,PI,1,100,192965
1575308131.535392,45429.667,7440,3,PI,1,100,192908
1575308131.572644,45461.000,7440,3,PI,1,100,190585
1575308131.617821,45499.000,7458,3,PI,1,100,187409
1575308131.662998,45537.000,7458,3,PI,1,100,186968
1575308131.708175,45575.000,7458,3,PI,1,100,188064
1575308131.745427,45606.333,7476,3,PI,1,100,189673
1575308131.782678,45637.667,7476,3,PI,1,100,190962
1575308131.819930,45669.000,7476,3,PI,1,100,191623
1575308131.861144,45703.667,7494,3,PI,1,100,191513
1575308131.902359,45738.333,7494,3,PI,1,100,191032
1575308131.943573,45773.000,7494,3,PI,1,100,191158
1575308131.981221,45804.667,7511,3,PI,1,100,191741
1575308132.018868,45836.333,7511,3,PI,1,100,192245
1575308132.056516,45868.000,7511,3,PI,1,100,192560
1575308132.096145,45901.333,7530,3,PI,1,100,192770
1575308132.135775,45934.667,7530,3,PI,1,100,192922
1575308132.175404,45968.000,7530,3,PI,1,100,192789
1575308132.213844,46000.333,7548,3,PI,1,100,190149
1575308132.252284,46032.667,7548,3,PI,1,100,187159
1575308132.290725,46065.000,7548,3,PI,1,100,187002
1575308132.329958,46098.000,7564,3,PI,1,100,188149
1575308132.369190,46131.000,7564,3,PI,1,100,189686
1575308132.408423,46164.000,7564,3,PI,1,100,190953
1575308132.449638,46198.667,7582,3,PI,1,100,191514
1575308132.490852,46233.333,7582,3,PI,1,100,191199
1575308132.532067,46268.000,7582,3,PI,1,100,190885
1575308132.572885,46302.333,7600,3,PI,1,100,191100
1575308132.613703,46336.667,7600,3,PI,1,100,191663
1575308132.654521,46371.000,7600,3,PI,1,100,192095
1575308132.695339,46405.333,7618,3,PI,1,100,192495
1575308132.736157,46439.667,7618,3,PI,1,100,192730
1575308132.776975,46474.000,7618,3,PI,1,100,192797
1575308132.815019,46506.000,7636,3,PI,1,100,191575
1575308132.853063,46538.000,7636,3,PI,1,100,188124
1575308132.891107,46570.000,7636,3,PI,1,100,186547
1575308132.929746,46602.500,7654,4,PI,1,100,187125
1575308132.968384,46635.000,7654,4,PI,1,100,188380
1575308133.007023,46667.500,7654,4,PI,1,100,189807
1575308133.045661,46700.000,7654,4,PI,1,100,190725
1575308133.086677,46734.500,7673,2,PI,1,100,190591
1575308133.127694,46769.000,7673,2,PI,1,100,190085
1575308133.168512,46803.333,7691,3,PI,1,100,189960
1575308133.209330,46837.667,7691,3,PI,1,100,190430
1575308133.250148,46872.000,7691,3,PI,1,100,191123
1575308133.292155,46907.333,7708,3,PI,1,100,191731
1575308133.334162,46942.667,7708,3,PI,1,100,192160
1575308133.376169,46978.000,7708,3,PI,1,100,192378
1575308133.417383,47012.667,7726,3,PI,1,100,191269
1575308133.458597,47047.333,7726,3,PI,1,100,187690
1575308133.499812,47082.000,7726,3,PI,1,100,186019
1575308133.538648,47114.667,7742,3,PI,1,100,186465
1575308133.577485,47147.333,7742,3,PI,1,100,187612
1575308133.616322,47180.000,7742,3,PI,1,100,188885
1575308133.656744,47214.000,7760,3,PI,1,100,189693
1575308133.697165,47248.000,7760,3,PI,1,100,189722
1575308133.737587,47282.000,7760,3,PI,1,100,189176
1575308133.778405,47316.333,7778,3,PI,1,100,188888
1575308133.819223,47350.667,7778,3,PI,1,100,189261
1575308133.860041,47385.000,7778,3,PI,1,100,190097
1575308133.902048,47420.333,7796,3,PI,1,100,190941
1575308133.944055,47455.667,7796,3,PI,1,100,191515
1575308133.986062,47491.000,7796,3,PI,1,100,191816
1575308134.024106,47523.000,7814,3,PI,1,100,190499
1575308134.062150,47555.000,7814,3,PI,1,100,187072
1575308134.100194,47587.000,7814,3,PI,1,100,185802
1575308134.138238,47619.000,7833,3,PI,1,100,186326
1575308134.176282,47651.000,7833,3,PI,1,100,187495
1575308134.214326,47683.000,7833,3,PI,1,100,188823
1575308134.255145,47717.333,7851,3,PI,1,100,189546
1575308134.295963,47751.667,7851,3,PI,1,100,189342
1575308134.336781,47786.000,7851,3,PI,1,100,188814
1575308134.377995,47820.667,7869,3,PI,1,100,188777
1575308134.419209,47855.333,7869,3,PI,1,100,189313
1575308134.460424,47890.000,7869,3,PI,1,100,190110
1575308134.501242,47924.333,7886,3,PI,1,100,190813
1575308134.542060,47958.667,7886,3,PI,1,100,191313
1575308134.582878,47993.000,7886,3,PI,1,100,191198
1575308134.622111,48026.000,7904,3,PI,1,100,188686
1575308134.661344,48059.000,7904,3,PI,1,100,185978
1575308134.700577,48092.000,7904,3,PI,1,100,185811
1575308134.737432,48123.000,7920,3,PI,1,100,186798
1575308134.774287,48154.000,7920,3,PI,1,100,188180
1575308134.811142,48185.000,7920,3,PI,1,100,189337
1575308134.851168,48218.667,7938,3,PI,1,100,189601
1575308134.891193,48252.333,7938,3,PI,1,100,188957
1575308134.931219,48286.000,7938,3,PI,1,100,188327
1575308134.972037,48320.333,7956,3,PI,1,100,188482
1575308135.012855,48354.667,7956,3,PI,1,100,189232
1575308135.053673,48389.000,7956,3,PI,1,100,190103
1575308135.094491,48423.333,7975,3,PI,1,100,190831
1575308135.135309,48457.667,7975,3,PI,1,100,191186
1575308135.176127,48492.000,7975,3,PI,1,100,189234
1575308135.216549,48526.000,7993,3,PI,1,100,186106
1575308135.256971,48560.000,7993,3,PI,1,100,185431
1575308135.297393,48594.000,7993,3,PI,1,100,186127
1575308135.335833,48626.333,8011,3,PI,1,100,187334
1575308135.374273,48658.667,8011,3,PI,1,100,188496
1575308135.412714,48691.000,8011,3,PI,1,100,188642
1575308135.450758,48723.000,8029,4,PI,1,100,187935
1575308135.488802,48755.000,8029,4,PI,1,100,187492
1575308135.526846,48787.000,8029,4,PI,1,100,187842
1575308135.564890,48819.000,8029,4,PI,1,100,188528
1575308135.607095,48854.500,8047,2,PI,1,100,189318
1575308135.649300,48890.000,8047,2,PI,1,100,190128
1575308135.686749,48921.500,8065,4,PI,1,100,190773
1575308135.724199,48953.000,8065,4,PI,1,100,190267
1575308135.761649,48984.500,8065,4,PI,1,100,186737
1575308135.799098,49016.000,8065,4,PI,1,100,184850
1575308135.839124,49049.667,8082,3,PI,1,100,184968
1575308135.879149,49083.333,8082,3,PI,1,100,185825
1575308135.919175,49117.000,8082,3,PI,1,100,186937
1575308135.959200,49150.667,8100,3,PI,1,100,187763
1575308135.999226,49184.333,8100,3,PI,1,100,187584
1575308136.039251,49218.000,8100,3,PI,1,100,186884
1575308136.081655,49253.667,8117,3,PI,1,100,186797
1575308136.124058,49289.333,8117,3,PI,1,100,187300
1575308136.166461,49325.000,8117,3,PI,1,100,188061
1575308136.206883,49359.000,8135,3,PI,1,100,188840
1575308136.247305,49393.000,8135,3,PI,1,100,189526
1575308136.287726,49427.000,8135,3,PI,1,100,190065
1575308136.329337,49462.000,8153,2,PI,1,100,189716
1575308136.370948,49497.000,8153,2,PI,1,100,186360
1575308136.412559,49532.000,8171,3,PI,1,100,184311
1575308136.454169,49567.000,8171,3,PI,1,100,184343
1575308136.495780,49602.000,8171,3,PI,1,100,184977
1575308136.533824,49634.000,8192,5,PI,1,100,185690
1575308136.571868,49666.000,8192,5,PI,1,100,186308
1575308136.609912,49698.000,8192,5,PI,1,100,186333
1575308136.647956,49730.000,8192,5,PI,1,100,185974
1575308136.686000,49762.000,8192,5,PI,1,100,185940
1575308136.726026,49795.667,8212,3,PI,1,100,186434
1575308136.766051,49829.333,8212,3,PI,1,100,187095
1575308136.806077,49863.000,8212,3,PI,1,100,187766
1575308136.846895,49897.333,8230,3,PI,1,100,188399
1575308136.887713,49931.667,8230,3,PI,1,100,188978
1575308136.928531,49966.000,8230,3,PI,1,100,189396
1575308136.969745,50000.667,8248,3,PI,1,100,189623
1575308137.010959,50035.333,8248,3,PI,1,100,189835
1575308137.052174,50070.000,8248,3,PI,1,100,190261
1575308137.091803,50103.333,8267,3,PI,1,100,190475
1575308137.131432,50136.667,8267,3,PI,1,100,187783
1575308137.171062,50170.000,8267,3,PI,1,100,184427
1575308137.208709,50201.667,8285,3,PI,1,100,183900
1575308137.246357,50233.333,8285,3,PI,1,100,184311
1575308137.284005,50265.000,8285,3,PI,1,100,184755
1575308137.323238,50298.000,8303,3,PI,1,100,185305
1575308137.362471,50331.000,8303,3,PI,1,100,185678
1575308137.401703,50364.000,8303,3,PI,1,100,185578
1575308137.446485,50401.667,8321,3,PI,1,100,185459
1575308137.491266,50439.333,8321,3,PI,1,100,185661
1575308137.536047,50477.000,8321,3,PI,1,100,186174
1575308137.576864,50511.333,8338,3,PI,1,100,186883
1575308137.617683,50545.667,8338,3,PI,1,100,187528
1575308137.658501,50580.000,8338,3,PI,1,100,188039
1575308137.698526,50613.667,8356,3,PI,1,100,188375
1575308137.738552,50647.333,8356,3,PI,1,100,188562
1575308137.778577,50681.000,8356,3,PI,1,100,188818
1575308137.816225,50712.667,8374,3,PI,1,100,189202
1575308137.853873,50744.333,8374,3,PI,1,100,189754
1575308137.891521,50776.000,8374,3,PI,1,100,189862
1575308137.930357,50808.667,8390,3,PI,1,100,187022
1575308137.969194,50841.333,8390,3,PI,1,100,184088
1575308138.008030,50874.000,8390,3,PI,1,100,183747
1575308138.049245,50908.667,8409,3,PI,1,100,184191
1575308138.090459,50943.333,8409,3,PI,1,100,184718
1575308138.131673,50978.000,8409,3,PI,1,100,185193
1575308138.172492,51012.333,8427,3,PI,1,100,185427
1575308138.213310,51046.667,8427,3,PI,1,100,185342
1575308138.254128,51081.000,8427,3,PI,1,100,185240
1575308138.295342,51115.667,8445,3,PI,1,100,185499
1575308138.336556,51150.333,8445,3,PI,1,100,185987
1575308138.377771,51185.000,8445,3,PI,1,100,186607
1575308138.415419,51216.667,8463,3,PI,1,100,187253
1575308138.453066,51248.333,8463,3,PI,1,100,187755
1575308138.490714,51280.000,8463,3,PI,1,100,188123
1575308138.529154,51312.333,8481,3,PI,1,100,188408
1575308138.567595,51344.667,8481,3,PI,1,100,188673
1575308138.606035,51377.000,8481,3,PI,1,100,188980
1575308138.647249,51411.667,8499,3,PI,1,100,189318
1575308138.688464,51446.333,8499,3,PI,1,100,189764
1575308138.729678,51481.000,8499,3,PI,1,100,190228
1575308138.770496,51515.333,8517,3,PI,1,100,189465
1575308138.811314,51549.667,8517,3,PI,1,100,185633
1575308138.852132,51584.000,8517,3,PI,1,100,183785
1575308138.893347,51618.667,8534,3,PI,1,100,183947
1575308138.934561,51653.333,8534,3,PI,1,100,184569
1575308138.975775,51688.000,8534,3,PI,1,100,185127
1575308139.013819,51720.000,8552,3,PI,1,100,185546
1575308139.051864,51752.000,8552,3,PI,1,100,185562
1575308139.089908,51784.000,8552,3,PI,1,100,185453
1575308139.127159,51815.333,8569,3,PI,1,100,185578
1575308139.164411,51846.667,8569,3,PI,1,100,186040
1575308139.201662,51878.000,8569,3,PI,1,100,186704
1575308139.242084,51912.000,8587,3,PI,1,100,187427
1575308139.282506,51946.000,8587,3,PI,1,100,187941
1575308139.322927,51980.000,8587,3,PI,1,100,188312
1575308139.363349,52014.000,8605,3,PI,1,100,188593
1575308139.403771,52048.000,8605,3,PI,1,100,188912
1575308139.444193,52082.000,8605,3,PI,1,100,189304
1575308139.483822,52115.333,8623,3,PI,1,100,189670
1575308139.523451,52148.667,8623,3,PI,1,100,190079
1575308139.563080,52182.000,8623,3,PI,1,100,190448
1575308139.604295,52216.667,8641,3,PI,1,100,190743
1575308139.645509,52251.333,8641,3,PI,1,100,190879
1575308139.686723,52286.000,8641,3,PI,1,100,188316
1575308139.729523,52322.000,8659,3,PI,1,100,184642
1575308139.772323,52358.000,8659,3,PI,1,100,183912
1575308139.815122,52394.000,8659,3,PI,1,100,184527
1575308139.856336,52428.667,8676,3,PI,1,100,185501
1575308139.897551,52463.333,8676,3,PI,1,100,186341
1575308139.938765,52498.000,8676,3,PI,1,100,186728
1575308139.978791,52531.667,8694,3,PI,1,100,186374
1575308140.018816,52565.333,8694,3,PI,1,100,185976
1575308140.058842,52599.000,8694,3,PI,1,100,186143
1575308140.096489,52630.667,8713,3,PI,1,100,186776
1575308140.134137,52662.333,8713,3,PI,1,100,187625
1575308140.171785,52694.000,8713,3,PI,1,100,188460
1575308140.210622,52726.667,8729,3,PI,1,100,189106
1575308140.249458,52759.333,8729,3,PI,1,100,189624
1575308140.288295,52792.000,8729,3,PI,1,100,189937
1575308140.333076,52829.667,8747,3,PI,1,100,190147
1575308140.377857,52867.333,8747,3,PI,1,100,190354
1575308140.422638,52905.000,8747,3,PI,1,100,190611
1575308140.463852,52939.667,8765,3,PI,1,100,190888
1575308140.505067,52974.333,8765,3,PI,1,100,191160
1575308140.546281,53009.000,8765,3,PI,1,100,191415
1575308140.584325,53041.000,8783,3,PI,1,100,191251
1575308140.622369,53073.000,8783,3,PI,1,100,188192
1575308140.660413,53105.000,8783,3,PI,1,100,185115
1575308140.702024,53140.000,8801,3,PI,1,100,184969
1575308140.743634,53175.000,8801,3,PI,1,100,185980
1575308140.785245,53210.000,8801,3,PI,1,100,187294
1575308140.826063,53244.333,8819,3,PI,1,100,188513
1575308140.866881,53278.667,8819,3,PI,1,100,189045
1575308140.907699,53313.000,8819,3,PI,1,100,188687
1575308140.945347,53344.667,8837,3,PI,1,100,188170
1575308140.982995,53376.333,8837,3,PI,1,100,188280
1575308141.020643,53408.000,8837,3,PI,1,100,188972
1575308141.060668,53441.667,8855,3,PI,1,100,189829
1575308141.100693,53475.333,8855,3,PI,1,100,190459
1575308141.140719,53509.000,8855,3,PI,1,100,190868
1575308141.180348,53542.333,8873,3,PI,1,100,191039
1575308141.219977,53575.667,8873,3,PI,1,100,191249
1575308141.259607,53609.000,8873,3,PI,1,100,191480
1575308141.300425,53643.333,8891,3,PI,1,100,191590
1575308141.341243,53677.667,8891,3,PI,1,100,191666
1575308141.382061,53712.000,8891,3,PI,1,100,191786
1575308141.422879,53746.333,8907,3,PI,1,100,191938
1575308141.463697,53780.667,8907,3,PI,1,100,191898
1575308141.504515,53815.000,8907,3,PI,1,100,189369
1575308141.542163,53846.667,8925,3,PI,1,100,186153
1575308141.579811,53878.333,8925,3,PI,1,100,185748
1575308141.617458,53910.000,8925,3,PI,1,100,186800
1575308141.656295,53942.667,8943,3,PI,1,100,188339
1575308141.695132,53975.333,8943,3,PI,1,100,189684
1575308141.733968,54008.000,8943,3,PI,1,100,190408
1575308141.777560,54044.667,8961,3,PI,1,100,190363
1575308141.821152,54081.333,8961,3,PI,1,100,189936
1575308141.864745,54118.000,8961,3,PI,1,100,190027
1575308141.905166,54152.000,8979,3,PI,1,100,190543
1575308141.945588,54186.000,8979,3,PI,1,100,191047
1575308141.986010,54220.000,8979,3,PI,1,100,191401
1575308142.028017,54255.333,8997,3,PI,1,100,191639
1575308142.070024,54290.667,8997,3,PI,1,100,191826
1575308142.112031,54326.000,8997,3,PI,1,100,191955
1575308142.149679,54357.667,9016,3,PI,1,100,192088
1575308142.187326,54389.333,9016,3,PI,1,100,192231
1575308142.224974,54421.000,9016,3,PI,1,100,192299
1575308142.263811,54453.667,9034,3,PI,1,100,192374
1575308142.302647,54486.333,9034,3,PI,1,100,192454
1575308142.341484,54519.000,9034,3,PI,1,100,191413
1575308142.381113,54552.333,9051,3,PI,1,100,188436
1575308142.420743,54585.667,9051,3,PI,1,100,186824
1575308142.460371,54619.000,9051,3,PI,1,100,187472
1575308142.501586,54653.667,9069,3,PI,1,100,188967
1575308142.542800,54688.333,9069,3,PI,1,100,190349
1575308142.584015,54723.000,9069,3,PI,1,100,191115
1575308142.623010,54755.800,9086,5,PI,1,100,191401
1575308142.662005,54788.600,9086,5,PI,1,100,191190
1575308142.701000,54821.400,9086,5,PI,1,100,191009
1575308142.739995,54854.200,9086,5,PI,1,100,191274
1575308142.778991,54887.000,9086,5,PI,1,100,191633
1575308142.815845,54918.000,9108,3,PI,1,100,191918
1575308142.852701,54949.000,9108,3,PI,1,100,192152
1575308142.889556,54980.000,9108,3,PI,1,100,192316
1575308142.931959,55015.667,9126,3,PI,1,100,192461
1575308142.974362,55051.333,9126,3,PI,1,100,192556
1575308143.016766,55087.000,9126,3,PI,1,100,192649
1575308143.057980,55121.667,9144,3,PI,1,100,192730
1575308143.099194,55156.333,9144,3,PI,1,100,192541
1575308143.140409,55191.000,9144,3,PI,1,100,190128
1575308143.181227,55225.333,9162,3,PI,1,100,187717
1575308143.222045,55259.667,9162,3,PI,1,100,187427
1575308143.262863,55294.000,9162,3,PI,1,100,188629
1575308143.303285,55328.000,9180,3,PI,1,100,190196
1575308143.343707,55362.000,9180,3,PI,1,100,191218
1575308143.384128,55396.000,9180,3,PI,1,100,191648
1575308143.422569,55428.333,9196,3,PI,1,100,191633
1575308143.461009,55460.667,9196,3,PI,1,100,191352
1575308143.499449,55493.000,9196,3,PI,1,100,191421
1575308143.539475,55526.667,9214,3,PI,1,100,191758
1575308143.579500,55560.333,9214,3,PI,1,100,192019
1575308143.619526,55594.000,9214,3,PI,1,100,192249
1575308143.661137,55629.000,9232,3,PI,1,100,192429
1575308143.702747,55664.000,9232,3,PI,1,100,192579
1575308143.744358,55699.000,9232,3,PI,1,100,192700
1575308143.784780,55733.000,9250,3,PI,1,100,192800
1575308143.825202,55767.000,9250,3,PI,1,100,192513
1575308143.865623,55801.000,9250,3,PI,1,100,189860
1575308143.903667,55833.000,9268,3,PI,1,100,187270
1575308143.941711,55865.000,9268,3,PI,1,100,186997
1575308143.979755,55897.000,9268,3,PI,1,100,188099
1575308144.020177,55931.000,9286,3,PI,1,100,189680
1575308144.060599,55965.000,9286,3,PI,1,100,190900
1575308144.101021,55999.000,9286,3,PI,1,100,191450
1575308144.142235,56033.667,9305,3,PI,1,100,191256
1575308144.183450,56068.333,9305,3,PI,1,100,190754
1575308144.224664,56103.000,9305,3,PI,1,100,190730
1575308144.265878,56137.667,9322,3,PI,1,100,191155
1575308144.307093,56172.333,9322,3,PI,1,100,191644
1575308144.348307,56207.000,9322,3,PI,1,100,191985
1575308144.387936,56240.333,9338,3,PI,1,100,192227
1575308144.427565,56273.667,9338,3,PI,1,100,192416
1575308144.467195,56307.000,9338,3,PI,1,100,192546
1575308144.505239,56339.000,9356,3,PI,1,100,191756
1575308144.543283,56371.000,9356,3,PI,1,100,188375
1575308144.581327,56403.000,9356,3,PI,1,100,186264
1575308144.620560,56436.000,9374,3,PI,1,100,186419
1575308144.659792,56469.000,9374,3,PI,1,100,187466
1575308144.699025,56502.000,9374,3,PI,1,100,188878
1575308144.740042,56536.500,9392,2,PI,1,100,190069
1575308144.781058,56571.000,9392,2,PI,1,100,190417
1575308144.825839,56608.667,9410,3,PI,1,100,189905
1575308144.870620,56646.333,9410,3,PI,1,100,189369
1575308144.915401,56684.000,9410,3,PI,1,100,189477
1575308144.954237,56716.667,9428,3,PI,1,100,190110
1575308144.993074,56749.333,9428,3,PI,1,100,190813
1575308145.031911,56782.000,9428,3,PI,1,100,191359
1575308145.073125,56816.667,9447,3,PI,1,100,191722
1575308145.114340,56851.333,9447,3,PI,1,100,191784
1575308145.155554,56886.000,9447,3,PI,1,100,189209
1575308145.196372,56920.333,9464,3,PI,1,100,185954
1575308145.237190,56954.667,9464,3,PI,1,100,185294
1575308145.278008,56989.000,9464,3,PI,1,100,185798
1575308145.315755,57020.750,9482,4,PI,1,100,186754
1575308145.353502,57052.500,9482,4,PI,1,100,187776
1575308145.391249,57084.250,9482,4,PI,1,100,188316
1575308145.428995,57116.000,9482,4,PI,1,100,188019
1575308145.468625,57149.333,9500,3,PI,1,100,187454
1575308145.508254,57182.667,9500,3,PI,1,100,187429
1575308145.547883,57216.000,9500,3,PI,1,100,187878
1575308145.588305,57250.000,9518,3,PI,1,100,188589
1575308145.628727,57284.000,9518,3,PI,1,100,189462
1575308145.669148,57318.000,9518,3,PI,1,100,190131
1575308145.709966,57352.333,9534,3,PI,1,100,190519
1575308145.750785,57386.667,9534,3,PI,1,100,189359
1575308145.791603,57421.000,9534,3,PI,1,100,185866
1575308145.832025,57455.000,9552,3,PI,1,100,184494
1575308145.872446,57489.000,9552,3,PI,1,100,184690
1575308145.912868,57523.000,9552,3,PI,1,100,185346
1575308145.950516,57554.667,9570,3,PI,1,100,186178
1575308145.988163,57586.333,9570,3,PI,1,100,186718
1575308146.025811,57618.000,9570,3,PI,1,100,186549
1575308146.064450,57650.500,9588,2,PI,1,100,186211
1575308146.103088,57683.000,9588,2,PI,1,100,186216
1575308146.147869,57720.667,9607,3,PI,1,100,186601
1575308146.192650,57758.333,9607,3,PI,1,100,187210
1575308146.237431,57796.000,9607,3,PI,1,100,187789
1575308146.279042,57831.000,9625,3,PI,1,100,188285
1575308146.320652,57866.000,9625,3,PI,1,100,188747
1575308146.362263,57901.000,9625,3,PI,1,100,189097
1575308146.403478,57935.667,9643,3,PI,1,100,189075
1575308146.444692,57970.333,9643,3,PI,1,100,186498
1575308146.485906,58005.000,9643,3,PI,1,100,184244
1575308146.523554,58036.667,9660,3,PI,1,100,183910
1575308146.561202,58068.333,9660,3,PI,1,100,184392
1575308146.598850,58100.000,9660,3,PI,1,100,185059
1575308146.637290,58132.333,9678,3,PI,1,100,185628
1575308146.675730,58164.667,9678,3,PI,1,100,185858
1575308146.714171,58197.000,9678,3,PI,1,100,185616
1575308146.754989,58231.333,9696,3,PI,1,100,185460
1575308146.795807,58265.667,9696,3,PI,1,100,185657
1575308146.836625,58300.000,9696,3,PI,1,100,186180
1575308146.875858,58333.000,9712,4,PI,1,100,186710
1575308146.915091,58366.000,9712,4,PI,1,100,187169
1575308146.954324,58399.000,9712,4,PI,1,100,187535
1575308146.993556,58432.000,9712,4,PI,1,100,187881
1575308147.034573,58466.500,9730,2,PI,1,100,188178
1575308147.075589,58501.000,9730,2,PI,1,100,188454
1575308147.116011,58535.000,9749,3,PI,1,100,188660
1575308147.156433,58569.000,9749,3,PI,1,100,188926
1575308147.196854,58603.000,9749,3,PI,1,100,189232
1575308147.236087,58636.000,9767,4,PI,1,100,189416
1575308147.275320,58669.000,9767,4,PI,1,100,186877
1575308147.314553,58702.000,9767,4,PI,1,100,184101
1575308147.353786,58735.000,9767,4,PI,1,100,183613
1575308147.393811,58768.667,9785,3,PI,1,100,183978
1575308147.433837,58802.333,9785,3,PI,1,100,184651
1575308147.473862,58836.000,9785,3,PI,1,100,185347
1575308147.516068,58871.500,9803,2,PI,1,100,185492
1575308147.558273,58907.000,9803,2,PI,1,100,185048
1575308147.600280,58942.333,9821,3,PI,1,100,184864
1575308147.642287,58977.667,9821,3,PI,1,100,185164
1575308147.684294,59013.000,9821,3,PI,1,100,185708
1575308147.721941,59044.667,9838,3,PI,1,100,186210
1575308147.759589,59076.333,9838,3,PI,1,100,186593
1575308147.797237,59108.000,9838,3,PI,1,100,186855
1575308147.838451,59142.667,9856,3,PI,1,100,187105
1575308147.879666,59177.333,9856,3,PI,1,100,187199
1575308147.920880,59212.000,9856,3,PI,1,100,187306
1575308147.962491,59247.000,9872,3,PI,1,100,187567
1575308148.004101,59282.000,9872,3,PI,1,100,187932
1575308148.045712,59317.000,9872,3,PI,1,100,188256
1575308148.086926,59351.667,9891,3,PI,1,100,188232
1575308148.128141,59386.333,9891,3,PI,1,100,185715
1575308148.169355,59421.000,9891,3,PI,1,100,183782
1575308148.205814,59451.667,9909,3,PI,1,100,183571
1575308148.242273,59482.333,9909,3,PI,1,100,184038
1575308148.278732,59513.000,9909,3,PI,1,100,184842
1575308148.317965,59546.000,9927,3,PI,1,100,185611
1575308148.357198,59579.000,9927,3,PI,1,100,185624
1575308148.396430,59612.000,9927,3,PI,1,100,185111
1575308148.436059,59645.333,9945,3,PI,1,100,184910
1575308148.475689,59678.667,9945,3,PI,1,100,185200
1575308148.515318,59712.000,9945,3,PI,1,100,185758
1575308148.556532,59746.667,9963,3,PI,1,100,186346
1575308148.597747,59781.333,9963,3,PI,1,100,186810
1575308148.638961,59816.000,9963,3,PI,1,100,187035
1575308148.679621,59850.200,9984,5,PI,1,100,187167
1575308148.720280,59884.400,9984,5,PI,1,100,187329
1575308148.760940,59918.600,9984,5,PI,1,100,187487
1575308148.801600,59952.800,9984,5,PI,1,100,187684
1575308148.842259,59987.000,9984,5,PI,1,100,187964
1575308148.884266,60022.333,10004,3,PI,1,100,188429
1575308148.926273,60057.667,10004,3,PI,1,100,188704
1575308148.968280,60093.000,10004,3,PI,1,100,186599
1575308149.003946,60123.000,10022,3,PI,1,100,183996
1575308149.039612,60153.000,10022,3,PI,1,100,183541
1575308149.075279,60183.000,10022,3,PI,1,100,184052
1575308149.113323,60215.000,10041,3,PI,1,100,185047
1575308149.151367,60247.000,10041,3,PI,1,100,185937
1575308149.189411,60279.000,10041,3,PI,1,100,186031
1575308149.228644,60312.000,10059,3,PI,1,100,185438
1575308149.267877,60345.000,10059,3,PI,1,100,185113
1575308149.307110,60378.000,10059,3,PI,1,100,185347
1575308149.348324,60412.667,10077,3,PI,1,100,185892
1575308149.389538,60447.333,10077,3,PI,1,100,186465
1575308149.430753,60482.000,10077,3,PI,1,100,186972
1575308149.472363,60517.000,10095,3,PI,1,100,187315
1575308149.513974,60552.000,10095,3,PI,1,100,187684
1575308149.555585,60587.000,10095,3,PI,1,100,187915
1575308149.595214,60620.333,10112,3,PI,1,100,187977
1575308149.634843,60653.667,10112,3,PI,1,100,188120
1575308149.674472,60687.000,10112,3,PI,1,100,188534
1575308149.712516,60719.000,10130,3,PI,1,100,189037
1575308149.750560,60751.000,10130,3,PI,1,100,189407
1575308149.788604,60783.000,10130,3,PI,1,100,187755
1575308149.827837,60816.000,10148,3,PI,1,100,184639
1575308149.867070,60849.000,10148,3,PI,1,100,183845
1575308149.906303,60882.000,10148,3,PI,1,100,184315
1575308149.947121,60916.333,10164,3,PI,1,100,185329
1575308149.987939,60950.667,10164,3,PI,1,100,186410
1575308150.028757,60985.000,10164,3,PI,1,100,186889
1575308150.069972,61019.667,10183,3,PI,1,100,186486
1575308150.111186,61054.333,10183,3,PI,1,100,185896
1575308150.152400,61089.000,10183,3,PI,1,100,185923
1575308150.195993,61125.667,10201,3,PI,1,100,186427
1575308150.239585,61162.333,10201,3,PI,1,100,187062
1575308150.283177,61199.000,10201,3,PI,1,100,187761
1575308150.321221,61231.000,10219,3,PI,1,100,188320
1575308150.359265,61263.000,10219,3,PI,1,100,188749
1575308150.397309,61295.000,10219,3,PI,1,100,189075
1575308150.436938,61328.333,10237,3,PI,1,100,189301
1575308150.476568,61361.667,10237,3,PI,1,100,189482
1575308150.516197,61395.000,10237,3,PI,1,100,189761
1575308150.557411,61429.667,10255,3,PI,1,100,190159
1575308150.598625,61464.333,10255,3,PI,1,100,190179
1575308150.639840,61499.000,10255,3,PI,1,100,187668
1575308150.681450,61534.000,10273,3,PI,1,100,184872
1575308150.723061,61569.000,10273,3,PI,1,100,184471
1575308150.764672,61604.000,10273,3,PI,1,100,185300
1575308150.805490,61638.333,10290,3,PI,1,100,186487
1575308150.846308,61672.667,10290,3,PI,1,100,187623
1575308150.887126,61707.000,10290,3,PI,1,100,188143
1575308150.922396,61736.667,10308,3,PI,1,100,187705
1575308150.957666,61766.333,10308,3,PI,1,100,186997
1575308150.992936,61796.000,10308,3,PI,1,100,186915
1575308151.031376,61828.333,10326,3,PI,1,100,187426
1575308151.069817,61860.667,10326,3,PI,1,100,188094
1575308151.108257,61893.000,10326,3,PI,1,100,188758
1575308151.149868,61928.000,10343,3,PI,1,100,189455
1575308151.191478,61963.000,10343,3,PI,1,100,189938
1575308151.233089,61998.000,10343,3,PI,1,100,190275
1575308151.277077,62035.000,10361,3,PI,1,100,190478
1575308151.321066,62072.000,10361,3,PI,1,100,190703
1575308151.365054,62109.000,10361,3,PI,1,100,190654
1575308151.406269,62143.667,10379,3,PI,1,100,188462
1575308151.447483,62178.333,10379,3,PI,1,100,185419
1575308151.488697,62213.000,10379,3,PI,1,100,184771
1575308151.525553,62244.000,10397,3,PI,1,100,185475
1575308151.562408,62275.000,10397,3,PI,1,100,186632
1575308151.599263,62306.000,10397,3,PI,1,100,187891
1575308151.637703,62338.333,10415,3,PI,1,100,188621
1575308151.676143,62370.667,10415,3,PI,1,100,188476
1575308151.714584,62403.000,10415,3,PI,1,100,187788
1575308151.751736,62434.250,10433,4,PI,1,100,187563
1575308151.788889,62465.500,10433,4,PI,1,100,188087
1575308151.826041,62496.750,10433,4,PI,1,100,188721
1575308151.863193,62528.000,10433,4,PI,1,100,189404
1575308151.904210,62562.500,10451,2,PI,1,100,189956
1575308151.945226,62597.000,10451,2,PI,1,100,190397
1575308151.990007,62634.667,10469,3,PI,1,100,190700
1575308152.034788,62672.333,10469,3,PI,1,100,190904
1575308152.079569,62710.000,10469,3,PI,1,100,190975
1575308152.118009,62742.333,10487,3,PI,1,100,189647
1575308152.156450,62774.667,10487,3,PI,1,100,186164
1575308152.194890,62807.000,10487,3,PI,1,100,184706
1575308152.235708,62841.333,10505,3,PI,1,100,184936
1575308152.276526,62875.667,10505,3,PI,1,100,185931
1575308152.317344,62910.000,10505,3,PI,1,100,187153
1575308152.358558,62944.667,10521,3,PI,1,100,188122
1575308152.399773,62979.333,10521,3,PI,1,100,188174
1575308152.440987,63014.000,10521,3,PI,1,100,187457
1575308152.482202,63048.667,10539,3,PI,1,100,186989
1575308152.523416,63083.333,10539,3,PI,1,100,187345
1575308152.564630,63118.000,10539,3,PI,1,100,188076
1575308152.602278,63149.667,10557,3,PI,1,100,188820
1575308152.639926,63181.333,10557,3,PI,1,100,189513
1575308152.677573,63213.000,10557,3,PI,1,100,190025
1575308152.717599,63246.667,10575,3,PI,1,100,190374
1575308152.757625,63280.333,10575,3,PI,1,100,190652
1575308152.797650,63314.000,10575,3,PI,1,100,190832
1575308152.837676,63347.667,10593,3,PI,1,100,189623
1575308152.877701,63381.333,10593,3,PI,1,100,185959
1575308152.917727,63415.000,10593,3,PI,1,100,184274
1575308152.959337,63450.000,10611,3,PI,1,100,184490
1575308153.000948,63485.000,10611,3,PI,1,100,185386
1575308153.042558,63520.000,10611,3,PI,1,100,186392
1575308153.087736,63558.000,10629,3,PI,1,100,187199
1575308153.132913,63596.000,10629,3,PI,1,100,187200
1575308153.178090,63634.000,10629,3,PI,1,100,186602
1575308153.216531,63666.333,10647,3,PI,1,100,186319
1575308153.254971,63698.667,10647,3,PI,1,100,186670
1575308153.293411,63731.000,10647,3,PI,1,100,187360
1575308153.333833,63765.000,10663,3,PI,1,100,188145
1575308153.374255,63799.000,10663,3,PI,1,100,188867
1575308153.414677,63833.000,10663,3,PI,1,100,189434
1575308153.452324,63864.667,10681,3,PI,1,100,189832
1575308153.489972,63896.333,10681,3,PI,1,100,190046
1575308153.527620,63928.000,10681,3,PI,1,100,188468
1575308153.566853,63961.000,10699,3,PI,1,100,185059
1575308153.606086,63994.000,10699,3,PI,1,100,183960
1575308153.645319,64027.000,10699,3,PI,1,100,184265
1575308153.686137,64061.333,10717,3,PI,1,100,185108
1575308153.726955,64095.667,10717,3,PI,1,100,185990
1575308153.767773,64130.000,10717,3,PI,1,100,186545
1575308153.808591,64164.333,10735,3,PI,1,100,186423
1575308153.849409,64198.667,10735,3,PI,1,100,185975
1575308153.890227,64233.000,10735,3,PI,1,100,185878
1575308153.931045,64267.333,10753,3,PI,1,100,186291
1575308153.971864,64301.667,10753,3,PI,1,100,186995
1575308154.012681,64336.000,10753,3,PI,1,100,187804
1575308154.050329,64367.667,10771,3,PI,1,100,188409
1575308154.087977,64399.333,10771,3,PI,1,100,188863
1575308154.125625,64431.000,10771,3,PI,1,100,189214
1575308154.164461,64463.667,10790,3,PI,1,100,189524
1575308154.203298,64496.333,10790,3,PI,1,100,189369
1575308154.242135,64529.000,10790,3,PI,1,100,186681
1575308154.283349,64563.667,10807,3,PI,1,100,184152
1575308154.324563,64598.333,10807,3,PI,1,100,183884
1575308154.365778,64633.000,10807,3,PI,1,100,184484
1575308154.406596,64667.333,10825,3,PI,1,100,185274
1575308154.447414,64701.667,10825,3,PI,1,100,186024
1575308154.488232,64736.000,10825,3,PI,1,100,186253
1575308154.533806,64774.333,10843,3,PI,1,100,185841
1575308154.579379,64812.667,10843,3,PI,1,100,185595
1575308154.624953,64851.000,10843,3,PI,1,100,185824
1575308154.662601,64882.667,10859,3,PI,1,100,186431
1575308154.700248,64914.333,10859,3,PI,1,100,187124
1575308154.737896,64946.000,10859,3,PI,1,100,187720
1575308154.777129,64979.000,10880,4,PI,1,100,188161
1575308154.816362,65012.000,10880,4,PI,1,100,188500
1575308154.855595,65045.000,10880,4,PI,1,100,188778
1575308154.894828,65078.000,10880,4,PI,1,100,189002
1575308154.933763,65110.750,10900,4,PI,1,100,189321
1575308154.972699,65143.500,10900,4,PI,1,100,189647
1575308155.011635,65176.250,10900,4,PI,1,100,190007
1575308155.050570,65209.000,10900,4,PI,1,100,189970
1575308155.092181,65244.000,10917,2,PI,1,100,187269
1575308155.133792,65279.000,10917,2,PI,1,100,184354
1575308155.173025,65312.000,10936,4,PI,1,100,183950
1575308155.212258,65345.000,10936,4,PI,1,100,184552
1575308155.251490,65378.000,10936,4,PI,1,100,185399
1575308155.290723,65411.000,10936,4,PI,1,100,186153
1575308155.329164,65443.333,10952,3,PI,1,100,186203
1575308155.367604,65475.667,10952,3,PI,1,100,185706
1575308155.406044,65508.000,10952,3,PI,1,100,185476
1575308155.445277,65541.000,10970,3,PI,1,100,185682
1575308155.484510,65574.000,10970,3,PI,1,100,186275
1575308155.523743,65607.000,10970,3,PI,1,100,187026
1575308155.565354,65642.000,10988,3,PI,1,100,187747
1575308155.606964,65677.000,10988,3,PI,1,100,188269
1575308155.648575,65712.000,10988,3,PI,1,100,188527
1575308155.693752,65750.000,11006,2,PI,1,100,188639
1575308155.738930,65788.000,11006,2,PI,1,100,188670
1575308155.780937,65823.333,11024,3,PI,1,100,188744
1575308155.822944,65858.667,11024,3,PI,1,100,189069
1575308155.864951,65894.000,11024,3,PI,1,100,189518
1575308155.901806,65925.000,11042,4,PI,1,100,189730
1575308155.938661,65956.000,11042,4,PI,1,100,187406
1575308155.975516,65987.000,11042,4,PI,1,100,184487
1575308156.012371,66018.000,11042,4,PI,1,100,184109
1575308156.051604,66051.000,11060,2,PI,1,100,184647
1575308156.090837,66084.000,11060,2,PI,1,100,185518
1575308156.130664,66117.500,11079,4,PI,1,100,186314
1575308156.170492,66151.000,11079,4,PI,1,100,186440
1575308156.210319,66184.500,11079,4,PI,1,100,185980
1575308156.250146,66218.000,11079,4,PI,1,100,185799
1575308156.288191,66250.000,11096,3,PI,1,100,186066
1575308156.326235,66282.000,11096,3,PI,1,100,186653
1575308156.364279,66314.000,11096,3,PI,1,100,187245
1575308156.401926,66345.667,11114,3,PI,1,100,187755
1575308156.439574,66377.333,11114,3,PI,1,100,188226
1575308156.477222,66409.000,11114,3,PI,1,100,188563
1575308156.517644,66443.000,11132,3,PI,1,100,188802
1575308156.558065,66477.000,11132,3,PI,1,100,189030
1575308156.598487,66511.000,11132,3,PI,1,100,189342
1575308156.639702,66545.667,11148,3,PI,1,100,189744
1575308156.680916,66580.333,11148,3,PI,1,100,189913
1575308156.722130,66615.000,11148,3,PI,1,100,188296
1575308156.764137,66650.333,11166,3,PI,1,100,185238
1575308156.806144,66685.667,11166,3,PI,1,100,184274
1575308156.848151,66721.000,11166,3,PI,1,100,184778
1575308156.887780,66754.333,11184,3,PI,1,100,185820
1575308156.927410,66787.667,11184,3,PI,1,100,186855
1575308156.967039,66821.000,11184,3,PI,1,100,187210
1575308157.004687,66852.667,11202,3,PI,1,100,186685
1575308157.042334,66884.333,11202,3,PI,1,100,186183
1575308157.079982,66916.000,11202,3,PI,1,100,186333
1575308157.120008,66949.667,11221,3,PI,1,100,186947
1575308157.160033,66983.333,11221,3,PI,1,100,187698
1575308157.200058,67017.000,11221,3,PI,1,100,188445
1575308157.240084,67050.667,11239,3,PI,1,100,189013
1575308157.280109,67084.333,11239,3,PI,1,100,189382
1575308157.320135,67118.000,11239,3,PI,1,100,189649
1575308157.360953,67152.333,11257,3,PI,1,100,189866
1575308157.401771,67186.667,11257,3,PI,1,100,190134
1575308157.442589,67221.000,11257,3,PI,1,100,190457
1575308157.486578,67258.000,11274,3,PI,1,100,190483
1575308157.530566,67295.000,11274,3,PI,1,100,188304
1575308157.574554,67332.000,11274,3,PI,1,100,185287
1575308157.612202,67363.667,11292,3,PI,1,100,184664
1575308157.649850,67395.333,11292,3,PI,1,100,185322
1575308157.687498,67427.000,11292,3,PI,1,100,186442
1575308157.726731,67460.000,11310,3,PI,1,100,187527
1575308157.765964,67493.000,11310,3,PI,1,100,187928
1575308157.805197,67526.000,11310,3,PI,1,100,187471
1575308157.845618,67560.000,11326,3,PI,1,100,186836
1575308157.886040,67594.000,11326,3,PI,1,100,186881
1575308157.926462,67628.000,11326,3,PI,1,100,187493
1575308157.967280,67662.333,11344,3,PI,1,100,188301
1575308158.008098,67696.667,11344,3,PI,1,100,188984
1575308158.048916,67731.000,11344,3,PI,1,100,189485
1575308158.089734,67765.333,11363,3,PI,1,100,189881
1575308158.130552,67799.667,11363,3,PI,1,100,190128
1575308158.171370,67834.000,11363,3,PI,1,100,190319
1575308158.208622,67865.333,11381,3,PI,1,100,190566
1575308158.245873,67896.667,11381,3,PI,1,100,190603
1575308158.283125,67928.000,11381,3,PI,1,100,188665
1575308158.322358,67961.000,11399,3,PI,1,100,185692
1575308158.361591,67994.000,11399,3,PI,1,100,184978
1575308158.400823,68027.000,11399,3,PI,1,100,185679
1575308158.441642,68061.333,11417,3,PI,1,100,186863
1575308158.482460,68095.667,11417,3,PI,1,100,188114
1575308158.523278,68130.000,11417,3,PI,1,100,188687
1575308158.564492,68164.667,11435,3,PI,1,100,188324
1575308158.605706,68199.333,11435,3,PI,1,100,187623
1575308158.646921,68234.000,11435,3,PI,1,100,187560
1575308158.688928,68269.333,11452,3,PI,1,100,188296
1575308158.730935,68304.667,11452,3,PI,1,100,189420
1575308158.772942,68340.000,11452,3,PI,1,100,190265
1575308158.810193,68371.333,11470,3,PI,1,100,190727
1575308158.847445,68402.667,11470,3,PI,1,100,191044
1575308158.884696,68434.000,11470,3,PI,1,100,191264
1575308158.923136,68466.333,11488,3,PI,1,100,191380
1575308158.961577,68498.667,11488,3,PI,1,100,190994
1575308159.000017,68531.000,11488,3,PI,1,100,188398
1575308159.040439,68565.000,11504,3,PI,1,100,185909
1575308159.080861,68599.000,11504,3,PI,1,100,185800
1575308159.121282,68633.000,11504,3,PI,1,100,186868
1575308159.162497,68667.667,11523,3,PI,1,100,188295
1575308159.203711,68702.333,11523,3,PI,1,100,189472
1575308159.244925,68737.000,11523,3,PI,1,100,189996
1575308159.287329,68772.667,11541,3,PI,1,100,189726
1575308159.329732,68808.333,11541,3,PI,1,100,189487
1575308159.372135,68844.000,11541,3,PI,1,100,189863
1575308159.409387,68875.333,11559,3,PI,1,100,190556
1575308159.446638,68906.667,11559,3,PI,1,100,191099
1575308159.483890,68938.000,11559,3,PI,1,100,191524
1575308159.521537,68969.667,11577,3,PI,1,100,191781
1575308159.559185,69001.333,11577,3,PI,1,100,192023
1575308159.596833,69033.000,11577,3,PI,1,100,192194
1575308159.638840,69068.333,11595,3,PI,1,100,192194
1575308159.680847,69103.667,11595,3,PI,1,100,190072
1575308159.722854,69139.000,11595,3,PI,1,100,187180
1575308159.760105,69170.333,11613,3,PI,1,100,186471
1575308159.797357,69201.667,11613,3,PI,1,100,187504
1575308159.834608,69233.000,11613,3,PI,1,100,189001
1575308159.880182,69271.333,11630,3,PI,1,100,190205
1575308159.925755,69309.667,11630,3,PI,1,100,190693
1575308159.971329,69348.000,11630,3,PI,1,100,190371
1575308160.007391,69378.333,11648,3,PI,1,100,190054
1575308160.043454,69408.667,11648,3,PI,1,100,190249
1575308160.079517,69439.000,11648,3,PI,1,100,190843
1575308160.121127,69474.000,11667,3,PI,1,100,191356
1575308160.162738,69509.000,11667,3,PI,1,100,191716
1575308160.204349,69544.000,11667,3,PI,1,100,191927
1575308160.250715,69583.000,11683,2,PI,1,100,192104
1575308160.297081,69622.000,11683,2,PI,1,100,192200
1575308160.336314,69655.000,11701,4,PI,1,100,190507
1575308160.375547,69688.000,11701,4,PI,1,100,186880
1575308160.414780,69721.000,11701,4,PI,1,100,185584
1575308160.454013,69754.000,11701,4,PI,1,100,186215
1575308160.495227,69788.667,11719,3,PI,1,100,187262
1575308160.536441,69823.333,11719,3,PI,1,100,188365
1575308160.577656,69858.000,11719,3,PI,1,100,189240
1575308160.617681,69891.667,11737,3,PI,1,100,189242
1575308160.657707,69925.333,11737,3,PI,1,100,188833
1575308160.697732,69959.000,11737,3,PI,1,100,188784
1575308160.735380,69990.667,11755,3,PI,1,100,189245
1575308160.773028,70022.333,11755,3,PI,1,100,189896
1575308160.810675,70054.000,11755,3,PI,1,100,190564
1575308160.850503,70087.500,11776,4,PI,1,100,191087
1575308160.890330,70121.000,11776,4,PI,1,100,191378
1575308160.930158,70154.500,11776,4,PI,1,100,191446
1575308160.969985,70188.000,11776,4,PI,1,100,189164
1575308161.010803,70222.333,11796,3,PI,1,100,185745
1575308161.051621,70256.667,11796,3,PI,1,100,184902
1575308161.092439,70291.000,11796,3,PI,1,100,185365
1575308161.134050,70326.000,11815,3,PI,1,100,186119
1575308161.175660,70361.000,11815,3,PI,1,100,186921
1575308161.217271,70396.000,11815,3,PI,1,100,187449
1575308161.256900,70429.333,11833,3,PI,1,100,187282
1575308161.296530,70462.667,11833,3,PI,1,100,186804
1575308161.336159,70496.000,11833,3,PI,1,100,186934
1575308161.374599,70528.333,11851,3,PI,1,100,187673
1575308161.413039,70560.667,11851,3,PI,1,100,188592
1575308161.451480,70593.000,11851,3,PI,1,100,189331
1575308161.495072,70629.667,11869,3,PI,1,100,189783
1575308161.538664,70666.333,11869,3,PI,1,100,190193
1575308161.582256,70703.000,11869,3,PI,1,100,190591
1575308161.623074,70737.333,11887,3,PI,1,100,190853
1575308161.663892,70771.667,11887,3,PI,1,100,189586
1575308161.704710,70806.000,11887,3,PI,1,100,185812
1575308161.745528,70840.333,11904,3,PI,1,100,184150
1575308161.786346,70874.667,11904,3,PI,1,100,184399
1575308161.827165,70909.000,11904,3,PI,1,100,184988
1575308161.867190,70942.667,11922,3,PI,1,100,185326
1575308161.907216,70976.333,11922,3,PI,1,100,185829
1575308161.947241,71010.000,11922,3,PI,1,100,186012
1575308161.984889,71041.667,11938,3,PI,1,100,185858
1575308162.022537,71073.333,11938,3,PI,1,100,185813
1575308162.060184,71105.000,11938,3,PI,1,100,186148
1575308162.099813,71138.333,11957,3,PI,1,100,186748
1575308162.139443,71171.667,11957,3,PI,1,100,187447
1575308162.179072,71205.000,11957,3,PI,1,100,188029
1575308162.219890,71239.333,11975,3,PI,1,100,188429
1575308162.260708,71273.667,11975,3,PI,1,100,188746
1575308162.301526,71308.000,11975,3,PI,1,100,189007
1575308162.342344,71342.333,11993,3,PI,1,100,189381
1575308162.383162,71376.667,11993,3,PI,1,100,189752
1575308162.423980,71411.000,11993,3,PI,1,100,190078
1575308162.465195,71445.667,12011,3,PI,1,100,190381
1575308162.506409,71480.333,12011,3,PI,1,100,190715
1575308162.547624,71515.000,12011,3,PI,1,100,190999
1575308162.585271,71546.667,12029,3,PI,1,100,189593
1575308162.622919,71578.333,12029,3,PI,1,100,185466
1575308162.660567,71610.000,12029,3,PI,1,100,183825
1575308162.700196,71643.333,12047,3,PI,1,100,184038
1575308162.739825,71676.667,12047,3,PI,1,100,184637
1575308162.779454,71710.000,12047,3,PI,1,100,185042
1575308162.820272,71744.333,12065,3,PI,1,100,185463
1575308162.861091,71778.667,12065,3,PI,1,100,185635
1575308162.901909,71813.000,12065,3,PI,1,100,185572
1575308162.942727,71847.333,12082,3,PI,1,100,185532
1575308162.983545,71881.667,12082,3,PI,1,100,185869
1575308163.024363,71916.000,12082,3,PI,1,100,186450
1575308163.066370,71951.333,12100,3,PI,1,100,187108
1575308163.108377,71986.667,12100,3,PI,1,100,187572
1575308163.150384,72022.000,12100,3,PI,1,100,187990
1575308163.187239,72053.000,12117,3,PI,1,100,188311
1575308163.224094,72084.000,12117,3,PI,1,100,188611
1575308163.260949,72115.000,12117,3,PI,1,100,189009
1575308163.300182,72148.000,12135,3,PI,1,100,189410
1575308163.339415,72181.000,12135,3,PI,1,100,189794
1575308163.378648,72214.000,12135,3,PI,1,100,190207
1575308163.418277,72247.333,12153,3,PI,1,100,190479
1575308163.457906,72280.667,12153,3,PI,1,100,188697
1575308163.497536,72314.000,12153,3,PI,1,100,185031
1575308163.538750,72348.667,12171,3,PI,1,100,183921
1575308163.579964,72383.333,12171,3,PI,1,100,184252
1575308163.621179,72418.000,12171,3,PI,1,100,184878
1575308163.663978,72454.000,12189,3,PI,1,100,185571
1575308163.706778,72490.000,12189,3,PI,1,100,186066
1575308163.749578,72526.000,12189,3,PI,1,100,185949
1575308163.789999,72560.000,12207,3,PI,1,100,185769
1575308163.830421,72594.000,12207,3,PI,1,100,185975
1575308163.870843,72628.000,12207,3,PI,1,100,186393
1575308163.912850,72663.333,12225,3,PI,1,100,187076
1575308163.954857,72698.667,12225,3,PI,1,100,187814
1575308163.996864,72734.000,12225,3,PI,1,100,188516
1575308164.035304,72766.333,12242,3,PI,1,100,189019
1575308164.073744,72798.667,12242,3,PI,1,100,189380
1575308164.112185,72831.000,12242,3,PI,1,100,189596
1575308164.154588,72866.667,12261,3,PI,1,100,189853
1575308164.196991,72902.333,12261,3,PI,1,100,190183
1575308164.239394,72938.000,12261,3,PI,1,100,190413
1575308164.280609,72972.667,12277,3,PI,1,100,190754
1575308164.321823,73007.333,12277,3,PI,1,100,190953
1575308164.363038,73042.000,12277,3,PI,1,100,189611
1575308164.401478,73074.333,12295,3,PI,1,100,186095
1575308164.439918,73106.667,12295,3,PI,1,100,184574
1575308164.478359,73139.000,12295,3,PI,1,100,184865
1575308164.516799,73171.333,12313,3,PI,1,100,185822
1575308164.555239,73203.667,12313,3,PI,1,100,186927
1575308164.593679,73236.000,12313,3,PI,1,100,187742
1575308164.632516,73268.667,12331,3,PI,1,100,187710
1575308164.671353,73301.333,12331,3,PI,1,100,187070
1575308164.710189,73334.000,12331,3,PI,1,100,186842
1575308164.751404,73368.667,12349,3,PI,1,100,187430
1575308164.792618,73403.333,12349,3,PI,1,100,188269
1575308164.833833,73438.000,12349,3,PI,1,100,189021
1575308164.875047,73472.667,12367,3,PI,1,100,189590
1575308164.916261,73507.333,12367,3,PI,1,100,190015
1575308164.957476,73542.000,12367,3,PI,1,100,190324
1575308164.997897,73576.000,12385,3,PI,1,100,190552
1575308165.038319,73610.000,12385,3,PI,1,100,190724
1575308165.078741,73644.000,12385,3,PI,1,100,190868
1575308165.117181,73676.333,12403,3,PI,1,100,191062
1575308165.155622,73708.667,12403,3,PI,1,100,191257
1575308165.194062,73741.000,12403,3,PI,1,100,189930
1575308165.236465,73776.667,12421,3,PI,1,100,186888
1575308165.278868,73812.333,12421,3,PI,1,100,185452
1575308165.321272,73848.000,12421,3,PI,1,100,186007
1575308165.361694,73882.000,12439,3,PI,1,100,187274
1575308165.402115,73916.000,12439,3,PI,1,100,188631
1575308165.442537,73950.000,12439,3,PI,1,100,189443
1575308165.484148,73985.000,12455,3,PI,1,100,189332
1575308165.525759,74020.000,12455,3,PI,1,100,188738
1575308165.567369,74055.000,12455,3,PI,1,100,188683
1575308165.607791,74089.000,12473,3,PI,1,100,189182
1575308165.648213,74123.000,12473,3,PI,1,100,189757
1575308165.688634,74157.000,12473,3,PI,1,100,190337
1575308165.726282,74188.667,12491,3,PI,1,100,190818
1575308165.763930,74220.333,12491,3,PI,1,100,191058
1575308165.801578,74252.000,12491,3,PI,1,100,191228
1575308165.840018,74284.333,12509,3,PI,1,100,191340
1575308165.878458,74316.667,12509,3,PI,1,100,191507
1575308165.916899,74349.000,12509,3,PI,1,100,191209
1575308165.956924,74382.667,12527,3,PI,1,100,188500
1575308165.996950,74416.333,12527,3,PI,1,100,185856
1575308166.036975,74450.000,12527,3,PI,1,100,185548
1575308166.078586,74485.000,12545,3,PI,1,100,186514
1575308166.120197,74520.000,12545,3,PI,1,100,187893
1575308166.161807,74555.000,12545,3,PI,1,100,189080
1575308166.203418,74590.000,12564,3,PI,1,100,189624
1575308166.245028,74625.000,12564,3,PI,1,100,189324
1575308166.286639,74660.000,12564,3,PI,1,100,188827
1575308166.324683,74692.000,12581,3,PI,1,100,188904
1575308166.362727,74724.000,12581,3,PI,1,100,189528
1575308166.400771,74756.000,12581,3,PI,1,100,190170
1575308166.439212,74788.333,12599,3,PI,1,100,190617
1575308166.477652,74820.667,12599,3,PI,1,100,191012
1575308166.516092,74853.000,12599,3,PI,1,100,191292
1575308166.556514,74887.000,12617,3,PI,1,100,191449
1575308166.596936,74921.000,12617,3,PI,1,100,191513
1575308166.637358,74955.000,12617,3,PI,1,100,191685
1575308166.679365,74990.333,12633,3,PI,1,100,191715
1575308166.721372,75025.667,12633,3,PI,1,100,189531
1575308166.763379,75061.000,12633,3,PI,1,100,186041
1575308166.804593,75095.667,12651,3,PI,1,100,185158
1575308166.845807,75130.333,12651,3,PI,1,100,185819
1575308166.887022,75165.000,12651,3,PI,1,100,186990
1575308166.924352,75196.400,12672,5,PI,1,100,188159
1575308166.961683,75227.800,12672,5,PI,1,100,188948
1575308166.999014,75259.200,12672,5,PI,1,100,188965
1575308167.036345,75290.600,12672,5,PI,1,100,188384
1575308167.073675,75322.000,12672,5,PI,1,100,187977
1575308167.113701,75355.667,12693,3,PI,1,100,188314
1575308167.153726,75389.333,12693,3,PI,1,100,189181
1575308167.193752,75423.000,12693,3,PI,1,100,190093
1575308167.234570,75457.333,12711,3,PI,1,100,190691
1575308167.275388,75491.667,12711,3,PI,1,100,191020
1575308167.316206,75526.000,12711,3,PI,1,100,191203
1575308167.357024,75560.333,12727,3,PI,1,100,191317
1575308167.397842,75594.667,12727,3,PI,1,100,191448
1575308167.438660,75629.000,12727,3,PI,1,100,191451
1575308167.481460,75665.000,12745,2,PI,1,100,188849
1575308167.524259,75701.000,12745,2,PI,1,100,185655
1575308167.562601,75733.250,12763,4,PI,1,100,185169
1575308167.600942,75765.500,12763,4,PI,1,100,186054
1575308167.639283,75797.750,12763,4,PI,1,100,187227
1575308167.677624,75830.000,12763,4,PI,1,100,188310
1575308167.718046,75864.000,12781,3,PI,1,100,188887
1575308167.758468,75898.000,12781,3,PI,1,100,188632
1575308167.798890,75932.000,12781,3,PI,1,100,188026
1575308167.836934,75964.000,12799,3,PI,1,100,188005
1575308167.874978,75996.000,12799,3,PI,1,100,188712
1575308167.913022,76028.000,12799,3,PI,1,100,189536
1575308167.950670,76059.667,12817,3,PI,1,100,190152
1575308167.988317,76091.333,12817,3,PI,1,100,190585
1575308168.025965,76123.000,12817,3,PI,1,100,190902
1575308168.067576,76158.000,12835,3,PI,1,100,191186
1575308168.109186,76193.000,12835,3,PI,1,100,191254
1575308168.150797,76228.000,12835,3,PI,1,100,191369
1575308168.186860,76258.333,12854,3,PI,1,100,190325
1575308168.222922,76288.667,12854,3,PI,1,100,186967
1575308168.258985,76319.000,12854,3,PI,1,100,185364
1575308168.299010,76352.667,12872,3,PI,1,100,185866
1575308168.339036,76386.333,12872,3,PI,1,100,187090
1575308168.379061,76420.000,12872,3,PI,1,100,188372
1575308168.419483,76454.000,12889,3,PI,1,100,189169
1575308168.459905,76488.000,12889,3,PI,1,100,189294
1575308168.500327,76522.000,12889,3,PI,1,100,188849
1575308168.541541,76556.667,12907,3,PI,1,100,188584
1575308168.582755,76591.333,12907,3,PI,1,100,189010
1575308168.623970,76626.000,12907,3,PI,1,100,189752
1575308168.665977,76661.333,12923,3,PI,1,100,190386
1575308168.707984,76696.667,12923,3,PI,1,100,190797
1575308168.749991,76732.000,12923,3,PI,1,100,191098
1575308168.788035,76764.000,12941,3,PI,1,100,191304
1575308168.826079,76796.000,12941,3,PI,1,100,191161
1575308168.864123,76828.000,12941,3,PI,1,100,188512
1575308168.906922,76864.000,12959,3,PI,1,100,185591
1575308168.949722,76900.000,12959,3,PI,1,100,185232
1575308168.992521,76936.000,12959,3,PI,1,100,186350
1575308169.027791,76965.667,12977,3,PI,1,100,187613
1575308169.063061,76995.333,12977,3,PI,1,100,188729
1575308169.098331,77025.000,12977,3,PI,1,100,189276
1575308169.137564,77058.000,12996,3,PI,1,100,188998
1575308169.176797,77091.000,12996,3,PI,1,100,188613
1575308169.216030,77124.000,12996,3,PI,1,100,188676
1575308169.256056,77157.667,13014,3,PI,1,100,189188
1575308169.296081,77191.333,13014,3,PI,1,100,189890
1575308169.336107,77225.000,13014,3,PI,1,100,190460
1575308169.377321,77259.667,13032,3,PI,1,100,190875
1575308169.418535,77294.333,13032,3,PI,1,100,191187
1575308169.459750,77329.000,13032,3,PI,1,100,191402
1575308169.501757,77364.333,13049,3,PI,1,100,190769
1575308169.543764,77399.667,13049,3,PI,1,100,187456
1575308169.585771,77435.000,13049,3,PI,1,100,185325
1575308169.623418,77466.667,13067,3,PI,1,100,185634
1575308169.661066,77498.333,13067,3,PI,1,100,186680
1575308169.698714,77530.000,13067,3,PI,1,100,187887
1575308169.737154,77562.333,13085,3,PI,1,100,189001
1575308169.775594,77594.667,13085,3,PI,1,100,189397
1575308169.814035,77627.000,13085,3,PI,1,100,188963
1575308169.853268,77660.000,13103,3,PI,1,100,188469
1575308169.892501,77693.000,13103,3,PI,1,100,188640
1575308169.931734,77726.000,13103,3,PI,1,100,189347
1575308169.972948,77760.667,13119,3,PI,1,100,190094
1575308170.014162,77795.333,13119,3,PI,1,100,190621
1575308170.055377,77830.000,13119,3,PI,1,100,190953
1575308170.096987,77865.000,13138,3,PI,1,100,191216
1575308170.138598,77900.000,13138,3,PI,1,100,191462
1575308170.180209,77935.000,13138,3,PI,1,100,191048
1575308170.221819,77970.000,13156,3,PI,1,100,188142
1575308170.263430,78005.000,13156,3,PI,1,100,185777
1575308170.305041,78040.000,13156,3,PI,1,100,185836
1575308170.342688,78071.667,13174,3,PI,1,100,186976
1575308170.380336,78103.333,13174,3,PI,1,100,188411
1575308170.417984,78135.000,13174,3,PI,1,100,189523
1575308170.458406,78169.000,13192,3,PI,1,100,189936
1575308170.498827,78203.000,13192,3,PI,1,100,189697
1575308170.539249,78237.000,13192,3,PI,1,100,189456
1575308170.580464,78271.667,13210,3,PI,1,100,189597
1575308170.621678,78306.333,13210,3,PI,1,100,190098
1575308170.662892,78341.000,13210,3,PI,1,100,190758
1575308170.704899,78376.333,13228,3,PI,1,100,191173
1575308170.746906,78411.667,13228,3,PI,1,100,191420
1575308170.788913,78447.000,13228,3,PI,1,100,191639
1575308170.827750,78479.667,13245,3,PI,1,100,191470
1575308170.866586,78512.333,13245,3,PI,1,100,188923
1575308170.905423,78545.000,13245,3,PI,1,100,186229
1575308170.943467,78577.000,13263,3,PI,1,100,186028
1575308170.981511,78609.000,13263,3,PI,1,100,187108
1575308171.019555,78641.000,13263,3,PI,1,100,188559
1575308171.057203,78672.667,13281,3,PI,1,100,189765
1575308171.094851,78704.333,13281,3,PI,1,100,190307
1575308171.132499,78736.000,13281,3,PI,1,100,190036
1575308171.176487,78773.000,13298,3,PI,1,100,189736
1575308171.220475,78810.000,13298,3,PI,1,100,189901
1575308171.264464,78847.000,13298,3,PI,1,100,190492
1575308171.305678,78881.667,13316,3,PI,1,100,191025
1575308171.346893,78916.333,13316,3,PI,1,100,191390
1575308171.388107,78951.000,13316,3,PI,1,100,191603
1575308171.427340,78984.000,13334,3,PI,1,100,191803
1575308171.466573,79017.000,13334,3,PI,1,100,191526
1575308171.505806,79050.000,13334,3,PI,1,100,188488
1575308171.543057,79081.333,13352,3,PI,1,100,185669
1575308171.580308,79112.667,13352,3,PI,1,100,185596
1575308171.617560,79144.000,13352,3,PI,1,100,186744
1575308171.656793,79177.000,13370,3,PI,1,100,188163
1575308171.696026,79210.000,13370,3,PI,1,100,189368
1575308171.735259,79243.000,13370,3,PI,1,100,189777
1575308171.777662,79278.667,13388,3,PI,1,100,189435
1575308171.820065,79314.333,13388,3,PI,1,100,189156
1575308171.862468,79350.000,13388,3,PI,1,100,189500
1575308171.903683,79384.667,13406,3,PI,1,100,190216
1575308171.944897,79419.333,13406,3,PI,1,100,190797
1575308171.986112,79454.000,13406,3,PI,1,100,191270
1575308172.024156,79486.000,13423,3,PI,1,100,191607
1575308172.062200,79518.000,13423,3,PI,1,100,191818
1575308172.100244,79550.000,13423,3,PI,1,100,191838
1575308172.142647,79585.667,13442,3,PI,1,100,189420
1575308172.185050,79621.333,13442,3,PI,1,100,185960
1575308172.227453,79657.000,13442,3,PI,1,100,185323
1575308172.268271,79691.333,13458,3,PI,1,100,186163
1575308172.309090,79725.667,13458,3,PI,1,100,187360
1575308172.349908,79760.000,13458,3,PI,1,100,188521
1575308172.391915,79795.333,13476,3,PI,1,100,189251
1575308172.433922,79830.667,13476,3,PI,1,100,189246
1575308172.475929,79866.000,13476,3,PI,1,100,188930
1575308172.515162,79899.000,13494,3,PI,1,100,189038
1575308172.554394,79932.000,13494,3,PI,1,100,189663
1575308172.593627,79965.000,13494,3,PI,1,100,190430
1575308172.631275,79996.667,13512,3,PI,1,100,190963
1575308172.668923,80028.333,13512,3,PI,1,100,191338
1575308172.706571,80060.000,13512,3,PI,1,100,191619
1575308172.747785,80094.667,13530,3,PI,1,100,191803
1575308172.788999,80129.333,13530,3,PI,1,100,191943
1575308172.830214,80164.000,13530,3,PI,1,100,190601
1575308172.869050,80196.667,13548,3,PI,1,100,187065
1575308172.907887,80229.333,13548,3,PI,1,100,185461
1575308172.946723,80262.000,13548,3,PI,1,100,186012
1575308172.987383,80296.200,13569,5,PI,1,100,187170
1575308173.028043,80330.400,13569,5,PI,1,100,188425
1575308173.068702,80364.600,13569,5,PI,1,100,189316
1575308173.109362,80398.800,13569,5,PI,1,100,189516
1575308173.150021,80433.000,13569,5,PI,1,100,189268
1575308173.191632,80468.000,13590,2,PI,1,100,189197
1575308173.233243,80503.000,13590,2,PI,1,100,189673
1575308173.274853,80538.000,13608,3,PI,1,100,190407
1575308173.316464,80573.000,13608,3,PI,1,100,190913
1575308173.358075,80608.000,13608,3,PI,1,100,191379
1575308173.395822,80639.750,13626,4,PI,1,100,191693
1575308173.433568,80671.500,13626,4,PI,1,100,191807
1575308173.471315,80703.250,13626,4,PI,1,100,191927
1575308173.509062,80735.000,13626,4,PI,1,100,192167
1575308173.548295,80768.000,13644,3,PI,1,100,191824
1575308173.587528,80801.000,13644,3,PI,1,100,188826
1575308173.626761,80834.000,13644,3,PI,1,100,185938
1575308173.667182,80868.000,13662,3,PI,1,100,185887
1575308173.707604,80902.000,13662,3,PI,1,100,186922
1575308173.748026,80936.000,13662,3,PI,1,100,188217
1575308173.789241,80970.667,13679,3,PI,1,100,189359
1575308173.830455,81005.333,13679,3,PI,1,100,189753
1575308173.871669,81040.000,13679,3,PI,1,100,189523
1575308173.913874,81075.500,13697,2,PI,1,100,189335
1575308173.956079,81111.000,13697,2,PI,1,100,189615
1575308173.997294,81145.667,13713,3,PI,1,100,190283
1575308174.038508,81180.333,13713,3,PI,1,100,190865
1575308174.079723,81215.000,13713,3,PI,1,100,191286
1575308174.118559,81247.667,13732,3,PI,1,100,191562
1575308174.157396,81280.333,13732,3,PI,1,100,191754
1575308174.196232,81313.000,13732,3,PI,1,100,191877
1575308174.236258,81346.667,13750,3,PI,1,100,191984
1575308174.276284,81380.333,13750,3,PI,1,100,192150
1575308174.316309,81414.000,13750,3,PI,1,100,192274
1575308174.357523,81448.667,13768,3,PI,1,100,192197
1575308174.398738,81483.333,13768,3,PI,1,100,189786
1575308174.439952,81518.000,13768,3,PI,1,100,186353
1575308174.481959,81553.333,13786,3,PI,1,100,185816
1575308174.523966,81588.667,13786,3,PI,1,100,186667
1575308174.565973,81624.000,13786,3,PI,1,100,187937
1575308174.604413,81656.333,13804,3,PI,1,100,189069
1575308174.642853,81688.667,13804,3,PI,1,100,189606
1575308174.681294,81721.000,13804,3,PI,1,100,189426
1575308174.719734,81753.333,13822,3,PI,1,100,188952
1575308174.758175,81785.667,13822,3,PI,1,100,188956
1575308174.796615,81818.000,13822,3,PI,1,100,189558
1575308174.836244,81851.333,13840,3,PI,1,100,190208
1575308174.875873,81884.667,13840,3,PI,1,100,190689
1575308174.915503,81918.000,13840,3,PI,1,100,191041
1575308174.956717,81952.667,13857,3,PI,1,100,191280
1575308174.997931,81987.333,13857,3,PI,1,100,191485
1575308175.039146,82022.000,13857,3,PI,1,100,191616
1575308175.081153,82057.333,13875,3,PI,1,100,191698
1575308175.123160,82092.667,13875,3,PI,1,100,191834
1575308175.165167,82128.000,13875,3,PI,1,100,191928
1575308175.203607,82160.333,13892,3,PI,1,100,190933
1575308175.242047,82192.667,13892,3,PI,1,100,187372
1575308175.280488,82225.000,13892,3,PI,1,100,185625
1575308175.318234,82256.750,13910,4,PI,1,100,186218
1575308175.355981,82288.500,13910,4,PI,1,100,187568
1575308175.393728,82320.250,13910,4,PI,1,100,188777
1575308175.431475,82352.000,13910,4,PI,1,100,189435
1575308175.471500,82385.667,13928,3,PI,1,100,189482
1575308175.511526,82419.333,13928,3,PI,1,100,188975
1575308175.551551,82453.000,13928,3,PI,1,100,188649
1575308175.592567,82487.500,13946,2,PI,1,100,188968
1575308175.633584,82522.000,13946,2,PI,1,100,189553
1575308175.675195,82557.000,13964,3,PI,1,100,190082
1575308175.716805,82592.000,13964,3,PI,1,100,190476
1575308175.758416,82627.000,13964,3,PI,1,100,190810
1575308175.798837,82661.000,13982,3,PI,1,100,191043
1575308175.839259,82695.000,13982,3,PI,1,100,191200
1575308175.879681,82729.000,13982,3,PI,1,100,191325
1575308175.916833,82760.250,14000,4,PI,1,100,191421
1575308175.953986,82791.500,14000,4,PI,1,100,190090
1575308175.991138,82822.750,14000,4,PI,1,100,186749
1575308176.028291,82854.000,14000,4,PI,1,100,185785
1575308176.068712,82888.000,14018,3,PI,1,100,186590
1575308176.109134,82922.000,14018,3,PI,1,100,187914
1575308176.149556,82956.000,14018,3,PI,1,100,188904
1575308176.186015,82986.667,14037,3,PI,1,100,189497
1575308176.222474,83017.333,14037,3,PI,1,100,189573
1575308176.258933,83048.000,14037,3,PI,1,100,189047
1575308176.296977,83080.000,14054,3,PI,1,100,188757
1575308176.335021,83112.000,14054,3,PI,1,100,189069
1575308176.373065,83144.000,14054,3,PI,1,100,189576
1575308176.415468,83179.667,14072,3,PI,1,100,190006
1575308176.457871,83215.333,14072,3,PI,1,100,190315
1575308176.500274,83251.000,14072,3,PI,1,100,190599
1575308176.538319,83283.000,14090,3,PI,1,100,190819
1575308176.576363,83315.000,14090,3,PI,1,100,190954
1575308176.614407,83347.000,14090,3,PI,1,100,190122
1575308176.653640,83380.000,14106,3,PI,1,100,186875
1575308176.692873,83413.000,14106,3,PI,1,100,185709
1575308176.732105,83446.000,14106,3,PI,1,100,186327
1575308176.772923,83480.333,14124,3,PI,1,100,187639
1575308176.813741,83514.667,14124,3,PI,1,100,188661
1575308176.854560,83549.000,14124,3,PI,1,100,189291
1575308176.895774,83583.667,14142,3,PI,1,100,189534
1575308176.936988,83618.333,14142,3,PI,1,100,189256
1575308176.978203,83653.000,14142,3,PI,1,100,188912
1575308177.019021,83687.333,14160,3,PI,1,100,189001
1575308177.059839,83721.667,14160,3,PI,1,100,189494
1575308177.100657,83756.000,14160,3,PI,1,100,189919
1575308177.138701,83788.000,14179,3,PI,1,100,190169
1575308177.176745,83820.000,14179,3,PI,1,100,190415
1575308177.214789,83852.000,14179,3,PI,1,100,190745
1575308177.254022,83885.000,14197,3,PI,1,100,190515
1575308177.293255,83918.000,14197,3,PI,1,100,187742
1575308177.332488,83951.000,14197,3,PI,1,100,185749
1575308177.373306,83985.333,14215,3,PI,1,100,186147
1575308177.414124,84019.667,14215,3,PI,1,100,187375
1575308177.454942,84054.000,14215,3,PI,1,100,188480
1575308177.496156,84088.667,14232,3,PI,1,100,189108
1575308177.537371,84123.333,14232,3,PI,1,100,189443
1575308177.578585,84158.000,14232,3,PI,1,100,189362
1575308177.619800,84192.667,14250,3,PI,1,100,189006
1575308177.661014,84227.333,14250,3,PI,1,100,188954
1575308177.702228,84262.000,14250,3,PI,1,100,189234
1575308177.743046,84296.333,14268,3,PI,1,100,189600
1575308177.783864,84330.667,14268,3,PI,1,100,189929
1575308177.824682,84365.000,14268,3,PI,1,100,190209
1575308177.863123,84397.333,14284,3,PI,1,100,190082
1575308177.901563,84429.667,14284,3,PI,1,100,187606
1575308177.940004,84462.000,14284,3,PI,1,100,185682
1575308177.981218,84496.667,14302,3,PI,1,100,185954
1575308178.022432,84531.333,14302,3,PI,1,100,187120
1575308178.063647,84566.000,14302,3,PI,1,100,188247
1575308178.104465,84600.333,14321,3,PI,1,100,188889
1575308178.145283,84634.667,14321,3,PI,1,100,189268
1575308178.186101,84669.000,14321,3,PI,1,100,189169
1575308178.227712,84704.000,14339,3,PI,1,100,188782
1575308178.269322,84739.000,14339,3,PI,1,100,188755
1575308178.310933,84774.000,14339,3,PI,1,100,189038
1575308178.348581,84805.667,14357,3,PI,1,100,189390
1575308178.386228,84837.333,14357,3,PI,1,100,189748
1575308178.423876,84869.000,14357,3,PI,1,100,189975
1575308178.461920,84901.000,14375,3,PI,1,100,188357
1575308178.499964,84933.000,14375,3,PI,1,100,185340
1575308178.538008,84965.000,14375,3,PI,1,100,184954
1575308178.578430,84999.000,14393,3,PI,1,100,185665
1575308178.618852,85033.000,14393,3,PI,1,100,186963
1575308178.659274,85067.000,14393,3,PI,1,100,187979
1575308178.700884,85102.000,14411,3,PI,1,100,188451
1575308178.742495,85137.000,14411,3,PI,1,100,188253
1575308178.784106,85172.000,14411,3,PI,1,100,187496
1575308178.825320,85206.667,14428,3,PI,1,100,187238
1575308178.866534,85241.333,14428,3,PI,1,100,187577
1575308178.907749,85276.000,14428,3,PI,1,100,188059
1575308178.946189,85308.333,14446,3,PI,1,100,188647
1575308178.984629,85340.667,14446,3,PI,1,100,189149
1575308179.023070,85373.000,14446,3,PI,1,100,188634
1575308179.061827,85405.600,14465,5,PI,1,100,185293
1575308179.100585,85438.200,14465,5,PI,1,100,184220
1575308179.139342,85470.800,14465,5,PI,1,100,184508
1575308179.178099,85503.400,14465,5,PI,1,100,185350
1575308179.216856,85536.000,14465,5,PI,1,100,186449
1575308179.257675,85570.333,14486,3,PI,1,100,187205
1575308179.298493,85604.667,14486,3,PI,1,100,187014
1575308179.339311,85639.000,14486,3,PI,1,100,186338
1575308179.380129,85673.333,14504,3,PI,1,100,186127
1575308179.420947,85707.667,14504,3,PI,1,100,186332
1575308179.461765,85742.000,14504,3,PI,1,100,186671
1575308179.504565,85778.000,14521,2,PI,1,100,187100
1575308179.547364,85814.000,14521,2,PI,1,100,187840
1575308179.584814,85845.500,14539,4,PI,1,100,188491
1575308179.622263,85877.000,14539,4,PI,1,100,187552
1575308179.659713,85908.500,14539,4,PI,1,100,184331
1575308179.697163,85940.000,14539,4,PI,1,100,183510
1575308179.735999,85972.667,14557,3,PI,1,100,183752
1575308179.774836,86005.333,14557,3,PI,1,100,184374
1575308179.813672,86038.000,14557,3,PI,1,100,185143
1575308179.855679,86073.333,14573,3,PI,1,100,185663
1575308179.897686,86108.667,14573,3,PI,1,100,185591
1575308179.939693,86144.000,14573,3,PI,1,100,185325
1575308179.980511,86178.333,14591,3,PI,1,100,185355
1575308180.021329,86212.667,14591,3,PI,1,100,185852
1575308180.062148,86247.000,14591,3,PI,1,100,186320
1575308180.104353,86282.500,14610,2,PI,1,100,186651
1575308180.146558,86318.000,14610,2,PI,1,100,186872
1575308180.185196,86350.500,14628,4,PI,1,100,187164
1575308180.223835,86383.000,14628,4,PI,1,100,187468
1575308180.262473,86415.500,14628,4,PI,1,100,185757
1575308180.301112,86448.000,14628,4,PI,1,100,183469
1575308180.349261,86488.500,14646,2,PI,1,100,183047
1575308180.397411,86529.000,14646,2,PI,1,100,183362
1575308180.434662,86560.333,14664,3,PI,1,100,183854
1575308180.471914,86591.667,14664,3,PI,1,100,184489
1575308180.509165,86623.000,14664,3,PI,1,100,184860
1575308180.550776,86658.000,14681,3,PI,1,100,184691
1575308180.592386,86693.000,14681,3,PI,1,100,184436
1575308180.633997,86728.000,14681,3,PI,1,100,184498
1575308180.675211,86762.667,14699,3,PI,1,100,184887
1575308180.716426,86797.333,14699,3,PI,1,100,185417
1575308180.757640,86832.000,14699,3,PI,1,100,185827
1575308180.797666,86865.667,14715,3,PI,1,100,186079
1575308180.837691,86899.333,14715,3,PI,1,100,186278
1575308180.877717,86933.000,14715,3,PI,1,100,186417
1575308180.916157,86965.333,14733,3,PI,1,100,186491
1575308180.954597,86997.667,14733,3,PI,1,100,186692
1575308180.993037,87030.000,14733,3,PI,1,100,187053
1575308181.031478,87062.333,14751,3,PI,1,100,187350
1575308181.069918,87094.667,14751,3,PI,1,100,186627
1575308181.108359,87127.000,14751,3,PI,1,100,183590
1575308181.149573,87161.667,14770,3,PI,1,100,182580
1575308181.190787,87196.333,14770,3,PI,1,100,182771
1575308181.232002,87231.000,14770,3,PI,1,100,183288
1575308181.273216,87265.667,14788,3,PI,1,100,183754
1575308181.314430,87300.333,14788,3,PI,1,100,184175
1575308181.355645,87335.000,14788,3,PI,1,100,184256
1575308181.399633,87372.000,14806,3,PI,1,100,184050
1575308181.443622,87409.000,14806,3,PI,1,100,183952
1575308181.487610,87446.000,14806,3,PI,1,100,184157
1575308181.525654,87478.000,14824,3,PI,1,100,184643
1575308181.563698,87510.000,14824,3,PI,1,100,185151
1575308181.601742,87542.000,14824,3,PI,1,100,185523
1575308181.640579,87574.667,14842,3,PI,1,100,185774
1575308181.679415,87607.333,14842,3,PI,1,100,185900
1575308181.718252,87640.000,14842,3,PI,1,100,185985
1575308181.758278,87673.667,14859,3,PI,1,100,186105
1575308181.798303,87707.333,14859,3,PI,1,100,186263
1575308181.838329,87741.000,14859,3,PI,1,100,186546
1575308181.879543,87775.667,14877,3,PI,1,100,186989
1575308181.920757,87810.333,14877,3,PI,1,100,185908
1575308181.961972,87845.000,14877,3,PI,1,100,183149
1575308182.003186,87879.667,14893,3,PI,1,100,182430
1575308182.044400,87914.333,14893,3,PI,1,100,182716
1575308182.085615,87949.000,14893,3,PI,1,100,183286
1575308182.123659,87981.000,14912,3,PI,1,100,183774
1575308182.161703,88013.000,14912,3,PI,1,100,184201
1575308182.199747,88045.000,14912,3,PI,1,100,184173
1575308182.238187,88077.333,14930,3,PI,1,100,183930
1575308182.276628,88109.667,14930,3,PI,1,100,183959
1575308182.315068,88142.000,14930,3,PI,1,100,184342
1575308182.355490,88176.000,14948,3,PI,1,100,184833
1575308182.395911,88210.000,14948,3,PI,1,100,185309
1575308182.436333,88244.000,14948,3,PI,1,100,185637
1575308182.478340,88279.333,14966,3,PI,1,100,185839
1575308182.520347,88314.667,14966,3,PI,1,100,185982
1575308182.562354,88350.000,14966,3,PI,1,100,186122
1575308182.604361,88385.333,14984,3,PI,1,100,186248
1575308182.646368,88420.667,14984,3,PI,1,100,186530
1575308182.688375,88456.000,14984,3,PI,1,100,186799
1575308182.726023,88487.667,15002,3,PI,1,100,187107
1575308182.763670,88519.333,15002,3,PI,1,100,187352
1575308182.801318,88551.000,15002,3,PI,1,100,185549
1575308182.839362,88583.000,15020,3,PI,1,100,183012
1575308182.877406,88615.000,15020,3,PI,1,100,182572
1575308182.915450,88647.000,15020,3,PI,1,100,183057
1575308182.955872,88681.000,15037,3,PI,1,100,183723
1575308182.996294,88715.000,15037,3,PI,1,100,184345
1575308183.036716,88749.000,15037,3,PI,1,100,184706
1575308183.078723,88784.333,15055,3,PI,1,100,184544
1575308183.120730,88819.667,15055,3,PI,1,100,184247
1575308183.162737,88855.000,15055,3,PI,1,100,184307
1575308183.203951,88889.667,15072,3,PI,1,100,184756
1575308183.245165,88924.333,15072,3,PI,1,100,185351
1575308183.286380,88959.000,15072,3,PI,1,100,185814
1575308183.325613,88992.000,15090,3,PI,1,100,186175
1575308183.364846,89025.000,15090,3,PI,1,100,186398
1575308183.404078,89058.000,15090,3,PI,1,100,186523
1575308183.440934,89089.000,15108,3,PI,1,100,186633
1575308183.477789,89120.000,15108,3,PI,1,100,186807
1575308183.514644,89151.000,15108,3,PI,1,100,186980
1575308183.554669,89184.667,15126,3,PI,1,100,187283
1575308183.594695,89218.333,15126,3,PI,1,100,187698
1575308183.634721,89252.000,15126,3,PI,1,100,187981
1575308183.676331,89287.000,15144,3,PI,1,100,186663
1575308183.717942,89322.000,15144,3,PI,1,100,183546
1575308183.759552,89357.000,15144,3,PI,1,100,182971
1575308183.801956,89392.667,15162,3,PI,1,100,183441
1575308183.844359,89428.333,15162,3,PI,1,100,184307
1575308183.886762,89464.000,15162,3,PI,1,100,185208
1575308183.925599,89496.667,15180,3,PI,1,100,185697
1575308183.964435,89529.333,15180,3,PI,1,100,185379
1575308184.003272,89562.000,15180,3,PI,1,100,184883
1575308184.045675,89597.667,15198,3,PI,1,100,184903
1575308184.088078,89633.333,15198,3,PI,1,100,185411
1575308184.130482,89669.000,15198,3,PI,1,100,185997
1575308184.166941,89699.667,15216,3,PI,1,100,186545
1575308184.203400,89730.333,15216,3,PI,1,100,186978
1575308184.239858,89761.000,15216,3,PI,1,100,187295
1575308184.284243,89798.333,15234,3,PI,1,100,187505
1575308184.328628,89835.667,15234,3,PI,1,100,187639
1575308184.373013,89873.000,15234,3,PI,1,100,187887
1575308184.409868,89904.000,15250,3,PI,1,100,188134
1575308184.446723,89935.000,15250,3,PI,1,100,188341
1575308184.483578,89966.000,15250,3,PI,1,100,188633
1575308184.523603,89999.667,15268,3,PI,1,100,188982
1575308184.563629,90033.333,15268,3,PI,1,100,188070
1575308184.603655,90067.000,15268,3,PI,1,100,184321
1575308184.641302,90098.667,15286,3,PI,1,100,183444
1575308184.678950,90130.333,15286,3,PI,1,100,184048
1575308184.716598,90162.000,15286,3,PI,1,100,185166
1575308184.756623,90195.667,15304,3,PI,1,100,186321
1575308184.796649,90229.333,15304,3,PI,1,100,186983
1575308184.836674,90263.000,15304,3,PI,1,100,186726
1575308184.876700,90296.667,15322,3,PI,1,100,185882
1575308184.916725,90330.333,15322,3,PI,1,100,185683
1575308184.956751,90364.000,15322,3,PI,1,100,186147
1575308184.998361,90399.000,15340,3,PI,1,100,186816
1575308185.039972,90434.000,15340,3,PI,1,100,187476
1575308185.081583,90469.000,15340,3,PI,1,100,188002
1575308185.123431,90504.200,15362,5,PI,1,100,188444
1575308185.165280,90539.400,15362,5,PI,1,100,188775
1575308185.207128,90574.600,15362,5,PI,1,100,189048
1575308185.248976,90609.800,15362,5,PI,1,100,189267
1575308185.290825,90645.000,15362,5,PI,1,100,189455
1575308185.332832,90680.333,15382,3,PI,1,100,189632
1575308185.374839,90715.667,15382,3,PI,1,100,189881
1575308185.416846,90751.000,15382,3,PI,1,100,190095
1575308185.454494,90782.667,15400,3,PI,1,100,188681
1575308185.492141,90814.333,15400,3,PI,1,100,184927
1575308185.529789,90846.000,15400,3,PI,1,100,184338
1575308185.569022,90879.000,15418,3,PI,1,100,185130
1575308185.608255,90912.000,15418,3,PI,1,100,186472
1575308185.647488,90945.000,15418,3,PI,1,100,187589
1575308185.687117,90978.333,15436,3,PI,1,100,188218
1575308185.726746,91011.667,15436,3,PI,1,100,188241
1575308185.766376,91045.000,15436,3,PI,1,100,187586
1575308185.807590,91079.667,15454,3,PI,1,100,187151
1575308185.848804,91114.333,15454,3,PI,1,100,187463
1575308185.890018,91149.000,15454,3,PI,1,100,188164
1575308185.932025,91184.333,15471,3,PI,1,100,188797
1575308185.974032,91219.667,15471,3,PI,1,100,189270
1575308186.016039,91255.000,15471,3,PI,1,100,189623
1575308186.054084,91287.000,15489,3,PI,1,100,189925
1575308186.092128,91319.000,15489,3,PI,1,100,190152
1575308186.130172,91351.000,15489,3,PI,1,100,190306
1575308186.168216,91383.000,15506,3,PI,1,100,190466
1575308186.206260,91415.000,15506,3,PI,1,100,190624
1575308186.244304,91447.000,15506,3,PI,1,100,190133
1575308186.283537,91480.000,15524,3,PI,1,100,186656
1575308186.322769,91513.000,15524,3,PI,1,100,185061
1575308186.362002,91546.000,15524,3,PI,1,100,185583
1575308186.407180,91584.000,15542,3,PI,1,100,186849
1575308186.452357,91622.000,15542,3,PI,1,100,188075
1575308186.497534,91660.000,15542,3,PI,1,100,188837
1575308186.539145,91695.000,15560,2,PI,1,100,189182
1575308186.580756,91730.000,15560,2,PI,1,100,188942
1575308186.620286,91763.250,15578,4,PI,1,100,188520
1575308186.659816,91796.500,15578,4,PI,1,100,188768
1575308186.699346,91829.750,15578,4,PI,1,100,189302
1575308186.738876,91863.000,15578,4,PI,1,100,189733
1575308186.776920,91895.000,15596,3,PI,1,100,190109
1575308186.814964,91927.000,15596,3,PI,1,100,190510
1575308186.853008,91959.000,15596,3,PI,1,100,190768
1575308186.893430,91993.000,15614,3,PI,1,100,190919
1575308186.933852,92027.000,15614,3,PI,1,100,191090
1575308186.974274,92061.000,15614,3,PI,1,100,191250
1575308187.015488,92095.667,15632,3,PI,1,100,191154
1575308187.056702,92130.333,15632,3,PI,1,100,188150
1575308187.097917,92165.000,15632,3,PI,1,100,185303
1575308187.139528,92200.000,15649,2,PI,1,100,185475
1575308187.181138,92235.000,15649,2,PI,1,100,186679
1575308187.220965,92268.500,15668,4,PI,1,100,188024
1575308187.260793,92302.000,15668,4,PI,1,100,188984
1575308187.300620,92335.500,15668,4,PI,1,100,189509
1575308187.340447,92369.000,15668,4,PI,1,100,189577
1575308187.377699,92400.333,15684,3,PI,1,100,189151
