EpochTimestamp,EmotiBitTimestamp,PacketNumber,DataLength,TypeTag,ProtocolVersion,DataReliability,T0
1575307440.487006,176423.000,30234,1,T0,1,100,30.998
1575307440.617473,176533.000,30252,1,T0,1,100,31.036
1575307440.743196,176639.000,30270,1,T0,1,100,31.009
1575307440.880779,176755.000,30288,1,T0,1,100,31.052
1575307441.018362,176871.000,30306,1,T0,1,100,31.025
1575307441.152388,176984.000,30324,1,T0,1,100,31.046
1575307441.279296,177091.000,30341,1,T0,1,100,31.025
1575307441.408577,177200.000,30359,1,T0,1,100,31.046
1575307441.540231,177311.000,30394,1,T0,1,100,31.062
1575307441.676628,177426.000,30412,1,T0,1,100,31.036
1575307441.809467,177538.000,30430,1,T0,1,100,30.982
1575307441.932817,177642.000,30448,1,T0,1,100,31.052
1575307442.066843,177755.000,30466,1,T0,1,100,31.030
1575307442.204426,177871.000,30484,1,T0,1,100,31.052
1575307442.342010,177987.000,30502,1,T0,1,100,30.993
1575307442.468918,178094.000,30520,1,T0,1,100,31.030
1575307442.595827,178201.000,30538,1,T0,1,100,31.030
1575307442.731039,178315.000,30556,1,T0,1,100,30.982
1575307442.869808,178432.000,30590,1,T0,1,100,31.046
1575307443.002647,178544.000,30608,1,T0,1,100,31.030
1575307443.127184,178649.000,30626,1,T0,1,100,31.052
1575307443.260023,178761.000,30644,1,T0,1,100,31.014
1575307443.394048,178874.000,30663,1,T0,1,100,31.057
1575307443.531631,178990.000,30681,1,T0,1,100,31.084
1575307443.666843,179104.000,30699,1,T0,1,100,31.057
1575307443.794938,179212.000,30716,1,T0,1,100,31.052
1575307443.925405,179322.000,30734,1,T0,1,100,31.030
1575307444.065360,179440.000,30768,1,T0,1,100,31.025
1575307444.200572,179554.000,30786,1,T0,1,100,31.084
1575307444.333411,179666.000,30804,1,T0,1,100,31.062
1575307444.470994,179782.000,30823,1,T0,1,100,31.052
1575307444.596717,179888.000,30841,1,T0,1,100,31.052
1575307444.723626,179995.000,30859,1,T0,1,100,31.046
1575307444.860023,180110.000,30877,1,T0,1,100,31.079
1575307444.998792,180227.000,30894,1,T0,1,100,31.052
1575307445.128073,180336.000,30928,1,T0,1,100,31.073
1575307445.256168,180444.000,30946,1,T0,1,100,31.030
1575307445.390193,180557.000,30965,1,T0,1,100,31.025
1575307445.527777,180673.000,30983,1,T0,1,100,31.057
1575307445.664174,180788.000,31001,1,T0,1,100,31.036
1575307445.792269,180896.000,31019,1,T0,1,100,31.057
1575307445.919178,181003.000,31037,1,T0,1,100,31.068
1575307446.057947,181120.000,31055,1,T0,1,100,31.068
1575307446.193159,181234.000,31072,1,T0,1,100,31.062
1575307446.329556,181349.000,31107,1,T0,1,100,31.079
1575307446.456465,181456.000,31128,2,T0,1,100,31.084
1575307446.583374,181563.000,31128,2,T0,1,100,31.068
1575307446.719771,181678.000,31148,1,T0,1,100,31.062
1575307446.860913,181797.000,31165,1,T0,1,100,31.062
1575307446.998496,181913.000,31199,1,T0,1,100,31.057
1575307447.134893,182028.000,31217,1,T0,1,100,31.057
1575307447.273663,182145.000,31235,1,T0,1,100,31.073
1575307447.406502,182257.000,31254,1,T0,1,100,31.041
1575307447.545272,182374.000,31272,1,T0,1,100,31.068
1575307447.674552,182483.000,31290,1,T0,1,100,31.068
1575307447.806206,182594.000,31308,1,T0,1,100,31.057
1575307447.933114,182701.000,31325,1,T0,1,100,31.046
1575307448.067140,182814.000,31343,1,T0,1,100,31.036
1575307448.203537,182929.000,31377,1,T0,1,100,31.041
1575307448.338748,183043.000,31396,1,T0,1,100,31.036
1575307448.471587,183155.000,31414,1,T0,1,100,31.046
1575307448.597310,183261.000,31432,1,T0,1,100,31.036
1575307448.727777,183371.000,31450,1,T0,1,100,31.036
1575307448.865360,183487.000,31468,1,T0,1,100,31.025
1575307449.006502,183606.000,31486,1,T0,1,100,30.998
1575307449.128667,183709.000,31503,1,T0,1,100,31.014
1575307449.257948,183818.000,31521,1,T0,1,100,31.009
1575307449.395531,183934.000,31556,1,T0,1,100,31.014
1575307449.531928,184049.000,31574,1,T0,1,100,31.020
1575307449.667140,184163.000,31592,1,T0,1,100,30.993
1575307449.794049,184270.000,31610,1,T0,1,100,30.982
1575307449.923330,184379.000,31628,1,T0,1,100,31.014
1575307450.060913,184495.000,31646,1,T0,1,100,31.020
1575307450.196124,184609.000,31664,1,T0,1,100,31.046
1575307450.325405,184718.000,31681,1,T0,1,100,31.009
1575307450.451128,184824.000,31700,1,T0,1,100,31.003
1575307450.582781,184935.000,31718,1,T0,1,100,31.046
1575307450.719178,185050.000,31752,1,T0,1,100,31.003
1575307450.861506,185170.000,31770,1,T0,1,100,31.020
1575307451.000275,185287.000,31788,1,T0,1,100,31.030
1575307451.136673,185402.000,31806,1,T0,1,100,31.046
1575307451.279001,185522.000,31824,1,T0,1,100,31.052
1575307451.413026,185635.000,31842,1,T0,1,100,30.982
1575307451.550609,185751.000,31876,1,T0,1,100,31.009
1575307451.677518,185858.000,31894,1,T0,1,100,30.998
1575307451.812729,185972.000,31912,1,T0,1,100,31.057
1575307451.939638,186079.000,31930,1,T0,1,100,31.057
1575307452.076035,186194.000,31948,1,T0,1,100,31.036
1575307452.213619,186310.000,31966,1,T0,1,100,31.020
1575307452.351202,186426.000,31984,1,T0,1,100,31.025
1575307452.478111,186533.000,32003,1,T0,1,100,31.025
1575307452.606206,186641.000,32023,1,T0,1,100,30.998
1575307452.739045,186753.000,32041,1,T0,1,100,31.052
1575307452.876628,186869.000,32059,1,T0,1,100,31.041
1575307453.013026,186984.000,32079,1,T0,1,100,31.036
1575307453.138748,187090.000,32097,1,T0,1,100,31.003
1575307453.269216,187200.000,32115,1,T0,1,100,31.052
1575307453.407985,187317.000,32132,1,T0,1,100,30.987
1575307453.544382,187432.000,32167,1,T0,1,100,31.020
1575307453.673663,187541.000,32185,1,T0,1,100,31.073
1575307453.801758,187649.000,32203,1,T0,1,100,31.041
1575307453.934597,187761.000,32221,1,T0,1,100,31.014
1575307454.073367,187878.000,32239,1,T0,1,100,31.036
1575307454.212136,187995.000,32257,1,T0,1,100,31.003
1575307454.335487,188099.000,32275,1,T0,1,100,31.036
1575307454.464768,188208.000,32294,1,T0,1,100,31.052
1575307454.597607,188320.000,32311,1,T0,1,100,31.025
1575307454.734004,188435.000,32345,1,T0,1,100,31.025
1575307454.876332,188555.000,32363,1,T0,1,100,31.046
1575307455.016288,188673.000,32381,1,T0,1,100,31.030
1575307455.153871,188789.000,32399,1,T0,1,100,31.036
1575307455.296199,188909.000,32417,1,T0,1,100,31.036
1575307455.433782,189025.000,32435,1,T0,1,100,31.057
1575307455.563063,189134.000,32453,1,T0,1,100,31.020
1575307455.699460,189249.000,32487,1,T0,1,100,31.030
1575307455.826369,189356.000,32505,1,T0,1,100,31.030
1575307455.952092,189462.000,32523,1,T0,1,100,31.025
1575307456.089675,189578.000,32541,1,T0,1,100,31.014
1575307456.227259,189694.000,32559,1,T0,1,100,31.052
1575307456.358912,189805.000,32577,1,T0,1,100,31.020
1575307456.487007,189913.000,32596,1,T0,1,100,31.020
1575307456.619846,190025.000,32614,1,T0,1,100,31.046
1575307456.752685,190137.000,32631,1,T0,1,100,31.052
1575307456.891454,190254.000,32665,1,T0,1,100,31.046
1575307457.020736,190363.000,32683,1,T0,1,100,31.003
1575307457.146458,190469.000,32701,1,T0,1,100,31.036
1575307457.281669,190583.000,32719,1,T0,1,100,31.009
1575307457.421625,190701.000,32738,1,T0,1,100,31.025
1575307457.559208,190817.000,32756,1,T0,1,100,31.041
1575307457.683745,190922.000,32774,1,T0,1,100,31.014
1575307457.814212,191032.000,32792,1,T0,1,100,31.020
1575307457.949423,191146.000,32809,1,T0,1,100,31.025
1575307458.087007,191262.000,32843,1,T0,1,100,31.020
1575307458.219846,191374.000,32861,1,T0,1,100,31.030
1575307458.343197,191478.000,32880,1,T0,1,100,31.052
1575307458.479594,191593.000,32898,1,T0,1,100,31.025
1575307458.614805,191707.000,32919,2,T0,1,100,31.014
1575307458.750016,191821.000,32919,2,T0,1,100,31.073
1575307458.892344,191941.000,32955,1,T0,1,100,31.100
1575307459.026369,192054.000,32973,1,T0,1,100,31.062
1575307459.163953,192170.000,32991,1,T0,1,100,31.052
1575307459.303908,192288.000,33009,1,T0,1,100,31.057
1575307459.441492,192404.000,33028,1,T0,1,100,31.089
1575307459.579075,192520.000,33045,1,T0,1,100,31.036
1575307459.713100,192633.000,33079,1,T0,1,100,31.041
1575307459.841195,192741.000,33097,1,T0,1,100,31.062
1575307459.969290,192849.000,33115,1,T0,1,100,31.046
1575307460.108059,192966.000,33133,1,T0,1,100,31.046
1575307460.248015,193084.000,33151,1,T0,1,100,30.998
1575307460.372552,193189.000,33169,1,T0,1,100,31.057
1575307460.500647,193297.000,33188,1,T0,1,100,31.057
1575307460.635858,193411.000,33206,1,T0,1,100,31.052
1575307460.768697,193523.000,33223,1,T0,1,100,31.030
1575307460.907466,193640.000,33257,1,T0,1,100,31.052
1575307461.034375,193747.000,33275,1,T0,1,100,31.068
1575307461.163656,193856.000,33293,1,T0,1,100,31.046
1575307461.297682,193969.000,33311,1,T0,1,100,31.046
1575307461.437637,194087.000,33330,1,T0,1,100,31.052
1575307461.569290,194198.000,33348,1,T0,1,100,31.036
1575307461.695013,194304.000,33366,1,T0,1,100,31.068
1575307461.830224,194418.000,33384,1,T0,1,100,31.046
1575307461.966621,194533.000,33402,1,T0,1,100,31.003
1575307462.104205,194649.000,33419,1,T0,1,100,31.079
1575307462.232300,194757.000,33453,1,T0,1,100,31.073
1575307462.355650,194861.000,33472,1,T0,1,100,31.057
1575307462.494420,194978.000,33490,1,T0,1,100,31.062
1575307462.632003,195094.000,33508,1,T0,1,100,31.030
1575307462.768401,195209.000,33526,1,T0,1,100,31.079
1575307462.910728,195329.000,33544,1,T0,1,100,31.111
1575307463.049498,195446.000,33561,1,T0,1,100,31.062
1575307463.185895,195561.000,33595,1,T0,1,100,31.073
1575307463.328223,195681.000,33613,1,T0,1,100,31.089
1575307463.461062,195793.000,33632,1,T0,1,100,31.068
1575307463.602204,195912.000,33650,1,T0,1,100,31.062
1575307463.729112,196019.000,33668,1,T0,1,100,31.041
1575307463.859579,196129.000,33686,1,T0,1,100,31.057
1575307463.991232,196240.000,33704,1,T0,1,100,31.073
1575307464.130002,196357.000,33721,1,T0,1,100,31.068
1575307464.266399,196472.000,33755,1,T0,1,100,31.041
1575307464.405169,196589.000,33774,1,T0,1,100,31.084
1575307464.535636,196699.000,33792,1,T0,1,100,31.089
1575307464.663731,196807.000,33813,2,T0,1,100,31.062
1575307464.791826,196915.000,33813,2,T0,1,100,31.100
1575307464.929409,197031.000,33831,1,T0,1,100,31.057
1575307465.068178,197148.000,33867,1,T0,1,100,31.052
1575307465.191529,197252.000,33885,1,T0,1,100,31.089
1575307465.320810,197361.000,33903,1,T0,1,100,31.116
1575307465.458393,197477.000,33922,1,T0,1,100,31.041
1575307465.594791,197592.000,33940,1,T0,1,100,31.095
1575307465.727630,197704.000,33958,1,T0,1,100,31.121
1575307465.854539,197811.000,33976,1,T0,1,100,31.095
1575307465.983820,197920.000,33994,1,T0,1,100,31.089
1575307466.122589,198037.000,34011,1,T0,1,100,31.073
1575307466.258986,198152.000,34045,1,T0,1,100,31.105
1575307466.387081,198260.000,34064,1,T0,1,100,31.105
1575307466.512804,198366.000,34082,1,T0,1,100,31.089
1575307466.644457,198477.000,34100,1,T0,1,100,31.121
1575307466.779669,198591.000,34118,1,T0,1,100,31.073
1575307466.920810,198710.000,34136,1,T0,1,100,31.127
1575307467.059580,198827.000,34154,1,T0,1,100,31.073
1575307467.195977,198942.000,34171,1,T0,1,100,31.073
1575307467.338305,199062.000,34205,1,T0,1,100,31.116
1575307467.475888,199178.000,34224,1,T0,1,100,31.084
1575307467.609913,199291.000,34242,1,T0,1,100,31.073
1575307467.736822,199398.000,34260,1,T0,1,100,31.089
1575307467.870847,199511.000,34278,1,T0,1,100,31.095
1575307467.997756,199618.000,34296,1,T0,1,100,31.079
1575307468.135339,199734.000,34314,1,T0,1,100,31.100
1575307468.272923,199850.000,34331,1,T0,1,100,31.073
1575307468.408134,199964.000,34366,1,T0,1,100,31.062
1575307468.535043,200071.000,34384,1,T0,1,100,31.121
1575307468.664324,200180.000,34402,1,T0,1,100,31.111
1575307468.797163,200292.000,34420,1,T0,1,100,31.121
1575307468.934747,200408.000,34438,1,T0,1,100,31.111
1575307469.068772,200521.000,34456,1,T0,1,100,31.089
1575307469.193308,200626.000,34474,1,T0,1,100,31.121
1575307469.326148,200738.000,34492,1,T0,1,100,31.100
1575307469.464917,200855.000,34510,1,T0,1,100,31.084
1575307469.601314,200970.000,34528,1,T0,1,100,31.127
1575307469.729409,201078.000,34562,1,T0,1,100,31.121
1575307469.857504,201186.000,34580,1,T0,1,100,31.084
1575307469.989157,201297.000,34598,1,T0,1,100,31.116
1575307470.127927,201414.000,34616,1,T0,1,100,31.121
1575307470.264324,201529.000,34634,1,T0,1,100,31.132
1575307470.387675,201633.000,34652,1,T0,1,100,31.089
1575307470.519328,201744.000,34671,1,T0,1,100,31.111
1575307470.656911,201860.000,34689,1,T0,1,100,31.127
1575307470.787378,201970.000,34709,1,T0,1,100,31.121
1575307470.928520,202089.000,34729,1,T0,1,100,31.105
1575307471.067289,202206.000,34747,1,T0,1,100,31.116
1575307471.198942,202317.000,34765,1,T0,1,100,31.089
1575307471.337712,202434.000,34782,1,T0,1,100,31.121
1575307471.475295,202550.000,34817,1,T0,1,100,31.132
1575307471.602204,202657.000,34835,1,T0,1,100,31.100
1575307471.737415,202771.000,34853,1,T0,1,100,31.121
1575307471.864324,202878.000,34871,1,T0,1,100,31.079
1575307471.991233,202985.000,34889,1,T0,1,100,31.105
1575307472.128816,203101.000,34907,1,T0,1,100,31.121
1575307472.266400,203217.000,34925,1,T0,1,100,31.121
1575307472.395681,203326.000,34943,1,T0,1,100,31.132
1575307472.524962,203435.000,34961,1,T0,1,100,31.127
1575307472.658987,203548.000,34979,1,T0,1,100,31.132
1575307472.791826,203660.000,35013,1,T0,1,100,31.148
1575307472.931782,203778.000,35031,1,T0,1,100,31.148
1575307473.059876,203886.000,35049,1,T0,1,100,31.138
1575307473.186785,203993.000,35067,1,T0,1,100,31.111
1575307473.321996,204107.000,35085,1,T0,1,100,31.121
1575307473.461952,204225.000,35104,1,T0,1,100,31.116
1575307473.597163,204339.000,35122,1,T0,1,100,31.116
1575307473.721700,204444.000,35139,1,T0,1,100,31.180
1575307473.853353,204555.000,35157,1,T0,1,100,31.180
1575307473.988564,204669.000,35191,1,T0,1,100,31.175
1575307474.126148,204785.000,35209,1,T0,1,100,31.132
1575307474.258987,204897.000,35227,1,T0,1,100,31.159
1575307474.382338,205001.000,35246,1,T0,1,100,31.154
1575307474.518735,205116.000,35264,1,T0,1,100,31.148
1575307474.656318,205232.000,35282,1,T0,1,100,31.191
1575307474.790344,205345.000,35300,1,T0,1,100,31.143
1575307474.931485,205464.000,35317,1,T0,1,100,31.154
1575307475.069068,205580.000,35351,1,T0,1,100,31.154
1575307475.203094,205693.000,35369,1,T0,1,100,31.127
1575307475.341863,205810.000,35387,1,T0,1,100,31.121
1575307475.479447,205926.000,35406,1,T0,1,100,31.164
1575307475.603983,206031.000,35424,1,T0,1,100,31.164
1575307475.736822,206143.000,35442,1,T0,1,100,31.164
1575307475.864917,206251.000,35460,1,T0,1,100,31.143
1575307475.995384,206361.000,35478,1,T0,1,100,31.138
1575307476.134154,206478.000,35495,1,T0,1,100,31.121
1575307476.274109,206596.000,35529,1,T0,1,100,31.191
1575307476.397460,206700.000,35548,1,T0,1,100,31.148
1575307476.527927,206810.000,35566,1,T0,1,100,31.138
1575307476.663138,206924.000,35584,1,T0,1,100,31.197
1575307476.795977,207036.000,35605,1,T0,1,100,31.170
1575307476.933561,207152.000,35625,1,T0,1,100,31.164
1575307477.061656,207260.000,35643,1,T0,1,100,31.180
1575307477.192123,207370.000,35661,1,T0,1,100,31.175
1575307477.327334,207484.000,35679,1,T0,1,100,31.191
1575307477.467290,207602.000,35698,1,T0,1,100,31.164
1575307477.597757,207712.000,35716,1,T0,1,100,31.175
1575307477.725852,207820.000,35734,1,T0,1,100,31.170
1575307477.858691,207932.000,35752,1,T0,1,100,31.191
1575307477.995088,208047.000,35769,1,T0,1,100,31.202
1575307478.132671,208163.000,35803,1,T0,1,100,31.164
1575307478.259580,208270.000,35821,1,T0,1,100,31.143
1575307478.382931,208374.000,35840,1,T0,1,100,31.213
1575307478.521700,208491.000,35858,1,T0,1,100,31.170
1575307478.659284,208607.000,35876,1,T0,1,100,31.197
1575307478.795681,208722.000,35894,1,T0,1,100,31.175
1575307478.938009,208842.000,35912,1,T0,1,100,31.207
1575307479.076778,208959.000,35929,1,T0,1,100,31.202
1575307479.213176,209074.000,35963,1,T0,1,100,31.197
1575307479.353131,209192.000,35981,1,T0,1,100,31.191
1575307479.484784,209303.000,36000,1,T0,1,100,31.191
1575307479.608135,209407.000,36018,1,T0,1,100,31.202
1575307479.746904,209524.000,36036,1,T0,1,100,31.186
1575307479.876185,209633.000,36054,1,T0,1,100,31.186
1575307480.009024,209745.000,36072,1,T0,1,100,31.207
1575307480.148980,209863.000,36089,1,T0,1,100,31.213
1575307480.281819,209975.000,36123,1,T0,1,100,31.218
1575307480.405170,210079.000,36142,1,T0,1,100,31.186
1575307480.538009,210191.000,36160,1,T0,1,100,31.213
1575307480.673220,210305.000,36178,1,T0,1,100,31.218
1575307480.806059,210417.000,36196,1,T0,1,100,31.234
1575307480.937712,210528.000,36214,1,T0,1,100,31.175
1575307481.065807,210636.000,36232,1,T0,1,100,31.213
1575307481.198646,210748.000,36250,1,T0,1,100,31.191
1575307481.333858,210862.000,36268,1,T0,1,100,31.218
1575307481.474999,210981.000,36285,1,T0,1,100,31.202
1575307481.599536,211086.000,36304,1,T0,1,100,31.229
1575307481.730003,211196.000,36338,1,T0,1,100,31.213
1575307481.864028,211309.000,36356,1,T0,1,100,31.261
1575307482.000426,211424.000,36374,1,T0,1,100,31.202
1575307482.134451,211537.000,36392,1,T0,1,100,31.213
1575307482.260174,211643.000,36410,1,T0,1,100,31.197
1575307482.388268,211751.000,36428,1,T0,1,100,31.218
1575307482.528224,211869.000,36447,1,T0,1,100,31.202
1575307482.664621,211984.000,36464,1,T0,1,100,31.266
1575307482.793902,212093.000,36482,1,T0,1,100,31.229
1575307482.932672,212210.000,36503,1,T0,1,100,31.207
1575307483.071441,212327.000,36523,1,T0,1,100,31.213
1575307483.206652,212441.000,36541,1,T0,1,100,31.202
1575307483.347794,212560.000,36574,1,T0,1,100,31.207
1575307483.474703,212667.000,36593,1,T0,1,100,31.223
1575307483.601612,212774.000,36611,1,T0,1,100,31.218
1575307483.740381,212891.000,36629,1,T0,1,100,31.245
1575307483.873220,213003.000,36647,1,T0,1,100,31.229
1575307484.007246,213116.000,36665,1,T0,1,100,31.229
1575307484.148387,213235.000,36683,1,T0,1,100,31.218
1575307484.276482,213343.000,36700,1,T0,1,100,31.239
1575307484.401019,213448.000,36718,1,T0,1,100,31.245
1575307484.538602,213564.000,36737,1,T0,1,100,31.239
1575307484.676186,213680.000,36771,1,T0,1,100,31.234
1575307484.809025,213792.000,36789,1,T0,1,100,31.245
1575307484.935934,213899.000,36807,1,T0,1,100,31.223
1575307485.066401,214009.000,36825,1,T0,1,100,31.218
1575307485.202798,214124.000,36843,1,T0,1,100,31.207
1575307485.338009,214238.000,36861,1,T0,1,100,31.266
1575307485.473220,214352.000,36880,1,T0,1,100,31.213
1575307485.597757,214457.000,36897,1,T0,1,100,31.245
1575307485.734154,214572.000,36915,1,T0,1,100,31.223
1575307485.868180,214685.000,36949,1,T0,1,100,31.266
1575307486.005763,214801.000,36967,1,T0,1,100,31.229
1575307486.133858,214909.000,36985,1,T0,1,100,31.229
1575307486.260767,215016.000,37003,1,T0,1,100,31.245
1575307486.393606,215128.000,37021,1,T0,1,100,31.256
1575307486.535933,215248.000,37040,1,T0,1,100,31.245
1575307486.673517,215364.000,37058,1,T0,1,100,31.234
1575307486.807542,215477.000,37075,1,T0,1,100,31.234
1575307486.949870,215597.000,37109,1,T0,1,100,31.234
1575307487.087453,215713.000,37127,1,T0,1,100,31.223
1575307487.221478,215826.000,37145,1,T0,1,100,31.234
1575307487.356690,215940.000,37163,1,T0,1,100,31.293
1575307487.485971,216049.000,37182,1,T0,1,100,31.282
1575307487.614066,216157.000,37200,1,T0,1,100,31.245
1575307487.743346,216266.000,37218,1,T0,1,100,31.223
1575307487.878558,216380.000,37236,1,T0,1,100,31.282
1575307488.012583,216493.000,37253,1,T0,1,100,31.261
1575307488.150167,216609.000,37287,1,T0,1,100,31.239
1575307488.275889,216715.000,37305,1,T0,1,100,31.266
1575307488.403984,216823.000,37324,1,T0,1,100,31.250
1575307488.540381,216938.000,37342,1,T0,1,100,31.229
1575307488.679151,217055.000,37360,1,T0,1,100,31.256
1575307488.811990,217167.000,37378,1,T0,1,100,31.277
1575307488.937713,217273.000,37397,1,T0,1,100,31.293
1575307489.072924,217387.000,37415,1,T0,1,100,31.272
1575307489.210507,217503.000,37435,1,T0,1,100,31.245
1575307489.348091,217619.000,37453,1,T0,1,100,31.239
1575307489.476186,217727.000,37472,1,T0,1,100,31.229
1575307489.603095,217834.000,37490,1,T0,1,100,31.293
1575307489.741864,217951.000,37508,1,T0,1,100,31.282
1575307489.877075,218065.000,37525,1,T0,1,100,31.293
1575307490.013473,218180.000,37559,1,T0,1,100,31.245
1575307490.138009,218285.000,37577,1,T0,1,100,31.277
1575307490.270849,218397.000,37595,1,T0,1,100,31.277
1575307490.394199,218501.000,37614,1,T0,1,100,31.282
1575307490.532969,218618.000,37632,1,T0,1,100,31.304
1575307490.670552,218734.000,37650,1,T0,1,100,31.315
1575307490.805763,218848.000,37668,1,T0,1,100,31.261
1575307490.948091,218968.000,37685,1,T0,1,100,31.288
1575307491.084488,219083.000,37719,1,T0,1,100,31.293
1575307491.220886,219198.000,37737,1,T0,1,100,31.298
1575307491.358469,219314.000,37755,1,T0,1,100,31.272
1575307491.493680,219428.000,37774,1,T0,1,100,31.282
1575307491.618217,219533.000,37792,1,T0,1,100,31.282
1575307491.752242,219646.000,37810,1,T0,1,100,31.293
1575307491.888640,219761.000,37828,1,T0,1,100,31.266
1575307492.022665,219874.000,37845,1,T0,1,100,31.288
1575307492.155504,219986.000,37863,1,T0,1,100,31.304
1575307492.282413,220093.000,37897,1,T0,1,100,31.282
1575307492.410508,220201.000,37916,1,T0,1,100,31.309
1575307492.548091,220317.000,37934,1,T0,1,100,31.282
1575307492.689233,220436.000,37952,1,T0,1,100,31.357
1575307492.813769,220541.000,37970,1,T0,1,100,31.293
1575307492.940678,220648.000,37988,1,T0,1,100,31.288
1575307493.078262,220764.000,38006,1,T0,1,100,31.304
1575307493.214659,220879.000,38024,1,T0,1,100,31.325
1575307493.349870,220993.000,38041,1,T0,1,100,31.331
1575307493.476779,221100.000,38076,1,T0,1,100,31.357
1575307493.603688,221207.000,38094,1,T0,1,100,31.309
1575307493.742457,221324.000,38112,1,T0,1,100,31.309
1575307493.878855,221439.000,38130,1,T0,1,100,31.315
1575307494.008136,221548.000,38148,1,T0,1,100,31.320
1575307494.132672,221653.000,38166,1,T0,1,100,31.341
1575307494.270256,221769.000,38184,1,T0,1,100,31.320
1575307494.395978,221875.000,38202,1,T0,1,100,31.325
1575307494.532376,221990.000,38221,1,T0,1,100,31.298
1575307494.669959,222106.000,38238,1,T0,1,100,31.320
1575307494.795682,222212.000,38272,1,T0,1,100,31.309
1575307494.935045,222329.500,38291,2,T0,1,100,31.352
1575307495.074407,222447.000,38291,2,T0,1,100,31.320
1575307495.210804,222562.000,38313,1,T0,1,100,31.304
1575307495.351946,222681.000,38347,1,T0,1,100,31.293
1575307495.482413,222791.000,38366,1,T0,1,100,31.331
1575307495.606950,222896.000,38384,1,T0,1,100,31.325
1575307495.744533,223012.000,38402,1,T0,1,100,31.325
1575307495.882117,223128.000,38420,1,T0,1,100,31.282
1575307496.017328,223242.000,38438,1,T0,1,100,31.336
1575307496.144237,223349.000,38456,1,T0,1,100,31.309
1575307496.274704,223459.000,38474,1,T0,1,100,31.320
1575307496.406357,223570.000,38491,1,T0,1,100,31.347
1575307496.543940,223686.000,38526,1,T0,1,100,31.325
1575307496.681524,223802.000,38544,1,T0,1,100,31.336
1575307496.806060,223907.000,38562,1,T0,1,100,31.352
1575307496.936527,224017.000,38580,1,T0,1,100,31.331
1575307497.076483,224135.000,38598,1,T0,1,100,31.309
1575307497.212880,224250.000,38616,1,T0,1,100,31.357
1575307497.344533,224361.000,38634,1,T0,1,100,31.325
1575307497.470256,224467.000,38653,1,T0,1,100,31.304
1575307497.601909,224578.000,38670,1,T0,1,100,31.341
1575307497.740679,224695.000,38704,1,T0,1,100,31.357
1575307497.879448,224812.000,38722,1,T0,1,100,31.352
1575307498.002799,224916.000,38740,1,T0,1,100,31.347
1575307498.132080,225025.000,38758,1,T0,1,100,31.341
1575307498.257802,225131.000,38776,1,T0,1,100,31.363
1575307498.389455,225242.000,38794,1,T0,1,100,31.357
1575307498.529411,225360.000,38813,1,T0,1,100,31.373
1575307498.668180,225477.000,38831,1,T0,1,100,31.373
1575307498.799834,225588.000,38848,1,T0,1,100,31.368
1575307498.938603,225705.000,38882,1,T0,1,100,31.347
1575307499.076186,225821.000,38900,1,T0,1,100,31.331
1575307499.210212,225934.000,38918,1,T0,1,100,31.373
1575307499.348981,226051.000,38936,1,T0,1,100,31.357
1575307499.475890,226158.000,38955,1,T0,1,100,31.336
1575307499.601613,226264.000,38973,1,T0,1,100,31.373
1575307499.739196,226380.000,38991,1,T0,1,100,31.390
1575307499.877965,226497.000,39008,1,T0,1,100,31.357
1575307500.014363,226612.000,39042,1,T0,1,100,31.373
1575307500.155504,226731.000,39060,1,T0,1,100,31.347
1575307500.282413,226838.000,39078,1,T0,1,100,31.379
1575307500.406950,226943.000,39097,1,T0,1,100,31.368
1575307500.543347,227058.000,39115,1,T0,1,100,31.373
1575307500.680931,227174.000,39133,1,T0,1,100,31.363
1575307500.816142,227288.000,39151,1,T0,1,100,31.347
1575307500.940679,227393.000,39169,1,T0,1,100,31.368
1575307501.073518,227505.000,39189,1,T0,1,100,31.390
1575307501.211101,227621.000,39209,1,T0,1,100,31.357
1575307501.347499,227736.000,39227,1,T0,1,100,31.363
1575307501.480338,227848.000,39246,1,T0,1,100,31.379
1575307501.602502,227951.000,39264,1,T0,1,100,31.379
1575307501.738900,228066.000,39282,1,T0,1,100,31.357
1575307501.872925,228179.000,39299,1,T0,1,100,31.347
1575307502.010508,228295.000,39333,1,T0,1,100,31.395
1575307502.137417,228402.000,39351,1,T0,1,100,31.379
1575307502.269070,228513.000,39369,1,T0,1,100,31.384
1575307502.393607,228618.000,39388,1,T0,1,100,31.379
1575307502.526446,228730.000,39406,1,T0,1,100,31.400
1575307502.652169,228836.000,39424,1,T0,1,100,31.406
1575307502.787380,228950.000,39442,1,T0,1,100,31.368
1575307502.929708,229070.000,39460,1,T0,1,100,31.411
1575307503.067291,229186.000,39477,1,T0,1,100,31.379
1575307503.201316,229299.000,39511,1,T0,1,100,31.352
1575307503.335341,229412.000,39529,1,T0,1,100,31.357
1575307503.464622,229521.000,39548,1,T0,1,100,31.379
1575307503.591531,229628.000,39566,1,T0,1,100,31.363
1575307503.721998,229738.000,39584,1,T0,1,100,31.368
1575307503.857210,229852.000,39602,1,T0,1,100,31.400
1575307503.991235,229965.000,39620,1,T0,1,100,31.400
1575307504.128818,230081.000,39638,1,T0,1,100,31.411
1575307504.254541,230187.000,39655,1,T0,1,100,31.384
1575307504.381450,230294.000,39673,1,T0,1,100,31.395
1575307504.519033,230410.000,39708,1,T0,1,100,31.379
1575307504.657803,230527.000,39726,1,T0,1,100,31.390
1575307504.787084,230636.000,39744,1,T0,1,100,31.416
1575307504.912807,230742.000,39762,1,T0,1,100,31.379
1575307505.049204,230857.000,39780,1,T0,1,100,31.406
1575307505.185601,230972.000,39798,1,T0,1,100,31.368
1575307505.323184,231088.000,39816,1,T0,1,100,31.400
1575307505.451279,231196.000,39834,1,T0,1,100,31.347
1575307505.574630,231300.000,39852,1,T0,1,100,31.373
1575307505.713399,231417.000,39887,1,T0,1,100,31.406
1575307505.848611,231531.000,39904,1,T0,1,100,31.406
1575307505.982636,231644.000,39922,1,T0,1,100,31.406
1575307506.107173,231749.000,39940,1,T0,1,100,31.427
1575307506.242384,231863.000,39958,1,T0,1,100,31.427
1575307506.366921,231968.000,39976,1,T0,1,100,31.373
1575307506.503318,232083.000,39995,1,T0,1,100,31.432
1575307506.638529,232197.000,40013,1,T0,1,100,31.368
1575307506.761880,232301.000,40030,1,T0,1,100,31.438
1575307506.899463,232417.000,40048,1,T0,1,100,31.422
1575307507.037047,232533.000,40085,2,T0,1,100,31.411
1575307507.174630,232649.000,40085,2,T0,1,100,31.400
1575307507.309841,232763.000,40104,1,T0,1,100,31.438
1575307507.445053,232877.000,40123,1,T0,1,100,31.406
1575307507.569589,232982.000,40141,1,T0,1,100,31.395
1575307507.704801,233096.000,40175,1,T0,1,100,31.411
1575307507.841198,233211.000,40193,1,T0,1,100,31.427
1575307507.975223,233324.000,40211,1,T0,1,100,31.422
1575307508.105690,233434.000,40229,1,T0,1,100,31.432
1575307508.233785,233542.000,40247,1,T0,1,100,31.432
1575307508.361880,233650.000,40265,1,T0,1,100,31.400
1575307508.499463,233766.000,40284,1,T0,1,100,31.432
1575307508.640605,233885.000,40301,1,T0,1,100,31.427
1575307508.765142,233990.000,40319,1,T0,1,100,31.443
1575307508.892051,234097.000,40337,1,T0,1,100,31.427
1575307509.030820,234214.000,40371,1,T0,1,100,31.416
1575307509.167217,234329.000,40389,1,T0,1,100,31.422
1575307509.300056,234441.000,40407,1,T0,1,100,31.470
1575307509.424593,234546.000,40426,1,T0,1,100,31.406
1575307509.552688,234654.000,40444,1,T0,1,100,31.449
1575307509.691458,234771.000,40462,1,T0,1,100,31.390
1575307509.829041,234887.000,40480,1,T0,1,100,31.449
1575307509.957136,234995.000,40497,1,T0,1,100,31.427
1575307510.089975,235107.000,40515,1,T0,1,100,31.432
1575307510.218070,235215.000,40549,1,T0,1,100,31.465
1575307510.347351,235324.000,40568,1,T0,1,100,31.416
1575307510.476632,235433.000,40586,1,T0,1,100,31.422
1575307510.614215,235549.000,40604,1,T0,1,100,31.432
1575307510.739938,235655.000,40622,1,T0,1,100,31.416
1575307510.878707,235772.000,40640,1,T0,1,100,31.449
1575307511.017477,235889.000,40658,1,T0,1,100,31.470
1575307511.153874,236004.000,40675,1,T0,1,100,31.454
1575307511.295016,236123.000,40709,1,T0,1,100,31.459
1575307511.423111,236231.000,40728,1,T0,1,100,31.443
1575307511.547647,236336.000,40746,1,T0,1,100,31.475
1575307511.685231,236452.000,40764,1,T0,1,100,31.432
1575307511.824000,236569.000,40782,1,T0,1,100,31.422
1575307511.958025,236682.000,40800,1,T0,1,100,31.454
1575307512.084934,236789.000,40818,1,T0,1,100,31.454
1575307512.216587,236900.000,40836,1,T0,1,100,31.454
1575307512.349427,237012.000,40854,1,T0,1,100,31.454
1575307512.487010,237128.000,40872,1,T0,1,100,31.465
1575307512.621035,237241.000,40906,1,T0,1,100,31.465
1575307512.745572,237346.000,40924,1,T0,1,100,31.470
1575307512.877225,237457.000,40942,1,T0,1,100,31.454
1575307513.015995,237574.000,40960,1,T0,1,100,31.454
1575307513.148241,237685.500,40981,2,T0,1,100,31.465
1575307513.280487,237797.000,40981,2,T0,1,100,31.502
1575307513.407396,237904.000,41018,1,T0,1,100,31.459
1575307513.539049,238015.000,41036,1,T0,1,100,31.475
1575307513.677818,238132.000,41054,1,T0,1,100,31.508
1575307513.814215,238247.000,41072,1,T0,1,100,31.465
1575307513.937566,238351.000,41090,1,T0,1,100,31.454
1575307514.066847,238460.000,41108,1,T0,1,100,31.491
1575307514.194942,238568.000,41126,1,T0,1,100,31.459
1575307514.319479,238673.000,41144,1,T0,1,100,31.459
1575307514.448760,238782.000,41163,1,T0,1,100,31.465
1575307514.578041,238891.000,41180,1,T0,1,100,31.459
1575307514.702577,238996.000,41198,1,T0,1,100,31.438
1575307514.833044,239106.000,41216,1,T0,1,100,31.459
1575307514.968256,239220.000,41250,1,T0,1,100,31.475
1575307515.102281,239333.000,41268,1,T0,1,100,31.481
1575307515.239864,239449.000,41286,1,T0,1,100,31.486
1575307515.366773,239556.000,41305,1,T0,1,100,31.449
1575307515.496054,239665.000,41323,1,T0,1,100,31.459
1575307515.636009,239783.000,41341,1,T0,1,100,31.491
1575307515.770035,239896.000,41359,1,T0,1,100,31.459
1575307515.902874,240008.000,41376,1,T0,1,100,31.486
1575307516.044015,240127.000,41410,1,T0,1,100,31.459
1575307516.169738,240233.000,41428,1,T0,1,100,31.443
1575307516.295461,240339.000,41447,1,T0,1,100,31.475
1575307516.433044,240455.000,41465,1,T0,1,100,31.475
1575307516.571814,240572.000,41483,1,T0,1,100,31.502
1575307516.705839,240685.000,41501,1,T0,1,100,31.502
1575307516.830376,240790.000,41519,1,T0,1,100,31.481
1575307516.964401,240903.000,41537,1,T0,1,100,31.459
1575307517.101984,241019.000,41554,1,T0,1,100,31.491
1575307517.240754,241136.000,41588,1,T0,1,100,31.502
1575307517.370035,241245.000,41607,1,T0,1,100,31.475
1575307517.492199,241348.000,41625,1,T0,1,100,31.513
1575307517.630969,241465.000,41643,1,T0,1,100,31.491
1575307517.764994,241578.000,41661,1,T0,1,100,31.502
1575307517.903764,241695.000,41679,1,T0,1,100,31.491
1575307518.038975,241809.000,41697,1,T0,1,100,31.524
1575307518.171814,241921.000,41714,1,T0,1,100,31.497
1575307518.297537,242027.000,41732,1,T0,1,100,31.508
1575307518.431562,242140.000,41767,1,T0,1,100,31.502
1575307518.564401,242252.000,41785,1,T0,1,100,31.459
1575307518.688938,242357.000,41803,1,T0,1,100,31.486
1575307518.822963,242470.000,41821,1,T0,1,100,31.550
1575307518.959360,242585.000,41839,1,T0,1,100,31.534
1575307519.093385,242698.000,41857,1,T0,1,100,31.475
1575307519.232155,242815.000,41878,1,T0,1,100,31.497
1575307519.370924,242932.000,41899,1,T0,1,100,31.502
1575307519.495461,243037.000,41917,1,T0,1,100,31.486
1575307519.628300,243149.000,41935,1,T0,1,100,31.524
1575307519.763511,243263.000,41953,1,T0,1,100,31.486
1575307519.897537,243376.000,41971,1,T0,1,100,31.513
1575307520.032748,243490.000,41988,1,T0,1,100,31.508
1575307520.159657,243597.000,42006,1,T0,1,100,31.497
1575307520.285380,243703.000,42024,1,T0,1,100,31.567
1575307520.422963,243819.000,42059,1,T0,1,100,31.502
1575307520.564105,243938.000,42077,1,T0,1,100,31.513
1575307520.692199,244046.000,42095,1,T0,1,100,31.518
1575307520.817922,244152.000,42113,1,T0,1,100,31.534
1575307520.955506,244268.000,42131,1,T0,1,100,31.508
1575307521.091903,244383.000,42149,1,T0,1,100,31.518
1575307521.229486,244499.000,42167,1,T0,1,100,31.508
1575307521.355209,244605.000,42185,1,T0,1,100,31.534
1575307521.479746,244710.000,42203,1,T0,1,100,31.556
1575307521.618515,244827.000,42237,1,T0,1,100,31.524
1575307521.753726,244941.000,42255,1,T0,1,100,31.534
1575307521.884194,245051.000,42273,1,T0,1,100,31.529
1575307522.019405,245165.000,42291,1,T0,1,100,31.524
1575307522.148686,245274.000,42309,1,T0,1,100,31.556
1575307522.281525,245386.000,42327,1,T0,1,100,31.529
1575307522.416736,245500.000,42346,1,T0,1,100,31.545
1575307522.543645,245607.000,42363,1,T0,1,100,31.567
1575307522.668182,245712.000,42381,1,T0,1,100,31.518
1575307522.806951,245829.000,42399,1,T0,1,100,31.550
1575307522.938604,245940.000,42433,1,T0,1,100,31.583
1575307523.072629,246053.000,42451,1,T0,1,100,31.550
1575307523.212585,246171.000,42469,1,T0,1,100,31.540
1575307523.345424,246283.000,42488,1,T0,1,100,31.588
1575307523.469961,246388.000,42506,1,T0,1,100,31.561
1575307523.605172,246502.000,42524,1,T0,1,100,31.540
1575307523.741570,246617.000,42542,1,T0,1,100,31.529
1575307523.876781,246731.000,42559,1,T0,1,100,31.567
1575307524.006062,246840.000,42577,1,T0,1,100,31.567
1575307524.135343,246949.000,42611,1,T0,1,100,31.561
1575307524.269368,247062.000,42630,1,T0,1,100,31.529
1575307524.404579,247176.000,42648,1,T0,1,100,31.561
1575307524.543349,247293.000,42666,1,T0,1,100,31.577
1575307524.667885,247398.000,42684,1,T0,1,100,31.583
1575307524.797166,247507.000,42702,1,T0,1,100,31.534
1575307524.935936,247624.000,42720,1,T0,1,100,31.583
1575307525.072333,247739.000,42737,1,T0,1,100,31.604
1575307525.202207,247848.500,42774,2,T0,1,100,31.583
1575307525.332081,247958.000,42774,2,T0,1,100,31.577
1575307525.460176,248066.000,42795,1,T0,1,100,31.561
1575307525.598946,248183.000,42813,1,T0,1,100,31.567
1575307525.738901,248301.000,42830,1,T0,1,100,31.583
1575307525.875298,248416.000,42864,1,T0,1,100,31.572
1575307526.017626,248536.000,42882,1,T0,1,100,31.609
1575307526.157582,248654.000,42900,1,T0,1,100,31.572
1575307526.293979,248769.000,42918,1,T0,1,100,31.577
1575307526.430376,248884.000,42937,1,T0,1,100,31.540
1575307526.557285,248991.000,42955,1,T0,1,100,31.588
1575307526.686566,249100.000,42972,1,T0,1,100,31.588
1575307526.814661,249208.000,42990,1,T0,1,100,31.599
1575307526.948686,249321.000,43008,1,T0,1,100,31.577
1575307527.081525,249433.000,43042,1,T0,1,100,31.609
1575307527.225039,249554.000,43060,1,T0,1,100,31.572
1575307527.362622,249670.000,43079,1,T0,1,100,31.572
1575307527.495461,249782.000,43097,1,T0,1,100,31.572
1575307527.623556,249890.000,43115,1,T0,1,100,31.593
1575307527.754024,250000.000,43133,1,T0,1,100,31.631
1575307527.888049,250113.000,43151,1,T0,1,100,31.609
1575307528.026818,250230.000,43168,1,T0,1,100,31.577
1575307528.157285,250340.000,43202,1,T0,1,100,31.593
1575307528.279450,250443.000,43221,1,T0,1,100,31.599
1575307528.417033,250559.000,43239,1,T0,1,100,31.561
1575307528.555803,250676.000,43257,1,T0,1,100,31.626
1575307528.692200,250791.000,43275,1,T0,1,100,31.583
1575307528.816737,250896.000,43293,1,T0,1,100,31.593
1575307528.948390,251007.000,43311,1,T0,1,100,31.599
1575307529.084787,251122.000,43329,1,T0,1,100,31.631
1575307529.222370,251238.000,43346,1,T0,1,100,31.626
1575307529.356396,251351.000,43381,1,T0,1,100,31.652
1575307529.479746,251455.000,43399,1,T0,1,100,31.609
1575307529.614958,251569.000,43417,1,T0,1,100,31.604
1575307529.753727,251686.000,43435,1,T0,1,100,31.593
1575307529.886566,251798.000,43453,1,T0,1,100,31.609
1575307530.025336,251915.000,43471,1,T0,1,100,31.652
1575307530.162919,252031.000,43489,1,T0,1,100,31.663
1575307530.300503,252147.000,43506,1,T0,1,100,31.620
1575307530.440458,252265.000,43541,1,T0,1,100,31.609
1575307530.579227,252382.000,43559,1,T0,1,100,31.615
1575307530.703764,252487.000,43577,1,T0,1,100,31.647
1575307530.835417,252598.000,43595,1,T0,1,100,31.609
1575307530.963512,252706.000,43613,1,T0,1,100,31.652
1575307531.091607,252814.000,43631,1,T0,1,100,31.631
1575307531.230376,252931.000,43649,1,T0,1,100,31.615
1575307531.369146,253048.000,43670,1,T0,1,100,31.647
1575307531.494869,253154.000,43690,1,T0,1,100,31.609
1575307531.622964,253262.000,43708,1,T0,1,100,31.663
1575307531.758175,253376.000,43726,1,T0,1,100,31.642
1575307531.891014,253488.000,43744,1,T0,1,100,31.642
1575307532.029783,253605.000,43762,1,T0,1,100,31.647
1575307532.156692,253712.000,43779,1,T0,1,100,31.636
1575307532.285973,253821.000,43797,1,T0,1,100,31.636
1575307532.419999,253934.000,43832,1,T0,1,100,31.658
1575307532.559954,254052.000,43850,1,T0,1,100,31.695
1575307532.692793,254164.000,43868,1,T0,1,100,31.668
1575307532.818516,254270.000,43886,1,T0,1,100,31.642
1575307532.952541,254383.000,43904,1,T0,1,100,31.658
1575307533.088938,254498.000,43922,1,T0,1,100,31.674
1575307533.226522,254614.000,43940,1,T0,1,100,31.668
1575307533.354617,254722.000,43957,1,T0,1,100,31.690
1575307533.477968,254826.000,43976,1,T0,1,100,31.674
1575307533.613179,254940.000,44010,1,T0,1,100,31.668
1575307533.743646,255050.000,44028,1,T0,1,100,31.690
1575307533.878857,255164.000,44046,1,T0,1,100,31.642
1575307534.021185,255284.000,44064,1,T0,1,100,31.674
1575307534.159954,255401.000,44082,1,T0,1,100,31.690
1575307534.296351,255516.000,44100,1,T0,1,100,31.663
1575307534.438679,255636.000,44118,1,T0,1,100,31.685
1575307534.575077,255751.000,44152,1,T0,1,100,31.663
1575307534.712660,255867.000,44170,1,T0,1,100,31.663
1575307534.840755,255975.000,44188,1,T0,1,100,31.685
1575307534.973594,256087.000,44206,1,T0,1,100,31.647
1575307535.100503,256194.000,44224,1,T0,1,100,31.674
1575307535.235714,256308.000,44242,1,T0,1,100,31.636
1575307535.370925,256422.000,44261,1,T0,1,100,31.690
1575307535.504951,256535.000,44279,1,T0,1,100,31.663
1575307535.636604,256646.000,44296,1,T0,1,100,31.663
1575307535.763512,256753.000,44331,1,T0,1,100,31.663
1575307535.891607,256861.000,44348,1,T0,1,100,31.690
1575307536.029191,256977.000,44366,1,T0,1,100,31.679
1575307536.169146,257095.000,44384,1,T0,1,100,31.685
1575307536.293683,257200.000,44402,1,T0,1,100,31.668
1575307536.420592,257307.000,44421,1,T0,1,100,31.658
1575307536.558175,257423.000,44439,1,T0,1,100,31.690
1575307536.694572,257538.000,44457,1,T0,1,100,31.711
1575307536.828598,257651.000,44474,1,T0,1,100,31.690
1575307536.955507,257758.000,44492,1,T0,1,100,31.679
1575307537.083601,257866.000,44527,1,T0,1,100,31.679
1575307537.222371,257983.000,44544,1,T0,1,100,31.674
1575307537.354617,258094.500,44566,2,T0,1,100,31.685
1575307537.486863,258206.000,44566,2,T0,1,100,31.674
1575307537.614958,258314.000,44586,1,T0,1,100,31.690
1575307537.753727,258431.000,44620,1,T0,1,100,31.642
1575307537.880636,258538.000,44638,1,T0,1,100,31.679
1575307538.017034,258653.000,44656,1,T0,1,100,31.663
1575307538.154617,258769.000,44674,1,T0,1,100,31.668
1575307538.281526,258876.000,44692,1,T0,1,100,31.663
1575307538.417923,258991.000,44711,1,T0,1,100,31.679
1575307538.553134,259105.000,44729,1,T0,1,100,31.679
1575307538.687160,259218.000,44747,1,T0,1,100,31.679
1575307538.828301,259337.000,44764,1,T0,1,100,31.674
1575307538.957582,259446.000,44798,1,T0,1,100,31.631
1575307539.082119,259551.000,44816,1,T0,1,100,31.706
1575307539.220888,259668.000,44834,1,T0,1,100,31.674
1575307539.352542,259779.000,44853,1,T0,1,100,31.663
1575307539.486567,259892.000,44871,1,T0,1,100,31.647
1575307539.625336,260009.000,44889,1,T0,1,100,31.658
1575307539.756989,260120.000,44907,1,T0,1,100,31.674
1575307539.880340,260224.000,44924,1,T0,1,100,31.663
1575307540.015551,260338.000,44942,1,T0,1,100,31.663
1575307540.151949,260453.000,44976,1,T0,1,100,31.701
1575307540.289532,260569.000,44995,1,T0,1,100,31.679
1575307540.415255,260675.000,45013,1,T0,1,100,31.652
1575307540.545722,260785.000,45031,1,T0,1,100,31.706
1575307540.679747,260898.000,45049,1,T0,1,100,31.679
1575307540.813772,261011.000,45067,1,T0,1,100,31.690
1575307540.952542,261128.000,45085,1,T0,1,100,31.668
1575307541.075892,261232.000,45103,1,T0,1,100,31.685
1575307541.207545,261343.000,45120,1,T0,1,100,31.668
1575307541.341571,261456.000,45138,1,T0,1,100,31.685
1575307541.477968,261571.000,45173,1,T0,1,100,31.674
1575307541.609621,261682.000,45191,1,T0,1,100,31.711
1575307541.738902,261791.000,45209,1,T0,1,100,31.695
1575307541.863439,261896.000,45227,1,T0,1,100,31.722
1575307541.992720,262005.000,45245,1,T0,1,100,31.690
1575307542.120815,262113.000,45263,1,T0,1,100,31.717
1575307542.246537,262219.000,45281,1,T0,1,100,31.711
1575307542.377004,262329.000,45300,1,T0,1,100,31.711
1575307542.503913,262436.000,45318,1,T0,1,100,31.690
1575307542.630822,262543.000,45336,1,T0,1,100,31.706
1575307542.769591,262660.000,45353,1,T0,1,100,31.658
1575307542.908361,262777.000,45387,1,T0,1,100,31.690
1575307543.037642,262886.000,45405,1,T0,1,100,31.701
1575307543.174039,263001.000,45423,1,T0,1,100,31.722
1575307543.300948,263108.000,45442,1,T0,1,100,31.711
1575307543.432008,263218.500,45463,2,T0,1,100,31.701
1575307543.563068,263329.000,45463,2,T0,1,100,31.727
1575307543.700652,263445.000,45499,1,T0,1,100,31.695
1575307543.832305,263556.000,45517,1,T0,1,100,31.701
1575307543.959213,263663.000,45535,1,T0,1,100,31.690
1575307544.092053,263775.000,45553,1,T0,1,100,31.706
1575307544.229636,263891.000,45571,1,T0,1,100,31.706
1575307544.366033,264006.000,45590,1,T0,1,100,31.706
1575307544.495314,264115.000,45608,1,T0,1,100,31.722
1575307544.621037,264221.000,45626,1,T0,1,100,31.717
1575307544.756248,264335.000,45643,1,T0,1,100,31.701
1575307544.896204,264453.000,45677,1,T0,1,100,31.711
1575307545.033787,264569.000,45695,1,T0,1,100,31.690
1575307545.158324,264674.000,45713,1,T0,1,100,31.701
1575307545.286419,264782.000,45732,1,T0,1,100,31.717
1575307545.420444,264895.000,45750,1,T0,1,100,31.706
1575307545.558028,265011.000,45768,1,T0,1,100,31.706
1575307545.690867,265123.000,45786,1,T0,1,100,31.754
1575307545.828450,265239.000,45803,1,T0,1,100,31.706
1575307545.964847,265354.000,45821,1,T0,1,100,31.727
1575307546.098873,265467.000,45855,1,T0,1,100,31.722
1575307546.236456,265583.000,45874,1,T0,1,100,31.701
1575307546.365737,265692.000,45892,1,T0,1,100,31.695
1575307546.496204,265802.000,45910,1,T0,1,100,31.685
1575307546.623113,265909.000,45928,1,T0,1,100,31.717
1575307546.755952,266021.000,45946,1,T0,1,100,31.749
1575307546.892349,266136.000,45964,1,T0,1,100,31.706
1575307547.026375,266249.000,45981,1,T0,1,100,31.727
1575307547.160400,266362.000,45999,1,T0,1,100,31.717
1575307547.287308,266469.000,46034,1,T0,1,100,31.711
1575307547.414217,266576.000,46052,1,T0,1,100,31.685
1575307547.544684,266686.000,46070,1,T0,1,100,31.749
1575307547.678710,266799.000,46088,1,T0,1,100,31.711
1575307547.812735,266912.000,46106,1,T0,1,100,31.706
1575307547.950318,267028.000,46124,1,T0,1,100,31.701
1575307548.077227,267135.000,46142,1,T0,1,100,31.690
1575307548.206508,267244.000,46160,1,T0,1,100,31.733
1575307548.341719,267358.000,46178,1,T0,1,100,31.738
1575307548.482861,267477.000,46212,1,T0,1,100,31.727
1575307548.612142,267586.000,46230,1,T0,1,100,31.733
1575307548.737864,267692.000,46248,1,T0,1,100,31.679
1575307548.874262,267807.000,46266,1,T0,1,100,31.722
1575307549.009473,267921.000,46284,1,T0,1,100,31.717
1575307549.147057,268037.000,46302,1,T0,1,100,31.749
1575307549.273965,268144.000,46321,1,T0,1,100,31.733
1575307549.397316,268248.000,46339,1,T0,1,100,31.765
1575307549.536086,268365.000,46360,1,T0,1,100,31.733
1575307549.674855,268482.000,46378,1,T0,1,100,31.749
1575307549.811252,268597.000,46396,1,T0,1,100,31.760
1575307549.953580,268717.000,46414,1,T0,1,100,31.733
1575307550.092350,268834.000,46431,1,T0,1,100,31.733
1575307550.228747,268949.000,46466,1,T0,1,100,31.706
1575307550.368702,269067.000,46486,1,T0,1,100,31.722
1575307550.501541,269179.000,46504,1,T0,1,100,31.749
1575307550.639125,269295.000,46522,1,T0,1,100,31.744
1575307550.766034,269402.000,46540,1,T0,1,100,31.738
1575307550.896501,269512.000,46558,1,T0,1,100,31.749
1575307551.029340,269624.000,46576,1,T0,1,100,31.733
1575307551.169295,269742.000,46594,1,T0,1,100,31.738
1575307551.304507,269856.000,46628,1,T0,1,100,31.749
1575307551.445648,269975.000,46646,1,T0,1,100,31.717
1575307551.573743,270083.000,46664,1,T0,1,100,31.717
1575307551.700652,270190.000,46682,1,T0,1,100,31.770
1575307551.831119,270300.000,46700,1,T0,1,100,31.722
1575307551.967516,270415.000,46718,1,T0,1,100,31.781
1575307552.105100,270531.000,46736,1,T0,1,100,31.717
1575307552.229636,270636.000,46754,1,T0,1,100,31.744
1575307552.358917,270745.000,46773,1,T0,1,100,31.749
1575307552.497687,270862.000,46790,1,T0,1,100,31.744
1575307552.634084,270977.000,46824,1,T0,1,100,31.754
1575307552.765737,271088.000,46842,1,T0,1,100,31.797
1575307552.893832,271196.000,46860,1,T0,1,100,31.803
1575307553.023113,271305.000,46878,1,T0,1,100,31.781
1575307553.161883,271422.000,46896,1,T0,1,100,31.738
1575307553.298280,271537.000,46915,1,T0,1,100,31.744
1575307553.424003,271643.000,46933,1,T0,1,100,31.733
1575307553.552098,271751.000,46951,1,T0,1,100,31.765
1575307553.689681,271867.000,46968,1,T0,1,100,31.754
1575307553.820148,271977.000,46986,1,T0,1,100,31.765
1575307553.957731,272093.000,47020,1,T0,1,100,31.803
1575307554.096501,272210.000,47038,1,T0,1,100,31.749
1575307554.225782,272319.000,47056,1,T0,1,100,31.781
1575307554.364551,272436.000,47075,1,T0,1,100,31.765
1575307554.502135,272552.000,47093,1,T0,1,100,31.776
1575307554.632602,272662.000,47111,1,T0,1,100,31.776
1575307554.771371,272779.000,47128,1,T0,1,100,31.770
1575307554.897094,272885.000,47146,1,T0,1,100,31.845
1575307555.022817,272991.000,47180,1,T0,1,100,31.792
1575307555.160400,273107.000,47198,1,T0,1,100,31.765
1575307555.297984,273223.000,47217,1,T0,1,100,31.786
1575307555.432009,273336.000,47235,1,T0,1,100,31.765
1575307555.558918,273443.000,47254,1,T0,1,100,31.760
1575307555.690571,273554.000,47272,1,T0,1,100,31.786
1575307555.823410,273666.000,47289,1,T0,1,100,31.797
1575307555.962179,273783.000,47307,1,T0,1,100,31.776
1575307556.093832,273894.000,47329,1,T0,1,100,31.765
1575307556.217183,273998.000,47347,1,T0,1,100,31.786
1575307556.351208,274111.000,47366,1,T0,1,100,31.808
1575307556.489978,274228.000,47384,1,T0,1,100,31.754
1575307556.626375,274343.000,47402,1,T0,1,100,31.808
1575307556.752098,274449.000,47419,1,T0,1,100,31.819
1575307556.881379,274558.000,47437,1,T0,1,100,31.803
1575307557.014218,274670.000,47471,1,T0,1,100,31.813
1575307557.151801,274786.000,47489,1,T0,1,100,31.803
1575307557.287013,274900.000,47508,1,T0,1,100,31.813
1575307557.410363,275004.000,47526,1,T0,1,100,31.797
1575307557.542016,275115.000,47544,1,T0,1,100,31.792
1575307557.671297,275224.000,47562,1,T0,1,100,31.803
1575307557.795834,275329.000,47580,1,T0,1,100,31.829
1575307557.926301,275439.000,47598,1,T0,1,100,31.797
1575307558.054396,275547.000,47616,1,T0,1,100,31.835
1575307558.178933,275652.000,47633,1,T0,1,100,31.792
1575307558.310586,275763.000,47652,1,T0,1,100,31.776
1575307558.445797,275877.000,47686,1,T0,1,100,31.829
1575307558.579822,275990.000,47704,1,T0,1,100,31.819
1575307558.723336,276111.000,47722,1,T0,1,100,31.786
1575307558.863292,276229.000,47740,1,T0,1,100,31.803
1575307558.989014,276335.000,47758,1,T0,1,100,31.808
1575307559.118295,276444.000,47776,1,T0,1,100,31.819
1575307559.252320,276557.000,47795,1,T0,1,100,31.824
1575307559.386346,276670.000,47812,1,T0,1,100,31.840
1575307559.525115,276787.000,47846,1,T0,1,100,31.813
1575307559.652024,276894.000,47864,1,T0,1,100,31.819
1575307559.776561,276999.000,47882,1,T0,1,100,31.861
1575307559.912958,277114.000,47900,1,T0,1,100,31.829
1575307560.052913,277232.000,47918,1,T0,1,100,31.851
1575307560.184566,277343.000,47936,1,T0,1,100,31.803
1575307560.310289,277449.000,47955,1,T0,1,100,31.840
1575307560.445501,277563.000,47973,1,T0,1,100,31.840
1575307560.583084,277679.000,47990,1,T0,1,100,31.824
1575307560.720667,277795.000,48024,1,T0,1,100,31.845
1575307560.848762,277903.000,48042,1,T0,1,100,31.840
1575307560.972113,278007.000,48060,1,T0,1,100,31.851
1575307561.110882,278124.000,48078,1,T0,1,100,31.861
1575307561.246094,278238.000,48097,1,T0,1,100,31.813
1575307561.380119,278351.000,48115,1,T0,1,100,31.829
1575307561.514144,278464.000,48133,1,T0,1,100,31.797
1575307561.645797,278575.000,48152,1,T0,1,100,31.808
1575307561.784567,278692.000,48174,1,T0,1,100,31.840
1575307561.918592,278805.000,48192,1,T0,1,100,31.851
1575307562.050245,278916.000,48210,1,T0,1,100,31.824
1575307562.187828,279032.000,48228,1,T0,1,100,31.931
1575307562.313551,279138.000,48247,1,T0,1,100,31.861
1575307562.444018,279248.000,48264,1,T0,1,100,31.856
1575307562.575671,279359.000,48282,1,T0,1,100,31.845
1575307562.713255,279475.000,48316,1,T0,1,100,31.856
1575307562.848466,279589.000,48334,1,T0,1,100,31.856
1575307562.987235,279706.000,48352,1,T0,1,100,31.819
1575307563.117702,279816.000,48370,1,T0,1,100,31.840
1575307563.245797,279924.000,48389,1,T0,1,100,31.845
1575307563.376264,280034.000,48407,1,T0,1,100,31.861
1575307563.513848,280150.000,48425,1,T0,1,100,31.867
1575307563.653803,280268.000,48442,1,T0,1,100,31.813
1575307563.775968,280371.000,48460,1,T0,1,100,31.851
1575307563.906435,280481.000,48494,1,T0,1,100,31.867
1575307564.045204,280598.000,48512,1,T0,1,100,31.861
1575307564.181602,280713.000,48531,1,T0,1,100,31.899
1575307564.314441,280825.000,48549,1,T0,1,100,31.840
1575307564.441350,280932.000,48567,1,T0,1,100,31.829
1575307564.570631,281041.000,48585,1,T0,1,100,31.878
1575307564.709400,281158.000,48603,1,T0,1,100,31.915
1575307564.846983,281274.000,48620,1,T0,1,100,31.856
1575307564.975078,281382.000,48638,1,T0,1,100,31.824
1575307565.101987,281489.000,48672,1,T0,1,100,31.835
1575307565.233640,281600.000,48691,1,T0,1,100,31.867
1575307565.368851,281714.000,48709,1,T0,1,100,31.883
1575307565.511179,281834.000,48727,1,T0,1,100,31.856
1575307565.649949,281951.000,48745,1,T0,1,100,31.915
1575307565.786346,282066.000,48763,1,T0,1,100,31.872
1575307565.929860,282187.000,48780,1,T0,1,100,31.899
1575307566.068629,282304.000,48814,1,T0,1,100,31.861
1575307566.205026,282419.000,48833,1,T0,1,100,31.867
1575307566.346168,282538.000,48851,1,T0,1,100,31.883
1575307566.474263,282646.000,48869,1,T0,1,100,31.878
1575307566.598800,282751.000,48887,1,T0,1,100,31.888
1575307566.736383,282867.000,48905,1,T0,1,100,31.910
1575307566.875153,282984.000,48923,1,T0,1,100,31.867
1575307567.011550,283099.000,48940,1,T0,1,100,31.904
1575307567.151505,283217.000,48974,1,T0,1,100,31.910
1575307567.281972,283327.000,48993,1,T0,1,100,31.872
1575307567.405323,283431.000,49011,1,T0,1,100,31.899
1575307567.540534,283545.000,49029,1,T0,1,100,31.878
1575307567.676932,283660.000,49050,1,T0,1,100,31.915
1575307567.812143,283774.000,49070,1,T0,1,100,31.937
1575307567.940238,283882.000,49088,1,T0,1,100,31.931
1575307568.070705,283992.000,49106,1,T0,1,100,31.926
1575307568.204730,284105.000,49125,1,T0,1,100,31.899
1575307568.338755,284218.000,49143,1,T0,1,100,31.899
1575307568.476339,284334.000,49161,1,T0,1,100,31.915
1575307568.600875,284439.000,49179,1,T0,1,100,31.931
1575307568.733715,284551.000,49197,1,T0,1,100,31.878
1575307568.867740,284664.000,49214,1,T0,1,100,31.931
1575307569.004137,284779.000,49248,1,T0,1,100,31.910
1575307569.135790,284890.000,49266,1,T0,1,100,31.953
1575307569.262699,284997.000,49285,1,T0,1,100,31.937
1575307569.394352,285108.000,49303,1,T0,1,100,31.904
1575307569.535494,285227.000,49321,1,T0,1,100,31.963
1575307569.673077,285343.000,49339,1,T0,1,100,31.904
1575307569.804730,285454.000,49357,1,T0,1,100,31.931
1575307569.944686,285572.000,49374,1,T0,1,100,31.915
1575307570.082269,285688.000,49408,1,T0,1,100,31.920
1575307570.215108,285800.000,49427,1,T0,1,100,31.931
1575307570.357436,285920.000,49445,1,T0,1,100,31.947
1575307570.496205,286037.000,49463,1,T0,1,100,31.926
1575307570.624300,286145.000,49481,1,T0,1,100,31.969
1575307570.753581,286254.000,49499,1,T0,1,100,31.899
1575307570.887606,286367.000,49517,1,T0,1,100,31.963
1575307571.020446,286479.000,49534,1,T0,1,100,31.926
1575307571.161587,286598.000,49568,1,T0,1,100,31.953
1575307571.299170,286714.000,49587,1,T0,1,100,31.937
1575307571.429638,286824.000,49605,1,T0,1,100,31.947
1575307571.558918,286933.000,49623,1,T0,1,100,31.979
1575307571.689386,287043.000,49641,1,T0,1,100,31.963
1575307571.823411,287156.000,49659,1,T0,1,100,31.963
1575307571.963366,287274.000,49677,1,T0,1,100,31.947
1575307572.092647,287383.000,49694,1,T0,1,100,31.931
1575307572.217184,287488.000,49712,1,T0,1,100,31.963
1575307572.352395,287602.000,49731,1,T0,1,100,31.996
1575307572.491165,287719.000,49765,1,T0,1,100,31.953
1575307572.626376,287833.000,49783,1,T0,1,100,31.931
1575307572.750913,287938.000,49801,1,T0,1,100,31.958
1575307572.880194,288047.000,49819,1,T0,1,100,31.915
1575307573.015405,288161.000,49837,1,T0,1,100,31.969
1575307573.152988,288277.000,49855,1,T0,1,100,31.979
1575307573.285827,288389.000,49874,1,T0,1,100,31.937
1575307573.409178,288493.000,49891,1,T0,1,100,31.974
1575307573.543203,288606.000,49909,1,T0,1,100,31.947
1575307573.671891,288714.500,49946,2,T0,1,100,31.985
1575307573.800579,288823.000,49946,2,T0,1,100,32.022
1575307573.933418,288935.000,49966,1,T0,1,100,31.958
1575307574.062699,289044.000,49984,1,T0,1,100,31.996
1575307574.193166,289154.000,50002,1,T0,1,100,31.947
1575307574.335494,289274.000,50020,1,T0,1,100,31.953
1575307574.471891,289389.000,50054,1,T0,1,100,32.006
1575307574.607103,289503.000,50072,1,T0,1,100,31.974
1575307574.739942,289615.000,50090,1,T0,1,100,31.969
1575307574.868037,289723.000,50108,1,T0,1,100,31.979
1575307574.998504,289833.000,50126,1,T0,1,100,31.953
1575307575.138459,289951.000,50144,1,T0,1,100,31.985
1575307575.273670,290065.000,50163,1,T0,1,100,31.979
1575307575.407696,290178.000,50180,1,T0,1,100,31.953
1575307575.544093,290293.000,50214,1,T0,1,100,31.990
1575307575.669816,290399.000,50232,1,T0,1,100,31.979
1575307575.797911,290507.000,50250,1,T0,1,100,31.990
1575307575.935494,290623.000,50268,1,T0,1,100,31.990
1575307576.076636,290742.000,50286,1,T0,1,100,31.996
1575307576.205917,290851.000,50304,1,T0,1,100,32.006
1575307576.331639,290957.000,50323,1,T0,1,100,32.012
1575307576.468037,291072.000,50341,1,T0,1,100,32.012
1575307576.604434,291187.000,50358,1,T0,1,100,32.028
1575307576.742018,291303.000,50392,1,T0,1,100,31.996
1575307576.866554,291408.000,50410,1,T0,1,100,31.974
1575307576.991091,291513.000,50428,1,T0,1,100,31.990
1575307577.129860,291630.000,50446,1,T0,1,100,32.028
1575307577.265072,291744.000,50465,1,T0,1,100,32.001
1575307577.396725,291855.000,50483,1,T0,1,100,32.038
1575307577.531936,291969.000,50501,1,T0,1,100,32.001
1575307577.661217,292078.000,50519,1,T0,1,100,32.001
1575307577.795242,292191.000,50536,1,T0,1,100,32.044
1575307577.930453,292305.000,50554,1,T0,1,100,32.028
1575307578.058548,292413.000,50588,1,T0,1,100,31.996
1575307578.183085,292518.000,50607,1,T0,1,100,32.006
1575307578.321854,292635.000,50625,1,T0,1,100,32.006
1575307578.452322,292745.000,50643,1,T0,1,100,32.006
1575307578.585161,292857.000,50661,1,T0,1,100,32.017
1575307578.725116,292975.000,50679,1,T0,1,100,32.028
1575307578.859141,293088.000,50697,1,T0,1,100,31.985
1575307578.982492,293192.000,50715,1,T0,1,100,32.001
1575307579.116517,293305.000,50732,1,T0,1,100,32.017
1575307579.245798,293414.000,50751,1,T0,1,100,32.017
1575307579.377451,293525.000,50785,1,T0,1,100,32.022
1575307579.513849,293640.000,50803,1,T0,1,100,32.055
1575307579.649060,293754.000,50821,1,T0,1,100,32.028
1575307579.776562,293861.500,50842,2,T0,1,100,32.028
1575307579.904064,293969.000,50842,2,T0,1,100,32.001
1575307580.042833,294086.000,50878,1,T0,1,100,32.049
1575307580.179230,294201.000,50897,1,T0,1,100,32.065
1575307580.310884,294312.000,50915,1,T0,1,100,32.055
1575307580.438978,294420.000,50933,1,T0,1,100,32.049
1575307580.570632,294531.000,50951,1,T0,1,100,32.028
1575307580.709401,294648.000,50969,1,T0,1,100,32.049
1575307580.848171,294765.000,50987,1,T0,1,100,32.065
1575307580.972707,294870.000,51004,1,T0,1,100,32.033
1575307581.101988,294979.000,51022,1,T0,1,100,32.049
1575307581.234827,295091.000,51040,1,T0,1,100,32.038
1575307581.371225,295206.000,51075,1,T0,1,100,32.060
1575307581.513552,295326.000,51093,1,T0,1,100,32.028
1575307581.652322,295443.000,51111,1,T0,1,100,32.001
1575307581.787533,295557.000,51129,1,T0,1,100,32.044
1575307581.929861,295677.000,51147,1,T0,1,100,32.049
1575307582.063886,295790.000,51164,1,T0,1,100,32.076
1575307582.196725,295902.000,51199,1,T0,1,100,32.038
1575307582.324820,296010.000,51217,1,T0,1,100,32.071
1575307582.461217,296125.000,51235,1,T0,1,100,32.060
1575307582.589312,296233.000,51253,1,T0,1,100,32.087
1575307582.728081,296350.000,51271,1,T0,1,100,32.097
1575307582.865665,296466.000,51289,1,T0,1,100,32.065
1575307582.999690,296579.000,51307,1,T0,1,100,32.071
1575307583.126599,296686.000,51324,1,T0,1,100,32.065
1575307583.259438,296798.000,51343,1,T0,1,100,32.087
1575307583.392277,296910.000,51361,1,T0,1,100,32.060
1575307583.531047,297027.000,51395,1,T0,1,100,32.049
1575307583.662700,297138.000,51413,1,T0,1,100,32.065
1575307583.787236,297243.000,51431,1,T0,1,100,32.060
1575307583.922448,297357.000,51449,1,T0,1,100,32.071
1575307584.061217,297474.000,51467,1,T0,1,100,32.071
1575307584.198801,297590.000,51485,1,T0,1,100,32.076
1575307584.323337,297695.000,51504,1,T0,1,100,32.038
1575307584.453804,297805.000,51521,1,T0,1,100,32.060
1575307584.586643,297917.000,51539,1,T0,1,100,32.060
1575307584.724227,298033.000,51573,1,T0,1,100,32.087
1575307584.859438,298147.000,51591,1,T0,1,100,32.060
1575307584.982789,298251.000,51609,1,T0,1,100,32.087
1575307585.114442,298362.000,51627,1,T0,1,100,32.092
1575307585.252025,298478.000,51646,1,T0,1,100,32.092
1575307585.384865,298590.000,51664,1,T0,1,100,32.097
1575307585.527192,298710.000,51682,1,T0,1,100,32.087
1575307585.664776,298826.000,51699,1,T0,1,100,32.097
1575307585.802952,298942.500,51736,2,T0,1,100,32.076
1575307585.941128,299059.000,51736,2,T0,1,100,32.060
1575307586.075154,299172.000,51756,1,T0,1,100,32.060
1575307586.211551,299287.000,51773,1,T0,1,100,32.087
1575307586.346762,299401.000,51808,1,T0,1,100,32.076
1575307586.476043,299510.000,51826,1,T0,1,100,32.103
1575307586.604138,299618.000,51844,1,T0,1,100,32.087
1575307586.733419,299727.000,51862,1,T0,1,100,32.081
1575307586.868630,299841.000,51880,1,T0,1,100,32.114
1575307587.002656,299954.000,51898,1,T0,1,100,32.081
1575307587.141425,300071.000,51916,1,T0,1,100,32.076
1575307587.268334,300178.000,51935,1,T0,1,100,32.103
1575307587.394057,300284.000,51952,1,T0,1,100,32.087
1575307587.530454,300399.000,51970,1,T0,1,100,32.097
1575307587.669224,300516.000,52004,1,T0,1,100,32.092
1575307587.800877,300627.000,52022,1,T0,1,100,32.097
1575307587.925413,300732.000,52040,1,T0,1,100,32.092
1575307588.060625,300846.000,52058,1,T0,1,100,32.071
1575307588.198208,300962.000,52076,1,T0,1,100,32.092
1575307588.335791,301078.000,52095,1,T0,1,100,32.092
1575307588.463886,301186.000,52113,1,T0,1,100,32.135
1575307588.587237,301290.000,52131,1,T0,1,100,32.087
1575307588.726006,301407.000,52148,1,T0,1,100,32.108
1575307588.861217,301521.000,52182,1,T0,1,100,32.087
1575307588.997615,301636.000,52200,1,T0,1,100,32.114
1575307589.122152,301741.000,52218,1,T0,1,100,32.114
1575307589.256177,301854.000,52237,1,T0,1,100,32.087
1575307589.379528,301958.000,52255,1,T0,1,100,32.108
1575307589.515925,302073.000,52273,1,T0,1,100,32.108
1575307589.648764,302185.000,52291,1,T0,1,100,32.071
1575307589.773301,302290.000,52309,1,T0,1,100,32.097
1575307589.908512,302404.000,52327,1,T0,1,100,32.108
1575307590.040165,302515.000,52344,1,T0,1,100,32.124
1575307590.173004,302627.000,52362,1,T0,1,100,32.135
1575307590.312960,302745.000,52397,1,T0,1,100,32.103
1575307590.446985,302858.000,52415,1,T0,1,100,32.114
1575307590.585754,302975.000,52433,1,T0,1,100,32.119
1575307590.716221,303085.000,52451,1,T0,1,100,32.114
1575307590.844316,303193.000,52469,1,T0,1,100,32.124
1575307590.974783,303303.000,52487,1,T0,1,100,32.140
1575307591.113553,303420.000,52505,1,T0,1,100,32.087
1575307591.252322,303537.000,52539,1,T0,1,100,32.151
1575307591.374487,303640.000,52557,1,T0,1,100,32.108
1575307591.504954,303750.000,52575,1,T0,1,100,32.108
1575307591.641351,303865.000,52593,1,T0,1,100,32.140
1575307591.777749,303980.000,52611,1,T0,1,100,32.146
1575307591.907623,304089.500,52632,2,T0,1,100,32.103
1575307592.037497,304199.000,52632,2,T0,1,100,32.146
1575307592.166777,304308.000,52669,1,T0,1,100,32.140
1575307592.301989,304422.000,52687,1,T0,1,100,32.130
1575307592.443130,304541.000,52705,1,T0,1,100,32.151
1575307592.570039,304648.000,52723,1,T0,1,100,32.146
1575307592.698134,304756.000,52741,1,T0,1,100,32.167
1575307592.829787,304867.000,52759,1,T0,1,100,32.114
1575307592.964998,304981.000,52777,1,T0,1,100,32.162
1575307593.103768,305098.000,52794,1,T0,1,100,32.108
1575307593.230677,305205.000,52812,1,T0,1,100,32.103
1575307593.361144,305315.000,52847,1,T0,1,100,32.135
1575307593.497541,305430.000,52865,1,T0,1,100,32.156
1575307593.626822,305539.000,52883,1,T0,1,100,32.173
1575307593.757289,305649.000,52901,1,T0,1,100,32.151
1575307593.892500,305763.000,52919,1,T0,1,100,32.146
1575307594.019409,305870.000,52937,1,T0,1,100,32.151
1575307594.143946,305975.000,52955,1,T0,1,100,32.162
1575307594.281529,306091.000,52974,1,T0,1,100,32.130
1575307594.419113,306207.000,52991,1,T0,1,100,32.135
1575307594.555510,306322.000,53025,1,T0,1,100,32.162
1575307594.695466,306440.000,53043,1,T0,1,100,32.151
1575307594.827119,306551.000,53061,1,T0,1,100,32.162
1575307594.950469,306655.000,53079,1,T0,1,100,32.124
1575307595.086867,306770.000,53097,1,T0,1,100,32.156
1575307595.217334,306880.000,53116,1,T0,1,100,32.140
1575307595.348987,306991.000,53134,1,T0,1,100,32.135
1575307595.485384,307106.000,53152,1,T0,1,100,32.151
1575307595.619409,307219.000,53169,1,T0,1,100,32.146
1575307595.742760,307323.000,53187,1,T0,1,100,32.178
1575307595.876785,307436.000,53221,1,T0,1,100,32.156
1575307596.015555,307553.000,53239,1,T0,1,100,32.124
1575307596.151952,307668.000,53258,1,T0,1,100,32.173
1575307596.280047,307776.000,53276,1,T0,1,100,32.156
1575307596.409328,307885.000,53294,1,T0,1,100,32.162
1575307596.542167,307997.000,53312,1,T0,1,100,32.151
1575307596.680936,308114.000,53330,1,T0,1,100,32.178
1575307596.818520,308230.000,53347,1,T0,1,100,32.189
1575307596.941870,308334.000,53365,1,T0,1,100,32.173
1575307597.072337,308444.000,53399,1,T0,1,100,32.173
1575307597.206363,308557.000,53418,1,T0,1,100,32.151
1575307597.342760,308672.000,53436,1,T0,1,100,32.156
1575307597.485088,308792.000,53454,1,T0,1,100,32.135
1575307597.625043,308910.000,53472,1,T0,1,100,32.189
1575307597.761441,309025.000,53490,1,T0,1,100,32.189
1575307597.903768,309145.000,53507,1,T0,1,100,32.162
1575307598.042538,309262.000,53528,1,T0,1,100,32.162
1575307598.170633,309370.000,53548,1,T0,1,100,32.178
1575307598.305844,309484.000,53567,1,T0,1,100,32.215
1575307598.432753,309591.000,53584,1,T0,1,100,32.183
1575307598.559661,309698.000,53602,1,T0,1,100,32.189
1575307598.697245,309814.000,53636,1,T0,1,100,32.156
1575307598.834828,309930.000,53654,1,T0,1,100,32.194
1575307598.964109,310039.000,53672,1,T0,1,100,32.199
1575307599.092204,310147.000,53690,1,T0,1,100,32.146
1575307599.225043,310259.000,53709,1,T0,1,100,32.151
1575307599.357882,310371.000,53727,1,T0,1,100,32.205
1575307599.497838,310489.000,53745,1,T0,1,100,32.194
1575307599.627119,310598.000,53762,1,T0,1,100,32.173
1575307599.754028,310705.000,53780,1,T0,1,100,32.210
1575307599.889239,310819.000,53798,1,T0,1,100,32.183
1575307600.029195,310937.000,53832,1,T0,1,100,32.194
1575307600.165592,311052.000,53851,1,T0,1,100,32.162
1575307600.292501,311159.000,53869,1,T0,1,100,32.156
1575307600.420596,311267.000,53887,1,T0,1,100,32.189
1575307600.556993,311382.000,53905,1,T0,1,100,32.210
1575307600.694576,311498.000,53923,1,T0,1,100,32.215
1575307600.827415,311610.000,53940,1,T0,1,100,32.205
1575307600.950766,311714.000,53958,1,T0,1,100,32.210
1575307601.084791,311827.000,53976,1,T0,1,100,32.232
1575307601.217630,311939.000,54011,1,T0,1,100,32.189
1575307601.342167,312044.000,54029,1,T0,1,100,32.221
1575307601.479751,312160.000,54047,1,T0,1,100,32.205
1575307601.617334,312276.000,54065,1,T0,1,100,32.199
1575307601.751359,312389.000,54083,1,T0,1,100,32.210
1575307601.893687,312509.000,54101,1,T0,1,100,32.215
1575307602.031270,312625.000,54119,1,T0,1,100,32.221
1575307602.165295,312738.000,54136,1,T0,1,100,32.199
1575307602.305251,312856.000,54171,1,T0,1,100,32.215
1575307602.444021,312973.000,54189,1,T0,1,100,32.189
1575307602.568557,313078.000,54207,1,T0,1,100,32.215
1575307602.700210,313189.000,54225,1,T0,1,100,32.215
1575307602.837794,313305.000,54243,1,T0,1,100,32.205
1575307602.968261,313415.000,54261,1,T0,1,100,32.178
1575307603.107030,313532.000,54279,1,T0,1,100,32.205
1575307603.245800,313649.000,54313,1,T0,1,100,32.215
1575307603.370336,313754.000,54331,1,T0,1,100,32.194
1575307603.500803,313864.000,54349,1,T0,1,100,32.178
1575307603.636015,313978.000,54367,1,T0,1,100,32.248
1575307603.768854,314090.000,54385,1,T0,1,100,32.183
1575307603.908809,314208.000,54403,1,T0,1,100,32.237
1575307604.035718,314315.000,54424,1,T0,1,100,32.237
1575307604.164999,314424.000,54445,1,T0,1,100,32.199
1575307604.299024,314537.000,54463,1,T0,1,100,32.232
1575307604.438980,314655.000,54481,1,T0,1,100,32.215
1575307604.570633,314766.000,54499,1,T0,1,100,32.221
1575307604.696356,314872.000,54517,1,T0,1,100,32.215
1575307604.828009,314983.000,54535,1,T0,1,100,32.221
1575307604.964406,315098.000,54553,1,T0,1,100,32.242
1575307605.101990,315214.000,54570,1,T0,1,100,32.215
1575307605.232456,315324.000,54605,1,T0,1,100,32.221
1575307605.367668,315438.000,54623,1,T0,1,100,32.242
1575307605.502879,315552.000,54641,1,T0,1,100,32.248
1575307605.629788,315659.000,54659,1,T0,1,100,32.221
1575307605.755511,315765.000,54677,1,T0,1,100,32.242
1575307605.894280,315882.000,54695,1,T0,1,100,32.264
1575307606.029491,315996.000,54713,1,T0,1,100,32.221
1575307606.152842,316100.000,54731,1,T0,1,100,32.205
1575307606.289239,316215.000,54750,1,T0,1,100,32.253
1575307606.425637,316330.000,54767,1,T0,1,100,32.232
1575307606.563220,316446.000,54801,1,T0,1,100,32.199
1575307606.698431,316560.000,54819,1,T0,1,100,32.253
1575307606.833643,316674.000,54837,1,T0,1,100,32.264
1575307606.958179,316779.000,54855,1,T0,1,100,32.232
1575307607.093391,316893.000,54873,1,T0,1,100,32.248
1575307607.228602,317007.000,54892,1,T0,1,100,32.242
1575307607.362627,317120.000,54910,1,T0,1,100,32.269
1575307607.493094,317230.000,54927,1,T0,1,100,32.226
1575307607.621189,317338.000,54945,1,T0,1,100,32.248
1575307607.752842,317449.000,54979,1,T0,1,100,32.232
1575307607.888053,317563.000,54997,1,T0,1,100,32.242
1575307608.029195,317682.000,55015,1,T0,1,100,32.269
1575307608.153732,317787.000,55033,1,T0,1,100,32.237
1575307608.280641,317894.000,55052,1,T0,1,100,32.269
1575307608.419410,318011.000,55070,1,T0,1,100,32.232
1575307608.555807,318126.000,55088,1,T0,1,100,32.221
1575307608.689832,318239.000,55105,1,T0,1,100,32.253
1575307608.815555,318345.000,55123,1,T0,1,100,32.232
1575307608.943650,318453.000,55141,1,T0,1,100,32.226
1575307609.082420,318570.000,55175,1,T0,1,100,32.285
1575307609.221189,318687.000,55194,1,T0,1,100,32.274
1575307609.358773,318803.000,55212,1,T0,1,100,32.253
1575307609.501100,318923.000,55230,1,T0,1,100,32.269
1575307609.639870,319040.000,55248,1,T0,1,100,32.264
1575307609.775081,319154.000,55265,1,T0,1,100,32.253
1575307609.917409,319274.000,55299,1,T0,1,100,32.226
1575307610.051434,319387.000,55320,2,T0,1,100,32.269
1575307610.185459,319500.000,55320,2,T0,1,100,32.237
1575307610.313554,319608.000,55341,1,T0,1,100,32.274
1575307610.448765,319722.000,55376,1,T0,1,100,32.258
1575307610.576860,319830.000,55393,1,T0,1,100,32.258
1575307610.714443,319946.000,55411,1,T0,1,100,32.253
1575307610.852027,320062.000,55429,1,T0,1,100,32.307
1575307610.987238,320176.000,55447,1,T0,1,100,32.274
1575307611.114147,320283.000,55465,1,T0,1,100,32.269
1575307611.245800,320394.000,55484,1,T0,1,100,32.296
1575307611.378639,320506.000,55502,1,T0,1,100,32.280
1575307611.516223,320622.000,55519,1,T0,1,100,32.269
1575307611.647876,320733.000,55554,1,T0,1,100,32.269
1575307611.772412,320838.000,55571,1,T0,1,100,32.312
1575307611.906438,320951.000,55589,1,T0,1,100,32.301
1575307612.045207,321068.000,55607,1,T0,1,100,32.312
1575307612.182791,321184.000,55625,1,T0,1,100,32.328
1575307612.308513,321290.000,55644,1,T0,1,100,32.280
1575307612.438980,321400.000,55662,1,T0,1,100,32.269
1575307612.571820,321512.000,55680,1,T0,1,100,32.280
1575307612.709403,321628.000,55698,1,T0,1,100,32.307
1575307612.844614,321742.000,55715,1,T0,1,100,32.328
1575307612.967965,321846.000,55750,1,T0,1,100,32.291
1575307613.099618,321957.000,55767,1,T0,1,100,32.307
1575307613.238387,322074.000,55786,1,T0,1,100,32.285
1575307613.372412,322187.000,55804,1,T0,1,100,32.312
1575307613.514740,322307.000,55822,1,T0,1,100,32.301
1575307613.652323,322423.000,55840,1,T0,1,100,32.301
1575307613.786349,322536.000,55857,1,T0,1,100,32.307
1575307613.928676,322656.000,55891,1,T0,1,100,32.290
1575307614.066260,322772.000,55909,1,T0,1,100,32.328
1575307614.199099,322884.000,55928,1,T0,1,100,32.328
1575307614.335496,322999.000,55946,1,T0,1,100,32.296
1575307614.463591,323107.000,55964,1,T0,1,100,32.312
1575307614.591686,323215.000,55982,1,T0,1,100,32.301
1575307614.720967,323324.000,56000,1,T0,1,100,32.317
1575307614.856178,323438.000,56018,1,T0,1,100,32.333
1575307614.990204,323551.000,56035,1,T0,1,100,32.333
1575307615.128973,323668.000,56069,1,T0,1,100,32.339
1575307615.255882,323775.000,56088,1,T0,1,100,32.349
1575307615.380419,323880.000,56106,1,T0,1,100,32.323
1575307615.516816,323995.000,56124,1,T0,1,100,32.317
1575307615.655585,324112.000,56142,1,T0,1,100,32.323
1575307615.787238,324223.000,56160,1,T0,1,100,32.355
1575307615.911775,324328.000,56178,1,T0,1,100,32.349
1575307616.046986,324442.000,56196,1,T0,1,100,32.317
1575307616.184570,324558.000,56217,1,T0,1,100,32.333
1575307616.320967,324673.000,56238,1,T0,1,100,32.344
1575307616.450248,324782.000,56256,1,T0,1,100,32.355
1575307616.573599,324886.000,56274,1,T0,1,100,32.360
1575307616.712368,325003.000,56292,1,T0,1,100,32.349
1575307616.847579,325117.000,56310,1,T0,1,100,32.339
1575307616.983977,325232.000,56327,1,T0,1,100,32.296
1575307617.119188,325346.000,56361,1,T0,1,100,32.349
1575307617.250841,325457.000,56380,1,T0,1,100,32.355
1575307617.375378,325562.000,56398,1,T0,1,100,32.366
1575307617.512961,325678.000,56416,1,T0,1,100,32.328
1575307617.646986,325791.000,56434,1,T0,1,100,32.333
1575307617.771523,325896.000,56452,1,T0,1,100,32.349
1575307617.905548,326009.000,56470,1,T0,1,100,32.360
1575307618.036016,326119.000,56488,1,T0,1,100,32.349
1575307618.167669,326230.000,56505,1,T0,1,100,32.355
1575307618.308810,326349.000,56540,1,T0,1,100,32.360
1575307618.445207,326464.000,56558,1,T0,1,100,32.387
1575307618.580419,326578.000,56576,1,T0,1,100,32.333
1575307618.710886,326688.000,56594,1,T0,1,100,32.392
1575307618.838981,326796.000,56612,1,T0,1,100,32.371
1575307618.969448,326906.000,56630,1,T0,1,100,32.349
1575307619.107031,327022.000,56648,1,T0,1,100,32.366
1575307619.245800,327139.000,56667,1,T0,1,100,32.419
1575307619.367965,327242.000,56684,1,T0,1,100,32.376
1575307619.498432,327352.000,56702,1,T0,1,100,32.366
1575307619.636016,327468.000,56736,1,T0,1,100,32.360
1575307619.772413,327583.000,56754,1,T0,1,100,32.349
1575307619.905252,327695.000,56772,1,T0,1,100,32.360
1575307620.032161,327802.000,56790,1,T0,1,100,32.392
1575307620.161442,327911.000,56808,1,T0,1,100,32.376
1575307620.300211,328028.000,56827,1,T0,1,100,32.376
1575307620.437795,328144.000,56845,1,T0,1,100,32.366
1575307620.565890,328252.000,56862,1,T0,1,100,32.414
1575307620.692798,328359.000,56880,1,T0,1,100,32.360
1575307620.824451,328470.000,56914,1,T0,1,100,32.376
1575307620.959663,328584.000,56932,1,T0,1,100,32.392
1575307621.101990,328704.000,56950,1,T0,1,100,32.360
1575307621.240760,328821.000,56969,1,T0,1,100,32.419
1575307621.377157,328936.000,56987,1,T0,1,100,32.382
1575307621.520671,329057.000,57005,1,T0,1,100,32.382
1575307621.659441,329174.000,57038,1,T0,1,100,32.392
1575307621.795838,329289.000,57056,1,T0,1,100,32.382
1575307621.935793,329407.000,57074,1,T0,1,100,32.371
1575307622.063888,329515.000,57092,1,T0,1,100,32.403
1575307622.196134,329626.500,57113,2,T0,1,100,32.376
1575307622.328380,329738.000,57113,2,T0,1,100,32.387
1575307622.460033,329849.000,57150,1,T0,1,100,32.387
1575307622.594059,329962.000,57168,1,T0,1,100,32.408
1575307622.734014,330080.000,57186,1,T0,1,100,32.398
1575307622.866853,330192.000,57204,1,T0,1,100,32.387
1575307623.006809,330310.000,57222,1,T0,1,100,32.408
1575307623.133718,330417.000,57240,1,T0,1,100,32.403
1575307623.261813,330525.000,57259,1,T0,1,100,32.392
1575307623.393466,330636.000,57276,1,T0,1,100,32.430
1575307623.529863,330751.000,57310,1,T0,1,100,32.371
1575307623.665074,330865.000,57328,1,T0,1,100,32.398
1575307623.789611,330970.000,57346,1,T0,1,100,32.376
1575307623.922450,331082.000,57364,1,T0,1,100,32.425
1575307624.061220,331199.000,57382,1,T0,1,100,32.419
1575307624.197617,331314.000,57400,1,T0,1,100,32.398
1575307624.326898,331423.000,57419,1,T0,1,100,32.414
1575307624.454993,331531.000,57437,1,T0,1,100,32.425
1575307624.586646,331642.000,57454,1,T0,1,100,32.408
1575307624.725415,331759.000,57488,1,T0,1,100,32.419
1575307624.862999,331875.000,57506,1,T0,1,100,32.430
1575307624.986349,331979.000,57524,1,T0,1,100,32.435
1575307625.116817,332089.000,57542,1,T0,1,100,32.446
1575307625.255586,332206.000,57561,1,T0,1,100,32.392
1575307625.386053,332316.000,57579,1,T0,1,100,32.425
1575307625.526008,332434.000,57597,1,T0,1,100,32.441
1575307625.664778,332551.000,57615,1,T0,1,100,32.435
1575307625.796431,332662.000,57632,1,T0,1,100,32.414
1575307625.935200,332779.000,57666,1,T0,1,100,32.430
1575307626.075156,332897.000,57684,1,T0,1,100,32.387
1575307626.211553,333012.000,57702,1,T0,1,100,32.446
1575307626.350323,333129.000,57721,1,T0,1,100,32.414
1575307626.477232,333236.000,57739,1,T0,1,100,32.467
1575307626.602954,333342.000,57757,1,T0,1,100,32.441
1575307626.740538,333458.000,57775,1,T0,1,100,32.435
1575307626.879307,333575.000,57792,1,T0,1,100,32.441
1575307627.014518,333689.000,57826,1,T0,1,100,32.425
1575307627.154474,333807.000,57844,1,T0,1,100,32.441
1575307627.281383,333914.000,57863,1,T0,1,100,32.414
1575307627.407106,334020.000,57881,1,T0,1,100,32.441
1575307627.543503,334135.000,57899,1,T0,1,100,32.419
1575307627.682272,334252.000,57917,1,T0,1,100,32.441
1575307627.816298,334365.000,57935,1,T0,1,100,32.489
1575307627.940835,334470.000,57952,1,T0,1,100,32.425
1575307628.073673,334582.000,57970,1,T0,1,100,32.473
1575307628.210664,334697.500,58008,2,T0,1,100,32.462
1575307628.347654,334813.000,58008,2,T0,1,100,32.441
1575307628.480494,334925.000,58026,1,T0,1,100,32.451
1575307628.602658,335028.000,58045,1,T0,1,100,32.430
1575307628.739055,335143.000,58063,1,T0,1,100,32.446
1575307628.873080,335256.000,58097,1,T0,1,100,32.451
1575307629.010664,335372.000,58115,1,T0,1,100,32.467
1575307629.138759,335480.000,58133,1,T0,1,100,32.441
1575307629.271598,335592.000,58152,1,T0,1,100,32.478
1575307629.396135,335697.000,58170,1,T0,1,100,32.451
1575307629.528974,335809.000,58188,1,T0,1,100,32.398
1575307629.660627,335920.000,58206,1,T0,1,100,32.435
1575307629.785164,336025.000,58224,1,T0,1,100,32.462
1575307629.918003,336137.000,58242,1,T0,1,100,32.435
1575307630.056772,336254.000,58259,1,T0,1,100,32.457
1575307630.189611,336366.000,58294,1,T0,1,100,32.500
1575307630.328381,336483.000,58312,1,T0,1,100,32.484
1575307630.468336,336601.000,58330,1,T0,1,100,32.457
1575307630.592873,336706.000,58348,1,T0,1,100,32.430
1575307630.723340,336816.000,58366,1,T0,1,100,32.473
1575307630.859737,336931.000,58384,1,T0,1,100,32.441
1575307630.992577,337043.000,58402,1,T0,1,100,32.473
1575307631.128974,337158.000,58419,1,T0,1,100,32.457
1575307631.255883,337265.000,58437,1,T0,1,100,32.494
1575307631.383978,337373.000,58472,1,T0,1,100,32.494
1575307631.519189,337487.000,58490,1,T0,1,100,32.489
1575307631.660331,337606.000,58508,1,T0,1,100,32.457
1575307631.789612,337715.000,58526,1,T0,1,100,32.462
1575307631.914148,337820.000,58544,1,T0,1,100,32.425
1575307632.050545,337935.000,58562,1,T0,1,100,32.494
1575307632.186943,338050.000,58580,1,T0,1,100,32.446
1575307632.324526,338166.000,58598,1,T0,1,100,32.489
1575307632.450249,338272.000,58616,1,T0,1,100,32.430
1575307632.574786,338377.000,58634,1,T0,1,100,32.473
1575307632.713555,338494.000,58668,1,T0,1,100,32.451
1575307632.852325,338611.000,58686,1,T0,1,100,32.500
1575307632.988722,338726.000,58704,1,T0,1,100,32.467
1575307633.131050,338846.000,58722,1,T0,1,100,32.457
1575307633.269819,338963.000,58741,1,T0,1,100,32.457
1575307633.406217,339078.000,58758,1,T0,1,100,32.446
1575307633.544986,339195.000,58792,1,T0,1,100,32.478
1575307633.674267,339304.000,58810,1,T0,1,100,32.451
1575307633.809478,339418.000,58828,1,T0,1,100,32.451
1575307633.944690,339532.000,58846,1,T0,1,100,32.451
1575307634.076343,339643.000,58864,1,T0,1,100,32.494
1575307634.199693,339747.000,58882,1,T0,1,100,32.526
1575307634.336091,339862.000,58904,1,T0,1,100,32.494
1575307634.473674,339978.000,58924,1,T0,1,100,32.494
1575307634.608885,340092.000,58942,1,T0,1,100,32.478
1575307634.747655,340209.000,58960,1,T0,1,100,32.473
1575307634.882866,340323.000,58978,1,T0,1,100,32.494
1575307635.006217,340427.000,58996,1,T0,1,100,32.451
1575307635.139056,340539.000,59014,1,T0,1,100,32.478
1575307635.274267,340653.000,59032,1,T0,1,100,32.478
1575307635.407106,340765.000,59066,1,T0,1,100,32.510
1575307635.538759,340876.000,59084,1,T0,1,100,32.500
1575307635.666854,340984.000,59102,1,T0,1,100,32.478
1575307635.799693,341096.000,59120,1,T0,1,100,32.478
1575307635.934905,341210.000,59138,1,T0,1,100,32.473
1575307636.076046,341329.000,59156,1,T0,1,100,32.510
1575307636.200583,341434.000,59174,1,T0,1,100,32.494
1575307636.331050,341544.000,59193,1,T0,1,100,32.467
1575307636.463889,341656.000,59210,1,T0,1,100,32.478
1575307636.600286,341771.000,59228,1,T0,1,100,32.510
1575307636.735498,341885.000,59262,1,T0,1,100,32.494
1575307636.861220,341991.000,59280,1,T0,1,100,32.484
1575307636.990501,342100.000,59298,1,T0,1,100,32.457
1575307637.130457,342218.000,59316,1,T0,1,100,32.484
1575307637.268040,342334.000,59335,1,T0,1,100,32.532
1575307637.396135,342442.000,59353,1,T0,1,100,32.526
1575307637.533719,342558.000,59371,1,T0,1,100,32.516
1575307637.672488,342675.000,59388,1,T0,1,100,32.478
1575307637.800583,342783.000,59406,1,T0,1,100,32.500
1575307637.939353,342900.000,59440,1,T0,1,100,32.532
1575307638.076936,343016.000,59458,1,T0,1,100,32.526
1575307638.208589,343127.000,59476,1,T0,1,100,32.505
1575307638.347358,343244.000,59495,1,T0,1,100,32.500
1575307638.475453,343352.000,59513,1,T0,1,100,32.516
1575307638.599990,343457.000,59531,1,T0,1,100,32.521
1575307638.737573,343573.000,59549,1,T0,1,100,32.521
1575307638.875157,343689.000,59566,1,T0,1,100,32.473
1575307639.009182,343802.000,59600,1,T0,1,100,32.500
1575307639.136091,343909.000,59618,1,T0,1,100,32.500
1575307639.267744,344020.000,59637,1,T0,1,100,32.548
1575307639.400583,344132.000,59655,1,T0,1,100,32.494
1575307639.539352,344249.000,59673,1,T0,1,100,32.532
1575307639.672192,344361.000,59691,1,T0,1,100,32.526
1575307639.795542,344465.000,59709,1,T0,1,100,32.516
1575307639.929568,344578.000,59727,1,T0,1,100,32.543
1575307640.068337,344695.000,59744,1,T0,1,100,32.548
1575307640.205920,344811.000,59779,1,T0,1,100,32.559
1575307640.333422,344918.500,59800,2,T0,1,100,32.532
1575307640.460924,345026.000,59800,2,T0,1,100,32.494
1575307640.593763,345138.000,59818,1,T0,1,100,32.553
1575307640.731347,345254.000,59835,1,T0,1,100,32.526
1575307640.870116,345371.000,59871,1,T0,1,100,32.543
1575307641.008886,345488.000,59889,1,T0,1,100,32.521
1575307641.140539,345599.000,59907,1,T0,1,100,32.526
1575307641.269820,345708.000,59926,1,T0,1,100,32.543
1575307641.394356,345813.000,59944,1,T0,1,100,32.526
1575307641.524823,345923.000,59962,1,T0,1,100,32.559
1575307641.654104,346032.000,59980,1,T0,1,100,32.526
1575307641.778641,346137.000,59998,1,T0,1,100,32.548
1575307641.910294,346248.000,60016,1,T0,1,100,32.521
1575307642.049064,346365.000,60033,1,T0,1,100,32.553
1575307642.179531,346475.000,60051,1,T0,1,100,32.537
1575307642.318300,346592.000,60086,1,T0,1,100,32.543
1575307642.458256,346710.000,60104,1,T0,1,100,32.516
1575307642.585164,346817.000,60122,1,T0,1,100,32.543
1575307642.719190,346930.000,60140,1,T0,1,100,32.575
1575307642.846098,347037.000,60158,1,T0,1,100,32.521
1575307642.974193,347145.000,60176,1,T0,1,100,32.553
1575307643.110591,347260.000,60194,1,T0,1,100,32.521
1575307643.248174,347376.000,60212,1,T0,1,100,32.543
1575307643.377455,347485.000,60247,1,T0,1,100,32.521
1575307643.505550,347593.000,60264,1,T0,1,100,32.559
1575307643.638389,347705.000,60282,1,T0,1,100,32.569
1575307643.775973,347821.000,60300,1,T0,1,100,32.559
1575307643.913556,347937.000,60318,1,T0,1,100,32.537
1575307644.041651,348045.000,60336,1,T0,1,100,32.591
1575307644.167374,348151.000,60354,1,T0,1,100,32.575
1575307644.306143,348268.000,60373,1,T0,1,100,32.569
1575307644.441354,348382.000,60390,1,T0,1,100,32.537
1575307644.576566,348496.000,60425,1,T0,1,100,32.548
1575307644.701102,348601.000,60442,1,T0,1,100,32.548
1575307644.831569,348711.000,60460,1,T0,1,100,32.575
1575307644.967967,348826.000,60478,1,T0,1,100,32.553
1575307645.110294,348946.000,60496,1,T0,1,100,32.585
1575307645.249064,349063.000,60515,1,T0,1,100,32.564
1575307645.384275,349177.000,60533,1,T0,1,100,32.569
1575307645.521858,349293.000,60550,1,T0,1,100,32.575
1575307645.653512,349404.000,60585,1,T0,1,100,32.569
1575307645.792281,349521.000,60602,1,T0,1,100,32.559
1575307645.927492,349635.000,60620,1,T0,1,100,32.585
1575307646.062704,349749.000,60638,1,T0,1,100,32.575
1575307646.187240,349854.000,60656,1,T0,1,100,32.537
1575307646.322452,349968.000,60675,1,T0,1,100,32.596
1575307646.458849,350083.000,60696,1,T0,1,100,32.591
1575307646.591688,350195.000,60714,1,T0,1,100,32.602
1575307646.730458,350312.000,60732,1,T0,1,100,32.548
1575307646.868041,350428.000,60752,1,T0,1,100,32.596
1575307646.991391,350532.000,60770,1,T0,1,100,32.580
1575307647.123044,350643.000,60788,1,T0,1,100,32.559
1575307647.259442,350758.000,60807,1,T0,1,100,32.585
1575307647.392281,350870.000,60824,1,T0,1,100,32.591
1575307647.527492,350984.000,60858,1,T0,1,100,32.612
1575307647.655587,351092.000,60876,1,T0,1,100,32.618
1575307647.786054,351202.000,60894,1,T0,1,100,32.537
1575307647.921266,351316.000,60912,1,T0,1,100,32.559
1575307648.062407,351435.000,60930,1,T0,1,100,32.580
1575307648.189316,351542.000,60948,1,T0,1,100,32.585
1575307648.318597,351651.000,60967,1,T0,1,100,32.585
1575307648.451436,351763.000,60985,1,T0,1,100,32.607
1575307648.586647,351877.000,61002,1,T0,1,100,32.596
1575307648.724231,351993.000,61036,1,T0,1,100,32.569
1575307648.848768,352098.000,61054,1,T0,1,100,32.591
1575307648.974490,352204.000,61072,1,T0,1,100,32.602
1575307649.110888,352319.000,61090,1,T0,1,100,32.569
1575307649.248471,352435.000,61109,1,T0,1,100,32.575
1575307649.374194,352541.000,61127,1,T0,1,100,32.569
1575307649.510591,352656.000,61145,1,T0,1,100,32.602
1575307649.648175,352772.000,61163,1,T0,1,100,32.612
1575307649.773897,352878.000,61180,1,T0,1,100,32.612
1575307649.912667,352995.000,61198,1,T0,1,100,32.585
1575307650.050250,353111.000,61232,1,T0,1,100,32.516
1575307650.184275,353224.000,61251,1,T0,1,100,32.580
1575307650.321859,353340.000,61269,1,T0,1,100,32.623
1575307650.452326,353450.000,61287,1,T0,1,100,32.564
1575307650.576862,353555.000,61305,1,T0,1,100,32.607
1575307650.714446,353671.000,61323,1,T0,1,100,32.628
1575307650.850843,353786.000,61341,1,T0,1,100,32.585
1575307650.987241,353901.000,61358,1,T0,1,100,32.612
1575307651.114149,354008.000,61392,1,T0,1,100,32.628
1575307651.244616,354118.000,61411,1,T0,1,100,32.591
1575307651.375083,354228.000,61429,1,T0,1,100,32.602
1575307651.511481,354343.000,61447,1,T0,1,100,32.612
1575307651.647878,354458.000,61465,1,T0,1,100,32.591
1575307651.772415,354563.000,61483,1,T0,1,100,32.602
1575307651.904068,354674.000,61501,1,T0,1,100,32.575
1575307652.044023,354792.000,61519,1,T0,1,100,32.580
1575307652.180421,354907.000,61536,1,T0,1,100,32.634
1575307652.309702,355016.000,61555,1,T0,1,100,32.623
1575307652.438983,355125.000,61590,2,T0,1,100,32.607
1575307652.568264,355234.000,61590,2,T0,1,100,32.596
1575307652.707033,355351.000,61612,1,T0,1,100,32.596
1575307652.848175,355470.000,61629,1,T0,1,100,32.602
1575307652.985758,355586.000,61663,1,T0,1,100,32.612
1575307653.119783,355699.000,61681,1,T0,1,100,32.575
1575307653.249064,355808.000,61700,1,T0,1,100,32.607
1575307653.374787,355914.000,61718,1,T0,1,100,32.623
1575307653.505254,356024.000,61736,1,T0,1,100,32.666
1575307653.633349,356132.000,61754,1,T0,1,100,32.591
1575307653.760258,356239.000,61772,1,T0,1,100,32.612
1575307653.889539,356348.000,61790,1,T0,1,100,32.612
1575307654.027122,356464.000,61808,1,T0,1,100,32.644
1575307654.157589,356574.000,61825,1,T0,1,100,32.618
1575307654.295172,356690.000,61844,1,T0,1,100,32.612
1575307654.432756,356806.000,61878,1,T0,1,100,32.585
1575307654.563223,356916.000,61896,1,T0,1,100,32.639
1575307654.691318,357024.000,61914,1,T0,1,100,32.628
1575307654.824157,357136.000,61932,1,T0,1,100,32.634
1575307654.956996,357248.000,61950,1,T0,1,100,32.628
1575307655.096952,357366.000,61968,1,T0,1,100,32.650
1575307655.225047,357474.000,61987,1,T0,1,100,32.623
1575307655.351955,357581.000,62005,1,T0,1,100,32.618
1575307655.487167,357695.000,62022,1,T0,1,100,32.655
1575307655.627122,357813.000,62056,1,T0,1,100,32.650
1575307655.762333,357927.000,62074,1,T0,1,100,32.639
1575307655.886870,358032.000,62092,1,T0,1,100,32.650
1575307656.019709,358144.000,62110,1,T0,1,100,32.634
1575307656.156107,358259.000,62128,1,T0,1,100,32.650
1575307656.293690,358375.000,62147,1,T0,1,100,32.623
1575307656.425343,358486.000,62165,1,T0,1,100,32.650
1575307656.548694,358590.000,62182,1,T0,1,100,32.602
1575307656.683905,358704.000,62200,1,T0,1,100,32.618
1575307656.821488,358820.000,62234,1,T0,1,100,32.623
1575307656.956700,358934.000,62252,1,T0,1,100,32.644
1575307657.097841,359053.000,62270,1,T0,1,100,32.634
1575307657.235425,359169.000,62289,1,T0,1,100,32.661
1575307657.369450,359282.000,62307,1,T0,1,100,32.644
1575307657.510592,359401.000,62325,1,T0,1,100,32.671
1575307657.643431,359513.000,62342,1,T0,1,100,32.671
1575307657.781014,359629.000,62376,1,T0,1,100,32.671
1575307657.919784,359746.000,62394,1,T0,1,100,32.639
1575307658.057367,359862.000,62412,1,T0,1,100,32.682
1575307658.181904,359967.000,62430,1,T0,1,100,32.671
1575307658.314743,360079.000,62449,1,T0,1,100,32.671
1575307658.452326,360195.000,62467,1,T0,1,100,32.671
1575307658.585165,360307.000,62486,1,T0,1,100,32.634
1575307658.723935,360424.000,62506,1,T0,1,100,32.682
1575307658.863890,360542.000,62526,1,T0,1,100,32.693
1575307658.987241,360646.000,62544,1,T0,1,100,32.661
1575307659.117708,360756.000,62562,1,T0,1,100,32.634
1575307659.252919,360870.000,62581,1,T0,1,100,32.634
1575307659.385758,360982.000,62598,1,T0,1,100,32.639
1575307659.524528,361099.000,62632,1,T0,1,100,32.682
1575307659.651437,361206.000,62650,1,T0,1,100,32.655
1575307659.780718,361315.000,62668,1,T0,1,100,32.682
1575307659.915929,361429.000,62686,1,T0,1,100,32.698
1575307660.055885,361547.000,62704,1,T0,1,100,32.714
1575307660.186352,361657.000,62722,1,T0,1,100,32.677
1575307660.312074,361763.000,62741,1,T0,1,100,32.639
1575307660.443727,361874.000,62759,1,T0,1,100,32.703
1575307660.580125,361989.000,62776,1,T0,1,100,32.661
1575307660.717708,362105.000,62810,1,T0,1,100,32.698
1575307660.844617,362212.000,62828,1,T0,1,100,32.687
1575307660.971526,362319.000,62846,1,T0,1,100,32.677
1575307661.107923,362434.000,62864,1,T0,1,100,32.677
1575307661.244320,362549.000,62883,1,T0,1,100,32.666
1575307661.368857,362654.000,62901,1,T0,1,100,32.677
1575307661.505255,362769.000,62919,1,T0,1,100,32.666
1575307661.641652,362884.000,62937,1,T0,1,100,32.687
1575307661.766189,362989.000,62955,1,T0,1,100,32.682
1575307661.903772,363105.000,62972,1,T0,1,100,32.698
1575307662.041355,363221.000,63006,1,T0,1,100,32.698
1575307662.177753,363336.000,63025,1,T0,1,100,32.709
1575307662.312964,363450.000,63043,1,T0,1,100,32.698
1575307662.446989,363563.000,63061,1,T0,1,100,32.698
1575307662.571526,363668.000,63079,1,T0,1,100,32.682
1575307662.706737,363782.000,63097,1,T0,1,100,32.671
1575307662.841949,363896.000,63115,1,T0,1,100,32.666
1575307662.977160,364010.000,63132,1,T0,1,100,32.720
1575307663.106441,364119.000,63150,1,T0,1,100,32.687
1575307663.235722,364228.000,63185,1,T0,1,100,32.698
1575307663.363816,364336.000,63203,1,T0,1,100,32.703
1575307663.501400,364452.000,63221,1,T0,1,100,32.714
1575307663.641356,364570.000,63239,1,T0,1,100,32.693
1575307663.765892,364675.000,63257,1,T0,1,100,32.687
1575307663.895173,364784.000,63275,1,T0,1,100,32.698
1575307664.033942,364901.000,63293,1,T0,1,100,32.666
1575307664.170340,365016.000,63311,1,T0,1,100,32.671
1575307664.303179,365128.000,63329,1,T0,1,100,32.714
1575307664.430088,365235.000,63364,1,T0,1,100,32.698
1575307664.562927,365347.000,63384,2,T0,1,100,32.703
1575307664.695766,365459.000,63384,2,T0,1,100,32.720
1575307664.835722,365577.000,63404,1,T0,1,100,32.682
1575307664.973305,365693.000,63421,1,T0,1,100,32.714
1575307665.115633,365813.000,63455,1,T0,1,100,32.703
1575307665.254402,365930.000,63474,1,T0,1,100,32.730
1575307665.391986,366046.000,63492,1,T0,1,100,32.671
1575307665.528383,366161.000,63510,1,T0,1,100,32.687
1575307665.655292,366268.000,63528,1,T0,1,100,32.682
1575307665.785759,366378.000,63546,1,T0,1,100,32.677
1575307665.919784,366491.000,63563,1,T0,1,100,32.677
1575307666.046693,366598.000,63581,1,T0,1,100,32.752
1575307666.172416,366704.000,63599,1,T0,1,100,32.714
1575307666.311185,366821.000,63634,1,T0,1,100,32.725
1575307666.448768,366937.000,63652,1,T0,1,100,32.714
1575307666.581608,367049.000,63670,1,T0,1,100,32.741
1575307666.719191,367165.000,63688,1,T0,1,100,32.693
1575307666.847286,367273.000,63706,1,T0,1,100,32.730
1575307666.971823,367378.000,63724,1,T0,1,100,32.714
1575307667.108220,367493.000,63742,1,T0,1,100,32.725
1575307667.245803,367609.000,63760,1,T0,1,100,32.784
1575307667.381015,367723.000,63794,1,T0,1,100,32.719
1575307667.507923,367830.000,63812,1,T0,1,100,32.746
1575307667.638391,367940.000,63830,1,T0,1,100,32.725
1575307667.774788,368055.000,63848,1,T0,1,100,32.757
1575307667.909999,368169.000,63866,1,T0,1,100,32.757
1575307668.044024,368282.000,63884,1,T0,1,100,32.741
1575307668.168561,368387.000,63902,1,T0,1,100,32.736
1575307668.304958,368502.000,63921,1,T0,1,100,32.741
1575307668.438984,368615.000,63938,1,T0,1,100,32.752
1575307668.576567,368731.000,63972,1,T0,1,100,32.736
1575307668.704662,368839.000,63990,1,T0,1,100,32.741
1575307668.831571,368946.000,64008,1,T0,1,100,32.736
1575307668.964410,369058.000,64026,1,T0,1,100,32.757
1575307669.106738,369178.000,64044,1,T0,1,100,32.768
1575307669.244321,369294.000,64063,1,T0,1,100,32.757
1575307669.378346,369407.000,64081,1,T0,1,100,32.736
1575307669.520674,369527.000,64098,1,T0,1,100,32.746
1575307669.659443,369644.000,64132,1,T0,1,100,32.762
1575307669.793468,369757.000,64150,1,T0,1,100,32.762
1575307669.932238,369874.000,64168,1,T0,1,100,32.725
1575307670.072193,369992.000,64186,1,T0,1,100,32.768
1575307670.196730,370097.000,64204,1,T0,1,100,32.768
1575307670.327197,370207.000,64223,1,T0,1,100,32.757
1575307670.465967,370324.000,64241,1,T0,1,100,32.800
1575307670.595248,370433.000,64258,1,T0,1,100,32.768
1575307670.734017,370550.000,64279,1,T0,1,100,32.773
1575307670.872787,370667.000,64299,1,T0,1,100,32.762
1575307670.999695,370774.000,64317,1,T0,1,100,32.762
1575307671.128976,370883.000,64335,1,T0,1,100,32.778
1575307671.263001,370996.000,64353,1,T0,1,100,32.719
1575307671.394655,371107.000,64387,1,T0,1,100,32.752
1575307671.535796,371226.000,64405,1,T0,1,100,32.752
1575307671.662705,371333.000,64423,1,T0,1,100,32.778
1575307671.790800,371441.000,64441,1,T0,1,100,32.778
1575307671.926011,371555.000,64459,1,T0,1,100,32.784
1575307672.065967,371673.000,64477,1,T0,1,100,32.741
1575307672.199992,371786.000,64495,1,T0,1,100,32.811
1575307672.324529,371891.000,64514,1,T0,1,100,32.752
1575307672.454996,372001.000,64531,1,T0,1,100,32.789
1575307672.591393,372116.000,64549,1,T0,1,100,32.773
1575307672.728976,372232.000,64583,1,T0,1,100,32.762
1575307672.861815,372344.000,64601,1,T0,1,100,32.789
1575307672.999399,372460.000,64619,1,T0,1,100,32.800
1575307673.126308,372567.000,64637,1,T0,1,100,32.778
1575307673.260333,372680.000,64656,1,T0,1,100,32.789
1575307673.383684,372784.000,64674,1,T0,1,100,32.757
1575307673.518895,372898.000,64692,1,T0,1,100,32.795
1575307673.652920,373011.000,64709,1,T0,1,100,32.800
1575307673.777457,373116.000,64727,1,T0,1,100,32.805
1575307673.912668,373230.000,64761,1,T0,1,100,32.789
1575307674.050251,373346.000,64779,1,T0,1,100,32.757
1575307674.184277,373459.000,64798,1,T0,1,100,32.773
1575307674.323046,373576.000,64816,1,T0,1,100,32.789
1575307674.459444,373691.000,64834,1,T0,1,100,32.811
1575307674.583980,373796.000,64852,1,T0,1,100,32.768
1575307674.716819,373908.000,64870,1,T0,1,100,32.816
1575307674.853217,374023.000,64887,1,T0,1,100,32.795
1575307674.986056,374135.000,64905,1,T0,1,100,32.768
1575307675.118895,374247.000,64939,1,T0,1,100,32.805
1575307675.245804,374354.000,64958,1,T0,1,100,32.854
1575307675.377457,374465.000,64976,1,T0,1,100,32.832
1575307675.512668,374579.000,64994,1,T0,1,100,32.784
1575307675.654996,374699.000,65012,1,T0,1,100,32.811
1575307675.780719,374805.000,65030,1,T0,1,100,32.795
1575307675.906441,374911.000,65048,1,T0,1,100,32.789
1575307676.044025,375027.000,65066,1,T0,1,100,32.811
1575307676.180422,375142.000,65083,1,T0,1,100,32.811
1575307676.315633,375256.000,65118,1,T0,1,100,32.784
1575307676.441356,375362.000,65136,1,T0,1,100,32.789
1575307676.567079,375468.000,65154,1,T0,1,100,32.816
1575307676.705255,375584.500,65175,2,T0,1,100,32.805
1575307676.843432,375701.000,65175,2,T0,1,100,32.800
1575307676.978643,375815.000,65211,1,T0,1,100,32.800
1575307677.120971,375935.000,65229,1,T0,1,100,32.837
1575307677.259740,376052.000,65248,1,T0,1,100,32.800
1575307677.396137,376167.000,65266,1,T0,1,100,32.805
1575307677.534907,376284.000,65284,1,T0,1,100,32.843
1575307677.663002,376392.000,65302,1,T0,1,100,32.800
1575307677.797027,376505.000,65319,1,T0,1,100,32.821
1575307677.932238,376619.000,65337,1,T0,1,100,32.784
1575307678.060333,376727.000,65371,1,T0,1,100,32.827
1575307678.184870,376832.000,65390,1,T0,1,100,32.821
1575307678.322453,376948.000,65408,1,T0,1,100,32.811
1575307678.458851,377063.000,65426,1,T0,1,100,32.848
1575307678.592876,377176.000,65444,1,T0,1,100,32.811
1575307678.729273,377291.000,65462,1,T0,1,100,32.843
1575307678.860926,377402.000,65480,1,T0,1,100,32.837
1575307678.984277,377506.000,65497,1,T0,1,100,32.848
1575307679.119488,377620.000,65515,1,T0,1,100,32.837
1575307679.255886,377735.000,14,1,T0,1,100,32.816
1575307679.391097,377849.000,32,1,T0,1,100,32.805
1575307679.519192,377957.000,50,1,T0,1,100,32.859
1575307679.649659,378067.000,68,1,T0,1,100,32.859
1575307679.783684,378180.000,86,1,T0,1,100,32.821
1575307679.917709,378293.000,104,1,T0,1,100,32.837
1575307680.055293,378409.000,122,1,T0,1,100,32.816
1575307680.179829,378514.000,140,1,T0,1,100,32.859
1575307680.312669,378626.000,158,1,T0,1,100,32.837
1575307680.446694,378739.000,176,1,T0,1,100,32.848
1575307680.583091,378854.000,210,1,T0,1,100,32.811
1575307680.714744,378965.000,228,1,T0,1,100,32.816
1575307680.841653,379072.000,246,1,T0,1,100,32.805
1575307680.973306,379183.000,264,1,T0,1,100,32.880
1575307681.114448,379302.000,282,1,T0,1,100,32.816
1575307681.252031,379418.000,301,1,T0,1,100,32.854
1575307681.381312,379527.000,319,1,T0,1,100,32.875
1575307681.521267,379645.000,336,1,T0,1,100,32.870
1575307681.660037,379762.000,370,1,T0,1,100,32.859
1575307681.791690,379873.000,388,1,T0,1,100,32.832
1575307681.930459,379990.000,406,1,T0,1,100,32.832
1575307682.069229,380107.000,424,1,T0,1,100,32.843
1575307682.197324,380215.000,442,1,T0,1,100,32.870
1575307682.333721,380330.000,461,1,T0,1,100,32.843
1575307682.460630,380437.000,478,1,T0,1,100,32.875
1575307682.586353,380543.000,496,1,T0,1,100,32.896
1575307682.723936,380659.000,534,2,T0,1,100,32.837
1575307682.861520,380775.000,534,2,T0,1,100,32.896
1575307682.991987,380885.000,554,1,T0,1,100,32.891
1575307683.120082,380993.000,572,1,T0,1,100,32.880
1575307683.252921,381105.000,590,1,T0,1,100,32.891
1575307683.385760,381217.000,608,1,T0,1,100,32.864
1575307683.525715,381335.000,642,1,T0,1,100,32.870
1575307683.654996,381444.000,660,1,T0,1,100,32.880
1575307683.780719,381550.000,678,1,T0,1,100,32.854
1575307683.915930,381664.000,696,1,T0,1,100,32.886
1575307684.055886,381782.000,714,1,T0,1,100,32.875
1575307684.192283,381897.000,732,1,T0,1,100,32.859
1575307684.316820,382002.000,751,1,T0,1,100,32.864
1575307684.446101,382111.000,769,1,T0,1,100,32.891
1575307684.581312,382225.000,786,1,T0,1,100,32.880
1575307684.718896,382341.000,820,1,T0,1,100,32.891
1575307684.851735,382453.000,838,1,T0,1,100,32.854
1575307684.977458,382559.000,856,1,T0,1,100,32.886
1575307685.113855,382674.000,874,1,T0,1,100,32.891
1575307685.246694,382786.000,893,1,T0,1,100,32.880
1575307685.371231,382891.000,911,1,T0,1,100,32.875
1575307685.504070,383003.000,929,1,T0,1,100,32.902
1575307685.635723,383114.000,947,1,T0,1,100,32.870
1575307685.760260,383219.000,964,1,T0,1,100,32.913
1575307685.893099,383331.000,982,1,T0,1,100,32.859
1575307686.030682,383447.000,1016,1,T0,1,100,32.864
1575307686.163521,383559.000,1035,1,T0,1,100,32.896
1575307686.302291,383676.000,1053,1,T0,1,100,32.913
1575307686.441060,383793.000,1071,1,T0,1,100,32.913
1575307686.565597,383898.000,1089,1,T0,1,100,32.902
1575307686.696064,384008.000,1107,1,T0,1,100,32.886
1575307686.831275,384122.000,1125,1,T0,1,100,32.891
1575307686.964114,384234.000,1143,1,T0,1,100,32.907
1575307687.100512,384349.000,1160,1,T0,1,100,32.923
1575307687.227421,384456.000,1195,1,T0,1,100,32.880
1575307687.351957,384561.000,1213,1,T0,1,100,32.918
1575307687.489541,384677.000,1231,1,T0,1,100,32.907
1575307687.630682,384796.000,1249,1,T0,1,100,32.913
1575307687.759963,384905.000,1267,1,T0,1,100,32.902
1575307687.884500,385010.000,1285,1,T0,1,100,32.891
1575307688.020897,385125.000,1303,1,T0,1,100,32.929
1575307688.157295,385240.000,1321,1,T0,1,100,32.923
1575307688.294878,385356.000,1339,1,T0,1,100,32.918
1575307688.420601,385462.000,1357,1,T0,1,100,32.886
1575307688.545137,385567.000,1391,1,T0,1,100,32.913
1575307688.683907,385684.000,1409,1,T0,1,100,32.907
1575307688.821490,385800.000,1430,2,T0,1,100,32.929
1575307688.959074,385916.000,1430,2,T0,1,100,32.918
1575307689.101401,386036.000,1466,1,T0,1,100,32.929
1575307689.240171,386153.000,1485,1,T0,1,100,32.945
1575307689.376568,386268.000,1503,1,T0,1,100,32.923
1575307689.515338,386385.000,1521,1,T0,1,100,32.934
1575307689.644619,386494.000,1539,1,T0,1,100,32.913
1575307689.782202,386610.000,1557,1,T0,1,100,32.923
1575307689.917413,386724.000,1574,1,T0,1,100,32.923
1575307690.049066,386835.000,1608,1,T0,1,100,32.950
1575307690.172417,386939.000,1627,1,T0,1,100,32.913
1575307690.308814,387054.000,1645,1,T0,1,100,32.929
1575307690.445212,387169.000,1663,1,T0,1,100,32.945
1575307690.580423,387283.000,1681,1,T0,1,100,32.929
1575307690.718006,387399.000,1699,1,T0,1,100,32.929
1575307690.853218,387513.000,1717,1,T0,1,100,32.929
1575307690.976568,387617.000,1735,1,T0,1,100,32.934
1575307691.109407,387729.000,1752,1,T0,1,100,32.945
1575307691.243433,387842.000,1770,1,T0,1,100,32.945
1575307691.377458,387955.000,1805,1,T0,1,100,32.934
1575307691.509111,388066.000,1823,1,T0,1,100,32.955
1575307691.637206,388174.000,1841,1,T0,1,100,32.955
1575307691.770045,388286.000,1859,1,T0,1,100,32.945
1575307691.905256,388400.000,1877,1,T0,1,100,32.934
1575307692.046398,388519.000,1895,1,T0,1,100,32.939
1575307692.170935,388624.000,1913,1,T0,1,100,32.945
1575307692.301402,388734.000,1932,1,T0,1,100,32.945
1575307692.434241,388846.000,1949,1,T0,1,100,32.939
1575307692.570638,388961.000,1983,1,T0,1,100,32.966
1575307692.704663,389074.000,2001,1,T0,1,100,32.918
1575307692.830386,389180.000,2019,1,T0,1,100,32.977
1575307692.960853,389290.000,2037,1,T0,1,100,32.923
1575307693.100809,389408.000,2055,1,T0,1,100,32.982
1575307693.238392,389524.000,2074,1,T0,1,100,32.955
1575307693.366487,389632.000,2092,1,T0,1,100,32.977
1575307693.504070,389748.000,2110,1,T0,1,100,32.934
1575307693.642840,389865.000,2143,1,T0,1,100,32.988
1575307693.770935,389973.000,2161,1,T0,1,100,32.982
1575307693.909704,390090.000,2179,1,T0,1,100,32.934
1575307694.047287,390206.000,2197,1,T0,1,100,32.945
1575307694.178941,390317.000,2215,1,T0,1,100,32.950
1575307694.307035,390425.000,2234,1,T0,1,100,32.950
1575307694.444619,390541.000,2252,1,T0,1,100,32.945
1575307694.571528,390648.000,2270,1,T0,1,100,32.961
1575307694.709111,390764.000,2287,1,T0,1,100,32.961
1575307694.844915,390878.500,2324,2,T0,1,100,32.966
1575307694.980720,390993.000,2324,2,T0,1,100,32.961
1575307695.107629,391100.000,2344,1,T0,1,100,32.977
1575307695.239282,391211.000,2363,1,T0,1,100,33.020
1575307695.372121,391323.000,2380,1,T0,1,100,32.945
1575307695.510890,391440.000,2398,1,T0,1,100,32.966
1575307695.643729,391552.000,2432,1,T0,1,100,32.988
1575307695.767080,391656.000,2450,1,T0,1,100,33.014
1575307695.901105,391769.000,2468,1,T0,1,100,32.950
1575307696.033944,391881.000,2486,4,T0,1,100,32.961
1575307696.166784,391993.000,2486,4,T0,1,100,32.966
1575307696.299623,392105.000,2486,4,T0,1,100,32.993
1575307696.432462,392217.000,2486,4,T0,1,100,32.950
1575307696.568385,392331.600,2505,5,T0,1,100,33.004
1575307696.704308,392446.200,2505,5,T0,1,100,33.014
1575307696.840231,392560.800,2505,5,T0,1,100,32.977
1575307696.976154,392675.400,2505,5,T0,1,100,32.966
1575307697.112077,392790.000,2505,5,T0,1,100,32.966
1575307697.240171,392898.000,2524,6,T0,1,100,32.977
1575307697.368266,393006.000,2524,6,T0,1,100,32.982
1575307697.496361,393114.000,2524,6,T0,1,100,33.004
1575307697.624456,393222.000,2524,6,T0,1,100,32.982
1575307697.752551,393330.000,2524,6,T0,1,100,33.004
1575307697.880646,393438.000,2524,6,T0,1,100,32.982
1575307698.014819,393551.125,2542,8,T0,1,100,32.998
1575307698.148993,393664.250,2542,8,T0,1,100,32.982
1575307698.283166,393777.375,2542,8,T0,1,100,33.014
1575307698.417340,393890.500,2542,8,T0,1,100,33.009
1575307698.551513,394003.625,2542,8,T0,1,100,32.982
1575307698.685687,394116.750,2542,8,T0,1,100,32.961
1575307698.819860,394229.875,2542,8,T0,1,100,32.982
1575307698.954034,394343.000,2542,8,T0,1,100,33.014
1575307699.087004,394455.111,2561,9,T0,1,100,33.009
1575307699.219975,394567.222,2561,9,T0,1,100,32.955
1575307699.352946,394679.333,2561,9,T0,1,100,32.998
1575307699.485917,394791.444,2561,9,T0,1,100,32.982
1575307699.618888,394903.556,2561,9,T0,1,100,33.009
1575307699.751859,395015.667,2561,9,T0,1,100,33.009
1575307699.884830,395127.778,2561,9,T0,1,100,33.014
1575307700.017801,395239.889,2561,9,T0,1,100,32.988
1575307700.150772,395352.000,2561,9,T0,1,100,33.009
1575307700.286873,395466.750,2583,12,T0,1,100,33.009
1575307700.422974,395581.500,2583,12,T0,1,100,33.025
1575307700.559074,395696.250,2583,12,T0,1,100,33.036
1575307700.695175,395811.000,2583,12,T0,1,100,33.052
1575307700.831276,395925.750,2583,12,T0,1,100,32.982
1575307700.967377,396040.500,2583,12,T0,1,100,33.057
1575307701.103478,396155.250,2583,12,T0,1,100,33.020
1575307701.239578,396270.000,2583,12,T0,1,100,33.004
1575307701.375679,396384.750,2583,12,T0,1,100,33.031
1575307701.511780,396499.500,2583,12,T0,1,100,33.014
1575307701.647881,396614.250,2583,12,T0,1,100,33.014
1575307701.783982,396729.000,2583,12,T0,1,100,32.998
1575307701.918775,396842.647,2603,17,T0,1,100,33.020
1575307702.053567,396956.294,2603,17,T0,1,100,33.041
1575307702.188360,397069.941,2603,17,T0,1,100,33.052
1575307702.323153,397183.588,2603,17,T0,1,100,33.014
1575307702.457945,397297.235,2603,17,T0,1,100,33.057
1575307702.592738,397410.882,2603,17,T0,1,100,33.031
1575307702.727530,397524.529,2603,17,T0,1,100,33.025
1575307702.862323,397638.176,2603,17,T0,1,100,33.009
1575307702.997116,397751.824,2603,17,T0,1,100,32.998
1575307703.131908,397865.471,2603,17,T0,1,100,33.025
1575307703.266701,397979.118,2603,17,T0,1,100,33.047
1575307703.401494,398092.765,2603,17,T0,1,100,33.041
1575307703.536287,398206.412,2603,17,T0,1,100,33.036
1575307703.671079,398320.059,2603,17,T0,1,100,33.004
1575307703.805872,398433.706,2603,17,T0,1,100,33.052
1575307703.940665,398547.353,2603,17,T0,1,100,33.057
1575307704.075457,398661.000,2603,17,T0,1,100,33.014
1575307704.211398,398775.615,2623,13,T0,1,100,33.031
1575307704.347339,398890.231,2623,13,T0,1,100,33.041
1575307704.483281,399004.846,2623,13,T0,1,100,33.036
1575307704.619222,399119.462,2623,13,T0,1,100,33.036
1575307704.755163,399234.077,2623,13,T0,1,100,33.052
1575307704.891104,399348.692,2623,13,T0,1,100,33.031
1575307705.027045,399463.308,2623,13,T0,1,100,33.041
1575307705.162987,399577.923,2623,13,T0,1,100,33.057
1575307705.298928,399692.538,2623,13,T0,1,100,33.084
1575307705.434869,399807.154,2623,13,T0,1,100,33.047
1575307705.570810,399921.769,2623,13,T0,1,100,33.063
1575307705.706751,400036.385,2623,13,T0,1,100,33.025
1575307705.842692,400151.000,2623,13,T0,1,100,33.079
1575307705.979089,400266.000,2641,2,T0,1,100,33.031
1575307706.115487,400381.000,2641,2,T0,1,100,33.020
1575307706.243582,400489.000,2659,1,T0,1,100,33.041
1575307706.370491,400596.000,2678,1,T0,1,100,33.036
1575307706.508074,400712.000,2696,1,T0,1,100,33.057
1575307706.640913,400824.000,2714,1,T0,1,100,33.036
1575307706.782055,400943.000,2731,1,T0,1,100,33.063
1575307706.908964,401050.000,2765,1,T0,1,100,33.079
1575307707.033500,401155.000,2783,1,T0,1,100,33.068
1575307707.171084,401271.000,2801,1,T0,1,100,33.073
1575307707.308667,401387.000,2820,1,T0,1,100,33.073
1575307707.441506,401499.000,2838,1,T0,1,100,33.052
1575307707.569601,401607.000,2856,1,T0,1,100,33.068
1575307707.700068,401717.000,2874,1,T0,1,100,33.073
1575307707.834093,401830.000,2895,1,T0,1,100,33.095
1575307707.972863,401947.000,2915,1,T0,1,100,33.095
1575307708.104516,402058.000,2933,1,T0,1,100,33.090
1575307708.229053,402163.000,2951,1,T0,1,100,33.090
1575307708.361892,402275.000,2970,1,T0,1,100,33.079
1575307708.500661,402392.000,2987,1,T0,1,100,33.084
1575307708.637058,402507.000,3021,1,T0,1,100,33.057
1575307708.761595,402612.000,3039,1,T0,1,100,33.068
1575307708.890876,402721.000,3057,1,T0,1,100,33.084
1575307709.023715,402833.000,3075,1,T0,1,100,33.079
1575307709.161299,402949.000,3093,1,T0,1,100,33.090
1575307709.298882,403065.000,3112,1,T0,1,100,33.100
1575307709.436466,403181.000,3130,1,T0,1,100,33.041
1575307709.575235,403298.000,3148,1,T0,1,100,33.095
1575307709.711632,403413.000,3181,1,T0,1,100,33.095
1575307709.836169,403518.000,3199,1,T0,1,100,33.084
1575307709.969008,403630.000,3217,1,T0,1,100,33.111
1575307710.095917,403737.000,3235,1,T0,1,100,33.084
1575307710.225198,403846.000,3254,1,T0,1,100,33.052
1575307710.363967,403963.000,3272,1,T0,1,100,33.116
1575307710.505109,404082.000,3290,1,T0,1,100,33.116
1575307710.642693,404198.000,3308,1,T0,1,100,33.111
1575307710.779090,404313.000,3325,1,T0,1,100,33.122
1575307710.905999,404420.000,3343,1,T0,1,100,33.084
1575307711.032907,404527.000,3377,1,T0,1,100,33.079
1575307711.170491,404643.000,3395,1,T0,1,100,33.111
1575307711.309260,404760.000,3414,1,T0,1,100,33.079
1575307711.436169,404867.000,3432,1,T0,1,100,33.090
1575307711.564264,404975.000,3450,1,T0,1,100,33.111
1575307711.700661,405090.000,3468,1,T0,1,100,33.063
1575307711.837059,405205.000,3486,1,T0,1,100,33.073
1575307711.974642,405321.000,3503,1,T0,1,100,33.116
1575307712.101551,405428.000,3521,1,T0,1,100,33.084
1575307712.228460,405535.000,3539,1,T0,1,100,33.100
1575307712.367229,405652.000,3574,1,T0,1,100,33.106
1575307712.502441,405766.000,3592,1,T0,1,100,33.111
1575307712.636466,405879.000,3610,1,T0,1,100,33.122
1575307712.761003,405984.000,3628,1,T0,1,100,33.090
1575307712.895028,406097.000,3646,1,T0,1,100,33.090
1575307713.019564,406202.000,3664,1,T0,1,100,33.095
1575307713.158334,406319.000,3682,1,T0,1,100,33.143
1575307713.297103,406436.000,3700,1,T0,1,100,33.132
1575307713.432315,406550.000,3734,1,T0,1,100,33.138
1575307713.573456,406669.000,3752,1,T0,1,100,33.084
1575307713.712226,406786.000,3770,1,T0,1,100,33.143
1575307713.848623,406901.000,3791,1,T0,1,100,33.127
1575307713.988579,407019.000,3811,1,T0,1,100,33.095
1575307714.123790,407133.000,3829,1,T0,1,100,33.154
1575307714.264931,407252.000,3847,1,T0,1,100,33.111
1575307714.393026,407360.000,3866,1,T0,1,100,33.127
1575307714.523493,407470.000,3884,1,T0,1,100,33.149
1575307714.655146,407581.000,3902,1,T0,1,100,33.122
1575307714.792730,407697.000,3920,1,T0,1,100,33.127
1575307714.929127,407812.000,3937,1,T0,1,100,33.111
1575307715.051292,407915.000,3955,1,T0,1,100,33.170
1575307715.182945,408026.000,3989,1,T0,1,100,33.154
1575307715.319342,408141.000,4008,1,T0,1,100,33.111
1575307715.455739,408256.000,4026,1,T0,1,100,33.116
1575307715.587393,408367.000,4044,1,T0,1,100,33.143
1575307715.715487,408475.000,4062,1,T0,1,100,33.111
1575307715.847141,408586.000,4080,1,T0,1,100,33.159
1575307715.982352,408700.000,4098,1,T0,1,100,33.127
1575307716.123493,408819.000,4115,1,T0,1,100,33.165
1575307716.248030,408924.000,4133,1,T0,1,100,33.181
1575307716.377311,409033.000,4168,1,T0,1,100,33.122
1575307716.510150,409145.000,4186,1,T0,1,100,33.159
1575307716.646548,409260.000,4204,1,T0,1,100,33.159
1575307716.782945,409375.000,4222,1,T0,1,100,33.127
1575307716.909854,409482.000,4240,1,T0,1,100,33.181
1575307717.039135,409591.000,4258,1,T0,1,100,33.149
1575307717.174346,409705.000,4276,1,T0,1,100,33.175
1575307717.302441,409813.000,4295,1,T0,1,100,33.165
1575307717.431722,409922.000,4312,1,T0,1,100,33.127
1575307717.568119,410037.000,4330,1,T0,1,100,33.165
1575307717.693842,410143.000,4364,1,T0,1,100,33.149
1575307717.820751,410250.000,4382,1,T0,1,100,33.159
1575307717.959520,410367.000,4400,1,T0,1,100,33.138
1575307718.092359,410479.000,4418,1,T0,1,100,33.170
1575307718.226385,410592.000,4436,1,T0,1,100,33.165
1575307718.367526,410711.000,4455,1,T0,1,100,33.159
1575307718.497993,410821.000,4473,1,T0,1,100,33.132
1575307718.635577,410937.000,4490,1,T0,1,100,33.138
1575307718.762486,411044.000,4508,1,T0,1,100,33.154
1575307718.894139,411155.000,4542,1,T0,1,100,33.159
1575307719.028164,411268.000,4560,1,T0,1,100,33.170
1575307719.165747,411384.000,4578,1,T0,1,100,33.138
1575307719.298586,411496.000,4597,1,T0,1,100,33.186
1575307719.420751,411599.000,4615,1,T0,1,100,33.138
1575307719.555962,411713.000,4633,1,T0,1,100,33.149
1575307719.694732,411830.000,4651,1,T0,1,100,33.154
1575307719.832315,411946.000,4668,1,T0,1,100,33.149
1575307719.958038,412052.000,4689,1,T0,1,100,33.175
1575307720.088505,412162.000,4709,1,T0,1,100,33.181
1575307720.222530,412275.000,4727,1,T0,1,100,33.149
1575307720.360113,412391.000,4746,1,T0,1,100,33.138
1575307720.496511,412506.000,4763,1,T0,1,100,33.170
1575307720.619861,412610.000,4781,1,T0,1,100,33.170
1575307720.752701,412722.000,4816,1,T0,1,100,33.132
1575307720.886726,412835.000,4833,1,T0,1,100,33.122
1575307721.023123,412950.000,4851,1,T0,1,100,33.170
1575307721.164265,413069.000,4869,1,T0,1,100,33.170
1575307721.303034,413186.000,4888,1,T0,1,100,33.186
1575307721.440618,413302.000,4906,1,T0,1,100,33.191
1575307721.582945,413422.000,4923,1,T0,1,100,33.149
1575307721.722901,413540.000,4957,1,T0,1,100,33.197
1575307721.860484,413656.000,4975,1,T0,1,100,33.165
1575307721.996881,413771.000,4993,1,T0,1,100,33.165
1575307722.123790,413878.000,5011,1,T0,1,100,33.154
1575307722.253071,413987.000,5029,1,T0,1,100,33.159
1575307722.393027,414105.000,5048,1,T0,1,100,33.154
1575307722.528238,414219.000,5066,1,T0,1,100,33.149
1575307722.662263,414332.000,5083,1,T0,1,100,33.181
1575307722.801033,414449.000,5117,1,T0,1,100,33.154
1575307722.926755,414555.000,5135,1,T0,1,100,33.165
1575307723.053664,414662.000,5153,1,T0,1,100,33.170
1575307723.190062,414777.000,5171,1,T0,1,100,33.181
1575307723.328831,414894.000,5190,1,T0,1,100,33.186
1575307723.459298,415004.000,5208,1,T0,1,100,33.229
1575307723.587393,415112.000,5226,1,T0,1,100,33.197
1575307723.721418,415225.000,5244,1,T0,1,100,33.159
1575307723.859002,415341.000,5261,1,T0,1,100,33.186
1575307723.995399,415456.000,5295,1,T0,1,100,33.170
1575307724.124680,415565.000,5313,1,T0,1,100,33.213
1575307724.249217,415670.000,5332,1,T0,1,100,33.191
1575307724.387986,415787.000,5350,1,T0,1,100,33.202
1575307724.522011,415900.000,5368,1,T0,1,100,33.159
1575307724.659595,416016.000,5386,1,T0,1,100,33.181
1575307724.784132,416121.000,5404,1,T0,1,100,33.191
1575307724.915785,416232.000,5422,1,T0,1,100,33.224
1575307725.040321,416337.000,5439,1,T0,1,100,33.186
1575307725.174346,416450.000,5457,1,T0,1,100,33.175
1575307725.303627,416559.000,5493,1,T0,1,100,33.170
1575307725.438839,416673.000,5510,1,T0,1,100,33.186
1575307725.579980,416792.000,5528,1,T0,1,100,33.149
1575307725.717564,416908.000,5546,1,T0,1,100,33.165
1575307725.851589,417021.000,5564,1,T0,1,100,33.191
1575307725.992730,417140.000,5585,1,T0,1,100,33.224
1575307726.129128,417255.000,5605,1,T0,1,100,33.170
1575307726.264339,417369.000,5623,1,T0,1,100,33.229
1575307726.395992,417480.000,5642,1,T0,1,100,33.213
1575307726.524087,417588.000,5660,1,T0,1,100,33.181
1575307726.654554,417698.000,5678,1,T0,1,100,33.224
1575307726.796882,417818.000,5696,1,T0,1,100,33.202
1575307726.933279,417933.000,5729,1,T0,1,100,33.202
1575307727.067304,418046.000,5747,1,T0,1,100,33.218
1575307727.202516,418160.000,5765,1,T0,1,100,33.170
1575307727.328238,418266.000,5784,1,T0,1,100,33.186
1575307727.456333,418374.000,5802,1,T0,1,100,33.224
1575307727.593917,418490.000,5820,1,T0,1,100,33.218
1575307727.735058,418609.000,5838,1,T0,1,100,33.197
1575307727.861967,418716.000,5856,1,T0,1,100,33.213
1575307727.988876,418823.000,5873,1,T0,1,100,33.207
1575307728.126459,418939.000,5891,1,T0,1,100,33.191
1575307728.262857,419054.000,5926,1,T0,1,100,33.207
1575307728.401626,419171.000,5944,1,T0,1,100,33.202
1575307728.526163,419276.000,5962,1,T0,1,100,33.197
1575307728.650700,419381.000,5980,1,T0,1,100,33.181
1575307728.789469,419498.000,5998,1,T0,1,100,33.207
1575307728.924680,419612.000,6016,1,T0,1,100,33.186
1575307729.056333,419723.000,6034,1,T0,1,100,33.240
1575307729.192731,419838.000,6051,1,T0,1,100,33.202
1575307729.323198,419948.000,6069,1,T0,1,100,33.165
1575307729.454851,420059.000,6104,1,T0,1,100,33.186
1575307729.581760,420166.000,6122,1,T0,1,100,33.202
1575307729.718157,420281.000,6140,1,T0,1,100,33.240
1575307729.845066,420388.000,6158,1,T0,1,100,33.202
1575307729.981463,420503.000,6176,1,T0,1,100,33.234
1575307730.113116,420614.000,6194,1,T0,1,100,33.181
1575307730.247141,420727.000,6212,1,T0,1,100,33.207
1575307730.387097,420845.000,6231,1,T0,1,100,33.181
1575307730.519936,420957.000,6248,1,T0,1,100,33.202
1575307730.658705,421074.000,6282,1,T0,1,100,33.186
1575307730.785614,421181.000,6300,1,T0,1,100,33.175
1575307730.916081,421291.000,6318,1,T0,1,100,33.202
1575307731.048921,421403.000,6336,1,T0,1,100,33.181
1575307731.186504,421519.000,6354,1,T0,1,100,33.229
1575307731.322901,421634.000,6373,1,T0,1,100,33.213
1575307731.445066,421737.000,6391,1,T0,1,100,33.170
1575307731.579091,421850.000,6409,1,T0,1,100,33.218
1575307731.719047,421968.000,6426,1,T0,1,100,33.207
1575307731.855444,422083.000,6460,1,T0,1,100,33.218
1575307731.983539,422191.000,6481,2,T0,1,100,33.207
1575307732.111634,422299.000,6481,2,T0,1,100,33.207
1575307732.244473,422411.000,6501,1,T0,1,100,33.218
1575307732.383242,422528.000,6519,1,T0,1,100,33.234
1575307732.522012,422645.000,6553,1,T0,1,100,33.234
1575307732.645362,422749.000,6571,1,T0,1,100,33.234
1575307732.774643,422858.000,6589,1,T0,1,100,33.213
1575307732.907483,422970.000,6607,1,T0,1,100,33.229
1575307733.043880,423085.000,6625,1,T0,1,100,33.224
1575307733.186208,423205.000,6643,1,T0,1,100,33.234
1575307733.324977,423322.000,6662,1,T0,1,100,33.191
1575307733.462560,423438.000,6679,1,T0,1,100,33.218
1575307733.604888,423558.000,6713,1,T0,1,100,33.256
1575307733.744844,423676.000,6731,1,T0,1,100,33.213
1575307733.881241,423791.000,6749,1,T0,1,100,33.207
1575307734.020010,423908.000,6767,1,T0,1,100,33.229
1575307734.146919,424015.000,6785,1,T0,1,100,33.224
1575307734.275014,424123.000,6803,1,T0,1,100,33.229
1575307734.413784,424240.000,6821,1,T0,1,100,33.240
1575307734.547809,424353.000,6855,1,T0,1,100,33.224
1575307734.681834,424466.000,6873,1,T0,1,100,33.240
1575307734.822976,424585.000,6891,1,T0,1,100,33.256
1575307734.948698,424691.000,6909,1,T0,1,100,33.245
1575307735.073235,424796.000,6927,1,T0,1,100,33.229
1575307735.210819,424912.000,6945,1,T0,1,100,33.245
1575307735.349588,425029.000,6964,1,T0,1,100,33.224
1575307735.482427,425141.000,6982,1,T0,1,100,33.240
1575307735.609336,425248.000,6999,1,T0,1,100,33.202
1575307735.742175,425360.000,7034,1,T0,1,100,33.224
1575307735.878572,425475.000,7051,1,T0,1,100,33.207
1575307736.014970,425590.000,7069,1,T0,1,100,33.266
1575307736.147809,425702.000,7087,1,T0,1,100,33.245
1575307736.272346,425807.000,7105,1,T0,1,100,33.207
1575307736.408743,425922.000,7124,1,T0,1,100,33.234
1575307736.542768,426035.000,7142,1,T0,1,100,33.234
1575307736.680351,426151.000,7160,1,T0,1,100,33.261
1575307736.807261,426258.000,7177,1,T0,1,100,33.256
1575307736.935355,426366.000,7195,1,T0,1,100,33.191
1575307737.069381,426479.000,7229,1,T0,1,100,33.229
1575307737.211708,426599.000,7247,1,T0,1,100,33.234
1575307737.350478,426716.000,7266,1,T0,1,100,33.250
1575307737.484503,426829.000,7284,1,T0,1,100,33.250
1575307737.626831,426949.000,7302,1,T0,1,100,33.272
1575307737.765600,427066.000,7320,1,T0,1,100,33.224
1575307737.899625,427179.000,7337,1,T0,1,100,33.224
1575307738.038395,427296.000,7374,2,T0,1,100,33.250
1575307738.177164,427413.000,7374,2,T0,1,100,33.218
1575307738.313561,427528.000,7394,1,T0,1,100,33.245
1575307738.448773,427642.000,7429,1,T0,1,100,33.181
1575307738.576868,427750.000,7447,1,T0,1,100,33.234
1575307738.703776,427857.000,7465,1,T0,1,100,33.229
1575307738.843732,427975.000,7483,1,T0,1,100,33.240
1575307738.978943,428089.000,7501,1,T0,1,100,33.266
1575307739.112968,428202.000,7519,1,T0,1,100,33.229
1575307739.251738,428319.000,7537,1,T0,1,100,33.272
1575307739.377461,428425.000,7556,1,T0,1,100,33.202
1575307739.505556,428533.000,7573,1,T0,1,100,33.261
1575307739.643139,428649.000,7591,1,T0,1,100,33.218
1575307739.781909,428766.000,7625,1,T0,1,100,33.229
1575307739.912375,428876.000,7643,1,T0,1,100,33.256
1575307740.036912,428981.000,7661,1,T0,1,100,33.266
1575307740.172123,429095.000,7679,1,T0,1,100,33.240
1575307740.309707,429211.000,7697,1,T0,1,100,33.234
1575307740.449662,429329.000,7716,1,T0,1,100,33.266
1575307740.576571,429436.000,7733,1,T0,1,100,33.272
1575307740.699922,429540.000,7751,1,T0,1,100,33.240
1575307740.838691,429657.000,7769,1,T0,1,100,33.250
1575307740.973903,429771.000,7803,1,T0,1,100,33.272
1575307741.109114,429885.000,7821,1,T0,1,100,33.240
1575307741.244325,429999.000,7839,1,T0,1,100,33.256
1575307741.377164,430111.000,7858,1,T0,1,100,33.245
1575307741.514748,430227.000,7876,1,T0,1,100,33.256
1575307741.641657,430334.000,7894,1,T0,1,100,33.229
1575307741.775682,430447.000,7912,1,T0,1,100,33.213
1575307741.901405,430553.000,7929,1,T0,1,100,33.250
1575307742.036616,430667.000,7947,1,T0,1,100,33.250
1575307742.167083,430777.000,7981,1,T0,1,100,33.266
1575307742.299922,430889.000,8000,1,T0,1,100,33.277
1575307742.441064,431008.000,8018,1,T0,1,100,33.266
1575307742.577461,431123.000,8036,1,T0,1,100,33.229
1575307742.713858,431238.000,8054,1,T0,1,100,33.266
1575307742.843139,431347.000,8072,1,T0,1,100,33.256
1575307742.972420,431456.000,8090,1,T0,1,100,33.277
1575307743.102887,431566.000,8107,1,T0,1,100,33.234
