EpochTimestamp,EmotiBitTimestamp,PacketNumber,DataLength,TypeTag,ProtocolVersion,DataReliability,EA
1574868621.083563,47406.000,7887,3,EA,1,100,0.601265
1574868621.083563,47406.000,7887,3,EA,1,100,0.601213
1574868621.083563,47406.000,7887,3,EA,1,100,0.601049
1574868621.147709,47460.000,7906,2,EA,1,100,0.601126
1574868621.211855,47514.000,7906,2,EA,1,100,0.601215
1574868621.277189,47569.000,7922,2,EA,1,100,0.600872
1574868621.342523,47624.000,7922,2,EA,1,100,0.600738
1574868621.410233,47681.000,7940,2,EA,1,100,0.601025
1574868621.477942,47738.000,7940,2,EA,1,100,0.600753
1574868621.546840,47796.000,7958,1,EA,1,100,0.600861
1574868621.614549,47853.000,7976,2,EA,1,100,0.600668
1574868621.682259,47910.000,7976,2,EA,1,100,0.600662
1574868621.746405,47964.000,7994,2,EA,1,100,0.600644
1574868621.810551,48018.000,7994,2,EA,1,100,0.600502
1574868621.874697,48072.000,8012,2,EA,1,100,0.600602
1574868621.938843,48126.000,8012,2,EA,1,100,0.600409
1574868622.007740,48184.000,8030,2,EA,1,100,0.600489
1574868622.076638,48242.000,8030,2,EA,1,100,0.600047
1574868622.144347,48299.000,8049,1,EA,1,100,0.600191
1574868622.213245,48357.000,8066,2,EA,1,100,0.600155
1574868622.282142,48415.000,8066,2,EA,1,100,0.600294
1574868622.347476,48470.000,8084,2,EA,1,100,0.600512
1574868622.412810,48525.000,8084,2,EA,1,100,0.600299
1574868622.476956,48579.000,8100,2,EA,1,100,0.600352
1574868622.541102,48633.000,8100,2,EA,1,100,0.599914
1574868622.607624,48689.000,8118,2,EA,1,100,0.600139
1574868622.674145,48745.000,8118,2,EA,1,100,0.600026
1574868622.743043,48803.000,8136,1,EA,1,100,0.600021
1574868622.811940,48861.000,8154,2,EA,1,100,0.599926
1574868622.880838,48919.000,8154,2,EA,1,100,0.600069
1574868622.946766,48974.500,8172,2,EA,1,100,0.600245
1574868623.012693,49030.000,8172,2,EA,1,100,0.600003
1574868623.076246,49083.500,8190,2,EA,1,100,0.600398
1574868623.139797,49137.000,8190,2,EA,1,100,0.599740
1574868623.205725,49192.500,8209,2,EA,1,100,0.599963
1574868623.271653,49248.000,8209,2,EA,1,100,0.599664
1574868623.339363,49305.000,8227,1,EA,1,100,0.599955
1574868623.408260,49363.000,8244,2,EA,1,100,0.599578
1574868623.477158,49421.000,8244,2,EA,1,100,0.599674
1574868623.544867,49478.000,8262,2,EA,1,100,0.599525
1574868623.612577,49535.000,8262,2,EA,1,100,0.599694
1574868623.676129,49588.500,8278,2,EA,1,100,0.599863
1574868623.739681,49642.000,8278,2,EA,1,100,0.599941
1574868623.803827,49696.000,8296,2,EA,1,100,0.600299
1574868623.867973,49750.000,8296,2,EA,1,100,0.599896
1574868623.934494,49806.000,8314,1,EA,1,100,0.599981
1574868624.003392,49864.000,8332,2,EA,1,100,0.599765
1574868624.072289,49922.000,8332,2,EA,1,100,0.599744
1574868624.141187,49980.000,8351,2,EA,1,100,0.599755
1574868624.210084,50038.000,8351,2,EA,1,100,0.599552
1574868624.273637,50091.500,8369,2,EA,1,100,0.599700
1574868624.337188,50145.000,8369,2,EA,1,100,0.599423
1574868624.401928,50199.500,8387,2,EA,1,100,0.599741
1574868624.466668,50254.000,8387,2,EA,1,100,0.599573
1574868624.533190,50310.000,8405,1,EA,1,100,0.599910
1574868624.602087,50368.000,8422,2,EA,1,100,0.599969
1574868624.670985,50426.000,8422,2,EA,1,100,0.600144
1574868624.738695,50483.000,8440,2,EA,1,100,0.600145
1574868624.806404,50540.000,8440,2,EA,1,100,0.599979
1574868624.871144,50594.500,8458,2,EA,1,100,0.600056
1574868624.935884,50649.000,8458,2,EA,1,100,0.599643
1574868624.998842,50702.000,8474,2,EA,1,100,0.599947
1574868625.061800,50755.000,8474,2,EA,1,100,0.599471
1574868625.130104,50812.500,8493,2,EA,1,100,0.599682
1574868625.198407,50870.000,8493,2,EA,1,100,0.599550
1574868625.267305,50928.000,8511,1,EA,1,100,0.599775
1574868625.335014,50985.000,8529,2,EA,1,100,0.599792
1574868625.402724,51042.000,8529,2,EA,1,100,0.599617
1574868625.469246,51098.000,8547,2,EA,1,100,0.599930
1574868625.535768,51154.000,8547,2,EA,1,100,0.599620
1574868625.599319,51207.500,8565,2,EA,1,100,0.599681
1574868625.662872,51261.000,8565,2,EA,1,100,0.599005
1574868625.729393,51317.000,8583,2,EA,1,100,0.599217
1574868625.795915,51373.000,8583,2,EA,1,100,0.598699
1574868625.869564,51435.000,8601,1,EA,1,100,0.598326
1574868625.936086,51491.000,8618,2,EA,1,100,0.598541
1574868626.002607,51547.000,8618,2,EA,1,100,0.599124
1574868626.070317,51604.000,8636,2,EA,1,100,0.599803
1574868626.138027,51661.000,8636,2,EA,1,100,0.599562
1574868626.201579,51714.500,8653,2,EA,1,100,0.597695
1574868626.265131,51768.000,8653,2,EA,1,100,0.597814
1574868626.328089,51821.000,8671,2,EA,1,100,0.598233
1574868626.391047,51874.000,8671,2,EA,1,100,0.598181
1574868626.463508,51935.000,8689,1,EA,1,100,0.598870
1574868626.529436,51990.500,8707,2,EA,1,100,0.598585
1574868626.595364,52046.000,8707,2,EA,1,100,0.598627
1574868626.664261,52104.000,8725,2,EA,1,100,0.598559
1574868626.733159,52162.000,8725,2,EA,1,100,0.598604
1574868626.795523,52214.500,8743,2,EA,1,100,0.598972
1574868626.857887,52267.000,8743,2,EA,1,100,0.599373
1574868626.922033,52321.000,8761,2,EA,1,100,0.599472
1574868626.986179,52375.000,8761,2,EA,1,100,0.599669
1574868627.054482,52432.500,8782,2,EA,1,100,0.600494
1574868627.122786,52490.000,8782,2,EA,1,100,0.601619
1574868627.192871,52549.000,8803,2,EA,1,100,0.601481
1574868627.262957,52608.000,8803,2,EA,1,100,0.601997
1574868627.328884,52663.500,8821,2,EA,1,100,0.601671
1574868627.394812,52719.000,8821,2,EA,1,100,0.601928
1574868627.458364,52772.500,8839,2,EA,1,100,0.602111
1574868627.521916,52826.000,8839,2,EA,1,100,0.601837
1574868627.589032,52882.500,8857,2,EA,1,100,0.601869
1574868627.656147,52939.000,8857,2,EA,1,100,0.602017
1574868627.722669,52995.000,8875,1,EA,1,100,0.602990
1574868627.792161,53053.500,8892,2,EA,1,100,0.602905
1574868627.861652,53112.000,8892,2,EA,1,100,0.602918
1574868627.928174,53168.000,8910,2,EA,1,100,0.602971
1574868627.994696,53224.000,8910,2,EA,1,100,0.603305
1574868628.058248,53277.500,8928,2,EA,1,100,0.603119
1574868628.121799,53331.000,8928,2,EA,1,100,0.602860
1574868628.187133,53386.000,8945,2,EA,1,100,0.602943
1574868628.252467,53441.000,8945,2,EA,1,100,0.602703
1574868628.320177,53498.000,8963,2,EA,1,100,0.603036
1574868628.387887,53555.000,8963,2,EA,1,100,0.603030
1574868628.456784,53613.000,8981,1,EA,1,100,0.603293
1574868628.525088,53670.500,8999,2,EA,1,100,0.603713
1574868628.593391,53728.000,8999,2,EA,1,100,0.603601
1574868628.656943,53781.500,9017,2,EA,1,100,0.603164
1574868628.720495,53835.000,9017,2,EA,1,100,0.603188
1574868628.787611,53891.500,9035,2,EA,1,100,0.604018
1574868628.854727,53948.000,9035,2,EA,1,100,0.602766
1574868628.921248,54004.000,9053,2,EA,1,100,0.603413
1574868628.987770,54060.000,9053,2,EA,1,100,0.603225
1574868629.060231,54121.000,9071,1,EA,1,100,0.603556
1574868629.126753,54177.000,9089,2,EA,1,100,0.603399
1574868629.193274,54233.000,9089,2,EA,1,100,0.603480
1574868629.256827,54286.500,9107,2,EA,1,100,0.603645
1574868629.320379,54340.000,9107,2,EA,1,100,0.603631
1574868629.386900,54396.000,9123,2,EA,1,100,0.604031
1574868629.453422,54452.000,9123,2,EA,1,100,0.603556
1574868629.519944,54508.000,9141,2,EA,1,100,0.603890
1574868629.586465,54564.000,9141,2,EA,1,100,0.603510
1574868629.658926,54625.000,9159,1,EA,1,100,0.603805
1574868629.725448,54681.000,9177,2,EA,1,100,0.603767
1574868629.791970,54737.000,9177,2,EA,1,100,0.603877
1574868629.857898,54792.500,9195,2,EA,1,100,0.603942
1574868629.923826,54848.000,9195,2,EA,1,100,0.603877
1574868629.987972,54902.000,9213,2,EA,1,100,0.604297
1574868630.052118,54956.000,9213,2,EA,1,100,0.603880
1574868630.117451,55011.000,9232,2,EA,1,100,0.604299
1574868630.182785,55066.000,9232,2,EA,1,100,0.604177
1574868630.256434,55128.000,9250,1,EA,1,100,0.604229
1574868630.322362,55183.500,9267,2,EA,1,100,0.603823
1574868630.388290,55239.000,9267,2,EA,1,100,0.603912
1574868630.455405,55295.500,9285,2,EA,1,100,0.604135
1574868630.522521,55352.000,9285,2,EA,1,100,0.604151
1574868630.586073,55405.500,9301,2,EA,1,100,0.604289
1574868630.649625,55459.000,9301,2,EA,1,100,0.604191
1574868630.716741,55515.500,9319,2,EA,1,100,0.604276
1574868630.783856,55572.000,9319,2,EA,1,100,0.604328
1574868630.853942,55631.000,9337,1,EA,1,100,0.604428
1574868630.922246,55688.500,9355,2,EA,1,100,0.604193
1574868630.990549,55746.000,9355,2,EA,1,100,0.604216
1574868631.057665,55802.500,9373,2,EA,1,100,0.604222
1574868631.124780,55859.000,9373,2,EA,1,100,0.604045
1574868631.188332,55912.500,9392,2,EA,1,100,0.604342
1574868631.251884,55966.000,9392,2,EA,1,100,0.604047
1574868631.316624,56020.500,9410,2,EA,1,100,0.604586
1574868631.381364,56075.000,9410,2,EA,1,100,0.604725
1574868631.451450,56134.000,9428,1,EA,1,100,0.605540
1574868631.518565,56190.500,9445,2,EA,1,100,0.604925
1574868631.585681,56247.000,9445,2,EA,1,100,0.604612
1574868631.654578,56305.000,9463,2,EA,1,100,0.604823
1574868631.723476,56363.000,9463,2,EA,1,100,0.604561
1574868631.785840,56415.500,9479,2,EA,1,100,0.604597
1574868631.848204,56468.000,9479,2,EA,1,100,0.603956
1574868631.912350,56522.000,9497,2,EA,1,100,0.604241
1574868631.976496,56576.000,9497,2,EA,1,100,0.604012
1574868632.044206,56633.000,9515,1,EA,1,100,0.604191
1574868632.111321,56689.500,9534,2,EA,1,100,0.604156
1574868632.178437,56746.000,9534,2,EA,1,100,0.604336
1574868632.247928,56804.500,9552,2,EA,1,100,0.604353
1574868632.317420,56863.000,9552,2,EA,1,100,0.604563
1574868632.380972,56916.500,9570,2,EA,1,100,0.604859
1574868632.444524,56970.000,9570,2,EA,1,100,0.604570
1574868632.508076,57023.500,9588,2,EA,1,100,0.604571
1574868632.571628,57077.000,9588,2,EA,1,100,0.604288
1574868632.644089,57138.000,9606,1,EA,1,100,0.604688
1574868632.711205,57194.500,9624,2,EA,1,100,0.604454
1574868632.778320,57251.000,9624,2,EA,1,100,0.604536
1574868632.847812,57309.500,9641,2,EA,1,100,0.604608
1574868632.917303,57368.000,9641,2,EA,1,100,0.604382
1574868632.980855,57421.500,9659,2,EA,1,100,0.604507
1574868633.044407,57475.000,9659,2,EA,1,100,0.604547
1574868633.109345,57529.667,9680,3,EA,1,100,0.604800
1574868633.174283,57584.333,9680,3,EA,1,100,0.604504
1574868633.239221,57639.000,9680,3,EA,1,100,0.604605
1574868633.305743,57695.000,9700,2,EA,1,100,0.604721
1574868633.372264,57751.000,9700,2,EA,1,100,0.604530
1574868633.444726,57812.000,9718,1,EA,1,100,0.604311
1574868633.511247,57868.000,9735,2,EA,1,100,0.604390
1574868633.577769,57924.000,9735,2,EA,1,100,0.604539
1574868633.641321,57977.500,9753,2,EA,1,100,0.604665
1574868633.704873,58031.000,9753,2,EA,1,100,0.604289
1574868633.771395,58087.000,9771,2,EA,1,100,0.604618
1574868633.837916,58143.000,9771,2,EA,1,100,0.604430
1574868633.905626,58200.000,9787,2,EA,1,100,0.604578
1574868633.973336,58257.000,9787,2,EA,1,100,0.604591
1574868634.042233,58315.000,9805,1,EA,1,100,0.604740
1574868634.110537,58372.500,9824,2,EA,1,100,0.604727
1574868634.178840,58430.000,9824,2,EA,1,100,0.604541
1574868634.242392,58483.500,9842,2,EA,1,100,0.604744
1574868634.305944,58537.000,9842,2,EA,1,100,0.604563
1574868634.371278,58592.000,9860,2,EA,1,100,0.604746
1574868634.436612,58647.000,9860,2,EA,1,100,0.604682
1574868634.504322,58704.000,9878,2,EA,1,100,0.604940
1574868634.572031,58761.000,9878,2,EA,1,100,0.604560
1574868634.640929,58819.000,9896,1,EA,1,100,0.604735
1574868634.709232,58876.500,9913,2,EA,1,100,0.604776
1574868634.777536,58934.000,9913,2,EA,1,100,0.604719
1574868634.843464,58989.500,9931,2,EA,1,100,0.604607
1574868634.909391,59045.000,9931,2,EA,1,100,0.604629
1574868634.972943,59098.500,9947,2,EA,1,100,0.604997
1574868635.036495,59152.000,9947,2,EA,1,100,0.604624
1574868635.103017,59208.000,9966,2,EA,1,100,0.604646
1574868635.169539,59264.000,9966,2,EA,1,100,0.604582
1574868635.239624,59323.000,9984,1,EA,1,100,0.605066
1574868635.307334,59380.000,10002,2,EA,1,100,0.604889
1574868635.375043,59437.000,10002,2,EA,1,100,0.604607
1574868635.442753,59494.000,10020,2,EA,1,100,0.605175
1574868635.510463,59551.000,10020,2,EA,1,100,0.604962
1574868635.574015,59604.500,10038,2,EA,1,100,0.605036
1574868635.637567,59658.000,10038,2,EA,1,100,0.604781
1574868635.704088,59714.000,10056,2,EA,1,100,0.605055
1574868635.770610,59770.000,10056,2,EA,1,100,0.604786
1574868635.844259,59832.000,10074,1,EA,1,100,0.605160
1574868635.910781,59888.000,10091,2,EA,1,100,0.604876
1574868635.977303,59944.000,10091,2,EA,1,100,0.605192
1574868636.045012,60001.000,10109,2,EA,1,100,0.605388
1574868636.112722,60058.000,10109,2,EA,1,100,0.605302
1574868636.176274,60111.500,10126,2,EA,1,100,0.605826
1574868636.239826,60165.000,10126,2,EA,1,100,0.605386
1574868636.305160,60220.000,10144,2,EA,1,100,0.605685
1574868636.370494,60275.000,10144,2,EA,1,100,0.605458
1574868636.440579,60334.000,10162,1,EA,1,100,0.605781
1574868636.507101,60390.000,10180,2,EA,1,100,0.605564
1574868636.573622,60446.000,10180,2,EA,1,100,0.605701
1574868636.641332,60503.000,10198,2,EA,1,100,0.605689
1574868636.709042,60560.000,10198,2,EA,1,100,0.605862
1574868636.771406,60612.500,10216,2,EA,1,100,0.606128
1574868636.833770,60665.000,10216,2,EA,1,100,0.606145
1574868636.899698,60720.500,10234,2,EA,1,100,0.606540
1574868636.965626,60776.000,10234,2,EA,1,100,0.606348
1574868637.035711,60835.000,10252,1,EA,1,100,0.606357
1574868637.103420,60892.000,10270,2,EA,1,100,0.606202
1574868637.171130,60949.000,10270,2,EA,1,100,0.606282
1574868637.240028,61007.000,10288,2,EA,1,100,0.606244
1574868637.308925,61065.000,10288,2,EA,1,100,0.606309
1574868637.373071,61119.000,10304,2,EA,1,100,0.606526
1574868637.437217,61173.000,10304,2,EA,1,100,0.606357
1574868637.501363,61227.000,10322,2,EA,1,100,0.606758
1574868637.565509,61281.000,10322,2,EA,1,100,0.606583
1574868637.633219,61338.000,10340,1,EA,1,100,0.606980
1574868637.701522,61395.500,10358,2,EA,1,100,0.606890
1574868637.769826,61453.000,10358,2,EA,1,100,0.606945
1574868637.838129,61510.500,10376,2,EA,1,100,0.606994
1574868637.906433,61568.000,10376,2,EA,1,100,0.606679
1574868637.971766,61623.000,10394,2,EA,1,100,0.606840
1574868638.037100,61678.000,10394,2,EA,1,100,0.606476
1574868638.100059,61731.000,10413,2,EA,1,100,0.606850
1574868638.163017,61784.000,10413,2,EA,1,100,0.606730
1574868638.230726,61841.000,10431,1,EA,1,100,0.607012
1574868638.297842,61897.500,10449,2,EA,1,100,0.606978
1574868638.364958,61954.000,10449,2,EA,1,100,0.607338
1574868638.434449,62012.500,10466,2,EA,1,100,0.607219
1574868638.503940,62071.000,10466,2,EA,1,100,0.607388
1574868638.569868,62126.500,10482,2,EA,1,100,0.607552
1574868638.635796,62182.000,10482,2,EA,1,100,0.607383
1574868638.698160,62234.500,10500,2,EA,1,100,0.607591
1574868638.760524,62287.000,10500,2,EA,1,100,0.607190
1574868638.831797,62347.000,10518,1,EA,1,100,0.607471
1574868638.898319,62403.000,10536,2,EA,1,100,0.607392
1574868638.964841,62459.000,10536,2,EA,1,100,0.607477
1574868639.034332,62517.500,10554,2,EA,1,100,0.607409
1574868639.103824,62576.000,10554,2,EA,1,100,0.607650
1574868639.169554,62631.333,10576,3,EA,1,100,0.607871
1574868639.235283,62686.667,10576,3,EA,1,100,0.607748
1574868639.301013,62742.000,10576,3,EA,1,100,0.607774
1574868639.366941,62797.500,10596,2,EA,1,100,0.607924
1574868639.432869,62853.000,10596,2,EA,1,100,0.607988
1574868639.498203,62908.000,10614,1,EA,1,100,0.608211
1574868639.567694,62966.500,10632,2,EA,1,100,0.608050
1574868639.637186,63025.000,10632,2,EA,1,100,0.608099
1574868639.704301,63081.500,10650,2,EA,1,100,0.608263
1574868639.771417,63138.000,10650,2,EA,1,100,0.608564
1574868639.836157,63192.500,10668,2,EA,1,100,0.608533
1574868639.900897,63247.000,10668,2,EA,1,100,0.608263
1574868639.965043,63301.000,10686,2,EA,1,100,0.608640
1574868640.029189,63355.000,10686,2,EA,1,100,0.608462
1574868640.095710,63411.000,10705,1,EA,1,100,0.608749
1574868640.165796,63470.000,10723,2,EA,1,100,0.608649
1574868640.235881,63529.000,10723,2,EA,1,100,0.608737
1574868640.302403,63585.000,10740,2,EA,1,100,0.608936
1574868640.368925,63641.000,10740,2,EA,1,100,0.609021
1574868640.434258,63696.000,10758,2,EA,1,100,0.609259
1574868640.499592,63751.000,10758,2,EA,1,100,0.609121
1574868640.563144,63804.500,10774,2,EA,1,100,0.609369
1574868640.626696,63858.000,10774,2,EA,1,100,0.609262
1574868640.693218,63914.000,10792,2,EA,1,100,0.609403
1574868640.759740,63970.000,10792,2,EA,1,100,0.609052
1574868640.829825,64029.000,10810,1,EA,1,100,0.609355
1574868640.898129,64086.500,10828,2,EA,1,100,0.609178
1574868640.966432,64144.000,10828,2,EA,1,100,0.609221
1574868641.034142,64201.000,10846,2,EA,1,100,0.609420
1574868641.101851,64258.000,10846,2,EA,1,100,0.609567
1574868641.165403,64311.500,10865,2,EA,1,100,0.609758
1574868641.228956,64365.000,10865,2,EA,1,100,0.609621
1574868641.294289,64420.000,10883,2,EA,1,100,0.609957
1574868641.359623,64475.000,10883,2,EA,1,100,0.609800
1574868641.429708,64534.000,10901,1,EA,1,100,0.609881
1574868641.496824,64590.500,10918,2,EA,1,100,0.609714
1574868641.563940,64647.000,10918,2,EA,1,100,0.609506
1574868641.633431,64705.500,10936,2,EA,1,100,0.609761
1574868641.702923,64764.000,10936,2,EA,1,100,0.610000
1574868641.765287,64816.500,10952,2,EA,1,100,0.610098
1574868641.827651,64869.000,10952,2,EA,1,100,0.609974
1574868641.891797,64923.000,10970,2,EA,1,100,0.610421
1574868641.955943,64977.000,10970,2,EA,1,100,0.610259
1574868642.024840,65035.000,10988,1,EA,1,100,0.610541
1574868642.091956,65091.500,11007,2,EA,1,100,0.610332
1574868642.159072,65148.000,11007,2,EA,1,100,0.610425
1574868642.229157,65207.000,11025,2,EA,1,100,0.610036
1574868642.299242,65266.000,11025,2,EA,1,100,0.610106
1574868642.363388,65320.000,11043,2,EA,1,100,0.610164
1574868642.427534,65374.000,11043,2,EA,1,100,0.609858
1574868642.489898,65426.500,11061,2,EA,1,100,0.610470
1574868642.552263,65479.000,11061,2,EA,1,100,0.610212
1574868642.623536,65539.000,11079,1,EA,1,100,0.610713
1574868642.690651,65595.500,11096,2,EA,1,100,0.610574
1574868642.757767,65652.000,11096,2,EA,1,100,0.610713
1574868642.827852,65711.000,11114,2,EA,1,100,0.610797
1574868642.897938,65770.000,11114,2,EA,1,100,0.610404
1574868642.963272,65825.000,11130,2,EA,1,100,0.610480
1574868643.028606,65880.000,11130,2,EA,1,100,0.610082
1574868643.091564,65933.000,11149,2,EA,1,100,0.610368
1574868643.154522,65986.000,11149,2,EA,1,100,0.610186
1574868643.224607,66045.000,11167,1,EA,1,100,0.610346
1574868643.291723,66101.500,11185,2,EA,1,100,0.610549
1574868643.358839,66158.000,11185,2,EA,1,100,0.610679
1574868643.427736,66216.000,11203,2,EA,1,100,0.610947
1574868643.496634,66274.000,11203,2,EA,1,100,0.611105
1574868643.561967,66329.000,11221,2,EA,1,100,0.611095
1574868643.627301,66384.000,11221,2,EA,1,100,0.610423
1574868643.689665,66436.500,11239,2,EA,1,100,0.610717
1574868643.752029,66489.000,11239,2,EA,1,100,0.610359
1574868643.822115,66548.000,11257,1,EA,1,100,0.610499
1574868643.890418,66605.500,11274,2,EA,1,100,0.610560
1574868643.958722,66663.000,11274,2,EA,1,100,0.610698
1574868644.025838,66719.500,11292,2,EA,1,100,0.610899
1574868644.092953,66776.000,11292,2,EA,1,100,0.610855
1574868644.161257,66833.500,11309,2,EA,1,100,0.611106
1574868644.229560,66891.000,11309,2,EA,1,100,0.611019
1574868644.292518,66944.000,11327,2,EA,1,100,0.611323
1574868644.355477,66997.000,11327,2,EA,1,100,0.610747
1574868644.423186,67054.000,11345,1,EA,1,100,0.610784
1574868644.492084,67112.000,11363,2,EA,1,100,0.610548
1574868644.560981,67170.000,11363,2,EA,1,100,0.610667
1574868644.625721,67224.500,11381,2,EA,1,100,0.610676
1574868644.690461,67279.000,11381,2,EA,1,100,0.610700
1574868644.760546,67338.000,11399,2,EA,1,100,0.610913
1574868644.830632,67397.000,11399,2,EA,1,100,0.610791
1574868644.895966,67452.000,11417,1,EA,1,100,0.611097
1574868644.966051,67511.000,11434,2,EA,1,100,0.610990
1574868645.036136,67570.000,11434,2,EA,1,100,0.611208
1574868645.099094,67623.000,11453,2,EA,1,100,0.611190
1574868645.162052,67676.000,11453,2,EA,1,100,0.610866
1574868645.227386,67731.000,11474,3,EA,1,100,0.610750
1574868645.292720,67786.000,11474,3,EA,1,100,0.610714
1574868645.358054,67841.000,11474,3,EA,1,100,0.610755
1574868645.426951,67899.000,11494,2,EA,1,100,0.610862
1574868645.495849,67957.000,11494,2,EA,1,100,0.610873
1574868645.562371,68013.000,11512,1,EA,1,100,0.611130
1574868645.630080,68070.000,11529,2,EA,1,100,0.610793
1574868645.697790,68127.000,11529,2,EA,1,100,0.611075
1574868645.761342,68180.500,11547,2,EA,1,100,0.611091
1574868645.824894,68234.000,11547,2,EA,1,100,0.611216
1574868645.890228,68289.000,11565,2,EA,1,100,0.611141
1574868645.955562,68344.000,11565,2,EA,1,100,0.610862
1574868646.025647,68403.000,11583,2,EA,1,100,0.611040
1574868646.095732,68462.000,11583,2,EA,1,100,0.610489
1574868646.162254,68518.000,11600,1,EA,1,100,0.610780
1574868646.231152,68576.000,11618,2,EA,1,100,0.610492
1574868646.300049,68634.000,11618,2,EA,1,100,0.610614
1574868646.363601,68687.500,11636,2,EA,1,100,0.610693
1574868646.427153,68741.000,11636,2,EA,1,100,0.610871
1574868646.490705,68794.500,11654,2,EA,1,100,0.610893
1574868646.554257,68848.000,11654,2,EA,1,100,0.610805
1574868646.624342,68907.000,11672,2,EA,1,100,0.610867
1574868646.694428,68966.000,11672,2,EA,1,100,0.610730
1574868646.762138,69023.000,11690,1,EA,1,100,0.610776
1574868646.830441,69080.500,11707,2,EA,1,100,0.610800
1574868646.898745,69138.000,11707,2,EA,1,100,0.610731
1574868646.961109,69190.500,11725,2,EA,1,100,0.610651
1574868647.023473,69243.000,11725,2,EA,1,100,0.610718
1574868647.088807,69298.000,11744,2,EA,1,100,0.610843
1574868647.154140,69353.000,11744,2,EA,1,100,0.610610
1574868647.221850,69410.000,11762,2,EA,1,100,0.610573
1574868647.289560,69467.000,11762,2,EA,1,100,0.610421
1574868647.359645,69526.000,11778,2,EA,1,100,0.610856
1574868647.429731,69585.000,11778,2,EA,1,100,0.610386
1574868647.496252,69641.000,11796,1,EA,1,100,0.610649
1574868647.560398,69695.000,11814,2,EA,1,100,0.610708
1574868647.624544,69749.000,11814,2,EA,1,100,0.610719
1574868647.690472,69804.500,11832,2,EA,1,100,0.610560
1574868647.756400,69860.000,11832,2,EA,1,100,0.610471
1574868647.819358,69913.000,11850,2,EA,1,100,0.610445
1574868647.882316,69966.000,11850,2,EA,1,100,0.610487
1574868647.948838,70022.000,11868,2,EA,1,100,0.610635
1574868648.015359,70078.000,11868,2,EA,1,100,0.610394
1574868648.081881,70134.000,11887,1,EA,1,100,0.610689
1574868648.151372,70192.500,11905,2,EA,1,100,0.610610
1574868648.220864,70251.000,11905,2,EA,1,100,0.610662
1574868648.288574,70308.000,11922,2,EA,1,100,0.610563
1574868648.356283,70365.000,11922,2,EA,1,100,0.610412
1574868648.419835,70418.500,11940,2,EA,1,100,0.610441
1574868648.483387,70472.000,11940,2,EA,1,100,0.610053
1574868648.549315,70527.500,11956,2,EA,1,100,0.610255
1574868648.615243,70583.000,11956,2,EA,1,100,0.610071
1574868648.682359,70639.500,11974,2,EA,1,100,0.610606
1574868648.749474,70696.000,11974,2,EA,1,100,0.610151
1574868648.818372,70754.000,11992,1,EA,1,100,0.610440
1574868648.887863,70812.500,12010,2,EA,1,100,0.610446
1574868648.957355,70871.000,12010,2,EA,1,100,0.610597
1574868649.020906,70924.500,12028,2,EA,1,100,0.610473
1574868649.084459,70978.000,12028,2,EA,1,100,0.610034
1574868649.149198,71032.500,12047,2,EA,1,100,0.610337
1574868649.213938,71087.000,12047,2,EA,1,100,0.609981
1574868649.280460,71143.000,12065,2,EA,1,100,0.610208
1574868649.346982,71199.000,12065,2,EA,1,100,0.609793
1574868649.415879,71257.000,12083,1,EA,1,100,0.610282
1574868649.484777,71315.000,12100,2,EA,1,100,0.610039
1574868649.553674,71373.000,12100,2,EA,1,100,0.610208
1574868649.618414,71427.500,12118,2,EA,1,100,0.610259
1574868649.683154,71482.000,12118,2,EA,1,100,0.610204
1574868649.748488,71537.000,12136,2,EA,1,100,0.610401
1574868649.813822,71592.000,12136,2,EA,1,100,0.610060
1574868649.879750,71647.500,12152,2,EA,1,100,0.610200
1574868649.945677,71703.000,12152,2,EA,1,100,0.609692
1574868650.019326,71765.000,12170,1,EA,1,100,0.609858
1574868650.086442,71821.500,12189,2,EA,1,100,0.609892
1574868650.153558,71878.000,12189,2,EA,1,100,0.609917
1574868650.220079,71934.000,12207,2,EA,1,100,0.609934
1574868650.286601,71990.000,12207,2,EA,1,100,0.609891
1574868650.350153,72043.500,12225,2,EA,1,100,0.610176
1574868650.413705,72097.000,12225,2,EA,1,100,0.609861
1574868650.480821,72153.500,12243,2,EA,1,100,0.610062
1574868650.547936,72210.000,12243,2,EA,1,100,0.609723
1574868650.620398,72271.000,12261,1,EA,1,100,0.609803
1574868650.686919,72327.000,12278,2,EA,1,100,0.609931
1574868650.753441,72383.000,12278,2,EA,1,100,0.609921
1574868650.819369,72438.500,12296,2,EA,1,100,0.610016
1574868650.885297,72494.000,12296,2,EA,1,100,0.609735
1574868650.947661,72546.500,12312,2,EA,1,100,0.610108
1574868651.010025,72599.000,12312,2,EA,1,100,0.609742
1574868651.077734,72656.000,12331,2,EA,1,100,0.609848
1574868651.145444,72713.000,12331,2,EA,1,100,0.609580
1574868651.209590,72767.000,12349,1,EA,1,100,0.609764
1574868651.277696,72824.333,12370,3,EA,1,100,0.609648
1574868651.345801,72881.667,12370,3,EA,1,100,0.609801
1574868651.413907,72939.000,12370,3,EA,1,100,0.609781
1574868651.482210,72996.500,12390,2,EA,1,100,0.609955
1574868651.550514,73054.000,12390,2,EA,1,100,0.609839
1574868651.618818,73111.500,12406,2,EA,1,100,0.609821
1574868651.687121,73169.000,12406,2,EA,1,100,0.609571
1574868651.750673,73222.500,12424,2,EA,1,100,0.609623
1574868651.814225,73276.000,12424,2,EA,1,100,0.609546
1574868651.877183,73329.000,12442,1,EA,1,100,0.609583
1574868651.945487,73386.500,12460,2,EA,1,100,0.609722
1574868652.013790,73444.000,12460,2,EA,1,100,0.609513
1574868652.082094,73501.500,12479,2,EA,1,100,0.609743
1574868652.150397,73559.000,12479,2,EA,1,100,0.609498
1574868652.219889,73617.500,12497,2,EA,1,100,0.609688
1574868652.289380,73676.000,12497,2,EA,1,100,0.609568
1574868652.351744,73728.500,12515,2,EA,1,100,0.609871
1574868652.414109,73781.000,12515,2,EA,1,100,0.609574
1574868652.477067,73834.000,12533,1,EA,1,100,0.609350
1574868652.542994,73889.500,12550,2,EA,1,100,0.609284
1574868652.608922,73945.000,12550,2,EA,1,100,0.609461
1574868652.676632,74002.000,12568,2,EA,1,100,0.609416
1574868652.744341,74059.000,12568,2,EA,1,100,0.609376
1574868652.813833,74117.500,12586,2,EA,1,100,0.609619
1574868652.883324,74176.000,12586,2,EA,1,100,0.609302
1574868652.946876,74229.500,12602,2,EA,1,100,0.609628
1574868653.010428,74283.000,12602,2,EA,1,100,0.609266
1574868653.073386,74336.000,12621,2,EA,1,100,0.609606
1574868653.136344,74389.000,12621,2,EA,1,100,0.609281
1574868653.207618,74449.000,12639,1,EA,1,100,0.609424
1574868653.274733,74505.500,12657,2,EA,1,100,0.609253
1574868653.341849,74562.000,12657,2,EA,1,100,0.609316
1574868653.411934,74621.000,12675,2,EA,1,100,0.609328
1574868653.482020,74680.000,12675,2,EA,1,100,0.609208
1574868653.548542,74736.000,12693,2,EA,1,100,0.609443
1574868653.615063,74792.000,12693,2,EA,1,100,0.609054
1574868653.676833,74844.000,12711,1,EA,1,100,0.609189
1574868653.743355,74900.000,12729,2,EA,1,100,0.609205
1574868653.809877,74956.000,12729,2,EA,1,100,0.609186
1574868653.876992,75012.500,12746,2,EA,1,100,0.609196
1574868653.944108,75069.000,12746,2,EA,1,100,0.609338
1574868654.013006,75127.000,12764,2,EA,1,100,0.609602
1574868654.081903,75185.000,12764,2,EA,1,100,0.608914
1574868654.147237,75240.000,12781,2,EA,1,100,0.609290
1574868654.212571,75295.000,12781,2,EA,1,100,0.609101
1574868654.274935,75347.500,12799,2,EA,1,100,0.609434
1574868654.337299,75400.000,12799,2,EA,1,100,0.609036
1574868654.406197,75458.000,12817,1,EA,1,100,0.608840
1574868654.473312,75514.500,12835,2,EA,1,100,0.609093
1574868654.540428,75571.000,12835,2,EA,1,100,0.609125
1574868654.608732,75628.500,12853,2,EA,1,100,0.609282
1574868654.677035,75686.000,12853,2,EA,1,100,0.608972
1574868654.744745,75743.000,12871,2,EA,1,100,0.609271
1574868654.812454,75800.000,12871,2,EA,1,100,0.609021
1574868654.874224,75852.000,12889,1,EA,1,100,0.609251
1574868654.941934,75909.000,12906,2,EA,1,100,0.608856
1574868655.009644,75966.000,12906,2,EA,1,100,0.608904
1574868655.072602,76019.000,12925,2,EA,1,100,0.608956
1574868655.135560,76072.000,12925,2,EA,1,100,0.608773
1574868655.200300,76126.500,12943,2,EA,1,100,0.608822
1574868655.265040,76181.000,12943,2,EA,1,100,0.608803
1574868655.335125,76240.000,12959,2,EA,1,100,0.608950
1574868655.405210,76299.000,12959,2,EA,1,100,0.608761
1574868655.470544,76354.000,12977,1,EA,1,100,0.609020
1574868655.541817,76414.000,12995,2,EA,1,100,0.608479
1574868655.613091,76474.000,12995,2,EA,1,100,0.608633
1574868655.675455,76526.500,13013,2,EA,1,100,0.608691
1574868655.737819,76579.000,13013,2,EA,1,100,0.608631
1574868655.803747,76634.500,13031,2,EA,1,100,0.608818
1574868655.869675,76690.000,13031,2,EA,1,100,0.608880
1574868655.937384,76747.000,13049,2,EA,1,100,0.609100
1574868656.005094,76804.000,13049,2,EA,1,100,0.608796
1574868656.073991,76862.000,13068,1,EA,1,100,0.608992
1574868656.143483,76920.500,13086,2,EA,1,100,0.608549
1574868656.212974,76979.000,13086,2,EA,1,100,0.608608
1574868656.275338,77031.500,13103,2,EA,1,100,0.608528
1574868656.337703,77084.000,13103,2,EA,1,100,0.608297
1574868656.402442,77138.500,13121,2,EA,1,100,0.608772
1574868656.467182,77193.000,13121,2,EA,1,100,0.608907
1574868656.534298,77249.500,13139,2,EA,1,100,0.609032
1574868656.601413,77306.000,13139,2,EA,1,100,0.608960
1574868656.668529,77362.500,13155,2,EA,1,100,0.608875
1574868656.735645,77419.000,13155,2,EA,1,100,0.608839
1574868656.809294,77481.000,13173,1,EA,1,100,0.609130
1574868656.872252,77534.000,13191,2,EA,1,100,0.608802
1574868656.935210,77587.000,13191,2,EA,1,100,0.608878
1574868656.999950,77641.500,13209,2,EA,1,100,0.608761
1574868657.064690,77696.000,13209,2,EA,1,100,0.608869
1574868657.132993,77753.500,13228,2,EA,1,100,0.608831
1574868657.201297,77811.000,13228,2,EA,1,100,0.608686
1574868657.268413,77867.500,13246,2,EA,1,100,0.609068
1574868657.335528,77924.000,13246,2,EA,1,100,0.608744
1574868657.405020,77982.500,13267,2,EA,1,100,0.609183
1574868657.474511,78041.000,13267,2,EA,1,100,0.609020
1574868657.536875,78093.500,13287,2,EA,1,100,0.609216
1574868657.599239,78146.000,13287,2,EA,1,100,0.609364
1574868657.663385,78200.000,13305,2,EA,1,100,0.609011
1574868657.727531,78254.000,13305,2,EA,1,100,0.609134
1574868657.795835,78311.500,13323,2,EA,1,100,0.609194
1574868657.864138,78369.000,13323,2,EA,1,100,0.608998
1574868657.933630,78427.500,13341,2,EA,1,100,0.609279
1574868658.003121,78486.000,13341,2,EA,1,100,0.608968
1574868658.068455,78541.000,13360,1,EA,1,100,0.609204
1574868658.132007,78594.500,13377,2,EA,1,100,0.609040
1574868658.195559,78648.000,13377,2,EA,1,100,0.608983
1574868658.259705,78702.000,13395,2,EA,1,100,0.609046
1574868658.323851,78756.000,13395,2,EA,1,100,0.609293
1574868658.392155,78813.500,13413,2,EA,1,100,0.609039
1574868658.460458,78871.000,13413,2,EA,1,100,0.609236
1574868658.531137,78930.500,13429,2,EA,1,100,0.609654
1574868658.601817,78990.000,13429,2,EA,1,100,0.609448
1574868658.668339,79046.000,13447,1,EA,1,100,0.609445
1574868658.737830,79104.500,13465,2,EA,1,100,0.609333
1574868658.807322,79163.000,13465,2,EA,1,100,0.609490
1574868658.876219,79221.000,13483,2,EA,1,100,0.609414
1574868658.945117,79279.000,13483,2,EA,1,100,0.609387
1574868659.008075,79332.000,13501,2,EA,1,100,0.609510
1574868659.071033,79385.000,13501,2,EA,1,100,0.609291
1574868659.136366,79440.000,13520,2,EA,1,100,0.609420
1574868659.201700,79495.000,13520,2,EA,1,100,0.609003
1574868659.267034,79550.000,13538,1,EA,1,100,0.609316
1574868659.336526,79608.500,13555,2,EA,1,100,0.609290
1574868659.406017,79667.000,13555,2,EA,1,100,0.609392
1574868659.474915,79725.000,13573,2,EA,1,100,0.609564
1574868659.543812,79783.000,13573,2,EA,1,100,0.609338
1574868659.607958,79837.000,13589,2,EA,1,100,0.609628
1574868659.672104,79891.000,13589,2,EA,1,100,0.609227
1574868659.736844,79945.500,13607,2,EA,1,100,0.609523
1574868659.801584,80000.000,13607,2,EA,1,100,0.609075
1574868659.868105,80056.000,13625,1,EA,1,100,0.609304
1574868659.935815,80113.000,13643,2,EA,1,100,0.609288
1574868660.003525,80170.000,13643,2,EA,1,100,0.609301
1574868660.071828,80227.500,13662,2,EA,1,100,0.609366
1574868660.140132,80285.000,13662,2,EA,1,100,0.609475
1574868660.206060,80340.500,13680,2,EA,1,100,0.609621
1574868660.271987,80396.000,13680,2,EA,1,100,0.609233
1574868660.336727,80450.500,13698,2,EA,1,100,0.609532
1574868660.401467,80505.000,13698,2,EA,1,100,0.609201
1574868660.466801,80560.000,13716,1,EA,1,100,0.609269
1574868660.536886,80619.000,13733,2,EA,1,100,0.609154
1574868660.606972,80678.000,13733,2,EA,1,100,0.609125
1574868660.674088,80734.500,13751,2,EA,1,100,0.609275
1574868660.741203,80791.000,13751,2,EA,1,100,0.609362
1574868660.807725,80847.000,13767,2,EA,1,100,0.609358
1574868660.874247,80903.000,13767,2,EA,1,100,0.609115
1574868660.937799,80956.500,13785,2,EA,1,100,0.609482
1574868661.001351,81010.000,13785,2,EA,1,100,0.609277
1574868661.065496,81064.000,13804,1,EA,1,100,0.609371
1574868661.134988,81122.500,13822,2,EA,1,100,0.609380
1574868661.204479,81181.000,13822,2,EA,1,100,0.609323
1574868661.271595,81237.500,13840,2,EA,1,100,0.609488
1574868661.338711,81294.000,13840,2,EA,1,100,0.609454
1574868661.405232,81350.000,13858,2,EA,1,100,0.609548
1574868661.471754,81406.000,13858,2,EA,1,100,0.609124
1574868661.534118,81458.500,13876,2,EA,1,100,0.609402
1574868661.596483,81511.000,13876,2,EA,1,100,0.609287
1574868661.660628,81565.000,13894,1,EA,1,100,0.609524
1574868661.730714,81624.000,13911,2,EA,1,100,0.609250
1574868661.800799,81683.000,13911,2,EA,1,100,0.609461
1574868661.867321,81739.000,13929,2,EA,1,100,0.609437
1574868661.933843,81795.000,13929,2,EA,1,100,0.609433
1574868662.001552,81852.000,13945,2,EA,1,100,0.609411
1574868662.069262,81909.000,13945,2,EA,1,100,0.609147
1574868662.136971,81966.000,13964,1,EA,1,100,0.609612
1574868662.205275,82023.500,13982,2,EA,1,100,0.609225
1574868662.273579,82081.000,13982,2,EA,1,100,0.609335
1574868662.337131,82134.500,14000,2,EA,1,100,0.609433
1574868662.400683,82188.000,14000,2,EA,1,100,0.609493
1574868662.466017,82243.000,14018,2,EA,1,100,0.609537
1574868662.531350,82298.000,14018,2,EA,1,100,0.609228
1574868662.597872,82354.000,14036,2,EA,1,100,0.609636
1574868662.664394,82410.000,14036,2,EA,1,100,0.609411
1574868662.736855,82471.000,14054,1,EA,1,100,0.609656
1574868662.805753,82529.000,14072,2,EA,1,100,0.609301
1574868662.874650,82587.000,14072,2,EA,1,100,0.609594
1574868662.938796,82641.000,14089,2,EA,1,100,0.609325
1574868663.002942,82695.000,14089,2,EA,1,100,0.609333
1574868663.067088,82749.000,14108,2,EA,1,100,0.609358
1574868663.131234,82803.000,14108,2,EA,1,100,0.609397
1574868663.199537,82860.500,14126,2,EA,1,100,0.609620
1574868663.267841,82918.000,14126,2,EA,1,100,0.609349
1574868663.335551,82975.000,14142,2,EA,1,100,0.609471
1574868663.403260,83032.000,14142,2,EA,1,100,0.609231
1574868663.471564,83089.500,14163,2,EA,1,100,0.609561
1574868663.539867,83147.000,14163,2,EA,1,100,0.609390
1574868663.602825,83200.000,14181,2,EA,1,100,0.609412
1574868663.665783,83253.000,14181,2,EA,1,100,0.609564
1574868663.730523,83307.500,14201,2,EA,1,100,0.609326
1574868663.795263,83362.000,14201,2,EA,1,100,0.609333
1574868663.862973,83419.000,14219,2,EA,1,100,0.609211
1574868663.930682,83476.000,14219,2,EA,1,100,0.609333
1574868663.999580,83534.000,14235,2,EA,1,100,0.609351
1574868664.068477,83592.000,14235,2,EA,1,100,0.609111
1574868664.137375,83650.000,14254,1,EA,1,100,0.609562
1574868664.200333,83703.000,14272,2,EA,1,100,0.609271
1574868664.263291,83756.000,14272,2,EA,1,100,0.609138
1574868664.329219,83811.500,14290,2,EA,1,100,0.609386
1574868664.395147,83867.000,14290,2,EA,1,100,0.609163
1574868664.462262,83923.500,14308,2,EA,1,100,0.609196
1574868664.529378,83980.000,14308,2,EA,1,100,0.609058
1574868664.598275,84038.000,14326,2,EA,1,100,0.609496
1574868664.667173,84096.000,14326,2,EA,1,100,0.609135
1574868664.737258,84155.000,14344,1,EA,1,100,0.609289
1574868664.801404,84209.000,14361,2,EA,1,100,0.609228
1574868664.865550,84263.000,14361,2,EA,1,100,0.609440
1574868664.930290,84317.500,14379,2,EA,1,100,0.609495
1574868664.995030,84372.000,14379,2,EA,1,100,0.609245
1574868665.062146,84428.500,14398,2,EA,1,100,0.609181
1574868665.129261,84485.000,14398,2,EA,1,100,0.609077
1574868665.198159,84543.000,14414,2,EA,1,100,0.609313
1574868665.267056,84601.000,14414,2,EA,1,100,0.609039
1574868665.334766,84658.000,14432,1,EA,1,100,0.609304
1574868665.398912,84712.000,14450,2,EA,1,100,0.609057
1574868665.463058,84766.000,14450,2,EA,1,100,0.609304
1574868665.526610,84819.500,14468,2,EA,1,100,0.609295
1574868665.590162,84873.000,14468,2,EA,1,100,0.609344
1574868665.657871,84930.000,14486,2,EA,1,100,0.609547
1574868665.725581,84987.000,14486,2,EA,1,100,0.609489
1574868665.790915,85042.000,14504,2,EA,1,100,0.609432
1574868665.856249,85097.000,14504,2,EA,1,100,0.608779
1574868665.926334,85156.000,14522,1,EA,1,100,0.608960
1574868665.994044,85213.000,14540,2,EA,1,100,0.608897
1574868666.061753,85270.000,14540,2,EA,1,100,0.609002
1574868666.133621,85330.500,14558,2,EA,1,100,0.609141
1574868666.205488,85391.000,14558,2,EA,1,100,0.609069
1574868666.267852,85443.500,14576,2,EA,1,100,0.609504
1574868666.330216,85496.000,14576,2,EA,1,100,0.609382
1574868666.394362,85550.000,14592,2,EA,1,100,0.609725
1574868666.458508,85604.000,14592,2,EA,1,100,0.609256
1574868666.527406,85662.000,14610,1,EA,1,100,0.609035
1574868666.595115,85719.000,14628,2,EA,1,100,0.608774
1574868666.662825,85776.000,14628,2,EA,1,100,0.608903
1574868666.734098,85836.000,14646,2,EA,1,100,0.608812
1574868666.805371,85896.000,14646,2,EA,1,100,0.609053
1574868666.873675,85953.500,14664,2,EA,1,100,0.609174
1574868666.941978,86011.000,14664,2,EA,1,100,0.608970
1574868667.013252,86071.000,14682,1,EA,1,100,0.609254
1574868667.077398,86125.000,14700,2,EA,1,100,0.609041
1574868667.141543,86179.000,14700,2,EA,1,100,0.609047
1574868667.205689,86233.000,14718,2,EA,1,100,0.609162
1574868667.269835,86287.000,14718,2,EA,1,100,0.609077
1574868667.336951,86343.500,14736,2,EA,1,100,0.609020
1574868667.404067,86400.000,14736,2,EA,1,100,0.609078
1574868667.471182,86456.500,14754,2,EA,1,100,0.609129
1574868667.538298,86513.000,14754,2,EA,1,100,0.608670
1574868667.609571,86573.000,14770,1,EA,1,100,0.609081
1574868667.674905,86628.000,14788,2,EA,1,100,0.608821
1574868667.740239,86683.000,14788,2,EA,1,100,0.609030
1574868667.803791,86736.500,14806,2,EA,1,100,0.608973
1574868667.867343,86790.000,14806,2,EA,1,100,0.608943
1574868667.934459,86846.500,14824,2,EA,1,100,0.608955
1574868668.001574,86903.000,14824,2,EA,1,100,0.609020
1574868668.068690,86959.500,14843,2,EA,1,100,0.609012
1574868668.135806,87016.000,14843,2,EA,1,100,0.608808
1574868668.208267,87077.000,14861,1,EA,1,100,0.609677
1574868668.273601,87132.000,14879,2,EA,1,100,0.608582
1574868668.338935,87187.000,14879,2,EA,1,100,0.608940
1574868668.403080,87241.000,14896,2,EA,1,100,0.609036
1574868668.467227,87295.000,14896,2,EA,1,100,0.608912
1574868668.534342,87351.500,14914,2,EA,1,100,0.608926
1574868668.601458,87408.000,14914,2,EA,1,100,0.608937
1574868668.669168,87465.000,14932,2,EA,1,100,0.608835
1574868668.736877,87522.000,14932,2,EA,1,100,0.608852
1574868668.808150,87582.000,14948,1,EA,1,100,0.608906
1574868668.874078,87637.500,14966,2,EA,1,100,0.608864
1574868668.940006,87693.000,14966,2,EA,1,100,0.608807
1574868669.002964,87746.000,14985,2,EA,1,100,0.608892
1574868669.065922,87799.000,14985,2,EA,1,100,0.608883
1574868669.132444,87855.000,15003,2,EA,1,100,0.608813
1574868669.198966,87911.000,15003,2,EA,1,100,0.608922
1574868669.266081,87967.500,15021,2,EA,1,100,0.608886
1574868669.333197,88024.000,15021,2,EA,1,100,0.608804
1574868669.402094,88082.000,15039,2,EA,1,100,0.608858
1574868669.470992,88140.000,15039,2,EA,1,100,0.608603
1574868669.535534,88194.333,15060,3,EA,1,100,0.608803
1574868669.600076,88248.667,15060,3,EA,1,100,0.608666
1574868669.664618,88303.000,15060,3,EA,1,100,0.608736
1574868669.729951,88358.000,15078,1,EA,1,100,0.609125
1574868669.797067,88414.500,15098,2,EA,1,100,0.608657
1574868669.864183,88471.000,15098,2,EA,1,100,0.608896
1574868669.933080,88529.000,15116,2,EA,1,100,0.608853
1574868670.001978,88587.000,15116,2,EA,1,100,0.608645
1574868670.069093,88643.500,15135,2,EA,1,100,0.608696
1574868670.136209,88700.000,15135,2,EA,1,100,0.608495
1574868670.205106,88758.000,15153,1,EA,1,100,0.608731
1574868670.273410,88815.500,15170,2,EA,1,100,0.608482
1574868670.341714,88873.000,15170,2,EA,1,100,0.608607
1574868670.406454,88927.500,15188,2,EA,1,100,0.608727
1574868670.471194,88982.000,15188,2,EA,1,100,0.608620
1574868670.535933,89036.500,15206,2,EA,1,100,0.608759
1574868670.600673,89091.000,15206,2,EA,1,100,0.608473
1574868670.667789,89147.500,15222,2,EA,1,100,0.608860
1574868670.734905,89204.000,15222,2,EA,1,100,0.608582
1574868670.804990,89263.000,15240,1,EA,1,100,0.608880
1574868670.872106,89319.500,15258,2,EA,1,100,0.608517
1574868670.939221,89376.000,15258,2,EA,1,100,0.608555
1574868671.006337,89432.500,15276,2,EA,1,100,0.608566
1574868671.073453,89489.000,15276,2,EA,1,100,0.608711
1574868671.136411,89542.000,15295,2,EA,1,100,0.608549
1574868671.199369,89595.000,15295,2,EA,1,100,0.608624
1574868671.265296,89650.500,15313,2,EA,1,100,0.608812
1574868671.331224,89706.000,15313,2,EA,1,100,0.608506
1574868671.401310,89765.000,15331,1,EA,1,100,0.608605
1574868671.468425,89821.500,15348,2,EA,1,100,0.608570
1574868671.535541,89878.000,15348,2,EA,1,100,0.608581
1574868671.603845,89935.500,15366,2,EA,1,100,0.608647
1574868671.672148,89993.000,15366,2,EA,1,100,0.608545
1574868671.735700,90046.500,15384,2,EA,1,100,0.608545
1574868671.799252,90100.000,15384,2,EA,1,100,0.608278
1574868671.863398,90154.000,15400,2,EA,1,100,0.608669
1574868671.927544,90208.000,15400,2,EA,1,100,0.608370
1574868672.001193,90270.000,15418,1,EA,1,100,0.608545
1574868672.067715,90326.000,15437,2,EA,1,100,0.608401
1574868672.134237,90382.000,15437,2,EA,1,100,0.608540
1574868672.203728,90440.500,15455,2,EA,1,100,0.608520
1574868672.273220,90499.000,15455,2,EA,1,100,0.608489
1574868672.336771,90552.500,15473,2,EA,1,100,0.608640
1574868672.400323,90606.000,15473,2,EA,1,100,0.608298
1574868672.465657,90661.000,15491,2,EA,1,100,0.608482
1574868672.530991,90716.000,15491,2,EA,1,100,0.608176
1574868672.602264,90776.000,15509,1,EA,1,100,0.608387
1574868672.668786,90832.000,15526,2,EA,1,100,0.608305
1574868672.735308,90888.000,15526,2,EA,1,100,0.608471
1574868672.804205,90946.000,15544,2,EA,1,100,0.608414
1574868672.873103,91004.000,15544,2,EA,1,100,0.608556
1574868672.934873,91056.000,15561,2,EA,1,100,0.608638
1574868672.996643,91108.000,15561,2,EA,1,100,0.608362
1574868673.061383,91162.500,15579,2,EA,1,100,0.608697
1574868673.126123,91217.000,15579,2,EA,1,100,0.608204
1574868673.196208,91276.000,15597,1,EA,1,100,0.608421
1574868673.265106,91334.000,15615,2,EA,1,100,0.608106
1574868673.334003,91392.000,15615,2,EA,1,100,0.608323
1574868673.402307,91449.500,15633,2,EA,1,100,0.608243
1574868673.470611,91507.000,15633,2,EA,1,100,0.608335
1574868673.540102,91565.500,15651,2,EA,1,100,0.608450
1574868673.609593,91624.000,15651,2,EA,1,100,0.608404
1574868673.677303,91681.000,15669,1,EA,1,100,0.608675
1574868673.742637,91736.000,15687,2,EA,1,100,0.608402
1574868673.807971,91791.000,15687,2,EA,1,100,0.608492
1574868673.871523,91844.500,15704,2,EA,1,100,0.608421
1574868673.935075,91898.000,15704,2,EA,1,100,0.608415
1574868674.001596,91954.000,15722,2,EA,1,100,0.608193
1574868674.068118,92010.000,15722,2,EA,1,100,0.608276
1574868674.137610,92068.500,15739,2,EA,1,100,0.608439
1574868674.207101,92127.000,15739,2,EA,1,100,0.608217
1574868674.274811,92184.000,15757,1,EA,1,100,0.608410
1574868674.341926,92240.500,15775,2,EA,1,100,0.608398
1574868674.409042,92297.000,15775,2,EA,1,100,0.608472
1574868674.471406,92349.500,15793,2,EA,1,100,0.608633
1574868674.533770,92402.000,15793,2,EA,1,100,0.608458
1574868674.601480,92459.000,15811,2,EA,1,100,0.608463
1574868674.669189,92516.000,15811,2,EA,1,100,0.608692
1574868674.736899,92573.000,15829,2,EA,1,100,0.608543
1574868674.804609,92630.000,15829,2,EA,1,100,0.608258
1574868674.874694,92689.000,15847,1,EA,1,100,0.608554
1574868674.941216,92745.000,15865,2,EA,1,100,0.608348
1574868675.007738,92801.000,15865,2,EA,1,100,0.608485
1574868675.070696,92854.000,15883,2,EA,1,100,0.608500
1574868675.133654,92907.000,15883,2,EA,1,100,0.608686
1574868675.200769,92963.500,15901,2,EA,1,100,0.608653
1574868675.267885,93020.000,15901,2,EA,1,100,0.608545
1574868675.337377,93078.500,15919,2,EA,1,100,0.608634
1574868675.406868,93137.000,15919,2,EA,1,100,0.608514
1574868675.473390,93193.000,15935,1,EA,1,100,0.608912
1574868675.539912,93249.000,15956,3,EA,1,100,0.608344
1574868675.606433,93305.000,15956,3,EA,1,100,0.608613
1574868675.672955,93361.000,15956,3,EA,1,100,0.608390
1574868675.737695,93415.500,15974,2,EA,1,100,0.608537
1574868675.802435,93470.000,15974,2,EA,1,100,0.608699
1574868675.867769,93525.000,15993,2,EA,1,100,0.608592
1574868675.933102,93580.000,15993,2,EA,1,100,0.608709
1574868676.003188,93639.000,16011,2,EA,1,100,0.608703
1574868676.073273,93698.000,16011,2,EA,1,100,0.608573
1574868676.140983,93755.000,16028,1,EA,1,100,0.609074
1574868676.206316,93810.000,16046,2,EA,1,100,0.608673
1574868676.271650,93865.000,16046,2,EA,1,100,0.608793
1574868676.334609,93918.000,16064,2,EA,1,100,0.608520
1574868676.397567,93971.000,16064,2,EA,1,100,0.608593
1574868676.464682,94027.500,16082,2,EA,1,100,0.608488
1574868676.531798,94084.000,16082,2,EA,1,100,0.608590
1574868676.600695,94142.000,16100,2,EA,1,100,0.608734
1574868676.669593,94200.000,16100,2,EA,1,100,0.608521
1574868676.739084,94258.500,16118,2,EA,1,100,0.608917
1574868676.808576,94317.000,16118,2,EA,1,100,0.608501
1574868676.871534,94370.000,16136,1,EA,1,100,0.608807
1574868676.941025,94428.500,16153,2,EA,1,100,0.608836
1574868677.010517,94487.000,16153,2,EA,1,100,0.608736
1574868677.072881,94539.500,16172,2,EA,1,100,0.608731
1574868677.135245,94592.000,16172,2,EA,1,100,0.608773
1574868677.199391,94646.000,16190,2,EA,1,100,0.608906
1574868677.263537,94700.000,16190,2,EA,1,100,0.608670
1574868677.332434,94758.000,16206,2,EA,1,100,0.608670
1574868677.401332,94816.000,16206,2,EA,1,100,0.608367
1574868677.466666,94871.000,16224,1,EA,1,100,0.608718
1574868677.537939,94931.000,16242,2,EA,1,100,0.608467
1574868677.609212,94991.000,16242,2,EA,1,100,0.608670
1574868677.674546,95046.000,16260,2,EA,1,100,0.608623
1574868677.739880,95101.000,16260,2,EA,1,100,0.608699
1574868677.803432,95154.500,16278,2,EA,1,100,0.608982
1574868677.866984,95208.000,16278,2,EA,1,100,0.608624
1574868677.934694,95265.000,16296,2,EA,1,100,0.608844
1574868678.002403,95322.000,16296,2,EA,1,100,0.608624
1574868678.070113,95379.000,16315,1,EA,1,100,0.608835
1574868678.138416,95436.500,16332,2,EA,1,100,0.608718
1574868678.206720,95494.000,16332,2,EA,1,100,0.608525
1574868678.272648,95549.500,16350,2,EA,1,100,0.608716
1574868678.338575,95605.000,16350,2,EA,1,100,0.608536
1574868678.402128,95658.500,16368,2,EA,1,100,0.608603
1574868678.465679,95712.000,16368,2,EA,1,100,0.608522
1574868678.531013,95767.000,16384,2,EA,1,100,0.608856
1574868678.596347,95822.000,16384,2,EA,1,100,0.608621
1574868678.665245,95880.000,16402,1,EA,1,100,0.608952
1574868678.734736,95938.500,16420,2,EA,1,100,0.608729
1574868678.804228,95997.000,16420,2,EA,1,100,0.608905
1574868678.870749,96053.000,16438,2,EA,1,100,0.608838
1574868678.937271,96109.000,16438,2,EA,1,100,0.608849
1574868679.000823,96162.500,16456,2,EA,1,100,0.608773
1574868679.064375,96216.000,16456,2,EA,1,100,0.608509
1574868679.130897,96272.000,16475,2,EA,1,100,0.608848
1574868679.197418,96328.000,16475,2,EA,1,100,0.608603
1574868679.263940,96384.000,16493,1,EA,1,100,0.608876
1574868679.333432,96442.500,16511,2,EA,1,100,0.608657
1574868679.402923,96501.000,16511,2,EA,1,100,0.608772
1574868679.470633,96558.000,16528,2,EA,1,100,0.609075
1574868679.538342,96615.000,16528,2,EA,1,100,0.609026
1574868679.601300,96668.000,16546,2,EA,1,100,0.608954
1574868679.664258,96721.000,16546,2,EA,1,100,0.609163
1574868679.730780,96777.000,16562,2,EA,1,100,0.609240
1574868679.797302,96833.000,16562,2,EA,1,100,0.608666
1574868679.863824,96889.000,16580,1,EA,1,100,0.608736
1574868679.933315,96947.500,16598,2,EA,1,100,0.608704
1574868680.002806,97006.000,16598,2,EA,1,100,0.608782
1574868680.069328,97062.000,16617,2,EA,1,100,0.608916
1574868680.135850,97118.000,16617,2,EA,1,100,0.609048
1574868680.199402,97171.500,16635,2,EA,1,100,0.609192
1574868680.262954,97225.000,16635,2,EA,1,100,0.609006
1574868680.327694,97279.500,16653,2,EA,1,100,0.609331
1574868680.392434,97334.000,16653,2,EA,1,100,0.608966
1574868680.458956,97390.000,16671,1,EA,1,100,0.609271
1574868680.526665,97447.000,16689,2,EA,1,100,0.608824
1574868680.594375,97504.000,16689,2,EA,1,100,0.608901
1574868680.662678,97561.500,16706,2,EA,1,100,0.608944
1574868680.730982,97619.000,16706,2,EA,1,100,0.609138
1574868680.798692,97676.000,16724,2,EA,1,100,0.609217
1574868680.866401,97733.000,16724,2,EA,1,100,0.608881
1574868680.937674,97793.000,16740,1,EA,1,100,0.609179
1574868681.003602,97848.500,16759,2,EA,1,100,0.608708
1574868681.069530,97904.000,16759,2,EA,1,100,0.609148
1574868681.133676,97958.000,16777,2,EA,1,100,0.609016
1574868681.197822,98012.000,16777,2,EA,1,100,0.608997
1574868681.264344,98068.000,16795,2,EA,1,100,0.609063
1574868681.330865,98124.000,16795,2,EA,1,100,0.609090
1574868681.398575,98181.000,16813,2,EA,1,100,0.608939
1574868681.466285,98238.000,16813,2,EA,1,100,0.609258
1574868681.537558,98298.000,16831,1,EA,1,100,0.609691
1574868681.602595,98352.750,16852,4,EA,1,100,0.608825
1574868681.667631,98407.500,16852,4,EA,1,100,0.607579
1574868681.732668,98462.250,16852,4,EA,1,100,0.608591
1574868681.797705,98517.000,16852,4,EA,1,100,0.609287
1574868681.864227,98573.000,16872,1,EA,1,100,0.609159
1574868681.931937,98630.000,16890,2,EA,1,100,0.609192
1574868681.999646,98687.000,16890,2,EA,1,100,0.609139
1574868682.066762,98743.500,16909,2,EA,1,100,0.609249
1574868682.133878,98800.000,16909,2,EA,1,100,0.609102
1574868682.202775,98858.000,16927,2,EA,1,100,0.609161
1574868682.271672,98916.000,16927,2,EA,1,100,0.608961
1574868682.334037,98968.500,16945,2,EA,1,100,0.609084
1574868682.396401,99021.000,16945,2,EA,1,100,0.608819
1574868682.462923,99077.000,16963,1,EA,1,100,0.609312
1574868682.531820,99135.000,16980,2,EA,1,100,0.609141
1574868682.600718,99193.000,16980,2,EA,1,100,0.609080
1574868682.667833,99249.500,16998,2,EA,1,100,0.608956
1574868682.734949,99306.000,16998,2,EA,1,100,0.608800
1574868682.804440,99364.500,17014,2,EA,1,100,0.609111
1574868682.873932,99423.000,17014,2,EA,1,100,0.608737
1574868682.935702,99475.000,17032,1,EA,1,100,0.608853
1574868682.999254,99528.500,17051,2,EA,1,100,0.608944
1574868683.062806,99582.000,17051,2,EA,1,100,0.609029
1574868683.131703,99640.000,17069,2,EA,1,100,0.608848
1574868683.200601,99698.000,17069,2,EA,1,100,0.608843
1574868683.268311,99755.000,17087,2,EA,1,100,0.609262
1574868683.336020,99812.000,17087,2,EA,1,100,0.609280
1574868683.404918,99870.000,17105,2,EA,1,100,0.609164
1574868683.473815,99928.000,17105,2,EA,1,100,0.609258
1574868683.535585,99980.000,17123,1,EA,1,100,0.609253
1574868683.599137,100033.500,17140,2,EA,1,100,0.608689
1574868683.662689,100087.000,17140,2,EA,1,100,0.608414
1574868683.730399,100144.000,17158,2,EA,1,100,0.608385
1574868683.798109,100201.000,17158,2,EA,1,100,0.608549
1574868683.865224,100257.500,17176,2,EA,1,100,0.608740
1574868683.932340,100314.000,17176,2,EA,1,100,0.608705
1574868684.000643,100371.500,17192,2,EA,1,100,0.608902
1574868684.068947,100429.000,17192,2,EA,1,100,0.608691
1574868684.141408,100490.000,17211,1,EA,1,100,0.608761
1574868684.210306,100548.000,17229,2,EA,1,100,0.608681
1574868684.279203,100606.000,17229,2,EA,1,100,0.608897
1574868684.343943,100660.500,17247,2,EA,1,100,0.608998
1574868684.408683,100715.000,17247,2,EA,1,100,0.608691
1574868684.471641,100768.000,17265,2,EA,1,100,0.608243
1574868684.534599,100821.000,17265,2,EA,1,100,0.607878
1574868684.601121,100877.000,17283,2,EA,1,100,0.608115
1574868684.667643,100933.000,17283,2,EA,1,100,0.607888
1574868684.737728,100992.000,17301,1,EA,1,100,0.608334
1574868684.805438,101049.000,17318,2,EA,1,100,0.608025
1574868684.873147,101106.000,17318,2,EA,1,100,0.608078
1574868684.940857,101163.000,17336,2,EA,1,100,0.608427
1574868685.008566,101220.000,17336,2,EA,1,100,0.608316
1574868685.071524,101273.000,17355,2,EA,1,100,0.608396
1574868685.134482,101326.000,17355,2,EA,1,100,0.608186
1574868685.201598,101382.500,17371,2,EA,1,100,0.608438
1574868685.268714,101439.000,17371,2,EA,1,100,0.608233
1574868685.335236,101495.000,17389,1,EA,1,100,0.608549
1574868685.404133,101553.000,17407,2,EA,1,100,0.608121
1574868685.473031,101611.000,17407,2,EA,1,100,0.608361
1574868685.540740,101668.000,17425,2,EA,1,100,0.608152
1574868685.608450,101725.000,17425,2,EA,1,100,0.608222
1574868685.670814,101777.500,17443,2,EA,1,100,0.608193
1574868685.733178,101830.000,17443,2,EA,1,100,0.607892
1574868685.797918,101884.500,17461,2,EA,1,100,0.608232
1574868685.862658,101939.000,17461,2,EA,1,100,0.607944
1574868685.930367,101996.000,17479,1,EA,1,100,0.608411
1574868685.999265,102054.000,17497,2,EA,1,100,0.608218
1574868686.068162,102112.000,17497,2,EA,1,100,0.608420
1574868686.138248,102171.000,17515,2,EA,1,100,0.608361
1574868686.208333,102230.000,17515,2,EA,1,100,0.608457
1574868686.269510,102281.500,17533,2,EA,1,100,0.608330
1574868686.330686,102333.000,17533,2,EA,1,100,0.607975
1574868686.396019,102388.000,17549,2,EA,1,100,0.608421
1574868686.461353,102443.000,17549,2,EA,1,100,0.608047
1574868686.529063,102500.000,17567,1,EA,1,100,0.608310
1574868686.598554,102558.500,17585,2,EA,1,100,0.607998
1574868686.668046,102617.000,17585,2,EA,1,100,0.608249
1574868686.738725,102676.500,17603,2,EA,1,100,0.608390
1574868686.809405,102736.000,17603,2,EA,1,100,0.608344
1574868686.870581,102787.500,17621,2,EA,1,100,0.608633
1574868686.931757,102839.000,17621,2,EA,1,100,0.608165
1574868686.996497,102893.500,17639,2,EA,1,100,0.608579
1574868687.061237,102948.000,17639,2,EA,1,100,0.608171
1574868687.128946,103005.000,17658,1,EA,1,100,0.608595
1574868687.197250,103062.500,17675,2,EA,1,100,0.608143
1574868687.265553,103120.000,17675,2,EA,1,100,0.608287
1574868687.335045,103178.500,17693,2,EA,1,100,0.608139
1574868687.404536,103237.000,17693,2,EA,1,100,0.608184
1574868687.466307,103289.000,17711,2,EA,1,100,0.608311
1574868687.528077,103341.000,17711,2,EA,1,100,0.608284
1574868687.592223,103395.000,17729,2,EA,1,100,0.608530
1574868687.656369,103449.000,17729,2,EA,1,100,0.608198
1574868687.724870,103506.667,17748,3,EA,1,100,0.608558
1574868687.793372,103564.333,17748,3,EA,1,100,0.608231
1574868687.861873,103622.000,17748,3,EA,1,100,0.608429
1574868687.933146,103682.000,17768,1,EA,1,100,0.608452
1574868688.001450,103739.500,17785,2,EA,1,100,0.608030
1574868688.069754,103797.000,17785,2,EA,1,100,0.608345
1574868688.139839,103856.000,17804,2,EA,1,100,0.608323
1574868688.209924,103915.000,17804,2,EA,1,100,0.608185
1574868688.275852,103970.500,17820,2,EA,1,100,0.608318
1574868688.341780,104026.000,17820,2,EA,1,100,0.608249
1574868688.405926,104080.000,17838,1,EA,1,100,0.608324
1574868688.472448,104136.000,17856,2,EA,1,100,0.608364
1574868688.538970,104192.000,17856,2,EA,1,100,0.608159
1574868688.602521,104245.500,17874,2,EA,1,100,0.608271
1574868688.666073,104299.000,17874,2,EA,1,100,0.608167
1574868688.732595,104355.000,17892,2,EA,1,100,0.608085
1574868688.799117,104411.000,17892,2,EA,1,100,0.607782
1574868688.867420,104468.500,17910,2,EA,1,100,0.608130
1574868688.935724,104526.000,17910,2,EA,1,100,0.607890
1574868689.004622,104584.000,17928,1,EA,1,100,0.608052
1574868689.071737,104640.500,17946,2,EA,1,100,0.607972
1574868689.138853,104697.000,17946,2,EA,1,100,0.608219
1574868689.202405,104750.500,17964,2,EA,1,100,0.608500
1574868689.265957,104804.000,17964,2,EA,1,100,0.608736
1574868689.331291,104859.000,17982,2,EA,1,100,0.608983
1574868689.396625,104914.000,17982,2,EA,1,100,0.608850
1574868689.463740,104970.500,17999,2,EA,1,100,0.609258
1574868689.530856,105027.000,17999,2,EA,1,100,0.608628
1574868689.599753,105085.000,18016,1,EA,1,100,0.609161
1574868689.668651,105143.000,18034,2,EA,1,100,0.609130
1574868689.737548,105201.000,18034,2,EA,1,100,0.609368
1574868689.801100,105254.500,18052,2,EA,1,100,0.609446
1574868689.864652,105308.000,18052,2,EA,1,100,0.609328
1574868689.931174,105364.000,18070,2,EA,1,100,0.609424
1574868689.997696,105420.000,18070,2,EA,1,100,0.609433
1574868690.064218,105476.000,18089,2,EA,1,100,0.609681
1574868690.130739,105532.000,18089,2,EA,1,100,0.609184
1574868690.203200,105593.000,18107,1,EA,1,100,0.609272
1574868690.270910,105650.000,18124,2,EA,1,100,0.609132
1574868690.338620,105707.000,18124,2,EA,1,100,0.609292
1574868690.402766,105761.000,18142,2,EA,1,100,0.609201
1574868690.466912,105815.000,18142,2,EA,1,100,0.609198
1574868690.532245,105870.000,18160,2,EA,1,100,0.609325
1574868690.597579,105925.000,18160,2,EA,1,100,0.609475
1574868690.663507,105980.500,18176,2,EA,1,100,0.609449
1574868690.729435,106036.000,18176,2,EA,1,100,0.609171
1574868690.801896,106097.000,18194,1,EA,1,100,0.609389
1574868690.869012,106153.500,18212,2,EA,1,100,0.609200
1574868690.936127,106210.000,18212,2,EA,1,100,0.609247
1574868691.000867,106264.500,18230,2,EA,1,100,0.608551
1574868691.065607,106319.000,18230,2,EA,1,100,0.608616
1574868691.129753,106373.000,18249,2,EA,1,100,0.608487
1574868691.193899,106427.000,18249,2,EA,1,100,0.608658
1574868691.261015,106483.500,18267,2,EA,1,100,0.608750
1574868691.328130,106540.000,18267,2,EA,1,100,0.608721
1574868691.400592,106601.000,18285,1,EA,1,100,0.608846
1574868691.467113,106657.000,18303,2,EA,1,100,0.608588
1574868691.533635,106713.000,18303,2,EA,1,100,0.608896
1574868691.598969,106768.000,18320,2,EA,1,100,0.608758
1574868691.664303,106823.000,18320,2,EA,1,100,0.609037
1574868691.733200,106881.000,18338,2,EA,1,100,0.609106
1574868691.802098,106939.000,18338,2,EA,1,100,0.609069
1574868691.865056,106992.000,18354,2,EA,1,100,0.608959
1574868691.928014,107045.000,18354,2,EA,1,100,0.608802
1574868691.992160,107099.000,18372,2,EA,1,100,0.609047
1574868692.056306,107153.000,18372,2,EA,1,100,0.608749
1574868692.125203,107211.000,18391,1,EA,1,100,0.608906
1574868692.192913,107268.000,18409,2,EA,1,100,0.609065
1574868692.260623,107325.000,18409,2,EA,1,100,0.609054
1574868692.331896,107385.000,18427,2,EA,1,100,0.609105
1574868692.403169,107445.000,18427,2,EA,1,100,0.608769
1574868692.466721,107498.500,18445,2,EA,1,100,0.608891
1574868692.530273,107552.000,18445,2,EA,1,100,0.608682
1574868692.594419,107606.000,18463,2,EA,1,100,0.609042
1574868692.658565,107660.000,18463,2,EA,1,100,0.608732
1574868692.726274,107717.000,18481,1,EA,1,100,0.608890
1574868692.794578,107774.500,18498,2,EA,1,100,0.608860
1574868692.862882,107832.000,18498,2,EA,1,100,0.608848
1574868692.932373,107890.500,18516,2,EA,1,100,0.608779
1574868693.001864,107949.000,18516,2,EA,1,100,0.608786
1574868693.066604,108003.500,18533,2,EA,1,100,0.608991
1574868693.131344,108058.000,18533,2,EA,1,100,0.608553
1574868693.194896,108111.500,18551,2,EA,1,100,0.608789
1574868693.258448,108165.000,18551,2,EA,1,100,0.608221
1574868693.322594,108219.000,18569,1,EA,1,100,0.608346
1574868693.390304,108276.000,18587,2,EA,1,100,0.607971
1574868693.458014,108333.000,18587,2,EA,1,100,0.607967
1574868693.528099,108392.000,18605,2,EA,1,100,0.607695
1574868693.598184,108451.000,18605,2,EA,1,100,0.607895
1574868693.662924,108505.500,18623,2,EA,1,100,0.608044
1574868693.727664,108560.000,18623,2,EA,1,100,0.607631
1574868693.791018,108613.333,18644,3,EA,1,100,0.607815
1574868693.854372,108666.667,18644,3,EA,1,100,0.607639
1574868693.917726,108720.000,18644,3,EA,1,100,0.607711
1574868693.988999,108780.000,18664,1,EA,1,100,0.607929
1574868694.056115,108836.500,18683,2,EA,1,100,0.607361
1574868694.123231,108893.000,18683,2,EA,1,100,0.607596
1574868694.193316,108952.000,18701,2,EA,1,100,0.607690
1574868694.263402,109011.000,18701,2,EA,1,100,0.607768
1574868694.329329,109066.500,18719,2,EA,1,100,0.607816
1574868694.395257,109122.000,18719,2,EA,1,100,0.607476
1574868694.458215,109175.000,18737,2,EA,1,100,0.607714
1574868694.521173,109228.000,18737,2,EA,1,100,0.607434
1574868694.591259,109287.000,18755,1,EA,1,100,0.607509
1574868694.658374,109343.500,18772,2,EA,1,100,0.607426
1574868694.725490,109400.000,18772,2,EA,1,100,0.607482
1574868694.794387,109458.000,18790,2,EA,1,100,0.607684
1574868694.863285,109516.000,18790,2,EA,1,100,0.607517
1574868694.928619,109571.000,18806,2,EA,1,100,0.607653
1574868694.993953,109626.000,18806,2,EA,1,100,0.607529
1574868695.056317,109678.500,18825,2,EA,1,100,0.607686
1574868695.118681,109731.000,18825,2,EA,1,100,0.607526
1574868695.188766,109790.000,18843,1,EA,1,100,0.607760
1574868695.256476,109847.000,18861,2,EA,1,100,0.607434
1574868695.324185,109904.000,18861,2,EA,1,100,0.607729
1574868695.391895,109961.000,18879,2,EA,1,100,0.607727
1574868695.459605,110018.000,18879,2,EA,1,100,0.607751
1574868695.529096,110076.500,18897,2,EA,1,100,0.607791
1574868695.598588,110135.000,18897,2,EA,1,100,0.607577
1574868695.663921,110190.000,18915,1,EA,1,100,0.607918
1574868695.732819,110248.000,18933,2,EA,1,100,0.607583
1574868695.801716,110306.000,18933,2,EA,1,100,0.607654
1574868695.864675,110359.000,18950,2,EA,1,100,0.607760
1574868695.927633,110412.000,18950,2,EA,1,100,0.607637
1574868695.992373,110466.500,18968,2,EA,1,100,0.607669
1574868696.057112,110521.000,18968,2,EA,1,100,0.607534
1574868696.127198,110580.000,18986,2,EA,1,100,0.607905
1574868696.197283,110639.000,18986,2,EA,1,100,0.607659
1574868696.262617,110694.000,19003,1,EA,1,100,0.607898
1574868696.333296,110753.500,19021,2,EA,1,100,0.607625
1574868696.403976,110813.000,19021,2,EA,1,100,0.607707
1574868696.466340,110865.500,19039,2,EA,1,100,0.607741
1574868696.528704,110918.000,19039,2,EA,1,100,0.607705
1574868696.594038,110973.000,19057,2,EA,1,100,0.607838
1574868696.659372,111028.000,19057,2,EA,1,100,0.607851
1574868696.727081,111085.000,19075,2,EA,1,100,0.607744
1574868696.794791,111142.000,19075,2,EA,1,100,0.607612
1574868696.861907,111198.500,19093,2,EA,1,100,0.607786
1574868696.929022,111255.000,19093,2,EA,1,100,0.607563
1574868697.001483,111316.000,19111,1,EA,1,100,0.607859
1574868697.063253,111368.000,19129,2,EA,1,100,0.607819
1574868697.125024,111420.000,19129,2,EA,1,100,0.607894
1574868697.190951,111475.500,19147,2,EA,1,100,0.607673
1574868697.256879,111531.000,19147,2,EA,1,100,0.607851
1574868697.326371,111589.500,19165,2,EA,1,100,0.607962
1574868697.395862,111648.000,19165,2,EA,1,100,0.607822
1574868697.462384,111704.000,19181,2,EA,1,100,0.607712
1574868697.528906,111760.000,19181,2,EA,1,100,0.607462
1574868697.603742,111823.000,19199,1,EA,1,100,0.607694
1574868697.666107,111875.500,19217,2,EA,1,100,0.607635
1574868697.728471,111928.000,19217,2,EA,1,100,0.607745
1574868697.793211,111982.500,19235,2,EA,1,100,0.607733
1574868697.857950,112037.000,19235,2,EA,1,100,0.607690
1574868697.926254,112094.500,19253,2,EA,1,100,0.607810
1574868697.994558,112152.000,19253,2,EA,1,100,0.607719
1574868698.061673,112208.500,19272,2,EA,1,100,0.607869
1574868698.128789,112265.000,19272,2,EA,1,100,0.607721
1574868698.200062,112325.000,19290,1,EA,1,100,0.608039
1574868698.262426,112377.500,19307,2,EA,1,100,0.607598
1574868698.324790,112430.000,19307,2,EA,1,100,0.607699
1574868698.388342,112483.500,19325,2,EA,1,100,0.607642
1574868698.451895,112537.000,19325,2,EA,1,100,0.607608
1574868698.520792,112595.000,19343,2,EA,1,100,0.607677
1574868698.589689,112653.000,19343,2,EA,1,100,0.607674
1574868698.656805,112709.500,19359,2,EA,1,100,0.607837
1574868698.723921,112766.000,19359,2,EA,1,100,0.607658
1574868698.795194,112826.000,19377,1,EA,1,100,0.607820
1574868698.861122,112881.500,19395,2,EA,1,100,0.607584
1574868698.927050,112937.000,19395,2,EA,1,100,0.607824
1574868698.990008,112990.000,19413,2,EA,1,100,0.607716
1574868699.052966,113043.000,19413,2,EA,1,100,0.607538
1574868699.117706,113097.500,19432,2,EA,1,100,0.607625
1574868699.182446,113152.000,19432,2,EA,1,100,0.607455
1574868699.246592,113206.000,19450,2,EA,1,100,0.607694
1574868699.310737,113260.000,19450,2,EA,1,100,0.607511
1574868699.377853,113316.500,19468,2,EA,1,100,0.607786
1574868699.444969,113373.000,19468,2,EA,1,100,0.607554
1574868699.515054,113432.000,19486,1,EA,1,100,0.607637
1574868699.583358,113489.500,19503,2,EA,1,100,0.607717
1574868699.651661,113547.000,19503,2,EA,1,100,0.607703
1574868699.718183,113603.000,19521,2,EA,1,100,0.607712
1574868699.784705,113659.000,19521,2,EA,1,100,0.607699
1574868699.848851,113713.000,19541,3,EA,1,100,0.607879
1574868699.912997,113767.000,19541,3,EA,1,100,0.607401
1574868699.977143,113821.000,19541,3,EA,1,100,0.607733
1574868700.044852,113878.000,19562,2,EA,1,100,0.607550
1574868700.112562,113935.000,19562,2,EA,1,100,0.607520
1574868700.181459,113993.000,19580,1,EA,1,100,0.607751
1574868700.250951,114051.500,19597,2,EA,1,100,0.607650
1574868700.320442,114110.000,19597,2,EA,1,100,0.607759
1574868700.383994,114163.500,19615,2,EA,1,100,0.607873
1574868700.447546,114217.000,19615,2,EA,1,100,0.607611
1574868700.512286,114271.500,19633,2,EA,1,100,0.607736
1574868700.577026,114326.000,19633,2,EA,1,100,0.607678
1574868700.643548,114382.000,19649,2,EA,1,100,0.607732
1574868700.710069,114438.000,19649,2,EA,1,100,0.607491
1574868700.778967,114496.000,19667,1,EA,1,100,0.607736
1574868700.847270,114553.500,19685,2,EA,1,100,0.607553
1574868700.915574,114611.000,19685,2,EA,1,100,0.607687
1574868700.980908,114666.000,19703,2,EA,1,100,0.607748
1574868701.046242,114721.000,19703,2,EA,1,100,0.607636
1574868701.112170,114776.500,19722,2,EA,1,100,0.607715
1574868701.178097,114832.000,19722,2,EA,1,100,0.607778
1574868701.244619,114888.000,19740,2,EA,1,100,0.607860
1574868701.311141,114944.000,19740,2,EA,1,100,0.607603
1574868701.383602,115005.000,19758,1,EA,1,100,0.607741
1574868701.451312,115062.000,19775,2,EA,1,100,0.607740
1574868701.519021,115119.000,19775,2,EA,1,100,0.607737
1574868701.584949,115174.500,19793,2,EA,1,100,0.607753
1574868701.650877,115230.000,19793,2,EA,1,100,0.607714
1574868701.713241,115282.500,19810,2,EA,1,100,0.607897
1574868701.775605,115335.000,19810,2,EA,1,100,0.607640
1574868701.842721,115391.500,19827,2,EA,1,100,0.607861
1574868701.909836,115448.000,19827,2,EA,1,100,0.607662
1574868701.982297,115509.000,19845,1,EA,1,100,0.607972
1574868702.048819,115565.000,19864,2,EA,1,100,0.607852
1574868702.115341,115621.000,19864,2,EA,1,100,0.607887
1574868702.181863,115677.000,19882,2,EA,1,100,0.607919
1574868702.248384,115733.000,19882,2,EA,1,100,0.607886
1574868702.310749,115785.500,19900,2,EA,1,100,0.607878
1574868702.373113,115838.000,19900,2,EA,1,100,0.607679
1574868702.439634,115894.000,19918,2,EA,1,100,0.607986
1574868702.506156,115950.000,19918,2,EA,1,100,0.607439
1574868702.578617,116011.000,19936,1,EA,1,100,0.607904
1574868702.646921,116068.500,19953,2,EA,1,100,0.607791
1574868702.715225,116126.000,19953,2,EA,1,100,0.607883
1574868702.784122,116184.000,19971,2,EA,1,100,0.607959
1574868702.853019,116242.000,19971,2,EA,1,100,0.607995
1574868702.924293,116302.000,19987,2,EA,1,100,0.608125
1574868702.995566,116362.000,19987,2,EA,1,100,0.607836
1574868703.062088,116418.000,20006,1,EA,1,100,0.608089
1574868703.125640,116471.500,20024,2,EA,1,100,0.607915
1574868703.189192,116525.000,20024,2,EA,1,100,0.607760
1574868703.254525,116580.000,20042,2,EA,1,100,0.607958
1574868703.319859,116635.000,20042,2,EA,1,100,0.607906
1574868703.387569,116692.000,20060,2,EA,1,100,0.608018
1574868703.455279,116749.000,20060,2,EA,1,100,0.608178
1574868703.525364,116808.000,20078,2,EA,1,100,0.608110
1574868703.595449,116867.000,20078,2,EA,1,100,0.607692
1574868703.666723,116927.000,20096,1,EA,1,100,0.608210
1574868703.729087,116979.500,20113,2,EA,1,100,0.608035
1574868703.791451,117032.000,20113,2,EA,1,100,0.608098
1574868703.855003,117085.500,20131,2,EA,1,100,0.607943
1574868703.918555,117139.000,20131,2,EA,1,100,0.608085
1574868703.986858,117196.500,20149,2,EA,1,100,0.608095
1574868704.055162,117254.000,20149,2,EA,1,100,0.608081
1574868704.122872,117311.000,20166,2,EA,1,100,0.608280
1574868704.190581,117368.000,20166,2,EA,1,100,0.608040
1574868704.260667,117427.000,20184,1,EA,1,100,0.608342
1574868704.324813,117481.000,20202,2,EA,1,100,0.608237
1574868704.388958,117535.000,20202,2,EA,1,100,0.608355
1574868704.452511,117588.500,20220,2,EA,1,100,0.608375
1574868704.516062,117642.000,20220,2,EA,1,100,0.608445
1574868704.584366,117699.500,20238,2,EA,1,100,0.608699
1574868704.652670,117757.000,20238,2,EA,1,100,0.608612
1574868704.722161,117815.500,20256,2,EA,1,100,0.608849
1574868704.791652,117874.000,20256,2,EA,1,100,0.608459
1574868704.858174,117930.000,20274,1,EA,1,100,0.608807
1574868704.924696,117986.000,20291,2,EA,1,100,0.608647
1574868704.991218,118042.000,20291,2,EA,1,100,0.608616
1574868705.052988,118094.000,20310,2,EA,1,100,0.608773
1574868705.114758,118146.000,20310,2,EA,1,100,0.609029
1574868705.182468,118203.000,20328,2,EA,1,100,0.608867
1574868705.250177,118260.000,20328,2,EA,1,100,0.608980
1574868705.319669,118318.500,20344,2,EA,1,100,0.609126
1574868705.389160,118377.000,20344,2,EA,1,100,0.608802
1574868705.455682,118433.000,20362,1,EA,1,100,0.609256
1574868705.521610,118488.500,20380,2,EA,1,100,0.608934
1574868705.587538,118544.000,20380,2,EA,1,100,0.608934
1574868705.649902,118596.500,20398,2,EA,1,100,0.608978
1574868705.712266,118649.000,20398,2,EA,1,100,0.609213
1574868705.779382,118705.500,20416,2,EA,1,100,0.609173
1574868705.846497,118762.000,20416,2,EA,1,100,0.609294
1574868705.914603,118819.333,20437,3,EA,1,100,0.609107
1574868705.982708,118876.667,20437,3,EA,1,100,0.609280
1574868706.050814,118934.000,20437,3,EA,1,100,0.609324
1574868706.117929,118990.500,20458,2,EA,1,100,0.609358
1574868706.185045,119047.000,20458,2,EA,1,100,0.609290
1574868706.246815,119099.000,20476,1,EA,1,100,0.609458
1574868706.315119,119156.500,20494,2,EA,1,100,0.609418
1574868706.383422,119214.000,20494,2,EA,1,100,0.609317
1574868706.446380,119267.000,20512,2,EA,1,100,0.609402
1574868706.509339,119320.000,20512,2,EA,1,100,0.609493
1574868706.574079,119374.500,20530,2,EA,1,100,0.609572
1574868706.638818,119429.000,20530,2,EA,1,100,0.609473
1574868706.708310,119487.500,20548,2,EA,1,100,0.609628
1574868706.777801,119546.000,20548,2,EA,1,100,0.609461
1574868706.843135,119601.000,20566,1,EA,1,100,0.609810
1574868706.914408,119661.000,20583,2,EA,1,100,0.609463
1574868706.985682,119721.000,20583,2,EA,1,100,0.609687
1574868707.048046,119773.500,20602,2,EA,1,100,0.609630
1574868707.110410,119826.000,20602,2,EA,1,100,0.609567
1574868707.174556,119880.000,20620,2,EA,1,100,0.609381
1574868707.238702,119934.000,20620,2,EA,1,100,0.609440
1574868707.308193,119992.500,20636,2,EA,1,100,0.609702
1574868707.377685,120051.000,20636,2,EA,1,100,0.609538
1574868707.445394,120108.000,20654,1,EA,1,100,0.609944
1574868707.514886,120166.500,20672,2,EA,1,100,0.609722
1574868707.584377,120225.000,20672,2,EA,1,100,0.610074
1574868707.647929,120278.500,20690,2,EA,1,100,0.610062
1574868707.711481,120332.000,20690,2,EA,1,100,0.609805
1574868707.775627,120386.000,20708,2,EA,1,100,0.609783
1574868707.839773,120440.000,20708,2,EA,1,100,0.609847
1574868707.906889,120496.500,20726,2,EA,1,100,0.609914
1574868707.974005,120553.000,20726,2,EA,1,100,0.609714
1574868708.041714,120610.000,20745,1,EA,1,100,0.610025
1574868708.111799,120669.000,20763,2,EA,1,100,0.609855
1574868708.181885,120728.000,20763,2,EA,1,100,0.610023
1574868708.245437,120781.500,20780,2,EA,1,100,0.610218
1574868708.308989,120835.000,20780,2,EA,1,100,0.610151
1574868708.372541,120888.500,20798,2,EA,1,100,0.610203
1574868708.436093,120942.000,20798,2,EA,1,100,0.610085
1574868708.504396,120999.500,20814,2,EA,1,100,0.610225
1574868708.572700,121057.000,20814,2,EA,1,100,0.610101
1574868708.639816,121113.500,20832,2,EA,1,100,0.610128
1574868708.706931,121170.000,20832,2,EA,1,100,0.609972
1574868708.778205,121230.000,20850,1,EA,1,100,0.610376
1574868708.843539,121285.000,20868,2,EA,1,100,0.610191
1574868708.908872,121340.000,20868,2,EA,1,100,0.610067
1574868708.972424,121393.500,20886,2,EA,1,100,0.610193
1574868709.035976,121447.000,20886,2,EA,1,100,0.610085
1574868709.103686,121504.000,20905,2,EA,1,100,0.610386
1574868709.171396,121561.000,20905,2,EA,1,100,0.610063
1574868709.238511,121617.500,20923,2,EA,1,100,0.610359
1574868709.305627,121674.000,20923,2,EA,1,100,0.610218
1574868709.376900,121734.000,20941,1,EA,1,100,0.610153
1574868709.441640,121788.500,20958,2,EA,1,100,0.610148
1574868709.506380,121843.000,20958,2,EA,1,100,0.610244
1574868709.569932,121896.500,20976,2,EA,1,100,0.610400
1574868709.633484,121950.000,20976,2,EA,1,100,0.610401
1574868709.701194,122007.000,20994,2,EA,1,100,0.610362
1574868709.768903,122064.000,20994,2,EA,1,100,0.609920
1574868709.837207,122121.500,21010,2,EA,1,100,0.610352
1574868709.905510,122179.000,21010,2,EA,1,100,0.610092
1574868709.975596,122238.000,21028,1,EA,1,100,0.610388
1574868710.043899,122295.500,21047,2,EA,1,100,0.610335
1574868710.112203,122353.000,21047,2,EA,1,100,0.610324
1574868710.180506,122410.500,21065,2,EA,1,100,0.610497
1574868710.248810,122468.000,21065,2,EA,1,100,0.610134
1574868710.315926,122524.500,21083,2,EA,1,100,0.610418
1574868710.383041,122581.000,21083,2,EA,1,100,0.610108
1574868710.444811,122633.000,21101,1,EA,1,100,0.610379
1574868710.510739,122688.500,21119,2,EA,1,100,0.610262
1574868710.576667,122744.000,21119,2,EA,1,100,0.610305
1574868710.644970,122801.500,21136,2,EA,1,100,0.610339
1574868710.713274,122859.000,21136,2,EA,1,100,0.610244
1574868710.779202,122914.500,21154,2,EA,1,100,0.610685
1574868710.845130,122970.000,21154,2,EA,1,100,0.610181
1574868710.914621,123028.500,21170,2,EA,1,100,0.610386
1574868710.984113,123087.000,21170,2,EA,1,100,0.610115
1574868711.049446,123142.000,21189,1,EA,1,100,0.610326
1574868711.118344,123200.000,21207,2,EA,1,100,0.610210
1574868711.187241,123258.000,21207,2,EA,1,100,0.610475
1574868711.249605,123310.500,21225,2,EA,1,100,0.610427
1574868711.311970,123363.000,21225,2,EA,1,100,0.610481
1574868711.377897,123418.500,21243,2,EA,1,100,0.610420
1574868711.443825,123474.000,21243,2,EA,1,100,0.610383
1574868711.512129,123531.500,21261,2,EA,1,100,0.610593
1574868711.580432,123589.000,21261,2,EA,1,100,0.610413
1574868711.649330,123647.000,21279,1,EA,1,100,0.610477
1574868711.718227,123705.000,21296,2,EA,1,100,0.610168
1574868711.787125,123763.000,21296,2,EA,1,100,0.610153
1574868711.850083,123816.000,21314,2,EA,1,100,0.610386
1574868711.913041,123869.000,21314,2,EA,1,100,0.610437
1574868711.978375,123924.000,21335,3,EA,1,100,0.610543
1574868712.043709,123979.000,21335,3,EA,1,100,0.610415
1574868712.109042,124034.000,21335,3,EA,1,100,0.610559
1574868712.179128,124093.000,21356,2,EA,1,100,0.610453
1574868712.249213,124152.000,21356,2,EA,1,100,0.610316
1574868712.315735,124208.000,21374,1,EA,1,100,0.610531
1574868712.383445,124265.000,21391,2,EA,1,100,0.610369
1574868712.451154,124322.000,21391,2,EA,1,100,0.610519
1574868712.514706,124375.500,21409,2,EA,1,100,0.610477
1574868712.578258,124429.000,21409,2,EA,1,100,0.610402
1574868712.643592,124484.000,21427,2,EA,1,100,0.610435
1574868712.708926,124539.000,21427,2,EA,1,100,0.610462
1574868712.779011,124598.000,21443,2,EA,1,100,0.610623
1574868712.849097,124657.000,21443,2,EA,1,100,0.610269
1574868712.916806,124714.000,21461,1,EA,1,100,0.610568
1574868712.983922,124770.500,21480,2,EA,1,100,0.610483
1574868713.051038,124827.000,21480,2,EA,1,100,0.610655
1574868713.113402,124879.500,21498,2,EA,1,100,0.610602
1574868713.175766,124932.000,21498,2,EA,1,100,0.610675
1574868713.241693,124987.500,21516,2,EA,1,100,0.610645
1574868713.307621,125043.000,21516,2,EA,1,100,0.610505
1574868713.375925,125100.500,21534,2,EA,1,100,0.610450
1574868713.444228,125158.000,21534,2,EA,1,100,0.610616
1574868713.511938,125215.000,21552,1,EA,1,100,0.610620
1574868713.580242,125272.500,21569,2,EA,1,100,0.610588
1574868713.648545,125330.000,21569,2,EA,1,100,0.610584
1574868713.711503,125383.000,21587,2,EA,1,100,0.610636
1574868713.774461,125436.000,21587,2,EA,1,100,0.610685
1574868713.839795,125491.000,21605,2,EA,1,100,0.610775
1574868713.905129,125546.000,21605,2,EA,1,100,0.610783
1574868713.968681,125599.500,21623,2,EA,1,100,0.610879
1574868714.032233,125653.000,21623,2,EA,1,100,0.610642
1574868714.099349,125709.500,21640,2,EA,1,100,0.610784
1574868714.166464,125766.000,21640,2,EA,1,100,0.610291
1574868714.232986,125822.000,21658,1,EA,1,100,0.610580
1574868714.303071,125881.000,21676,2,EA,1,100,0.610553
1574868714.373157,125940.000,21676,2,EA,1,100,0.610639
1574868714.440273,125996.500,21694,2,EA,1,100,0.610530
1574868714.507388,126053.000,21694,2,EA,1,100,0.610528
1574868714.570940,126106.500,21712,2,EA,1,100,0.610799
1574868714.634492,126160.000,21712,2,EA,1,100,0.610616
1574868714.701014,126216.000,21730,2,EA,1,100,0.610825
1574868714.767536,126272.000,21730,2,EA,1,100,0.610299
1574868714.837621,126331.000,21748,1,EA,1,100,0.610653
1574868714.905331,126388.000,21765,2,EA,1,100,0.610447
1574868714.973040,126445.000,21765,2,EA,1,100,0.610559
1574868715.040750,126502.000,21784,2,EA,1,100,0.610516
1574868715.108459,126559.000,21784,2,EA,1,100,0.610637
1574868715.172012,126612.500,21800,2,EA,1,100,0.610680
1574868715.235564,126666.000,21800,2,EA,1,100,0.610456
1574868715.300303,126720.500,21818,2,EA,1,100,0.610641
1574868715.365043,126775.000,21818,2,EA,1,100,0.610388
1574868715.432753,126832.000,21836,1,EA,1,100,0.610520
1574868715.500463,126889.000,21854,2,EA,1,100,0.610314
1574868715.568172,126946.000,21854,2,EA,1,100,0.610444
1574868715.637664,127004.500,21872,2,EA,1,100,0.610420
1574868715.707155,127063.000,21872,2,EA,1,100,0.610395
1574868715.770707,127116.500,21890,2,EA,1,100,0.610568
1574868715.834259,127170.000,21890,2,EA,1,100,0.610415
1574868715.900781,127226.000,21908,2,EA,1,100,0.610583
1574868715.967303,127282.000,21908,2,EA,1,100,0.610423
1574868716.032636,127337.000,21927,1,EA,1,100,0.610320
1574868716.102128,127395.500,21944,2,EA,1,100,0.610240
1574868716.171619,127454.000,21944,2,EA,1,100,0.610407
1574868716.238735,127510.500,21962,2,EA,1,100,0.610477
1574868716.305851,127567.000,21962,2,EA,1,100,0.610366
1574868716.371184,127622.000,21978,2,EA,1,100,0.610380
1574868716.436518,127677.000,21978,2,EA,1,100,0.610090
1574868716.500664,127731.000,21996,2,EA,1,100,0.610298
1574868716.564810,127785.000,21996,2,EA,1,100,0.610040
1574868716.631332,127841.000,22014,1,EA,1,100,0.610466
1574868716.701417,127900.000,22032,2,EA,1,100,0.610085
1574868716.771503,127959.000,22032,2,EA,1,100,0.610241
1574868716.838024,128015.000,22050,2,EA,1,100,0.610238
1574868716.904546,128071.000,22050,2,EA,1,100,0.610154
1574868716.969286,128125.500,22068,2,EA,1,100,0.610462
1574868717.034026,128180.000,22068,2,EA,1,100,0.609868
1574868717.096984,128233.000,22087,2,EA,1,100,0.610396
1574868717.159942,128286.000,22087,2,EA,1,100,0.609822
1574868717.226464,128342.000,22105,1,EA,1,100,0.610205
1574868717.296549,128401.000,22123,2,EA,1,100,0.609897
1574868717.366635,128460.000,22123,2,EA,1,100,0.610037
1574868717.434938,128517.500,22140,2,EA,1,100,0.610117
1574868717.503242,128575.000,22140,2,EA,1,100,0.609996
1574868717.572139,128633.000,22156,2,EA,1,100,0.610102
1574868717.641037,128691.000,22156,2,EA,1,100,0.609988
1574868717.712310,128751.000,22174,1,EA,1,100,0.610302
1574868717.779426,128807.500,22192,2,EA,1,100,0.610142
1574868717.846541,128864.000,22192,2,EA,1,100,0.610088
1574868717.910093,128917.500,22210,2,EA,1,100,0.610116
1574868717.973645,128971.000,22210,2,EA,1,100,0.610070
1574868718.040563,129027.333,22232,3,EA,1,100,0.610088
1574868718.107481,129083.667,22232,3,EA,1,100,0.609992
1574868718.174398,129140.000,22232,3,EA,1,100,0.610022
1574868718.242702,129197.500,22252,2,EA,1,100,0.610026
1574868718.311006,129255.000,22252,2,EA,1,100,0.610125
1574868718.381091,129314.000,22268,1,EA,1,100,0.610137
1574868718.445831,129368.500,22286,2,EA,1,100,0.609984
1574868718.510571,129423.000,22286,2,EA,1,100,0.610052
1574868718.574717,129477.000,22304,2,EA,1,100,0.610184
1574868718.638863,129531.000,22304,2,EA,1,100,0.610191
1574868718.705384,129587.000,22322,2,EA,1,100,0.610095
1574868718.771906,129643.000,22322,2,EA,1,100,0.610186
1574868718.839022,129699.500,22340,2,EA,1,100,0.610149
1574868718.906137,129756.000,22340,2,EA,1,100,0.609893
1574868718.975035,129814.000,22358,1,EA,1,100,0.610034
1574868719.040369,129869.000,22377,2,EA,1,100,0.609713
1574868719.105703,129924.000,22377,2,EA,1,100,0.609640
1574868719.169255,129977.500,22394,2,EA,1,100,0.609848
1574868719.232806,130031.000,22394,2,EA,1,100,0.610054
1574868719.300516,130088.000,22412,2,EA,1,100,0.609960
1574868719.368226,130145.000,22412,2,EA,1,100,0.610142
1574868719.435341,130201.500,22430,2,EA,1,100,0.610004
1574868719.502457,130258.000,22430,2,EA,1,100,0.610051
1574868719.572542,130317.000,22446,2,EA,1,100,0.609748
1574868719.642628,130376.000,22446,2,EA,1,100,0.609385
1574868719.706774,130430.000,22464,1,EA,1,100,0.609577
1574868719.770326,130483.500,22482,2,EA,1,100,0.609256
1574868719.833878,130537.000,22482,2,EA,1,100,0.609306
1574868719.900994,130593.500,22500,2,EA,1,100,0.609445
1574868719.968109,130650.000,22500,2,EA,1,100,0.609288
1574868720.035225,130706.500,22519,2,EA,1,100,0.609189
1574868720.102340,130763.000,22519,2,EA,1,100,0.609184
1574868720.171238,130821.000,22537,2,EA,1,100,0.609283
1574868720.240136,130879.000,22537,2,EA,1,100,0.608993
1574868720.305469,130934.000,22555,1,EA,1,100,0.609250
1574868720.369021,130987.500,22572,2,EA,1,100,0.609014
1574868720.432573,131041.000,22572,2,EA,1,100,0.609323
1574868720.499095,131097.000,22590,2,EA,1,100,0.609221
1574868720.565617,131153.000,22590,2,EA,1,100,0.609204
1574868720.632733,131209.500,22608,2,EA,1,100,0.609407
1574868720.699848,131266.000,22608,2,EA,1,100,0.609430
1574868720.768746,131324.000,22624,2,EA,1,100,0.609728
1574868720.837643,131382.000,22624,2,EA,1,100,0.609456
1574868720.905353,131439.000,22642,1,EA,1,100,0.609532
1574868720.968311,131492.000,22661,2,EA,1,100,0.609342
1574868721.031269,131545.000,22661,2,EA,1,100,0.609032
1574868721.097791,131601.000,22679,2,EA,1,100,0.609014
1574868721.164312,131657.000,22679,2,EA,1,100,0.609214
1574868721.227270,131710.000,22697,2,EA,1,100,0.609189
1574868721.290229,131763.000,22697,2,EA,1,100,0.609222
1574868721.355562,131818.000,22715,2,EA,1,100,0.609261
1574868721.420896,131873.000,22715,2,EA,1,100,0.608860
1574868721.490388,131931.500,22733,2,EA,1,100,0.609497
1574868721.559879,131990.000,22733,2,EA,1,100,0.609147
1574868721.625213,132045.000,22751,1,EA,1,100,0.609518
1574868721.695298,132104.000,22768,2,EA,1,100,0.609358
1574868721.765384,132163.000,22768,2,EA,1,100,0.609444
1574868721.828342,132216.000,22786,2,EA,1,100,0.609412
1574868721.891300,132269.000,22786,2,EA,1,100,0.609441
1574868721.956040,132323.500,22804,2,EA,1,100,0.609327
1574868722.020780,132378.000,22804,2,EA,1,100,0.609157
1574868722.090271,132436.500,22821,2,EA,1,100,0.609463
1574868722.159763,132495.000,22821,2,EA,1,100,0.609097
1574868722.228660,132553.000,22839,1,EA,1,100,0.609259
1574868722.297558,132611.000,22857,2,EA,1,100,0.609313
1574868722.366455,132669.000,22857,2,EA,1,100,0.609439
1574868722.428225,132721.000,22875,2,EA,1,100,0.609309
1574868722.489995,132773.000,22875,2,EA,1,100,0.609248
1574868722.555329,132828.000,22893,2,EA,1,100,0.609389
1574868722.620663,132883.000,22893,2,EA,1,100,0.609080
1574868722.688373,132940.000,22911,2,EA,1,100,0.609385
1574868722.756082,132997.000,22911,2,EA,1,100,0.609086
1574868722.823792,133054.000,22929,1,EA,1,100,0.609362
1574868722.894471,133113.500,22946,2,EA,1,100,0.609032
1574868722.965151,133173.000,22946,2,EA,1,100,0.609250
1574868723.026921,133225.000,22965,2,EA,1,100,0.609398
1574868723.088691,133277.000,22965,2,EA,1,100,0.609184
1574868723.152837,133331.000,22983,2,EA,1,100,0.609255
1574868723.216983,133385.000,22983,2,EA,1,100,0.609022
1574868723.286474,133443.500,22999,2,EA,1,100,0.609524
1574868723.355966,133502.000,22999,2,EA,1,100,0.609069
1574868723.422487,133558.000,23017,1,EA,1,100,0.609325
1574868723.492573,133617.000,23035,2,EA,1,100,0.609078
1574868723.562658,133676.000,23035,2,EA,1,100,0.609305
1574868723.626210,133729.500,23053,2,EA,1,100,0.609317
1574868723.689762,133783.000,23053,2,EA,1,100,0.609072
1574868723.753908,133837.000,23071,2,EA,1,100,0.609331
1574868723.818054,133891.000,23071,2,EA,1,100,0.609162
1574868723.886952,133949.000,23089,2,EA,1,100,0.609457
1574868723.955849,134007.000,23089,2,EA,1,100,0.609116
1574868724.021183,134062.000,23108,1,EA,1,100,0.609245
1574868724.089684,134119.667,23128,3,EA,1,100,0.609319
1574868724.158186,134177.333,23128,3,EA,1,100,0.609389
1574868724.226688,134235.000,23128,3,EA,1,100,0.609255
1574868724.289052,134287.500,23148,2,EA,1,100,0.609156
1574868724.351416,134340.000,23148,2,EA,1,100,0.609117
1574868724.415562,134394.000,23166,2,EA,1,100,0.609196
1574868724.479708,134448.000,23166,2,EA,1,100,0.609012
1574868724.548011,134505.500,23184,2,EA,1,100,0.609193
1574868724.616315,134563.000,23184,2,EA,1,100,0.609093
1574868724.687588,134623.000,23202,1,EA,1,100,0.609248
1574868724.755892,134680.500,23219,2,EA,1,100,0.609172
1574868724.824195,134738.000,23219,2,EA,1,100,0.609158
1574868724.893687,134796.500,23237,2,EA,1,100,0.609256
1574868724.963178,134855.000,23237,2,EA,1,100,0.609123
1574868725.030294,134911.500,23256,2,EA,1,100,0.609241
1574868725.097409,134968.000,23256,2,EA,1,100,0.609016
1574868725.160961,135021.500,23272,2,EA,1,100,0.609093
1574868725.224514,135075.000,23272,2,EA,1,100,0.608918
1574868725.288659,135129.000,23290,1,EA,1,100,0.609249
1574868725.355181,135185.000,23308,2,EA,1,100,0.608912
1574868725.421703,135241.000,23308,2,EA,1,100,0.609050
1574868725.491194,135299.500,23326,2,EA,1,100,0.609014
1574868725.560686,135358.000,23326,2,EA,1,100,0.609148
1574868725.629583,135416.000,23344,2,EA,1,100,0.609289
1574868725.698481,135474.000,23344,2,EA,1,100,0.608754
1574868725.762033,135527.500,23362,2,EA,1,100,0.609051
1574868725.825585,135581.000,23362,2,EA,1,100,0.608976
1574868725.887355,135633.000,23380,1,EA,1,100,0.609009
1574868725.955658,135690.500,23398,2,EA,1,100,0.608793
1574868726.023962,135748.000,23398,2,EA,1,100,0.608964
1574868726.091672,135805.000,23416,2,EA,1,100,0.608967
1574868726.159381,135862.000,23416,2,EA,1,100,0.608917
1574868726.228279,135920.000,23434,2,EA,1,100,0.609092
1574868726.297176,135978.000,23434,2,EA,1,100,0.608920
1574868726.361916,136032.500,23450,2,EA,1,100,0.609093
1574868726.426656,136087.000,23450,2,EA,1,100,0.608943
1574868726.489614,136140.000,23468,1,EA,1,100,0.608948
1574868726.556136,136196.000,23486,2,EA,1,100,0.608918
1574868726.622658,136252.000,23486,2,EA,1,100,0.608803
1574868726.692743,136311.000,23504,2,EA,1,100,0.608748
1574868726.762828,136370.000,23504,2,EA,1,100,0.608840
1574868726.830538,136427.000,23522,2,EA,1,100,0.609017
1574868726.898248,136484.000,23522,2,EA,1,100,0.608645
1574868726.963581,136539.000,23540,2,EA,1,100,0.608993
1574868727.028915,136594.000,23540,2,EA,1,100,0.608799
1574868727.091873,136647.000,23559,1,EA,1,100,0.608834
1574868727.157801,136702.500,23576,2,EA,1,100,0.608802
1574868727.223729,136758.000,23576,2,EA,1,100,0.608800
1574868727.293814,136817.000,23594,2,EA,1,100,0.608709
1574868727.363900,136876.000,23594,2,EA,1,100,0.608641
1574868727.431015,136932.500,23610,2,EA,1,100,0.608925
1574868727.498131,136989.000,23610,2,EA,1,100,0.608592
1574868727.564059,137044.500,23628,2,EA,1,100,0.608728
1574868727.629987,137100.000,23628,2,EA,1,100,0.608484
1574868727.690569,137151.000,23646,1,EA,1,100,0.608636
1574868727.755903,137206.000,23664,2,EA,1,100,0.608703
1574868727.821237,137261.000,23664,2,EA,1,100,0.608809
1574868727.891322,137320.000,23682,2,EA,1,100,0.608665
1574868727.961407,137379.000,23682,2,EA,1,100,0.608791
1574868728.027929,137435.000,23701,2,EA,1,100,0.608942
1574868728.094451,137491.000,23701,2,EA,1,100,0.608579
1574868728.160973,137547.000,23719,2,EA,1,100,0.608689
1574868728.227494,137603.000,23719,2,EA,1,100,0.608456
1574868728.295204,137660.000,23737,1,EA,1,100,0.608573
1574868728.362319,137716.500,23754,2,EA,1,100,0.608481
1574868728.429435,137773.000,23754,2,EA,1,100,0.608534
1574868728.491799,137825.500,23772,2,EA,1,100,0.608532
1574868728.554163,137878.000,23772,2,EA,1,100,0.608643
1574868728.619497,137933.000,23790,2,EA,1,100,0.608743
1574868728.684831,137988.000,23790,2,EA,1,100,0.608711
1574868728.751947,138044.500,23806,2,EA,1,100,0.608727
1574868728.819062,138101.000,23806,2,EA,1,100,0.608438
1574868728.890336,138161.000,23824,1,EA,1,100,0.608633
1574868728.959233,138219.000,23843,2,EA,1,100,0.608562
1574868729.028131,138277.000,23843,2,EA,1,100,0.608430
1574868729.091683,138330.500,23861,2,EA,1,100,0.608590
1574868729.155235,138384.000,23861,2,EA,1,100,0.608570
1574868729.220569,138439.000,23879,2,EA,1,100,0.608558
1574868729.285903,138494.000,23879,2,EA,1,100,0.608432
1574868729.354206,138551.500,23897,2,EA,1,100,0.608740
1574868729.422509,138609.000,23897,2,EA,1,100,0.608485
1574868729.491407,138667.000,23915,1,EA,1,100,0.608616
1574868729.560305,138725.000,23932,2,EA,1,100,0.608502
1574868729.629202,138783.000,23932,2,EA,1,100,0.608566
1574868729.696912,138840.000,23950,2,EA,1,100,0.608567
1574868729.764621,138897.000,23950,2,EA,1,100,0.608734
1574868729.831143,138953.000,23966,2,EA,1,100,0.608357
1574868729.897665,139009.000,23966,2,EA,1,100,0.608284
1574868729.961217,139062.500,23984,2,EA,1,100,0.608657
1574868730.024769,139116.000,23984,2,EA,1,100,0.608321
1574868730.087727,139169.000,24003,1,EA,1,100,0.608573
1574868730.155437,139226.000,24024,3,EA,1,100,0.608508
1574868730.223146,139283.000,24024,3,EA,1,100,0.608460
1574868730.290856,139340.000,24024,3,EA,1,100,0.608558
1574868730.360347,139398.500,24044,2,EA,1,100,0.608501
1574868730.429838,139457.000,24044,2,EA,1,100,0.608437
1574868730.496360,139513.000,24060,2,EA,1,100,0.608231
1574868730.562882,139569.000,24060,2,EA,1,100,0.608193
1574868730.624058,139620.500,24078,2,EA,1,100,0.608557
1574868730.685235,139672.000,24078,2,EA,1,100,0.608184
1574868730.756508,139732.000,24096,1,EA,1,100,0.608476
1574868730.823030,139788.000,24114,2,EA,1,100,0.608322
1574868730.889551,139844.000,24114,2,EA,1,100,0.608474
1574868730.959043,139902.500,24132,2,EA,1,100,0.608346
1574868731.028534,139961.000,24132,2,EA,1,100,0.608284
1574868731.096244,140018.000,24151,2,EA,1,100,0.608616
1574868731.163953,140075.000,24151,2,EA,1,100,0.608222
1574868731.225724,140127.000,24169,2,EA,1,100,0.608352
1574868731.287494,140179.000,24169,2,EA,1,100,0.608126
1574868731.358767,140239.000,24187,1,EA,1,100,0.608230
1574868731.425883,140295.500,24204,2,EA,1,100,0.608239
1574868731.492998,140352.000,24204,2,EA,1,100,0.608154
1574868731.561302,140409.500,24222,2,EA,1,100,0.608234
1574868731.629605,140467.000,24222,2,EA,1,100,0.608205
1574868731.696721,140523.500,24238,2,EA,1,100,0.608400
1574868731.763837,140580.000,24238,2,EA,1,100,0.608167
1574868731.826201,140632.500,24256,2,EA,1,100,0.608323
1574868731.888565,140685.000,24256,2,EA,1,100,0.608113
1574868731.955087,140741.000,24274,1,EA,1,100,0.608119
1574868732.022202,140797.500,24293,2,EA,1,100,0.608006
1574868732.089318,140854.000,24293,2,EA,1,100,0.607873
1574868732.158216,140912.000,24311,2,EA,1,100,0.608011
1574868732.227113,140970.000,24311,2,EA,1,100,0.608204
1574868732.297792,141029.500,24329,2,EA,1,100,0.608326
1574868732.368472,141089.000,24329,2,EA,1,100,0.608018
1574868732.430242,141141.000,24347,1,EA,1,100,0.608240
1574868732.501515,141201.000,24365,2,EA,1,100,0.608204
1574868732.572788,141261.000,24365,2,EA,1,100,0.608412
1574868732.635153,141313.500,24382,2,EA,1,100,0.608141
1574868732.697517,141366.000,24382,2,EA,1,100,0.608053
1574868732.761662,141420.000,24400,2,EA,1,100,0.608105
1574868732.825809,141474.000,24400,2,EA,1,100,0.608099
1574868732.895300,141532.500,24416,2,EA,1,100,0.608180
1574868732.964792,141591.000,24416,2,EA,1,100,0.607890
1574868733.030125,141646.000,24435,1,EA,1,100,0.608293
1574868733.101398,141706.000,24453,2,EA,1,100,0.608004
1574868733.172672,141766.000,24453,2,EA,1,100,0.607994
1574868733.235630,141819.000,24471,2,EA,1,100,0.608054
1574868733.298588,141872.000,24471,2,EA,1,100,0.608231
1574868733.363328,141926.500,24489,2,EA,1,100,0.608057
1574868733.428068,141981.000,24489,2,EA,1,100,0.608068
1574868733.495183,142037.500,24507,2,EA,1,100,0.608052
1574868733.562299,142094.000,24507,2,EA,1,100,0.607925
1574868733.629415,142150.500,24525,2,EA,1,100,0.608242
1574868733.696530,142207.000,24525,2,EA,1,100,0.607929
1574868733.767804,142267.000,24543,1,EA,1,100,0.608186
1574868733.831950,142321.000,24560,2,EA,1,100,0.608114
1574868733.896096,142375.000,24560,2,EA,1,100,0.608172
1574868733.960242,142429.000,24578,2,EA,1,100,0.608070
1574868734.024388,142483.000,24578,2,EA,1,100,0.607935
1574868734.092691,142540.500,24597,2,EA,1,100,0.608089
1574868734.160995,142598.000,24597,2,EA,1,100,0.608099
1574868734.227516,142654.000,24613,2,EA,1,100,0.608211
1574868734.294038,142710.000,24613,2,EA,1,100,0.607873
1574868734.366499,142771.000,24631,1,EA,1,100,0.607950
1574868734.430645,142825.000,24649,2,EA,1,100,0.608055
1574868734.494791,142879.000,24649,2,EA,1,100,0.608100
1574868734.558937,142933.000,24667,2,EA,1,100,0.607989
1574868734.623083,142987.000,24667,2,EA,1,100,0.607973
1574868734.690199,143043.500,24685,2,EA,1,100,0.607956
1574868734.757314,143100.000,24685,2,EA,1,100,0.608071
1574868734.824430,143156.500,24703,2,EA,1,100,0.608039
1574868734.891546,143213.000,24703,2,EA,1,100,0.607694
1574868734.964007,143274.000,24721,1,EA,1,100,0.608093
1574868735.028747,143328.500,24739,2,EA,1,100,0.607882
1574868735.093487,143383.000,24739,2,EA,1,100,0.607840
1574868735.157039,143436.500,24757,2,EA,1,100,0.607806
1574868735.220591,143490.000,24757,2,EA,1,100,0.607878
1574868735.288300,143547.000,24775,2,EA,1,100,0.607852
1574868735.356010,143604.000,24775,2,EA,1,100,0.607911
1574868735.423126,143660.500,24791,2,EA,1,100,0.607909
1574868735.490241,143717.000,24791,2,EA,1,100,0.607786
1574868735.561515,143777.000,24809,1,EA,1,100,0.607907
1574868735.627442,143832.500,24827,2,EA,1,100,0.608021
1574868735.693370,143888.000,24827,2,EA,1,100,0.607724
1574868735.756328,143941.000,24845,2,EA,1,100,0.607994
1574868735.819286,143994.000,24845,2,EA,1,100,0.607819
1574868735.885214,144049.500,24863,2,EA,1,100,0.608018
1574868735.951142,144105.000,24863,2,EA,1,100,0.607769
1574868736.013506,144157.500,24882,2,EA,1,100,0.608037
1574868736.075870,144210.000,24882,2,EA,1,100,0.607820
1574868736.142392,144266.000,24900,2,EA,1,100,0.608077
1574868736.208914,144322.000,24900,2,EA,1,100,0.607866
1574868736.278405,144380.500,24921,2,EA,1,100,0.607838
1574868736.347896,144439.000,24921,2,EA,1,100,0.607771
1574868736.416794,144497.000,24941,2,EA,1,100,0.607890
1574868736.485691,144555.000,24941,2,EA,1,100,0.607567
1574868736.549243,144608.500,24959,2,EA,1,100,0.607565
1574868736.612795,144662.000,24959,2,EA,1,100,0.607727
1574868736.677535,144716.500,24977,2,EA,1,100,0.607803
1574868736.742275,144771.000,24977,2,EA,1,100,0.607692
1574868736.809391,144827.500,24995,2,EA,1,100,0.607911
1574868736.876507,144884.000,24995,2,EA,1,100,0.607616
1574868736.945404,144942.000,25013,1,EA,1,100,0.607891
1574868737.013708,144999.500,25031,2,EA,1,100,0.607740
1574868737.082011,145057.000,25031,2,EA,1,100,0.607708
1574868737.147939,145112.500,25049,2,EA,1,100,0.607700
1574868737.213867,145168.000,25049,2,EA,1,100,0.607753
1574868737.277419,145221.500,25067,2,EA,1,100,0.607715
1574868737.340971,145275.000,25067,2,EA,1,100,0.607564
1574868737.406898,145330.500,25083,2,EA,1,100,0.607880
1574868737.472826,145386.000,25083,2,EA,1,100,0.607709
1574868737.542912,145445.000,25101,1,EA,1,100,0.607926
1574868737.610621,145502.000,25119,2,EA,1,100,0.607554
1574868737.678331,145559.000,25119,2,EA,1,100,0.607734
1574868737.745446,145615.500,25137,2,EA,1,100,0.607843
1574868737.812562,145672.000,25137,2,EA,1,100,0.607737
1574868737.876708,145726.000,25155,2,EA,1,100,0.607850
1574868737.940854,145780.000,25155,2,EA,1,100,0.607647
1574868738.005594,145834.500,25174,2,EA,1,100,0.607716
1574868738.070334,145889.000,25174,2,EA,1,100,0.607463
1574868738.143983,145951.000,25192,1,EA,1,100,0.607873
1574868738.210505,146007.000,25210,2,EA,1,100,0.607335
1574868738.277026,146063.000,25210,2,EA,1,100,0.607697
1574868738.345924,146121.000,25227,2,EA,1,100,0.607737
1574868738.414821,146179.000,25227,2,EA,1,100,0.607788
1574868738.478374,146232.500,25245,2,EA,1,100,0.607682
1574868738.541925,146286.000,25245,2,EA,1,100,0.607633
1574868738.607259,146341.000,25262,2,EA,1,100,0.607840
1574868738.672593,146396.000,25262,2,EA,1,100,0.607634
1574868738.743866,146456.000,25279,1,EA,1,100,0.607797
1574868738.810388,146512.000,25297,2,EA,1,100,0.607528
1574868738.876910,146568.000,25297,2,EA,1,100,0.607665
1574868738.944619,146625.000,25315,2,EA,1,100,0.607724
1574868739.012329,146682.000,25315,2,EA,1,100,0.607574
1574868739.074693,146734.500,25334,2,EA,1,100,0.607775
1574868739.137057,146787.000,25334,2,EA,1,100,0.607782
1574868739.202985,146842.500,25352,2,EA,1,100,0.607774
1574868739.268913,146898.000,25352,2,EA,1,100,0.607445
1574868739.336622,146955.000,25370,2,EA,1,100,0.607803
1574868739.404332,147012.000,25370,2,EA,1,100,0.607629
1574868739.475605,147072.000,25388,1,EA,1,100,0.607654
1574868739.543315,147129.000,25405,2,EA,1,100,0.607660
1574868739.611025,147186.000,25405,2,EA,1,100,0.607582
1574868739.681110,147245.000,25423,2,EA,1,100,0.607754
1574868739.751195,147304.000,25423,2,EA,1,100,0.607535
1574868739.817717,147360.000,25439,2,EA,1,100,0.607846
1574868739.884239,147416.000,25439,2,EA,1,100,0.607525
1574868739.948385,147470.000,25457,1,EA,1,100,0.607791
1574868740.012531,147524.000,25476,2,EA,1,100,0.607701
1574868740.076677,147578.000,25476,2,EA,1,100,0.607879
1574868740.143792,147634.500,25494,2,EA,1,100,0.607617
1574868740.210908,147691.000,25494,2,EA,1,100,0.607618
1574868740.280400,147749.500,25512,2,EA,1,100,0.607770
1574868740.349891,147808.000,25512,2,EA,1,100,0.607587
1574868740.417601,147865.000,25530,2,EA,1,100,0.607762
1574868740.485310,147922.000,25530,2,EA,1,100,0.607293
1574868740.549456,147976.000,25548,1,EA,1,100,0.607582
1574868740.611820,148028.500,25565,2,EA,1,100,0.607780
1574868740.674184,148081.000,25565,2,EA,1,100,0.607757
1574868740.741894,148138.000,25583,2,EA,1,100,0.607658
1574868740.809603,148195.000,25583,2,EA,1,100,0.607847
1574868740.877313,148252.000,25601,2,EA,1,100,0.607925
1574868740.945023,148309.000,25601,2,EA,1,100,0.607880
1574868741.013326,148366.500,25618,2,EA,1,100,0.607919
1574868741.081630,148424.000,25618,2,EA,1,100,0.607611
1574868741.145776,148478.000,25636,1,EA,1,100,0.607848
1574868741.208140,148530.500,25654,2,EA,1,100,0.607722
1574868741.270504,148583.000,25654,2,EA,1,100,0.607741
1574868741.339996,148641.500,25672,2,EA,1,100,0.607718
1574868741.409487,148700.000,25672,2,EA,1,100,0.607799
1574868741.478978,148758.500,25690,2,EA,1,100,0.607921
1574868741.548470,148817.000,25690,2,EA,1,100,0.607845
1574868741.616773,148874.500,25708,2,EA,1,100,0.607972
1574868741.685077,148932.000,25708,2,EA,1,100,0.607683
1574868741.752787,148989.000,25726,1,EA,1,100,0.607940
1574868741.814557,149041.000,25743,2,EA,1,100,0.607782
1574868741.876327,149093.000,25743,2,EA,1,100,0.607631
1574868741.942849,149149.000,25762,2,EA,1,100,0.607812
1574868742.009370,149205.000,25762,2,EA,1,100,0.607704
1574868742.079456,149264.000,25780,2,EA,1,100,0.607807
1574868742.149541,149323.000,25780,2,EA,1,100,0.607661
1574868742.216657,149379.500,25796,2,EA,1,100,0.608042
1574868742.283772,149436.000,25796,2,EA,1,100,0.607743
1574868742.347126,149489.333,25817,3,EA,1,100,0.608071
1574868742.410480,149542.667,25817,3,EA,1,100,0.607529
1574868742.473835,149596.000,25817,3,EA,1,100,0.607845
1574868742.539168,149651.000,25837,1,EA,1,100,0.607931
1574868742.606284,149707.500,25854,2,EA,1,100,0.607631
1574868742.673400,149764.000,25854,2,EA,1,100,0.607679
1574868742.742297,149822.000,25872,2,EA,1,100,0.607737
1574868742.811195,149880.000,25872,2,EA,1,100,0.607602
1574868742.880092,149938.000,25888,2,EA,1,100,0.608066
1574868742.948990,149996.000,25888,2,EA,1,100,0.607638
1574868743.010760,150048.000,25907,1,EA,1,100,0.607782
1574868743.080251,150106.500,25925,2,EA,1,100,0.607748
1574868743.149743,150165.000,25925,2,EA,1,100,0.607762
1574868743.210325,150216.000,25943,2,EA,1,100,0.607784
1574868743.270907,150267.000,25943,2,EA,1,100,0.607607
1574868743.335053,150321.000,25961,2,EA,1,100,0.607742
1574868743.399199,150375.000,25961,2,EA,1,100,0.607737
1574868743.468691,150433.500,25979,2,EA,1,100,0.607778
1574868743.538182,150492.000,25979,2,EA,1,100,0.607541
1574868743.606486,150549.500,25997,2,EA,1,100,0.607798
1574868743.674789,150607.000,25997,2,EA,1,100,0.607614
1574868743.746063,150667.000,26015,1,EA,1,100,0.607726
1574868743.810209,150721.000,26032,2,EA,1,100,0.607620
1574868743.874355,150775.000,26032,2,EA,1,100,0.607720
1574868743.937907,150828.500,26050,2,EA,1,100,0.607845
1574868744.001459,150882.000,26050,2,EA,1,100,0.607786
1574868744.069762,150939.500,26068,2,EA,1,100,0.607641
1574868744.138066,150997.000,26068,2,EA,1,100,0.607382
1574868744.205775,151054.000,26085,2,EA,1,100,0.607522
1574868744.273485,151111.000,26085,2,EA,1,100,0.607435
1574868744.343570,151170.000,26103,1,EA,1,100,0.607485
1574868744.408310,151224.500,26121,2,EA,1,100,0.607475
1574868744.473050,151279.000,26121,2,EA,1,100,0.607682
1574868744.536602,151332.500,26139,2,EA,1,100,0.607623
1574868744.600154,151386.000,26139,2,EA,1,100,0.607636
1574868744.667270,151442.500,26157,2,EA,1,100,0.607621
1574868744.734385,151499.000,26157,2,EA,1,100,0.607534
1574868744.802689,151556.500,26175,2,EA,1,100,0.607610
1574868744.870992,151614.000,26175,2,EA,1,100,0.607355
1574868744.938702,151671.000,26193,1,EA,1,100,0.607360
1574868745.006412,151728.000,26211,2,EA,1,100,0.607474
1574868745.074121,151785.000,26211,2,EA,1,100,0.607545
1574868745.137673,151838.500,26229,2,EA,1,100,0.607482
1574868745.201225,151892.000,26229,2,EA,1,100,0.607516
1574868745.267747,151948.000,26247,2,EA,1,100,0.607637
1574868745.334269,152004.000,26247,2,EA,1,100,0.607534
1574868745.401978,152061.000,26263,2,EA,1,100,0.607666
1574868745.469688,152118.000,26263,2,EA,1,100,0.607287
1574868745.540961,152178.000,26281,1,EA,1,100,0.607471
1574868745.608077,152234.500,26299,2,EA,1,100,0.607449
1574868745.675193,152291.000,26299,2,EA,1,100,0.607425
1574868745.738151,152344.000,26317,2,EA,1,100,0.607339
1574868745.801109,152397.000,26317,2,EA,1,100,0.607348
1574868745.868224,152453.500,26335,2,EA,1,100,0.607571
1574868745.935340,152510.000,26335,2,EA,1,100,0.607393
1574868746.002456,152566.500,26354,2,EA,1,100,0.607611
1574868746.069571,152623.000,26354,2,EA,1,100,0.607444
1574868746.140845,152683.000,26372,1,EA,1,100,0.607757
1574868746.207366,152739.000,26389,2,EA,1,100,0.607476
1574868746.273888,152795.000,26389,2,EA,1,100,0.607401
1574868746.337440,152848.500,26407,2,EA,1,100,0.607404
1574868746.400992,152902.000,26407,2,EA,1,100,0.607519
1574868746.466920,152957.500,26425,2,EA,1,100,0.607490
1574868746.532848,153013.000,26425,2,EA,1,100,0.607325
1574868746.601745,153071.000,26441,2,EA,1,100,0.607470
1574868746.670643,153129.000,26441,2,EA,1,100,0.607194
1574868746.738352,153186.000,26459,1,EA,1,100,0.607314
1574868746.807250,153244.000,26477,2,EA,1,100,0.607470
1574868746.876148,153302.000,26477,2,EA,1,100,0.607514
1574868746.944451,153359.500,26495,2,EA,1,100,0.607290
1574868747.012754,153417.000,26495,2,EA,1,100,0.607379
1574868747.082246,153475.500,26514,2,EA,1,100,0.607679
1574868747.151737,153534.000,26514,2,EA,1,100,0.607405
1574868747.214695,153587.000,26532,2,EA,1,100,0.607403
1574868747.277653,153640.000,26532,2,EA,1,100,0.607358
1574868747.342987,153695.000,26550,1,EA,1,100,0.607307
1574868747.410103,153751.500,26567,2,EA,1,100,0.607234
1574868747.477219,153808.000,26567,2,EA,1,100,0.607339
1574868747.544928,153865.000,26585,2,EA,1,100,0.607437
1574868747.612638,153922.000,26585,2,EA,1,100,0.607297
1574868747.683317,153981.500,26601,2,EA,1,100,0.607541
1574868747.753997,154041.000,26601,2,EA,1,100,0.607149
1574868747.816955,154094.000,26619,1,EA,1,100,0.607283
1574868747.886446,154152.500,26637,2,EA,1,100,0.607471
1574868747.955938,154211.000,26637,2,EA,1,100,0.607238
1574868748.018896,154264.000,26656,2,EA,1,100,0.607156
1574868748.081854,154317.000,26656,2,EA,1,100,0.607285
1574868748.147187,154372.000,26674,2,EA,1,100,0.607291
1574868748.212521,154427.000,26674,2,EA,1,100,0.607169
1574868748.280231,154484.000,26692,2,EA,1,100,0.607229
1574868748.347941,154541.000,26692,2,EA,1,100,0.607170
1574868748.415650,154598.000,26713,2,EA,1,100,0.607476
1574868748.483360,154655.000,26713,2,EA,1,100,0.607172
1574868748.551663,154712.500,26733,2,EA,1,100,0.607255
1574868748.619967,154770.000,26733,2,EA,1,100,0.607360
1574868748.682331,154822.500,26751,2,EA,1,100,0.607193
1574868748.744695,154875.000,26751,2,EA,1,100,0.607236
1574868748.809435,154929.500,26769,2,EA,1,100,0.607272
1574868748.874175,154984.000,26769,2,EA,1,100,0.607163
1574868748.944260,155043.000,26787,2,EA,1,100,0.607444
1574868749.014346,155102.000,26787,2,EA,1,100,0.607047
1574868749.080868,155158.000,26806,1,EA,1,100,0.607366
1574868749.150359,155216.500,26823,2,EA,1,100,0.607166
1574868749.219850,155275.000,26823,2,EA,1,100,0.607226
1574868749.283402,155328.500,26841,2,EA,1,100,0.607353
1574868749.346954,155382.000,26841,2,EA,1,100,0.607381
1574868749.410506,155435.500,26859,2,EA,1,100,0.607280
1574868749.474058,155489.000,26859,2,EA,1,100,0.607161
1574868749.543550,155547.500,26875,2,EA,1,100,0.607298
1574868749.613041,155606.000,26875,2,EA,1,100,0.607027
1574868749.679563,155662.000,26893,1,EA,1,100,0.607152
1574868749.749054,155720.500,26911,2,EA,1,100,0.607151
1574868749.818546,155779.000,26911,2,EA,1,100,0.607110
1574868749.880316,155831.000,26929,2,EA,1,100,0.607192
1574868749.942086,155883.000,26929,2,EA,1,100,0.607202
1574868750.006826,155937.500,26948,2,EA,1,100,0.607277
1574868750.071566,155992.000,26948,2,EA,1,100,0.607252
1574868750.139870,156049.500,26966,2,EA,1,100,0.607255
1574868750.208173,156107.000,26966,2,EA,1,100,0.606912
1574868750.275883,156164.000,26984,1,EA,1,100,0.607107
1574868750.344780,156222.000,27001,2,EA,1,100,0.606876
1574868750.413678,156280.000,27001,2,EA,1,100,0.606900
1574868750.477230,156333.500,27019,2,EA,1,100,0.606877
1574868750.540782,156387.000,27019,2,EA,1,100,0.606963
1574868750.604928,156441.000,27037,2,EA,1,100,0.607157
1574868750.669074,156495.000,27037,2,EA,1,100,0.607039
1574868750.735595,156551.000,27055,2,EA,1,100,0.607157
1574868750.802117,156607.000,27055,2,EA,1,100,0.607035
1574868750.874578,156668.000,27071,1,EA,1,100,0.607098
1574868750.941100,156724.000,27090,2,EA,1,100,0.607190
1574868751.007622,156780.000,27090,2,EA,1,100,0.607216
1574868751.077113,156838.500,27108,2,EA,1,100,0.607198
1574868751.146605,156897.000,27108,2,EA,1,100,0.607308
1574868751.215502,156955.000,27126,2,EA,1,100,0.607344
1574868751.284400,157013.000,27126,2,EA,1,100,0.607274
1574868751.347358,157066.000,27144,2,EA,1,100,0.607389
1574868751.410316,157119.000,27144,2,EA,1,100,0.607237
1574868751.475650,157174.000,27162,2,EA,1,100,0.607714
1574868751.540983,157229.000,27162,2,EA,1,100,0.607451
1574868751.606317,157284.000,27180,1,EA,1,100,0.607341
1574868751.675809,157342.500,27197,2,EA,1,100,0.607477
1574868751.745300,157401.000,27197,2,EA,1,100,0.607662
1574868751.814198,157459.000,27215,2,EA,1,100,0.607654
1574868751.883095,157517.000,27215,2,EA,1,100,0.607310
1574868751.947241,157571.000,27231,2,EA,1,100,0.607582
1574868752.011387,157625.000,27231,2,EA,1,100,0.607359
1574868752.076127,157679.500,27250,2,EA,1,100,0.607608
1574868752.140867,157734.000,27250,2,EA,1,100,0.607330
1574868752.207389,157790.000,27268,1,EA,1,100,0.607565
1574868752.275098,157847.000,27286,2,EA,1,100,0.607587
1574868752.342808,157904.000,27286,2,EA,1,100,0.607693
1574868752.411111,157961.500,27304,2,EA,1,100,0.607584
1574868752.479415,158019.000,27304,2,EA,1,100,0.607398
1574868752.545343,158074.500,27322,2,EA,1,100,0.607710
1574868752.611270,158130.000,27322,2,EA,1,100,0.607458
1574868752.676010,158184.500,27340,2,EA,1,100,0.607774
1574868752.740750,158239.000,27340,2,EA,1,100,0.607463
1574868752.806084,158294.000,27358,1,EA,1,100,0.607697
1574868752.875576,158352.500,27375,2,EA,1,100,0.607667
1574868752.945067,158411.000,27375,2,EA,1,100,0.607714
1574868753.011589,158467.000,27394,2,EA,1,100,0.607672
1574868753.078110,158523.000,27394,2,EA,1,100,0.607737
1574868753.145226,158579.500,27410,2,EA,1,100,0.608032
1574868753.212342,158636.000,27410,2,EA,1,100,0.607714
1574868753.275894,158689.500,27428,2,EA,1,100,0.607997
1574868753.339446,158743.000,27428,2,EA,1,100,0.607770
1574868753.405967,158799.000,27446,1,EA,1,100,0.607981
1574868753.476053,158858.000,27464,2,EA,1,100,0.607854
1574868753.546138,158917.000,27464,2,EA,1,100,0.607878
1574868753.612660,158973.000,27482,2,EA,1,100,0.607896
1574868753.679182,159029.000,27482,2,EA,1,100,0.608037
1574868753.745703,159085.000,27500,2,EA,1,100,0.608272
1574868753.812225,159141.000,27500,2,EA,1,100,0.608035
1574868753.874589,159193.500,27518,2,EA,1,100,0.608437
1574868753.936954,159246.000,27518,2,EA,1,100,0.608191
1574868754.001099,159300.000,27537,1,EA,1,100,0.608354
1574868754.070591,159358.500,27554,2,EA,1,100,0.608123
1574868754.140082,159417.000,27554,2,EA,1,100,0.608034
1574868754.208386,159474.500,27572,2,EA,1,100,0.608329
1574868754.276690,159532.000,27572,2,EA,1,100,0.608202
1574868754.344399,159589.000,27588,2,EA,1,100,0.608408
1574868754.412109,159646.000,27588,2,EA,1,100,0.608058
1574868754.482788,159705.500,27609,2,EA,1,100,0.608438
1574868754.553467,159765.000,27609,2,EA,1,100,0.608403
1574868754.618801,159820.000,27629,2,EA,1,100,0.608541
1574868754.684135,159875.000,27629,2,EA,1,100,0.608446
1574868754.747687,159928.500,27647,2,EA,1,100,0.608431
1574868754.811239,159982.000,27647,2,EA,1,100,0.608428
1574868754.878949,160039.000,27665,2,EA,1,100,0.608563
1574868754.946658,160096.000,27665,2,EA,1,100,0.608446
1574868755.015556,160154.000,27682,2,EA,1,100,0.608411
1574868755.084453,160212.000,27682,2,EA,1,100,0.608362
1574868755.153351,160270.000,27700,1,EA,1,100,0.608735
1574868755.219872,160326.000,27718,2,EA,1,100,0.608570
1574868755.286394,160382.000,27718,2,EA,1,100,0.608556
1574868755.349946,160435.500,27736,2,EA,1,100,0.608661
1574868755.413498,160489.000,27736,2,EA,1,100,0.608659
1574868755.478832,160544.000,27754,2,EA,1,100,0.608663
1574868755.544166,160599.000,27754,2,EA,1,100,0.608691
1574868755.611876,160656.000,27772,2,EA,1,100,0.608739
1574868755.679585,160713.000,27772,2,EA,1,100,0.608721
1574868755.748483,160771.000,27790,1,EA,1,100,0.608800
1574868755.816192,160828.000,27807,2,EA,1,100,0.608655
1574868755.883902,160885.000,27807,2,EA,1,100,0.608814
1574868755.947454,160938.500,27825,2,EA,1,100,0.608880
1574868756.011006,160992.000,27825,2,EA,1,100,0.608698
1574868756.076340,161047.000,27844,2,EA,1,100,0.608801
1574868756.141674,161102.000,27844,2,EA,1,100,0.608780
1574868756.209383,161159.000,27860,2,EA,1,100,0.609013
1574868756.277093,161216.000,27860,2,EA,1,100,0.608578
1574868756.349554,161277.000,27878,1,EA,1,100,0.608894
1574868756.416670,161333.500,27896,2,EA,1,100,0.608627
1574868756.483785,161390.000,27896,2,EA,1,100,0.608769
1574868756.547337,161443.500,27914,2,EA,1,100,0.608733
1574868756.610889,161497.000,27914,2,EA,1,100,0.608692
1574868756.678005,161553.500,27932,2,EA,1,100,0.608776
1574868756.745121,161610.000,27932,2,EA,1,100,0.608757
1574868756.811642,161666.000,27950,2,EA,1,100,0.608973
1574868756.878164,161722.000,27950,2,EA,1,100,0.608670
1574868756.950625,161783.000,27968,1,EA,1,100,0.608974
1574868757.017741,161839.500,27986,2,EA,1,100,0.608750
1574868757.084857,161896.000,27986,2,EA,1,100,0.609023
1574868757.148409,161949.500,28004,2,EA,1,100,0.608851
1574868757.211961,162003.000,28004,2,EA,1,100,0.608680
1574868757.276700,162057.500,28022,2,EA,1,100,0.608712
1574868757.341440,162112.000,28022,2,EA,1,100,0.608634
1574868757.408556,162168.500,28039,2,EA,1,100,0.608709
1574868757.475672,162225.000,28039,2,EA,1,100,0.608479
1574868757.548133,162286.000,28056,1,EA,1,100,0.608748
1574868757.614655,162342.000,28074,2,EA,1,100,0.608721
1574868757.681176,162398.000,28074,2,EA,1,100,0.608735
1574868757.745322,162452.000,28092,2,EA,1,100,0.608579
1574868757.809468,162506.000,28092,2,EA,1,100,0.608616
1574868757.878366,162564.000,28110,2,EA,1,100,0.608656
1574868757.947263,162622.000,28110,2,EA,1,100,0.608505
1574868758.008440,162673.500,28129,2,EA,1,100,0.608614
1574868758.069616,162725.000,28129,2,EA,1,100,0.608362
1574868758.133762,162779.000,28147,2,EA,1,100,0.608691
1574868758.197908,162833.000,28147,2,EA,1,100,0.608362
1574868758.266805,162891.000,28165,1,EA,1,100,0.608697
1574868758.334515,162948.000,28182,2,EA,1,100,0.608598
1574868758.402224,163005.000,28182,2,EA,1,100,0.608763
1574868758.474092,163065.500,28200,2,EA,1,100,0.608774
1574868758.545959,163126.000,28200,2,EA,1,100,0.608633
1574868758.608323,163178.500,28216,2,EA,1,100,0.608785
1574868758.670687,163231.000,28216,2,EA,1,100,0.608477
1574868758.734833,163285.000,28234,2,EA,1,100,0.608852
1574868758.798979,163339.000,28234,2,EA,1,100,0.608488
1574868758.867877,163397.000,28252,1,EA,1,100,0.608459
1574868758.936774,163455.000,28271,2,EA,1,100,0.608485
1574868759.005672,163513.000,28271,2,EA,1,100,0.608484
1574868759.075163,163571.500,28289,2,EA,1,100,0.608537
1574868759.144654,163630.000,28289,2,EA,1,100,0.608520
1574868759.208206,163683.500,28307,2,EA,1,100,0.608559
1574868759.271758,163737.000,28307,2,EA,1,100,0.608384
1574868759.335904,163791.000,28325,2,EA,1,100,0.608650
1574868759.400050,163845.000,28325,2,EA,1,100,0.608250
1574868759.464196,163899.000,28343,1,EA,1,100,0.608578
1574868759.532500,163956.500,28360,2,EA,1,100,0.608201
1574868759.600803,164014.000,28360,2,EA,1,100,0.608140
1574868759.669701,164072.000,28378,2,EA,1,100,0.608213
1574868759.738598,164130.000,28378,2,EA,1,100,0.608311
1574868759.804526,164185.500,28394,2,EA,1,100,0.608412
1574868759.870454,164241.000,28394,2,EA,1,100,0.608116
1574868759.934006,164294.500,28412,2,EA,1,100,0.608386
1574868759.997558,164348.000,28412,2,EA,1,100,0.607953
1574868760.064080,164404.000,28431,1,EA,1,100,0.608172
1574868760.132977,164462.000,28449,2,EA,1,100,0.607857
1574868760.201874,164520.000,28449,2,EA,1,100,0.608013
1574868760.271366,164578.500,28467,2,EA,1,100,0.607942
1574868760.340858,164637.000,28467,2,EA,1,100,0.607995
1574868760.406785,164692.500,28485,2,EA,1,100,0.608114
1574868760.472713,164748.000,28485,2,EA,1,100,0.607910
1574868760.536859,164802.000,28506,3,EA,1,100,0.608131
1574868760.601005,164856.000,28506,3,EA,1,100,0.607893
1574868760.665151,164910.000,28506,3,EA,1,100,0.608107
1574868760.735236,164969.000,28524,1,EA,1,100,0.608267
1574868760.802352,165025.500,28544,2,EA,1,100,0.607907
1574868760.869468,165082.000,28544,2,EA,1,100,0.608087
1574868760.937771,165139.500,28562,2,EA,1,100,0.607956
1574868761.006075,165197.000,28562,2,EA,1,100,0.607986
1574868761.070221,165251.000,28581,2,EA,1,100,0.608001
1574868761.134367,165305.000,28581,2,EA,1,100,0.607749
1574868761.197919,165358.500,28599,2,EA,1,100,0.608034
1574868761.261471,165412.000,28599,2,EA,1,100,0.607871
1574868761.331556,165471.000,28617,1,EA,1,100,0.607998
1574868761.400454,165529.000,28635,2,EA,1,100,0.607905
1574868761.469351,165587.000,28635,2,EA,1,100,0.607984
1574868761.536467,165643.500,28652,2,EA,1,100,0.607918
1574868761.603582,165700.000,28652,2,EA,1,100,0.608012
1574868761.675450,165760.500,28668,2,EA,1,100,0.608001
1574868761.747317,165821.000,28668,2,EA,1,100,0.607681
1574868761.813838,165877.000,28686,1,EA,1,100,0.607978
1574868761.881548,165934.000,28704,2,EA,1,100,0.607712
1574868761.949258,165991.000,28704,2,EA,1,100,0.607866
1574868762.012216,166044.000,28723,2,EA,1,100,0.607849
1574868762.075174,166097.000,28723,2,EA,1,100,0.607752
1574868762.141102,166152.500,28741,2,EA,1,100,0.607982
1574868762.207030,166208.000,28741,2,EA,1,100,0.607758
1574868762.276521,166266.500,28759,2,EA,1,100,0.608046
1574868762.346012,166325.000,28759,2,EA,1,100,0.607546
1574868762.411346,166380.000,28777,1,EA,1,100,0.607955
1574868762.480838,166438.500,28794,2,EA,1,100,0.607665
1574868762.550329,166497.000,28794,2,EA,1,100,0.607625
1574868762.612693,166549.500,28812,2,EA,1,100,0.607778
1574868762.675057,166602.000,28812,2,EA,1,100,0.607799
1574868762.740985,166657.500,28830,2,EA,1,100,0.607903
1574868762.806913,166713.000,28830,2,EA,1,100,0.607759
1574868762.875216,166770.500,28846,2,EA,1,100,0.607943
1574868762.943520,166828.000,28846,2,EA,1,100,0.607636
1574868763.012418,166886.000,28865,1,EA,1,100,0.607849
1574868763.080721,166943.500,28883,2,EA,1,100,0.607475
1574868763.149025,167001.000,28883,2,EA,1,100,0.607523
1574868763.211983,167054.000,28901,2,EA,1,100,0.607666
1574868763.274941,167107.000,28901,2,EA,1,100,0.607626
1574868763.339681,167161.500,28919,2,EA,1,100,0.607657
1574868763.404421,167216.000,28919,2,EA,1,100,0.607726
1574868763.474506,167275.000,28937,2,EA,1,100,0.607781
1574868763.544591,167334.000,28937,2,EA,1,100,0.607693
1574868763.611113,167390.000,28955,1,EA,1,100,0.607811
1574868763.681792,167449.500,28973,2,EA,1,100,0.607481
1574868763.752472,167509.000,28973,2,EA,1,100,0.607588
1574868763.814242,167561.000,28990,2,EA,1,100,0.607563
1574868763.876012,167613.000,28990,2,EA,1,100,0.607633
1574868763.940158,167667.000,29008,2,EA,1,100,0.607567
1574868764.004304,167721.000,29008,2,EA,1,100,0.607422
1574868764.073795,167779.500,29026,2,EA,1,100,0.607769
1574868764.143287,167838.000,29026,2,EA,1,100,0.607521
1574868764.209809,167894.000,29043,1,EA,1,100,0.607659
1574868764.279300,167952.500,29061,2,EA,1,100,0.607469
1574868764.348792,168011.000,29061,2,EA,1,100,0.607594
1574868764.410562,168063.000,29079,2,EA,1,100,0.607608
1574868764.472332,168115.000,29079,2,EA,1,100,0.607491
1574868764.536478,168169.000,29097,2,EA,1,100,0.607537
1574868764.600624,168223.000,29097,2,EA,1,100,0.607418
1574868764.670115,168281.500,29115,2,EA,1,100,0.607595
1574868764.739607,168340.000,29115,2,EA,1,100,0.607235
1574868764.806128,168396.000,29133,2,EA,1,100,0.607541
1574868764.872650,168452.000,29133,2,EA,1,100,0.607521
1574868764.943923,168512.000,29151,1,EA,1,100,0.607687
1574868765.008069,168566.000,29169,2,EA,1,100,0.607357
1574868765.072215,168620.000,29169,2,EA,1,100,0.607453
1574868765.135767,168673.500,29187,2,EA,1,100,0.607525
1574868765.199319,168727.000,29187,2,EA,1,100,0.607453
1574868765.265247,168782.500,29205,2,EA,1,100,0.607490
1574868765.331175,168838.000,29205,2,EA,1,100,0.607274
1574868765.395915,168892.500,29222,2,EA,1,100,0.607546
1574868765.460655,168947.000,29222,2,EA,1,100,0.607193
1574868765.527770,169003.500,29239,2,EA,1,100,0.607640
1574868765.594886,169060.000,29239,2,EA,1,100,0.607269
1574868765.664971,169119.000,29257,1,EA,1,100,0.607460
1574868765.732681,169176.000,29275,2,EA,1,100,0.607457
1574868765.800390,169233.000,29275,2,EA,1,100,0.607542
1574868765.871664,169293.000,29293,2,EA,1,100,0.607587
1574868765.942937,169353.000,29293,2,EA,1,100,0.607339
1574868766.009459,169409.000,29312,2,EA,1,100,0.607621
1574868766.075981,169465.000,29312,2,EA,1,100,0.607203
1574868766.140126,169519.000,29330,1,EA,1,100,0.607382
1574868766.203679,169572.500,29347,2,EA,1,100,0.607239
1574868766.267231,169626.000,29347,2,EA,1,100,0.607497
1574868766.333752,169682.000,29365,2,EA,1,100,0.607523
1574868766.400274,169738.000,29365,2,EA,1,100,0.607435
1574868766.469765,169796.500,29383,2,EA,1,100,0.607551
1574868766.539257,169855.000,29383,2,EA,1,100,0.607404
1574868766.606570,169911.667,29402,3,EA,1,100,0.607763
1574868766.673884,169968.333,29402,3,EA,1,100,0.607178
1574868766.741198,170025.000,29402,3,EA,1,100,0.607407
1574868766.804156,170078.000,29422,1,EA,1,100,0.607566
1574868766.868896,170132.500,29440,2,EA,1,100,0.607244
1574868766.933636,170187.000,29440,2,EA,1,100,0.607284
1574868767.000751,170243.500,29458,2,EA,1,100,0.607169
1574868767.067867,170300.000,29458,2,EA,1,100,0.607541
1574868767.137358,170358.500,29476,2,EA,1,100,0.607520
1574868767.206850,170417.000,29476,2,EA,1,100,0.607274
1574868767.274559,170474.000,29492,2,EA,1,100,0.607483
1574868767.342269,170531.000,29492,2,EA,1,100,0.607241
1574868767.404039,170583.000,29510,2,EA,1,100,0.607354
1574868767.465810,170635.000,29510,2,EA,1,100,0.607417
