EpochTimestamp,EmotiBitTimestamp,PacketNumber,DataLength,TypeTag,ProtocolVersion,DataReliability,EL
1574868621.083563,47406.000,7888,3,EL,1,100,0.283473
1574868621.083563,47406.000,7888,3,EL,1,100,0.282748
1574868621.083563,47406.000,7888,3,EL,1,100,0.286051
1574868621.147709,47460.000,7907,2,EL,1,100,0.286615
1574868621.211855,47514.000,7907,2,EL,1,100,0.282788
1574868621.277189,47569.000,7923,2,EL,1,100,0.285688
1574868621.342523,47624.000,7923,2,EL,1,100,0.286615
1574868621.410233,47681.000,7941,2,EL,1,100,0.285809
1574868621.477942,47738.000,7941,2,EL,1,100,0.288307
1574868621.546840,47796.000,7959,1,EL,1,100,0.286011
1574868621.614549,47853.000,7977,2,EL,1,100,0.289636
1574868621.682259,47910.000,7977,2,EL,1,100,0.286937
1574868621.746405,47964.000,7995,2,EL,1,100,0.289072
1574868621.810551,48018.000,7995,2,EL,1,100,0.288629
1574868621.874697,48072.000,8013,2,EL,1,100,0.289636
1574868621.938843,48126.000,8013,2,EL,1,100,0.289556
1574868622.007740,48184.000,8031,2,EL,1,100,0.290120
1574868622.076638,48242.000,8031,2,EL,1,100,0.292698
1574868622.144347,48299.000,8050,1,EL,1,100,0.290966
1574868622.213245,48357.000,8067,2,EL,1,100,0.292738
1574868622.282142,48415.000,8067,2,EL,1,100,0.289153
1574868622.347476,48470.000,8085,2,EL,1,100,0.292375
1574868622.412810,48525.000,8085,2,EL,1,100,0.290442
1574868622.476956,48579.000,8101,2,EL,1,100,0.291248
1574868622.541102,48633.000,8101,2,EL,1,100,0.293383
1574868622.607624,48689.000,8119,2,EL,1,100,0.292537
1574868622.674145,48745.000,8119,2,EL,1,100,0.293181
1574868622.743043,48803.000,8137,1,EL,1,100,0.292335
1574868622.811940,48861.000,8155,2,EL,1,100,0.295115
1574868622.880838,48919.000,8155,2,EL,1,100,0.291409
1574868622.946766,48974.500,8173,2,EL,1,100,0.293785
1574868623.012693,49030.000,8173,2,EL,1,100,0.292899
1574868623.076246,49083.500,8191,2,EL,1,100,0.292698
1574868623.139797,49137.000,8191,2,EL,1,100,0.294269
1574868623.205725,49192.500,8210,2,EL,1,100,0.293463
1574868623.271653,49248.000,8210,2,EL,1,100,0.296202
1574868623.339363,49305.000,8228,1,EL,1,100,0.293584
1574868623.408260,49363.000,8245,2,EL,1,100,0.296444
1574868623.477158,49421.000,8245,2,EL,1,100,0.294470
1574868623.544867,49478.000,8263,2,EL,1,100,0.297491
1574868623.612577,49535.000,8263,2,EL,1,100,0.294269
1574868623.676129,49588.500,8279,2,EL,1,100,0.295679
1574868623.739681,49642.000,8279,2,EL,1,100,0.296122
1574868623.803827,49696.000,8297,2,EL,1,100,0.294551
1574868623.867973,49750.000,8297,2,EL,1,100,0.296283
1574868623.934494,49806.000,8315,1,EL,1,100,0.294430
1574868624.003392,49864.000,8333,2,EL,1,100,0.296847
1574868624.072289,49922.000,8333,2,EL,1,100,0.295437
1574868624.141187,49980.000,8352,2,EL,1,100,0.297129
1574868624.210084,50038.000,8352,2,EL,1,100,0.295638
1574868624.273637,50091.500,8370,2,EL,1,100,0.296605
1574868624.337188,50145.000,8370,2,EL,1,100,0.296364
1574868624.401928,50199.500,8388,2,EL,1,100,0.295880
1574868624.466668,50254.000,8388,2,EL,1,100,0.297532
1574868624.533190,50310.000,8406,1,EL,1,100,0.296122
1574868624.602087,50368.000,8423,2,EL,1,100,0.297572
1574868624.670985,50426.000,8423,2,EL,1,100,0.295074
1574868624.738695,50483.000,8441,2,EL,1,100,0.297572
1574868624.806404,50540.000,8441,2,EL,1,100,0.295397
1574868624.871144,50594.500,8459,2,EL,1,100,0.296041
1574868624.935884,50649.000,8459,2,EL,1,100,0.296766
1574868624.998842,50702.000,8475,2,EL,1,100,0.296082
1574868625.061800,50755.000,8475,2,EL,1,100,0.297250
1574868625.130104,50812.500,8494,2,EL,1,100,0.296001
1574868625.198407,50870.000,8494,2,EL,1,100,0.297491
1574868625.267305,50928.000,8512,1,EL,1,100,0.295477
1574868625.335014,50985.000,8530,2,EL,1,100,0.297129
1574868625.402724,51042.000,8530,2,EL,1,100,0.296122
1574868625.469246,51098.000,8548,2,EL,1,100,0.296605
1574868625.535768,51154.000,8548,2,EL,1,100,0.296001
1574868625.599319,51207.500,8566,2,EL,1,100,0.296605
1574868625.662872,51261.000,8566,2,EL,1,100,0.298337
1574868625.729393,51317.000,8584,2,EL,1,100,0.296927
1574868625.795915,51373.000,8584,2,EL,1,100,0.298217
1574868625.869564,51435.000,8602,1,EL,1,100,0.297330
1574868625.936086,51491.000,8619,2,EL,1,100,0.301077
1574868626.002607,51547.000,8619,2,EL,1,100,0.297773
1574868626.070317,51604.000,8637,2,EL,1,100,0.298297
1574868626.138027,51661.000,8637,2,EL,1,100,0.298499
1574868626.201579,51714.500,8654,2,EL,1,100,0.298579
1574868626.265131,51768.000,8654,2,EL,1,100,0.299626
1574868626.328089,51821.000,8672,2,EL,1,100,0.299385
1574868626.391047,51874.000,8672,2,EL,1,100,0.302728
1574868626.463508,51935.000,8690,1,EL,1,100,0.300110
1574868626.529436,51990.500,8708,2,EL,1,100,0.303252
1574868626.595364,52046.000,8708,2,EL,1,100,0.300231
1574868626.664261,52104.000,8726,2,EL,1,100,0.302970
1574868626.733159,52162.000,8726,2,EL,1,100,0.300875
1574868626.795523,52214.500,8744,2,EL,1,100,0.301802
1574868626.857887,52267.000,8744,2,EL,1,100,0.301359
1574868626.922033,52321.000,8762,2,EL,1,100,0.300634
1574868626.986179,52375.000,8762,2,EL,1,100,0.300634
1574868627.054482,52432.500,8783,2,EL,1,100,0.299385
1574868627.122786,52490.000,8783,2,EL,1,100,0.301761
1574868627.192871,52549.000,8804,2,EL,1,100,0.300311
1574868627.262957,52608.000,8804,2,EL,1,100,0.295679
1574868627.328884,52663.500,8822,2,EL,1,100,0.298176
1574868627.394812,52719.000,8822,2,EL,1,100,0.294148
1574868627.458364,52772.500,8840,2,EL,1,100,0.295840
1574868627.521916,52826.000,8840,2,EL,1,100,0.292899
1574868627.589032,52882.500,8858,2,EL,1,100,0.293624
1574868627.656147,52939.000,8858,2,EL,1,100,0.292496
1574868627.722669,52995.000,8876,1,EL,1,100,0.290603
1574868627.792161,53053.500,8893,2,EL,1,100,0.291650
1574868627.861652,53112.000,8893,2,EL,1,100,0.288629
1574868627.928174,53168.000,8911,2,EL,1,100,0.291248
1574868627.994696,53224.000,8911,2,EL,1,100,0.286132
1574868628.058248,53277.500,8929,2,EL,1,100,0.287864
1574868628.121799,53331.000,8929,2,EL,1,100,0.286978
1574868628.187133,53386.000,8946,2,EL,1,100,0.287018
1574868628.252467,53441.000,8946,2,EL,1,100,0.286293
1574868628.320177,53498.000,8964,2,EL,1,100,0.283473
1574868628.387887,53555.000,8964,2,EL,1,100,0.286494
1574868628.456784,53613.000,8982,1,EL,1,100,0.282909
1574868628.525088,53670.500,9000,2,EL,1,100,0.284802
1574868628.593391,53728.000,9000,2,EL,1,100,0.281620
1574868628.656943,53781.500,9018,2,EL,1,100,0.285084
1574868628.720495,53835.000,9018,2,EL,1,100,0.282546
1574868628.787611,53891.500,9036,2,EL,1,100,0.279001
1574868628.854727,53948.000,9036,2,EL,1,100,0.281781
1574868628.921248,54004.000,9054,2,EL,1,100,0.281862
1574868628.987770,54060.000,9054,2,EL,1,100,0.283110
1574868629.060231,54121.000,9072,1,EL,1,100,0.280089
1574868629.126753,54177.000,9090,2,EL,1,100,0.283312
1574868629.193274,54233.000,9090,2,EL,1,100,0.279445
1574868629.256827,54286.500,9108,2,EL,1,100,0.281902
1574868629.320379,54340.000,9108,2,EL,1,100,0.280250
1574868629.386900,54396.000,9124,2,EL,1,100,0.279847
1574868629.453422,54452.000,9124,2,EL,1,100,0.280170
1574868629.519944,54508.000,9142,2,EL,1,100,0.279404
1574868629.586465,54564.000,9142,2,EL,1,100,0.281378
1574868629.658926,54625.000,9160,1,EL,1,100,0.277551
1574868629.725448,54681.000,9178,2,EL,1,100,0.280331
1574868629.791970,54737.000,9178,2,EL,1,100,0.278357
1574868629.857898,54792.500,9196,2,EL,1,100,0.280170
1574868629.923826,54848.000,9196,2,EL,1,100,0.277793
1574868629.987972,54902.000,9214,2,EL,1,100,0.277753
1574868630.052118,54956.000,9214,2,EL,1,100,0.278881
1574868630.117451,55011.000,9233,2,EL,1,100,0.276907
1574868630.182785,55066.000,9233,2,EL,1,100,0.278599
1574868630.256434,55128.000,9251,1,EL,1,100,0.275980
1574868630.322362,55183.500,9268,2,EL,1,100,0.279283
1574868630.388290,55239.000,9268,2,EL,1,100,0.275980
1574868630.455405,55295.500,9286,2,EL,1,100,0.277954
1574868630.522521,55352.000,9286,2,EL,1,100,0.276222
1574868630.586073,55405.500,9302,2,EL,1,100,0.277028
1574868630.649625,55459.000,9302,2,EL,1,100,0.277471
1574868630.716741,55515.500,9320,2,EL,1,100,0.276705
1574868630.783856,55572.000,9320,2,EL,1,100,0.277350
1574868630.853942,55631.000,9338,1,EL,1,100,0.275175
1574868630.922246,55688.500,9356,2,EL,1,100,0.277471
1574868630.990549,55746.000,9356,2,EL,1,100,0.274288
1574868631.057665,55802.500,9374,2,EL,1,100,0.277148
1574868631.124780,55859.000,9374,2,EL,1,100,0.275094
1574868631.188332,55912.500,9393,2,EL,1,100,0.275215
1574868631.251884,55966.000,9393,2,EL,1,100,0.276464
1574868631.316624,56020.500,9411,2,EL,1,100,0.274731
1574868631.381364,56075.000,9411,2,EL,1,100,0.276302
1574868631.451450,56134.000,9429,1,EL,1,100,0.273805
1574868631.518565,56190.500,9446,2,EL,1,100,0.276141
1574868631.585681,56247.000,9446,2,EL,1,100,0.273241
1574868631.654578,56305.000,9464,2,EL,1,100,0.274933
1574868631.723476,56363.000,9464,2,EL,1,100,0.272798
1574868631.785840,56415.500,9480,2,EL,1,100,0.273966
1574868631.848204,56468.000,9480,2,EL,1,100,0.274409
1574868631.912350,56522.000,9498,2,EL,1,100,0.273724
1574868631.976496,56576.000,9498,2,EL,1,100,0.274409
1574868632.044206,56633.000,9516,1,EL,1,100,0.273442
1574868632.111321,56689.500,9535,2,EL,1,100,0.275376
1574868632.178437,56746.000,9535,2,EL,1,100,0.273322
1574868632.247928,56804.500,9553,2,EL,1,100,0.276061
1574868632.317420,56863.000,9553,2,EL,1,100,0.273322
1574868632.380972,56916.500,9571,2,EL,1,100,0.275013
1574868632.444524,56970.000,9571,2,EL,1,100,0.273442
1574868632.508076,57023.500,9589,2,EL,1,100,0.274731
1574868632.571628,57077.000,9589,2,EL,1,100,0.274047
1574868632.644089,57138.000,9607,1,EL,1,100,0.272516
1574868632.711205,57194.500,9625,2,EL,1,100,0.274893
1574868632.778320,57251.000,9625,2,EL,1,100,0.272677
1574868632.847812,57309.500,9642,2,EL,1,100,0.274570
1574868632.917303,57368.000,9642,2,EL,1,100,0.272838
1574868632.980855,57421.500,9660,2,EL,1,100,0.273805
1574868633.044407,57475.000,9660,2,EL,1,100,0.271750
1574868633.109345,57529.667,9681,3,EL,1,100,0.273241
1574868633.174283,57584.333,9681,3,EL,1,100,0.273362
1574868633.239221,57639.000,9681,3,EL,1,100,0.274893
1574868633.305743,57695.000,9701,2,EL,1,100,0.274006
1574868633.372264,57751.000,9701,2,EL,1,100,0.271750
1574868633.444726,57812.000,9719,1,EL,1,100,0.272677
1574868633.511247,57868.000,9736,2,EL,1,100,0.274933
1574868633.577769,57924.000,9736,2,EL,1,100,0.271106
1574868633.641321,57977.500,9754,2,EL,1,100,0.273442
1574868633.704873,58031.000,9754,2,EL,1,100,0.271912
1574868633.771395,58087.000,9772,2,EL,1,100,0.274530
1574868633.837916,58143.000,9772,2,EL,1,100,0.273402
1574868633.905626,58200.000,9788,2,EL,1,100,0.272878
1574868633.973336,58257.000,9788,2,EL,1,100,0.274651
1574868634.042233,58315.000,9806,1,EL,1,100,0.272395
1574868634.110537,58372.500,9825,2,EL,1,100,0.274167
1574868634.178840,58430.000,9825,2,EL,1,100,0.272274
1574868634.242392,58483.500,9843,2,EL,1,100,0.274087
1574868634.305944,58537.000,9843,2,EL,1,100,0.272194
1574868634.371278,58592.000,9861,2,EL,1,100,0.273201
1574868634.436612,58647.000,9861,2,EL,1,100,0.272677
1574868634.504322,58704.000,9879,2,EL,1,100,0.271469
1574868634.572031,58761.000,9879,2,EL,1,100,0.273483
1574868634.640929,58819.000,9897,1,EL,1,100,0.271066
1574868634.709232,58876.500,9914,2,EL,1,100,0.273684
1574868634.777536,58934.000,9914,2,EL,1,100,0.271992
1574868634.843464,58989.500,9932,2,EL,1,100,0.273684
1574868634.909391,59045.000,9932,2,EL,1,100,0.272153
1574868634.972943,59098.500,9948,2,EL,1,100,0.272113
1574868635.036495,59152.000,9948,2,EL,1,100,0.272999
1574868635.103017,59208.000,9967,2,EL,1,100,0.272355
1574868635.169539,59264.000,9967,2,EL,1,100,0.273604
1574868635.239624,59323.000,9985,1,EL,1,100,0.270542
1574868635.307334,59380.000,10003,2,EL,1,100,0.272878
1574868635.375043,59437.000,10003,2,EL,1,100,0.271187
1574868635.442753,59494.000,10021,2,EL,1,100,0.272717
1574868635.510463,59551.000,10021,2,EL,1,100,0.271428
1574868635.574015,59604.500,10039,2,EL,1,100,0.272798
1574868635.637567,59658.000,10039,2,EL,1,100,0.271952
1574868635.704088,59714.000,10057,2,EL,1,100,0.271750
1574868635.770610,59770.000,10057,2,EL,1,100,0.272476
1574868635.844259,59832.000,10075,1,EL,1,100,0.271025
1574868635.910781,59888.000,10092,2,EL,1,100,0.274449
1574868635.977303,59944.000,10092,2,EL,1,100,0.269132
1574868636.045012,60001.000,10110,2,EL,1,100,0.271992
1574868636.112722,60058.000,10110,2,EL,1,100,0.271025
1574868636.176274,60111.500,10127,2,EL,1,100,0.270623
1574868636.239826,60165.000,10127,2,EL,1,100,0.271106
1574868636.305160,60220.000,10145,2,EL,1,100,0.269897
1574868636.370494,60275.000,10145,2,EL,1,100,0.271066
1574868636.440579,60334.000,10163,1,EL,1,100,0.268165
1574868636.507101,60390.000,10181,2,EL,1,100,0.271227
1574868636.573622,60446.000,10181,2,EL,1,100,0.268770
1574868636.641332,60503.000,10199,2,EL,1,100,0.271388
1574868636.709042,60560.000,10199,2,EL,1,100,0.268447
1574868636.771406,60612.500,10217,2,EL,1,100,0.269052
1574868636.833770,60665.000,10217,2,EL,1,100,0.268649
1574868636.899698,60720.500,10235,2,EL,1,100,0.268447
1574868636.965626,60776.000,10235,2,EL,1,100,0.267843
1574868637.035711,60835.000,10253,1,EL,1,100,0.266473
1574868637.103420,60892.000,10271,2,EL,1,100,0.268568
1574868637.171130,60949.000,10271,2,EL,1,100,0.265426
1574868637.240028,61007.000,10289,2,EL,1,100,0.267803
1574868637.308925,61065.000,10289,2,EL,1,100,0.265023
1574868637.373071,61119.000,10305,2,EL,1,100,0.266030
1574868637.437217,61173.000,10305,2,EL,1,100,0.267158
1574868637.501363,61227.000,10323,2,EL,1,100,0.265507
1574868637.565509,61281.000,10323,2,EL,1,100,0.266030
1574868637.633219,61338.000,10341,1,EL,1,100,0.263855
1574868637.701522,61395.500,10359,2,EL,1,100,0.266030
1574868637.769826,61453.000,10359,2,EL,1,100,0.263774
1574868637.838129,61510.500,10377,2,EL,1,100,0.265144
1574868637.906433,61568.000,10377,2,EL,1,100,0.262324
1574868637.971766,61623.000,10395,2,EL,1,100,0.263170
1574868638.037100,61678.000,10395,2,EL,1,100,0.264338
1574868638.100059,61731.000,10414,2,EL,1,100,0.263492
1574868638.163017,61784.000,10414,2,EL,1,100,0.264540
1574868638.230726,61841.000,10432,1,EL,1,100,0.262405
1574868638.297842,61897.500,10450,2,EL,1,100,0.265023
1574868638.364958,61954.000,10450,2,EL,1,100,0.261680
1574868638.434449,62012.500,10467,2,EL,1,100,0.263815
1574868638.503940,62071.000,10467,2,EL,1,100,0.261599
1574868638.569868,62126.500,10483,2,EL,1,100,0.262324
1574868638.635796,62182.000,10483,2,EL,1,100,0.260914
1574868638.698160,62234.500,10501,2,EL,1,100,0.259263
1574868638.760524,62287.000,10501,2,EL,1,100,0.262163
1574868638.831797,62347.000,10519,1,EL,1,100,0.260592
1574868638.898319,62403.000,10537,2,EL,1,100,0.262083
1574868638.964841,62459.000,10537,2,EL,1,100,0.259545
1574868639.034332,62517.500,10555,2,EL,1,100,0.262687
1574868639.103824,62576.000,10555,2,EL,1,100,0.259061
1574868639.169554,62631.333,10577,3,EL,1,100,0.260149
1574868639.235283,62686.667,10577,3,EL,1,100,0.259424
1574868639.301013,62742.000,10577,3,EL,1,100,0.261398
1574868639.366941,62797.500,10597,2,EL,1,100,0.260189
1574868639.432869,62853.000,10597,2,EL,1,100,0.257249
1574868639.498203,62908.000,10615,1,EL,1,100,0.257128
1574868639.567694,62966.500,10633,2,EL,1,100,0.259142
1574868639.637186,63025.000,10633,2,EL,1,100,0.257007
1574868639.704301,63081.500,10651,2,EL,1,100,0.259222
1574868639.771417,63138.000,10651,2,EL,1,100,0.255114
1574868639.836157,63192.500,10669,2,EL,1,100,0.258135
1574868639.900897,63247.000,10669,2,EL,1,100,0.257087
1574868639.965043,63301.000,10687,2,EL,1,100,0.255798
1574868640.029189,63355.000,10687,2,EL,1,100,0.257087
1574868640.095710,63411.000,10706,1,EL,1,100,0.254630
1574868640.165796,63470.000,10724,2,EL,1,100,0.255396
1574868640.235881,63529.000,10724,2,EL,1,100,0.254026
1574868640.302403,63585.000,10741,2,EL,1,100,0.256523
1574868640.368925,63641.000,10741,2,EL,1,100,0.253542
1574868640.434258,63696.000,10759,2,EL,1,100,0.254670
1574868640.499592,63751.000,10759,2,EL,1,100,0.253542
1574868640.563144,63804.500,10775,2,EL,1,100,0.253140
1574868640.626696,63858.000,10775,2,EL,1,100,0.253905
1574868640.693218,63914.000,10793,2,EL,1,100,0.252052
1574868640.759740,63970.000,10793,2,EL,1,100,0.253865
1574868640.829825,64029.000,10811,1,EL,1,100,0.251045
1574868640.898129,64086.500,10829,2,EL,1,100,0.253663
1574868640.966432,64144.000,10829,2,EL,1,100,0.251125
1574868641.034142,64201.000,10847,2,EL,1,100,0.253502
1574868641.101851,64258.000,10847,2,EL,1,100,0.249877
1574868641.165403,64311.500,10866,2,EL,1,100,0.250763
1574868641.228956,64365.000,10866,2,EL,1,100,0.251528
1574868641.294289,64420.000,10884,2,EL,1,100,0.249796
1574868641.359623,64475.000,10884,2,EL,1,100,0.250360
1574868641.429708,64534.000,10902,1,EL,1,100,0.248024
1574868641.496824,64590.500,10919,2,EL,1,100,0.251246
1574868641.563940,64647.000,10919,2,EL,1,100,0.249877
1574868641.633431,64705.500,10937,2,EL,1,100,0.250159
1574868641.702923,64764.000,10937,2,EL,1,100,0.247460
1574868641.765287,64816.500,10953,2,EL,1,100,0.248064
1574868641.827651,64869.000,10953,2,EL,1,100,0.249192
1574868641.891797,64923.000,10971,2,EL,1,100,0.247178
1574868641.955943,64977.000,10971,2,EL,1,100,0.248789
1574868642.024840,65035.000,10989,1,EL,1,100,0.245607
1574868642.091956,65091.500,11008,2,EL,1,100,0.248104
1574868642.159072,65148.000,11008,2,EL,1,100,0.244036
1574868642.229157,65207.000,11026,2,EL,1,100,0.248950
1574868642.299242,65266.000,11026,2,EL,1,100,0.245204
1574868642.363388,65320.000,11044,2,EL,1,100,0.245889
1574868642.427534,65374.000,11044,2,EL,1,100,0.247621
1574868642.489898,65426.500,11062,2,EL,1,100,0.244640
1574868642.552263,65479.000,11062,2,EL,1,100,0.247017
1574868642.623536,65539.000,11080,1,EL,1,100,0.244680
1574868642.690651,65595.500,11097,2,EL,1,100,0.247500
1574868642.757767,65652.000,11097,2,EL,1,100,0.244720
1574868642.827852,65711.000,11115,2,EL,1,100,0.246050
1574868642.897938,65770.000,11115,2,EL,1,100,0.244479
1574868642.963272,65825.000,11131,2,EL,1,100,0.244761
1574868643.028606,65880.000,11131,2,EL,1,100,0.246292
1574868643.091564,65933.000,11150,2,EL,1,100,0.243431
1574868643.154522,65986.000,11150,2,EL,1,100,0.246171
1574868643.224607,66045.000,11168,1,EL,1,100,0.243512
1574868643.291723,66101.500,11186,2,EL,1,100,0.246372
1574868643.358839,66158.000,11186,2,EL,1,100,0.242948
1574868643.427736,66216.000,11204,2,EL,1,100,0.245808
1574868643.496634,66274.000,11204,2,EL,1,100,0.242142
1574868643.561967,66329.000,11222,2,EL,1,100,0.242908
1574868643.627301,66384.000,11222,2,EL,1,100,0.244116
1574868643.689665,66436.500,11240,2,EL,1,100,0.242424
1574868643.752029,66489.000,11240,2,EL,1,100,0.244398
1574868643.822115,66548.000,11258,1,EL,1,100,0.243149
1574868643.890418,66605.500,11275,2,EL,1,100,0.245566
1574868643.958722,66663.000,11275,2,EL,1,100,0.242142
1574868644.025838,66719.500,11293,2,EL,1,100,0.244438
1574868644.092953,66776.000,11293,2,EL,1,100,0.242465
1574868644.161257,66833.500,11310,2,EL,1,100,0.243754
1574868644.229560,66891.000,11310,2,EL,1,100,0.243552
1574868644.292518,66944.000,11328,2,EL,1,100,0.240652
1574868644.355477,66997.000,11328,2,EL,1,100,0.242344
1574868644.423186,67054.000,11346,1,EL,1,100,0.241337
1574868644.492084,67112.000,11364,2,EL,1,100,0.243794
1574868644.560981,67170.000,11364,2,EL,1,100,0.242021
1574868644.625721,67224.500,11382,2,EL,1,100,0.244559
1574868644.690461,67279.000,11382,2,EL,1,100,0.241780
1574868644.760546,67338.000,11400,2,EL,1,100,0.242908
1574868644.830632,67397.000,11400,2,EL,1,100,0.241981
1574868644.895966,67452.000,11418,1,EL,1,100,0.241578
1574868644.966051,67511.000,11435,2,EL,1,100,0.243391
1574868645.036136,67570.000,11435,2,EL,1,100,0.240209
1574868645.099094,67623.000,11454,2,EL,1,100,0.243270
1574868645.162052,67676.000,11454,2,EL,1,100,0.240571
1574868645.227386,67731.000,11475,3,EL,1,100,0.242908
1574868645.292720,67786.000,11475,3,EL,1,100,0.240168
1574868645.358054,67841.000,11475,3,EL,1,100,0.243431
1574868645.426951,67899.000,11495,2,EL,1,100,0.243069
1574868645.495849,67957.000,11495,2,EL,1,100,0.240370
1574868645.562371,68013.000,11513,1,EL,1,100,0.240410
1574868645.630080,68070.000,11530,2,EL,1,100,0.243190
1574868645.697790,68127.000,11530,2,EL,1,100,0.239806
1574868645.761342,68180.500,11548,2,EL,1,100,0.242747
1574868645.824894,68234.000,11548,2,EL,1,100,0.238839
1574868645.890228,68289.000,11566,2,EL,1,100,0.242827
1574868645.955562,68344.000,11566,2,EL,1,100,0.239604
1574868646.025647,68403.000,11584,2,EL,1,100,0.240853
1574868646.095732,68462.000,11584,2,EL,1,100,0.241458
1574868646.162254,68518.000,11601,1,EL,1,100,0.240612
1574868646.231152,68576.000,11619,2,EL,1,100,0.243391
1574868646.300049,68634.000,11619,2,EL,1,100,0.241256
1574868646.363601,68687.500,11637,2,EL,1,100,0.243995
1574868646.427153,68741.000,11637,2,EL,1,100,0.240531
1574868646.490705,68794.500,11655,2,EL,1,100,0.243230
1574868646.554257,68848.000,11655,2,EL,1,100,0.238436
1574868646.624342,68907.000,11673,2,EL,1,100,0.243029
1574868646.694428,68966.000,11673,2,EL,1,100,0.240974
1574868646.762138,69023.000,11691,1,EL,1,100,0.240853
1574868646.830441,69080.500,11708,2,EL,1,100,0.242948
1574868646.898745,69138.000,11708,2,EL,1,100,0.241417
1574868646.961109,69190.500,11726,2,EL,1,100,0.243552
1574868647.023473,69243.000,11726,2,EL,1,100,0.240853
1574868647.088807,69298.000,11745,2,EL,1,100,0.243270
1574868647.154140,69353.000,11745,2,EL,1,100,0.241337
1574868647.221850,69410.000,11763,2,EL,1,100,0.243512
1574868647.289560,69467.000,11763,2,EL,1,100,0.242867
1574868647.359645,69526.000,11779,2,EL,1,100,0.240692
1574868647.429731,69585.000,11779,2,EL,1,100,0.243955
1574868647.496252,69641.000,11797,1,EL,1,100,0.241578
1574868647.560398,69695.000,11815,2,EL,1,100,0.243633
1574868647.624544,69749.000,11815,2,EL,1,100,0.240974
1574868647.690472,69804.500,11833,2,EL,1,100,0.243552
1574868647.756400,69860.000,11833,2,EL,1,100,0.241619
1574868647.819358,69913.000,11851,2,EL,1,100,0.244318
1574868647.882316,69966.000,11851,2,EL,1,100,0.241820
1574868647.948838,70022.000,11869,2,EL,1,100,0.242545
1574868648.015359,70078.000,11869,2,EL,1,100,0.242021
1574868648.081881,70134.000,11888,1,EL,1,100,0.242706
1574868648.151372,70192.500,11906,2,EL,1,100,0.243713
1574868648.220864,70251.000,11906,2,EL,1,100,0.241135
1574868648.288574,70308.000,11923,2,EL,1,100,0.244358
1574868648.356283,70365.000,11923,2,EL,1,100,0.241780
1574868648.419835,70418.500,11941,2,EL,1,100,0.242988
1574868648.483387,70472.000,11941,2,EL,1,100,0.242263
1574868648.549315,70527.500,11957,2,EL,1,100,0.243955
1574868648.615243,70583.000,11957,2,EL,1,100,0.243230
1574868648.682359,70639.500,11975,2,EL,1,100,0.241941
1574868648.749474,70696.000,11975,2,EL,1,100,0.245446
1574868648.818372,70754.000,11993,1,EL,1,100,0.242585
1574868648.887863,70812.500,12011,2,EL,1,100,0.245083
1574868648.957355,70871.000,12011,2,EL,1,100,0.241055
1574868649.020906,70924.500,12029,2,EL,1,100,0.245043
1574868649.084459,70978.000,12029,2,EL,1,100,0.244197
1574868649.149198,71032.500,12048,2,EL,1,100,0.244076
1574868649.213938,71087.000,12048,2,EL,1,100,0.244277
1574868649.280460,71143.000,12066,2,EL,1,100,0.243593
1574868649.346982,71199.000,12066,2,EL,1,100,0.245486
1574868649.415879,71257.000,12084,1,EL,1,100,0.242102
1574868649.484777,71315.000,12101,2,EL,1,100,0.246372
1574868649.553674,71373.000,12101,2,EL,1,100,0.243552
1574868649.618414,71427.500,12119,2,EL,1,100,0.245123
1574868649.683154,71482.000,12119,2,EL,1,100,0.243472
1574868649.748488,71537.000,12137,2,EL,1,100,0.244720
1574868649.813822,71592.000,12137,2,EL,1,100,0.243955
1574868649.879750,71647.500,12153,2,EL,1,100,0.243713
1574868649.945677,71703.000,12153,2,EL,1,100,0.246815
1574868650.019326,71765.000,12171,1,EL,1,100,0.244277
1574868650.086442,71821.500,12190,2,EL,1,100,0.246090
1574868650.153558,71878.000,12190,2,EL,1,100,0.243311
1574868650.220079,71934.000,12208,2,EL,1,100,0.246694
1574868650.286601,71990.000,12208,2,EL,1,100,0.244801
1574868650.350153,72043.500,12226,2,EL,1,100,0.244640
1574868650.413705,72097.000,12226,2,EL,1,100,0.245566
1574868650.480821,72153.500,12244,2,EL,1,100,0.245083
1574868650.547936,72210.000,12244,2,EL,1,100,0.246533
1574868650.620398,72271.000,12262,1,EL,1,100,0.244076
1574868650.686919,72327.000,12279,2,EL,1,100,0.247299
1574868650.753441,72383.000,12279,2,EL,1,100,0.244882
1574868650.819369,72438.500,12297,2,EL,1,100,0.246251
1574868650.885297,72494.000,12297,2,EL,1,100,0.245526
1574868650.947661,72546.500,12313,2,EL,1,100,0.245204
1574868651.010025,72599.000,12313,2,EL,1,100,0.246412
1574868651.077734,72656.000,12332,2,EL,1,100,0.245687
1574868651.145444,72713.000,12332,2,EL,1,100,0.246896
1574868651.209590,72767.000,12350,1,EL,1,100,0.245244
1574868651.277696,72824.333,12371,3,EL,1,100,0.247701
1574868651.345801,72881.667,12371,3,EL,1,100,0.243633
1574868651.413907,72939.000,12371,3,EL,1,100,0.248265
1574868651.482210,72996.500,12391,2,EL,1,100,0.247701
1574868651.550514,73054.000,12391,2,EL,1,100,0.244761
1574868651.618818,73111.500,12407,2,EL,1,100,0.246090
1574868651.687121,73169.000,12407,2,EL,1,100,0.247218
1574868651.750673,73222.500,12425,2,EL,1,100,0.245687
1574868651.814225,73276.000,12425,2,EL,1,100,0.247419
1574868651.877183,73329.000,12443,1,EL,1,100,0.245607
1574868651.945487,73386.500,12461,2,EL,1,100,0.247903
1574868652.013790,73444.000,12461,2,EL,1,100,0.246010
1574868652.082094,73501.500,12480,2,EL,1,100,0.247621
1574868652.150397,73559.000,12480,2,EL,1,100,0.246694
1574868652.219889,73617.500,12498,2,EL,1,100,0.248265
1574868652.289380,73676.000,12498,2,EL,1,100,0.246533
1574868652.351744,73728.500,12516,2,EL,1,100,0.245204
1574868652.414109,73781.000,12516,2,EL,1,100,0.247863
1574868652.477067,73834.000,12534,1,EL,1,100,0.246976
1574868652.542994,73889.500,12551,2,EL,1,100,0.249232
1574868652.608922,73945.000,12551,2,EL,1,100,0.245929
1574868652.676632,74002.000,12569,2,EL,1,100,0.249152
1574868652.744341,74059.000,12569,2,EL,1,100,0.246936
1574868652.813833,74117.500,12587,2,EL,1,100,0.248024
1574868652.883324,74176.000,12587,2,EL,1,100,0.247218
1574868652.946876,74229.500,12603,2,EL,1,100,0.247057
1574868653.010428,74283.000,12603,2,EL,1,100,0.249474
1574868653.073386,74336.000,12622,2,EL,1,100,0.246493
1574868653.136344,74389.000,12622,2,EL,1,100,0.249877
1574868653.207618,74449.000,12640,1,EL,1,100,0.246775
1574868653.274733,74505.500,12658,2,EL,1,100,0.249514
1574868653.341849,74562.000,12658,2,EL,1,100,0.246855
1574868653.411934,74621.000,12676,2,EL,1,100,0.249111
1574868653.482020,74680.000,12676,2,EL,1,100,0.246573
1574868653.548542,74736.000,12694,2,EL,1,100,0.247339
1574868653.615063,74792.000,12694,2,EL,1,100,0.250602
1574868653.676833,74844.000,12712,1,EL,1,100,0.248910
1574868653.743355,74900.000,12730,2,EL,1,100,0.250602
1574868653.809877,74956.000,12730,2,EL,1,100,0.247379
1574868653.876992,75012.500,12747,2,EL,1,100,0.250964
1574868653.944108,75069.000,12747,2,EL,1,100,0.247137
1574868654.013006,75127.000,12765,2,EL,1,100,0.248185
1574868654.081903,75185.000,12765,2,EL,1,100,0.249111
1574868654.147237,75240.000,12782,2,EL,1,100,0.248467
1574868654.212571,75295.000,12782,2,EL,1,100,0.250239
1574868654.274935,75347.500,12800,2,EL,1,100,0.247017
1574868654.337299,75400.000,12800,2,EL,1,100,0.250964
1574868654.406197,75458.000,12818,1,EL,1,100,0.249554
1574868654.473312,75514.500,12836,2,EL,1,100,0.250884
1574868654.540428,75571.000,12836,2,EL,1,100,0.248427
1574868654.608732,75628.500,12854,2,EL,1,100,0.250320
1574868654.677035,75686.000,12854,2,EL,1,100,0.248225
1574868654.744745,75743.000,12872,2,EL,1,100,0.249192
1574868654.812454,75800.000,12872,2,EL,1,100,0.251246
1574868654.874224,75852.000,12890,1,EL,1,100,0.247137
1574868654.941934,75909.000,12907,2,EL,1,100,0.251448
1574868655.009644,75966.000,12907,2,EL,1,100,0.248668
1574868655.072602,76019.000,12926,2,EL,1,100,0.251971
1574868655.135560,76072.000,12926,2,EL,1,100,0.250320
1574868655.200300,76126.500,12944,2,EL,1,100,0.251810
1574868655.265040,76181.000,12944,2,EL,1,100,0.249554
1574868655.335125,76240.000,12960,2,EL,1,100,0.251206
1574868655.405210,76299.000,12960,2,EL,1,100,0.250320
1574868655.470544,76354.000,12978,1,EL,1,100,0.249474
1574868655.541817,76414.000,12996,2,EL,1,100,0.253301
1574868655.613091,76474.000,12996,2,EL,1,100,0.249877
1574868655.675455,76526.500,13014,2,EL,1,100,0.252294
1574868655.737819,76579.000,13014,2,EL,1,100,0.250521
1574868655.803747,76634.500,13032,2,EL,1,100,0.253140
1574868655.869675,76690.000,13032,2,EL,1,100,0.250199
1574868655.937384,76747.000,13050,2,EL,1,100,0.251327
1574868656.005094,76804.000,13050,2,EL,1,100,0.251528
1574868656.073991,76862.000,13069,1,EL,1,100,0.250521
1574868656.143483,76920.500,13087,2,EL,1,100,0.252777
1574868656.212974,76979.000,13087,2,EL,1,100,0.249796
1574868656.275338,77031.500,13104,2,EL,1,100,0.253502
1574868656.337703,77084.000,13104,2,EL,1,100,0.251891
1574868656.402442,77138.500,13122,2,EL,1,100,0.252938
1574868656.467182,77193.000,13122,2,EL,1,100,0.249393
1574868656.534298,77249.500,13140,2,EL,1,100,0.252012
1574868656.601413,77306.000,13140,2,EL,1,100,0.250239
1574868656.668529,77362.500,13156,2,EL,1,100,0.250723
1574868656.735645,77419.000,13156,2,EL,1,100,0.253744
1574868656.809294,77481.000,13174,1,EL,1,100,0.249152
1574868656.872252,77534.000,13192,2,EL,1,100,0.253381
1574868656.935210,77587.000,13192,2,EL,1,100,0.249514
1574868656.999950,77641.500,13210,2,EL,1,100,0.253623
1574868657.064690,77696.000,13210,2,EL,1,100,0.249434
1574868657.132993,77753.500,13229,2,EL,1,100,0.252415
1574868657.201297,77811.000,13229,2,EL,1,100,0.251287
1574868657.268413,77867.500,13247,2,EL,1,100,0.251206
1574868657.335528,77924.000,13247,2,EL,1,100,0.252817
1574868657.405020,77982.500,13268,2,EL,1,100,0.250199
1574868657.474511,78041.000,13268,2,EL,1,100,0.253301
1574868657.536875,78093.500,13288,2,EL,1,100,0.252898
1574868657.599239,78146.000,13288,2,EL,1,100,0.248749
1574868657.663385,78200.000,13306,2,EL,1,100,0.252213
1574868657.727531,78254.000,13306,2,EL,1,100,0.249877
1574868657.795835,78311.500,13324,2,EL,1,100,0.251569
1574868657.864138,78369.000,13324,2,EL,1,100,0.249877
1574868657.933630,78427.500,13342,2,EL,1,100,0.249635
1574868658.003121,78486.000,13342,2,EL,1,100,0.250763
1574868658.068455,78541.000,13361,1,EL,1,100,0.249393
1574868658.132007,78594.500,13378,2,EL,1,100,0.252415
1574868658.195559,78648.000,13378,2,EL,1,100,0.246251
1574868658.259705,78702.000,13396,2,EL,1,100,0.252656
1574868658.323851,78756.000,13396,2,EL,1,100,0.250078
1574868658.392155,78813.500,13414,2,EL,1,100,0.252133
1574868658.460458,78871.000,13414,2,EL,1,100,0.250078
1574868658.531137,78930.500,13430,2,EL,1,100,0.249877
1574868658.601817,78990.000,13430,2,EL,1,100,0.251085
1574868658.668339,79046.000,13448,1,EL,1,100,0.248709
1574868658.737830,79104.500,13466,2,EL,1,100,0.251488
1574868658.807322,79163.000,13466,2,EL,1,100,0.248185
1574868658.876219,79221.000,13484,2,EL,1,100,0.251125
1574868658.945117,79279.000,13484,2,EL,1,100,0.248870
1574868659.008075,79332.000,13502,2,EL,1,100,0.249232
1574868659.071033,79385.000,13502,2,EL,1,100,0.249474
1574868659.136366,79440.000,13521,2,EL,1,100,0.248145
1574868659.201700,79495.000,13521,2,EL,1,100,0.250521
1574868659.267034,79550.000,13539,1,EL,1,100,0.248225
1574868659.336526,79608.500,13556,2,EL,1,100,0.251005
1574868659.406017,79667.000,13556,2,EL,1,100,0.248507
1574868659.474915,79725.000,13574,2,EL,1,100,0.250360
1574868659.543812,79783.000,13574,2,EL,1,100,0.248467
1574868659.607958,79837.000,13590,2,EL,1,100,0.247701
1574868659.672104,79891.000,13590,2,EL,1,100,0.250481
1574868659.736844,79945.500,13608,2,EL,1,100,0.248265
1574868659.801584,80000.000,13608,2,EL,1,100,0.251005
1574868659.868105,80056.000,13626,1,EL,1,100,0.248185
1574868659.935815,80113.000,13644,2,EL,1,100,0.250360
1574868660.003525,80170.000,13644,2,EL,1,100,0.248225
1574868660.071828,80227.500,13663,2,EL,1,100,0.250199
1574868660.140132,80285.000,13663,2,EL,1,100,0.247701
1574868660.206060,80340.500,13681,2,EL,1,100,0.248225
1574868660.271987,80396.000,13681,2,EL,1,100,0.248990
1574868660.336727,80450.500,13699,2,EL,1,100,0.247258
1574868660.401467,80505.000,13699,2,EL,1,100,0.250320
1574868660.466801,80560.000,13717,1,EL,1,100,0.247822
1574868660.536886,80619.000,13734,2,EL,1,100,0.250481
1574868660.606972,80678.000,13734,2,EL,1,100,0.248588
1574868660.674088,80734.500,13752,2,EL,1,100,0.251206
1574868660.741203,80791.000,13752,2,EL,1,100,0.247782
1574868660.807725,80847.000,13768,2,EL,1,100,0.248789
1574868660.874247,80903.000,13768,2,EL,1,100,0.250682
1574868660.937799,80956.500,13786,2,EL,1,100,0.246896
1574868661.001351,81010.000,13786,2,EL,1,100,0.249756
1574868661.065496,81064.000,13805,1,EL,1,100,0.247500
1574868661.134988,81122.500,13823,2,EL,1,100,0.249998
1574868661.204479,81181.000,13823,2,EL,1,100,0.248588
1574868661.271595,81237.500,13841,2,EL,1,100,0.249474
1574868661.338711,81294.000,13841,2,EL,1,100,0.246412
1574868661.405232,81350.000,13859,2,EL,1,100,0.248789
1574868661.471754,81406.000,13859,2,EL,1,100,0.249635
1574868661.534118,81458.500,13877,2,EL,1,100,0.248709
1574868661.596483,81511.000,13877,2,EL,1,100,0.250642
1574868661.660628,81565.000,13895,1,EL,1,100,0.247742
1574868661.730714,81624.000,13912,2,EL,1,100,0.250199
1574868661.800799,81683.000,13912,2,EL,1,100,0.247500
1574868661.867321,81739.000,13930,2,EL,1,100,0.250602
1574868661.933843,81795.000,13930,2,EL,1,100,0.248024
1574868662.001552,81852.000,13946,2,EL,1,100,0.249353
1574868662.069262,81909.000,13946,2,EL,1,100,0.249716
1574868662.136971,81966.000,13965,1,EL,1,100,0.246936
1574868662.205275,82023.500,13983,2,EL,1,100,0.250360
1574868662.273579,82081.000,13983,2,EL,1,100,0.248265
1574868662.337131,82134.500,14001,2,EL,1,100,0.250320
1574868662.400683,82188.000,14001,2,EL,1,100,0.247621
1574868662.466017,82243.000,14019,2,EL,1,100,0.249434
1574868662.531350,82298.000,14019,2,EL,1,100,0.246896
1574868662.597872,82354.000,14037,2,EL,1,100,0.249353
1574868662.664394,82410.000,14037,2,EL,1,100,0.248104
1574868662.735073,82469.500,14055,2,EL,1,100,0.247460
1574868662.805753,82529.000,14055,2,EL,1,100,0.249957
1574868662.874650,82587.000,14073,1,EL,1,100,0.246372
1574868662.938796,82641.000,14090,2,EL,1,100,0.250118
1574868663.002942,82695.000,14090,2,EL,1,100,0.247701
1574868663.067088,82749.000,14109,2,EL,1,100,0.250642
1574868663.131234,82803.000,14109,2,EL,1,100,0.247903
1574868663.199537,82860.500,14127,2,EL,1,100,0.248749
1574868663.267841,82918.000,14127,2,EL,1,100,0.248104
1574868663.335551,82975.000,14143,2,EL,1,100,0.246855
1574868663.403260,83032.000,14143,2,EL,1,100,0.248990
1574868663.471564,83089.500,14164,2,EL,1,100,0.246735
1574868663.539867,83147.000,14164,2,EL,1,100,0.250360
1574868663.602825,83200.000,14182,2,EL,1,100,0.250441
1574868663.665783,83253.000,14182,2,EL,1,100,0.247178
1574868663.730523,83307.500,14202,2,EL,1,100,0.249836
1574868663.795263,83362.000,14202,2,EL,1,100,0.247339
1574868663.862973,83419.000,14220,2,EL,1,100,0.250642
1574868663.930682,83476.000,14220,2,EL,1,100,0.247782
1574868663.999580,83534.000,14236,2,EL,1,100,0.247863
1574868664.068477,83592.000,14236,2,EL,1,100,0.250320
1574868664.137375,83650.000,14255,1,EL,1,100,0.247863
1574868664.200333,83703.000,14273,2,EL,1,100,0.250159
1574868664.263291,83756.000,14273,2,EL,1,100,0.248346
1574868664.329219,83811.500,14291,2,EL,1,100,0.249917
1574868664.395147,83867.000,14291,2,EL,1,100,0.247621
1574868664.462262,83923.500,14309,2,EL,1,100,0.250441
1574868664.529378,83980.000,14309,2,EL,1,100,0.248386
1574868664.598275,84038.000,14327,2,EL,1,100,0.249272
1574868664.667173,84096.000,14327,2,EL,1,100,0.250038
1574868664.737258,84155.000,14345,1,EL,1,100,0.247258
1574868664.801404,84209.000,14362,2,EL,1,100,0.251448
1574868664.865550,84263.000,14362,2,EL,1,100,0.248145
1574868664.930290,84317.500,14380,2,EL,1,100,0.249998
1574868664.995030,84372.000,14380,2,EL,1,100,0.247299
1574868665.062146,84428.500,14399,2,EL,1,100,0.250441
1574868665.129261,84485.000,14399,2,EL,1,100,0.248709
1574868665.198159,84543.000,14415,2,EL,1,100,0.248628
1574868665.267056,84601.000,14415,2,EL,1,100,0.250441
1574868665.334766,84658.000,14433,1,EL,1,100,0.248668
1574868665.398912,84712.000,14451,2,EL,1,100,0.251891
1574868665.463058,84766.000,14451,2,EL,1,100,0.248427
1574868665.526610,84819.500,14469,2,EL,1,100,0.251287
1574868665.590162,84873.000,14469,2,EL,1,100,0.247097
1574868665.657871,84930.000,14487,2,EL,1,100,0.250481
1574868665.725581,84987.000,14487,2,EL,1,100,0.248306
1574868665.790915,85042.000,14505,2,EL,1,100,0.249756
1574868665.856249,85097.000,14505,2,EL,1,100,0.248829
1574868665.926334,85156.000,14523,1,EL,1,100,0.248789
1574868665.994044,85213.000,14541,2,EL,1,100,0.251005
1574868666.061753,85270.000,14541,2,EL,1,100,0.249514
1574868666.133621,85330.500,14559,2,EL,1,100,0.251327
1574868666.205488,85391.000,14559,2,EL,1,100,0.248749
1574868666.267852,85443.500,14577,2,EL,1,100,0.250078
1574868666.330216,85496.000,14577,2,EL,1,100,0.249071
1574868666.394362,85550.000,14593,2,EL,1,100,0.248306
1574868666.458508,85604.000,14593,2,EL,1,100,0.250481
1574868666.527406,85662.000,14611,1,EL,1,100,0.249393
1574868666.595115,85719.000,14629,2,EL,1,100,0.251206
1574868666.662825,85776.000,14629,2,EL,1,100,0.248427
1574868666.734098,85836.000,14647,2,EL,1,100,0.252173
1574868666.805371,85896.000,14647,2,EL,1,100,0.248829
1574868666.873675,85953.500,14665,2,EL,1,100,0.250078
1574868666.941978,86011.000,14665,2,EL,1,100,0.249716
1574868667.013252,86071.000,14683,1,EL,1,100,0.249111
1574868667.077398,86125.000,14701,2,EL,1,100,0.251528
1574868667.141543,86179.000,14701,2,EL,1,100,0.248225
1574868667.205689,86233.000,14719,2,EL,1,100,0.251971
1574868667.269835,86287.000,14719,2,EL,1,100,0.248990
1574868667.336951,86343.500,14737,2,EL,1,100,0.251488
1574868667.404067,86400.000,14737,2,EL,1,100,0.248547
1574868667.471182,86456.500,14755,2,EL,1,100,0.250843
1574868667.538298,86513.000,14755,2,EL,1,100,0.251005
1574868667.609571,86573.000,14771,1,EL,1,100,0.248427
1574868667.674905,86628.000,14789,2,EL,1,100,0.252294
1574868667.740239,86683.000,14789,2,EL,1,100,0.249554
1574868667.803791,86736.500,14807,2,EL,1,100,0.252495
1574868667.867343,86790.000,14807,2,EL,1,100,0.249272
1574868667.934459,86846.500,14825,2,EL,1,100,0.253019
1574868668.001574,86903.000,14825,2,EL,1,100,0.249111
1574868668.068690,86959.500,14844,2,EL,1,100,0.251407
1574868668.135806,87016.000,14844,2,EL,1,100,0.250320
1574868668.208267,87077.000,14862,1,EL,1,100,0.243593
1574868668.273601,87132.000,14880,2,EL,1,100,0.251005
1574868668.338935,87187.000,14880,2,EL,1,100,0.250360
1574868668.403080,87241.000,14897,2,EL,1,100,0.252656
1574868668.467227,87295.000,14897,2,EL,1,100,0.250280
1574868668.534342,87351.500,14915,2,EL,1,100,0.252415
1574868668.601458,87408.000,14915,2,EL,1,100,0.248547
1574868668.669168,87465.000,14933,2,EL,1,100,0.252938
1574868668.736877,87522.000,14933,2,EL,1,100,0.250843
1574868668.808150,87582.000,14949,1,EL,1,100,0.250360
1574868668.874078,87637.500,14967,2,EL,1,100,0.252777
1574868668.940006,87693.000,14967,2,EL,1,100,0.249595
1574868669.002964,87746.000,14986,2,EL,1,100,0.252415
1574868669.065922,87799.000,14986,2,EL,1,100,0.250481
1574868669.132444,87855.000,15004,2,EL,1,100,0.253663
1574868669.198966,87911.000,15004,2,EL,1,100,0.249635
1574868669.266081,87967.500,15022,2,EL,1,100,0.252374
1574868669.333197,88024.000,15022,2,EL,1,100,0.250159
1574868669.402094,88082.000,15040,2,EL,1,100,0.251367
1574868669.470992,88140.000,15040,2,EL,1,100,0.252334
1574868669.535534,88194.333,15061,3,EL,1,100,0.250038
1574868669.600076,88248.667,15061,3,EL,1,100,0.253422
1574868669.664618,88303.000,15061,3,EL,1,100,0.253422
1574868669.729951,88358.000,15079,1,EL,1,100,0.248628
1574868669.797067,88414.500,15099,2,EL,1,100,0.252697
1574868669.864183,88471.000,15099,2,EL,1,100,0.248789
1574868669.933080,88529.000,15117,2,EL,1,100,0.252656
1574868670.001978,88587.000,15117,2,EL,1,100,0.250964
1574868670.069093,88643.500,15136,2,EL,1,100,0.251689
1574868670.136209,88700.000,15136,2,EL,1,100,0.252576
1574868670.205106,88758.000,15154,1,EL,1,100,0.251206
1574868670.273410,88815.500,15171,2,EL,1,100,0.253986
1574868670.341714,88873.000,15171,2,EL,1,100,0.250521
1574868670.406454,88927.500,15189,2,EL,1,100,0.253381
1574868670.471194,88982.000,15189,2,EL,1,100,0.251085
1574868670.535933,89036.500,15207,2,EL,1,100,0.252374
1574868670.600673,89091.000,15207,2,EL,1,100,0.250682
1574868670.667789,89147.500,15223,2,EL,1,100,0.251448
1574868670.734905,89204.000,15223,2,EL,1,100,0.252979
1574868670.804990,89263.000,15241,1,EL,1,100,0.250239
1574868670.872106,89319.500,15259,2,EL,1,100,0.254348
1574868670.939221,89376.000,15259,2,EL,1,100,0.251609
1574868671.006337,89432.500,15277,2,EL,1,100,0.253623
1574868671.073453,89489.000,15277,2,EL,1,100,0.250400
1574868671.136411,89542.000,15296,2,EL,1,100,0.253623
1574868671.199369,89595.000,15296,2,EL,1,100,0.251327
1574868671.265296,89650.500,15314,2,EL,1,100,0.251931
1574868671.331224,89706.000,15314,2,EL,1,100,0.253220
1574868671.401310,89765.000,15332,1,EL,1,100,0.251367
1574868671.468425,89821.500,15349,2,EL,1,100,0.253381
1574868671.535541,89878.000,15349,2,EL,1,100,0.251045
1574868671.603845,89935.500,15367,2,EL,1,100,0.253583
1574868671.672148,89993.000,15367,2,EL,1,100,0.251206
1574868671.735700,90046.500,15385,2,EL,1,100,0.253260
1574868671.799252,90100.000,15385,2,EL,1,100,0.251931
1574868671.863398,90154.000,15401,2,EL,1,100,0.252616
1574868671.927544,90208.000,15401,2,EL,1,100,0.252092
1574868672.001193,90270.000,15419,1,EL,1,100,0.252133
1574868672.067715,90326.000,15438,2,EL,1,100,0.254912
1574868672.134237,90382.000,15438,2,EL,1,100,0.251810
1574868672.203728,90440.500,15456,2,EL,1,100,0.254227
1574868672.273220,90499.000,15456,2,EL,1,100,0.251407
1574868672.336771,90552.500,15474,2,EL,1,100,0.253381
1574868672.400323,90606.000,15474,2,EL,1,100,0.253059
1574868672.465657,90661.000,15492,2,EL,1,100,0.251971
1574868672.530991,90716.000,15492,2,EL,1,100,0.253945
1574868672.602264,90776.000,15510,1,EL,1,100,0.252979
1574868672.668786,90832.000,15527,2,EL,1,100,0.254670
1574868672.735308,90888.000,15527,2,EL,1,100,0.251891
1574868672.804205,90946.000,15545,2,EL,1,100,0.255154
1574868672.873103,91004.000,15545,2,EL,1,100,0.251569
1574868672.934873,91056.000,15562,2,EL,1,100,0.253180
1574868672.996643,91108.000,15562,2,EL,1,100,0.253422
1574868673.061383,91162.500,15580,2,EL,1,100,0.253502
1574868673.126123,91217.000,15580,2,EL,1,100,0.253260
1574868673.196208,91276.000,15598,1,EL,1,100,0.252415
1574868673.265106,91334.000,15616,2,EL,1,100,0.255033
1574868673.334003,91392.000,15616,2,EL,1,100,0.252133
1574868673.402307,91449.500,15634,2,EL,1,100,0.255114
1574868673.470611,91507.000,15634,2,EL,1,100,0.252656
1574868673.540102,91565.500,15652,2,EL,1,100,0.254429
1574868673.609593,91624.000,15652,2,EL,1,100,0.253623
1574868673.677303,91681.000,15670,1,EL,1,100,0.251851
1574868673.742637,91736.000,15688,2,EL,1,100,0.254912
1574868673.807971,91791.000,15688,2,EL,1,100,0.251367
1574868673.871523,91844.500,15705,2,EL,1,100,0.254832
1574868673.935075,91898.000,15705,2,EL,1,100,0.251367
1574868674.001596,91954.000,15723,2,EL,1,100,0.255959
1574868674.068118,92010.000,15723,2,EL,1,100,0.250803
1574868674.137610,92068.500,15740,2,EL,1,100,0.253945
1574868674.207101,92127.000,15740,2,EL,1,100,0.253905
1574868674.274811,92184.000,15758,1,EL,1,100,0.253784
1574868674.341926,92240.500,15776,2,EL,1,100,0.255114
1574868674.409042,92297.000,15776,2,EL,1,100,0.251971
1574868674.471406,92349.500,15794,2,EL,1,100,0.255114
1574868674.533770,92402.000,15794,2,EL,1,100,0.253019
1574868674.601480,92459.000,15812,2,EL,1,100,0.255114
1574868674.669189,92516.000,15812,2,EL,1,100,0.251448
1574868674.736899,92573.000,15830,2,EL,1,100,0.254429
1574868674.804609,92630.000,15830,2,EL,1,100,0.253220
1574868674.874694,92689.000,15848,1,EL,1,100,0.252656
1574868674.941216,92745.000,15866,2,EL,1,100,0.254711
1574868675.007738,92801.000,15866,2,EL,1,100,0.252415
1574868675.070696,92854.000,15884,2,EL,1,100,0.254993
1574868675.133654,92907.000,15884,2,EL,1,100,0.251045
1574868675.200769,92963.500,15902,2,EL,1,100,0.255033
1574868675.267885,93020.000,15902,2,EL,1,100,0.252737
1574868675.337377,93078.500,15920,2,EL,1,100,0.254187
1574868675.406868,93137.000,15920,2,EL,1,100,0.252858
1574868675.473984,93193.500,15936,2,EL,1,100,0.251851
1574868675.541099,93250.000,15936,2,EL,1,100,0.254791
1574868675.605641,93304.333,15957,3,EL,1,100,0.251005
1574868675.670183,93358.667,15957,3,EL,1,100,0.255476
1574868675.734725,93413.000,15957,3,EL,1,100,0.255154
1574868675.802435,93470.000,15975,1,EL,1,100,0.252253
1574868675.867769,93525.000,15994,2,EL,1,100,0.253502
1574868675.933102,93580.000,15994,2,EL,1,100,0.251448
1574868676.003188,93639.000,16012,2,EL,1,100,0.253986
1574868676.073273,93698.000,16012,2,EL,1,100,0.251730
1574868676.140983,93755.000,16029,1,EL,1,100,0.250360
1574868676.206316,93810.000,16047,2,EL,1,100,0.253865
1574868676.271650,93865.000,16047,2,EL,1,100,0.249716
1574868676.334609,93918.000,16065,2,EL,1,100,0.254106
1574868676.397567,93971.000,16065,2,EL,1,100,0.251166
1574868676.464682,94027.500,16083,2,EL,1,100,0.254711
1574868676.531798,94084.000,16083,2,EL,1,100,0.252173
1574868676.600695,94142.000,16101,2,EL,1,100,0.253220
1574868676.669593,94200.000,16101,2,EL,1,100,0.251649
1574868676.739084,94258.500,16119,2,EL,1,100,0.251609
1574868676.808576,94317.000,16119,2,EL,1,100,0.254227
1574868676.871534,94370.000,16137,1,EL,1,100,0.251569
1574868676.941025,94428.500,16154,2,EL,1,100,0.253704
1574868677.010517,94487.000,16154,2,EL,1,100,0.251407
1574868677.072881,94539.500,16173,2,EL,1,100,0.253744
1574868677.135245,94592.000,16173,2,EL,1,100,0.251649
1574868677.199391,94646.000,16191,2,EL,1,100,0.253744
1574868677.263537,94700.000,16191,2,EL,1,100,0.252133
1574868677.332434,94758.000,16207,2,EL,1,100,0.251730
1574868677.401332,94816.000,16207,2,EL,1,100,0.254026
1574868677.466666,94871.000,16225,1,EL,1,100,0.251246
1574868677.537939,94931.000,16243,2,EL,1,100,0.253824
1574868677.609212,94991.000,16243,2,EL,1,100,0.251448
1574868677.674546,95046.000,16261,2,EL,1,100,0.254268
1574868677.739880,95101.000,16261,2,EL,1,100,0.251448
1574868677.803432,95154.500,16279,2,EL,1,100,0.251649
1574868677.866984,95208.000,16279,2,EL,1,100,0.251689
1574868677.934694,95265.000,16297,2,EL,1,100,0.252253
1574868678.002403,95322.000,16297,2,EL,1,100,0.253542
1574868678.070113,95379.000,16316,1,EL,1,100,0.251206
1574868678.138416,95436.500,16333,2,EL,1,100,0.253663
1574868678.206720,95494.000,16333,2,EL,1,100,0.251166
1574868678.272648,95549.500,16351,2,EL,1,100,0.253099
1574868678.338575,95605.000,16351,2,EL,1,100,0.249595
1574868678.402128,95658.500,16369,2,EL,1,100,0.253542
1574868678.465679,95712.000,16369,2,EL,1,100,0.251931
1574868678.531013,95767.000,16385,2,EL,1,100,0.251851
1574868678.596347,95822.000,16385,2,EL,1,100,0.253099
1574868678.665245,95880.000,16403,1,EL,1,100,0.251770
1574868678.734736,95938.500,16421,2,EL,1,100,0.253784
1574868678.804228,95997.000,16421,2,EL,1,100,0.250682
1574868678.870749,96053.000,16439,2,EL,1,100,0.254308
1574868678.937271,96109.000,16439,2,EL,1,100,0.250682
1574868679.000823,96162.500,16457,2,EL,1,100,0.252858
1574868679.064375,96216.000,16457,2,EL,1,100,0.251649
1574868679.130897,96272.000,16476,2,EL,1,100,0.252253
1574868679.197418,96328.000,16476,2,EL,1,100,0.252495
1574868679.263940,96384.000,16494,1,EL,1,100,0.250843
1574868679.333432,96442.500,16512,2,EL,1,100,0.253301
1574868679.402923,96501.000,16512,2,EL,1,100,0.250763
1574868679.470633,96558.000,16529,2,EL,1,100,0.252697
1574868679.538342,96615.000,16529,2,EL,1,100,0.251085
1574868679.601300,96668.000,16547,2,EL,1,100,0.253220
1574868679.664258,96721.000,16547,2,EL,1,100,0.250602
1574868679.730780,96777.000,16563,2,EL,1,100,0.250763
1574868679.797302,96833.000,16563,2,EL,1,100,0.252012
1574868679.863824,96889.000,16581,1,EL,1,100,0.251287
1574868679.933315,96947.500,16599,2,EL,1,100,0.251770
1574868680.002806,97006.000,16599,2,EL,1,100,0.249716
1574868680.069328,97062.000,16618,2,EL,1,100,0.253341
1574868680.135850,97118.000,16618,2,EL,1,100,0.249595
1574868680.199402,97171.500,16636,2,EL,1,100,0.251891
1574868680.262954,97225.000,16636,2,EL,1,100,0.250964
1574868680.327694,97279.500,16654,2,EL,1,100,0.251367
1574868680.392434,97334.000,16654,2,EL,1,100,0.250441
1574868680.458956,97390.000,16672,1,EL,1,100,0.249957
1574868680.526665,97447.000,16690,2,EL,1,100,0.251367
1574868680.594375,97504.000,16690,2,EL,1,100,0.249635
1574868680.662678,97561.500,16707,2,EL,1,100,0.252697
1574868680.730982,97619.000,16707,2,EL,1,100,0.250038
1574868680.798692,97676.000,16725,2,EL,1,100,0.252092
1574868680.866401,97733.000,16725,2,EL,1,100,0.249474
1574868680.937080,97792.500,16741,2,EL,1,100,0.249232
1574868681.007760,97852.000,16741,2,EL,1,100,0.253019
1574868681.069530,97904.000,16760,1,EL,1,100,0.248870
1574868681.133676,97958.000,16778,2,EL,1,100,0.252173
1574868681.197822,98012.000,16778,2,EL,1,100,0.250199
1574868681.264344,98068.000,16796,2,EL,1,100,0.252616
1574868681.330865,98124.000,16796,2,EL,1,100,0.249716
1574868681.398575,98181.000,16814,2,EL,1,100,0.252294
1574868681.466285,98238.000,16814,2,EL,1,100,0.249635
1574868681.537558,98298.000,16832,1,EL,1,100,0.249152
1574868681.602595,98352.750,16853,4,EL,1,100,0.251125
1574868681.667631,98407.500,16853,4,EL,1,100,0.247903
1574868681.732668,98462.250,16853,4,EL,1,100,0.253059
1574868681.797705,98517.000,16853,4,EL,1,100,0.253260
1574868681.864227,98573.000,16873,1,EL,1,100,0.250682
1574868681.931937,98630.000,16891,2,EL,1,100,0.251166
1574868681.999646,98687.000,16891,2,EL,1,100,0.249675
1574868682.066762,98743.500,16910,2,EL,1,100,0.252092
1574868682.133878,98800.000,16910,2,EL,1,100,0.249917
1574868682.202775,98858.000,16928,2,EL,1,100,0.249877
1574868682.271672,98916.000,16928,2,EL,1,100,0.251367
1574868682.334037,98968.500,16946,2,EL,1,100,0.249998
1574868682.396401,99021.000,16946,2,EL,1,100,0.252173
1574868682.462923,99077.000,16964,1,EL,1,100,0.248588
1574868682.531820,99135.000,16981,2,EL,1,100,0.252334
1574868682.600718,99193.000,16981,2,EL,1,100,0.248789
1574868682.667833,99249.500,16999,2,EL,1,100,0.251971
1574868682.734949,99306.000,16999,2,EL,1,100,0.250682
1574868682.804440,99364.500,17015,2,EL,1,100,0.250078
1574868682.873932,99423.000,17015,2,EL,1,100,0.251971
1574868682.935702,99475.000,17033,1,EL,1,100,0.249595
1574868682.999254,99528.500,17052,2,EL,1,100,0.251931
1574868683.062806,99582.000,17052,2,EL,1,100,0.249071
1574868683.131703,99640.000,17070,2,EL,1,100,0.251931
1574868683.200601,99698.000,17070,2,EL,1,100,0.249957
1574868683.268311,99755.000,17088,2,EL,1,100,0.252173
1574868683.336020,99812.000,17088,2,EL,1,100,0.249393
1574868683.404918,99870.000,17106,2,EL,1,100,0.250280
1574868683.473815,99928.000,17106,2,EL,1,100,0.251851
1574868683.535585,99980.000,17124,1,EL,1,100,0.249514
1574868683.599137,100033.500,17141,2,EL,1,100,0.251327
1574868683.662689,100087.000,17141,2,EL,1,100,0.249595
1574868683.730399,100144.000,17159,2,EL,1,100,0.253180
1574868683.798109,100201.000,17159,2,EL,1,100,0.250360
1574868683.865224,100257.500,17177,2,EL,1,100,0.252213
1574868683.932340,100314.000,17177,2,EL,1,100,0.250280
1574868684.000643,100371.500,17193,2,EL,1,100,0.251045
1574868684.068947,100429.000,17193,2,EL,1,100,0.252173
1574868684.141408,100490.000,17212,1,EL,1,100,0.250400
1574868684.210306,100548.000,17230,2,EL,1,100,0.253381
1574868684.279203,100606.000,17230,2,EL,1,100,0.250843
1574868684.343943,100660.500,17248,2,EL,1,100,0.252052
1574868684.408683,100715.000,17248,2,EL,1,100,0.249796
1574868684.471641,100768.000,17266,2,EL,1,100,0.251931
1574868684.534599,100821.000,17266,2,EL,1,100,0.251770
1574868684.601121,100877.000,17284,2,EL,1,100,0.251649
1574868684.667643,100933.000,17284,2,EL,1,100,0.252697
1574868684.737728,100992.000,17302,1,EL,1,100,0.251609
1574868684.805438,101049.000,17319,2,EL,1,100,0.254993
1574868684.873147,101106.000,17319,2,EL,1,100,0.252294
1574868684.940857,101163.000,17337,2,EL,1,100,0.255073
1574868685.008566,101220.000,17337,2,EL,1,100,0.252616
1574868685.071524,101273.000,17356,2,EL,1,100,0.254106
1574868685.134482,101326.000,17356,2,EL,1,100,0.253542
1574868685.201598,101382.500,17372,2,EL,1,100,0.253422
1574868685.268714,101439.000,17372,2,EL,1,100,0.254550
1574868685.335236,101495.000,17390,1,EL,1,100,0.251528
1574868685.404133,101553.000,17408,2,EL,1,100,0.254993
1574868685.473031,101611.000,17408,2,EL,1,100,0.252052
1574868685.540740,101668.000,17426,2,EL,1,100,0.255557
1574868685.608450,101725.000,17426,2,EL,1,100,0.252415
1574868685.670814,101777.500,17444,2,EL,1,100,0.254832
1574868685.733178,101830.000,17444,2,EL,1,100,0.254187
1574868685.797918,101884.500,17462,2,EL,1,100,0.253986
1574868685.862658,101939.000,17462,2,EL,1,100,0.255073
1574868685.930367,101996.000,17480,1,EL,1,100,0.253341
1574868685.999265,102054.000,17498,2,EL,1,100,0.255194
1574868686.068162,102112.000,17498,2,EL,1,100,0.251649
1574868686.138248,102171.000,17516,2,EL,1,100,0.255959
1574868686.208333,102230.000,17516,2,EL,1,100,0.252253
1574868686.269510,102281.500,17534,2,EL,1,100,0.254872
1574868686.330686,102333.000,17534,2,EL,1,100,0.254590
1574868686.396019,102388.000,17550,2,EL,1,100,0.254630
1574868686.461353,102443.000,17550,2,EL,1,100,0.255355
1574868686.529063,102500.000,17568,1,EL,1,100,0.252938
1574868686.598554,102558.500,17586,2,EL,1,100,0.256443
1574868686.668046,102617.000,17586,2,EL,1,100,0.253099
1574868686.738725,102676.500,17604,2,EL,1,100,0.255315
1574868686.809405,102736.000,17604,2,EL,1,100,0.252697
1574868686.870581,102787.500,17622,2,EL,1,100,0.253381
1574868686.931757,102839.000,17622,2,EL,1,100,0.253986
1574868686.996497,102893.500,17640,2,EL,1,100,0.253824
1574868687.061237,102948.000,17640,2,EL,1,100,0.255033
1574868687.128946,103005.000,17659,1,EL,1,100,0.252495
1574868687.197250,103062.500,17676,2,EL,1,100,0.255959
1574868687.265553,103120.000,17676,2,EL,1,100,0.253422
1574868687.335045,103178.500,17694,2,EL,1,100,0.256685
1574868687.404536,103237.000,17694,2,EL,1,100,0.253824
1574868687.466307,103289.000,17712,2,EL,1,100,0.255516
1574868687.528077,103341.000,17712,2,EL,1,100,0.253381
1574868687.592223,103395.000,17730,2,EL,1,100,0.254912
1574868687.656369,103449.000,17730,2,EL,1,100,0.253301
1574868687.724870,103506.667,17749,3,EL,1,100,0.253059
1574868687.793372,103564.333,17749,3,EL,1,100,0.255355
1574868687.861873,103622.000,17749,3,EL,1,100,0.255154
1574868687.933146,103682.000,17769,1,EL,1,100,0.252898
1574868688.001450,103739.500,17786,2,EL,1,100,0.255355
1574868688.069754,103797.000,17786,2,EL,1,100,0.252253
1574868688.139839,103856.000,17805,2,EL,1,100,0.254993
1574868688.209924,103915.000,17805,2,EL,1,100,0.252979
1574868688.275852,103970.500,17821,2,EL,1,100,0.253260
1574868688.341780,104026.000,17821,2,EL,1,100,0.255194
1574868688.405926,104080.000,17839,1,EL,1,100,0.253260
1574868688.472448,104136.000,17857,2,EL,1,100,0.254630
1574868688.538970,104192.000,17857,2,EL,1,100,0.253704
1574868688.602521,104245.500,17875,2,EL,1,100,0.255637
1574868688.666073,104299.000,17875,2,EL,1,100,0.252616
1574868688.732595,104355.000,17893,2,EL,1,100,0.255234
1574868688.799117,104411.000,17893,2,EL,1,100,0.253744
1574868688.867420,104468.500,17911,2,EL,1,100,0.254711
1574868688.935724,104526.000,17911,2,EL,1,100,0.254066
1574868689.004622,104584.000,17929,1,EL,1,100,0.253704
1574868689.071737,104640.500,17947,2,EL,1,100,0.256282
1574868689.138853,104697.000,17947,2,EL,1,100,0.254066
1574868689.202405,104750.500,17965,2,EL,1,100,0.256241
1574868689.265957,104804.000,17965,2,EL,1,100,0.253623
1574868689.331291,104859.000,17983,2,EL,1,100,0.255758
1574868689.396625,104914.000,17983,2,EL,1,100,0.253260
1574868689.463740,104970.500,18000,2,EL,1,100,0.252535
1574868689.530856,105027.000,18000,2,EL,1,100,0.254509
1574868689.599753,105085.000,18017,1,EL,1,100,0.252495
1574868689.668651,105143.000,18035,2,EL,1,100,0.254630
1574868689.737548,105201.000,18035,2,EL,1,100,0.251327
1574868689.801100,105254.500,18053,2,EL,1,100,0.253341
1574868689.864652,105308.000,18053,2,EL,1,100,0.249796
1574868689.931174,105364.000,18071,2,EL,1,100,0.252697
1574868689.997696,105420.000,18071,2,EL,1,100,0.250239
1574868690.064218,105476.000,18090,2,EL,1,100,0.250884
1574868690.130739,105532.000,18090,2,EL,1,100,0.250602
1574868690.203200,105593.000,18108,1,EL,1,100,0.249957
1574868690.270910,105650.000,18125,2,EL,1,100,0.252616
1574868690.338620,105707.000,18125,2,EL,1,100,0.249031
1574868690.402766,105761.000,18143,2,EL,1,100,0.251649
1574868690.466912,105815.000,18143,2,EL,1,100,0.249192
1574868690.532245,105870.000,18161,2,EL,1,100,0.252173
1574868690.597579,105925.000,18161,2,EL,1,100,0.248427
1574868690.663507,105980.500,18177,2,EL,1,100,0.250481
1574868690.729435,106036.000,18177,2,EL,1,100,0.250521
1574868690.801896,106097.000,18195,1,EL,1,100,0.249393
1574868690.869012,106153.500,18213,2,EL,1,100,0.250843
1574868690.936127,106210.000,18213,2,EL,1,100,0.246412
1574868691.000867,106264.500,18231,2,EL,1,100,0.252052
1574868691.065607,106319.000,18231,2,EL,1,100,0.242706
1574868691.129753,106373.000,18250,2,EL,1,100,0.252938
1574868691.193899,106427.000,18250,2,EL,1,100,0.250280
1574868691.261015,106483.500,18268,2,EL,1,100,0.252979
1574868691.328130,106540.000,18268,2,EL,1,100,0.250682
1574868691.400592,106601.000,18286,1,EL,1,100,0.250682
1574868691.467113,106657.000,18304,2,EL,1,100,0.253180
1574868691.533635,106713.000,18304,2,EL,1,100,0.249796
1574868691.598969,106768.000,18321,2,EL,1,100,0.253542
1574868691.664303,106823.000,18321,2,EL,1,100,0.250280
1574868691.733200,106881.000,18339,2,EL,1,100,0.252858
1574868691.802098,106939.000,18339,2,EL,1,100,0.248789
1574868691.865056,106992.000,18355,2,EL,1,100,0.251488
1574868691.928014,107045.000,18355,2,EL,1,100,0.252576
1574868691.992160,107099.000,18373,2,EL,1,100,0.251367
1574868692.056306,107153.000,18373,2,EL,1,100,0.252777
1574868692.125203,107211.000,18392,1,EL,1,100,0.250199
1574868692.192913,107268.000,18410,2,EL,1,100,0.252737
1574868692.260623,107325.000,18410,2,EL,1,100,0.249836
1574868692.331896,107385.000,18428,2,EL,1,100,0.251730
1574868692.403169,107445.000,18428,2,EL,1,100,0.249957
1574868692.466721,107498.500,18446,2,EL,1,100,0.251125
1574868692.530273,107552.000,18446,2,EL,1,100,0.251851
1574868692.594419,107606.000,18464,2,EL,1,100,0.249434
1574868692.658565,107660.000,18464,2,EL,1,100,0.252656
1574868692.726274,107717.000,18482,1,EL,1,100,0.250038
1574868692.794578,107774.500,18499,2,EL,1,100,0.251851
1574868692.862882,107832.000,18499,2,EL,1,100,0.249998
1574868692.932373,107890.500,18517,2,EL,1,100,0.252898
1574868693.001864,107949.000,18517,2,EL,1,100,0.249917
1574868693.066604,108003.500,18534,2,EL,1,100,0.249595
1574868693.131344,108058.000,18534,2,EL,1,100,0.250884
1574868693.194896,108111.500,18552,2,EL,1,100,0.250723
1574868693.258448,108165.000,18552,2,EL,1,100,0.253140
1574868693.322594,108219.000,18570,1,EL,1,100,0.250763
1574868693.390304,108276.000,18588,2,EL,1,100,0.254268
1574868693.458014,108333.000,18588,2,EL,1,100,0.251287
1574868693.528099,108392.000,18606,2,EL,1,100,0.255033
1574868693.598184,108451.000,18606,2,EL,1,100,0.250159
1574868693.662924,108505.500,18624,2,EL,1,100,0.253099
1574868693.727664,108560.000,18624,2,EL,1,100,0.254026
1574868693.791018,108613.333,18645,3,EL,1,100,0.253583
1574868693.854372,108666.667,18645,3,EL,1,100,0.255879
1574868693.917726,108720.000,18645,3,EL,1,100,0.256483
1574868693.988999,108780.000,18665,1,EL,1,100,0.255194
1574868694.056115,108836.500,18684,2,EL,1,100,0.254630
1574868694.123231,108893.000,18684,2,EL,1,100,0.254026
1574868694.193316,108952.000,18702,2,EL,1,100,0.257289
1574868694.263402,109011.000,18702,2,EL,1,100,0.254106
1574868694.329329,109066.500,18720,2,EL,1,100,0.255919
1574868694.395257,109122.000,18720,2,EL,1,100,0.255275
1574868694.458215,109175.000,18738,2,EL,1,100,0.255677
1574868694.521173,109228.000,18738,2,EL,1,100,0.256604
1574868694.591259,109287.000,18756,1,EL,1,100,0.255677
1574868694.658374,109343.500,18773,2,EL,1,100,0.258376
1574868694.725490,109400.000,18773,2,EL,1,100,0.255234
1574868694.794387,109458.000,18791,2,EL,1,100,0.257974
1574868694.863285,109516.000,18791,2,EL,1,100,0.256121
1574868694.928619,109571.000,18807,2,EL,1,100,0.257812
1574868694.993953,109626.000,18807,2,EL,1,100,0.258014
1574868695.056317,109678.500,18826,2,EL,1,100,0.256604
1574868695.118681,109731.000,18826,2,EL,1,100,0.258014
1574868695.188766,109790.000,18844,1,EL,1,100,0.255677
1574868695.256476,109847.000,18862,2,EL,1,100,0.257933
1574868695.324185,109904.000,18862,2,EL,1,100,0.255718
1574868695.391895,109961.000,18880,2,EL,1,100,0.258699
1574868695.459605,110018.000,18880,2,EL,1,100,0.255798
1574868695.529096,110076.500,18898,2,EL,1,100,0.257651
1574868695.598588,110135.000,18898,2,EL,1,100,0.257249
1574868695.663921,110190.000,18916,1,EL,1,100,0.256322
1574868695.732819,110248.000,18934,2,EL,1,100,0.258175
1574868695.801716,110306.000,18934,2,EL,1,100,0.256403
1574868695.864675,110359.000,18951,2,EL,1,100,0.258538
1574868695.927633,110412.000,18951,2,EL,1,100,0.256362
1574868695.992373,110466.500,18969,2,EL,1,100,0.258538
1574868696.057112,110521.000,18969,2,EL,1,100,0.256483
1574868696.127198,110580.000,18987,2,EL,1,100,0.257531
1574868696.197283,110639.000,18987,2,EL,1,100,0.256040
1574868696.262617,110694.000,19004,1,EL,1,100,0.255798
1574868696.333296,110753.500,19022,2,EL,1,100,0.258578
1574868696.403976,110813.000,19022,2,EL,1,100,0.255879
1574868696.466340,110865.500,19040,2,EL,1,100,0.258135
1574868696.528704,110918.000,19040,2,EL,1,100,0.255919
1574868696.594038,110973.000,19058,2,EL,1,100,0.258336
1574868696.659372,111028.000,19058,2,EL,1,100,0.255597
1574868696.727081,111085.000,19076,2,EL,1,100,0.258094
1574868696.794791,111142.000,19076,2,EL,1,100,0.256644
1574868696.861907,111198.500,19094,2,EL,1,100,0.256644
1574868696.929022,111255.000,19094,2,EL,1,100,0.258296
1574868697.001483,111316.000,19112,1,EL,1,100,0.255355
1574868697.063253,111368.000,19130,2,EL,1,100,0.258135
1574868697.125024,111420.000,19130,2,EL,1,100,0.255275
1574868697.190951,111475.500,19148,2,EL,1,100,0.258981
1574868697.256879,111531.000,19148,2,EL,1,100,0.253704
1574868697.326371,111589.500,19166,2,EL,1,100,0.257732
1574868697.395862,111648.000,19166,2,EL,1,100,0.255637
1574868697.462384,111704.000,19182,2,EL,1,100,0.255839
1574868697.528906,111760.000,19182,2,EL,1,100,0.258739
1574868697.603742,111823.000,19200,1,EL,1,100,0.255879
1574868697.666107,111875.500,19218,2,EL,1,100,0.258940
1574868697.728471,111928.000,19218,2,EL,1,100,0.255718
1574868697.793211,111982.500,19236,2,EL,1,100,0.259182
1574868697.857950,112037.000,19236,2,EL,1,100,0.256322
1574868697.926254,112094.500,19254,2,EL,1,100,0.257893
1574868697.994558,112152.000,19254,2,EL,1,100,0.256805
1574868698.061673,112208.500,19273,2,EL,1,100,0.256805
1574868698.128789,112265.000,19273,2,EL,1,100,0.257289
1574868698.200062,112325.000,19291,1,EL,1,100,0.253945
1574868698.262426,112377.500,19308,2,EL,1,100,0.258658
1574868698.324790,112430.000,19308,2,EL,1,100,0.255114
1574868698.388342,112483.500,19326,2,EL,1,100,0.258699
1574868698.451895,112537.000,19326,2,EL,1,100,0.256080
1574868698.520792,112595.000,19344,2,EL,1,100,0.258981
1574868698.589689,112653.000,19344,2,EL,1,100,0.256000
1574868698.656805,112709.500,19360,2,EL,1,100,0.256403
1574868698.723921,112766.000,19360,2,EL,1,100,0.257329
1574868698.795194,112826.000,19378,1,EL,1,100,0.254670
1574868698.861122,112881.500,19396,2,EL,1,100,0.258336
1574868698.927050,112937.000,19396,2,EL,1,100,0.254711
1574868698.990008,112990.000,19414,2,EL,1,100,0.258699
1574868699.052966,113043.000,19414,2,EL,1,100,0.256725
1574868699.117706,113097.500,19433,2,EL,1,100,0.258457
1574868699.182446,113152.000,19433,2,EL,1,100,0.257128
1574868699.246592,113206.000,19451,2,EL,1,100,0.258497
1574868699.310737,113260.000,19451,2,EL,1,100,0.256443
1574868699.377853,113316.500,19469,2,EL,1,100,0.256926
1574868699.444969,113373.000,19469,2,EL,1,100,0.257812
1574868699.515054,113432.000,19487,1,EL,1,100,0.256967
1574868699.583358,113489.500,19504,2,EL,1,100,0.258336
1574868699.651661,113547.000,19504,2,EL,1,100,0.255758
1574868699.718183,113603.000,19522,2,EL,1,100,0.258981
1574868699.784705,113659.000,19522,2,EL,1,100,0.255839
1574868699.848851,113713.000,19542,3,EL,1,100,0.256926
1574868699.912997,113767.000,19542,3,EL,1,100,0.257410
1574868699.977143,113821.000,19542,3,EL,1,100,0.258618
1574868700.044852,113878.000,19563,2,EL,1,100,0.259585
1574868700.112562,113935.000,19563,2,EL,1,100,0.256523
1574868700.181459,113993.000,19581,1,EL,1,100,0.255758
1574868700.250951,114051.500,19598,2,EL,1,100,0.258940
1574868700.320442,114110.000,19598,2,EL,1,100,0.255919
1574868700.383994,114163.500,19616,2,EL,1,100,0.257853
1574868700.447546,114217.000,19616,2,EL,1,100,0.256040
1574868700.512286,114271.500,19634,2,EL,1,100,0.258900
1574868700.577026,114326.000,19634,2,EL,1,100,0.256725
1574868700.643548,114382.000,19650,2,EL,1,100,0.257087
1574868700.710069,114438.000,19650,2,EL,1,100,0.258538
1574868700.778967,114496.000,19668,1,EL,1,100,0.256685
1574868700.847270,114553.500,19686,2,EL,1,100,0.258699
1574868700.915574,114611.000,19686,2,EL,1,100,0.256362
1574868700.980908,114666.000,19704,2,EL,1,100,0.258618
1574868701.046242,114721.000,19704,2,EL,1,100,0.256121
1574868701.112170,114776.500,19723,2,EL,1,100,0.258376
1574868701.178097,114832.000,19723,2,EL,1,100,0.256040
1574868701.244619,114888.000,19741,2,EL,1,100,0.257047
1574868701.311141,114944.000,19741,2,EL,1,100,0.257329
1574868701.383602,115005.000,19759,1,EL,1,100,0.256443
1574868701.451312,115062.000,19776,2,EL,1,100,0.258457
1574868701.519021,115119.000,19776,2,EL,1,100,0.254590
1574868701.584949,115174.500,19794,2,EL,1,100,0.258256
1574868701.650877,115230.000,19794,2,EL,1,100,0.256040
1574868701.713241,115282.500,19811,2,EL,1,100,0.257208
1574868701.775605,115335.000,19811,2,EL,1,100,0.256644
1574868701.842721,115391.500,19828,2,EL,1,100,0.257651
1574868701.909836,115448.000,19828,2,EL,1,100,0.257208
1574868701.982297,115509.000,19846,1,EL,1,100,0.255597
1574868702.048819,115565.000,19865,2,EL,1,100,0.257853
1574868702.115341,115621.000,19865,2,EL,1,100,0.255154
1574868702.181863,115677.000,19883,2,EL,1,100,0.258094
1574868702.248384,115733.000,19883,2,EL,1,100,0.255476
1574868702.310749,115785.500,19901,2,EL,1,100,0.257531
1574868702.373113,115838.000,19901,2,EL,1,100,0.256201
1574868702.439634,115894.000,19919,2,EL,1,100,0.256161
1574868702.506156,115950.000,19919,2,EL,1,100,0.256725
1574868702.578617,116011.000,19937,1,EL,1,100,0.255557
1574868702.646921,116068.500,19954,2,EL,1,100,0.258135
1574868702.715225,116126.000,19954,2,EL,1,100,0.256201
1574868702.784122,116184.000,19972,2,EL,1,100,0.257893
1574868702.853019,116242.000,19972,2,EL,1,100,0.255033
1574868702.924293,116302.000,19988,2,EL,1,100,0.256403
1574868702.995566,116362.000,19988,2,EL,1,100,0.257410
1574868703.062088,116418.000,20007,1,EL,1,100,0.254993
1574868703.125640,116471.500,20025,2,EL,1,100,0.257933
1574868703.189192,116525.000,20025,2,EL,1,100,0.256000
1574868703.254525,116580.000,20043,2,EL,1,100,0.257732
1574868703.319859,116635.000,20043,2,EL,1,100,0.253945
1574868703.387569,116692.000,20061,2,EL,1,100,0.257651
1574868703.455279,116749.000,20061,2,EL,1,100,0.253502
1574868703.525364,116808.000,20079,2,EL,1,100,0.254952
1574868703.595449,116867.000,20079,2,EL,1,100,0.257369
1574868703.666723,116927.000,20097,1,EL,1,100,0.255073
1574868703.729087,116979.500,20114,2,EL,1,100,0.257329
1574868703.791451,117032.000,20114,2,EL,1,100,0.254711
1574868703.855003,117085.500,20132,2,EL,1,100,0.258215
1574868703.918555,117139.000,20132,2,EL,1,100,0.255154
1574868703.986858,117196.500,20150,2,EL,1,100,0.257128
1574868704.055162,117254.000,20150,2,EL,1,100,0.254791
1574868704.122872,117311.000,20167,2,EL,1,100,0.255516
1574868704.190581,117368.000,20167,2,EL,1,100,0.255798
1574868704.260667,117427.000,20185,1,EL,1,100,0.254590
1574868704.324813,117481.000,20203,2,EL,1,100,0.257651
1574868704.388958,117535.000,20203,2,EL,1,100,0.253583
1574868704.452511,117588.500,20221,2,EL,1,100,0.257047
1574868704.516062,117642.000,20221,2,EL,1,100,0.253341
1574868704.584366,117699.500,20239,2,EL,1,100,0.256282
1574868704.652670,117757.000,20239,2,EL,1,100,0.252979
1574868704.722161,117815.500,20257,2,EL,1,100,0.254147
1574868704.791652,117874.000,20257,2,EL,1,100,0.255355
1574868704.858174,117930.000,20275,1,EL,1,100,0.252133
1574868704.924696,117986.000,20292,2,EL,1,100,0.254791
1574868704.991218,118042.000,20292,2,EL,1,100,0.252173
1574868705.052988,118094.000,20311,2,EL,1,100,0.255637
1574868705.114758,118146.000,20311,2,EL,1,100,0.251810
1574868705.182468,118203.000,20329,2,EL,1,100,0.254791
1574868705.250177,118260.000,20329,2,EL,1,100,0.251851
1574868705.319669,118318.500,20345,2,EL,1,100,0.252656
1574868705.389160,118377.000,20345,2,EL,1,100,0.253220
1574868705.455682,118433.000,20363,1,EL,1,100,0.250562
1574868705.521610,118488.500,20381,2,EL,1,100,0.253341
1574868705.587538,118544.000,20381,2,EL,1,100,0.251005
1574868705.649902,118596.500,20399,2,EL,1,100,0.253744
1574868705.712266,118649.000,20399,2,EL,1,100,0.249272
1574868705.779382,118705.500,20417,2,EL,1,100,0.253462
1574868705.846497,118762.000,20417,2,EL,1,100,0.240048
1574868705.914603,118819.333,20438,3,EL,1,100,0.252213
1574868705.982708,118876.667,20438,3,EL,1,100,0.251045
1574868706.050814,118934.000,20438,3,EL,1,100,0.253865
1574868706.117929,118990.500,20459,2,EL,1,100,0.252495
1574868706.185045,119047.000,20459,2,EL,1,100,0.250562
1574868706.246815,119099.000,20477,1,EL,1,100,0.249595
1574868706.315119,119156.500,20495,2,EL,1,100,0.251891
1574868706.383422,119214.000,20495,2,EL,1,100,0.248628
1574868706.446380,119267.000,20513,2,EL,1,100,0.251891
1574868706.509339,119320.000,20513,2,EL,1,100,0.249111
1574868706.574079,119374.500,20531,2,EL,1,100,0.251327
1574868706.638818,119429.000,20531,2,EL,1,100,0.248749
1574868706.708310,119487.500,20549,2,EL,1,100,0.249716
1574868706.777801,119546.000,20549,2,EL,1,100,0.249957
1574868706.843135,119601.000,20567,1,EL,1,100,0.247097
1574868706.914408,119661.000,20584,2,EL,1,100,0.250360
1574868706.985682,119721.000,20584,2,EL,1,100,0.248346
1574868707.048046,119773.500,20603,2,EL,1,100,0.251206
1574868707.110410,119826.000,20603,2,EL,1,100,0.248346
1574868707.174556,119880.000,20621,2,EL,1,100,0.250723
1574868707.238702,119934.000,20621,2,EL,1,100,0.247701
1574868707.308193,119992.500,20637,2,EL,1,100,0.248829
1574868707.377685,120051.000,20637,2,EL,1,100,0.248709
1574868707.445394,120108.000,20655,1,EL,1,100,0.246211
1574868707.514886,120166.500,20673,2,EL,1,100,0.249998
1574868707.584377,120225.000,20673,2,EL,1,100,0.245728
1574868707.647929,120278.500,20691,2,EL,1,100,0.248547
1574868707.711481,120332.000,20691,2,EL,1,100,0.245043
1574868707.775627,120386.000,20709,2,EL,1,100,0.249836
1574868707.839773,120440.000,20709,2,EL,1,100,0.246896
1574868707.906889,120496.500,20727,2,EL,1,100,0.248225
1574868707.974005,120553.000,20727,2,EL,1,100,0.247379
1574868708.041714,120610.000,20746,2,EL,1,100,0.246654
1574868708.109424,120667.000,20746,2,EL,1,100,0.248185
1574868708.181885,120728.000,20764,1,EL,1,100,0.245526
1574868708.245437,120781.500,20781,2,EL,1,100,0.247581
1574868708.308989,120835.000,20781,2,EL,1,100,0.245365
1574868708.372541,120888.500,20799,2,EL,1,100,0.247057
1574868708.436093,120942.000,20799,2,EL,1,100,0.245446
1574868708.504396,120999.500,20815,2,EL,1,100,0.246815
1574868708.572700,121057.000,20815,2,EL,1,100,0.245284
1574868708.639816,121113.500,20833,2,EL,1,100,0.245647
1574868708.706931,121170.000,20833,2,EL,1,100,0.247419
1574868708.778205,121230.000,20851,1,EL,1,100,0.244559
1574868708.843539,121285.000,20869,2,EL,1,100,0.247137
1574868708.908872,121340.000,20869,2,EL,1,100,0.244519
1574868708.972424,121393.500,20887,2,EL,1,100,0.246936
1574868709.035976,121447.000,20887,2,EL,1,100,0.244559
1574868709.103686,121504.000,20906,2,EL,1,100,0.245566
1574868709.171396,121561.000,20906,2,EL,1,100,0.244922
1574868709.238511,121617.500,20924,2,EL,1,100,0.244801
1574868709.305627,121674.000,20924,2,EL,1,100,0.245607
1574868709.376900,121734.000,20942,1,EL,1,100,0.244358
1574868709.441640,121788.500,20959,2,EL,1,100,0.247137
1574868709.506380,121843.000,20959,2,EL,1,100,0.244318
1574868709.569932,121896.500,20977,2,EL,1,100,0.246171
1574868709.633484,121950.000,20977,2,EL,1,100,0.243270
1574868709.701194,122007.000,20995,2,EL,1,100,0.245486
1574868709.768903,122064.000,20995,2,EL,1,100,0.244559
1574868709.837207,122121.500,21011,2,EL,1,100,0.243472
1574868709.905510,122179.000,21011,2,EL,1,100,0.245365
1574868709.975596,122238.000,21029,1,EL,1,100,0.243391
1574868710.043899,122295.500,21048,2,EL,1,100,0.246130
1574868710.112203,122353.000,21048,2,EL,1,100,0.244358
1574868710.180506,122410.500,21066,2,EL,1,100,0.245607
1574868710.248810,122468.000,21066,2,EL,1,100,0.244398
1574868710.315926,122524.500,21084,2,EL,1,100,0.243270
1574868710.383041,122581.000,21084,2,EL,1,100,0.245848
1574868710.444811,122633.000,21102,1,EL,1,100,0.243552
1574868710.510739,122688.500,21120,2,EL,1,100,0.245848
1574868710.576667,122744.000,21120,2,EL,1,100,0.242787
1574868710.644970,122801.500,21137,2,EL,1,100,0.246010
1574868710.713274,122859.000,21137,2,EL,1,100,0.244076
1574868710.779202,122914.500,21155,2,EL,1,100,0.243713
1574868710.845130,122970.000,21155,2,EL,1,100,0.244197
1574868710.914621,123028.500,21171,2,EL,1,100,0.244318
1574868710.984113,123087.000,21171,2,EL,1,100,0.245405
1574868711.049446,123142.000,21190,1,EL,1,100,0.242948
1574868711.118344,123200.000,21208,2,EL,1,100,0.246090
1574868711.187241,123258.000,21208,2,EL,1,100,0.242908
1574868711.249605,123310.500,21226,2,EL,1,100,0.245164
1574868711.311970,123363.000,21226,2,EL,1,100,0.243109
1574868711.377897,123418.500,21244,2,EL,1,100,0.245647
1574868711.443825,123474.000,21244,2,EL,1,100,0.242263
1574868711.512129,123531.500,21262,2,EL,1,100,0.243673
1574868711.580432,123589.000,21262,2,EL,1,100,0.243794
1574868711.649330,123647.000,21280,1,EL,1,100,0.242908
1574868711.718227,123705.000,21297,2,EL,1,100,0.245526
1574868711.787125,123763.000,21297,2,EL,1,100,0.244116
1574868711.850083,123816.000,21315,2,EL,1,100,0.245647
1574868711.913041,123869.000,21315,2,EL,1,100,0.241216
1574868711.978375,123924.000,21336,3,EL,1,100,0.244438
1574868712.043709,123979.000,21336,3,EL,1,100,0.241256
1574868712.109042,124034.000,21336,3,EL,1,100,0.245486
1574868712.179128,124093.000,21357,2,EL,1,100,0.245405
1574868712.249213,124152.000,21357,2,EL,1,100,0.241619
1574868712.315735,124208.000,21375,1,EL,1,100,0.242384
1574868712.383445,124265.000,21392,2,EL,1,100,0.245526
1574868712.451154,124322.000,21392,2,EL,1,100,0.242706
1574868712.514706,124375.500,21410,2,EL,1,100,0.244922
1574868712.578258,124429.000,21410,2,EL,1,100,0.242505
1574868712.643592,124484.000,21428,2,EL,1,100,0.245607
1574868712.708926,124539.000,21428,2,EL,1,100,0.242948
1574868712.779011,124598.000,21444,2,EL,1,100,0.243270
1574868712.849097,124657.000,21444,2,EL,1,100,0.245244
1574868712.916806,124714.000,21462,1,EL,1,100,0.242263
1574868712.983922,124770.500,21481,2,EL,1,100,0.244801
1574868713.051038,124827.000,21481,2,EL,1,100,0.241498
1574868713.113402,124879.500,21499,2,EL,1,100,0.245043
1574868713.175766,124932.000,21499,2,EL,1,100,0.242021
1574868713.241693,124987.500,21517,2,EL,1,100,0.244318
1574868713.307621,125043.000,21517,2,EL,1,100,0.242344
1574868713.375925,125100.500,21535,2,EL,1,100,0.244600
1574868713.444228,125158.000,21535,2,EL,1,100,0.242545
1574868713.511938,125215.000,21553,1,EL,1,100,0.242505
1574868713.580242,125272.500,21570,2,EL,1,100,0.244559
1574868713.648545,125330.000,21570,2,EL,1,100,0.242021
1574868713.711503,125383.000,21588,2,EL,1,100,0.244156
1574868713.774461,125436.000,21588,2,EL,1,100,0.241820
1574868713.839795,125491.000,21606,2,EL,1,100,0.244237
1574868713.905129,125546.000,21606,2,EL,1,100,0.241014
1574868713.968681,125599.500,21624,2,EL,1,100,0.242867
1574868714.032233,125653.000,21624,2,EL,1,100,0.241699
1574868714.099349,125709.500,21641,2,EL,1,100,0.241820
1574868714.166464,125766.000,21641,2,EL,1,100,0.243512
1574868714.232986,125822.000,21659,1,EL,1,100,0.242142
1574868714.303071,125881.000,21677,2,EL,1,100,0.243915
1574868714.373157,125940.000,21677,2,EL,1,100,0.241820
1574868714.440273,125996.500,21695,2,EL,1,100,0.244277
1574868714.507388,126053.000,21695,2,EL,1,100,0.242263
1574868714.570940,126106.500,21713,2,EL,1,100,0.243109
1574868714.634492,126160.000,21713,2,EL,1,100,0.241699
1574868714.701014,126216.000,21731,2,EL,1,100,0.241538
1574868714.767536,126272.000,21731,2,EL,1,100,0.243955
1574868714.837621,126331.000,21749,1,EL,1,100,0.241981
1574868714.905331,126388.000,21766,2,EL,1,100,0.244237
1574868714.973040,126445.000,21766,2,EL,1,100,0.240571
1574868715.040750,126502.000,21785,2,EL,1,100,0.244237
1574868715.108459,126559.000,21785,2,EL,1,100,0.241216
1574868715.172012,126612.500,21801,2,EL,1,100,0.242666
1574868715.235564,126666.000,21801,2,EL,1,100,0.243673
1574868715.300303,126720.500,21819,2,EL,1,100,0.242908
1574868715.365043,126775.000,21819,2,EL,1,100,0.243552
1574868715.432753,126832.000,21837,1,EL,1,100,0.242263
1574868715.500463,126889.000,21855,2,EL,1,100,0.244962
1574868715.568172,126946.000,21855,2,EL,1,100,0.242303
1574868715.637664,127004.500,21873,2,EL,1,100,0.244519
1574868715.707155,127063.000,21873,2,EL,1,100,0.242303
1574868715.770707,127116.500,21891,2,EL,1,100,0.243552
1574868715.834259,127170.000,21891,2,EL,1,100,0.242908
1574868715.900781,127226.000,21909,2,EL,1,100,0.242545
1574868715.967303,127282.000,21909,2,EL,1,100,0.242948
1574868716.032636,127337.000,21928,1,EL,1,100,0.242867
1574868716.102128,127395.500,21945,2,EL,1,100,0.244519
1574868716.171619,127454.000,21945,2,EL,1,100,0.241256
1574868716.238735,127510.500,21963,2,EL,1,100,0.245284
1574868716.305851,127567.000,21963,2,EL,1,100,0.240894
1574868716.371184,127622.000,21979,2,EL,1,100,0.243431
1574868716.436518,127677.000,21979,2,EL,1,100,0.244680
1574868716.500664,127731.000,21997,2,EL,1,100,0.243834
1574868716.564810,127785.000,21997,2,EL,1,100,0.244962
1574868716.631332,127841.000,22015,1,EL,1,100,0.241860
1574868716.701417,127900.000,22033,2,EL,1,100,0.245043
1574868716.771503,127959.000,22033,2,EL,1,100,0.242988
1574868716.838024,128015.000,22051,2,EL,1,100,0.245325
1574868716.904546,128071.000,22051,2,EL,1,100,0.243391
1574868716.969286,128125.500,22069,2,EL,1,100,0.243472
1574868717.034026,128180.000,22069,2,EL,1,100,0.244438
1574868717.096984,128233.000,22088,2,EL,1,100,0.242908
1574868717.159942,128286.000,22088,2,EL,1,100,0.245325
1574868717.226464,128342.000,22106,1,EL,1,100,0.244116
1574868717.296549,128401.000,22124,2,EL,1,100,0.245687
1574868717.366635,128460.000,22124,2,EL,1,100,0.243713
1574868717.434938,128517.500,22141,2,EL,1,100,0.246211
1574868717.503242,128575.000,22141,2,EL,1,100,0.244479
1574868717.572139,128633.000,22157,2,EL,1,100,0.245768
1574868717.641037,128691.000,22157,2,EL,1,100,0.245244
1574868717.712310,128751.000,22175,1,EL,1,100,0.243270
1574868717.779426,128807.500,22193,2,EL,1,100,0.245647
1574868717.846541,128864.000,22193,2,EL,1,100,0.244156
1574868717.910093,128917.500,22211,2,EL,1,100,0.246533
1574868717.973645,128971.000,22211,2,EL,1,100,0.243955
1574868718.040563,129027.333,22233,3,EL,1,100,0.246292
1574868718.107481,129083.667,22233,3,EL,1,100,0.244398
1574868718.174398,129140.000,22233,3,EL,1,100,0.247057
1574868718.242702,129197.500,22253,2,EL,1,100,0.246976
1574868718.311006,129255.000,22253,2,EL,1,100,0.241417
1574868718.381091,129314.000,22269,1,EL,1,100,0.243673
1574868718.445831,129368.500,22287,2,EL,1,100,0.247057
1574868718.510571,129423.000,22287,2,EL,1,100,0.244922
1574868718.574717,129477.000,22305,2,EL,1,100,0.246412
1574868718.638863,129531.000,22305,2,EL,1,100,0.243995
1574868718.705384,129587.000,22323,2,EL,1,100,0.247017
1574868718.771906,129643.000,22323,2,EL,1,100,0.243431
1574868718.839022,129699.500,22341,2,EL,1,100,0.245969
1574868718.906137,129756.000,22341,2,EL,1,100,0.245325
1574868718.975035,129814.000,22359,1,EL,1,100,0.244922
1574868719.040369,129869.000,22378,2,EL,1,100,0.246211
1574868719.105703,129924.000,22378,2,EL,1,100,0.244156
1574868719.169255,129977.500,22395,2,EL,1,100,0.247137
1574868719.232806,130031.000,22395,2,EL,1,100,0.244479
1574868719.300516,130088.000,22413,2,EL,1,100,0.246936
1574868719.368226,130145.000,22413,2,EL,1,100,0.243472
1574868719.435341,130201.500,22431,2,EL,1,100,0.247500
1574868719.502457,130258.000,22431,2,EL,1,100,0.245043
1574868719.572542,130317.000,22447,2,EL,1,100,0.244841
1574868719.642628,130376.000,22447,2,EL,1,100,0.247137
1574868719.706774,130430.000,22465,1,EL,1,100,0.244680
1574868719.770326,130483.500,22483,2,EL,1,100,0.248024
1574868719.833878,130537.000,22483,2,EL,1,100,0.246050
1574868719.900994,130593.500,22501,2,EL,1,100,0.248145
1574868719.968109,130650.000,22501,2,EL,1,100,0.245083
1574868720.035225,130706.500,22520,2,EL,1,100,0.247863
1574868720.102340,130763.000,22520,2,EL,1,100,0.246090
1574868720.171238,130821.000,22538,2,EL,1,100,0.247339
1574868720.240136,130879.000,22538,2,EL,1,100,0.249192
1574868720.305469,130934.000,22556,1,EL,1,100,0.246815
1574868720.369021,130987.500,22573,2,EL,1,100,0.250602
1574868720.432573,131041.000,22573,2,EL,1,100,0.246694
1574868720.499095,131097.000,22591,2,EL,1,100,0.249877
1574868720.565617,131153.000,22591,2,EL,1,100,0.247782
1574868720.632733,131209.500,22609,2,EL,1,100,0.250038
1574868720.699848,131266.000,22609,2,EL,1,100,0.247701
1574868720.768746,131324.000,22625,2,EL,1,100,0.247178
1574868720.837643,131382.000,22625,2,EL,1,100,0.248950
1574868720.905353,131439.000,22643,1,EL,1,100,0.247782
1574868720.968311,131492.000,22662,2,EL,1,100,0.249917
1574868721.031269,131545.000,22662,2,EL,1,100,0.247137
1574868721.097791,131601.000,22680,2,EL,1,100,0.250280
1574868721.164312,131657.000,22680,2,EL,1,100,0.247581
1574868721.227270,131710.000,22698,2,EL,1,100,0.250159
1574868721.290229,131763.000,22698,2,EL,1,100,0.247339
1574868721.355562,131818.000,22716,2,EL,1,100,0.249595
1574868721.420896,131873.000,22716,2,EL,1,100,0.249836
1574868721.490388,131931.500,22734,2,EL,1,100,0.246976
1574868721.559879,131990.000,22734,2,EL,1,100,0.250441
1574868721.625213,132045.000,22752,1,EL,1,100,0.248507
1574868721.695298,132104.000,22769,2,EL,1,100,0.250521
1574868721.765384,132163.000,22769,2,EL,1,100,0.247621
1574868721.828342,132216.000,22787,2,EL,1,100,0.250884
1574868721.891300,132269.000,22787,2,EL,1,100,0.247782
1574868721.956040,132323.500,22805,2,EL,1,100,0.249957
1574868722.020780,132378.000,22805,2,EL,1,100,0.248588
1574868722.090271,132436.500,22822,2,EL,1,100,0.248427
1574868722.159763,132495.000,22822,2,EL,1,100,0.250400
1574868722.228660,132553.000,22840,1,EL,1,100,0.247903
1574868722.297558,132611.000,22858,2,EL,1,100,0.250199
1574868722.366455,132669.000,22858,2,EL,1,100,0.247097
1574868722.428225,132721.000,22876,2,EL,1,100,0.250078
1574868722.489995,132773.000,22876,2,EL,1,100,0.246815
1574868722.555329,132828.000,22894,2,EL,1,100,0.250199
1574868722.620663,132883.000,22894,2,EL,1,100,0.248870
1574868722.688373,132940.000,22912,2,EL,1,100,0.248628
1574868722.756082,132997.000,22912,2,EL,1,100,0.250280
1574868722.823792,133054.000,22930,1,EL,1,100,0.247863
1574868722.894471,133113.500,22947,2,EL,1,100,0.250803
1574868722.965151,133173.000,22947,2,EL,1,100,0.247943
1574868723.026921,133225.000,22966,2,EL,1,100,0.250320
1574868723.088691,133277.000,22966,2,EL,1,100,0.247379
1574868723.152837,133331.000,22984,2,EL,1,100,0.250280
1574868723.216983,133385.000,22984,2,EL,1,100,0.249554
1574868723.286474,133443.500,23000,2,EL,1,100,0.248467
1574868723.355966,133502.000,23000,2,EL,1,100,0.249917
1574868723.422487,133558.000,23018,1,EL,1,100,0.248064
1574868723.492573,133617.000,23036,2,EL,1,100,0.251166
1574868723.562658,133676.000,23036,2,EL,1,100,0.248145
1574868723.626210,133729.500,23054,2,EL,1,100,0.249917
1574868723.689762,133783.000,23054,2,EL,1,100,0.248749
1574868723.753908,133837.000,23072,2,EL,1,100,0.250199
1574868723.818054,133891.000,23072,2,EL,1,100,0.248306
1574868723.886952,133949.000,23090,2,EL,1,100,0.248467
1574868723.955849,134007.000,23090,2,EL,1,100,0.249434
1574868724.021183,134062.000,23109,1,EL,1,100,0.249152
1574868724.089684,134119.667,23129,3,EL,1,100,0.249917
1574868724.158186,134177.333,23129,3,EL,1,100,0.247661
1574868724.226688,134235.000,23129,3,EL,1,100,0.250803
1574868724.289052,134287.500,23149,2,EL,1,100,0.251327
1574868724.351416,134340.000,23149,2,EL,1,100,0.248064
1574868724.415562,134394.000,23167,2,EL,1,100,0.250159
1574868724.479708,134448.000,23167,2,EL,1,100,0.249152
1574868724.548011,134505.500,23185,2,EL,1,100,0.250884
1574868724.616315,134563.000,23185,2,EL,1,100,0.247540
1574868724.687588,134623.000,23203,1,EL,1,100,0.248628
1574868724.755892,134680.500,23220,2,EL,1,100,0.251085
1574868724.824195,134738.000,23220,2,EL,1,100,0.248910
1574868724.893687,134796.500,23238,2,EL,1,100,0.250521
1574868724.963178,134855.000,23238,2,EL,1,100,0.248265
1574868725.030294,134911.500,23257,2,EL,1,100,0.249998
1574868725.097409,134968.000,23257,2,EL,1,100,0.249071
1574868725.160961,135021.500,23273,2,EL,1,100,0.248990
1574868725.224514,135075.000,23273,2,EL,1,100,0.251609
1574868725.288659,135129.000,23291,1,EL,1,100,0.247822
1574868725.355181,135185.000,23309,2,EL,1,100,0.251649
1574868725.421703,135241.000,23309,2,EL,1,100,0.248064
1574868725.491194,135299.500,23327,2,EL,1,100,0.252133
1574868725.560686,135358.000,23327,2,EL,1,100,0.247339
1574868725.629583,135416.000,23345,2,EL,1,100,0.249031
1574868725.698481,135474.000,23345,2,EL,1,100,0.250642
1574868725.762033,135527.500,23363,2,EL,1,100,0.250239
1574868725.825585,135581.000,23363,2,EL,1,100,0.251689
1574868725.887355,135633.000,23381,1,EL,1,100,0.249272
1574868725.955658,135690.500,23399,2,EL,1,100,0.252334
1574868726.023962,135748.000,23399,2,EL,1,100,0.249071
1574868726.091672,135805.000,23417,2,EL,1,100,0.251770
1574868726.159381,135862.000,23417,2,EL,1,100,0.249393
1574868726.228279,135920.000,23435,2,EL,1,100,0.251125
1574868726.297176,135978.000,23435,2,EL,1,100,0.249998
1574868726.361916,136032.500,23451,2,EL,1,100,0.248386
1574868726.426656,136087.000,23451,2,EL,1,100,0.252294
1574868726.489614,136140.000,23469,1,EL,1,100,0.249998
1574868726.556136,136196.000,23487,2,EL,1,100,0.252052
1574868726.622658,136252.000,23487,2,EL,1,100,0.248668
1574868726.692743,136311.000,23505,2,EL,1,100,0.253220
1574868726.762828,136370.000,23505,2,EL,1,100,0.250320
1574868726.830538,136427.000,23523,2,EL,1,100,0.250239
1574868726.898248,136484.000,23523,2,EL,1,100,0.250964
1574868726.963581,136539.000,23541,2,EL,1,100,0.249836
1574868727.028915,136594.000,23541,2,EL,1,100,0.252173
1574868727.091873,136647.000,23560,1,EL,1,100,0.249957
1574868727.157801,136702.500,23577,2,EL,1,100,0.252858
1574868727.223729,136758.000,23577,2,EL,1,100,0.250199
1574868727.293814,136817.000,23595,2,EL,1,100,0.252817
1574868727.363900,136876.000,23595,2,EL,1,100,0.250441
1574868727.431015,136932.500,23611,2,EL,1,100,0.250843
1574868727.498131,136989.000,23611,2,EL,1,100,0.252213
1574868727.564059,137044.500,23629,2,EL,1,100,0.250682
1574868727.629987,137100.000,23629,2,EL,1,100,0.253623
1574868727.690569,137151.000,23647,1,EL,1,100,0.251327
1574868727.755903,137206.000,23665,2,EL,1,100,0.252938
1574868727.821237,137261.000,23665,2,EL,1,100,0.250400
1574868727.891322,137320.000,23683,2,EL,1,100,0.253704
1574868727.961407,137379.000,23683,2,EL,1,100,0.250400
1574868728.027929,137435.000,23702,2,EL,1,100,0.251367
1574868728.094451,137491.000,23702,2,EL,1,100,0.251005
1574868728.160973,137547.000,23720,2,EL,1,100,0.251407
1574868728.227494,137603.000,23720,2,EL,1,100,0.253140
1574868728.295204,137660.000,23738,1,EL,1,100,0.251125
1574868728.362319,137716.500,23755,2,EL,1,100,0.254066
1574868728.429435,137773.000,23755,2,EL,1,100,0.250763
1574868728.491799,137825.500,23773,2,EL,1,100,0.253623
1574868728.554163,137878.000,23773,2,EL,1,100,0.250924
1574868728.619497,137933.000,23791,2,EL,1,100,0.253220
1574868728.684831,137988.000,23791,2,EL,1,100,0.250239
1574868728.751947,138044.500,23807,2,EL,1,100,0.251770
1574868728.819062,138101.000,23807,2,EL,1,100,0.252294
1574868728.890336,138161.000,23825,1,EL,1,100,0.251609
1574868728.959233,138219.000,23844,2,EL,1,100,0.253019
1574868729.028131,138277.000,23844,2,EL,1,100,0.251125
1574868729.091683,138330.500,23862,2,EL,1,100,0.253905
1574868729.155235,138384.000,23862,2,EL,1,100,0.251125
1574868729.220569,138439.000,23880,2,EL,1,100,0.253704
1574868729.285903,138494.000,23880,2,EL,1,100,0.252415
1574868729.354206,138551.500,23898,2,EL,1,100,0.252133
1574868729.422509,138609.000,23898,2,EL,1,100,0.252576
1574868729.491407,138667.000,23916,1,EL,1,100,0.250602
1574868729.560305,138725.000,23933,2,EL,1,100,0.254106
1574868729.629202,138783.000,23933,2,EL,1,100,0.251851
1574868729.696912,138840.000,23951,2,EL,1,100,0.253905
1574868729.764621,138897.000,23951,2,EL,1,100,0.249595
1574868729.831143,138953.000,23967,2,EL,1,100,0.254388
1574868729.897665,139009.000,23967,2,EL,1,100,0.253865
1574868729.961217,139062.500,23985,2,EL,1,100,0.251528
1574868730.024769,139116.000,23985,2,EL,1,100,0.254469
1574868730.087727,139169.000,24004,1,EL,1,100,0.252697
1574868730.155437,139226.000,24025,3,EL,1,100,0.254026
1574868730.223146,139283.000,24025,3,EL,1,100,0.251649
1574868730.290856,139340.000,24025,3,EL,1,100,0.254590
1574868730.360347,139398.500,24045,2,EL,1,100,0.254832
1574868730.429838,139457.000,24045,2,EL,1,100,0.250924
1574868730.496360,139513.000,24061,2,EL,1,100,0.252737
1574868730.562882,139569.000,24061,2,EL,1,100,0.253986
1574868730.624058,139620.500,24079,2,EL,1,100,0.252898
1574868730.685235,139672.000,24079,2,EL,1,100,0.254429
1574868730.756508,139732.000,24097,1,EL,1,100,0.252656
1574868730.823030,139788.000,24115,2,EL,1,100,0.255114
1574868730.889551,139844.000,24115,2,EL,1,100,0.250642
1574868730.959043,139902.500,24133,2,EL,1,100,0.254912
1574868731.028534,139961.000,24133,2,EL,1,100,0.251810
1574868731.096244,140018.000,24152,2,EL,1,100,0.253542
1574868731.163953,140075.000,24152,2,EL,1,100,0.252858
1574868731.225724,140127.000,24170,2,EL,1,100,0.253220
1574868731.287494,140179.000,24170,2,EL,1,100,0.254952
1574868731.358767,140239.000,24188,1,EL,1,100,0.253422
1574868731.425883,140295.500,24205,2,EL,1,100,0.255073
1574868731.492998,140352.000,24205,2,EL,1,100,0.252616
1574868731.561302,140409.500,24223,2,EL,1,100,0.255637
1574868731.629605,140467.000,24223,2,EL,1,100,0.252858
1574868731.696721,140523.500,24239,2,EL,1,100,0.253583
1574868731.763837,140580.000,24239,2,EL,1,100,0.254872
1574868731.826201,140632.500,24257,2,EL,1,100,0.253824
1574868731.888565,140685.000,24257,2,EL,1,100,0.254832
1574868731.955087,140741.000,24275,1,EL,1,100,0.254066
1574868732.022202,140797.500,24294,2,EL,1,100,0.256201
1574868732.089318,140854.000,24294,2,EL,1,100,0.254227
1574868732.158216,140912.000,24312,2,EL,1,100,0.256483
1574868732.227113,140970.000,24312,2,EL,1,100,0.253019
1574868732.297792,141029.500,24330,2,EL,1,100,0.255033
1574868732.368472,141089.000,24330,2,EL,1,100,0.254026
1574868732.430242,141141.000,24348,1,EL,1,100,0.253301
1574868732.501515,141201.000,24366,2,EL,1,100,0.255798
1574868732.572788,141261.000,24366,2,EL,1,100,0.251730
1574868732.635153,141313.500,24383,2,EL,1,100,0.255718
1574868732.697517,141366.000,24383,2,EL,1,100,0.254106
1574868732.761662,141420.000,24401,2,EL,1,100,0.256523
1574868732.825809,141474.000,24401,2,EL,1,100,0.253623
1574868732.895300,141532.500,24417,2,EL,1,100,0.254751
1574868732.964792,141591.000,24417,2,EL,1,100,0.254268
1574868733.030125,141646.000,24436,1,EL,1,100,0.254187
1574868733.101398,141706.000,24454,2,EL,1,100,0.255959
1574868733.172672,141766.000,24454,2,EL,1,100,0.253502
1574868733.235630,141819.000,24472,2,EL,1,100,0.256685
1574868733.298588,141872.000,24472,2,EL,1,100,0.253220
1574868733.363328,141926.500,24490,2,EL,1,100,0.256282
1574868733.428068,141981.000,24490,2,EL,1,100,0.254227
1574868733.495183,142037.500,24508,2,EL,1,100,0.256403
1574868733.562299,142094.000,24508,2,EL,1,100,0.254469
1574868733.629415,142150.500,24526,2,EL,1,100,0.253583
1574868733.696530,142207.000,24526,2,EL,1,100,0.256443
1574868733.767804,142267.000,24544,1,EL,1,100,0.253542
1574868733.831950,142321.000,24561,2,EL,1,100,0.255919
1574868733.896096,142375.000,24561,2,EL,1,100,0.253824
1574868733.960242,142429.000,24579,2,EL,1,100,0.256846
1574868734.024388,142483.000,24579,2,EL,1,100,0.253462
1574868734.092691,142540.500,24598,2,EL,1,100,0.256241
1574868734.160995,142598.000,24598,2,EL,1,100,0.254066
1574868734.227516,142654.000,24614,2,EL,1,100,0.254268
1574868734.294038,142710.000,24614,2,EL,1,100,0.256161
1574868734.366499,142771.000,24632,1,EL,1,100,0.254469
1574868734.430645,142825.000,24650,2,EL,1,100,0.256564
1574868734.494791,142879.000,24650,2,EL,1,100,0.252817
1574868734.558937,142933.000,24668,2,EL,1,100,0.256644
1574868734.623083,142987.000,24668,2,EL,1,100,0.254227
1574868734.690199,143043.500,24686,2,EL,1,100,0.257208
1574868734.757314,143100.000,24686,2,EL,1,100,0.254308
1574868734.824430,143156.500,24704,2,EL,1,100,0.255234
1574868734.891546,143213.000,24704,2,EL,1,100,0.256483
1574868734.964007,143274.000,24722,1,EL,1,100,0.253583
1574868735.028747,143328.500,24740,2,EL,1,100,0.257087
1574868735.093487,143383.000,24740,2,EL,1,100,0.254348
1574868735.157039,143436.500,24758,2,EL,1,100,0.257933
1574868735.220591,143490.000,24758,2,EL,1,100,0.254791
1574868735.288300,143547.000,24776,2,EL,1,100,0.257087
1574868735.356010,143604.000,24776,2,EL,1,100,0.254590
1574868735.423126,143660.500,24792,2,EL,1,100,0.256241
1574868735.490241,143717.000,24792,2,EL,1,100,0.256443
1574868735.561515,143777.000,24810,1,EL,1,100,0.254590
1574868735.627442,143832.500,24828,2,EL,1,100,0.256926
1574868735.693370,143888.000,24828,2,EL,1,100,0.256000
1574868735.756328,143941.000,24846,2,EL,1,100,0.257208
1574868735.819286,143994.000,24846,2,EL,1,100,0.255275
1574868735.885214,144049.500,24864,2,EL,1,100,0.256886
1574868735.951142,144105.000,24864,2,EL,1,100,0.255154
1574868736.013506,144157.500,24883,2,EL,1,100,0.256161
1574868736.075870,144210.000,24883,2,EL,1,100,0.255798
1574868736.142392,144266.000,24901,2,EL,1,100,0.255839
1574868736.208914,144322.000,24901,2,EL,1,100,0.256362
1574868736.278405,144380.500,24922,2,EL,1,100,0.255154
1574868736.347896,144439.000,24922,2,EL,1,100,0.257893
1574868736.416794,144497.000,24942,2,EL,1,100,0.257450
1574868736.485691,144555.000,24942,2,EL,1,100,0.255396
1574868736.549243,144608.500,24960,2,EL,1,100,0.257893
1574868736.612795,144662.000,24960,2,EL,1,100,0.255677
1574868736.677535,144716.500,24978,2,EL,1,100,0.257571
1574868736.742275,144771.000,24978,2,EL,1,100,0.255154
1574868736.809391,144827.500,24996,2,EL,1,100,0.256161
1574868736.876507,144884.000,24996,2,EL,1,100,0.256765
1574868736.945404,144942.000,25014,1,EL,1,100,0.255114
1574868737.013708,144999.500,25032,2,EL,1,100,0.257611
1574868737.082011,145057.000,25032,2,EL,1,100,0.254751
1574868737.147939,145112.500,25050,2,EL,1,100,0.258497
1574868737.213867,145168.000,25050,2,EL,1,100,0.254429
1574868737.277419,145221.500,25068,2,EL,1,100,0.257974
1574868737.340971,145275.000,25068,2,EL,1,100,0.256241
1574868737.406898,145330.500,25084,2,EL,1,100,0.256765
1574868737.472826,145386.000,25084,2,EL,1,100,0.256765
1574868737.542912,145445.000,25102,1,EL,1,100,0.255194
1574868737.610621,145502.000,25120,2,EL,1,100,0.258215
1574868737.678331,145559.000,25120,2,EL,1,100,0.255677
1574868737.745446,145615.500,25138,2,EL,1,100,0.257490
1574868737.812562,145672.000,25138,2,EL,1,100,0.255315
1574868737.876708,145726.000,25156,2,EL,1,100,0.258014
1574868737.940854,145780.000,25156,2,EL,1,100,0.256241
1574868738.005594,145834.500,25175,2,EL,1,100,0.257853
1574868738.070334,145889.000,25175,2,EL,1,100,0.256846
1574868738.143983,145951.000,25193,1,EL,1,100,0.255436
1574868738.210505,146007.000,25211,2,EL,1,100,0.258940
1574868738.277026,146063.000,25211,2,EL,1,100,0.256040
1574868738.345924,146121.000,25228,2,EL,1,100,0.258538
1574868738.414821,146179.000,25228,2,EL,1,100,0.255516
1574868738.478374,146232.500,25246,2,EL,1,100,0.258296
1574868738.541925,146286.000,25246,2,EL,1,100,0.256725
1574868738.607259,146341.000,25263,2,EL,1,100,0.257651
1574868738.672593,146396.000,25263,2,EL,1,100,0.257047
1574868738.743866,146456.000,25280,1,EL,1,100,0.255919
1574868738.810388,146512.000,25298,2,EL,1,100,0.258497
1574868738.876910,146568.000,25298,2,EL,1,100,0.255436
1574868738.944619,146625.000,25316,2,EL,1,100,0.258014
1574868739.012329,146682.000,25316,2,EL,1,100,0.255758
1574868739.074693,146734.500,25335,2,EL,1,100,0.258175
1574868739.137057,146787.000,25335,2,EL,1,100,0.255234
1574868739.202985,146842.500,25353,2,EL,1,100,0.257369
1574868739.268913,146898.000,25353,2,EL,1,100,0.255597
1574868739.336622,146955.000,25371,2,EL,1,100,0.257369
1574868739.404332,147012.000,25371,2,EL,1,100,0.258094
1574868739.475605,147072.000,25389,1,EL,1,100,0.256201
1574868739.543315,147129.000,25406,2,EL,1,100,0.258900
1574868739.611025,147186.000,25406,2,EL,1,100,0.256725
1574868739.681110,147245.000,25424,2,EL,1,100,0.257974
1574868739.751195,147304.000,25424,2,EL,1,100,0.256725
1574868739.817717,147360.000,25440,2,EL,1,100,0.256564
1574868739.884239,147416.000,25440,2,EL,1,100,0.258578
1574868739.948385,147470.000,25458,1,EL,1,100,0.256040
1574868740.012531,147524.000,25477,2,EL,1,100,0.258940
1574868740.076677,147578.000,25477,2,EL,1,100,0.254952
1574868740.143792,147634.500,25495,2,EL,1,100,0.258981
1574868740.210908,147691.000,25495,2,EL,1,100,0.256725
1574868740.280400,147749.500,25513,2,EL,1,100,0.258497
1574868740.349891,147808.000,25513,2,EL,1,100,0.256443
1574868740.417601,147865.000,25531,2,EL,1,100,0.256403
1574868740.485310,147922.000,25531,2,EL,1,100,0.260028
1574868740.549456,147976.000,25549,1,EL,1,100,0.256765
1574868740.611820,148028.500,25566,2,EL,1,100,0.258054
1574868740.674184,148081.000,25566,2,EL,1,100,0.255637
1574868740.741894,148138.000,25584,2,EL,1,100,0.259182
1574868740.809603,148195.000,25584,2,EL,1,100,0.255879
1574868740.877313,148252.000,25602,2,EL,1,100,0.257611
1574868740.945023,148309.000,25602,2,EL,1,100,0.255758
1574868741.013326,148366.500,25619,2,EL,1,100,0.256564
1574868741.081630,148424.000,25619,2,EL,1,100,0.257772
1574868741.145776,148478.000,25637,1,EL,1,100,0.255234
1574868741.208140,148530.500,25655,2,EL,1,100,0.258658
1574868741.270504,148583.000,25655,2,EL,1,100,0.255033
1574868741.339996,148641.500,25673,2,EL,1,100,0.258538
1574868741.409487,148700.000,25673,2,EL,1,100,0.254227
1574868741.478978,148758.500,25691,2,EL,1,100,0.258054
1574868741.548470,148817.000,25691,2,EL,1,100,0.255677
1574868741.616773,148874.500,25709,2,EL,1,100,0.256080
1574868741.685077,148932.000,25709,2,EL,1,100,0.257812
1574868741.752787,148989.000,25727,1,EL,1,100,0.255758
1574868741.814557,149041.000,25744,2,EL,1,100,0.258054
1574868741.876327,149093.000,25744,2,EL,1,100,0.255557
1574868741.942849,149149.000,25763,2,EL,1,100,0.258256
1574868742.009370,149205.000,25763,2,EL,1,100,0.255798
1574868742.079456,149264.000,25781,2,EL,1,100,0.257651
1574868742.149541,149323.000,25781,2,EL,1,100,0.256523
1574868742.216657,149379.500,25797,2,EL,1,100,0.255557
1574868742.283772,149436.000,25797,2,EL,1,100,0.257208
1574868742.347126,149489.333,25818,3,EL,1,100,0.253784
1574868742.410480,149542.667,25818,3,EL,1,100,0.258699
1574868742.473835,149596.000,25818,3,EL,1,100,0.258175
1574868742.539168,149651.000,25838,1,EL,1,100,0.256403
1574868742.606284,149707.500,25855,2,EL,1,100,0.257410
1574868742.673400,149764.000,25855,2,EL,1,100,0.254388
1574868742.742297,149822.000,25873,2,EL,1,100,0.257853
1574868742.811195,149880.000,25873,2,EL,1,100,0.256121
1574868742.880092,149938.000,25889,2,EL,1,100,0.254469
1574868742.948990,149996.000,25889,2,EL,1,100,0.258054
1574868743.010760,150048.000,25908,1,EL,1,100,0.255919
1574868743.080251,150106.500,25926,2,EL,1,100,0.257611
1574868743.149743,150165.000,25926,2,EL,1,100,0.254912
1574868743.210325,150216.000,25944,2,EL,1,100,0.258175
1574868743.270907,150267.000,25944,2,EL,1,100,0.256241
1574868743.335053,150321.000,25962,2,EL,1,100,0.258135
1574868743.399199,150375.000,25962,2,EL,1,100,0.255355
1574868743.468691,150433.500,25980,2,EL,1,100,0.257812
1574868743.538182,150492.000,25980,2,EL,1,100,0.254832
1574868743.606486,150549.500,25998,2,EL,1,100,0.256040
1574868743.674789,150607.000,25998,2,EL,1,100,0.257893
1574868743.746063,150667.000,26016,1,EL,1,100,0.256080
1574868743.810209,150721.000,26033,2,EL,1,100,0.258538
1574868743.874355,150775.000,26033,2,EL,1,100,0.256241
1574868743.937907,150828.500,26051,2,EL,1,100,0.258094
1574868744.001459,150882.000,26051,2,EL,1,100,0.255234
1574868744.069762,150939.500,26069,2,EL,1,100,0.257772
1574868744.138066,150997.000,26069,2,EL,1,100,0.257611
1574868744.205775,151054.000,26086,2,EL,1,100,0.256926
1574868744.273485,151111.000,26086,2,EL,1,100,0.258779
1574868744.343570,151170.000,26104,1,EL,1,100,0.256443
1574868744.408310,151224.500,26122,2,EL,1,100,0.259303
1574868744.473050,151279.000,26122,2,EL,1,100,0.255194
1574868744.536602,151332.500,26140,2,EL,1,100,0.258699
1574868744.600154,151386.000,26140,2,EL,1,100,0.256080
1574868744.667270,151442.500,26158,2,EL,1,100,0.258860
1574868744.734385,151499.000,26158,2,EL,1,100,0.257087
1574868744.802689,151556.500,26176,2,EL,1,100,0.257531
1574868744.870992,151614.000,26176,2,EL,1,100,0.258618
1574868744.938702,151671.000,26194,1,EL,1,100,0.257329
1574868745.006412,151728.000,26212,2,EL,1,100,0.259061
1574868745.074121,151785.000,26212,2,EL,1,100,0.255597
1574868745.137673,151838.500,26230,2,EL,1,100,0.259746
1574868745.201225,151892.000,26230,2,EL,1,100,0.256805
1574868745.267747,151948.000,26248,2,EL,1,100,0.258538
1574868745.334269,152004.000,26248,2,EL,1,100,0.256846
1574868745.401978,152061.000,26264,2,EL,1,100,0.257812
1574868745.469688,152118.000,26264,2,EL,1,100,0.258699
1574868745.540961,152178.000,26282,1,EL,1,100,0.256080
1574868745.608077,152234.500,26300,2,EL,1,100,0.259424
1574868745.675193,152291.000,26300,2,EL,1,100,0.257007
1574868745.738151,152344.000,26318,2,EL,1,100,0.259746
1574868745.801109,152397.000,26318,2,EL,1,100,0.257410
1574868745.868224,152453.500,26336,2,EL,1,100,0.258860
1574868745.935340,152510.000,26336,2,EL,1,100,0.257369
1574868746.002456,152566.500,26355,2,EL,1,100,0.257047
1574868746.069571,152623.000,26355,2,EL,1,100,0.258578
1574868746.140845,152683.000,26373,1,EL,1,100,0.255677
1574868746.207366,152739.000,26390,2,EL,1,100,0.259021
1574868746.273888,152795.000,26390,2,EL,1,100,0.256846
1574868746.337440,152848.500,26408,2,EL,1,100,0.260189
1574868746.400992,152902.000,26408,2,EL,1,100,0.256523
1574868746.466920,152957.500,26426,2,EL,1,100,0.258900
1574868746.532848,153013.000,26426,2,EL,1,100,0.257772
1574868746.601745,153071.000,26442,2,EL,1,100,0.258699
1574868746.670643,153129.000,26442,2,EL,1,100,0.259021
1574868746.738352,153186.000,26460,1,EL,1,100,0.257933
1574868746.807250,153244.000,26478,2,EL,1,100,0.259746
1574868746.876148,153302.000,26478,2,EL,1,100,0.257410
1574868746.944451,153359.500,26496,2,EL,1,100,0.260270
1574868747.012754,153417.000,26496,2,EL,1,100,0.257732
1574868747.082246,153475.500,26515,2,EL,1,100,0.257329
1574868747.151737,153534.000,26515,2,EL,1,100,0.258658
1574868747.214695,153587.000,26533,2,EL,1,100,0.257249
1574868747.277653,153640.000,26533,2,EL,1,100,0.259666
1574868747.342987,153695.000,26551,1,EL,1,100,0.257087
1574868747.410103,153751.500,26568,2,EL,1,100,0.260149
1574868747.477219,153808.000,26568,2,EL,1,100,0.257611
1574868747.544928,153865.000,26586,2,EL,1,100,0.259867
1574868747.612638,153922.000,26586,2,EL,1,100,0.257047
1574868747.683317,153981.500,26602,2,EL,1,100,0.257329
1574868747.753997,154041.000,26602,2,EL,1,100,0.259384
1574868747.816955,154094.000,26620,1,EL,1,100,0.258336
1574868747.886446,154152.500,26638,2,EL,1,100,0.259464
1574868747.955938,154211.000,26638,2,EL,1,100,0.257249
1574868748.018896,154264.000,26657,2,EL,1,100,0.261156
1574868748.081854,154317.000,26657,2,EL,1,100,0.258296
1574868748.147187,154372.000,26675,2,EL,1,100,0.260350
1574868748.212521,154427.000,26675,2,EL,1,100,0.258779
1574868748.280231,154484.000,26693,2,EL,1,100,0.260068
1574868748.347941,154541.000,26693,2,EL,1,100,0.258820
1574868748.415650,154598.000,26714,2,EL,1,100,0.256886
1574868748.483360,154655.000,26714,2,EL,1,100,0.260592
1574868748.551663,154712.500,26734,2,EL,1,100,0.260874
1574868748.619967,154770.000,26734,2,EL,1,100,0.258054
1574868748.682331,154822.500,26752,2,EL,1,100,0.260471
1574868748.744695,154875.000,26752,2,EL,1,100,0.257732
1574868748.809435,154929.500,26770,2,EL,1,100,0.260592
1574868748.874175,154984.000,26770,2,EL,1,100,0.257933
1574868748.944260,155043.000,26788,2,EL,1,100,0.258296
1574868749.014346,155102.000,26788,2,EL,1,100,0.260109
1574868749.080868,155158.000,26807,1,EL,1,100,0.258135
1574868749.150359,155216.500,26824,2,EL,1,100,0.260511
1574868749.219850,155275.000,26824,2,EL,1,100,0.257611
1574868749.283402,155328.500,26842,2,EL,1,100,0.260391
1574868749.346954,155382.000,26842,2,EL,1,100,0.257732
1574868749.410506,155435.500,26860,2,EL,1,100,0.260391
1574868749.474058,155489.000,26860,2,EL,1,100,0.258820
1574868749.543550,155547.500,26876,2,EL,1,100,0.259666
1574868749.613041,155606.000,26876,2,EL,1,100,0.260109
1574868749.679563,155662.000,26894,1,EL,1,100,0.258658
1574868749.749054,155720.500,26912,2,EL,1,100,0.260793
1574868749.818546,155779.000,26912,2,EL,1,100,0.258014
1574868749.880316,155831.000,26930,2,EL,1,100,0.260632
1574868749.942086,155883.000,26930,2,EL,1,100,0.258578
1574868750.006826,155937.500,26949,2,EL,1,100,0.260632
1574868750.071566,155992.000,26949,2,EL,1,100,0.258215
1574868750.139870,156049.500,26967,2,EL,1,100,0.259625
1574868750.208173,156107.000,26967,2,EL,1,100,0.259666
1574868750.275883,156164.000,26985,1,EL,1,100,0.259384
1574868750.344780,156222.000,27002,2,EL,1,100,0.261519
1574868750.413678,156280.000,27002,2,EL,1,100,0.258417
1574868750.477230,156333.500,27020,2,EL,1,100,0.262284
1574868750.540782,156387.000,27020,2,EL,1,100,0.259182
1574868750.604928,156441.000,27038,2,EL,1,100,0.260874
1574868750.669074,156495.000,27038,2,EL,1,100,0.258538
1574868750.735595,156551.000,27056,2,EL,1,100,0.261075
1574868750.802117,156607.000,27056,2,EL,1,100,0.259343
1574868750.874578,156668.000,27072,1,EL,1,100,0.257490
1574868750.941100,156724.000,27091,2,EL,1,100,0.261075
1574868751.007622,156780.000,27091,2,EL,1,100,0.259222
1574868751.077113,156838.500,27109,2,EL,1,100,0.261156
1574868751.146605,156897.000,27109,2,EL,1,100,0.257974
1574868751.215502,156955.000,27127,2,EL,1,100,0.261196
1574868751.284400,157013.000,27127,2,EL,1,100,0.259263
1574868751.347358,157066.000,27145,2,EL,1,100,0.258900
1574868751.410316,157119.000,27145,2,EL,1,100,0.260874
1574868751.475650,157174.000,27163,2,EL,1,100,0.258215
1574868751.540983,157229.000,27163,2,EL,1,100,0.260149
1574868751.606317,157284.000,27181,1,EL,1,100,0.259222
1574868751.675809,157342.500,27198,2,EL,1,100,0.261156
1574868751.745300,157401.000,27198,2,EL,1,100,0.257812
1574868751.814198,157459.000,27216,2,EL,1,100,0.259424
1574868751.883095,157517.000,27216,2,EL,1,100,0.257410
1574868751.947241,157571.000,27232,2,EL,1,100,0.258497
1574868752.011387,157625.000,27232,2,EL,1,100,0.259988
1574868752.076127,157679.500,27251,2,EL,1,100,0.256161
1574868752.140867,157734.000,27251,2,EL,1,100,0.260471
1574868752.207389,157790.000,27269,1,EL,1,100,0.257531
1574868752.275098,157847.000,27287,2,EL,1,100,0.259504
1574868752.342808,157904.000,27287,2,EL,1,100,0.255677
1574868752.411111,157961.500,27305,2,EL,1,100,0.259988
1574868752.479415,158019.000,27305,2,EL,1,100,0.258014
1574868752.545343,158074.500,27323,2,EL,1,100,0.258094
1574868752.611270,158130.000,27323,2,EL,1,100,0.259827
1574868752.676010,158184.500,27341,2,EL,1,100,0.257007
1574868752.740750,158239.000,27341,2,EL,1,100,0.259585
1574868752.806084,158294.000,27359,1,EL,1,100,0.256564
1574868752.875576,158352.500,27376,2,EL,1,100,0.259786
1574868752.945067,158411.000,27376,2,EL,1,100,0.257410
1574868753.011589,158467.000,27395,2,EL,1,100,0.259464
1574868753.078110,158523.000,27395,2,EL,1,100,0.257289
1574868753.145226,158579.500,27411,2,EL,1,100,0.257047
1574868753.212342,158636.000,27411,2,EL,1,100,0.258497
1574868753.275894,158689.500,27429,2,EL,1,100,0.256080
1574868753.339446,158743.000,27429,2,EL,1,100,0.258739
1574868753.405967,158799.000,27447,1,EL,1,100,0.255959
1574868753.476053,158858.000,27465,2,EL,1,100,0.258497
1574868753.546138,158917.000,27465,2,EL,1,100,0.256080
1574868753.612660,158973.000,27483,2,EL,1,100,0.258981
1574868753.679182,159029.000,27483,2,EL,1,100,0.255919
1574868753.745703,159085.000,27501,2,EL,1,100,0.255798
1574868753.812225,159141.000,27501,2,EL,1,100,0.257208
1574868753.874589,159193.500,27519,2,EL,1,100,0.254187
1574868753.936954,159246.000,27519,2,EL,1,100,0.256685
1574868754.001099,159300.000,27538,1,EL,1,100,0.253099
1574868754.070591,159358.500,27555,2,EL,1,100,0.257128
1574868754.140082,159417.000,27555,2,EL,1,100,0.255959
1574868754.208386,159474.500,27573,2,EL,1,100,0.256644
1574868754.276690,159532.000,27573,2,EL,1,100,0.255114
1574868754.344399,159589.000,27589,2,EL,1,100,0.255234
1574868754.412109,159646.000,27589,2,EL,1,100,0.256483
1574868754.482788,159705.500,27610,2,EL,1,100,0.254227
1574868754.553467,159765.000,27610,2,EL,1,100,0.256403
1574868754.618801,159820.000,27630,2,EL,1,100,0.256161
1574868754.684135,159875.000,27630,2,EL,1,100,0.253583
1574868754.747687,159928.500,27648,2,EL,1,100,0.255839
1574868754.811239,159982.000,27648,2,EL,1,100,0.253583
1574868754.878949,160039.000,27666,2,EL,1,100,0.255114
1574868754.946658,160096.000,27666,2,EL,1,100,0.252777
1574868755.015556,160154.000,27683,2,EL,1,100,0.254751
1574868755.084453,160212.000,27683,2,EL,1,100,0.255355
1574868755.153351,160270.000,27701,1,EL,1,100,0.252253
1574868755.219872,160326.000,27719,2,EL,1,100,0.254751
1574868755.286394,160382.000,27719,2,EL,1,100,0.252737
1574868755.349946,160435.500,27737,2,EL,1,100,0.255355
1574868755.413498,160489.000,27737,2,EL,1,100,0.251971
1574868755.478832,160544.000,27755,2,EL,1,100,0.254590
1574868755.544166,160599.000,27755,2,EL,1,100,0.252334
1574868755.611876,160656.000,27773,2,EL,1,100,0.253623
1574868755.679585,160713.000,27773,2,EL,1,100,0.252415
1574868755.748483,160771.000,27791,1,EL,1,100,0.251770
1574868755.816192,160828.000,27808,2,EL,1,100,0.254227
1574868755.883902,160885.000,27808,2,EL,1,100,0.251609
1574868755.947454,160938.500,27826,2,EL,1,100,0.253381
1574868756.011006,160992.000,27826,2,EL,1,100,0.250964
1574868756.076340,161047.000,27845,2,EL,1,100,0.253986
1574868756.141674,161102.000,27845,2,EL,1,100,0.250239
1574868756.209383,161159.000,27861,2,EL,1,100,0.251689
1574868756.277093,161216.000,27861,2,EL,1,100,0.253744
1574868756.349554,161277.000,27879,1,EL,1,100,0.251569
1574868756.416670,161333.500,27897,2,EL,1,100,0.253623
1574868756.483785,161390.000,27897,2,EL,1,100,0.251045
1574868756.547337,161443.500,27915,2,EL,1,100,0.254187
1574868756.610889,161497.000,27915,2,EL,1,100,0.251166
1574868756.678005,161553.500,27933,2,EL,1,100,0.253542
1574868756.745121,161610.000,27933,2,EL,1,100,0.251125
1574868756.811642,161666.000,27951,2,EL,1,100,0.252495
1574868756.878164,161722.000,27951,2,EL,1,100,0.251810
1574868756.950625,161783.000,27969,1,EL,1,100,0.250320
1574868757.017741,161839.500,27987,2,EL,1,100,0.253583
1574868757.084857,161896.000,27987,2,EL,1,100,0.249353
1574868757.148409,161949.500,28005,2,EL,1,100,0.253059
1574868757.211961,162003.000,28005,2,EL,1,100,0.251166
1574868757.276700,162057.500,28023,2,EL,1,100,0.253905
1574868757.341440,162112.000,28023,2,EL,1,100,0.251246
1574868757.408556,162168.500,28040,2,EL,1,100,0.251851
1574868757.475672,162225.000,28040,2,EL,1,100,0.252052
1574868757.548133,162286.000,28057,1,EL,1,100,0.251407
1574868757.614655,162342.000,28075,2,EL,1,100,0.252656
1574868757.681176,162398.000,28075,2,EL,1,100,0.250562
1574868757.745322,162452.000,28093,2,EL,1,100,0.253945
1574868757.809468,162506.000,28093,2,EL,1,100,0.251045
1574868757.878366,162564.000,28111,2,EL,1,100,0.252817
1574868757.947263,162622.000,28111,2,EL,1,100,0.251488
1574868758.008440,162673.500,28130,2,EL,1,100,0.253019
1574868758.069616,162725.000,28130,2,EL,1,100,0.252253
1574868758.133762,162779.000,28148,2,EL,1,100,0.251851
1574868758.197908,162833.000,28148,2,EL,1,100,0.252979
1574868758.266805,162891.000,28166,1,EL,1,100,0.251045
1574868758.334515,162948.000,28183,2,EL,1,100,0.253623
1574868758.402224,163005.000,28183,2,EL,1,100,0.250642
1574868758.474092,163065.500,28201,2,EL,1,100,0.254147
1574868758.545959,163126.000,28201,2,EL,1,100,0.252012
1574868758.608323,163178.500,28217,2,EL,1,100,0.252173
1574868758.670687,163231.000,28217,2,EL,1,100,0.253744
1574868758.734833,163285.000,28235,2,EL,1,100,0.251488
1574868758.798979,163339.000,28235,2,EL,1,100,0.253059
1574868758.867877,163397.000,28253,1,EL,1,100,0.251448
1574868758.936774,163455.000,28272,2,EL,1,100,0.254147
1574868759.005672,163513.000,28272,2,EL,1,100,0.251770
1574868759.075163,163571.500,28290,2,EL,1,100,0.253663
1574868759.144654,163630.000,28290,2,EL,1,100,0.251085
1574868759.208206,163683.500,28308,2,EL,1,100,0.253059
1574868759.271758,163737.000,28308,2,EL,1,100,0.253059
1574868759.335904,163791.000,28326,2,EL,1,100,0.251770
1574868759.400050,163845.000,28326,2,EL,1,100,0.254026
1574868759.464196,163899.000,28344,1,EL,1,100,0.250602
1574868759.532500,163956.500,28361,2,EL,1,100,0.254509
1574868759.600803,164014.000,28361,2,EL,1,100,0.252213
1574868759.669701,164072.000,28379,2,EL,1,100,0.254630
1574868759.738598,164130.000,28379,2,EL,1,100,0.249877
1574868759.804526,164185.500,28395,2,EL,1,100,0.253059
1574868759.870454,164241.000,28395,2,EL,1,100,0.254227
1574868759.934006,164294.500,28413,2,EL,1,100,0.252979
1574868759.997558,164348.000,28413,2,EL,1,100,0.254711
1574868760.064080,164404.000,28432,1,EL,1,100,0.252938
1574868760.132977,164462.000,28450,2,EL,1,100,0.256040
1574868760.201874,164520.000,28450,2,EL,1,100,0.252938
1574868760.271366,164578.500,28468,2,EL,1,100,0.256080
1574868760.340858,164637.000,28468,2,EL,1,100,0.252173
1574868760.406785,164692.500,28486,2,EL,1,100,0.255194
1574868760.472713,164748.000,28486,2,EL,1,100,0.254670
1574868760.536859,164802.000,28507,3,EL,1,100,0.253865
1574868760.601005,164856.000,28507,3,EL,1,100,0.256000
1574868760.665151,164910.000,28507,3,EL,1,100,0.256483
1574868760.735236,164969.000,28525,1,EL,1,100,0.254832
1574868760.802352,165025.500,28545,2,EL,1,100,0.254832
1574868760.869468,165082.000,28545,2,EL,1,100,0.253140
1574868760.937771,165139.500,28563,2,EL,1,100,0.256725
1574868761.006075,165197.000,28563,2,EL,1,100,0.253865
1574868761.070221,165251.000,28582,2,EL,1,100,0.255436
1574868761.134367,165305.000,28582,2,EL,1,100,0.255436
1574868761.197919,165358.500,28600,2,EL,1,100,0.255476
1574868761.261471,165412.000,28600,2,EL,1,100,0.255557
1574868761.329774,165469.500,28618,2,EL,1,100,0.254670
1574868761.398078,165527.000,28618,2,EL,1,100,0.255919
1574868761.469351,165587.000,28636,1,EL,1,100,0.254348
1574868761.536467,165643.500,28653,2,EL,1,100,0.256967
1574868761.603582,165700.000,28653,2,EL,1,100,0.254469
1574868761.675450,165760.500,28669,2,EL,1,100,0.255758
1574868761.747317,165821.000,28669,2,EL,1,100,0.256403
1574868761.813838,165877.000,28687,1,EL,1,100,0.253744
1574868761.881548,165934.000,28705,2,EL,1,100,0.257692
1574868761.949258,165991.000,28705,2,EL,1,100,0.255154
1574868762.012216,166044.000,28724,2,EL,1,100,0.257208
1574868762.075174,166097.000,28724,2,EL,1,100,0.254872
1574868762.141102,166152.500,28742,2,EL,1,100,0.257249
1574868762.207030,166208.000,28742,2,EL,1,100,0.254469
1574868762.276521,166266.500,28760,2,EL,1,100,0.254832
1574868762.346012,166325.000,28760,2,EL,1,100,0.256523
1574868762.411346,166380.000,28778,1,EL,1,100,0.254952
1574868762.480838,166438.500,28795,2,EL,1,100,0.257128
1574868762.550329,166497.000,28795,2,EL,1,100,0.255758
1574868762.612693,166549.500,28813,2,EL,1,100,0.258296
1574868762.675057,166602.000,28813,2,EL,1,100,0.255355
1574868762.740985,166657.500,28831,2,EL,1,100,0.257128
1574868762.806913,166713.000,28831,2,EL,1,100,0.255275
1574868762.875216,166770.500,28847,2,EL,1,100,0.256604
1574868762.943520,166828.000,28847,2,EL,1,100,0.257087
1574868763.012418,166886.000,28866,1,EL,1,100,0.254711
1574868763.080721,166943.500,28884,2,EL,1,100,0.258417
1574868763.149025,167001.000,28884,2,EL,1,100,0.254670
1574868763.211983,167054.000,28902,2,EL,1,100,0.258054
1574868763.274941,167107.000,28902,2,EL,1,100,0.256161
1574868763.339681,167161.500,28920,2,EL,1,100,0.258497
1574868763.404421,167216.000,28920,2,EL,1,100,0.255677
1574868763.474506,167275.000,28938,2,EL,1,100,0.257490
1574868763.544591,167334.000,28938,2,EL,1,100,0.256121
1574868763.611707,167390.500,28956,2,EL,1,100,0.256322
1574868763.678823,167447.000,28956,2,EL,1,100,0.258497
1574868763.752472,167509.000,28974,1,EL,1,100,0.256241
1574868763.814242,167561.000,28991,2,EL,1,100,0.258981
1574868763.876012,167613.000,28991,2,EL,1,100,0.255476
1574868763.940158,167667.000,29009,2,EL,1,100,0.258739
1574868764.004304,167721.000,29009,2,EL,1,100,0.257329
1574868764.073795,167779.500,29027,2,EL,1,100,0.258054
1574868764.143287,167838.000,29027,2,EL,1,100,0.256805
1574868764.210402,167894.500,29044,2,EL,1,100,0.256685
1574868764.277518,167951.000,29044,2,EL,1,100,0.259182
1574868764.348792,168011.000,29062,1,EL,1,100,0.256443
1574868764.410562,168063.000,29080,2,EL,1,100,0.258538
1574868764.472332,168115.000,29080,2,EL,1,100,0.255234
1574868764.536478,168169.000,29098,2,EL,1,100,0.259142
1574868764.600624,168223.000,29098,2,EL,1,100,0.256483
1574868764.670115,168281.500,29116,2,EL,1,100,0.258215
1574868764.739607,168340.000,29116,2,EL,1,100,0.257853
1574868764.806128,168396.000,29134,2,EL,1,100,0.258094
1574868764.872650,168452.000,29134,2,EL,1,100,0.258094
1574868764.943923,168512.000,29152,1,EL,1,100,0.255557
1574868765.008069,168566.000,29170,2,EL,1,100,0.259867
1574868765.072215,168620.000,29170,2,EL,1,100,0.256523
1574868765.135767,168673.500,29188,2,EL,1,100,0.259182
1574868765.199319,168727.000,29188,2,EL,1,100,0.256805
1574868765.265247,168782.500,29206,2,EL,1,100,0.258860
1574868765.331175,168838.000,29206,2,EL,1,100,0.257249
1574868765.395915,168892.500,29223,2,EL,1,100,0.257812
1574868765.460655,168947.000,29223,2,EL,1,100,0.258578
1574868765.527770,169003.500,29240,2,EL,1,100,0.257611
1574868765.594886,169060.000,29240,2,EL,1,100,0.259625
1574868765.664971,169119.000,29258,1,EL,1,100,0.256926
1574868765.732681,169176.000,29276,2,EL,1,100,0.260028
1574868765.800390,169233.000,29276,2,EL,1,100,0.256241
1574868765.871664,169293.000,29294,2,EL,1,100,0.258497
1574868765.942937,169353.000,29294,2,EL,1,100,0.258900
1574868766.009459,169409.000,29313,2,EL,1,100,0.257732
1574868766.075981,169465.000,29313,2,EL,1,100,0.259424
1574868766.140126,169519.000,29331,1,EL,1,100,0.256483
1574868766.203679,169572.500,29348,2,EL,1,100,0.260914
1574868766.267231,169626.000,29348,2,EL,1,100,0.256604
1574868766.333752,169682.000,29366,2,EL,1,100,0.259384
1574868766.400274,169738.000,29366,2,EL,1,100,0.256523
1574868766.469765,169796.500,29384,2,EL,1,100,0.259384
1574868766.539257,169855.000,29384,2,EL,1,100,0.257651
1574868766.606570,169911.667,29403,3,EL,1,100,0.255758
1574868766.673884,169968.333,29403,3,EL,1,100,0.259585
1574868766.741198,170025.000,29403,3,EL,1,100,0.260552
1574868766.804156,170078.000,29423,1,EL,1,100,0.258014
1574868766.868896,170132.500,29441,2,EL,1,100,0.259061
1574868766.933636,170187.000,29441,2,EL,1,100,0.257531
1574868767.000751,170243.500,29459,2,EL,1,100,0.261116
1574868767.067867,170300.000,29459,2,EL,1,100,0.256926
1574868767.137358,170358.500,29477,2,EL,1,100,0.259142
1574868767.206850,170417.000,29477,2,EL,1,100,0.257692
1574868767.274559,170474.000,29493,2,EL,1,100,0.258417
1574868767.342269,170531.000,29493,2,EL,1,100,0.259746
1574868767.404039,170583.000,29511,2,EL,1,100,0.257651
1574868767.465810,170635.000,29511,2,EL,1,100,0.259827
