EpochTimestamp,EmotiBitTimestamp,PacketNumber,DataLength,TypeTag,ProtocolVersion,DataReliability,GX
1574868621.104945,47424.000,7896,9,GX,1,100,-1.343
1574868621.104945,47424.000,7896,9,GX,1,100,-11.230
1574868621.104945,47424.000,7896,9,GX,1,100,-12.207
1574868621.104945,47424.000,7896,9,GX,1,100,-12.695
1574868621.104945,47424.000,7896,9,GX,1,100,-17.670
1574868621.104945,47424.000,7896,9,GX,1,100,-18.799
1574868621.104945,47424.000,7896,9,GX,1,100,-24.353
1574868621.104945,47424.000,7896,9,GX,1,100,-30.640
1574868621.104945,47424.000,7896,9,GX,1,100,-13.458
1574868621.142958,47456.000,7913,3,GX,1,100,-4.395
1574868621.180970,47488.000,7913,3,GX,1,100,-3.693
1574868621.218983,47520.000,7913,3,GX,1,100,2.838
1574868621.261351,47555.667,7931,3,GX,1,100,-1.343
1574868621.303719,47591.333,7931,3,GX,1,100,-4.150
1574868621.346087,47627.000,7931,3,GX,1,100,-3.662
1574868621.387663,47662.000,7949,3,GX,1,100,4.456
1574868621.429239,47697.000,7949,3,GX,1,100,3.021
1574868621.470815,47732.000,7949,3,GX,1,100,2.472
1574868621.510807,47765.667,7967,3,GX,1,100,5.920
1574868621.550799,47799.333,7967,3,GX,1,100,3.143
1574868621.590791,47833.000,7967,3,GX,1,100,-0.763
1574868621.632764,47868.333,7985,3,GX,1,100,-6.775
1574868621.674736,47903.667,7985,3,GX,1,100,-8.331
1574868621.716708,47939.000,7985,3,GX,1,100,-8.270
1574868621.753928,47970.333,8003,3,GX,1,100,-4.700
1574868621.791149,48001.667,8003,3,GX,1,100,-1.862
1574868621.828369,48033.000,8003,3,GX,1,100,0.397
1574868621.866382,48065.000,8021,3,GX,1,100,1.160
1574868621.904394,48097.000,8021,3,GX,1,100,-0.061
1574868621.942406,48129.000,8021,3,GX,1,100,-1.740
1574868621.987150,48166.667,8039,3,GX,1,100,-1.587
1574868622.031894,48204.333,8039,3,GX,1,100,-0.244
1574868622.076638,48242.000,8039,3,GX,1,100,0.824
1574868622.117422,48276.333,8057,3,GX,1,100,2.350
1574868622.158206,48310.667,8057,3,GX,1,100,3.967
1574868622.198990,48345.000,8057,3,GX,1,100,4.852
1574868622.240170,48379.667,8075,3,GX,1,100,11.200
1574868622.281350,48414.333,8075,3,GX,1,100,6.927
1574868622.322531,48449.000,8075,3,GX,1,100,0.580
1574868622.361731,48482.000,8091,3,GX,1,100,2.411
1574868622.400931,48515.000,8091,3,GX,1,100,4.547
1574868622.440131,48548.000,8091,3,GX,1,100,5.768
1574868622.478144,48580.000,8109,3,GX,1,100,6.195
1574868622.516156,48612.000,8109,3,GX,1,100,4.913
1574868622.554169,48644.000,8109,3,GX,1,100,4.059
1574868622.594161,48677.667,8127,3,GX,1,100,-1.038
1574868622.634153,48711.333,8127,3,GX,1,100,-6.775
1574868622.674145,48745.000,8127,3,GX,1,100,-5.798
1574868622.715326,48779.667,8145,3,GX,1,100,-4.944
1574868622.756505,48814.333,8145,3,GX,1,100,-5.310
1574868622.797686,48849.000,8145,3,GX,1,100,0.000
1574868622.839262,48884.000,8163,2,GX,1,100,4.425
1574868622.880838,48919.000,8163,2,GX,1,100,6.134
1574868622.924790,48956.000,8181,3,GX,1,100,5.219
1574868622.968742,48993.000,8181,3,GX,1,100,1.984
1574868623.012693,49030.000,8181,3,GX,1,100,-0.549
1574868623.050409,49061.750,8199,4,GX,1,100,-0.488
1574868623.088124,49093.500,8199,4,GX,1,100,0.122
1574868623.125840,49125.250,8199,4,GX,1,100,-0.153
1574868623.163555,49157.000,8199,4,GX,1,100,-0.763
1574868623.202755,49190.000,8218,3,GX,1,100,1.465
1574868623.241956,49223.000,8218,3,GX,1,100,2.075
1574868623.281156,49256.000,8218,3,GX,1,100,2.563
1574868623.323326,49291.500,8235,2,GX,1,100,3.723
1574868623.365496,49327.000,8235,2,GX,1,100,2.411
1574868623.406280,49361.333,8253,3,GX,1,100,3.571
1574868623.447064,49395.667,8253,3,GX,1,100,4.486
1574868623.487849,49430.000,8253,3,GX,1,100,3.998
1574868623.529425,49465.000,8269,3,GX,1,100,9.369
1574868623.571001,49500.000,8269,3,GX,1,100,12.177
1574868623.612577,49535.000,8269,3,GX,1,100,18.677
1574868623.649797,49566.333,8287,3,GX,1,100,23.651
1574868623.687018,49597.667,8287,3,GX,1,100,22.369
1574868623.724238,49629.000,8287,3,GX,1,100,15.442
1574868623.766210,49664.333,8305,3,GX,1,100,10.193
1574868623.808182,49699.667,8305,3,GX,1,100,5.035
1574868623.850154,49735.000,8305,3,GX,1,100,1.404
1574868623.890939,49769.333,8323,3,GX,1,100,-2.533
1574868623.931723,49803.667,8323,3,GX,1,100,-2.136
1574868623.972507,49838.000,8323,3,GX,1,100,1.282
1574868624.012895,49872.000,8341,3,GX,1,100,5.066
1574868624.053283,49906.000,8341,3,GX,1,100,2.106
1574868624.093672,49940.000,8341,3,GX,1,100,0.244
1574868624.135247,49975.000,8360,3,GX,1,100,-1.953
1574868624.176824,50010.000,8360,3,GX,1,100,-1.495
1574868624.218400,50045.000,8360,3,GX,1,100,1.984
1574868624.256412,50077.000,8378,3,GX,1,100,2.319
1574868624.294425,50109.000,8378,3,GX,1,100,0.824
1574868624.332437,50141.000,8378,3,GX,1,100,1.740
1574868624.371241,50173.667,8396,3,GX,1,100,3.357
1574868624.410046,50206.333,8396,3,GX,1,100,3.967
1574868624.448850,50239.000,8396,3,GX,1,100,7.690
1574868624.489634,50273.333,8413,3,GX,1,100,8.911
1574868624.530418,50307.667,8413,3,GX,1,100,7.050
1574868624.571203,50342.000,8413,3,GX,1,100,4.608
1574868624.615550,50379.333,8431,3,GX,1,100,3.632
1574868624.659898,50416.667,8431,3,GX,1,100,3.967
1574868624.704246,50454.000,8431,3,GX,1,100,2.869
1574868624.745030,50488.333,8449,3,GX,1,100,4.852
1574868624.785814,50522.667,8449,3,GX,1,100,2.960
1574868624.826598,50557.000,8449,3,GX,1,100,1.099
1574868624.864215,50588.667,8465,3,GX,1,100,2.045
1574868624.901831,50620.333,8465,3,GX,1,100,1.282
1574868624.939448,50652.000,8465,3,GX,1,100,0.824
1574868624.977856,50684.333,8483,3,GX,1,100,2.045
1574868625.016264,50716.667,8483,3,GX,1,100,3.235
1574868625.054673,50749.000,8483,3,GX,1,100,2.869
1574868625.095061,50783.000,8502,3,GX,1,100,4.303
1574868625.135449,50817.000,8502,3,GX,1,100,5.951
1574868625.175838,50851.000,8502,3,GX,1,100,10.040
1574868625.217413,50886.000,8520,3,GX,1,100,18.402
1574868625.258990,50921.000,8520,3,GX,1,100,28.107
1574868625.300566,50956.000,8520,3,GX,1,100,30.396
1574868625.345309,50993.667,8538,3,GX,1,100,12.482
1574868625.390053,51031.333,8538,3,GX,1,100,-15.808
1574868625.434797,51069.000,8538,3,GX,1,100,-21.667
1574868625.472809,51101.000,8556,3,GX,1,100,-35.980
1574868625.510822,51133.000,8556,3,GX,1,100,-59.357
1574868625.548834,51165.000,8556,3,GX,1,100,-78.033
1574868625.586847,51197.000,8574,3,GX,1,100,-111.206
1574868625.624859,51229.000,8574,3,GX,1,100,-145.020
1574868625.662872,51261.000,8574,3,GX,1,100,87.799
1574868625.703656,51295.333,8592,3,GX,1,100,64.209
1574868625.744440,51329.667,8592,3,GX,1,100,-18.127
1574868625.785224,51364.000,8592,3,GX,1,100,-3.357
1574868625.826800,51399.000,8609,3,GX,1,100,14.984
1574868625.868376,51434.000,8609,3,GX,1,100,13.428
1574868625.909952,51469.000,8609,3,GX,1,100,2.899
1574868625.951528,51504.000,8627,3,GX,1,100,-34.790
1574868625.993104,51539.000,8627,3,GX,1,100,-67.627
1574868626.034680,51574.000,8627,3,GX,1,100,-75.195
1574868626.073485,51606.667,8643,3,GX,1,100,-37.598
1574868626.112289,51639.333,8643,3,GX,1,100,152.344
1574868626.151093,51672.000,8643,3,GX,1,100,12.634
1574868626.189106,51704.000,8662,3,GX,1,100,44.708
1574868626.227118,51736.000,8662,3,GX,1,100,62.469
1574868626.265131,51768.000,8662,3,GX,1,100,50.049
1574868626.307103,51803.333,8680,3,GX,1,100,12.146
1574868626.349075,51838.667,8680,3,GX,1,100,-39.062
1574868626.391047,51874.000,8680,3,GX,1,100,-109.802
1574868626.431831,51908.333,8698,3,GX,1,100,-151.367
1574868626.472615,51942.667,8698,3,GX,1,100,-120.667
1574868626.513399,51977.000,8698,3,GX,1,100,145.905
1574868626.554183,52011.333,8716,3,GX,1,100,-47.119
1574868626.594968,52045.667,8716,3,GX,1,100,1.801
1574868626.635752,52080.000,8716,3,GX,1,100,36.774
1574868626.675744,52113.667,8734,3,GX,1,100,44.556
1574868626.715736,52147.333,8734,3,GX,1,100,51.086
1574868626.755728,52181.000,8734,3,GX,1,100,49.927
1574868626.792553,52212.000,8752,3,GX,1,100,42.542
1574868626.829377,52243.000,8752,3,GX,1,100,35.370
1574868626.866202,52274.000,8752,3,GX,1,100,32.654
1574868626.906194,52307.667,8770,3,GX,1,100,39.612
1574868626.946187,52341.333,8770,3,GX,1,100,39.490
1574868626.986179,52375.000,8770,3,GX,1,100,42.908
1574868627.029180,52411.200,8791,5,GX,1,100,36.133
1574868627.072182,52447.400,8791,5,GX,1,100,35.187
1574868627.115183,52483.600,8791,5,GX,1,100,39.368
1574868627.158185,52519.800,8791,5,GX,1,100,44.342
1574868627.201186,52556.000,8791,5,GX,1,100,29.480
1574868627.242168,52590.500,8812,2,GX,1,100,19.470
1574868627.283151,52625.000,8812,2,GX,1,100,12.054
1574868627.322747,52658.333,8830,3,GX,1,100,22.797
1574868627.362343,52691.667,8830,3,GX,1,100,23.224
1574868627.401939,52725.000,8830,3,GX,1,100,6.836
1574868627.440348,52757.333,8848,3,GX,1,100,5.646
1574868627.478756,52789.667,8848,3,GX,1,100,17.181
1574868627.517165,52822.000,8848,3,GX,1,100,13.641
1574868627.556959,52855.500,8866,4,GX,1,100,2.380
1574868627.596753,52889.000,8866,4,GX,1,100,2.899
1574868627.636547,52922.500,8866,4,GX,1,100,5.524
1574868627.676342,52956.000,8866,4,GX,1,100,2.380
1574868627.718512,52991.500,8883,2,GX,1,100,-0.977
1574868627.760682,53027.000,8883,2,GX,1,100,-1.770
1574868627.801070,53061.000,8901,3,GX,1,100,-3.510
1574868627.841458,53095.000,8901,3,GX,1,100,-5.524
1574868627.881846,53129.000,8901,3,GX,1,100,3.632
1574868627.925402,53165.667,8919,3,GX,1,100,9.125
1574868627.968958,53202.333,8919,3,GX,1,100,3.326
1574868628.012514,53239.000,8919,3,GX,1,100,-3.143
1574868628.050130,53270.667,8935,3,GX,1,100,-1.190
1574868628.087747,53302.333,8935,3,GX,1,100,-0.916
1574868628.125363,53334.000,8935,3,GX,1,100,-1.953
1574868628.164959,53367.333,8954,3,GX,1,100,-0.397
1574868628.204556,53400.667,8954,3,GX,1,100,-0.946
1574868628.244152,53434.000,8954,3,GX,1,100,-2.472
1574868628.284540,53468.000,8972,3,GX,1,100,-1.831
1574868628.324929,53502.000,8972,3,GX,1,100,-0.824
1574868628.365317,53536.000,8972,3,GX,1,100,-1.251
1574868628.406497,53570.667,8990,3,GX,1,100,-2.045
1574868628.447677,53605.333,8990,3,GX,1,100,-1.038
1574868628.488857,53640.000,8990,3,GX,1,100,-1.282
1574868628.529641,53674.333,9008,3,GX,1,100,-1.953
1574868628.570425,53708.667,9008,3,GX,1,100,-1.495
1574868628.611209,53743.000,9008,3,GX,1,100,-0.458
1574868628.648826,53774.667,9026,3,GX,1,100,-0.732
1574868628.686442,53806.333,9026,3,GX,1,100,0.031
1574868628.724059,53838.000,9026,3,GX,1,100,2.441
1574868628.767615,53874.667,9044,3,GX,1,100,0.305
1574868628.811171,53911.333,9044,3,GX,1,100,-4.852
1574868628.854727,53948.000,9044,3,GX,1,100,-3.601
1574868628.895511,53982.333,9062,3,GX,1,100,-1.343
1574868628.936295,54016.667,9062,3,GX,1,100,-2.045
1574868628.977079,54051.000,9062,3,GX,1,100,-2.258
1574868629.018259,54085.667,9079,3,GX,1,100,-2.136
1574868629.059439,54120.333,9079,3,GX,1,100,-2.960
1574868629.100619,54155.000,9079,3,GX,1,100,-3.479
1574868629.141403,54189.333,9098,3,GX,1,100,-4.028
1574868629.182188,54223.667,9098,3,GX,1,100,-4.303
1574868629.222972,54258.000,9098,3,GX,1,100,-6.531
1574868629.260192,54289.333,9114,3,GX,1,100,-8.667
1574868629.297413,54320.667,9114,3,GX,1,100,-8.453
1574868629.334633,54352.000,9114,3,GX,1,100,-8.301
1574868629.374229,54385.333,9132,3,GX,1,100,-6.531
1574868629.413826,54418.667,9132,3,GX,1,100,-9.735
1574868629.453422,54452.000,9132,3,GX,1,100,-9.186
1574868629.494206,54486.333,9150,3,GX,1,100,0.122
1574868629.534990,54520.667,9150,3,GX,1,100,0.824
1574868629.575774,54555.000,9150,3,GX,1,100,-2.197
1574868629.620518,54592.667,9168,3,GX,1,100,-3.235
1574868629.665262,54630.333,9168,3,GX,1,100,-1.587
1574868629.710006,54668.000,9168,3,GX,1,100,-2.533
1574868629.750394,54702.000,9186,3,GX,1,100,-6.348
1574868629.790782,54736.000,9186,3,GX,1,100,-7.568
1574868629.831170,54770.000,9186,3,GX,1,100,-6.683
1574868629.869975,54802.667,9204,3,GX,1,100,-8.942
1574868629.908779,54835.333,9204,3,GX,1,100,-11.810
1574868629.947583,54868.000,9204,3,GX,1,100,-31.708
1574868629.985200,54899.667,9222,3,GX,1,100,-52.521
1574868630.022816,54931.333,9222,3,GX,1,100,-41.656
1574868630.060433,54963.000,9222,3,GX,1,100,-39.520
1574868630.101217,54997.333,9241,3,GX,1,100,-57.526
1574868630.142001,55031.667,9241,3,GX,1,100,-67.291
1574868630.182785,55066.000,9241,3,GX,1,100,-54.657
1574868630.223965,55100.667,9258,3,GX,1,100,-48.157
1574868630.265146,55135.333,9258,3,GX,1,100,-44.159
1574868630.306325,55170.000,9258,3,GX,1,100,-26.642
1574868630.347110,55204.333,9276,3,GX,1,100,-8.972
1574868630.387894,55238.667,9276,3,GX,1,100,-3.418
1574868630.428678,55273.000,9276,3,GX,1,100,5.188
1574868630.473224,55310.500,9292,2,GX,1,100,-8.087
1574868630.517770,55348.000,9292,2,GX,1,100,1.648
1574868630.555782,55380.000,9310,4,GX,1,100,20.264
1574868630.593794,55412.000,9310,4,GX,1,100,15.594
1574868630.631807,55444.000,9310,4,GX,1,100,-9.399
1574868630.669819,55476.000,9310,4,GX,1,100,-17.212
1574868630.710207,55510.000,9328,3,GX,1,100,-3.082
1574868630.750596,55544.000,9328,3,GX,1,100,8.453
1574868630.790984,55578.000,9328,3,GX,1,100,17.181
1574868630.832560,55613.000,9346,2,GX,1,100,17.548
1574868630.874136,55648.000,9346,2,GX,1,100,7.568
1574868630.915712,55683.000,9364,3,GX,1,100,-17.151
1574868630.957288,55718.000,9364,3,GX,1,100,-38.574
1574868630.998864,55753.000,9364,3,GX,1,100,-43.823
1574868631.039253,55787.000,9382,3,GX,1,100,-34.943
1574868631.079641,55821.000,9382,3,GX,1,100,-10.101
1574868631.120029,55855.000,9382,3,GX,1,100,-4.669
1574868631.157645,55886.667,9401,3,GX,1,100,1.160
1574868631.195262,55918.333,9401,3,GX,1,100,11.658
1574868631.232878,55950.000,9401,3,GX,1,100,24.261
1574868631.272079,55983.000,9419,3,GX,1,100,55.145
1574868631.311279,56016.000,9419,3,GX,1,100,96.161
1574868631.350479,56049.000,9419,3,GX,1,100,125.427
1574868631.394827,56086.333,9436,3,GX,1,100,114.105
1574868631.439175,56123.667,9436,3,GX,1,100,68.756
1574868631.483522,56161.000,9436,3,GX,1,100,22.278
1574868631.524307,56195.333,9454,3,GX,1,100,1.129
1574868631.565091,56229.667,9454,3,GX,1,100,6.531
1574868631.605875,56264.000,9454,3,GX,1,100,27.405
1574868631.645867,56297.667,9470,3,GX,1,100,69.183
1574868631.685859,56331.333,9470,3,GX,1,100,67.810
1574868631.725852,56365.000,9470,3,GX,1,100,22.369
1574868631.763864,56397.000,9488,4,GX,1,100,6.714
1574868631.801877,56429.000,9488,4,GX,1,100,9.796
1574868631.839889,56461.000,9488,4,GX,1,100,18.066
1574868631.877901,56493.000,9488,4,GX,1,100,21.362
1574868631.917102,56526.000,9506,3,GX,1,100,12.512
1574868631.956302,56559.000,9506,3,GX,1,100,14.069
1574868631.995502,56592.000,9506,3,GX,1,100,4.395
1574868632.035890,56626.000,9524,2,GX,1,100,-12.573
1574868632.076279,56660.000,9524,2,GX,1,100,-15.533
1574868632.120626,56697.333,9543,3,GX,1,100,-9.705
1574868632.164974,56734.667,9543,3,GX,1,100,-11.017
1574868632.209322,56772.000,9543,3,GX,1,100,-22.583
1574868632.250106,56806.333,9561,3,GX,1,100,-31.555
1574868632.290890,56840.667,9561,3,GX,1,100,-25.269
1574868632.331675,56875.000,9561,3,GX,1,100,-17.609
1574868632.369291,56906.667,9579,3,GX,1,100,-9.766
1574868632.406907,56938.333,9579,3,GX,1,100,-5.798
1574868632.444524,56970.000,9579,3,GX,1,100,-7.629
1574868632.483328,57002.667,9597,3,GX,1,100,-2.380
1574868632.522133,57035.333,9597,3,GX,1,100,-23.773
1574868632.560937,57068.000,9597,3,GX,1,100,0.885
1574868632.602117,57102.667,9615,3,GX,1,100,27.435
1574868632.643297,57137.333,9615,3,GX,1,100,39.673
1574868632.684477,57172.000,9615,3,GX,1,100,51.300
1574868632.726053,57207.000,9632,3,GX,1,100,28.107
1574868632.767629,57242.000,9632,3,GX,1,100,-4.578
1574868632.809206,57277.000,9632,3,GX,1,100,-26.642
1574868632.850386,57311.667,9650,3,GX,1,100,-24.628
1574868632.891566,57346.333,9650,3,GX,1,100,-4.395
1574868632.932746,57381.000,9650,3,GX,1,100,7.172
1574868632.969966,57412.333,9667,3,GX,1,100,-1.404
1574868633.007187,57443.667,9667,3,GX,1,100,-8.331
1574868633.044407,57475.000,9667,3,GX,1,100,-3.845
1574868633.085033,57509.200,9689,5,GX,1,100,-1.160
1574868633.125659,57543.400,9689,5,GX,1,100,1.587
1574868633.166285,57577.600,9689,5,GX,1,100,3.204
1574868633.206910,57611.800,9689,5,GX,1,100,-1.617
1574868633.247536,57646.000,9689,5,GX,1,100,-4.730
1574868633.289112,57681.000,9709,3,GX,1,100,-8.789
1574868633.330688,57716.000,9709,3,GX,1,100,-6.683
1574868633.372264,57751.000,9709,3,GX,1,100,-2.045
1574868633.413049,57785.333,9726,3,GX,1,100,0.916
1574868633.453833,57819.667,9726,3,GX,1,100,0.397
1574868633.494617,57854.000,9726,3,GX,1,100,-0.732
1574868633.534213,57887.333,9744,3,GX,1,100,-2.563
1574868633.573809,57920.667,9744,3,GX,1,100,-3.662
1574868633.613406,57954.000,9744,3,GX,1,100,-3.296
1574868633.651814,57986.333,9762,3,GX,1,100,-1.923
1574868633.690223,58018.667,9762,3,GX,1,100,-1.740
1574868633.728631,58051.000,9762,3,GX,1,100,-1.190
1574868633.771791,58087.333,9778,3,GX,1,100,-5.066
1574868633.814951,58123.667,9778,3,GX,1,100,-10.101
1574868633.858111,58160.000,9778,3,GX,1,100,-8.972
1574868633.898895,58194.333,9796,3,GX,1,100,-9.888
1574868633.939679,58228.667,9796,3,GX,1,100,-7.965
1574868633.980463,58263.000,9796,3,GX,1,100,-3.723
1574868634.021445,58297.500,9814,2,GX,1,100,-1.526
1574868634.062427,58332.000,9814,2,GX,1,100,1.282
1574868634.104003,58367.000,9833,3,GX,1,100,2.258
1574868634.145579,58402.000,9833,3,GX,1,100,1.007
1574868634.187155,58437.000,9833,3,GX,1,100,-1.373
1574868634.225465,58469.250,9851,4,GX,1,100,-0.244
1574868634.263774,58501.500,9851,4,GX,1,100,-0.153
1574868634.302084,58533.750,9851,4,GX,1,100,-0.580
1574868634.340393,58566.000,9851,4,GX,1,100,-1.526
1574868634.379197,58598.667,9869,3,GX,1,100,-2.747
1574868634.418002,58631.333,9869,3,GX,1,100,-2.350
1574868634.456806,58664.000,9869,3,GX,1,100,-3.113
1574868634.497590,58698.333,9887,3,GX,1,100,-4.578
1574868634.538374,58732.667,9887,3,GX,1,100,-1.648
1574868634.579159,58767.000,9887,3,GX,1,100,4.639
1574868634.626080,58806.500,9904,2,GX,1,100,4.395
1574868634.673002,58846.000,9904,2,GX,1,100,14.130
1574868634.714578,58881.000,9922,3,GX,1,100,23.987
1574868634.756154,58916.000,9922,3,GX,1,100,11.475
1574868634.797730,58951.000,9922,3,GX,1,100,-7.812
1574868634.836138,58983.333,9938,3,GX,1,100,-31.799
1574868634.874547,59015.667,9938,3,GX,1,100,-43.762
1574868634.912955,59048.000,9938,3,GX,1,100,-24.475
1574868634.951364,59080.333,9956,3,GX,1,100,-14.954
1574868634.989772,59112.667,9956,3,GX,1,100,-18.646
1574868635.028180,59145.000,9956,3,GX,1,100,7.904
1574868635.067776,59178.333,9975,3,GX,1,100,-0.397
1574868635.107373,59211.667,9975,3,GX,1,100,20.447
1574868635.146969,59245.000,9975,3,GX,1,100,16.968
1574868635.188545,59280.000,9993,3,GX,1,100,-38.055
1574868635.230121,59315.000,9993,3,GX,1,100,-19.257
1574868635.271697,59350.000,9993,3,GX,1,100,-0.336
1574868635.312877,59384.667,10011,3,GX,1,100,-53.955
1574868635.354058,59419.333,10011,3,GX,1,100,-52.094
1574868635.395238,59454.000,10011,3,GX,1,100,11.261
1574868635.438002,59490.000,10029,3,GX,1,100,33.417
1574868635.480766,59526.000,10029,3,GX,1,100,36.896
1574868635.523530,59562.000,10029,3,GX,1,100,28.595
1574868635.561542,59594.000,10047,3,GX,1,100,14.893
1574868635.599554,59626.000,10047,3,GX,1,100,-34.943
1574868635.637567,59658.000,10047,3,GX,1,100,-39.581
1574868635.678351,59692.333,10065,3,GX,1,100,13.458
1574868635.719135,59726.667,10065,3,GX,1,100,4.333
1574868635.759919,59761.000,10065,3,GX,1,100,-12.726
1574868635.801495,59796.000,10082,3,GX,1,100,4.517
1574868635.843071,59831.000,10082,3,GX,1,100,3.906
1574868635.884647,59866.000,10082,3,GX,1,100,-5.280
1574868635.926224,59901.000,10100,3,GX,1,100,22.705
1574868635.967800,59936.000,10100,3,GX,1,100,16.998
1574868636.009376,59971.000,10100,3,GX,1,100,-26.276
1574868636.048180,60003.667,10116,3,GX,1,100,-19.409
1574868636.086984,60036.333,10116,3,GX,1,100,11.505
1574868636.125789,60069.000,10116,3,GX,1,100,-1.953
1574868636.163801,60101.000,10135,3,GX,1,100,-15.991
1574868636.201813,60133.000,10135,3,GX,1,100,-5.707
1574868636.239826,60165.000,10135,3,GX,1,100,-5.280
1574868636.283382,60201.667,10153,3,GX,1,100,-9.521
1574868636.326938,60238.333,10153,3,GX,1,100,-8.240
1574868636.370494,60275.000,10153,3,GX,1,100,-8.972
1574868636.410882,60309.000,10171,3,GX,1,100,-8.850
1574868636.451270,60343.000,10171,3,GX,1,100,-16.296
1574868636.491658,60377.000,10171,3,GX,1,100,-11.505
1574868636.532442,60411.333,10189,3,GX,1,100,-10.437
1574868636.573226,60445.667,10189,3,GX,1,100,-13.123
1574868636.614011,60480.000,10189,3,GX,1,100,-10.468
1574868636.653607,60513.333,10207,3,GX,1,100,-5.127
1574868636.693203,60546.667,10207,3,GX,1,100,2.258
1574868636.732800,60580.000,10207,3,GX,1,100,3.571
1574868636.769624,60611.000,10225,3,GX,1,100,2.563
1574868636.806448,60642.000,10225,3,GX,1,100,3.204
1574868636.843273,60673.000,10225,3,GX,1,100,-1.434
1574868636.884057,60707.333,10243,3,GX,1,100,0.153
1574868636.924841,60741.667,10243,3,GX,1,100,0.641
1574868636.965626,60776.000,10243,3,GX,1,100,-2.350
1574868637.006014,60810.000,10260,3,GX,1,100,-5.554
1574868637.046402,60844.000,10260,3,GX,1,100,-10.529
1574868637.086790,60878.000,10260,3,GX,1,100,-6.104
1574868637.131138,60915.333,10279,3,GX,1,100,0.427
1574868637.175486,60952.667,10279,3,GX,1,100,-0.122
1574868637.219834,60990.000,10279,3,GX,1,100,3.448
1574868637.262003,61025.500,10295,2,GX,1,100,5.127
1574868637.304173,61061.000,10295,2,GX,1,100,-0.366
1574868637.342186,61093.000,10313,4,GX,1,100,-2.991
1574868637.380198,61125.000,10313,4,GX,1,100,-7.874
1574868637.418211,61157.000,10313,4,GX,1,100,-4.669
1574868637.456223,61189.000,10313,4,GX,1,100,-7.843
1574868637.495028,61221.667,10331,3,GX,1,100,-3.937
1574868637.533832,61254.333,10331,3,GX,1,100,0.671
1574868637.572636,61287.000,10331,3,GX,1,100,-3.418
1574868637.613420,61321.333,10349,3,GX,1,100,-6.989
1574868637.654205,61355.667,10349,3,GX,1,100,-8.209
1574868637.694989,61390.000,10349,3,GX,1,100,-8.606
1574868637.736169,61424.667,10367,3,GX,1,100,-10.193
1574868637.777349,61459.333,10367,3,GX,1,100,-14.771
1574868637.818529,61494.000,10367,3,GX,1,100,-10.193
1574868637.860105,61529.000,10385,2,GX,1,100,-9.583
1574868637.901681,61564.000,10385,2,GX,1,100,-3.448
1574868637.944049,61599.667,10403,3,GX,1,100,-1.587
1574868637.986417,61635.333,10403,3,GX,1,100,5.432
1574868638.028785,61671.000,10403,3,GX,1,100,10.590
1574868638.067095,61703.250,10422,4,GX,1,100,2.930
1574868638.105404,61735.500,10422,4,GX,1,100,-3.784
1574868638.143713,61767.750,10422,4,GX,1,100,-0.671
1574868638.182023,61800.000,10422,4,GX,1,100,-1.343
1574868638.222015,61833.667,10440,3,GX,1,100,2.502
1574868638.262007,61867.333,10440,3,GX,1,100,6.439
1574868638.301999,61901.000,10440,3,GX,1,100,9.033
1574868638.342982,61935.500,10457,2,GX,1,100,9.552
1574868638.383964,61970.000,10457,2,GX,1,100,4.578
1574868638.425144,62004.667,10473,3,GX,1,100,0.397
1574868638.466324,62039.333,10473,3,GX,1,100,2.228
1574868638.507504,62074.000,10473,3,GX,1,100,6.897
1574868638.547496,62107.667,10491,3,GX,1,100,1.678
1574868638.587488,62141.333,10491,3,GX,1,100,1.862
1574868638.627481,62175.000,10491,3,GX,1,100,8.392
1574868638.665493,62207.000,10509,4,GX,1,100,0.000
1574868638.703506,62239.000,10509,4,GX,1,100,-1.587
1574868638.741518,62271.000,10509,4,GX,1,100,2.319
1574868638.779530,62303.000,10509,4,GX,1,100,1.984
1574868638.825264,62341.500,10527,2,GX,1,100,5.951
1574868638.870998,62380.000,10527,2,GX,1,100,5.035
1574868638.912574,62415.000,10545,3,GX,1,100,-1.892
1574868638.954150,62450.000,10545,3,GX,1,100,-8.850
1574868638.995726,62485.000,10545,3,GX,1,100,-10.986
1574868639.036906,62519.667,10563,3,GX,1,100,-10.895
1574868639.078086,62554.333,10563,3,GX,1,100,-10.895
1574868639.119266,62589.000,10563,3,GX,1,100,-17.639
1574868639.158467,62622.000,10585,5,GX,1,100,-14.618
1574868639.197667,62655.000,10585,5,GX,1,100,-10.071
1574868639.236867,62688.000,10585,5,GX,1,100,-12.115
1574868639.276067,62721.000,10585,5,GX,1,100,-22.552
1574868639.315268,62754.000,10585,5,GX,1,100,-27.008
1574868639.354468,62787.000,10605,3,GX,1,100,-63.660
1574868639.393668,62820.000,10605,3,GX,1,100,-115.265
1574868639.432869,62853.000,10605,3,GX,1,100,-73.761
1574868639.473257,62887.000,10623,3,GX,1,100,-15.778
1574868639.513645,62921.000,10623,3,GX,1,100,-3.601
1574868639.554033,62955.000,10623,3,GX,1,100,18.127
1574868639.599173,62993.000,10641,3,GX,1,100,33.508
1574868639.644313,63031.000,10641,3,GX,1,100,21.454
1574868639.689453,63069.000,10641,3,GX,1,100,3.967
1574868639.729841,63103.000,10659,3,GX,1,100,1.495
1574868639.770229,63137.000,10659,3,GX,1,100,4.425
1574868639.810617,63171.000,10659,3,GX,1,100,8.179
1574868639.849025,63203.333,10677,3,GX,1,100,18.463
1574868639.887434,63235.667,10677,3,GX,1,100,8.850
1574868639.925842,63268.000,10677,3,GX,1,100,-14.038
1574868639.963459,63299.667,10695,3,GX,1,100,-3.815
1574868640.001075,63331.333,10695,3,GX,1,100,4.761
1574868640.038692,63363.000,10695,3,GX,1,100,-0.641
1574868640.080268,63398.000,10714,3,GX,1,100,-1.587
1574868640.121844,63433.000,10714,3,GX,1,100,-2.808
1574868640.163420,63468.000,10714,3,GX,1,100,-1.190
1574868640.204600,63502.667,10731,3,GX,1,100,-5.707
1574868640.245780,63537.333,10731,3,GX,1,100,1.953
1574868640.286960,63572.000,10731,3,GX,1,100,11.383
1574868640.327744,63606.333,10749,3,GX,1,100,-6.775
1574868640.368529,63640.667,10749,3,GX,1,100,-15.900
1574868640.409313,63675.000,10749,3,GX,1,100,-16.724
1574868640.447325,63707.000,10765,2,GX,1,100,-13.397
1574868640.485337,63739.000,10765,2,GX,1,100,12.604
1574868640.525429,63772.750,10783,4,GX,1,100,6.073
1574868640.565520,63806.500,10783,4,GX,1,100,-9.155
1574868640.605611,63840.250,10783,4,GX,1,100,-3.021
1574868640.645702,63874.000,10783,4,GX,1,100,9.491
1574868640.686091,63908.000,10801,3,GX,1,100,33.936
1574868640.726479,63942.000,10801,3,GX,1,100,33.081
1574868640.766867,63976.000,10801,3,GX,1,100,-17.151
1574868640.808443,64011.000,10819,2,GX,1,100,-23.621
1574868640.850019,64046.000,10819,2,GX,1,100,30.426
1574868640.891595,64081.000,10837,3,GX,1,100,23.865
1574868640.933171,64116.000,10837,3,GX,1,100,-13.214
1574868640.974747,64151.000,10837,3,GX,1,100,-39.307
1574868641.015532,64185.333,10855,3,GX,1,100,-49.622
1574868641.056316,64219.667,10855,3,GX,1,100,13.794
1574868641.097100,64254.000,10855,3,GX,1,100,29.541
1574868641.134815,64285.750,10874,4,GX,1,100,-7.019
1574868641.172531,64317.500,10874,4,GX,1,100,-4.456
1574868641.210246,64349.250,10874,4,GX,1,100,4.272
1574868641.247962,64381.000,10874,4,GX,1,100,11.841
1574868641.288350,64415.000,10892,2,GX,1,100,7.843
1574868641.328738,64449.000,10892,2,GX,1,100,0.214
1574868641.373086,64486.333,10909,3,GX,1,100,-12.909
1574868641.417434,64523.667,10909,3,GX,1,100,-30.548
1574868641.461782,64561.000,10909,3,GX,1,100,-33.447
1574868641.502566,64595.333,10927,3,GX,1,100,-15.045
1574868641.543350,64629.667,10927,3,GX,1,100,12.787
1574868641.584134,64664.000,10927,3,GX,1,100,10.315
1574868641.624522,64698.000,10943,3,GX,1,100,-4.456
1574868641.664910,64732.000,10943,3,GX,1,100,9.430
1574868641.705298,64766.000,10943,3,GX,1,100,19.287
1574868641.743311,64798.000,10961,3,GX,1,100,15.503
1574868641.781323,64830.000,10961,3,GX,1,100,11.597
1574868641.819336,64862.000,10961,3,GX,1,100,13.214
1574868641.857744,64894.333,10979,3,GX,1,100,9.094
1574868641.896152,64926.667,10979,3,GX,1,100,15.350
1574868641.934561,64959.000,10979,3,GX,1,100,12.329
1574868641.975345,64993.333,10997,3,GX,1,100,1.526
1574868642.016129,65027.667,10997,3,GX,1,100,7.965
1574868642.056913,65062.000,10997,3,GX,1,100,0.763
1574868642.101261,65099.333,11016,3,GX,1,100,-2.563
1574868642.145609,65136.667,11016,3,GX,1,100,4.883
1574868642.189957,65174.000,11016,3,GX,1,100,2.930
1574868642.231137,65208.667,11034,3,GX,1,100,2.502
1574868642.272317,65243.333,11034,3,GX,1,100,1.678
1574868642.313497,65278.000,11034,3,GX,1,100,-0.671
1574868642.351510,65310.000,11052,3,GX,1,100,-0.641
1574868642.389522,65342.000,11052,3,GX,1,100,2.350
1574868642.427534,65374.000,11052,3,GX,1,100,5.920
1574868642.465943,65406.333,11070,3,GX,1,100,5.829
1574868642.504351,65438.667,11070,3,GX,1,100,5.951
1574868642.542759,65471.000,11070,3,GX,1,100,4.669
1574868642.583148,65505.000,11087,3,GX,1,100,7.202
1574868642.623536,65539.000,11087,3,GX,1,100,4.791
1574868642.663924,65573.000,11087,3,GX,1,100,-1.709
1574868642.705500,65608.000,11105,3,GX,1,100,0.183
1574868642.747076,65643.000,11105,3,GX,1,100,1.160
1574868642.788652,65678.000,11105,3,GX,1,100,-2.563
1574868642.830228,65713.000,11121,3,GX,1,100,-3.326
1574868642.871804,65748.000,11121,3,GX,1,100,-3.754
1574868642.913381,65783.000,11121,3,GX,1,100,-0.458
1574868642.951789,65815.333,11139,3,GX,1,100,-0.122
1574868642.990197,65847.667,11139,3,GX,1,100,0.183
1574868643.028606,65880.000,11139,3,GX,1,100,3.204
1574868643.070578,65915.333,11158,3,GX,1,100,1.678
1574868643.112550,65950.667,11158,3,GX,1,100,3.082
1574868643.154522,65986.000,11158,3,GX,1,100,1.862
1574868643.194910,66020.000,11176,3,GX,1,100,1.709
1574868643.235298,66054.000,11176,3,GX,1,100,1.587
1574868643.275686,66088.000,11176,3,GX,1,100,-0.305
1574868643.316866,66122.667,11194,3,GX,1,100,0.702
1574868643.358047,66157.333,11194,3,GX,1,100,0.519
1574868643.399227,66192.000,11194,3,GX,1,100,-1.404
1574868643.440803,66227.000,11212,3,GX,1,100,-0.122
1574868643.482379,66262.000,11212,3,GX,1,100,1.404
1574868643.523955,66297.000,11212,3,GX,1,100,1.740
1574868643.561571,66328.667,11230,3,GX,1,100,-1.526
1574868643.599188,66360.333,11230,3,GX,1,100,-0.427
1574868643.636804,66392.000,11230,3,GX,1,100,1.038
1574868643.675213,66424.333,11248,3,GX,1,100,-0.641
1574868643.713621,66456.667,11248,3,GX,1,100,1.221
1574868643.752029,66489.000,11248,3,GX,1,100,-0.702
1574868643.795981,66526.000,11265,3,GX,1,100,-0.092
1574868643.839933,66563.000,11265,3,GX,1,100,-1.251
1574868643.883885,66600.000,11265,3,GX,1,100,-2.899
1574868643.925065,66634.667,11283,3,GX,1,100,-0.336
1574868643.966245,66669.333,11283,3,GX,1,100,1.984
1574868644.007425,66704.000,11283,3,GX,1,100,1.678
1574868644.048408,66738.500,11299,2,GX,1,100,0.977
1574868644.089390,66773.000,11299,2,GX,1,100,1.831
1574868644.129184,66806.500,11318,4,GX,1,100,0.122
1574868644.168978,66840.000,11318,4,GX,1,100,1.831
1574868644.208772,66873.500,11318,4,GX,1,100,3.174
1574868644.248567,66907.000,11318,4,GX,1,100,1.343
1574868644.286579,66939.000,11336,3,GX,1,100,2.350
1574868644.324591,66971.000,11336,3,GX,1,100,0.122
1574868644.362604,67003.000,11336,3,GX,1,100,0.427
1574868644.403784,67037.667,11354,3,GX,1,100,3.021
1574868644.444964,67072.333,11354,3,GX,1,100,2.167
1574868644.486144,67107.000,11354,3,GX,1,100,3.235
1574868644.526136,67140.667,11372,3,GX,1,100,1.404
1574868644.566129,67174.333,11372,3,GX,1,100,1.160
1574868644.606121,67208.000,11372,3,GX,1,100,-1.343
1574868644.646905,67242.333,11390,3,GX,1,100,-1.099
1574868644.687689,67276.667,11390,3,GX,1,100,-1.312
1574868644.728473,67311.000,11390,3,GX,1,100,0.793
1574868644.769258,67345.333,11408,3,GX,1,100,1.862
1574868644.810042,67379.667,11408,3,GX,1,100,0.092
1574868644.850826,67414.000,11408,3,GX,1,100,0.366
1574868644.892402,67449.000,11425,2,GX,1,100,0.519
1574868644.933978,67484.000,11425,2,GX,1,100,-1.831
1574868644.977930,67521.000,11443,3,GX,1,100,-3.876
1574868645.021882,67558.000,11443,3,GX,1,100,-3.540
1574868645.065834,67595.000,11443,3,GX,1,100,-2.930
1574868645.103846,67627.000,11462,3,GX,1,100,-0.793
1574868645.141858,67659.000,11462,3,GX,1,100,1.831
1574868645.179871,67691.000,11462,3,GX,1,100,2.777
1574868645.219309,67724.200,11483,5,GX,1,100,4.517
1574868645.258747,67757.400,11483,5,GX,1,100,4.883
1574868645.298184,67790.600,11483,5,GX,1,100,3.143
1574868645.337622,67823.800,11483,5,GX,1,100,1.801
1574868645.377060,67857.000,11483,5,GX,1,100,-1.831
1574868645.417844,67891.333,11503,3,GX,1,100,-5.493
1574868645.458628,67925.667,11503,3,GX,1,100,-5.066
1574868645.499413,67960.000,11503,3,GX,1,100,-0.366
1574868645.541385,67995.333,11520,3,GX,1,100,-3.235
1574868645.583357,68030.667,11520,3,GX,1,100,-4.242
1574868645.625329,68066.000,11520,3,GX,1,100,-0.641
1574868645.662549,68097.333,11538,3,GX,1,100,-0.244
1574868645.699770,68128.667,11538,3,GX,1,100,-3.174
1574868645.736990,68160.000,11538,3,GX,1,100,-2.655
1574868645.779358,68195.667,11556,3,GX,1,100,-0.122
1574868645.821726,68231.333,11556,3,GX,1,100,-3.204
1574868645.864094,68267.000,11556,3,GX,1,100,-5.219
1574868645.904878,68301.333,11574,3,GX,1,100,-7.690
1574868645.945662,68335.667,11574,3,GX,1,100,-9.430
1574868645.986447,68370.000,11574,3,GX,1,100,-11.780
1574868646.028023,68405.000,11590,3,GX,1,100,-15.961
1574868646.069599,68440.000,11590,3,GX,1,100,-24.200
1574868646.111175,68475.000,11590,3,GX,1,100,-27.618
1574868646.153147,68510.333,11609,3,GX,1,100,-23.956
1574868646.195119,68545.667,11609,3,GX,1,100,-15.594
1574868646.237091,68581.000,11609,3,GX,1,100,-9.460
1574868646.274708,68612.667,11627,3,GX,1,100,-18.951
1574868646.312324,68644.333,11627,3,GX,1,100,-23.163
1574868646.349940,68676.000,11627,3,GX,1,100,-24.323
1574868646.387953,68708.000,11645,3,GX,1,100,-23.193
1574868646.425965,68740.000,11645,3,GX,1,100,-30.579
1574868646.463978,68772.000,11645,3,GX,1,100,-36.774
1574868646.504366,68806.000,11663,3,GX,1,100,-24.445
1574868646.544754,68840.000,11663,3,GX,1,100,-15.686
1574868646.585142,68874.000,11663,3,GX,1,100,-0.458
1574868646.632658,68914.000,11681,2,GX,1,100,-13.397
1574868646.680173,68954.000,11681,2,GX,1,100,-9.644
1574868646.720958,68988.333,11698,3,GX,1,100,15.442
1574868646.761742,69022.667,11698,3,GX,1,100,20.630
1574868646.802526,69057.000,11698,3,GX,1,100,14.221
1574868646.842518,69090.667,11716,3,GX,1,100,18.250
1574868646.882510,69124.333,11716,3,GX,1,100,22.491
1574868646.922503,69158.000,11716,3,GX,1,100,14.404
1574868646.959921,69189.500,11734,4,GX,1,100,19.409
1574868646.997339,69221.000,11734,4,GX,1,100,22.278
1574868647.034758,69252.500,11734,4,GX,1,100,15.411
1574868647.072176,69284.000,11734,4,GX,1,100,14.404
1574868647.112565,69318.000,11753,3,GX,1,100,16.479
1574868647.152953,69352.000,11753,3,GX,1,100,18.036
1574868647.193341,69386.000,11753,3,GX,1,100,16.724
1574868647.234917,69421.000,11769,3,GX,1,100,13.092
1574868647.276493,69456.000,11769,3,GX,1,100,21.179
1574868647.318069,69491.000,11769,3,GX,1,100,29.633
1574868647.358853,69525.333,11787,3,GX,1,100,31.738
1574868647.399637,69559.667,11787,3,GX,1,100,32.166
1574868647.440422,69594.000,11787,3,GX,1,100,31.250
1574868647.485561,69632.000,11805,2,GX,1,100,21.454
1574868647.530701,69670.000,11805,2,GX,1,100,-1.099
1574868647.568713,69702.000,11823,3,GX,1,100,-18.250
1574868647.606726,69734.000,11823,3,GX,1,100,-14.008
1574868647.644738,69766.000,11823,3,GX,1,100,-12.726
1574868647.684335,69799.333,11841,3,GX,1,100,-17.395
1574868647.723931,69832.667,11841,3,GX,1,100,-14.832
1574868647.763527,69866.000,11841,3,GX,1,100,-13.367
1574868647.801836,69898.250,11859,4,GX,1,100,-9.949
1574868647.840146,69930.500,11859,4,GX,1,100,-5.585
1574868647.878455,69962.750,11859,4,GX,1,100,-1.984
1574868647.916765,69995.000,11859,4,GX,1,100,-4.791
1574868647.956361,70028.333,11877,3,GX,1,100,-8.820
1574868647.995957,70061.667,11877,3,GX,1,100,-8.850
1574868648.035553,70095.000,11877,3,GX,1,100,-10.162
1574868648.077724,70130.500,11896,2,GX,1,100,-10.590
1574868648.119894,70166.000,11896,2,GX,1,100,-10.040
1574868648.160678,70200.333,11913,3,GX,1,100,-4.608
1574868648.201462,70234.667,11913,3,GX,1,100,0.305
1574868648.242246,70269.000,11913,3,GX,1,100,1.831
1574868648.282634,70303.000,11931,3,GX,1,100,1.221
1574868648.323022,70337.000,11931,3,GX,1,100,1.740
1574868648.363410,70371.000,11931,3,GX,1,100,2.716
1574868648.401819,70403.333,11947,3,GX,1,100,0.763
1574868648.440227,70435.667,11947,3,GX,1,100,-0.397
1574868648.478636,70468.000,11947,3,GX,1,100,-1.648
1574868648.521399,70504.000,11965,3,GX,1,100,-1.465
1574868648.564164,70540.000,11965,3,GX,1,100,-1.587
1574868648.606928,70576.000,11965,3,GX,1,100,-1.434
1574868648.643752,70607.000,11983,3,GX,1,100,-0.885
1574868648.680577,70638.000,11983,3,GX,1,100,-0.031
1574868648.717401,70669.000,11983,3,GX,1,100,0.854
1574868648.762145,70706.667,12001,3,GX,1,100,0.763
1574868648.806889,70744.333,12001,3,GX,1,100,0.458
1574868648.851632,70782.000,12001,3,GX,1,100,-0.885
1574868648.892812,70816.667,12019,3,GX,1,100,-1.129
1574868648.933993,70851.333,12019,3,GX,1,100,-1.862
1574868648.975173,70886.000,12019,3,GX,1,100,-0.244
1574868649.012789,70917.667,12037,3,GX,1,100,-1.343
1574868649.050406,70949.333,12037,3,GX,1,100,-1.617
1574868649.088022,70981.000,12037,3,GX,1,100,-1.648
1574868649.127223,71014.000,12056,3,GX,1,100,-1.801
1574868649.166423,71047.000,12056,3,GX,1,100,-0.214
1574868649.205623,71080.000,12056,3,GX,1,100,-0.793
1574868649.245219,71113.333,12074,3,GX,1,100,-0.305
1574868649.284816,71146.667,12074,3,GX,1,100,-0.885
1574868649.324412,71180.000,12074,3,GX,1,100,-1.343
1574868649.369552,71218.000,12091,3,GX,1,100,-0.610
1574868649.414691,71256.000,12091,3,GX,1,100,2.136
1574868649.459831,71294.000,12091,3,GX,1,100,1.160
1574868649.501407,71329.000,12109,3,GX,1,100,0.061
1574868649.542983,71364.000,12109,3,GX,1,100,-6.805
1574868649.584559,71399.000,12109,3,GX,1,100,-20.599
1574868649.621780,71430.333,12127,3,GX,1,100,-12.024
1574868649.659000,71461.667,12127,3,GX,1,100,5.219
1574868649.696221,71493.000,12127,3,GX,1,100,6.958
1574868649.735421,71526.000,12143,3,GX,1,100,7.050
1574868649.774621,71559.000,12143,3,GX,1,100,1.648
1574868649.813822,71592.000,12143,3,GX,1,100,-0.183
1574868649.854210,71626.000,12161,3,GX,1,100,0.885
1574868649.894598,71660.000,12161,3,GX,1,100,-1.373
1574868649.934986,71694.000,12161,3,GX,1,100,-2.533
1574868649.976562,71729.000,12179,3,GX,1,100,-2.777
1574868650.018138,71764.000,12179,3,GX,1,100,-1.434
1574868650.059715,71799.000,12179,3,GX,1,100,3.265
1574868650.101686,71834.333,12198,3,GX,1,100,1.495
1574868650.143659,71869.667,12198,3,GX,1,100,-2.838
1574868650.185631,71905.000,12198,3,GX,1,100,-3.540
1574868650.227603,71940.333,12216,3,GX,1,100,-5.280
1574868650.269575,71975.667,12216,3,GX,1,100,-7.324
1574868650.311547,72011.000,12216,3,GX,1,100,-4.303
1574868650.348767,72042.333,12234,3,GX,1,100,-2.472
1574868650.385988,72073.667,12234,3,GX,1,100,-3.235
1574868650.423208,72105.000,12234,3,GX,1,100,1.343
1574868650.464784,72140.000,12252,3,GX,1,100,3.052
1574868650.506360,72175.000,12252,3,GX,1,100,1.984
1574868650.547936,72210.000,12252,3,GX,1,100,1.434
1574868650.589117,72244.667,12269,3,GX,1,100,2.533
1574868650.630297,72279.333,12269,3,GX,1,100,1.312
1574868650.671477,72314.000,12269,3,GX,1,100,0.153
1574868650.712261,72348.333,12287,3,GX,1,100,1.251
1574868650.753045,72382.667,12287,3,GX,1,100,0.641
1574868650.793829,72417.000,12287,3,GX,1,100,-0.610
1574868650.832238,72449.333,12303,3,GX,1,100,-0.763
1574868650.870646,72481.667,12303,3,GX,1,100,0.732
1574868650.909055,72514.000,12303,3,GX,1,100,-0.488
1574868650.945879,72545.000,12321,3,GX,1,100,-0.732
1574868650.982703,72576.000,12321,3,GX,1,100,0.793
1574868651.019528,72607.000,12321,3,GX,1,100,-1.404
1574868651.061500,72642.333,12340,3,GX,1,100,-1.526
1574868651.103472,72677.667,12340,3,GX,1,100,-0.305
1574868651.145444,72713.000,12340,3,GX,1,100,-1.526
1574868651.183457,72745.000,12358,3,GX,1,100,-0.244
1574868651.221469,72777.000,12358,3,GX,1,100,1.190
1574868651.259481,72809.000,12358,3,GX,1,100,-0.092
1574868651.303136,72845.750,12379,4,GX,1,100,0.763
1574868651.346791,72882.500,12379,4,GX,1,100,1.312
1574868651.390446,72919.250,12379,4,GX,1,100,1.251
1574868651.434101,72956.000,12379,4,GX,1,100,1.465
1574868651.475677,72991.000,12397,3,GX,1,100,0.885
1574868651.517253,73026.000,12397,3,GX,1,100,0.153
1574868651.558829,73061.000,12397,3,GX,1,100,-0.977
1574868651.600009,73095.667,12415,3,GX,1,100,-0.427
1574868651.641189,73130.333,12415,3,GX,1,100,-0.793
1574868651.682369,73165.000,12415,3,GX,1,100,-0.427
1574868651.719986,73196.667,12433,3,GX,1,100,0.305
1574868651.757602,73228.333,12433,3,GX,1,100,0.305
1574868651.795219,73260.000,12433,3,GX,1,100,1.160
1574868651.834815,73293.333,12451,3,GX,1,100,2.411
1574868651.874411,73326.667,12451,3,GX,1,100,-0.031
1574868651.914008,73360.000,12451,3,GX,1,100,-0.153
1574868651.954000,73393.667,12469,3,GX,1,100,-0.031
1574868651.993992,73427.333,12469,3,GX,1,100,-0.366
1574868652.033984,73461.000,12469,3,GX,1,100,-0.458
1574868652.075165,73495.667,12488,3,GX,1,100,0.366
1574868652.116344,73530.333,12488,3,GX,1,100,1.038
1574868652.157525,73565.000,12488,3,GX,1,100,0.305
1574868652.202268,73602.667,12506,3,GX,1,100,0.397
1574868652.247012,73640.333,12506,3,GX,1,100,1.617
1574868652.291756,73678.000,12506,3,GX,1,100,1.160
1574868652.329768,73710.000,12524,3,GX,1,100,-0.183
1574868652.367781,73742.000,12524,3,GX,1,100,0.031
1574868652.405793,73774.000,12524,3,GX,1,100,0.092
1574868652.443806,73806.000,12541,3,GX,1,100,0.671
1574868652.481818,73838.000,12541,3,GX,1,100,-0.519
1574868652.519830,73870.000,12541,3,GX,1,100,1.434
1574868652.560219,73904.000,12559,3,GX,1,100,-0.031
1574868652.600607,73938.000,12559,3,GX,1,100,0.092
1574868652.640995,73972.000,12559,3,GX,1,100,0.702
1574868652.681779,74006.333,12577,3,GX,1,100,-0.885
1574868652.722563,74040.667,12577,3,GX,1,100,-0.977
1574868652.763348,74075.000,12577,3,GX,1,100,-0.854
1574868652.804528,74109.667,12593,3,GX,1,100,-0.397
1574868652.845708,74144.333,12593,3,GX,1,100,0.610
1574868652.886888,74179.000,12593,3,GX,1,100,0.641
1574868652.925296,74211.333,12611,3,GX,1,100,-0.153
1574868652.963705,74243.667,12611,3,GX,1,100,0.671
1574868653.002113,74276.000,12611,3,GX,1,100,-0.671
1574868653.043689,74311.000,12630,3,GX,1,100,-1.129
1574868653.085265,74346.000,12630,3,GX,1,100,0.397
1574868653.126841,74381.000,12630,3,GX,1,100,0.702
1574868653.167229,74415.000,12648,3,GX,1,100,-0.397
1574868653.207618,74449.000,12648,3,GX,1,100,-1.831
1574868653.248006,74483.000,12648,3,GX,1,100,0.092
1574868653.289582,74518.000,12666,3,GX,1,100,-0.061
1574868653.331158,74553.000,12666,3,GX,1,100,-0.092
1574868653.372734,74588.000,12666,3,GX,1,100,0.702
1574868653.414310,74623.000,12684,3,GX,1,100,0.793
1574868653.455886,74658.000,12684,3,GX,1,100,0.610
1574868653.497462,74693.000,12684,3,GX,1,100,0.092
1574868653.536663,74726.000,12702,3,GX,1,100,0.427
1574868653.575863,74759.000,12702,3,GX,1,100,-0.183
1574868653.615063,74792.000,12702,3,GX,1,100,0.122
1574868653.653076,74824.000,12720,3,GX,1,100,1.099
1574868653.691088,74856.000,12720,3,GX,1,100,0.641
1574868653.729100,74888.000,12720,3,GX,1,100,-0.336
1574868653.769093,74921.667,12737,3,GX,1,100,-0.977
1574868653.809085,74955.333,12737,3,GX,1,100,-0.427
1574868653.849077,74989.000,12737,3,GX,1,100,0.153
1574868653.894217,75027.000,12755,3,GX,1,100,0.305
1574868653.939357,75065.000,12755,3,GX,1,100,0.397
1574868653.984496,75103.000,12755,3,GX,1,100,0.549
1574868654.026073,75138.000,12771,2,GX,1,100,1.251
1574868654.067648,75173.000,12771,2,GX,1,100,0.946
1574868654.106255,75205.500,12790,4,GX,1,100,-0.458
1574868654.144861,75238.000,12790,4,GX,1,100,-0.916
1574868654.183468,75270.500,12790,4,GX,1,100,-1.404
1574868654.222074,75303.000,12790,4,GX,1,100,-0.885
1574868654.260482,75335.333,12808,3,GX,1,100,-0.732
1574868654.298891,75367.667,12808,3,GX,1,100,-0.092
1574868654.337299,75400.000,12808,3,GX,1,100,0.336
1574868654.377291,75433.667,12826,3,GX,1,100,1.190
1574868654.417284,75467.333,12826,3,GX,1,100,0.580
1574868654.457276,75501.000,12826,3,GX,1,100,0.641
1574868654.498456,75535.667,12844,3,GX,1,100,-0.244
1574868654.539636,75570.333,12844,3,GX,1,100,-1.099
1574868654.580816,75605.000,12844,3,GX,1,100,-0.916
1574868654.621996,75639.667,12862,3,GX,1,100,-0.244
1574868654.663176,75674.333,12862,3,GX,1,100,-1.038
1574868654.704356,75709.000,12862,3,GX,1,100,-0.885
1574868654.750090,75747.500,12880,2,GX,1,100,-0.305
1574868654.795824,75786.000,12880,2,GX,1,100,-0.366
1574868654.832648,75817.000,12897,4,GX,1,100,0.031
1574868654.869473,75848.000,12897,4,GX,1,100,0.305
1574868654.906297,75879.000,12897,4,GX,1,100,-0.366
1574868654.943122,75910.000,12897,4,GX,1,100,-1.068
1574868654.985886,75946.000,12915,2,GX,1,100,-1.678
1574868655.028650,75982.000,12915,2,GX,1,100,-1.770
1574868655.066662,76014.000,12934,4,GX,1,100,-1.678
1574868655.104675,76046.000,12934,4,GX,1,100,-3.510
1574868655.142687,76078.000,12934,4,GX,1,100,-9.064
1574868655.180700,76110.000,12934,4,GX,1,100,-26.581
1574868655.221484,76144.333,12950,3,GX,1,100,-34.851
1574868655.262268,76178.667,12950,3,GX,1,100,-25.146
1574868655.303052,76213.000,12950,3,GX,1,100,-32.776
1574868655.343836,76247.333,12968,3,GX,1,100,-46.417
1574868655.384620,76281.667,12968,3,GX,1,100,-44.708
1574868655.425405,76316.000,12968,3,GX,1,100,-62.866
1574868655.466980,76351.000,12986,2,GX,1,100,-76.721
1574868655.508557,76386.000,12986,2,GX,1,100,-44.983
1574868655.549737,76420.667,13004,3,GX,1,100,-16.571
1574868655.590917,76455.333,13004,3,GX,1,100,-2.991
1574868655.632097,76490.000,13004,3,GX,1,100,14.343
1574868655.669812,76521.750,13022,4,GX,1,100,15.381
1574868655.707528,76553.500,13022,4,GX,1,100,14.465
1574868655.745243,76585.250,13022,4,GX,1,100,21.332
1574868655.782959,76617.000,13022,4,GX,1,100,22.705
1574868655.822951,76650.667,13040,3,GX,1,100,29.572
1574868655.862943,76684.333,13040,3,GX,1,100,34.729
1574868655.902936,76718.000,13040,3,GX,1,100,43.549
1574868655.949857,76757.500,13058,2,GX,1,100,36.621
1574868655.996778,76797.000,13058,2,GX,1,100,25.330
1574868656.037167,76831.000,13077,3,GX,1,100,25.360
1574868656.077555,76865.000,13077,3,GX,1,100,20.538
1574868656.117943,76899.000,13077,3,GX,1,100,1.160
1574868656.159915,76934.333,13094,3,GX,1,100,-7.568
1574868656.201887,76969.667,13094,3,GX,1,100,-0.610
1574868656.243859,77005.000,13094,3,GX,1,100,-0.305
1574868656.281080,77036.333,13112,3,GX,1,100,0.519
1574868656.318300,77067.667,13112,3,GX,1,100,5.219
1574868656.355521,77099.000,13112,3,GX,1,100,7.385
1574868656.393929,77131.333,13130,3,GX,1,100,3.113
1574868656.432338,77163.667,13130,3,GX,1,100,1.099
1574868656.470746,77196.000,13130,3,GX,1,100,2.747
1574868656.511530,77230.333,13146,3,GX,1,100,1.465
1574868656.552314,77264.667,13146,3,GX,1,100,-0.336
1574868656.593098,77299.000,13146,3,GX,1,100,-1.068
1574868656.637050,77336.000,13164,3,GX,1,100,-0.580
1574868656.681002,77373.000,13164,3,GX,1,100,-1.190
1574868656.724954,77410.000,13164,3,GX,1,100,-1.221
1574868656.766134,77444.667,13182,3,GX,1,100,-1.404
1574868656.807314,77479.333,13182,3,GX,1,100,-1.709
1574868656.848494,77514.000,13182,3,GX,1,100,-1.709
1574868656.886903,77546.333,13200,3,GX,1,100,-0.763
1574868656.925311,77578.667,13200,3,GX,1,100,0.336
1574868656.963719,77611.000,13200,3,GX,1,100,0.183
1574868657.002524,77643.667,13218,3,GX,1,100,1.587
1574868657.041328,77676.333,13218,3,GX,1,100,2.808
1574868657.080132,77709.000,13218,3,GX,1,100,2.838
1574868657.120521,77743.000,13237,3,GX,1,100,1.495
1574868657.160909,77777.000,13237,3,GX,1,100,-0.397
1574868657.201297,77811.000,13237,3,GX,1,100,-1.495
1574868657.242081,77845.333,13255,3,GX,1,100,-3.876
1574868657.282865,77879.667,13255,3,GX,1,100,-6.836
1574868657.323649,77914.000,13255,3,GX,1,100,-11.871
1574868657.365938,77949.600,13276,5,GX,1,100,-12.238
1574868657.408227,77985.200,13276,5,GX,1,100,-13.672
1574868657.450516,78020.800,13276,5,GX,1,100,-12.970
1574868657.492805,78056.400,13276,5,GX,1,100,-13.885
1574868657.535094,78092.000,13276,5,GX,1,100,-18.097
1574868657.572314,78123.333,13296,3,GX,1,100,-13.977
1574868657.609535,78154.667,13296,3,GX,1,100,-2.747
1574868657.646755,78186.000,13296,3,GX,1,100,-6.897
1574868657.686747,78219.667,13314,3,GX,1,100,-4.456
1574868657.726739,78253.333,13314,3,GX,1,100,11.414
1574868657.766732,78287.000,13314,3,GX,1,100,2.197
1574868657.808308,78322.000,13332,3,GX,1,100,-0.671
1574868657.849884,78357.000,13332,3,GX,1,100,3.021
1574868657.891460,78392.000,13332,3,GX,1,100,-5.157
1574868657.931848,78426.000,13350,3,GX,1,100,5.005
1574868657.972236,78460.000,13350,3,GX,1,100,19.135
1574868658.012625,78494.000,13350,3,GX,1,100,-0.336
1574868658.052221,78527.333,13368,3,GX,1,100,-15.900
1574868658.091817,78560.667,13368,3,GX,1,100,-0.793
1574868658.131413,78594.000,13368,3,GX,1,100,2.167
1574868658.169030,78625.667,13386,3,GX,1,100,-6.195
1574868658.206646,78657.333,13386,3,GX,1,100,-9.155
1574868658.244263,78689.000,13386,3,GX,1,100,-26.154
1574868658.287818,78725.667,13404,3,GX,1,100,-34.424
1574868658.331374,78762.333,13404,3,GX,1,100,-40.039
1574868658.374930,78799.000,13404,3,GX,1,100,-44.617
1574868658.415912,78833.500,13420,2,GX,1,100,-47.089
1574868658.456895,78868.000,13420,2,GX,1,100,-56.976
1574868658.495501,78900.500,13438,4,GX,1,100,-73.975
1574868658.534107,78933.000,13438,4,GX,1,100,-90.790
1574868658.572714,78965.500,13438,4,GX,1,100,-86.273
1574868658.611320,78998.000,13438,4,GX,1,100,-61.005
1574868658.658835,79038.000,13456,2,GX,1,100,-39.185
1574868658.706351,79078.000,13456,2,GX,1,100,-44.312
1574868658.747135,79112.333,13474,3,GX,1,100,-50.323
1574868658.787919,79146.667,13474,3,GX,1,100,-38.544
1574868658.828703,79181.000,13474,3,GX,1,100,-32.715
1574868658.869884,79215.667,13492,3,GX,1,100,-28.412
1574868658.911064,79250.333,13492,3,GX,1,100,-20.050
1574868658.952244,79285.000,13492,3,GX,1,100,-15.869
1574868658.990256,79317.000,13510,3,GX,1,100,-9.644
1574868659.028269,79349.000,13510,3,GX,1,100,-4.913
1574868659.066281,79381.000,13510,3,GX,1,100,0.031
1574868659.104689,79413.333,13529,3,GX,1,100,2.594
1574868659.143098,79445.667,13529,3,GX,1,100,8.057
1574868659.181506,79478.000,13529,3,GX,1,100,4.120
1574868659.222686,79512.667,13546,3,GX,1,100,1.770
1574868659.263866,79547.333,13546,3,GX,1,100,-1.190
1574868659.305047,79582.000,13546,3,GX,1,100,2.045
1574868659.345831,79616.333,13564,3,GX,1,100,0.397
1574868659.386615,79650.667,13564,3,GX,1,100,1.068
1574868659.427399,79685.000,13564,3,GX,1,100,2.289
1574868659.472539,79723.000,13580,3,GX,1,100,-0.732
1574868659.517678,79761.000,13580,3,GX,1,100,-0.977
1574868659.562818,79799.000,13580,3,GX,1,100,-0.824
1574868659.600435,79830.667,13598,3,GX,1,100,-0.397
1574868659.638051,79862.333,13598,3,GX,1,100,1.251
1574868659.675668,79894.000,13598,3,GX,1,100,0.641
1574868659.714868,79927.000,13616,3,GX,1,100,0.732
1574868659.754068,79960.000,13616,3,GX,1,100,0.275
1574868659.793268,79993.000,13616,3,GX,1,100,-1.709
1574868659.832865,80026.333,13634,3,GX,1,100,-0.854
1574868659.872461,80059.667,13634,3,GX,1,100,-0.977
1574868659.912057,80093.000,13634,3,GX,1,100,-1.465
1574868659.953238,80127.667,13652,3,GX,1,100,-2.228
1574868659.994418,80162.333,13652,3,GX,1,100,-1.709
1574868660.035598,80197.000,13652,3,GX,1,100,-0.549
1574868660.077174,80232.000,13671,3,GX,1,100,1.892
1574868660.118750,80267.000,13671,3,GX,1,100,1.526
1574868660.160326,80302.000,13671,3,GX,1,100,0.946
1574868660.198734,80334.333,13689,3,GX,1,100,4.333
1574868660.237143,80366.667,13689,3,GX,1,100,2.747
1574868660.275551,80399.000,13689,3,GX,1,100,-2.411
1574868660.317523,80434.333,13707,3,GX,1,100,-1.373
1574868660.359495,80469.667,13707,3,GX,1,100,-0.031
1574868660.401467,80505.000,13707,3,GX,1,100,0.000
1574868660.441855,80539.000,13724,3,GX,1,100,0.641
1574868660.482244,80573.000,13724,3,GX,1,100,0.275
1574868660.522632,80607.000,13724,3,GX,1,100,-0.366
1574868660.564208,80642.000,13742,3,GX,1,100,-0.793
1574868660.605784,80677.000,13742,3,GX,1,100,-0.946
1574868660.647360,80712.000,13742,3,GX,1,100,-0.946
1574868660.688936,80747.000,13758,3,GX,1,100,2.014
1574868660.730512,80782.000,13758,3,GX,1,100,2.655
1574868660.772088,80817.000,13758,3,GX,1,100,2.777
1574868660.810497,80849.333,13776,3,GX,1,100,1.282
1574868660.848905,80881.667,13776,3,GX,1,100,-1.526
1574868660.887313,80914.000,13776,3,GX,1,100,-3.265
1574868660.925326,80946.000,13794,3,GX,1,100,-2.716
1574868660.963338,80978.000,13794,3,GX,1,100,-1.953
1574868661.001351,81010.000,13794,3,GX,1,100,0.061
1574868661.041343,81043.667,13813,3,GX,1,100,0.671
1574868661.081335,81077.333,13813,3,GX,1,100,0.519
1574868661.121327,81111.000,13813,3,GX,1,100,1.465
1574868661.162903,81146.000,13831,2,GX,1,100,-0.519
1574868661.204479,81181.000,13831,2,GX,1,100,0.031
1574868661.249223,81218.667,13849,3,GX,1,100,-1.068
1574868661.293967,81256.333,13849,3,GX,1,100,-2.228
1574868661.338711,81294.000,13849,3,GX,1,100,-0.702
1574868661.378703,81327.667,13867,3,GX,1,100,-0.244
1574868661.418695,81361.333,13867,3,GX,1,100,0.336
1574868661.458688,81395.000,13867,3,GX,1,100,-0.916
1574868661.495512,81426.000,13885,4,GX,1,100,-0.793
1574868661.532336,81457.000,13885,4,GX,1,100,0.641
1574868661.569161,81488.000,13885,4,GX,1,100,0.397
1574868661.605986,81519.000,13885,4,GX,1,100,-1.587
1574868661.646770,81553.333,13902,3,GX,1,100,-2.319
1574868661.687554,81587.667,13902,3,GX,1,100,-1.404
1574868661.728338,81622.000,13902,3,GX,1,100,-1.038
1574868661.769518,81656.667,13920,3,GX,1,100,-2.014
1574868661.810698,81691.333,13920,3,GX,1,100,-1.282
1574868661.851878,81726.000,13920,3,GX,1,100,0.214
1574868661.892663,81760.333,13936,3,GX,1,100,-2.045
1574868661.933447,81794.667,13936,3,GX,1,100,-0.519
1574868661.974231,81829.000,13936,3,GX,1,100,-1.434
1574868662.020558,81868.000,13954,2,GX,1,100,-1.251
1574868662.066886,81907.000,13954,2,GX,1,100,-1.831
1574868662.103711,81938.000,13973,3,GX,1,100,-3.052
1574868662.140535,81969.000,13973,3,GX,1,100,-1.831
1574868662.177360,82000.000,13973,3,GX,1,100,-0.946
1574868662.220520,82036.333,13991,3,GX,1,100,-0.366
1574868662.263680,82072.667,13991,3,GX,1,100,-1.221
1574868662.306839,82109.000,13991,3,GX,1,100,-1.160
1574868662.344456,82140.667,14009,3,GX,1,100,-0.122
1574868662.382072,82172.333,14009,3,GX,1,100,-2.502
1574868662.419689,82204.000,14009,3,GX,1,100,-2.411
1574868662.459285,82237.333,14027,3,GX,1,100,-3.387
1574868662.498881,82270.667,14027,3,GX,1,100,-3.204
1574868662.538478,82304.000,14027,3,GX,1,100,-0.702
1574868662.579262,82338.333,14045,3,GX,1,100,-0.061
1574868662.620046,82372.667,14045,3,GX,1,100,-0.458
1574868662.660830,82407.000,14045,3,GX,1,100,-1.434
1574868662.702406,82442.000,14063,3,GX,1,100,-2.808
1574868662.743982,82477.000,14063,3,GX,1,100,-1.831
1574868662.785558,82512.000,14063,3,GX,1,100,-1.709
1574868662.826738,82546.667,14080,3,GX,1,100,-4.608
1574868662.867918,82581.333,14080,3,GX,1,100,-5.096
1574868662.909099,82616.000,14080,3,GX,1,100,-1.160
1574868662.946715,82647.667,14098,3,GX,1,100,-0.580
1574868662.984332,82679.333,14098,3,GX,1,100,0.061
1574868663.021948,82711.000,14098,3,GX,1,100,1.556
1574868663.064712,82747.000,14117,3,GX,1,100,-0.305
1574868663.107476,82783.000,14117,3,GX,1,100,0.336
1574868663.150240,82819.000,14117,3,GX,1,100,0.916
1574868663.190628,82853.000,14133,3,GX,1,100,-0.366
1574868663.231016,82887.000,14133,3,GX,1,100,-0.763
1574868663.271405,82921.000,14133,3,GX,1,100,-2.167
1574868663.312585,82955.667,14151,3,GX,1,100,-1.007
1574868663.353765,82990.333,14151,3,GX,1,100,-2.197
1574868663.394945,83025.000,14151,3,GX,1,100,-3.021
1574868663.434858,83058.600,14172,5,GX,1,100,-0.122
1574868663.474771,83092.200,14172,5,GX,1,100,4.639
1574868663.514684,83125.800,14172,5,GX,1,100,13.123
1574868663.554597,83159.400,14172,5,GX,1,100,23.804
1574868663.594510,83193.000,14172,5,GX,1,100,33.020
1574868663.631731,83224.333,14190,3,GX,1,100,42.664
1574868663.668951,83255.667,14190,3,GX,1,100,48.370
1574868663.706172,83287.000,14190,3,GX,1,100,47.333
1574868663.746164,83320.667,14210,3,GX,1,100,41.748
1574868663.786156,83354.333,14210,3,GX,1,100,27.222
1574868663.826148,83388.000,14210,3,GX,1,100,-10.101
1574868663.866932,83422.333,14226,3,GX,1,100,-37.659
1574868663.907717,83456.667,14226,3,GX,1,100,-59.753
1574868663.948501,83491.000,14226,3,GX,1,100,-59.448
1574868663.995422,83530.500,14244,2,GX,1,100,-9.216
1574868664.042344,83570.000,14244,2,GX,1,100,35.736
1574868664.083128,83604.333,14263,3,GX,1,100,59.143
1574868664.123912,83638.667,14263,3,GX,1,100,52.246
1574868664.164696,83673.000,14263,3,GX,1,100,52.826
1574868664.202115,83704.500,14281,4,GX,1,100,55.084
1574868664.239533,83736.000,14281,4,GX,1,100,27.496
1574868664.276952,83767.500,14281,4,GX,1,100,2.655
1574868664.314370,83799.000,14281,4,GX,1,100,-4.425
1574868664.354362,83832.667,14299,3,GX,1,100,-32.318
1574868664.394355,83866.333,14299,3,GX,1,100,-33.936
1574868664.434347,83900.000,14299,3,GX,1,100,-39.520
1574868664.475923,83935.000,14317,3,GX,1,100,-55.939
1574868664.517499,83970.000,14317,3,GX,1,100,-60.333
1574868664.559075,84005.000,14317,3,GX,1,100,-47.150
1574868664.600255,84039.667,14335,3,GX,1,100,3.754
1574868664.641435,84074.333,14335,3,GX,1,100,-46.356
1574868664.682615,84109.000,14335,3,GX,1,100,4.608
1574868664.724785,84144.500,14352,2,GX,1,100,29.785
1574868664.766955,84180.000,14352,2,GX,1,100,24.261
1574868664.808136,84214.667,14370,3,GX,1,100,-1.526
1574868664.849316,84249.333,14370,3,GX,1,100,-0.854
1574868664.890496,84284.000,14370,3,GX,1,100,7.965
1574868664.928508,84316.000,14388,3,GX,1,100,19.318
1574868664.966521,84348.000,14388,3,GX,1,100,23.071
1574868665.004533,84380.000,14388,3,GX,1,100,14.832
1574868665.046109,84415.000,14405,3,GX,1,100,6.195
1574868665.087685,84450.000,14405,3,GX,1,100,3.021
1574868665.129261,84485.000,14405,3,GX,1,100,0.275
1574868665.170441,84519.667,14423,3,GX,1,100,4.028
1574868665.211622,84554.333,14423,3,GX,1,100,13.489
1574868665.252802,84589.000,14423,3,GX,1,100,12.756
1574868665.293586,84623.333,14441,3,GX,1,100,12.268
1574868665.334370,84657.667,14441,3,GX,1,100,11.414
1574868665.375154,84692.000,14441,3,GX,1,100,8.728
1574868665.412771,84723.667,14459,3,GX,1,100,1.373
1574868665.450387,84755.333,14459,3,GX,1,100,-2.533
1574868665.488003,84787.000,14459,3,GX,1,100,1.221
1574868665.525224,84818.333,14477,3,GX,1,100,9.277
1574868665.562444,84849.667,14477,3,GX,1,100,14.099
1574868665.599665,84881.000,14477,3,GX,1,100,7.416
1574868665.640053,84915.000,14495,4,GX,1,100,2.380
1574868665.680441,84949.000,14495,4,GX,1,100,1.862
1574868665.720829,84983.000,14495,4,GX,1,100,3.784
1574868665.761218,85017.000,14495,4,GX,1,100,5.585
1574868665.801012,85050.500,14513,2,GX,1,100,6.897
1574868665.840806,85084.000,14513,2,GX,1,100,3.357
1574868665.885946,85122.000,14530,3,GX,1,100,-0.244
1574868665.931086,85160.000,14530,3,GX,1,100,3.571
1574868665.976225,85198.000,14530,3,GX,1,100,9.064
1574868666.017406,85232.667,14549,3,GX,1,100,15.137
1574868666.058586,85267.333,14549,3,GX,1,100,11.169
1574868666.099766,85302.000,14549,3,GX,1,100,5.920
1574868666.141342,85337.000,14567,3,GX,1,100,7.080
1574868666.182918,85372.000,14567,3,GX,1,100,8.484
1574868666.224494,85407.000,14567,3,GX,1,100,5.859
1574868666.262110,85438.667,14583,3,GX,1,100,4.272
1574868666.299727,85470.333,14583,3,GX,1,100,8.362
1574868666.337343,85502.000,14583,3,GX,1,100,12.817
1574868666.376148,85534.667,14601,3,GX,1,100,10.590
1574868666.414952,85567.333,14601,3,GX,1,100,12.360
1574868666.453756,85600.000,14601,3,GX,1,100,10.651
1574868666.494936,85634.667,14619,3,GX,1,100,-1.221
1574868666.536117,85669.333,14619,3,GX,1,100,-0.275
1574868666.577297,85704.000,14619,3,GX,1,100,4.120
1574868666.618873,85739.000,14637,3,GX,1,100,1.068
1574868666.660449,85774.000,14637,3,GX,1,100,0.793
1574868666.702025,85809.000,14637,3,GX,1,100,2.472
1574868666.743205,85843.667,14655,3,GX,1,100,0.000
1574868666.784385,85878.333,14655,3,GX,1,100,2.380
1574868666.825565,85913.000,14655,3,GX,1,100,2.899
1574868666.867141,85948.000,14673,3,GX,1,100,2.014
1574868666.908717,85983.000,14673,3,GX,1,100,2.594
1574868666.950294,86018.000,14673,3,GX,1,100,2.777
1574868666.992464,86053.500,14690,2,GX,1,100,0.427
1574868667.034634,86089.000,14690,2,GX,1,100,1.434
1574868667.075319,86123.250,14709,4,GX,1,100,5.737
1574868667.116004,86157.500,14709,4,GX,1,100,3.021
1574868667.156689,86191.750,14709,4,GX,1,100,-0.061
1574868667.197374,86226.000,14709,4,GX,1,100,1.862
1574868667.235783,86258.333,14727,3,GX,1,100,2.014
1574868667.274191,86290.667,14727,3,GX,1,100,-0.763
1574868667.312599,86323.000,14727,3,GX,1,100,0.549
1574868667.353780,86357.667,14745,3,GX,1,100,1.343
1574868667.394960,86392.333,14745,3,GX,1,100,-0.397
1574868667.436140,86427.000,14745,3,GX,1,100,1.770
1574868667.476924,86461.333,14761,3,GX,1,100,3.021
1574868667.517708,86495.667,14761,3,GX,1,100,2.716
1574868667.558492,86530.000,14761,3,GX,1,100,-2.777
1574868667.600662,86565.500,14779,2,GX,1,100,-0.183
1574868667.642832,86601.000,14779,2,GX,1,100,-0.824
1574868667.681142,86633.250,14797,4,GX,1,100,-1.434
1574868667.719451,86665.500,14797,4,GX,1,100,-2.075
1574868667.757760,86697.750,14797,4,GX,1,100,-1.648
1574868667.796070,86730.000,14797,4,GX,1,100,-0.458
1574868667.837646,86765.000,14815,3,GX,1,100,-0.824
1574868667.879222,86800.000,14815,3,GX,1,100,-0.519
1574868667.920798,86835.000,14815,3,GX,1,100,-1.190
1574868667.961186,86869.000,14833,3,GX,1,100,-1.587
1574868668.001574,86903.000,14833,3,GX,1,100,-0.671
1574868668.041963,86937.000,14833,3,GX,1,100,-0.580
1574868668.083539,86972.000,14852,2,GX,1,100,-0.092
1574868668.125115,87007.000,14852,2,GX,1,100,0.641
1574868668.166295,87041.667,14870,3,GX,1,100,-1.007
1574868668.207475,87076.333,14870,3,GX,1,100,-1.251
1574868668.248655,87111.000,14870,3,GX,1,100,-0.519
1574868668.288251,87144.333,14887,3,GX,1,100,-3.387
1574868668.327847,87177.667,14887,3,GX,1,100,-2.380
1574868668.367444,87211.000,14887,3,GX,1,100,0.092
1574868668.405753,87243.250,14905,4,GX,1,100,-0.671
1574868668.444063,87275.500,14905,4,GX,1,100,0.702
1574868668.482372,87307.750,14905,4,GX,1,100,1.953
1574868668.520681,87340.000,14905,4,GX,1,100,1.282
1574868668.561069,87374.000,14923,3,GX,1,100,0.458
1574868668.601458,87408.000,14923,3,GX,1,100,1.007
1574868668.641846,87442.000,14923,3,GX,1,100,-0.580
1574868668.689362,87482.000,14939,2,GX,1,100,-1.221
1574868668.736877,87522.000,14939,2,GX,1,100,-1.892
1574868668.778057,87556.667,14957,3,GX,1,100,-3.235
1574868668.819237,87591.333,14957,3,GX,1,100,-2.747
1574868668.860417,87626.000,14957,3,GX,1,100,-3.510
1574868668.898826,87658.333,14975,3,GX,1,100,-2.991
1574868668.937234,87690.667,14975,3,GX,1,100,-4.364
1574868668.975642,87723.000,14975,3,GX,1,100,-3.784
1574868669.014051,87755.333,14994,3,GX,1,100,-2.960
1574868669.052459,87787.667,14994,3,GX,1,100,-1.984
1574868669.090868,87820.000,14994,3,GX,1,100,-1.648
1574868669.130068,87853.000,15012,3,GX,1,100,-1.068
1574868669.169268,87886.000,15012,3,GX,1,100,-1.556
1574868669.208468,87919.000,15012,3,GX,1,100,-3.448
1574868669.250045,87954.000,15030,3,GX,1,100,0.000
1574868669.291621,87989.000,15030,3,GX,1,100,0.519
1574868669.333197,88024.000,15030,3,GX,1,100,-0.061
1574868669.374377,88058.667,15048,3,GX,1,100,-0.641
1574868669.415557,88093.333,15048,3,GX,1,100,-2.502
1574868669.456737,88128.000,15048,3,GX,1,100,-2.594
1574868669.497363,88162.200,15069,5,GX,1,100,-1.648
1574868669.537989,88196.400,15069,5,GX,1,100,1.282
1574868669.578614,88230.600,15069,5,GX,1,100,0.549
1574868669.619240,88264.800,15069,5,GX,1,100,-0.488
1574868669.659866,88299.000,15069,5,GX,1,100,0.061
1574868669.699462,88332.333,15087,3,GX,1,100,-0.397
1574868669.739058,88365.667,15087,3,GX,1,100,-2.167
1574868669.778655,88399.000,15087,3,GX,1,100,-0.793
1574868669.820231,88434.000,15107,3,GX,1,100,1.221
1574868669.861807,88469.000,15107,3,GX,1,100,-0.183
1574868669.903383,88504.000,15107,3,GX,1,100,-1.282
1574868669.942583,88537.000,15125,3,GX,1,100,1.617
1574868669.981784,88570.000,15125,3,GX,1,100,0.244
1574868670.020984,88603.000,15125,3,GX,1,100,-2.228
1574868670.061768,88637.333,15144,3,GX,1,100,0.397
1574868670.102552,88671.667,15144,3,GX,1,100,1.373
1574868670.143336,88706.000,15144,3,GX,1,100,-0.214
1574868670.184516,88740.667,15161,3,GX,1,100,-0.732
1574868670.225697,88775.333,15161,3,GX,1,100,-1.404
1574868670.266877,88810.000,15161,3,GX,1,100,0.366
1574868670.308453,88845.000,15179,2,GX,1,100,1.343
1574868670.350029,88880.000,15179,2,GX,1,100,3.113
1574868670.388932,88912.750,15197,4,GX,1,100,2.625
1574868670.427835,88945.500,15197,4,GX,1,100,4.272
1574868670.466739,88978.250,15197,4,GX,1,100,1.892
1574868670.505642,89011.000,15197,4,GX,1,100,0.122
1574868670.543655,89043.000,15213,3,GX,1,100,1.648
1574868670.581667,89075.000,15213,3,GX,1,100,1.465
1574868670.619679,89107.000,15213,3,GX,1,100,4.059
1574868670.661256,89142.000,15231,2,GX,1,100,3.296
1574868670.702832,89177.000,15231,2,GX,1,100,2.106
1574868670.747575,89214.667,15249,3,GX,1,100,1.343
1574868670.792319,89252.333,15249,3,GX,1,100,1.770
1574868670.837063,89290.000,15249,3,GX,1,100,2.411
1574868670.877847,89324.333,15267,3,GX,1,100,0.793
1574868670.918631,89358.667,15267,3,GX,1,100,0.946
1574868670.959415,89393.000,15267,3,GX,1,100,2.533
1574868670.998220,89425.667,15285,3,GX,1,100,1.740
1574868671.037024,89458.333,15285,3,GX,1,100,1.617
1574868671.075828,89491.000,15285,3,GX,1,100,1.373
1574868671.114435,89523.500,15304,4,GX,1,100,1.373
1574868671.153041,89556.000,15304,4,GX,1,100,4.517
1574868671.191648,89588.500,15304,4,GX,1,100,3.662
1574868671.230254,89621.000,15304,4,GX,1,100,1.343
1574868671.270246,89654.667,15322,3,GX,1,100,0.977
1574868671.310238,89688.333,15322,3,GX,1,100,2.106
1574868671.350230,89722.000,15322,3,GX,1,100,1.404
1574868671.391807,89757.000,15339,2,GX,1,100,-1.770
1574868671.433383,89792.000,15339,2,GX,1,100,-1.862
1574868671.478127,89829.667,15357,3,GX,1,100,-2.228
1574868671.522870,89867.333,15357,3,GX,1,100,-1.770
1574868671.567614,89905.000,15357,3,GX,1,100,-2.106
1574868671.606814,89938.000,15375,3,GX,1,100,-1.160
1574868671.646015,89971.000,15375,3,GX,1,100,-0.305
1574868671.685215,90004.000,15375,3,GX,1,100,3.662
1574868671.723227,90036.000,15391,3,GX,1,100,2.838
1574868671.761240,90068.000,15391,3,GX,1,100,-7.080
1574868671.799252,90100.000,15391,3,GX,1,100,-3.143
1574868671.838848,90133.333,15409,3,GX,1,100,-0.275
1574868671.878445,90166.667,15409,3,GX,1,100,-1.404
1574868671.918041,90200.000,15409,3,GX,1,100,-3.754
1574868671.959221,90234.667,15427,3,GX,1,100,-4.242
1574868672.000401,90269.333,15427,3,GX,1,100,-2.838
1574868672.041581,90304.000,15427,3,GX,1,100,-0.275
1574868672.083157,90339.000,15446,3,GX,1,100,-1.190
1574868672.124733,90374.000,15446,3,GX,1,100,1.312
1574868672.166310,90409.000,15446,3,GX,1,100,-1.160
1574868672.206302,90442.667,15464,3,GX,1,100,-0.336
1574868672.246294,90476.333,15464,3,GX,1,100,1.862
1574868672.286286,90510.000,15464,3,GX,1,100,3.784
1574868672.324299,90542.000,15482,3,GX,1,100,5.981
1574868672.362311,90574.000,15482,3,GX,1,100,3.632
1574868672.400323,90606.000,15482,3,GX,1,100,0.580
1574868672.443879,90642.667,15500,3,GX,1,100,-0.916
1574868672.487435,90679.333,15500,3,GX,1,100,-2.045
1574868672.530991,90716.000,15500,3,GX,1,100,-3.784
1574868672.571775,90750.333,15517,3,GX,1,100,-2.502
1574868672.612560,90784.667,15517,3,GX,1,100,-3.052
1574868672.653344,90819.000,15517,3,GX,1,100,-5.035
1574868672.694128,90853.333,15535,3,GX,1,100,-5.768
1574868672.734912,90887.667,15535,3,GX,1,100,-3.754
1574868672.775696,90922.000,15535,3,GX,1,100,-3.326
1574868672.816084,90956.000,15552,3,GX,1,100,-2.808
1574868672.856472,90990.000,15552,3,GX,1,100,-0.061
1574868672.896861,91024.000,15552,3,GX,1,100,-1.343
1574868672.933289,91054.667,15569,3,GX,1,100,0.122
1574868672.969718,91085.333,15569,3,GX,1,100,2.380
1574868673.006146,91116.000,15569,3,GX,1,100,1.221
1574868673.046139,91149.667,15588,3,GX,1,100,1.465
1574868673.086131,91183.333,15588,3,GX,1,100,0.000
1574868673.126123,91217.000,15588,3,GX,1,100,-0.641
1574868673.170471,91254.333,15606,3,GX,1,100,0.183
1574868673.214819,91291.667,15606,3,GX,1,100,-0.336
1574868673.259166,91329.000,15606,3,GX,1,100,0.824
1574868673.297179,91361.000,15624,3,GX,1,100,-0.641
1574868673.335191,91393.000,15624,3,GX,1,100,-0.397
1574868673.373204,91425.000,15624,3,GX,1,100,0.092
1574868673.418344,91463.000,15642,3,GX,1,100,-0.305
1574868673.463483,91501.000,15642,3,GX,1,100,-2.655
1574868673.508623,91539.000,15642,3,GX,1,100,1.068
1574868673.549407,91573.333,15660,3,GX,1,100,-1.129
1574868673.590191,91607.667,15660,3,GX,1,100,-0.610
1574868673.630975,91642.000,15660,3,GX,1,100,0.031
1574868673.672552,91677.000,15678,2,GX,1,100,-3.845
1574868673.714128,91712.000,15678,2,GX,1,100,-3.448
1574868673.751843,91743.750,15695,4,GX,1,100,-4.181
1574868673.789558,91775.500,15695,4,GX,1,100,-6.104
1574868673.827274,91807.250,15695,4,GX,1,100,-3.052
1574868673.864989,91839.000,15695,4,GX,1,100,-2.838
1574868673.904190,91872.000,15713,3,GX,1,100,-2.869
1574868673.943390,91905.000,15713,3,GX,1,100,-3.296
1574868673.982590,91938.000,15713,3,GX,1,100,-5.219
1574868674.023770,91972.667,15729,3,GX,1,100,3.998
1574868674.064950,92007.333,15729,3,GX,1,100,9.705
1574868674.106131,92042.000,15729,3,GX,1,100,-1.526
1574868674.146915,92076.333,15748,3,GX,1,100,-0.366
1574868674.187699,92110.667,15748,3,GX,1,100,1.678
1574868674.228483,92145.000,15748,3,GX,1,100,-0.763
1574868674.270653,92180.500,15766,2,GX,1,100,3.052
1574868674.312823,92216.000,15766,2,GX,1,100,-0.610
1574868674.354795,92251.333,15784,3,GX,1,100,-1.495
1574868674.396767,92286.667,15784,3,GX,1,100,0.824
1574868674.438739,92322.000,15784,3,GX,1,100,3.082
1574868674.476752,92354.000,15802,3,GX,1,100,-1.709
1574868674.514764,92386.000,15802,3,GX,1,100,-3.052
1574868674.552777,92418.000,15802,3,GX,1,100,-2.869
1574868674.592769,92451.667,15820,3,GX,1,100,-2.106
1574868674.632761,92485.333,15820,3,GX,1,100,-3.021
1574868674.672753,92519.000,15820,3,GX,1,100,0.671
1574868674.713933,92553.667,15838,3,GX,1,100,0.275
1574868674.755113,92588.333,15838,3,GX,1,100,-4.272
1574868674.796293,92623.000,15838,3,GX,1,100,-4.303
1574868674.837078,92657.333,15856,3,GX,1,100,0.793
1574868674.877862,92691.667,15856,3,GX,1,100,-0.153
1574868674.918646,92726.000,15856,3,GX,1,100,-1.892
1574868674.958242,92759.333,15873,3,GX,1,100,1.282
1574868674.997838,92792.667,15873,3,GX,1,100,6.744
1574868675.037435,92826.000,15873,3,GX,1,100,13.947
1574868675.079011,92861.000,15892,3,GX,1,100,7.172
1574868675.120587,92896.000,15892,3,GX,1,100,0.885
1574868675.162163,92931.000,15892,3,GX,1,100,12.421
1574868675.202551,92965.000,15910,3,GX,1,100,14.435
1574868675.242939,92999.000,15910,3,GX,1,100,17.151
1574868675.283328,93033.000,15910,3,GX,1,100,18.768
1574868675.324508,93067.667,15926,3,GX,1,100,16.113
1574868675.365688,93102.333,15926,3,GX,1,100,8.514
1574868675.406868,93137.000,15926,3,GX,1,100,6.439
1574868675.447652,93171.333,15944,3,GX,1,100,5.157
1574868675.488436,93205.667,15944,3,GX,1,100,7.935
1574868675.529220,93240.000,15944,3,GX,1,100,6.561
1574868675.568183,93272.800,15965,5,GX,1,100,6.989
1574868675.607146,93305.600,15965,5,GX,1,100,6.165
1574868675.646109,93338.400,15965,5,GX,1,100,-2.014
1574868675.685071,93371.200,15965,5,GX,1,100,-9.033
1574868675.724034,93404.000,15965,5,GX,1,100,-4.272
1574868675.763234,93437.000,15982,3,GX,1,100,-4.333
1574868675.802435,93470.000,15982,3,GX,1,100,-7.141
1574868675.841635,93503.000,15982,3,GX,1,100,-2.747
1574868675.882419,93537.333,16002,3,GX,1,100,1.160
1574868675.923203,93571.667,16002,3,GX,1,100,3.754
1574868675.963987,93606.000,16002,3,GX,1,100,22.827
1574868676.011503,93646.000,16018,2,GX,1,100,29.358
1574868676.059018,93686.000,16018,2,GX,1,100,10.437
1574868676.099802,93720.333,16037,3,GX,1,100,16.113
1574868676.140587,93754.667,16037,3,GX,1,100,22.430
1574868676.181371,93789.000,16037,3,GX,1,100,17.670
1574868676.219383,93821.000,16055,4,GX,1,100,18.890
1574868676.257396,93853.000,16055,4,GX,1,100,17.609
1574868676.295408,93885.000,16055,4,GX,1,100,16.632
1574868676.333421,93917.000,16055,4,GX,1,100,16.815
1574868676.371829,93949.333,16073,3,GX,1,100,7.111
1574868676.410237,93981.667,16073,3,GX,1,100,5.035
1574868676.448646,94014.000,16073,3,GX,1,100,13.977
1574868676.490222,94049.000,16091,3,GX,1,100,15.808
1574868676.531798,94084.000,16091,3,GX,1,100,9.460
1574868676.573374,94119.000,16091,3,GX,1,100,3.906
1574868676.614554,94153.667,16109,3,GX,1,100,-1.617
1574868676.655734,94188.333,16109,3,GX,1,100,-1.312
1574868676.696914,94223.000,16109,3,GX,1,100,-1.160
1574868676.737698,94257.333,16127,3,GX,1,100,-5.310
1574868676.778483,94291.667,16127,3,GX,1,100,-6.744
1574868676.819267,94326.000,16127,3,GX,1,100,-8.789
1574868676.862625,94362.500,16144,2,GX,1,100,-9.552
1574868676.905982,94399.000,16144,2,GX,1,100,-6.348
1574868676.944391,94431.333,16162,3,GX,1,100,-2.808
1574868676.982799,94463.667,16162,3,GX,1,100,-0.610
1574868677.021208,94496.000,16162,3,GX,1,100,-0.824
1574868677.061596,94530.000,16181,3,GX,1,100,-2.441
1574868677.101984,94564.000,16181,3,GX,1,100,-2.838
1574868677.142372,94598.000,16181,3,GX,1,100,-1.862
1574868677.181177,94630.667,16197,3,GX,1,100,0.763
1574868677.219981,94663.333,16197,3,GX,1,100,3.021
1574868677.258785,94696.000,16197,3,GX,1,100,5.310
1574868677.299569,94730.333,16215,3,GX,1,100,7.141
1574868677.340353,94764.667,16215,3,GX,1,100,7.812
1574868677.381138,94799.000,16215,3,GX,1,100,9.064
1574868677.422318,94833.667,16233,3,GX,1,100,8.942
1574868677.463498,94868.333,16233,3,GX,1,100,7.263
1574868677.504678,94903.000,16233,3,GX,1,100,2.380
1574868677.546650,94938.333,16251,3,GX,1,100,-0.610
1574868677.588622,94973.667,16251,3,GX,1,100,-1.343
1574868677.630594,95009.000,16251,3,GX,1,100,-1.526
1574868677.669399,95041.667,16269,3,GX,1,100,-2.136
1574868677.708203,95074.333,16269,3,GX,1,100,-4.547
1574868677.747007,95107.000,16269,3,GX,1,100,-2.808
1574868677.785416,95139.333,16287,3,GX,1,100,2.167
1574868677.823824,95171.667,16287,3,GX,1,100,4.547
1574868677.862232,95204.000,16287,3,GX,1,100,-6.134
1574868677.906184,95241.000,16305,3,GX,1,100,-5.188
1574868677.950136,95278.000,16305,3,GX,1,100,-1.648
1574868677.994088,95315.000,16305,3,GX,1,100,-2.075
1574868678.034476,95349.000,16323,3,GX,1,100,-0.061
1574868678.074864,95383.000,16323,3,GX,1,100,-1.221
1574868678.115252,95417.000,16323,3,GX,1,100,-3.174
1574868678.156829,95452.000,16341,3,GX,1,100,-3.540
1574868678.198405,95487.000,16341,3,GX,1,100,-1.923
1574868678.239981,95522.000,16341,3,GX,1,100,-1.038
1574868678.278785,95554.667,16359,3,GX,1,100,-0.824
1574868678.317590,95587.333,16359,3,GX,1,100,-0.519
1574868678.356394,95620.000,16359,3,GX,1,100,0.519
1574868678.394010,95651.667,16375,3,GX,1,100,-0.854
1574868678.431627,95683.333,16375,3,GX,1,100,-1.526
1574868678.469243,95715.000,16375,3,GX,1,100,-1.282
1574868678.508839,95748.333,16393,3,GX,1,100,-2.930
1574868678.548436,95781.667,16393,3,GX,1,100,-2.777
1574868678.588032,95815.000,16393,3,GX,1,100,-2.014
1574868678.628420,95849.000,16411,3,GX,1,100,-3.082
1574868678.668808,95883.000,16411,3,GX,1,100,-0.458
1574868678.709197,95917.000,16411,3,GX,1,100,-5.707
1574868678.754336,95955.000,16429,3,GX,1,100,-9.705
1574868678.799476,95993.000,16429,3,GX,1,100,-7.355
1574868678.844616,96031.000,16429,3,GX,1,100,-8.759
1574868678.885004,96065.000,16447,3,GX,1,100,-14.130
1574868678.925392,96099.000,16447,3,GX,1,100,-14.618
1574868678.965780,96133.000,16447,3,GX,1,100,-14.984
1574868679.003397,96164.667,16465,3,GX,1,100,-13.916
1574868679.041013,96196.333,16465,3,GX,1,100,-9.979
1574868679.078630,96228.000,16465,3,GX,1,100,-11.841
1574868679.118226,96261.333,16484,3,GX,1,100,-13.458
1574868679.157822,96294.667,16484,3,GX,1,100,-11.475
1574868679.197418,96328.000,16484,3,GX,1,100,-7.538
1574868679.238203,96362.333,16502,3,GX,1,100,-13.519
1574868679.278987,96396.667,16502,3,GX,1,100,-9.521
1574868679.319771,96431.000,16502,3,GX,1,100,-13.611
1574868679.360951,96465.667,16519,3,GX,1,100,-15.259
1574868679.402131,96500.333,16519,3,GX,1,100,-3.387
1574868679.443311,96535.000,16519,3,GX,1,100,7.477
1574868679.484095,96569.333,16537,3,GX,1,100,-17.303
1574868679.524879,96603.667,16537,3,GX,1,100,-11.414
1574868679.565664,96638.000,16537,3,GX,1,100,14.587
1574868679.606844,96672.667,16553,3,GX,1,100,25.635
1574868679.648024,96707.333,16553,3,GX,1,100,-23.193
1574868679.689204,96742.000,16553,3,GX,1,100,-12.695
1574868679.728404,96775.000,16571,3,GX,1,100,20.813
1574868679.767605,96808.000,16571,3,GX,1,100,0.824
1574868679.806805,96841.000,16571,3,GX,1,100,-7.446
1574868679.848381,96876.000,16589,3,GX,1,100,-19.196
1574868679.889957,96911.000,16589,3,GX,1,100,-17.181
1574868679.931533,96946.000,16589,3,GX,1,100,-66.101
1574868679.972317,96980.333,16607,3,GX,1,100,-75.012
1574868680.013102,97014.667,16607,3,GX,1,100,-67.657
1574868680.053886,97049.000,16607,3,GX,1,100,-52.612
1574868680.093878,97082.667,16626,3,GX,1,100,-0.092
1574868680.133870,97116.333,16626,3,GX,1,100,1.312
1574868680.173862,97150.000,16626,3,GX,1,100,-22.491
1574868680.211875,97182.000,16644,3,GX,1,100,-31.799
1574868680.249887,97214.000,16644,3,GX,1,100,-36.072
1574868680.287899,97246.000,16644,3,GX,1,100,-9.521
1574868680.325912,97278.000,16662,3,GX,1,100,7.050
1574868680.363925,97310.000,16662,3,GX,1,100,2.563
1574868680.401937,97342.000,16662,3,GX,1,100,-4.730
1574868680.443909,97377.333,16680,3,GX,1,100,29.999
1574868680.485881,97412.667,16680,3,GX,1,100,37.628
1574868680.527853,97448.000,16680,3,GX,1,100,26.794
1574868680.567053,97481.000,16697,3,GX,1,100,17.731
1574868680.606254,97514.000,16697,3,GX,1,100,9.094
1574868680.645454,97547.000,16697,3,GX,1,100,-0.824
1574868680.691782,97586.000,16715,2,GX,1,100,-1.129
1574868680.738109,97625.000,16715,2,GX,1,100,-3.174
1574868680.779685,97660.000,16731,3,GX,1,100,4.608
1574868680.821261,97695.000,16731,3,GX,1,100,2.686
1574868680.862837,97730.000,16731,3,GX,1,100,-10.193
1574868680.904413,97765.000,16749,3,GX,1,100,-14.832
1574868680.945990,97800.000,16749,3,GX,1,100,-4.883
1574868680.987566,97835.000,16749,3,GX,1,100,-7.080
1574868681.026370,97867.667,16768,3,GX,1,100,-15.564
1574868681.065174,97900.333,16768,3,GX,1,100,-14.862
1574868681.103979,97933.000,16768,3,GX,1,100,-16.418
1574868681.142288,97965.250,16786,4,GX,1,100,1.953
1574868681.180597,97997.500,16786,4,GX,1,100,18.219
1574868681.218907,98029.750,16786,4,GX,1,100,40.649
1574868681.257216,98062.000,16786,4,GX,1,100,49.927
1574868681.297604,98096.000,16804,2,GX,1,100,55.695
1574868681.337993,98130.000,16804,2,GX,1,100,39.673
1574868681.379569,98165.000,16822,3,GX,1,100,-11.292
1574868681.421145,98200.000,16822,3,GX,1,100,-42.969
1574868681.462721,98235.000,16822,3,GX,1,100,-34.271
1574868681.508652,98273.667,16840,3,GX,1,100,-22.034
1574868681.554584,98312.333,16840,3,GX,1,100,-30.457
1574868681.600516,98351.000,16840,3,GX,1,100,-42.999
1574868681.638291,98382.800,16861,5,GX,1,100,-32.776
1574868681.676065,98414.600,16861,5,GX,1,100,-22.552
1574868681.713840,98446.400,16861,5,GX,1,100,-39.795
1574868681.751615,98478.200,16861,5,GX,1,100,-28.351
1574868681.789390,98510.000,16861,5,GX,1,100,11.749
1574868681.828590,98543.000,16881,3,GX,1,100,13.947
1574868681.867791,98576.000,16881,3,GX,1,100,-13.580
1574868681.906991,98609.000,16881,3,GX,1,100,-31.281
1574868681.948567,98644.000,16899,3,GX,1,100,-40.405
1574868681.990143,98679.000,16899,3,GX,1,100,-33.051
1574868682.031719,98714.000,16899,3,GX,1,100,-30.396
1574868682.072503,98748.333,16918,3,GX,1,100,-35.065
1574868682.113287,98782.667,16918,3,GX,1,100,-29.114
1574868682.154072,98817.000,16918,3,GX,1,100,-1.709
1574868682.194064,98850.667,16936,3,GX,1,100,16.632
1574868682.234056,98884.333,16936,3,GX,1,100,11.627
1574868682.274048,98918.000,16936,3,GX,1,100,6.714
1574868682.312061,98950.000,16954,3,GX,1,100,22.461
1574868682.350073,98982.000,16954,3,GX,1,100,28.931
1574868682.388086,99014.000,16954,3,GX,1,100,22.552
1574868682.431246,99050.333,16971,3,GX,1,100,14.832
1574868682.474405,99086.667,16971,3,GX,1,100,20.630
1574868682.517565,99123.000,16971,3,GX,1,100,26.031
1574868682.558745,99157.667,16989,3,GX,1,100,17.151
1574868682.599926,99192.333,16989,3,GX,1,100,14.343
1574868682.641106,99227.000,16989,3,GX,1,100,14.160
1574868682.682088,99261.500,17005,2,GX,1,100,4.913
1574868682.723070,99296.000,17005,2,GX,1,100,-4.547
1574868682.764646,99331.000,17023,3,GX,1,100,-4.395
1574868682.806222,99366.000,17023,3,GX,1,100,2.380
1574868682.847798,99401.000,17023,3,GX,1,100,9.552
1574868682.886107,99433.250,17041,4,GX,1,100,5.157
1574868682.924417,99465.500,17041,4,GX,1,100,2.319
1574868682.962726,99497.750,17041,4,GX,1,100,-5.066
1574868683.001036,99530.000,17041,4,GX,1,100,-8.698
1574868683.040236,99563.000,17060,3,GX,1,100,-14.008
1574868683.079436,99596.000,17060,3,GX,1,100,-23.956
1574868683.118637,99629.000,17060,3,GX,1,100,-26.093
1574868683.159421,99663.333,17078,3,GX,1,100,-15.686
1574868683.200205,99697.667,17078,3,GX,1,100,-5.066
1574868683.240989,99732.000,17078,3,GX,1,100,-1.617
1574868683.288505,99772.000,17096,2,GX,1,100,-3.174
1574868683.336020,99812.000,17096,2,GX,1,100,-6.531
1574868683.377200,99846.667,17114,3,GX,1,100,-8.728
1574868683.418380,99881.333,17114,3,GX,1,100,-16.296
1574868683.459560,99916.000,17114,3,GX,1,100,-15.747
1574868683.496781,99947.333,17131,3,GX,1,100,-22.675
1574868683.534001,99978.667,17131,3,GX,1,100,-21.362
1574868683.571222,100010.000,17131,3,GX,1,100,-16.876
1574868683.610026,100042.667,17149,3,GX,1,100,-30.548
1574868683.648831,100075.333,17149,3,GX,1,100,-13.245
1574868683.687635,100108.000,17149,3,GX,1,100,4.791
1574868683.727627,100141.667,17167,3,GX,1,100,-38.177
1574868683.767619,100175.333,17167,3,GX,1,100,-65.430
1574868683.807612,100209.000,17167,3,GX,1,100,-76.996
1574868683.849188,100244.000,17183,3,GX,1,100,-65.674
1574868683.890764,100279.000,17183,3,GX,1,100,-62.286
1574868683.932340,100314.000,17183,3,GX,1,100,-73.761
1574868683.973124,100348.333,17201,3,GX,1,100,-64.514
1574868684.013908,100382.667,17201,3,GX,1,100,-46.295
1574868684.054692,100417.000,17201,3,GX,1,100,3.662
1574868684.097060,100452.667,17220,3,GX,1,100,39.886
1574868684.139428,100488.333,17220,3,GX,1,100,46.448
1574868684.181796,100524.000,17220,3,GX,1,100,25.116
1574868684.223372,100559.000,17238,3,GX,1,100,-11.353
1574868684.264949,100594.000,17238,3,GX,1,100,13.336
1574868684.306525,100629.000,17238,3,GX,1,100,35.522
1574868684.346913,100663.000,17256,3,GX,1,100,34.790
1574868684.387301,100697.000,17256,3,GX,1,100,30.731
1574868684.427689,100731.000,17256,3,GX,1,100,21.301
1574868684.465702,100763.000,17274,3,GX,1,100,3.571
1574868684.503714,100795.000,17274,3,GX,1,100,-1.007
1574868684.541726,100827.000,17274,3,GX,1,100,-0.183
1574868684.582115,100861.000,17292,3,GX,1,100,-8.270
1574868684.622503,100895.000,17292,3,GX,1,100,-6.622
1574868684.662891,100929.000,17292,3,GX,1,100,6.531
1574868684.704071,100963.667,17309,3,GX,1,100,4.883
1574868684.745251,100998.333,17309,3,GX,1,100,6.104
1574868684.786431,101033.000,17309,3,GX,1,100,22.980
1574868684.828007,101068.000,17327,3,GX,1,100,21.210
1574868684.869583,101103.000,17327,3,GX,1,100,14.435
1574868684.911160,101138.000,17327,3,GX,1,100,12.695
1574868684.949964,101170.667,17345,3,GX,1,100,19.409
1574868684.988768,101203.333,17345,3,GX,1,100,16.937
1574868685.027573,101236.000,17345,3,GX,1,100,16.174
1574868685.065585,101268.000,17362,3,GX,1,100,7.935
1574868685.103597,101300.000,17362,3,GX,1,100,5.402
1574868685.141610,101332.000,17362,3,GX,1,100,7.629
1574868685.185166,101368.667,17380,3,GX,1,100,10.223
1574868685.228722,101405.333,17380,3,GX,1,100,6.714
1574868685.272278,101442.000,17380,3,GX,1,100,-0.519
1574868685.313458,101476.667,17398,3,GX,1,100,-4.639
1574868685.354638,101511.333,17398,3,GX,1,100,-0.275
1574868685.395818,101546.000,17398,3,GX,1,100,2.686
1574868685.436206,101580.000,17416,3,GX,1,100,0.488
1574868685.476594,101614.000,17416,3,GX,1,100,2.350
1574868685.516982,101648.000,17416,3,GX,1,100,6.226
1574868685.557371,101682.000,17434,3,GX,1,100,7.965
1574868685.597759,101716.000,17434,3,GX,1,100,13.367
1574868685.638147,101750.000,17434,3,GX,1,100,16.357
1574868685.675368,101781.333,17452,3,GX,1,100,14.587
1574868685.712588,101812.667,17452,3,GX,1,100,4.974
1574868685.749809,101844.000,17452,3,GX,1,100,6.073
1574868685.788613,101876.667,17470,3,GX,1,100,7.660
1574868685.827417,101909.333,17470,3,GX,1,100,-7.050
1574868685.866221,101942.000,17470,3,GX,1,100,-14.587
1574868685.907798,101977.000,17487,3,GX,1,100,-8.759
1574868685.949374,102012.000,17487,3,GX,1,100,-2.289
1574868685.990950,102047.000,17487,3,GX,1,100,1.587
1574868686.035298,102084.333,17506,3,GX,1,100,2.472
1574868686.079645,102121.667,17506,3,GX,1,100,2.289
1574868686.123993,102159.000,17506,3,GX,1,100,1.984
1574868686.163985,102192.667,17524,3,GX,1,100,-2.075
1574868686.203978,102226.333,17524,3,GX,1,100,-3.662
1574868686.243970,102260.000,17524,3,GX,1,100,-7.629
1574868686.281982,102292.000,17540,3,GX,1,100,-8.240
1574868686.319995,102324.000,17540,3,GX,1,100,-4.517
1574868686.358007,102356.000,17540,3,GX,1,100,-1.343
1574868686.397603,102389.333,17558,3,GX,1,100,-1.404
1574868686.437200,102422.667,17558,3,GX,1,100,-4.028
1574868686.476796,102456.000,17558,3,GX,1,100,-1.678
1574868686.518372,102491.000,17576,3,GX,1,100,-1.068
1574868686.559948,102526.000,17576,3,GX,1,100,-1.129
1574868686.601524,102561.000,17576,3,GX,1,100,0.061
1574868686.642308,102595.333,17594,3,GX,1,100,-0.061
1574868686.683092,102629.667,17594,3,GX,1,100,1.495
1574868686.723876,102664.000,17594,3,GX,1,100,1.892
1574868686.766641,102700.000,17612,2,GX,1,100,2.838
1574868686.809405,102736.000,17612,2,GX,1,100,2.319
1574868686.850189,102770.333,17630,3,GX,1,100,2.411
1574868686.890973,102804.667,17630,3,GX,1,100,1.282
1574868686.931757,102839.000,17630,3,GX,1,100,1.068
1574868686.969769,102871.000,17648,3,GX,1,100,0.702
1574868687.007782,102903.000,17648,3,GX,1,100,4.547
1574868687.045794,102935.000,17648,3,GX,1,100,2.960
1574868687.086974,102969.667,17666,3,GX,1,100,-2.930
1574868687.128155,103004.333,17666,3,GX,1,100,-1.648
1574868687.169335,103039.000,17666,3,GX,1,100,3.693
1574868687.210515,103073.667,17684,3,GX,1,100,-1.404
1574868687.251695,103108.333,17684,3,GX,1,100,-7.660
1574868687.292875,103143.000,17684,3,GX,1,100,5.737
1574868687.333659,103177.333,17702,3,GX,1,100,7.996
1574868687.374443,103211.667,17702,3,GX,1,100,-4.944
1574868687.415227,103246.000,17702,3,GX,1,100,-2.716
1574868687.452349,103277.250,17720,4,GX,1,100,5.219
1574868687.489470,103308.500,17720,4,GX,1,100,6.226
1574868687.526592,103339.750,17720,4,GX,1,100,-0.732
1574868687.563713,103371.000,17720,4,GX,1,100,-8.362
1574868687.603706,103404.667,17736,3,GX,1,100,-5.096
1574868687.643698,103438.333,17736,3,GX,1,100,6.348
1574868687.683690,103472.000,17736,3,GX,1,100,9.338
1574868687.727642,103509.000,17757,4,GX,1,100,2.014
1574868687.771594,103546.000,17757,4,GX,1,100,-1.678
1574868687.815546,103583.000,17757,4,GX,1,100,1.465
1574868687.859498,103620.000,17757,4,GX,1,100,2.411
1574868687.897510,103652.000,17776,3,GX,1,100,-1.038
1574868687.935522,103684.000,17776,3,GX,1,100,-1.953
1574868687.973535,103716.000,17776,3,GX,1,100,0.275
1574868688.018279,103753.667,17794,3,GX,1,100,0.427
1574868688.063022,103791.333,17794,3,GX,1,100,2.045
1574868688.107766,103829.000,17794,3,GX,1,100,1.587
1574868688.148946,103863.667,17811,3,GX,1,100,-1.770
1574868688.190126,103898.333,17811,3,GX,1,100,-1.556
1574868688.231306,103933.000,17811,3,GX,1,100,3.265
1574868688.270507,103966.000,17829,3,GX,1,100,7.965
1574868688.309707,103999.000,17829,3,GX,1,100,6.439
1574868688.348907,104032.000,17829,3,GX,1,100,1.678
1574868688.387712,104064.667,17847,3,GX,1,100,-0.397
1574868688.426516,104097.333,17847,3,GX,1,100,-2.838
1574868688.465320,104130.000,17847,3,GX,1,100,-2.106
1574868688.504917,104163.333,17865,3,GX,1,100,-6.409
1574868688.544513,104196.667,17865,3,GX,1,100,-8.759
1574868688.584109,104230.000,17865,3,GX,1,100,-3.174
1574868688.622914,104262.667,17883,3,GX,1,100,-6.744
1574868688.661718,104295.333,17883,3,GX,1,100,-20.264
1574868688.700522,104328.000,17883,3,GX,1,100,-10.986
1574868688.740119,104361.333,17901,3,GX,1,100,1.373
1574868688.779715,104394.667,17901,3,GX,1,100,-0.732
1574868688.819311,104428.000,17901,3,GX,1,100,-2.441
1574868688.860491,104462.667,17919,3,GX,1,100,4.059
1574868688.901671,104497.333,17919,3,GX,1,100,6.409
1574868688.942851,104532.000,17919,3,GX,1,100,3.937
1574868688.984427,104567.000,17936,3,GX,1,100,-0.061
1574868689.026003,104602.000,17936,3,GX,1,100,-7.141
1574868689.067580,104637.000,17936,3,GX,1,100,-15.778
1574868689.112125,104674.500,17955,2,GX,1,100,-29.297
1574868689.156671,104712.000,17955,2,GX,1,100,-36.926
1574868689.194386,104743.750,17973,4,GX,1,100,-38.727
1574868689.232102,104775.500,17973,4,GX,1,100,-29.999
1574868689.269818,104807.250,17973,4,GX,1,100,-15.869
1574868689.307533,104839.000,17973,4,GX,1,100,0.000
1574868689.347525,104872.667,17990,3,GX,1,100,0.000
1574868689.387517,104906.333,17990,3,GX,1,100,-6.775
1574868689.427510,104940.000,17990,3,GX,1,100,-4.456
1574868689.468294,104974.333,18007,3,GX,1,100,15.808
1574868689.509078,105008.667,18007,3,GX,1,100,1.617
1574868689.549862,105043.000,18007,3,GX,1,100,1.923
1574868689.591042,105077.667,18025,3,GX,1,100,22.919
1574868689.632222,105112.333,18025,3,GX,1,100,2.594
1574868689.673402,105147.000,18025,3,GX,1,100,-19.165
1574868689.714385,105181.500,18043,2,GX,1,100,-39.429
1574868689.755367,105216.000,18043,2,GX,1,100,-43.915
1574868689.793082,105247.750,18061,4,GX,1,100,-21.332
1574868689.830798,105279.500,18061,4,GX,1,100,-18.311
1574868689.868513,105311.250,18061,4,GX,1,100,-22.278
1574868689.906229,105343.000,18061,4,GX,1,100,-18.890
1574868689.951962,105381.500,18079,2,GX,1,100,-11.475
1574868689.997696,105420.000,18079,2,GX,1,100,-12.085
1574868690.038480,105454.333,18098,3,GX,1,100,-20.142
1574868690.079264,105488.667,18098,3,GX,1,100,-9.247
1574868690.120048,105523.000,18098,3,GX,1,100,11.169
1574868690.161228,105557.667,18115,3,GX,1,100,18.005
1574868690.202409,105592.333,18115,3,GX,1,100,32.013
1574868690.243589,105627.000,18115,3,GX,1,100,8.789
1574868690.285165,105662.000,18133,3,GX,1,100,-10.010
1574868690.326741,105697.000,18133,3,GX,1,100,-18.921
1574868690.368317,105732.000,18133,3,GX,1,100,-17.700
1574868690.405933,105763.667,18151,3,GX,1,100,-12.207
1574868690.443550,105795.333,18151,3,GX,1,100,-2.991
1574868690.481166,105827.000,18151,3,GX,1,100,-1.221
1574868690.519971,105859.667,18167,3,GX,1,100,1.221
1574868690.558775,105892.333,18167,3,GX,1,100,11.292
1574868690.597579,105925.000,18167,3,GX,1,100,9.094
1574868690.637967,105959.000,18185,3,GX,1,100,7.690
1574868690.678356,105993.000,18185,3,GX,1,100,7.263
1574868690.718744,106027.000,18185,3,GX,1,100,1.556
1574868690.763884,106065.000,18203,3,GX,1,100,5.829
1574868690.809023,106103.000,18203,3,GX,1,100,14.557
1574868690.854163,106141.000,18203,3,GX,1,100,4.761
1574868690.894551,106175.000,18221,3,GX,1,100,7.507
1574868690.934939,106209.000,18221,3,GX,1,100,5.219
1574868690.975328,106243.000,18221,3,GX,1,100,1.312
1574868691.013736,106275.333,18239,3,GX,1,100,-4.700
1574868691.052144,106307.667,18239,3,GX,1,100,-5.310
1574868691.090553,106340.000,18239,3,GX,1,100,-5.188
1574868691.128169,106371.667,18258,3,GX,1,100,-9.247
1574868691.165786,106403.333,18258,3,GX,1,100,-16.663
1574868691.203402,106435.000,18258,3,GX,1,100,-17.029
1574868691.244978,106470.000,18276,3,GX,1,100,-11.627
1574868691.286554,106505.000,18276,3,GX,1,100,0.336
1574868691.328130,106540.000,18276,3,GX,1,100,11.536
1574868691.369310,106574.667,18294,3,GX,1,100,2.960
1574868691.410491,106609.333,18294,3,GX,1,100,-2.655
1574868691.451671,106644.000,18294,3,GX,1,100,-7.812
1574868691.492455,106678.333,18311,3,GX,1,100,-16.754
1574868691.533239,106712.667,18311,3,GX,1,100,-16.083
1574868691.574023,106747.000,18311,3,GX,1,100,-7.629
1574868691.615599,106782.000,18329,3,GX,1,100,6.714
1574868691.657175,106817.000,18329,3,GX,1,100,12.695
1574868691.698751,106852.000,18329,3,GX,1,100,12.451
1574868691.736764,106884.000,18345,3,GX,1,100,8.026
1574868691.774776,106916.000,18345,3,GX,1,100,10.345
1574868691.812789,106948.000,18345,3,GX,1,100,10.071
1574868691.853573,106982.333,18363,3,GX,1,100,5.096
1574868691.894357,107016.667,18363,3,GX,1,100,7.721
1574868691.935141,107051.000,18363,3,GX,1,100,13.062
1574868691.973945,107083.667,18381,3,GX,1,100,30.304
1574868692.012750,107116.333,18381,3,GX,1,100,19.775
1574868692.051554,107149.000,18381,3,GX,1,100,15.228
1574868692.092734,107183.667,18400,3,GX,1,100,-5.615
1574868692.133914,107218.333,18400,3,GX,1,100,-7.202
1574868692.175094,107253.000,18400,3,GX,1,100,13.611
1574868692.216274,107287.667,18418,3,GX,1,100,8.881
1574868692.257455,107322.333,18418,3,GX,1,100,33.081
1574868692.298635,107357.000,18418,3,GX,1,100,53.619
1574868692.340607,107392.333,18436,3,GX,1,100,43.915
1574868692.382579,107427.667,18436,3,GX,1,100,16.998
1574868692.424551,107463.000,18436,3,GX,1,100,-7.629
1574868692.462168,107494.667,18454,3,GX,1,100,-5.554
1574868692.499784,107526.333,18454,3,GX,1,100,-4.608
1574868692.537400,107558.000,18454,3,GX,1,100,-7.812
1574868692.576205,107590.667,18472,3,GX,1,100,-7.843
1574868692.615009,107623.333,18472,3,GX,1,100,-4.730
1574868692.653813,107656.000,18472,3,GX,1,100,0.031
1574868692.698161,107693.333,18489,3,GX,1,100,-2.319
1574868692.742509,107730.667,18489,3,GX,1,100,-11.932
1574868692.786857,107768.000,18489,3,GX,1,100,-27.191
1574868692.823681,107799.000,18507,3,GX,1,100,-36.194
1574868692.860506,107830.000,18507,3,GX,1,100,-25.482
1574868692.897330,107861.000,18507,3,GX,1,100,-16.388
1574868692.944846,107901.000,18523,2,GX,1,100,-11.261
1574868692.992361,107941.000,18523,2,GX,1,100,-11.322
1574868693.031562,107974.000,18542,4,GX,1,100,-18.402
1574868693.070762,108007.000,18542,4,GX,1,100,-22.797
1574868693.109962,108040.000,18542,4,GX,1,100,-13.580
1574868693.149163,108073.000,18542,4,GX,1,100,-1.678
1574868693.186779,108104.667,18560,3,GX,1,100,-14.771
1574868693.224396,108136.333,18560,3,GX,1,100,-21.271
1574868693.262012,108168.000,18560,3,GX,1,100,-1.373
1574868693.302004,108201.667,18578,3,GX,1,100,-2.716
1574868693.341996,108235.333,18578,3,GX,1,100,-6.073
1574868693.381989,108269.000,18578,3,GX,1,100,-1.953
1574868693.422377,108303.000,18596,3,GX,1,100,-7.996
1574868693.462765,108337.000,18596,3,GX,1,100,-12.573
1574868693.503153,108371.000,18596,3,GX,1,100,-12.512
1574868693.550669,108411.000,18614,2,GX,1,100,-10.345
1574868693.598184,108451.000,18614,2,GX,1,100,-8.850
1574868693.637780,108484.333,18632,3,GX,1,100,-7.996
1574868693.677377,108517.667,18632,3,GX,1,100,-2.960
1574868693.716973,108551.000,18632,3,GX,1,100,-1.282
1574868693.755223,108583.200,18653,5,GX,1,100,4.944
1574868693.793473,108615.400,18653,5,GX,1,100,7.172
1574868693.831723,108647.600,18653,5,GX,1,100,7.843
1574868693.869973,108679.800,18653,5,GX,1,100,5.219
1574868693.908223,108712.000,18653,5,GX,1,100,0.397
1574868693.948611,108746.000,18673,3,GX,1,100,2.258
1574868693.988999,108780.000,18673,3,GX,1,100,7.416
1574868694.029387,108814.000,18673,3,GX,1,100,10.468
1574868694.070964,108849.000,18692,3,GX,1,100,10.529
1574868694.112540,108884.000,18692,3,GX,1,100,7.385
1574868694.154116,108919.000,18692,3,GX,1,100,7.935
1574868694.195692,108954.000,18710,3,GX,1,100,2.167
1574868694.237268,108989.000,18710,3,GX,1,100,-2.045
1574868694.278844,109024.000,18710,3,GX,1,100,-0.641
1574868694.317648,109056.667,18728,3,GX,1,100,0.671
1574868694.356453,109089.333,18728,3,GX,1,100,2.472
1574868694.395257,109122.000,18728,3,GX,1,100,4.761
1574868694.437229,109157.333,18746,3,GX,1,100,8.453
1574868694.479201,109192.667,18746,3,GX,1,100,10.590
1574868694.521173,109228.000,18746,3,GX,1,100,8.240
1574868694.561561,109262.000,18763,3,GX,1,100,3.174
1574868694.601950,109296.000,18763,3,GX,1,100,4.608
1574868694.642338,109330.000,18763,3,GX,1,100,4.578
1574868694.683518,109364.667,18781,3,GX,1,100,-1.495
1574868694.724698,109399.333,18781,3,GX,1,100,1.099
1574868694.765878,109434.000,18781,3,GX,1,100,-1.007
1574868694.807454,109469.000,18797,3,GX,1,100,-0.183
1574868694.849030,109504.000,18797,3,GX,1,100,-0.916
1574868694.890606,109539.000,18797,3,GX,1,100,0.122
1574868694.928223,109570.667,18815,3,GX,1,100,-0.427
1574868694.965839,109602.333,18815,3,GX,1,100,-0.916
1574868695.003456,109634.000,18815,3,GX,1,100,0.244
1574868695.041864,109666.333,18834,3,GX,1,100,-3.998
1574868695.080272,109698.667,18834,3,GX,1,100,-4.608
1574868695.118681,109731.000,18834,3,GX,1,100,0.000
1574868695.159069,109765.000,18852,3,GX,1,100,-0.336
1574868695.199457,109799.000,18852,3,GX,1,100,-1.495
1574868695.239846,109833.000,18852,3,GX,1,100,-4.364
1574868695.280630,109867.333,18870,3,GX,1,100,-4.547
1574868695.321414,109901.667,18870,3,GX,1,100,-1.801
1574868695.362198,109936.000,18870,3,GX,1,100,-0.854
1574868695.403774,109971.000,18888,3,GX,1,100,-0.397
1574868695.445350,110006.000,18888,3,GX,1,100,0.244
1574868695.486926,110041.000,18888,3,GX,1,100,0.916
1574868695.530878,110078.000,18906,3,GX,1,100,1.495
1574868695.574830,110115.000,18906,3,GX,1,100,1.007
1574868695.618782,110152.000,18906,3,GX,1,100,0.214
1574868695.660358,110187.000,18924,2,GX,1,100,-0.549
1574868695.701934,110222.000,18924,2,GX,1,100,1.678
1574868695.741134,110255.000,18941,4,GX,1,100,1.892
1574868695.780334,110288.000,18941,4,GX,1,100,-0.641
1574868695.819535,110321.000,18941,4,GX,1,100,3.387
1574868695.858735,110354.000,18941,4,GX,1,100,7.355
1574868695.896747,110386.000,18959,3,GX,1,100,-1.801
1574868695.934760,110418.000,18959,3,GX,1,100,-2.899
1574868695.972772,110450.000,18959,3,GX,1,100,2.594
1574868696.013556,110484.333,18976,3,GX,1,100,4.120
1574868696.054341,110518.667,18976,3,GX,1,100,3.845
1574868696.095125,110553.000,18976,3,GX,1,100,-1.251
1574868696.135909,110587.333,18994,3,GX,1,100,-2.594
1574868696.176693,110621.667,18994,3,GX,1,100,-7.446
1574868696.217477,110656.000,18994,3,GX,1,100,-7.507
1574868696.259053,110691.000,19012,2,GX,1,100,-2.533
1574868696.300629,110726.000,19012,2,GX,1,100,-3.479
1574868696.344977,110763.333,19030,3,GX,1,100,-1.709
1574868696.389325,110800.667,19030,3,GX,1,100,0.793
1574868696.433673,110838.000,19030,3,GX,1,100,-0.031
1574868696.471289,110869.667,19048,3,GX,1,100,-0.244
1574868696.508906,110901.333,19048,3,GX,1,100,0.641
1574868696.546522,110933.000,19048,3,GX,1,100,-0.427
1574868696.585326,110965.667,19066,3,GX,1,100,2.472
1574868696.624131,110998.333,19066,3,GX,1,100,0.793
1574868696.662935,111031.000,19066,3,GX,1,100,-0.336
1574868696.704115,111065.667,19084,3,GX,1,100,-3.143
1574868696.745296,111100.333,19084,3,GX,1,100,-2.777
1574868696.786476,111135.000,19084,3,GX,1,100,-2.228
1574868696.826468,111168.667,19102,3,GX,1,100,-3.967
1574868696.866460,111202.333,19102,3,GX,1,100,-4.364
1574868696.906452,111236.000,19102,3,GX,1,100,-1.740
1574868696.948028,111271.000,19119,3,GX,1,100,-3.265
1574868696.989604,111306.000,19119,3,GX,1,100,-3.357
1574868697.031180,111341.000,19119,3,GX,1,100,1.801
1574868697.068599,111372.500,19138,4,GX,1,100,-0.519
1574868697.106017,111404.000,19138,4,GX,1,100,-0.610
1574868697.143436,111435.500,19138,4,GX,1,100,-1.434
1574868697.180854,111467.000,19138,4,GX,1,100,-0.580
1574868697.226588,111505.500,19156,2,GX,1,100,0.641
1574868697.272322,111544.000,19156,2,GX,1,100,-1.251
1574868697.313502,111578.667,19172,3,GX,1,100,-0.977
1574868697.354682,111613.333,19172,3,GX,1,100,-2.441
1574868697.395862,111648.000,19172,3,GX,1,100,-2.075
1574868697.436646,111682.333,19190,3,GX,1,100,1.068
1574868697.477430,111716.667,19190,3,GX,1,100,-4.059
1574868697.518214,111751.000,19190,3,GX,1,100,-3.754
1574868697.559791,111786.000,19208,3,GX,1,100,-4.272
1574868697.601367,111821.000,19208,3,GX,1,100,-4.761
1574868697.642943,111856.000,19208,3,GX,1,100,-4.730
1574868697.680955,111888.000,19226,3,GX,1,100,-0.916
1574868697.718968,111920.000,19226,3,GX,1,100,1.556
1574868697.756980,111952.000,19226,3,GX,1,100,2.777
1574868697.795784,111984.667,19244,3,GX,1,100,1.282
1574868697.834589,112017.333,19244,3,GX,1,100,2.228
1574868697.873393,112050.000,19244,3,GX,1,100,2.808
1574868697.913781,112084.000,19262,3,GX,1,100,-0.122
1574868697.954170,112118.000,19262,3,GX,1,100,0.122
1574868697.994558,112152.000,19262,3,GX,1,100,1.068
1574868698.039301,112189.667,19281,3,GX,1,100,3.387
1574868698.084045,112227.333,19281,3,GX,1,100,-1.770
1574868698.128789,112265.000,19281,3,GX,1,100,2.075
1574868698.169969,112299.667,19298,3,GX,1,100,1.495
1574868698.211149,112334.333,19298,3,GX,1,100,-4.364
1574868698.252329,112369.000,19298,3,GX,1,100,-5.188
1574868698.288362,112399.333,19316,3,GX,1,100,-0.275
1574868698.324394,112429.667,19316,3,GX,1,100,-0.427
1574868698.360427,112460.000,19316,3,GX,1,100,-2.045
1574868698.400023,112493.333,19334,3,GX,1,100,-1.678
1574868698.439620,112526.667,19334,3,GX,1,100,0.397
1574868698.479216,112560.000,19334,3,GX,1,100,0.977
1574868698.519208,112593.667,19350,3,GX,1,100,0.641
1574868698.559200,112627.333,19350,3,GX,1,100,0.641
1574868698.599193,112661.000,19350,3,GX,1,100,2.014
1574868698.640769,112696.000,19368,3,GX,1,100,4.242
1574868698.682345,112731.000,19368,3,GX,1,100,9.033
1574868698.723921,112766.000,19368,3,GX,1,100,18.768
1574868698.765101,112800.667,19386,3,GX,1,100,16.510
1574868698.806281,112835.333,19386,3,GX,1,100,5.829
1574868698.847461,112870.000,19386,3,GX,1,100,2.411
1574868698.889037,112905.000,19404,3,GX,1,100,7.751
1574868698.930613,112940.000,19404,3,GX,1,100,7.874
1574868698.972189,112975.000,19404,3,GX,1,100,5.005
1574868699.010994,113007.667,19422,3,GX,1,100,1.770
1574868699.049798,113040.333,19422,3,GX,1,100,-2.258
1574868699.088603,113073.000,19422,3,GX,1,100,-3.967
1574868699.126219,113104.667,19441,3,GX,1,100,-2.899
1574868699.163835,113136.333,19441,3,GX,1,100,-2.075
1574868699.201452,113168.000,19441,3,GX,1,100,-2.045
1574868699.240256,113200.667,19459,3,GX,1,100,-2.533
1574868699.279060,113233.333,19459,3,GX,1,100,-3.693
1574868699.317865,113266.000,19459,3,GX,1,100,-3.113
1574868699.358649,113300.333,19477,3,GX,1,100,-2.014
1574868699.399433,113334.667,19477,3,GX,1,100,-1.526
1574868699.440217,113369.000,19477,3,GX,1,100,0.244
1574868699.481397,113403.667,19494,3,GX,1,100,1.862
1574868699.522578,113438.333,19494,3,GX,1,100,0.885
1574868699.563758,113473.000,19494,3,GX,1,100,0.763
1574868699.605730,113508.333,19512,3,GX,1,100,1.282
1574868699.647702,113543.667,19512,3,GX,1,100,0.214
1574868699.689674,113579.000,19512,3,GX,1,100,0.092
1574868699.727686,113611.000,19529,3,GX,1,100,1.343
1574868699.765699,113643.000,19529,3,GX,1,100,-1.373
1574868699.803711,113675.000,19529,3,GX,1,100,-3.662
1574868699.842199,113707.400,19550,5,GX,1,100,-3.113
1574868699.880686,113739.800,19550,5,GX,1,100,-3.876
1574868699.919174,113772.200,19550,5,GX,1,100,-3.876
1574868699.957661,113804.600,19550,5,GX,1,100,-1.038
1574868699.996149,113837.000,19550,5,GX,1,100,0.366
1574868700.038319,113872.500,19571,2,GX,1,100,2.563
1574868700.080489,113908.000,19571,2,GX,1,100,2.960
1574868700.125233,113945.667,19588,3,GX,1,100,0.458
1574868700.169976,113983.333,19588,3,GX,1,100,-0.702
1574868700.214720,114021.000,19588,3,GX,1,100,1.343
1574868700.255900,114055.667,19606,3,GX,1,100,0.916
1574868700.297081,114090.333,19606,3,GX,1,100,-2.869
1574868700.338261,114125.000,19606,3,GX,1,100,-1.953
1574868700.375976,114156.750,19624,4,GX,1,100,-1.617
1574868700.413692,114188.500,19624,4,GX,1,100,-1.984
1574868700.451407,114220.250,19624,4,GX,1,100,-3.387
1574868700.489122,114252.000,19624,4,GX,1,100,-2.045
1574868700.528719,114285.333,19640,3,GX,1,100,0.000
1574868700.568315,114318.667,19640,3,GX,1,100,-1.434
1574868700.607911,114352.000,19640,3,GX,1,100,-1.770
1574868700.648299,114386.000,19658,3,GX,1,100,-2.411
1574868700.688688,114420.000,19658,3,GX,1,100,-3.906
1574868700.729076,114454.000,19658,3,GX,1,100,-4.059
1574868700.770058,114488.500,19676,2,GX,1,100,-1.648
1574868700.811040,114523.000,19676,2,GX,1,100,-1.892
1574868700.856180,114561.000,19694,3,GX,1,100,-4.333
1574868700.901320,114599.000,19694,3,GX,1,100,1.068
1574868700.946459,114637.000,19694,3,GX,1,100,-0.397
1574868700.984472,114669.000,19712,3,GX,1,100,-4.028
1574868701.022484,114701.000,19712,3,GX,1,100,-4.242
1574868701.060497,114733.000,19712,3,GX,1,100,-6.012
1574868701.099697,114766.000,19731,3,GX,1,100,-6.439
1574868701.138897,114799.000,19731,3,GX,1,100,-5.371
1574868701.178097,114832.000,19731,3,GX,1,100,-3.326
1574868701.218486,114866.000,19749,3,GX,1,100,-0.763
1574868701.258874,114900.000,19749,3,GX,1,100,1.587
1574868701.299262,114934.000,19749,3,GX,1,100,3.235
1574868701.340838,114969.000,19766,3,GX,1,100,2.655
1574868701.382414,115004.000,19766,3,GX,1,100,3.082
1574868701.423990,115039.000,19766,3,GX,1,100,2.167
1574868701.465962,115074.333,19784,3,GX,1,100,-0.854
1574868701.507934,115109.667,19784,3,GX,1,100,-2.045
1574868701.549906,115145.000,19784,3,GX,1,100,-2.045
1574868701.587919,115177.000,19801,3,GX,1,100,-3.387
1574868701.625931,115209.000,19801,3,GX,1,100,-5.890
1574868701.663944,115241.000,19801,3,GX,1,100,-5.707
1574868701.701164,115272.333,19818,3,GX,1,100,-5.188
1574868701.738384,115303.667,19818,3,GX,1,100,-3.906
1574868701.775605,115335.000,19818,3,GX,1,100,-2.533
1574868701.820349,115372.667,19836,3,GX,1,100,0.519
1574868701.865093,115410.333,19836,3,GX,1,100,1.068
1574868701.909836,115448.000,19836,3,GX,1,100,0.336
1574868701.951016,115482.667,19854,3,GX,1,100,2.289
1574868701.992197,115517.333,19854,3,GX,1,100,2.075
1574868702.033377,115552.000,19854,3,GX,1,100,1.465
1574868702.074161,115586.333,19873,3,GX,1,100,1.526
1574868702.114945,115620.667,19873,3,GX,1,100,0.336
1574868702.155729,115655.000,19873,3,GX,1,100,-2.808
1574868702.194534,115687.667,19891,3,GX,1,100,-4.364
1574868702.233338,115720.333,19891,3,GX,1,100,-4.974
1574868702.272142,115753.000,19891,3,GX,1,100,-6.378
1574868702.308967,115784.000,19909,3,GX,1,100,-6.378
1574868702.345791,115815.000,19909,3,GX,1,100,-4.242
1574868702.382616,115846.000,19909,3,GX,1,100,-0.305
1574868702.423796,115880.667,19927,3,GX,1,100,2.502
1574868702.464976,115915.333,19927,3,GX,1,100,3.784
1574868702.506156,115950.000,19927,3,GX,1,100,4.303
1574868702.551296,115988.000,19944,3,GX,1,100,3.235
1574868702.596436,116026.000,19944,3,GX,1,100,3.906
1574868702.641575,116064.000,19944,3,GX,1,100,4.669
1574868702.679984,116096.333,19962,3,GX,1,100,4.456
1574868702.718392,116128.667,19962,3,GX,1,100,3.448
1574868702.756800,116161.000,19962,3,GX,1,100,-5.493
1574868702.803128,116200.000,19978,2,GX,1,100,-8.606
1574868702.849456,116239.000,19978,2,GX,1,100,-7.599
1574868702.891032,116274.000,19996,3,GX,1,100,-6.287
1574868702.932608,116309.000,19996,3,GX,1,100,-2.686
1574868702.974184,116344.000,19996,3,GX,1,100,1.678
1574868703.014572,116378.000,20015,3,GX,1,100,6.836
1574868703.054960,116412.000,20015,3,GX,1,100,7.721
1574868703.095349,116446.000,20015,3,GX,1,100,7.233
1574868703.133361,116478.000,20033,4,GX,1,100,2.441
1574868703.171373,116510.000,20033,4,GX,1,100,2.197
1574868703.209386,116542.000,20033,4,GX,1,100,-1.862
1574868703.247398,116574.000,20033,4,GX,1,100,-7.935
1574868703.288182,116608.333,20051,3,GX,1,100,-8.972
1574868703.328967,116642.667,20051,3,GX,1,100,-7.385
1574868703.369751,116677.000,20051,3,GX,1,100,-3.693
1574868703.410733,116711.500,20069,2,GX,1,100,-0.671
1574868703.451715,116746.000,20069,2,GX,1,100,-3.479
1574868703.492895,116780.667,20087,3,GX,1,100,-1.770
1574868703.534075,116815.333,20087,3,GX,1,100,3.143
1574868703.575255,116850.000,20087,3,GX,1,100,7.568
1574868703.616040,116884.333,20104,3,GX,1,100,8.850
1574868703.656824,116918.667,20104,3,GX,1,100,7.812
1574868703.697608,116953.000,20104,3,GX,1,100,8.484
1574868703.738788,116987.667,20122,3,GX,1,100,12.451
1574868703.779968,117022.333,20122,3,GX,1,100,11.261
1574868703.821148,117057.000,20122,3,GX,1,100,2.136
1574868703.859952,117089.667,20140,3,GX,1,100,1.099
1574868703.898757,117122.333,20140,3,GX,1,100,0.061
1574868703.937561,117155.000,20140,3,GX,1,100,0.031
1574868703.977949,117189.000,20156,3,GX,1,100,-2.808
1574868704.018337,117223.000,20156,3,GX,1,100,-7.446
1574868704.058726,117257.000,20156,3,GX,1,100,-16.113
1574868704.099906,117291.667,20175,3,GX,1,100,-18.890
1574868704.141086,117326.333,20175,3,GX,1,100,-9.766
1574868704.182266,117361.000,20175,3,GX,1,100,-4.120
1574868704.222654,117395.000,20193,3,GX,1,100,-1.831
1574868704.263042,117429.000,20193,3,GX,1,100,-1.862
1574868704.303431,117463.000,20193,3,GX,1,100,-4.303
1574868704.341839,117495.333,20211,3,GX,1,100,-4.822
1574868704.380247,117527.667,20211,3,GX,1,100,-8.972
1574868704.418656,117560.000,20211,3,GX,1,100,-10.315
1574868704.460628,117595.333,20229,3,GX,1,100,-11.688
1574868704.502600,117630.667,20229,3,GX,1,100,-6.012
1574868704.544572,117666.000,20229,3,GX,1,100,3.998
1574868704.585752,117700.667,20247,3,GX,1,100,3.876
1574868704.626932,117735.333,20247,3,GX,1,100,6.287
1574868704.668112,117770.000,20247,3,GX,1,100,13.245
1574868704.709292,117804.667,20265,3,GX,1,100,7.751
1574868704.750473,117839.333,20265,3,GX,1,100,10.254
1574868704.791652,117874.000,20265,3,GX,1,100,18.341
1574868704.832437,117908.333,20282,3,GX,1,100,11.902
1574868704.873221,117942.667,20282,3,GX,1,100,2.472
1574868704.914005,117977.000,20282,3,GX,1,100,6.866
1574868704.951622,118008.667,20300,3,GX,1,100,4.517
1574868704.989238,118040.333,20300,3,GX,1,100,13.245
1574868705.026854,118072.000,20300,3,GX,1,100,1.709
1574868705.065659,118104.667,20319,3,GX,1,100,-10.437
1574868705.104463,118137.333,20319,3,GX,1,100,4.303
1574868705.143267,118170.000,20319,3,GX,1,100,2.960
1574868705.184052,118204.333,20335,3,GX,1,100,0.671
1574868705.224836,118238.667,20335,3,GX,1,100,-1.984
1574868705.265620,118273.000,20335,3,GX,1,100,-6.012
1574868705.306800,118307.667,20353,3,GX,1,100,-2.777
1574868705.347980,118342.333,20353,3,GX,1,100,-10.162
1574868705.389160,118377.000,20353,3,GX,1,100,-9.308
1574868705.433904,118414.667,20371,3,GX,1,100,-1.099
1574868705.478648,118452.333,20371,3,GX,1,100,4.791
1574868705.523391,118490.000,20371,3,GX,1,100,8.850
1574868705.560612,118521.333,20389,3,GX,1,100,5.219
1574868705.597832,118552.667,20389,3,GX,1,100,7.050
1574868705.635053,118584.000,20389,3,GX,1,100,0.610
1574868705.673065,118616.000,20407,3,GX,1,100,-10.345
1574868705.711078,118648.000,20407,3,GX,1,100,-14.069
1574868705.749090,118680.000,20407,3,GX,1,100,-10.437
1574868705.790666,118715.000,20425,3,GX,1,100,2.899
1574868705.832242,118750.000,20425,3,GX,1,100,1.587
1574868705.873818,118785.000,20425,3,GX,1,100,-1.617
1574868705.914682,118819.400,20446,5,GX,1,100,-1.709
1574868705.955545,118853.800,20446,5,GX,1,100,-9.125
1574868705.996408,118888.200,20446,5,GX,1,100,-14.282
1574868706.037272,118922.600,20446,5,GX,1,100,-12.299
1574868706.078135,118957.000,20446,5,GX,1,100,-9.521
1574868706.117929,118990.500,20467,2,GX,1,100,-11.902
1574868706.157724,119024.000,20467,2,GX,1,100,-20.020
1574868706.197221,119057.250,20485,4,GX,1,100,-19.836
1574868706.236718,119090.500,20485,4,GX,1,100,-22.034
1574868706.276216,119123.750,20485,4,GX,1,100,-26.398
1574868706.315713,119157.000,20485,4,GX,1,100,-12.299
1574868706.354121,119189.333,20503,3,GX,1,100,-3.448
1574868706.392529,119221.667,20503,3,GX,1,100,-0.488
1574868706.430938,119254.000,20503,3,GX,1,100,3.418
1574868706.472118,119288.667,20521,3,GX,1,100,-3.723
1574868706.513298,119323.333,20521,3,GX,1,100,1.282
1574868706.554478,119358.000,20521,3,GX,1,100,10.254
1574868706.594867,119392.000,20539,3,GX,1,100,3.357
1574868706.635255,119426.000,20539,3,GX,1,100,-2.808
1574868706.675643,119460.000,20539,3,GX,1,100,-13.214
1574868706.716427,119494.333,20557,3,GX,1,100,-6.714
1574868706.757211,119528.667,20557,3,GX,1,100,8.301
1574868706.797995,119563.000,20557,3,GX,1,100,5.249
1574868706.839571,119598.000,20574,2,GX,1,100,1.556
1574868706.881147,119633.000,20574,2,GX,1,100,9.674
1574868706.922328,119667.667,20592,3,GX,1,100,14.771
1574868706.963508,119702.333,20592,3,GX,1,100,6.744
1574868707.004688,119737.000,20592,3,GX,1,100,10.406
1574868707.042403,119768.750,20611,4,GX,1,100,15.991
1574868707.080119,119800.500,20611,4,GX,1,100,9.094
1574868707.117834,119832.250,20611,4,GX,1,100,-0.580
1574868707.155550,119864.000,20611,4,GX,1,100,0.122
1574868707.194750,119897.000,20627,2,GX,1,100,4.883
1574868707.233950,119930.000,20627,2,GX,1,100,8.362
1574868707.279090,119968.000,20645,3,GX,1,100,4.395
1574868707.324230,120006.000,20645,3,GX,1,100,-1.862
1574868707.369370,120044.000,20645,3,GX,1,100,-1.587
1574868707.409362,120077.667,20663,3,GX,1,100,-1.801
1574868707.449354,120111.333,20663,3,GX,1,100,-2.716
1574868707.489346,120145.000,20663,3,GX,1,100,-4.639
1574868707.531714,120180.667,20681,3,GX,1,100,-10.895
1574868707.574082,120216.333,20681,3,GX,1,100,-7.050
1574868707.616450,120252.000,20681,3,GX,1,100,6.714
1574868707.653671,120283.333,20699,3,GX,1,100,8.118
1574868707.690891,120314.667,20699,3,GX,1,100,1.770
1574868707.728112,120346.000,20699,3,GX,1,100,-3.510
1574868707.766520,120378.333,20717,3,GX,1,100,-3.693
1574868707.804928,120410.667,20717,3,GX,1,100,-0.702
1574868707.843337,120443.000,20717,3,GX,1,100,3.113
1574868707.884121,120477.333,20735,3,GX,1,100,5.035
1574868707.924905,120511.667,20735,3,GX,1,100,4.181
1574868707.965689,120546.000,20735,3,GX,1,100,3.174
1574868708.005682,120579.667,20754,3,GX,1,100,1.282
1574868708.045674,120613.333,20754,3,GX,1,100,0.824
1574868708.085666,120647.000,20754,3,GX,1,100,2.747
1574868708.131202,120685.333,20771,3,GX,1,100,2.869
1574868708.176737,120723.667,20771,3,GX,1,100,3.479
1574868708.222273,120762.000,20771,3,GX,1,100,2.106
1574868708.260285,120794.000,20789,3,GX,1,100,-1.068
1574868708.298298,120826.000,20789,3,GX,1,100,-2.228
1574868708.336310,120858.000,20789,3,GX,1,100,0.702
1574868708.374719,120890.333,20805,3,GX,1,100,1.221
1574868708.413127,120922.667,20805,3,GX,1,100,-0.885
1574868708.451535,120955.000,20805,3,GX,1,100,0.031
1574868708.491924,120989.000,20823,3,GX,1,100,1.434
1574868708.532312,121023.000,20823,3,GX,1,100,0.153
1574868708.572700,121057.000,20823,3,GX,1,100,-1.343
1574868708.613484,121091.333,20841,3,GX,1,100,1.190
1574868708.654268,121125.667,20841,3,GX,1,100,2.075
1574868708.695052,121160.000,20841,3,GX,1,100,2.991
1574868708.736233,121194.667,20859,3,GX,1,100,1.892
1574868708.777413,121229.333,20859,3,GX,1,100,-2.869
1574868708.818593,121264.000,20859,3,GX,1,100,-3.296
1574868708.857793,121297.000,20877,3,GX,1,100,-6.500
1574868708.896993,121330.000,20877,3,GX,1,100,-10.986
1574868708.936194,121363.000,20877,3,GX,1,100,-13.275
1574868708.977770,121398.000,20895,3,GX,1,100,-6.866
1574868709.019346,121433.000,20895,3,GX,1,100,0.885
1574868709.060922,121468.000,20895,3,GX,1,100,8.118
1574868709.100914,121501.667,20914,3,GX,1,100,10.315
1574868709.140906,121535.333,20914,3,GX,1,100,5.066
1574868709.180899,121569.000,20914,3,GX,1,100,5.676
1574868709.222475,121604.000,20932,3,GX,1,100,0.214
1574868709.264051,121639.000,20932,3,GX,1,100,-8.850
1574868709.305627,121674.000,20932,3,GX,1,100,-4.700
1574868709.346807,121708.667,20949,3,GX,1,100,-2.350
1574868709.387987,121743.333,20949,3,GX,1,100,1.373
1574868709.429167,121778.000,20949,3,GX,1,100,8.118
1574868709.466784,121809.667,20967,3,GX,1,100,9.827
1574868709.504400,121841.333,20967,3,GX,1,100,13.000
1574868709.542017,121873.000,20967,3,GX,1,100,14.465
1574868709.580821,121905.667,20985,3,GX,1,100,12.451
1574868709.619625,121938.333,20985,3,GX,1,100,3.784
1574868709.658430,121971.000,20985,3,GX,1,100,-8.911
1574868709.702381,122008.000,21001,3,GX,1,100,-12.360
1574868709.746333,122045.000,21001,3,GX,1,100,-10.864
1574868709.790285,122082.000,21001,3,GX,1,100,0.092
1574868709.828693,122114.333,21019,3,GX,1,100,3.632
1574868709.867102,122146.667,21019,3,GX,1,100,-2.441
1574868709.905510,122179.000,21019,3,GX,1,100,-0.732
1574868709.945899,122213.000,21037,3,GX,1,100,4.089
1574868709.986287,122247.000,21037,3,GX,1,100,1.587
1574868710.026675,122281.000,21037,3,GX,1,100,-2.319
1574868710.073002,122320.000,21056,2,GX,1,100,-1.678
1574868710.119330,122359.000,21056,2,GX,1,100,-2.625
1574868710.160906,122394.000,21074,3,GX,1,100,-3.906
1574868710.202482,122429.000,21074,3,GX,1,100,-4.852
1574868710.244058,122464.000,21074,3,GX,1,100,-1.617
1574868710.284050,122497.667,21092,3,GX,1,100,3.845
1574868710.324043,122531.333,21092,3,GX,1,100,-0.641
1574868710.364035,122565.000,21092,3,GX,1,100,-5.646
1574868710.402047,122597.000,21110,4,GX,1,100,-7.629
1574868710.440060,122629.000,21110,4,GX,1,100,-5.615
1574868710.478072,122661.000,21110,4,GX,1,100,-2.502
1574868710.516085,122693.000,21110,4,GX,1,100,0.122
1574868710.555879,122726.500,21127,2,GX,1,100,1.099
1574868710.595673,122760.000,21127,2,GX,1,100,2.350
1574868710.637249,122795.000,21145,3,GX,1,100,1.617
1574868710.678825,122830.000,21145,3,GX,1,100,1.526
1574868710.720401,122865.000,21145,3,GX,1,100,0.275
1574868710.760394,122898.667,21161,3,GX,1,100,-1.312
1574868710.800386,122932.333,21161,3,GX,1,100,0.488
1574868710.840378,122966.000,21161,3,GX,1,100,1.282
1574868710.881558,123000.667,21179,3,GX,1,100,1.068
1574868710.922738,123035.333,21179,3,GX,1,100,1.068
1574868710.963918,123070.000,21179,3,GX,1,100,0.397
1574868711.005099,123104.667,21198,3,GX,1,100,-0.610
1574868711.046279,123139.333,21198,3,GX,1,100,-0.793
1574868711.087459,123174.000,21198,3,GX,1,100,-0.854
1574868711.130619,123210.333,21216,3,GX,1,100,-1.892
1574868711.173779,123246.667,21216,3,GX,1,100,-2.747
1574868711.216938,123283.000,21216,3,GX,1,100,-1.709
1574868711.254555,123314.667,21234,3,GX,1,100,-1.678
1574868711.292171,123346.333,21234,3,GX,1,100,-1.770
1574868711.329788,123378.000,21234,3,GX,1,100,-2.289
1574868711.368988,123411.000,21252,3,GX,1,100,-0.977
1574868711.408189,123444.000,21252,3,GX,1,100,0.519
1574868711.447389,123477.000,21252,3,GX,1,100,0.671
1574868711.488965,123512.000,21270,3,GX,1,100,-1.251
1574868711.530541,123547.000,21270,3,GX,1,100,-1.801
1574868711.572117,123582.000,21270,3,GX,1,100,-0.824
1574868711.612505,123616.000,21287,3,GX,1,100,0.275
1574868711.652894,123650.000,21287,3,GX,1,100,2.716
1574868711.693282,123684.000,21287,3,GX,1,100,-0.397
1574868711.734462,123718.667,21305,3,GX,1,100,-1.892
1574868711.775642,123753.333,21305,3,GX,1,100,-0.763
1574868711.816822,123788.000,21305,3,GX,1,100,-0.671
1574868711.854834,123820.000,21323,3,GX,1,100,0.366
1574868711.892847,123852.000,21323,3,GX,1,100,0.427
1574868711.930859,123884.000,21323,3,GX,1,100,-0.580
1574868711.972673,123919.200,21344,5,GX,1,100,-0.183
1574868712.014487,123954.400,21344,5,GX,1,100,0.275
1574868712.056300,123989.600,21344,5,GX,1,100,0.427
1574868712.098114,124024.800,21344,5,GX,1,100,1.587
1574868712.139928,124060.000,21344,5,GX,1,100,1.251
1574868712.181504,124095.000,21365,3,GX,1,100,1.343
1574868712.223080,124130.000,21365,3,GX,1,100,2.686
1574868712.264656,124165.000,21365,3,GX,1,100,2.960
1574868712.306232,124200.000,21382,2,GX,1,100,3.082
1574868712.347808,124235.000,21382,2,GX,1,100,3.845
1574868712.386117,124267.250,21400,4,GX,1,100,4.456
1574868712.424427,124299.500,21400,4,GX,1,100,-0.336
1574868712.462736,124331.750,21400,4,GX,1,100,-4.059
1574868712.501045,124364.000,21400,4,GX,1,100,-5.096
1574868712.539850,124396.667,21418,3,GX,1,100,-0.885
1574868712.578654,124429.333,21418,3,GX,1,100,2.350
1574868712.617459,124462.000,21418,3,GX,1,100,0.458
1574868712.658243,124496.333,21434,3,GX,1,100,-1.221
1574868712.699027,124530.667,21434,3,GX,1,100,-2.869
1574868712.739811,124565.000,21434,3,GX,1,100,-1.190
1574868712.781387,124600.000,21452,3,GX,1,100,1.740
1574868712.822963,124635.000,21452,3,GX,1,100,2.716
1574868712.864539,124670.000,21452,3,GX,1,100,3.265
1574868712.910867,124709.000,21470,2,GX,1,100,3.357
1574868712.957194,124748.000,21470,2,GX,1,100,3.845
1574868712.996395,124781.000,21489,3,GX,1,100,3.906
1574868713.035595,124814.000,21489,3,GX,1,100,1.343
1574868713.074795,124847.000,21489,3,GX,1,100,-0.275
1574868713.111620,124878.000,21507,3,GX,1,100,-0.793
1574868713.148444,124909.000,21507,3,GX,1,100,2.502
1574868713.185269,124940.000,21507,3,GX,1,100,3.906
1574868713.226053,124974.333,21525,3,GX,1,100,2.563
1574868713.266837,125008.667,21525,3,GX,1,100,2.319
1574868713.307621,125043.000,21525,3,GX,1,100,0.519
1574868713.348406,125077.333,21543,3,GX,1,100,-1.526
1574868713.389190,125111.667,21543,3,GX,1,100,0.061
1574868713.429974,125146.000,21543,3,GX,1,100,2.594
1574868713.470758,125180.333,21560,3,GX,1,100,2.136
1574868713.511542,125214.667,21560,3,GX,1,100,3.448
1574868713.552326,125249.000,21560,3,GX,1,100,1.770
1574868713.592319,125282.667,21578,3,GX,1,100,0.275
1574868713.632311,125316.333,21578,3,GX,1,100,2.350
1574868713.672303,125350.000,21578,3,GX,1,100,2.441
1574868713.713087,125384.333,21596,3,GX,1,100,1.068
1574868713.753871,125418.667,21596,3,GX,1,100,0.397
1574868713.794656,125453.000,21596,3,GX,1,100,-0.122
1574868713.831183,125483.750,21614,4,GX,1,100,0.610
1574868713.867711,125514.500,21614,4,GX,1,100,0.610
1574868713.904238,125545.250,21614,4,GX,1,100,-0.671
1574868713.940766,125576.000,21614,4,GX,1,100,-1.312
