EpochTimestamp,EmotiBitTimestamp,PacketNumber,DataLength,TypeTag,ProtocolVersion,DataReliability,PG
1574867948.732688,336075.000,58914,4,PG,1,100,12462
1574867948.732688,336075.000,58914,4,PG,1,100,12459
1574867948.732688,336075.000,58914,4,PG,1,100,12488
1574867948.732688,336075.000,58914,4,PG,1,100,12486
1574867948.774904,336110.500,58932,2,PG,1,100,12485
1574867948.817120,336146.000,58932,2,PG,1,100,12474
1574867948.855174,336178.000,58950,4,PG,1,100,12434
1574867948.893228,336210.000,58950,4,PG,1,100,12447
1574867948.931281,336242.000,58950,4,PG,1,100,12433
1574867948.969335,336274.000,58950,4,PG,1,100,12431
1574867949.007785,336306.333,58969,3,PG,1,100,12427
1574867949.046235,336338.667,58969,3,PG,1,100,12409
1574867949.084685,336371.000,58969,3,PG,1,100,12412
1574867949.125514,336405.333,58986,3,PG,1,100,12463
1574867949.166342,336439.667,58986,3,PG,1,100,12475
1574867949.207171,336474.000,58986,3,PG,1,100,12465
1574867949.247999,336508.333,59004,3,PG,1,100,12493
1574867949.288828,336542.667,59004,3,PG,1,100,12455
1574867949.329656,336577.000,59004,3,PG,1,100,12430
1574867949.370881,336611.667,59022,3,PG,1,100,12441
1574867949.412106,336646.333,59022,3,PG,1,100,12415
1574867949.453331,336681.000,59022,3,PG,1,100,12407
1574867949.491385,336713.000,59038,3,PG,1,100,12490
1574867949.529438,336745.000,59038,3,PG,1,100,12499
1574867949.567492,336777.000,59038,3,PG,1,100,12484
1574867949.604753,336808.333,59056,3,PG,1,100,12524
1574867949.642014,336839.667,59056,3,PG,1,100,12488
1574867949.679275,336871.000,59056,3,PG,1,100,12449
1574867949.721689,336906.667,59074,3,PG,1,100,12440
1574867949.764103,336942.333,59074,3,PG,1,100,12434
1574867949.806517,336978.000,59074,3,PG,1,100,12391
1574867949.844174,337009.667,59092,3,PG,1,100,12423
1574867949.881832,337041.333,59092,3,PG,1,100,12439
1574867949.919489,337073.000,59092,3,PG,1,100,12414
1574867949.958336,337105.667,59111,3,PG,1,100,12446
1574867949.997182,337138.333,59111,3,PG,1,100,12463
1574867950.036029,337171.000,59111,3,PG,1,100,12465
1574867950.075272,337204.000,59129,3,PG,1,100,12424
1574867950.114515,337237.000,59129,3,PG,1,100,12435
1574867950.153758,337270.000,59129,3,PG,1,100,12407
1574867950.199343,337308.333,59147,3,PG,1,100,12441
1574867950.244928,337346.667,59147,3,PG,1,100,12444
1574867950.290513,337385.000,59147,3,PG,1,100,12390
1574867950.331738,337419.667,59164,3,PG,1,100,12435
1574867950.372963,337454.333,59164,3,PG,1,100,12429
1574867950.414188,337489.000,59164,3,PG,1,100,12384
1574867950.452241,337521.000,59182,3,PG,1,100,12398
1574867950.490295,337553.000,59182,3,PG,1,100,12400
1574867950.528349,337585.000,59182,3,PG,1,100,12375
1574867950.569970,337620.000,59198,3,PG,1,100,12424
1574867950.611591,337655.000,59198,3,PG,1,100,12401
1574867950.653213,337690.000,59198,3,PG,1,100,12403
1574867950.693248,337723.667,59216,3,PG,1,100,12402
1574867950.733284,337757.333,59216,3,PG,1,100,12398
1574867950.773320,337791.000,59216,3,PG,1,100,12376
1574867950.811373,337823.000,59234,3,PG,1,100,12409
1574867950.849427,337855.000,59234,3,PG,1,100,12380
1574867950.887481,337887.000,59234,3,PG,1,100,12366
1574867950.927517,337920.667,59253,3,PG,1,100,12403
1574867950.967552,337954.333,59253,3,PG,1,100,12420
1574867951.007588,337988.000,59253,3,PG,1,100,12329
1574867951.047624,338021.667,59271,3,PG,1,100,12401
1574867951.087659,338055.333,59271,3,PG,1,100,12394
1574867951.127695,338089.000,59271,3,PG,1,100,12358
1574867951.169317,338124.000,59289,3,PG,1,100,12365
1574867951.210938,338159.000,59289,3,PG,1,100,12351
1574867951.252559,338194.000,59289,3,PG,1,100,12317
1574867951.293387,338228.333,59307,3,PG,1,100,12334
1574867951.334216,338262.667,59307,3,PG,1,100,12319
1574867951.375044,338297.000,59307,3,PG,1,100,12300
1574867951.412702,338328.667,59324,3,PG,1,100,12304
1574867951.450359,338360.333,59324,3,PG,1,100,12276
1574867951.488016,338392.000,59324,3,PG,1,100,12302
1574867951.527259,338425.000,59342,3,PG,1,100,12340
1574867951.566502,338458.000,59342,3,PG,1,100,12351
1574867951.605745,338491.000,59342,3,PG,1,100,12344
1574867951.650141,338528.333,59360,3,PG,1,100,12384
1574867951.694537,338565.667,59360,3,PG,1,100,12370
1574867951.738933,338603.000,59360,3,PG,1,100,12322
1574867951.779960,338637.500,59376,2,PG,1,100,12344
1574867951.820987,338672.000,59376,2,PG,1,100,12323
1574867951.862608,338707.000,59394,3,PG,1,100,12289
1574867951.904229,338742.000,59394,3,PG,1,100,12326
1574867951.945850,338777.000,59394,3,PG,1,100,12308
1574867951.983607,338808.750,59413,4,PG,1,100,12307
1574867952.021363,338840.500,59413,4,PG,1,100,12342
1574867952.059120,338872.250,59413,4,PG,1,100,12340
1574867952.096876,338904.000,59413,4,PG,1,100,12314
1574867952.135723,338936.667,59431,3,PG,1,100,12302
1574867952.174569,338969.333,59431,3,PG,1,100,12269
1574867952.213416,339002.000,59431,3,PG,1,100,12235
1574867952.253848,339036.000,59449,3,PG,1,100,12255
1574867952.294280,339070.000,59449,3,PG,1,100,12269
1574867952.334712,339104.000,59449,3,PG,1,100,12213
1574867952.375540,339138.333,59467,3,PG,1,100,12247
1574867952.416369,339172.667,59467,3,PG,1,100,12256
1574867952.457197,339207.000,59467,3,PG,1,100,12237
1574867952.498819,339242.000,59485,2,PG,1,100,12284
1574867952.540440,339277.000,59485,2,PG,1,100,12284
1574867952.579386,339309.750,59502,4,PG,1,100,12256
1574867952.618331,339342.500,59502,4,PG,1,100,12278
1574867952.657277,339375.250,59502,4,PG,1,100,12280
1574867952.696222,339408.000,59502,4,PG,1,100,12255
1574867952.735069,339440.667,59520,3,PG,1,100,12274
1574867952.773916,339473.333,59520,3,PG,1,100,12262
1574867952.812762,339506.000,59520,3,PG,1,100,12254
1574867952.852401,339539.333,59538,3,PG,1,100,12267
1574867952.892040,339572.667,59538,3,PG,1,100,12290
1574867952.931680,339606.000,59538,3,PG,1,100,12268
1574867952.972905,339640.667,59557,3,PG,1,100,12323
1574867953.014130,339675.333,59557,3,PG,1,100,12326
1574867953.055355,339710.000,59557,3,PG,1,100,12335
1574867953.094201,339742.667,59573,3,PG,1,100,12370
1574867953.133048,339775.333,59573,3,PG,1,100,12411
1574867953.171894,339808.000,59573,3,PG,1,100,12307
1574867953.209155,339839.333,59591,3,PG,1,100,12520
1574867953.246416,339870.667,59591,3,PG,1,100,12456
1574867953.283677,339902.000,59591,3,PG,1,100,12450
1574867953.322523,339934.667,59609,3,PG,1,100,12487
1574867953.361370,339967.333,59609,3,PG,1,100,12507
1574867953.400216,340000.000,59609,3,PG,1,100,12489
1574867953.440252,340033.667,59627,3,PG,1,100,12527
1574867953.480288,340067.333,59627,3,PG,1,100,12543
1574867953.520324,340101.000,59627,3,PG,1,100,12520
1574867953.561945,340136.000,59645,3,PG,1,100,12471
1574867953.603566,340171.000,59645,3,PG,1,100,12654
1574867953.645187,340206.000,59645,3,PG,1,100,12603
1574867953.686412,340240.667,59663,3,PG,1,100,12647
1574867953.727637,340275.333,59663,3,PG,1,100,12656
1574867953.768862,340310.000,59663,3,PG,1,100,12601
1574867953.807312,340342.333,59681,3,PG,1,100,12677
1574867953.845762,340374.667,59681,3,PG,1,100,12640
1574867953.884212,340407.000,59681,3,PG,1,100,12685
1574867953.926626,340442.667,59699,3,PG,1,100,12685
1574867953.969040,340478.333,59699,3,PG,1,100,12721
1574867954.011455,340514.000,59699,3,PG,1,100,12715
1574867954.046337,340543.333,59717,3,PG,1,100,12803
1574867954.081220,340572.667,59717,3,PG,1,100,12753
1574867954.116102,340602.000,59717,3,PG,1,100,12709
1574867954.154156,340634.000,59735,3,PG,1,100,12701
1574867954.192210,340666.000,59735,3,PG,1,100,12696
1574867954.230263,340698.000,59735,3,PG,1,100,12643
1574867954.269903,340731.333,59753,3,PG,1,100,12679
1574867954.309542,340764.667,59753,3,PG,1,100,12661
1574867954.349181,340798.000,59753,3,PG,1,100,12654
1574867954.390406,340832.667,59769,3,PG,1,100,12644
1574867954.431631,340867.333,59769,3,PG,1,100,12641
1574867954.472856,340902.000,59769,3,PG,1,100,12611
1574867954.514477,340937.000,59787,3,PG,1,100,12622
1574867954.556098,340972.000,59787,3,PG,1,100,12618
1574867954.597720,341007.000,59787,3,PG,1,100,12580
1574867954.636963,341040.000,59808,5,PG,1,100,12609
1574867954.676206,341073.000,59808,5,PG,1,100,12620
1574867954.715449,341106.000,59808,5,PG,1,100,12572
1574867954.754691,341139.000,59808,5,PG,1,100,12596
1574867954.793934,341172.000,59808,5,PG,1,100,12566
1574867954.832385,341204.333,59828,3,PG,1,100,12577
1574867954.870835,341236.667,59828,3,PG,1,100,12609
1574867954.909285,341269.000,59828,3,PG,1,100,12618
1574867954.953681,341306.333,59847,3,PG,1,100,12593
1574867954.998077,341343.667,59847,3,PG,1,100,12614
1574867955.042473,341381.000,59847,3,PG,1,100,12598
1574867955.083698,341415.667,59863,3,PG,1,100,12548
1574867955.124923,341450.333,59863,3,PG,1,100,12525
1574867955.166147,341485.000,59863,3,PG,1,100,12487
1574867955.207372,341519.667,59881,3,PG,1,100,12490
1574867955.248597,341554.333,59881,3,PG,1,100,12479
1574867955.289822,341589.000,59881,3,PG,1,100,12474
1574867955.327876,341621.000,59899,3,PG,1,100,12518
1574867955.365930,341653.000,59899,3,PG,1,100,12531
1574867955.403983,341685.000,59899,3,PG,1,100,12508
1574867955.442037,341717.000,59917,3,PG,1,100,12559
1574867955.480091,341749.000,59917,3,PG,1,100,12524
1574867955.518144,341781.000,59917,3,PG,1,100,12494
1574867955.558180,341814.667,59935,3,PG,1,100,12483
1574867955.598216,341848.333,59935,3,PG,1,100,12483
1574867955.638252,341882.000,59935,3,PG,1,100,12458
1574867955.679476,341916.667,59953,3,PG,1,100,12471
1574867955.720701,341951.333,59953,3,PG,1,100,12446
1574867955.761926,341986.000,59953,3,PG,1,100,12425
1574867955.803547,342021.000,59971,3,PG,1,100,12429
1574867955.845169,342056.000,59971,3,PG,1,100,12423
1574867955.886790,342091.000,59971,3,PG,1,100,12404
1574867955.924844,342123.000,59989,3,PG,1,100,12409
1574867955.962898,342155.000,59989,3,PG,1,100,12392
1574867956.000951,342187.000,59989,3,PG,1,100,12367
1574867956.039005,342219.000,60007,3,PG,1,100,12401
1574867956.077059,342251.000,60007,3,PG,1,100,12396
1574867956.115112,342283.000,60007,3,PG,1,100,12383
1574867956.155545,342317.000,60025,3,PG,1,100,12376
1574867956.195976,342351.000,60025,3,PG,1,100,12379
1574867956.236409,342385.000,60025,3,PG,1,100,12359
1574867956.278426,342420.333,60041,3,PG,1,100,12387
1574867956.320444,342455.667,60041,3,PG,1,100,12384
1574867956.362462,342491.000,60041,3,PG,1,100,12339
1574867956.404083,342526.000,60059,3,PG,1,100,12371
1574867956.445704,342561.000,60059,3,PG,1,100,12364
1574867956.487325,342596.000,60059,3,PG,1,100,12307
1574867956.526172,342628.667,60077,3,PG,1,100,12328
1574867956.565018,342661.333,60077,3,PG,1,100,12309
1574867956.603865,342694.000,60077,3,PG,1,100,12283
1574867956.641126,342725.333,60095,3,PG,1,100,12269
1574867956.678387,342756.667,60095,3,PG,1,100,12245
1574867956.715648,342788.000,60095,3,PG,1,100,12219
1574867956.753701,342820.000,60113,3,PG,1,100,12244
1574867956.791755,342852.000,60113,3,PG,1,100,12227
1574867956.829809,342884.000,60113,3,PG,1,100,12166
1574867956.871034,342918.667,60131,3,PG,1,100,12215
1574867956.912259,342953.333,60131,3,PG,1,100,12207
1574867956.953484,342988.000,60131,3,PG,1,100,12191
1574867956.994312,343022.333,60150,3,PG,1,100,12191
1574867957.035141,343056.667,60150,3,PG,1,100,12176
1574867957.075969,343091.000,60150,3,PG,1,100,12123
1574867957.115608,343124.333,60167,3,PG,1,100,12138
1574867957.155248,343157.667,60167,3,PG,1,100,12121
1574867957.194887,343191.000,60167,3,PG,1,100,12080
1574867957.231751,343222.000,60185,3,PG,1,100,12070
1574867957.268616,343253.000,60185,3,PG,1,100,12068
1574867957.305481,343284.000,60185,3,PG,1,100,11975
1574867957.346309,343318.333,60203,3,PG,1,100,12010
1574867957.387138,343352.667,60203,3,PG,1,100,12006
1574867957.427966,343387.000,60203,3,PG,1,100,12034
1574867957.472362,343424.333,60219,3,PG,1,100,12036
1574867957.516758,343461.667,60219,3,PG,1,100,12054
1574867957.561154,343499.000,60219,3,PG,1,100,12031
1574867957.598811,343530.667,60237,3,PG,1,100,12052
1574867957.636469,343562.333,60237,3,PG,1,100,12001
1574867957.674126,343594.000,60237,3,PG,1,100,11997
1574867957.715351,343628.667,60255,3,PG,1,100,12013
1574867957.756576,343663.333,60255,3,PG,1,100,12013
1574867957.797801,343698.000,60255,3,PG,1,100,11924
1574867957.838629,343732.333,60273,3,PG,1,100,11971
1574867957.879458,343766.667,60273,3,PG,1,100,11952
1574867957.920286,343801.000,60273,3,PG,1,100,11926
1574867957.960322,343834.667,60292,3,PG,1,100,11934
1574867958.000358,343868.333,60292,3,PG,1,100,11918
1574867958.040393,343902.000,60292,3,PG,1,100,11892
1574867958.078843,343934.333,60310,3,PG,1,100,11911
1574867958.117294,343966.667,60310,3,PG,1,100,11909
1574867958.155744,343999.000,60310,3,PG,1,100,11860
1574867958.194987,344032.000,60328,3,PG,1,100,11873
1574867958.234230,344065.000,60328,3,PG,1,100,11894
1574867958.273473,344098.000,60328,3,PG,1,100,11893
1574867958.318661,344136.000,60345,3,PG,1,100,11942
1574867958.363850,344174.000,60345,3,PG,1,100,11937
1574867958.409039,344212.000,60345,3,PG,1,100,11954
1574867958.445904,344243.000,60363,3,PG,1,100,11956
1574867958.482768,344274.000,60363,3,PG,1,100,11910
1574867958.519633,344305.000,60363,3,PG,1,100,11873
1574867958.561254,344340.000,60381,3,PG,1,100,11913
1574867958.602875,344375.000,60381,3,PG,1,100,11891
1574867958.644496,344410.000,60381,3,PG,1,100,11861
1574867958.685721,344444.667,60397,3,PG,1,100,11865
1574867958.726946,344479.333,60397,3,PG,1,100,11863
1574867958.768171,344514.000,60397,3,PG,1,100,11835
1574867958.807810,344547.333,60415,3,PG,1,100,11854
1574867958.847450,344580.667,60415,3,PG,1,100,11832
1574867958.887089,344614.000,60415,3,PG,1,100,11831
1574867958.925143,344646.000,60434,3,PG,1,100,11836
1574867958.963196,344678.000,60434,3,PG,1,100,11835
1574867959.001250,344710.000,60434,3,PG,1,100,11802
1574867959.040097,344742.667,60452,3,PG,1,100,11820
1574867959.078943,344775.333,60452,3,PG,1,100,11834
1574867959.117790,344808.000,60452,3,PG,1,100,11828
1574867959.158618,344842.333,60470,3,PG,1,100,11874
1574867959.199447,344876.667,60470,3,PG,1,100,11898
1574867959.240275,344911.000,60470,3,PG,1,100,11827
1574867959.281500,344945.667,60488,3,PG,1,100,11903
1574867959.322725,344980.333,60488,3,PG,1,100,11912
1574867959.363950,345015.000,60488,3,PG,1,100,11788
1574867959.404382,345049.000,60506,3,PG,1,100,11833
1574867959.444814,345083.000,60506,3,PG,1,100,11820
1574867959.485246,345117.000,60506,3,PG,1,100,11803
1574867959.523300,345149.000,60523,3,PG,1,100,11849
1574867959.561353,345181.000,60523,3,PG,1,100,11860
1574867959.599407,345213.000,60523,3,PG,1,100,11856
1574867959.638254,345245.667,60541,3,PG,1,100,11893
1574867959.677100,345278.333,60541,3,PG,1,100,11893
1574867959.715947,345311.000,60541,3,PG,1,100,11901
1574867959.756379,345345.000,60559,3,PG,1,100,11881
1574867959.796811,345379.000,60559,3,PG,1,100,11861
1574867959.837243,345413.000,60559,3,PG,1,100,11841
1574867959.878468,345447.667,60575,3,PG,1,100,11852
1574867959.919693,345482.333,60575,3,PG,1,100,11861
1574867959.960918,345517.000,60575,3,PG,1,100,11850
1574867960.002142,345551.667,60594,3,PG,1,100,11882
1574867960.043367,345586.333,60594,3,PG,1,100,11891
1574867960.084592,345621.000,60594,3,PG,1,100,11866
1574867960.122646,345653.000,60612,3,PG,1,100,11889
1574867960.160700,345685.000,60612,3,PG,1,100,11903
1574867960.198753,345717.000,60612,3,PG,1,100,11881
1574867960.237600,345749.667,60630,3,PG,1,100,11880
1574867960.276447,345782.333,60630,3,PG,1,100,11884
1574867960.315293,345815.000,60630,3,PG,1,100,11868
1574867960.356122,345849.333,60648,3,PG,1,100,11887
1574867960.396950,345883.667,60648,3,PG,1,100,11898
1574867960.437778,345918.000,60648,3,PG,1,100,11877
1574867960.479400,345953.000,60666,3,PG,1,100,11896
1574867960.521021,345988.000,60666,3,PG,1,100,11888
1574867960.562642,346023.000,60666,3,PG,1,100,11872
1574867960.604660,346058.333,60684,3,PG,1,100,11910
1574867960.646677,346093.667,60684,3,PG,1,100,11925
1574867960.688695,346129.000,60684,3,PG,1,100,11919
1574867960.726035,346160.400,60702,5,PG,1,100,11942
1574867960.763376,346191.800,60702,5,PG,1,100,11966
1574867960.800716,346223.200,60702,5,PG,1,100,11932
1574867960.838056,346254.600,60702,5,PG,1,100,11945
1574867960.875396,346286.000,60702,5,PG,1,100,11926
1574867960.916225,346320.333,60725,3,PG,1,100,11928
1574867960.957053,346354.667,60725,3,PG,1,100,11912
1574867960.997882,346389.000,60725,3,PG,1,100,11901
1574867961.038314,346423.000,60743,3,PG,1,100,11899
1574867961.078746,346457.000,60743,3,PG,1,100,11926
1574867961.119178,346491.000,60743,3,PG,1,100,11888
1574867961.160403,346525.667,60761,3,PG,1,100,11930
1574867961.201628,346560.333,60761,3,PG,1,100,11916
1574867961.242853,346595.000,60761,3,PG,1,100,11905
1574867961.282096,346628.000,60779,3,PG,1,100,11928
1574867961.321338,346661.000,60779,3,PG,1,100,11926
1574867961.360581,346694.000,60779,3,PG,1,100,11920
1574867961.397446,346725.000,60796,3,PG,1,100,11932
1574867961.434310,346756.000,60796,3,PG,1,100,11919
1574867961.471175,346787.000,60796,3,PG,1,100,11941
1574867961.511211,346820.667,60814,3,PG,1,100,11929
1574867961.551246,346854.333,60814,3,PG,1,100,11940
1574867961.591282,346888.000,60814,3,PG,1,100,11890
1574867961.631714,346922.000,60832,3,PG,1,100,11915
1574867961.672146,346956.000,60832,3,PG,1,100,11938
1574867961.712579,346990.000,60832,3,PG,1,100,11941
1574867961.754200,347025.000,60850,3,PG,1,100,11983
1574867961.795821,347060.000,60850,3,PG,1,100,11983
1574867961.837442,347095.000,60850,3,PG,1,100,11974
1574867961.885010,347135.000,60866,2,PG,1,100,12010
1574867961.932577,347175.000,60866,2,PG,1,100,11990
1574867961.969738,347206.250,60885,4,PG,1,100,11907
1574867962.006900,347237.500,60885,4,PG,1,100,11975
1574867962.044062,347268.750,60885,4,PG,1,100,11975
1574867962.081224,347300.000,60885,4,PG,1,100,11999
1574867962.121656,347334.000,60903,3,PG,1,100,12020
1574867962.162088,347368.000,60903,3,PG,1,100,12031
1574867962.202520,347402.000,60903,3,PG,1,100,12012
1574867962.240178,347433.667,60921,3,PG,1,100,12043
1574867962.277835,347465.333,60921,3,PG,1,100,12052
1574867962.315492,347497.000,60921,3,PG,1,100,12019
1574867962.355528,347530.667,60939,3,PG,1,100,12040
1574867962.395564,347564.333,60939,3,PG,1,100,12018
1574867962.435599,347598.000,60939,3,PG,1,100,11987
1574867962.476428,347632.333,60957,3,PG,1,100,12026
1574867962.517256,347666.667,60957,3,PG,1,100,11986
1574867962.558085,347701.000,60957,3,PG,1,100,11995
1574867962.599706,347736.000,60974,3,PG,1,100,12045
1574867962.641327,347771.000,60974,3,PG,1,100,12057
1574867962.682949,347806.000,60974,3,PG,1,100,12040
1574867962.723777,347840.333,60992,3,PG,1,100,12077
1574867962.764606,347874.667,60992,3,PG,1,100,12072
1574867962.805434,347909.000,60992,3,PG,1,100,12048
1574867962.843091,347940.667,61009,3,PG,1,100,12028
1574867962.880749,347972.333,61009,3,PG,1,100,12006
1574867962.918406,348004.000,61009,3,PG,1,100,12000
1574867962.957253,348036.667,61027,3,PG,1,100,12025
1574867962.996099,348069.333,61027,3,PG,1,100,12060
1574867963.034946,348102.000,61027,3,PG,1,100,12049
1574867963.074585,348135.333,61045,3,PG,1,100,12072
1574867963.114224,348168.667,61045,3,PG,1,100,12111
1574867963.153863,348202.000,61045,3,PG,1,100,12073
1574867963.195088,348236.667,61063,3,PG,1,100,12097
1574867963.236313,348271.333,61063,3,PG,1,100,12075
1574867963.277538,348306.000,61063,3,PG,1,100,12032
1574867963.319160,348341.000,61081,3,PG,1,100,12081
1574867963.360781,348376.000,61081,3,PG,1,100,12083
1574867963.402402,348411.000,61081,3,PG,1,100,12078
1574867963.439663,348442.333,61099,3,PG,1,100,12117
1574867963.476924,348473.667,61099,3,PG,1,100,12129
1574867963.514185,348505.000,61099,3,PG,1,100,12122
1574867963.553428,348538.000,61117,3,PG,1,100,12147
1574867963.592671,348571.000,61117,3,PG,1,100,12172
1574867963.631913,348604.000,61117,3,PG,1,100,12141
1574867963.672346,348638.000,61135,3,PG,1,100,12174
1574867963.712778,348672.000,61135,3,PG,1,100,12186
1574867963.753210,348706.000,61135,3,PG,1,100,12174
1574867963.794435,348740.667,61153,3,PG,1,100,12194
1574867963.835660,348775.333,61153,3,PG,1,100,12173
1574867963.876884,348810.000,61153,3,PG,1,100,12144
1574867963.919298,348845.667,61170,3,PG,1,100,12186
1574867963.961713,348881.333,61170,3,PG,1,100,12178
1574867964.004127,348917.000,61170,3,PG,1,100,12185
1574867964.041784,348948.667,61189,3,PG,1,100,12227
1574867964.079441,348980.333,61189,3,PG,1,100,12226
1574867964.117099,349012.000,61189,3,PG,1,100,12229
1574867964.155549,349044.333,61205,3,PG,1,100,12250
1574867964.193999,349076.667,61205,3,PG,1,100,12241
1574867964.232449,349109.000,61205,3,PG,1,100,12201
1574867964.274070,349144.000,61223,3,PG,1,100,12209
1574867964.315691,349179.000,61223,3,PG,1,100,12207
1574867964.357313,349214.000,61223,3,PG,1,100,12168
1574867964.398538,349248.667,61241,3,PG,1,100,12198
1574867964.439763,349283.333,61241,3,PG,1,100,12169
1574867964.480987,349318.000,61241,3,PG,1,100,12165
1574867964.522609,349353.000,61259,3,PG,1,100,12183
1574867964.564230,349388.000,61259,3,PG,1,100,12188
1574867964.605851,349423.000,61259,3,PG,1,100,12159
1574867964.643905,349455.000,61277,3,PG,1,100,12175
1574867964.681959,349487.000,61277,3,PG,1,100,12133
1574867964.720012,349519.000,61277,3,PG,1,100,12143
1574867964.758463,349551.333,61295,3,PG,1,100,12157
1574867964.796913,349583.667,61295,3,PG,1,100,12135
1574867964.835363,349616.000,61295,3,PG,1,100,12098
1574867964.875398,349649.667,61313,3,PG,1,100,12108
1574867964.915434,349683.333,61313,3,PG,1,100,12090
1574867964.955470,349717.000,61313,3,PG,1,100,12051
1574867964.996695,349751.667,61332,3,PG,1,100,12045
1574867965.037920,349786.333,61332,3,PG,1,100,12013
1574867965.079144,349821.000,61332,3,PG,1,100,11996
1574867965.120369,349855.667,61349,3,PG,1,100,12006
1574867965.161594,349890.333,61349,3,PG,1,100,12038
1574867965.202819,349925.000,61349,3,PG,1,100,12028
1574867965.249197,349964.000,61367,2,PG,1,100,12050
1574867965.295575,350003.000,61367,2,PG,1,100,12052
1574867965.332440,350034.000,61383,4,PG,1,100,12000
1574867965.369304,350065.000,61383,4,PG,1,100,11997
1574867965.406169,350096.000,61383,4,PG,1,100,11970
1574867965.443033,350127.000,61383,4,PG,1,100,11943
1574867965.482276,350160.000,61401,3,PG,1,100,11985
1574867965.521519,350193.000,61401,3,PG,1,100,11966
1574867965.560762,350226.000,61401,3,PG,1,100,11935
1574867965.598419,350257.667,61419,3,PG,1,100,11940
1574867965.636077,350289.333,61419,3,PG,1,100,11920
1574867965.673734,350321.000,61419,3,PG,1,100,11880
1574867965.714166,350355.000,61437,3,PG,1,100,11902
1574867965.754598,350389.000,61437,3,PG,1,100,11901
1574867965.795030,350423.000,61437,3,PG,1,100,11843
1574867965.835859,350457.333,61455,3,PG,1,100,11872
1574867965.876687,350491.667,61455,3,PG,1,100,11887
1574867965.917516,350526.000,61455,3,PG,1,100,11840
1574867965.959137,350561.000,61474,3,PG,1,100,11877
1574867966.000758,350596.000,61474,3,PG,1,100,11889
1574867966.042380,350631.000,61474,3,PG,1,100,11888
1574867966.082415,350664.667,61492,3,PG,1,100,11894
1574867966.122451,350698.333,61492,3,PG,1,100,11910
1574867966.162487,350732.000,61492,3,PG,1,100,11873
1574867966.200144,350763.667,61510,3,PG,1,100,11843
1574867966.237801,350795.333,61510,3,PG,1,100,11802
1574867966.275459,350827.000,61510,3,PG,1,100,11766
1574867966.315098,350860.333,61527,3,PG,1,100,11753
1574867966.354737,350893.667,61527,3,PG,1,100,11780
1574867966.394377,350927.000,61527,3,PG,1,100,11781
1574867966.434809,350961.000,61545,3,PG,1,100,11813
1574867966.475241,350995.000,61545,3,PG,1,100,11822
1574867966.515673,351029.000,61545,3,PG,1,100,11816
1574867966.556501,351063.333,61563,3,PG,1,100,11822
1574867966.597330,351097.667,61563,3,PG,1,100,11794
1574867966.638158,351132.000,61563,3,PG,1,100,11762
1574867966.678987,351166.333,61579,3,PG,1,100,11771
1574867966.719815,351200.667,61579,3,PG,1,100,11740
1574867966.760644,351235.000,61579,3,PG,1,100,11714
1574867966.798460,351266.800,61600,5,PG,1,100,11725
1574867966.836276,351298.600,61600,5,PG,1,100,11726
1574867966.874091,351330.400,61600,5,PG,1,100,11695
1574867966.911907,351362.200,61600,5,PG,1,100,11698
1574867966.949723,351394.000,61600,5,PG,1,100,11686
1574867966.989759,351427.667,61621,3,PG,1,100,11681
1574867967.029795,351461.333,61621,3,PG,1,100,11660
1574867967.069830,351495.000,61621,3,PG,1,100,11633
1574867967.111452,351530.000,61638,3,PG,1,100,11659
1574867967.153073,351565.000,61638,3,PG,1,100,11657
1574867967.194694,351600.000,61638,3,PG,1,100,11657
1574867967.235523,351634.333,61656,3,PG,1,100,11650
1574867967.276351,351668.667,61656,3,PG,1,100,11648
1574867967.317180,351703.000,61656,3,PG,1,100,11623
1574867967.355630,351735.333,61672,3,PG,1,100,11647
1574867967.394080,351767.667,61672,3,PG,1,100,11646
1574867967.432530,351800.000,61672,3,PG,1,100,11615
1574867967.470584,351832.000,61690,3,PG,1,100,11619
1574867967.508637,351864.000,61690,3,PG,1,100,11611
1574867967.546691,351896.000,61690,3,PG,1,100,11592
1574867967.587123,351930.000,61708,3,PG,1,100,11588
1574867967.627555,351964.000,61708,3,PG,1,100,11574
1574867967.667987,351998.000,61708,3,PG,1,100,11537
1574867967.709609,352033.000,61726,3,PG,1,100,11564
1574867967.751230,352068.000,61726,3,PG,1,100,11540
1574867967.792851,352103.000,61726,3,PG,1,100,11515
1574867967.834076,352137.667,61744,3,PG,1,100,11539
1574867967.875301,352172.333,61744,3,PG,1,100,11541
1574867967.916526,352207.000,61744,3,PG,1,100,11515
1574867967.956165,352240.333,61763,3,PG,1,100,11547
1574867967.995805,352273.667,61763,3,PG,1,100,11532
1574867968.035444,352307.000,61763,3,PG,1,100,11525
1574867968.073101,352338.667,61781,3,PG,1,100,11537
1574867968.110759,352370.333,61781,3,PG,1,100,11530
1574867968.148416,352402.000,61781,3,PG,1,100,11503
1574867968.188452,352435.667,61799,3,PG,1,100,11501
1574867968.228487,352469.333,61799,3,PG,1,100,11502
1574867968.268523,352503.000,61799,3,PG,1,100,11466
1574867968.310144,352538.000,61816,3,PG,1,100,11460
1574867968.351765,352573.000,61816,3,PG,1,100,11461
1574867968.393387,352608.000,61816,3,PG,1,100,11397
1574867968.434215,352642.333,61834,3,PG,1,100,11452
1574867968.475044,352676.667,61834,3,PG,1,100,11463
1574867968.515872,352711.000,61834,3,PG,1,100,11461
1574867968.555115,352744.000,61850,3,PG,1,100,11474
1574867968.594358,352777.000,61850,3,PG,1,100,11503
1574867968.633601,352810.000,61850,3,PG,1,100,11507
1574867968.674429,352844.333,61868,3,PG,1,100,11453
1574867968.715258,352878.667,61868,3,PG,1,100,11426
1574867968.756086,352913.000,61868,3,PG,1,100,11407
1574867968.790969,352942.333,61886,3,PG,1,100,11386
1574867968.825851,352971.667,61886,3,PG,1,100,11421
1574867968.860734,353001.000,61886,3,PG,1,100,11404
1574867968.899184,353033.333,61905,3,PG,1,100,11426
1574867968.937634,353065.667,61905,3,PG,1,100,11416
1574867968.976084,353098.000,61905,3,PG,1,100,11380
1574867969.015724,353131.333,61923,3,PG,1,100,11384
1574867969.055363,353164.667,61923,3,PG,1,100,11384
1574867969.095002,353198.000,61923,3,PG,1,100,11353
1574867969.136227,353232.667,61941,3,PG,1,100,11358
1574867969.177452,353267.333,61941,3,PG,1,100,11332
1574867969.218677,353302.000,61941,3,PG,1,100,11298
1574867969.259902,353336.667,61959,3,PG,1,100,11334
1574867969.301127,353371.333,61959,3,PG,1,100,11372
1574867969.342352,353406.000,61959,3,PG,1,100,11375
1574867969.382387,353439.667,61977,3,PG,1,100,11390
1574867969.422423,353473.333,61977,3,PG,1,100,11405
1574867969.462459,353507.000,61977,3,PG,1,100,11367
1574867969.500909,353539.333,61994,3,PG,1,100,11383
1574867969.539359,353571.667,61994,3,PG,1,100,11360
1574867969.577809,353604.000,61994,3,PG,1,100,11324
1574867969.616259,353636.333,62012,3,PG,1,100,11333
1574867969.654709,353668.667,62012,3,PG,1,100,11333
1574867969.693160,353701.000,62012,3,PG,1,100,11331
1574867969.734384,353735.667,62030,3,PG,1,100,11355
1574867969.775609,353770.333,62030,3,PG,1,100,11359
1574867969.816834,353805.000,62030,3,PG,1,100,11354
1574867969.857663,353839.333,62046,3,PG,1,100,11378
1574867969.898491,353873.667,62046,3,PG,1,100,11369
1574867969.939320,353908.000,62046,3,PG,1,100,11295
1574867969.980148,353942.333,62065,3,PG,1,100,11320
1574867970.020977,353976.667,62065,3,PG,1,100,11320
1574867970.061805,354011.000,62065,3,PG,1,100,11298
1574867970.099859,354043.000,62083,3,PG,1,100,11316
1574867970.137913,354075.000,62083,3,PG,1,100,11327
1574867970.175966,354107.000,62083,3,PG,1,100,11313
1574867970.214813,354139.667,62101,3,PG,1,100,11341
1574867970.253659,354172.333,62101,3,PG,1,100,11341
1574867970.292506,354205.000,62101,3,PG,1,100,11331
1574867970.332938,354239.000,62119,3,PG,1,100,11327
1574867970.373370,354273.000,62119,3,PG,1,100,11326
1574867970.413802,354307.000,62119,3,PG,1,100,11318
1574867970.454631,354341.333,62137,3,PG,1,100,11325
1574867970.495459,354375.667,62137,3,PG,1,100,11330
1574867970.536288,354410.000,62137,3,PG,1,100,11313
1574867970.577909,354445.000,62155,3,PG,1,100,11312
1574867970.619530,354480.000,62155,3,PG,1,100,11318
1574867970.661151,354515.000,62155,3,PG,1,100,11289
1574867970.699205,354547.000,62172,3,PG,1,100,11314
1574867970.737259,354579.000,62172,3,PG,1,100,11331
1574867970.775312,354611.000,62172,3,PG,1,100,11309
1574867970.813366,354643.000,62190,3,PG,1,100,11335
1574867970.851420,354675.000,62190,3,PG,1,100,11340
1574867970.889474,354707.000,62190,3,PG,1,100,11316
1574867970.929906,354741.000,62209,3,PG,1,100,11329
1574867970.970338,354775.000,62209,3,PG,1,100,11329
1574867971.010770,354809.000,62209,3,PG,1,100,11292
1574867971.052391,354844.000,62227,3,PG,1,100,11261
1574867971.094012,354879.000,62227,3,PG,1,100,11257
1574867971.135634,354914.000,62227,3,PG,1,100,11218
1574867971.177255,354949.000,62243,3,PG,1,100,11209
1574867971.218876,354984.000,62243,3,PG,1,100,11208
1574867971.260498,355019.000,62243,3,PG,1,100,11183
1574867971.298948,355051.333,62261,3,PG,1,100,11173
1574867971.337398,355083.667,62261,3,PG,1,100,11170
1574867971.375848,355116.000,62261,3,PG,1,100,11140
1574867971.413505,355147.667,62279,3,PG,1,100,11149
1574867971.451163,355179.333,62279,3,PG,1,100,11129
1574867971.488820,355211.000,62279,3,PG,1,100,11105
1574867971.531234,355246.667,62297,3,PG,1,100,11090
1574867971.573648,355282.333,62297,3,PG,1,100,11070
1574867971.616062,355318.000,62297,3,PG,1,100,11038
1574867971.657287,355352.667,62315,3,PG,1,100,11020
1574867971.698512,355387.333,62315,3,PG,1,100,10997
1574867971.739737,355422.000,62315,3,PG,1,100,10952
1574867971.780565,355456.333,62333,3,PG,1,100,10944
1574867971.821394,355490.667,62333,3,PG,1,100,10921
1574867971.862222,355525.000,62333,3,PG,1,100,10931
1574867971.900672,355557.333,62351,3,PG,1,100,10951
1574867971.939122,355589.667,62351,3,PG,1,100,10977
1574867971.977573,355622.000,62351,3,PG,1,100,10960
1574867972.014437,355653.000,62369,3,PG,1,100,10987
1574867972.051302,355684.000,62369,3,PG,1,100,10998
1574867972.088166,355715.000,62369,3,PG,1,100,10962
1574867972.128995,355749.333,62387,3,PG,1,100,10941
1574867972.169823,355783.667,62387,3,PG,1,100,10941
1574867972.210652,355818.000,62387,3,PG,1,100,10917
1574867972.251084,355852.000,62405,3,PG,1,100,10938
1574867972.291516,355886.000,62405,3,PG,1,100,10957
1574867972.331948,355920.000,62405,3,PG,1,100,10963
1574867972.374362,355955.667,62421,3,PG,1,100,10990
1574867972.416776,355991.333,62421,3,PG,1,100,11028
1574867972.459190,356027.000,62421,3,PG,1,100,10930
1574867972.500415,356061.667,62439,3,PG,1,100,10946
1574867972.541640,356096.333,62439,3,PG,1,100,10952
1574867972.582865,356131.000,62439,3,PG,1,100,10922
1574867972.624090,356165.667,62457,3,PG,1,100,10930
1574867972.665314,356200.333,62457,3,PG,1,100,10933
1574867972.706539,356235.000,62457,3,PG,1,100,10854
1574867972.745386,356267.667,62475,3,PG,1,100,10912
1574867972.784232,356300.333,62475,3,PG,1,100,10940
1574867972.823079,356333.000,62475,3,PG,1,100,10912
1574867972.862322,356366.000,62496,5,PG,1,100,10921
1574867972.901565,356399.000,62496,5,PG,1,100,10940
1574867972.940808,356432.000,62496,5,PG,1,100,10852
1574867972.980051,356465.000,62496,5,PG,1,100,10835
1574867973.019294,356498.000,62496,5,PG,1,100,10827
1574867973.059329,356531.667,62517,3,PG,1,100,10826
1574867973.099365,356565.333,62517,3,PG,1,100,10817
1574867973.139400,356599.000,62517,3,PG,1,100,10814
1574867973.180229,356633.333,62535,3,PG,1,100,10844
1574867973.221057,356667.667,62535,3,PG,1,100,10854
1574867973.261886,356702.000,62535,3,PG,1,100,10816
1574867973.303507,356737.000,62553,3,PG,1,100,10842
1574867973.345129,356772.000,62553,3,PG,1,100,10798
1574867973.386750,356807.000,62553,3,PG,1,100,10756
1574867973.424407,356838.667,62571,3,PG,1,100,10748
1574867973.462065,356870.333,62571,3,PG,1,100,10742
1574867973.499722,356902.000,62571,3,PG,1,100,10708
1574867973.538172,356934.333,62589,3,PG,1,100,10716
1574867973.576622,356966.667,62589,3,PG,1,100,10712
1574867973.615072,356999.000,62589,3,PG,1,100,10695
1574867973.654711,357032.333,62607,3,PG,1,100,10725
1574867973.694351,357065.667,62607,3,PG,1,100,10721
1574867973.733990,357099.000,62607,3,PG,1,100,10675
1574867973.775215,357133.667,62625,3,PG,1,100,10692
1574867973.816440,357168.333,62625,3,PG,1,100,10681
1574867973.857665,357203.000,62625,3,PG,1,100,10647
1574867973.899286,357238.000,62643,3,PG,1,100,10670
1574867973.940907,357273.000,62643,3,PG,1,100,10664
1574867973.982528,357308.000,62643,3,PG,1,100,10651
1574867974.020186,357339.667,62661,3,PG,1,100,10651
1574867974.057843,357371.333,62661,3,PG,1,100,10647
1574867974.095500,357403.000,62661,3,PG,1,100,10620
1574867974.133951,357435.333,62679,3,PG,1,100,10647
1574867974.172401,357467.667,62679,3,PG,1,100,10657
1574867974.210851,357500.000,62679,3,PG,1,100,10639
1574867974.250094,357533.000,62695,3,PG,1,100,10674
1574867974.289337,357566.000,62695,3,PG,1,100,10680
1574867974.328580,357599.000,62695,3,PG,1,100,10659
1574867974.369805,357633.667,62713,3,PG,1,100,10657
1574867974.411029,357668.333,62713,3,PG,1,100,10652
1574867974.452254,357703.000,62713,3,PG,1,100,10621
1574867974.494272,357738.333,62731,3,PG,1,100,10632
1574867974.536290,357773.667,62731,3,PG,1,100,10634
1574867974.578307,357809.000,62731,3,PG,1,100,10608
1574867974.616757,357841.333,62749,3,PG,1,100,10630
1574867974.655208,357873.667,62749,3,PG,1,100,10640
1574867974.693658,357906.000,62749,3,PG,1,100,10615
1574867974.732108,357938.333,62767,3,PG,1,100,10647
1574867974.770558,357970.667,62767,3,PG,1,100,10634
1574867974.809008,358003.000,62767,3,PG,1,100,10624
1574867974.849044,358036.667,62785,3,PG,1,100,10631
1574867974.889079,358070.333,62785,3,PG,1,100,10622
1574867974.929115,358104.000,62785,3,PG,1,100,10597
1574867974.970340,358138.667,62804,3,PG,1,100,10593
1574867975.011565,358173.333,62804,3,PG,1,100,10599
1574867975.052790,358208.000,62804,3,PG,1,100,10582
1574867975.095600,358244.000,62821,3,PG,1,100,10568
1574867975.138411,358280.000,62821,3,PG,1,100,10579
1574867975.181221,358316.000,62821,3,PG,1,100,10517
1574867975.219275,358348.000,62839,3,PG,1,100,10559
1574867975.257329,358380.000,62839,3,PG,1,100,10583
1574867975.295382,358412.000,62839,3,PG,1,100,10583
1574867975.333833,358444.333,62857,3,PG,1,100,10637
1574867975.372283,358476.667,62857,3,PG,1,100,10647
1574867975.410733,358509.000,62857,3,PG,1,100,10643
1574867975.449975,358542.000,62873,3,PG,1,100,10642
1574867975.489218,358575.000,62873,3,PG,1,100,10596
1574867975.528461,358608.000,62873,3,PG,1,100,10558
1574867975.569686,358642.667,62891,3,PG,1,100,10524
1574867975.610911,358677.333,62891,3,PG,1,100,10515
1574867975.652136,358712.000,62891,3,PG,1,100,10509
1574867975.693361,358746.667,62909,3,PG,1,100,10533
1574867975.734586,358781.333,62909,3,PG,1,100,10563
1574867975.775811,358816.000,62909,3,PG,1,100,10550
1574867975.815053,358849.000,62927,3,PG,1,100,10580
1574867975.854296,358882.000,62927,3,PG,1,100,10566
1574867975.893539,358915.000,62927,3,PG,1,100,10545
1574867975.935557,358950.333,62946,3,PG,1,100,10525
1574867975.977575,358985.667,62946,3,PG,1,100,10514
1574867976.019592,359021.000,62946,3,PG,1,100,10488
1574867976.059628,359054.667,62964,3,PG,1,100,10482
1574867976.099664,359088.333,62964,3,PG,1,100,10475
1574867976.139699,359122.000,62964,3,PG,1,100,10459
1574867976.175771,359152.333,62982,3,PG,1,100,10463
1574867976.211843,359182.667,62982,3,PG,1,100,10470
1574867976.247915,359213.000,62982,3,PG,1,100,10472
1574867976.287951,359246.667,63000,3,PG,1,100,10545
1574867976.327986,359280.333,63000,3,PG,1,100,10500
1574867976.368022,359314.000,63000,3,PG,1,100,10448
1574867976.408454,359348.000,63017,3,PG,1,100,10451
1574867976.448886,359382.000,63017,3,PG,1,100,10465
1574867976.489318,359416.000,63017,3,PG,1,100,10463
1574867976.530939,359451.000,63035,3,PG,1,100,10492
1574867976.572561,359486.000,63035,3,PG,1,100,10547
1574867976.614182,359521.000,63035,3,PG,1,100,10519
1574867976.655010,359555.333,63051,3,PG,1,100,10541
1574867976.695839,359589.667,63051,3,PG,1,100,10573
1574867976.736667,359624.000,63051,3,PG,1,100,10498
1574867976.774325,359655.667,63069,3,PG,1,100,10502
1574867976.811982,359687.333,63069,3,PG,1,100,10490
1574867976.849639,359719.000,63069,3,PG,1,100,10467
1574867976.889675,359752.667,63088,3,PG,1,100,10480
1574867976.929711,359786.333,63088,3,PG,1,100,10481
1574867976.969747,359820.000,63088,3,PG,1,100,10479
1574867977.009782,359853.667,63106,3,PG,1,100,10492
1574867977.049818,359887.333,63106,3,PG,1,100,10499
1574867977.089854,359921.000,63106,3,PG,1,100,10505
1574867977.131475,359956.000,63124,3,PG,1,100,10520
1574867977.173096,359991.000,63124,3,PG,1,100,10524
1574867977.214717,360026.000,63124,3,PG,1,100,10501
1574867977.255149,360060.000,63142,3,PG,1,100,10515
1574867977.295582,360094.000,63142,3,PG,1,100,10517
1574867977.336014,360128.000,63142,3,PG,1,100,10504
1574867977.373671,360159.667,63160,3,PG,1,100,10521
1574867977.411328,360191.333,63160,3,PG,1,100,10526
1574867977.448986,360223.000,63160,3,PG,1,100,10496
1574867977.487832,360255.667,63178,3,PG,1,100,10505
1574867977.526679,360288.333,63178,3,PG,1,100,10507
1574867977.565525,360321.000,63178,3,PG,1,100,10508
1574867977.605561,360354.667,63195,3,PG,1,100,10529
1574867977.645597,360388.333,63195,3,PG,1,100,10540
1574867977.685632,360422.000,63195,3,PG,1,100,10548
1574867977.726461,360456.333,63213,3,PG,1,100,10581
1574867977.767289,360490.667,63213,3,PG,1,100,10586
1574867977.808118,360525.000,63213,3,PG,1,100,10570
1574867977.850135,360560.333,63230,3,PG,1,100,10559
1574867977.892153,360595.667,63230,3,PG,1,100,10567
1574867977.934171,360631.000,63230,3,PG,1,100,10536
1574867977.971828,360662.667,63248,3,PG,1,100,10557
1574867978.009485,360694.333,63248,3,PG,1,100,10554
1574867978.047143,360726.000,63248,3,PG,1,100,10538
1574867978.085989,360758.667,63266,3,PG,1,100,10553
1574867978.124836,360791.333,63266,3,PG,1,100,10568
1574867978.163682,360824.000,63266,3,PG,1,100,10515
1574867978.203322,360857.333,63284,3,PG,1,100,10539
1574867978.242961,360890.667,63284,3,PG,1,100,10548
1574867978.282600,360924.000,63284,3,PG,1,100,10540
1574867978.324222,360959.000,63302,3,PG,1,100,10538
1574867978.365843,360994.000,63302,3,PG,1,100,10544
1574867978.407464,361029.000,63302,3,PG,1,100,10482
1574867978.449085,361064.000,63320,3,PG,1,100,10432
1574867978.490707,361099.000,63320,3,PG,1,100,10541
1574867978.532328,361134.000,63320,3,PG,1,100,10511
1574867978.570778,361166.333,63338,3,PG,1,100,10511
1574867978.609228,361198.667,63338,3,PG,1,100,10508
1574867978.647678,361231.000,63338,3,PG,1,100,10517
1574867978.685732,361263.000,63356,3,PG,1,100,10551
1574867978.723786,361295.000,63356,3,PG,1,100,10551
1574867978.761839,361327.000,63356,3,PG,1,100,10574
1574867978.805839,361364.000,63374,3,PG,1,100,10599
1574867978.849839,361401.000,63374,3,PG,1,100,10548
1574867978.893838,361438.000,63374,3,PG,1,100,10499
1574867978.933557,361471.400,63395,5,PG,1,100,10482
1574867978.973275,361504.800,63395,5,PG,1,100,10491
1574867979.012994,361538.200,63395,5,PG,1,100,10455
1574867979.052713,361571.600,63395,5,PG,1,100,10490
1574867979.092431,361605.000,63395,5,PG,1,100,10511
1574867979.132467,361638.667,63415,3,PG,1,100,10546
1574867979.172503,361672.333,63415,3,PG,1,100,10560
1574867979.212538,361706.000,63415,3,PG,1,100,10544
1574867979.249799,361737.333,63433,3,PG,1,100,10523
1574867979.287060,361768.667,63433,3,PG,1,100,10486
1574867979.324321,361800.000,63433,3,PG,1,100,10454
1574867979.363564,361833.000,63451,3,PG,1,100,10471
1574867979.402807,361866.000,63451,3,PG,1,100,10473
1574867979.442050,361899.000,63451,3,PG,1,100,10409
1574867979.483671,361934.000,63469,3,PG,1,100,10479
1574867979.525292,361969.000,63469,3,PG,1,100,10506
1574867979.566914,362004.000,63469,3,PG,1,100,10480
1574867979.611706,362041.667,63486,3,PG,1,100,10554
1574867979.656498,362079.333,63486,3,PG,1,100,10562
1574867979.701291,362117.000,63486,3,PG,1,100,10560
1574867979.740137,362149.667,63504,3,PG,1,100,10568
1574867979.778984,362182.333,63504,3,PG,1,100,10582
1574867979.817831,362215.000,63504,3,PG,1,100,10570
1574867979.858659,362249.333,63520,3,PG,1,100,10582
1574867979.899487,362283.667,63520,3,PG,1,100,10590
1574867979.940316,362318.000,63520,3,PG,1,100,10606
1574867979.980748,362352.000,63539,3,PG,1,100,10659
1574867980.021180,362386.000,63539,3,PG,1,100,10664
1574867980.061612,362420.000,63539,3,PG,1,100,10680
1574867980.100062,362452.333,63557,3,PG,1,100,10725
1574867980.138512,362484.667,63557,3,PG,1,100,10688
1574867980.176963,362517.000,63557,3,PG,1,100,10634
1574867980.215809,362549.667,63575,3,PG,1,100,10669
1574867980.254656,362582.333,63575,3,PG,1,100,10669
1574867980.293502,362615.000,63575,3,PG,1,100,10657
1574867980.334331,362649.333,63593,3,PG,1,100,10688
1574867980.375159,362683.667,63593,3,PG,1,100,10711
1574867980.415987,362718.000,63593,3,PG,1,100,10704
1574867980.456816,362752.333,63611,3,PG,1,100,10734
1574867980.497644,362786.667,63611,3,PG,1,100,10735
1574867980.538473,362821.000,63611,3,PG,1,100,10714
1574867980.579698,362855.667,63629,3,PG,1,100,10732
1574867980.620923,362890.333,63629,3,PG,1,100,10734
1574867980.662148,362925.000,63629,3,PG,1,100,10719
1574867980.700598,362957.333,63646,3,PG,1,100,10744
1574867980.739048,362989.667,63646,3,PG,1,100,10744
1574867980.777498,363022.000,63646,3,PG,1,100,10740
1574867980.815552,363054.000,63664,3,PG,1,100,10755
1574867980.853606,363086.000,63664,3,PG,1,100,10755
1574867980.891659,363118.000,63664,3,PG,1,100,10738
1574867980.932091,363152.000,63683,3,PG,1,100,10781
1574867980.972523,363186.000,63683,3,PG,1,100,10783
1574867981.012955,363220.000,63683,3,PG,1,100,10768
1574867981.054180,363254.667,63699,3,PG,1,100,10790
1574867981.095405,363289.333,63699,3,PG,1,100,10800
1574867981.136630,363324.000,63699,3,PG,1,100,10751
1574867981.178251,363359.000,63717,3,PG,1,100,10791
1574867981.219873,363394.000,63717,3,PG,1,100,10801
1574867981.261494,363429.000,63717,3,PG,1,100,10764
1574867981.299944,363461.333,63735,3,PG,1,100,10796
1574867981.338394,363493.667,63735,3,PG,1,100,10804
1574867981.376844,363526.000,63735,3,PG,1,100,10789
1574867981.414502,363557.667,63753,3,PG,1,100,10802
1574867981.452159,363589.333,63753,3,PG,1,100,10821
1574867981.489816,363621.000,63753,3,PG,1,100,10783
1574867981.529852,363654.667,63771,3,PG,1,100,10800
1574867981.569888,363688.333,63771,3,PG,1,100,10796
1574867981.609923,363722.000,63771,3,PG,1,100,10780
1574867981.651545,363757.000,63789,3,PG,1,100,10790
1574867981.693166,363792.000,63789,3,PG,1,100,10800
1574867981.734787,363827.000,63789,3,PG,1,100,10788
1574867981.776408,363862.000,63807,3,PG,1,100,10797
1574867981.818030,363897.000,63807,3,PG,1,100,10785
1574867981.859651,363932.000,63807,3,PG,1,100,10781
1574867981.898498,363964.667,63824,3,PG,1,100,10775
1574867981.937344,363997.333,63824,3,PG,1,100,10804
1574867981.976191,364030.000,63824,3,PG,1,100,10801
1574867982.017416,364064.667,63843,3,PG,1,100,10842
1574867982.058640,364099.333,63843,3,PG,1,100,10851
1574867982.099865,364134.000,63843,3,PG,1,100,10848
1574867982.140297,364168.000,63861,3,PG,1,100,10870
1574867982.180729,364202.000,63861,3,PG,1,100,10836
1574867982.221161,364236.000,63861,3,PG,1,100,10802
1574867982.263179,364271.333,63877,3,PG,1,100,10828
1574867982.305197,364306.667,63877,3,PG,1,100,10805
1574867982.347214,364342.000,63877,3,PG,1,100,10814
1574867982.388439,364376.667,63895,3,PG,1,100,10877
1574867982.429664,364411.333,63895,3,PG,1,100,10890
1574867982.470889,364446.000,63895,3,PG,1,100,10879
1574867982.507357,364476.667,63913,3,PG,1,100,10910
1574867982.543825,364507.333,63913,3,PG,1,100,10862
1574867982.580294,364538.000,63913,3,PG,1,100,10848
1574867982.617158,364569.000,63931,3,PG,1,100,10870
1574867982.654023,364600.000,63931,3,PG,1,100,10880
1574867982.690887,364631.000,63931,3,PG,1,100,10854
1574867982.731716,364665.333,63949,3,PG,1,100,10877
1574867982.772544,364699.667,63949,3,PG,1,100,10894
1574867982.813373,364734.000,63949,3,PG,1,100,10881
1574867982.854598,364768.667,63967,3,PG,1,100,10900
1574867982.895823,364803.333,63967,3,PG,1,100,10908
1574867982.937047,364838.000,63967,3,PG,1,100,10886
1574867982.977876,364872.333,63986,3,PG,1,100,10896
1574867983.018704,364906.667,63986,3,PG,1,100,10894
1574867983.059533,364941.000,63986,3,PG,1,100,10870
1574867983.099568,364974.667,64003,3,PG,1,100,10904
1574867983.139604,365008.333,64003,3,PG,1,100,10907
1574867983.179640,365042.000,64003,3,PG,1,100,10895
1574867983.219676,365075.667,64021,3,PG,1,100,10912
1574867983.259711,365109.333,64021,3,PG,1,100,10913
1574867983.299747,365143.000,64021,3,PG,1,100,10890
1574867983.336612,365174.000,64039,3,PG,1,100,10906
1574867983.373476,365205.000,64039,3,PG,1,100,10935
1574867983.410341,365236.000,64039,3,PG,1,100,10916
1574867983.447998,365267.667,64055,3,PG,1,100,10920
1574867983.485655,365299.333,64055,3,PG,1,100,10910
1574867983.523313,365331.000,64055,3,PG,1,100,10885
1574867983.562952,365364.333,64073,3,PG,1,100,10903
1574867983.602591,365397.667,64073,3,PG,1,100,10914
1574867983.642231,365431.000,64073,3,PG,1,100,10903
1574867983.683455,365465.667,64091,3,PG,1,100,10914
1574867983.724680,365500.333,64091,3,PG,1,100,10922
1574867983.765905,365535.000,64091,3,PG,1,100,10922
1574867983.807130,365569.667,64109,3,PG,1,100,10924
1574867983.848355,365604.333,64109,3,PG,1,100,10932
1574867983.889580,365639.000,64109,3,PG,1,100,10911
1574867983.930012,365673.000,64128,3,PG,1,100,10931
1574867983.970444,365707.000,64128,3,PG,1,100,10950
1574867984.010876,365741.000,64128,3,PG,1,100,10827
1574867984.049326,365773.333,64146,3,PG,1,100,10932
1574867984.087776,365805.667,64146,3,PG,1,100,10931
1574867984.126226,365838.000,64146,3,PG,1,100,10903
1574867984.165469,365871.000,64164,3,PG,1,100,10932
1574867984.204712,365904.000,64164,3,PG,1,100,10946
1574867984.243955,365937.000,64164,3,PG,1,100,10938
1574867984.284784,365971.333,64182,3,PG,1,100,10963
1574867984.325612,366005.667,64182,3,PG,1,100,10989
1574867984.366441,366040.000,64182,3,PG,1,100,10960
1574867984.407269,366074.333,64199,3,PG,1,100,10967
1574867984.448097,366108.667,64199,3,PG,1,100,10961
1574867984.488926,366143.000,64199,3,PG,1,100,10943
1574867984.530151,366177.667,64217,3,PG,1,100,10942
1574867984.571376,366212.333,64217,3,PG,1,100,10964
1574867984.612601,366247.000,64217,3,PG,1,100,10936
1574867984.650258,366278.667,64233,3,PG,1,100,10959
1574867984.687915,366310.333,64233,3,PG,1,100,10954
1574867984.725573,366342.000,64233,3,PG,1,100,10944
1574867984.764419,366374.667,64251,3,PG,1,100,10943
1574867984.803266,366407.333,64251,3,PG,1,100,10949
1574867984.842112,366440.000,64251,3,PG,1,100,10926
1574867984.882544,366474.000,64270,3,PG,1,100,10946
1574867984.922976,366508.000,64270,3,PG,1,100,10943
1574867984.963408,366542.000,64270,3,PG,1,100,10930
1574867985.004792,366576.800,64291,5,PG,1,100,10934
1574867985.046175,366611.600,64291,5,PG,1,100,10937
1574867985.087559,366646.400,64291,5,PG,1,100,10931
1574867985.128942,366681.200,64291,5,PG,1,100,10940
1574867985.170326,366716.000,64291,5,PG,1,100,10925
1574867985.209172,366748.667,64311,3,PG,1,100,10914
1574867985.248019,366781.333,64311,3,PG,1,100,10927
1574867985.286865,366814.000,64311,3,PG,1,100,10861
1574867985.325315,366846.333,64328,3,PG,1,100,10905
1574867985.363765,366878.667,64328,3,PG,1,100,10958
1574867985.402215,366911.000,64328,3,PG,1,100,10947
1574867985.445819,366947.667,64345,3,PG,1,100,10965
1574867985.489422,366984.333,64345,3,PG,1,100,10990
1574867985.533025,367021.000,64345,3,PG,1,100,10966
1574867985.573854,367055.333,64363,3,PG,1,100,10956
1574867985.614682,367089.667,64363,3,PG,1,100,10938
1574867985.655511,367124.000,64363,3,PG,1,100,10912
1574867985.697132,367159.000,64381,3,PG,1,100,10918
1574867985.738753,367194.000,64381,3,PG,1,100,10927
1574867985.780375,367229.000,64381,3,PG,1,100,10935
1574867985.820014,367262.333,64399,3,PG,1,100,10969
1574867985.859653,367295.667,64399,3,PG,1,100,10980
1574867985.899292,367329.000,64399,3,PG,1,100,10949
1574867985.937346,367361.000,64418,3,PG,1,100,10986
1574867985.975400,367393.000,64418,3,PG,1,100,11008
1574867986.013454,367425.000,64418,3,PG,1,100,10952
1574867986.050318,367456.000,64436,3,PG,1,100,10941
1574867986.087183,367487.000,64436,3,PG,1,100,10940
1574867986.124047,367518.000,64436,3,PG,1,100,10900
1574867986.165668,367553.000,64454,3,PG,1,100,10935
1574867986.207290,367588.000,64454,3,PG,1,100,10936
1574867986.248911,367623.000,64454,3,PG,1,100,10920
1574867986.290136,367657.667,64471,3,PG,1,100,10961
1574867986.331361,367692.333,64471,3,PG,1,100,10963
1574867986.372586,367727.000,64471,3,PG,1,100,10939
1574867986.412225,367760.333,64489,3,PG,1,100,10950
1574867986.451864,367793.667,64489,3,PG,1,100,10951
1574867986.491504,367827.000,64489,3,PG,1,100,10926
1574867986.529161,367858.667,64506,3,PG,1,100,10946
1574867986.566818,367890.333,64506,3,PG,1,100,10955
1574867986.604476,367922.000,64506,3,PG,1,100,10933
1574867986.642926,367954.333,64523,3,PG,1,100,10958
1574867986.681376,367986.667,64523,3,PG,1,100,10948
1574867986.719826,368019.000,64523,3,PG,1,100,10927
1574867986.761447,368054.000,64541,3,PG,1,100,10956
1574867986.803069,368089.000,64541,3,PG,1,100,10946
1574867986.844690,368124.000,64541,3,PG,1,100,10950
1574867986.889879,368162.000,64560,3,PG,1,100,10966
1574867986.935067,368200.000,64560,3,PG,1,100,10972
1574867986.980256,368238.000,64560,3,PG,1,100,10948
1574867987.017914,368269.667,64578,3,PG,1,100,10963
1574867987.055571,368301.333,64578,3,PG,1,100,10947
1574867987.093228,368333.000,64578,3,PG,1,100,10910
1574867987.134453,368367.667,64596,3,PG,1,100,10923
1574867987.175678,368402.333,64596,3,PG,1,100,10927
1574867987.216903,368437.000,64596,3,PG,1,100,10915
1574867987.257731,368471.333,64614,3,PG,1,100,10942
1574867987.298560,368505.667,64614,3,PG,1,100,10943
1574867987.339388,368540.000,64614,3,PG,1,100,10918
1574867987.377046,368571.667,64631,3,PG,1,100,10932
1574867987.414703,368603.333,64631,3,PG,1,100,10932
1574867987.452360,368635.000,64631,3,PG,1,100,10915
1574867987.492000,368668.333,64649,3,PG,1,100,10936
1574867987.531639,368701.667,64649,3,PG,1,100,10945
1574867987.571278,368735.000,64649,3,PG,1,100,10904
1574867987.611314,368768.667,64667,3,PG,1,100,10918
1574867987.651350,368802.333,64667,3,PG,1,100,10901
1574867987.691385,368836.000,64667,3,PG,1,100,10872
1574867987.733007,368871.000,64683,3,PG,1,100,10883
1574867987.774628,368906.000,64683,3,PG,1,100,10886
1574867987.816249,368941.000,64683,3,PG,1,100,10869
1574867987.858267,368976.333,64701,3,PG,1,100,10902
1574867987.900285,369011.667,64701,3,PG,1,100,10899
1574867987.942302,369047.000,64701,3,PG,1,100,10905
1574867987.979959,369078.667,64720,3,PG,1,100,10904
1574867988.017617,369110.333,64720,3,PG,1,100,10904
1574867988.055274,369142.000,64720,3,PG,1,100,10885
1574867988.094121,369174.667,64738,3,PG,1,100,10902
1574867988.132967,369207.333,64738,3,PG,1,100,10894
1574867988.171814,369240.000,64738,3,PG,1,100,10864
1574867988.211453,369273.333,64756,3,PG,1,100,10874
1574867988.251092,369306.667,64756,3,PG,1,100,10879
1574867988.290732,369340.000,64756,3,PG,1,100,10856
1574867988.331560,369374.333,64774,3,PG,1,100,10877
1574867988.372389,369408.667,64774,3,PG,1,100,10874
1574867988.413217,369443.000,64774,3,PG,1,100,10850
1574867988.454442,369477.667,64792,3,PG,1,100,10871
1574867988.495667,369512.333,64792,3,PG,1,100,10877
1574867988.536892,369547.000,64792,3,PG,1,100,10844
1574867988.574945,369579.000,64809,3,PG,1,100,10888
1574867988.612999,369611.000,64809,3,PG,1,100,10883
1574867988.651053,369643.000,64809,3,PG,1,100,10880
1574867988.689107,369675.000,64827,3,PG,1,100,10881
1574867988.727160,369707.000,64827,3,PG,1,100,10875
1574867988.765214,369739.000,64827,3,PG,1,100,10850
1574867988.804457,369772.000,64845,3,PG,1,100,10900
1574867988.843700,369805.000,64845,3,PG,1,100,10918
1574867988.882943,369838.000,64845,3,PG,1,100,10904
1574867988.928132,369876.000,64864,3,PG,1,100,10923
1574867988.973320,369914.000,64864,3,PG,1,100,10936
1574867989.018509,369952.000,64864,3,PG,1,100,10944
1574867989.060527,369987.333,64880,3,PG,1,100,10889
1574867989.102545,370022.667,64880,3,PG,1,100,10885
1574867989.144562,370058.000,64880,3,PG,1,100,10861
1574867989.183409,370090.667,64898,3,PG,1,100,10875
1574867989.222255,370123.333,64898,3,PG,1,100,10911
1574867989.261102,370156.000,64898,3,PG,1,100,10929
1574867989.299155,370188.000,64916,3,PG,1,100,10966
1574867989.337209,370220.000,64916,3,PG,1,100,10966
1574867989.375263,370252.000,64916,3,PG,1,100,10971
1574867989.414902,370285.333,64934,3,PG,1,100,10970
1574867989.454542,370318.667,64934,3,PG,1,100,10907
1574867989.494181,370352.000,64934,3,PG,1,100,10872
1574867989.535406,370386.667,64952,3,PG,1,100,10904
1574867989.576631,370421.333,64952,3,PG,1,100,10901
1574867989.617856,370456.000,64952,3,PG,1,100,10878
1574867989.659477,370491.000,64970,3,PG,1,100,10919
1574867989.701098,370526.000,64970,3,PG,1,100,10910
1574867989.742719,370561.000,64970,3,PG,1,100,10880
1574867989.778395,370591.000,64988,3,PG,1,100,10916
1574867989.814070,370621.000,64988,3,PG,1,100,10923
1574867989.849746,370651.000,64988,3,PG,1,100,10906
1574867989.888196,370683.333,65006,3,PG,1,100,10917
1574867989.926646,370715.667,65006,3,PG,1,100,10914
1574867989.965096,370748.000,65006,3,PG,1,100,10899
1574867990.004339,370781.000,65024,3,PG,1,100,10907
1574867990.043582,370814.000,65024,3,PG,1,100,10896
1574867990.082824,370847.000,65024,3,PG,1,100,10882
1574867990.124446,370882.000,65042,3,PG,1,100,10884
1574867990.166067,370917.000,65042,3,PG,1,100,10890
1574867990.207688,370952.000,65042,3,PG,1,100,10870
1574867990.248913,370986.667,65058,3,PG,1,100,10892
1574867990.290138,371021.333,65058,3,PG,1,100,10901
1574867990.331363,371056.000,65058,3,PG,1,100,10897
1574867990.371002,371089.333,65076,3,PG,1,100,10912
1574867990.410642,371122.667,65076,3,PG,1,100,10934
1574867990.450281,371156.000,65076,3,PG,1,100,10920
1574867990.491902,371191.000,65094,3,PG,1,100,10935
1574867990.533524,371226.000,65094,3,PG,1,100,10917
1574867990.575145,371261.000,65094,3,PG,1,100,10893
1574867990.610820,371291.000,65112,3,PG,1,100,10911
1574867990.646496,371321.000,65112,3,PG,1,100,10894
1574867990.682171,371351.000,65112,3,PG,1,100,10870
1574867990.720621,371383.333,65130,3,PG,1,100,10884
1574867990.759071,371415.667,65130,3,PG,1,100,10886
1574867990.797521,371448.000,65130,3,PG,1,100,10877
1574867990.835971,371480.333,65148,3,PG,1,100,10892
1574867990.874422,371512.667,65148,3,PG,1,100,10896
1574867990.912872,371545.000,65148,3,PG,1,100,10865
1574867990.953700,371579.333,65167,3,PG,1,100,10883
1574867990.994529,371613.667,65167,3,PG,1,100,10887
1574867991.035357,371648.000,65167,3,PG,1,100,10875
1574867991.076978,371683.000,65188,5,PG,1,100,10897
1574867991.118600,371718.000,65188,5,PG,1,100,10923
1574867991.160221,371753.000,65188,5,PG,1,100,10861
1574867991.201842,371788.000,65188,5,PG,1,100,10908
1574867991.243464,371823.000,65188,5,PG,1,100,10917
1574867991.281914,371855.333,65208,3,PG,1,100,10913
1574867991.320364,371887.667,65208,3,PG,1,100,10899
1574867991.358814,371920.000,65208,3,PG,1,100,10882
1574867991.396868,371952.000,65226,3,PG,1,100,10896
1574867991.434921,371984.000,65226,3,PG,1,100,10890
1574867991.472975,372016.000,65226,3,PG,1,100,10855
1574867991.513407,372050.000,65244,3,PG,1,100,10894
1574867991.553839,372084.000,65244,3,PG,1,100,10888
1574867991.594271,372118.000,65244,3,PG,1,100,10872
1574867991.635100,372152.333,65262,3,PG,1,100,10904
1574867991.675928,372186.667,65262,3,PG,1,100,10892
1574867991.716757,372221.000,65262,3,PG,1,100,10888
1574867991.758774,372256.333,65280,3,PG,1,100,10899
1574867991.800792,372291.667,65280,3,PG,1,100,10893
1574867991.842810,372327.000,65280,3,PG,1,100,10811
1574867991.881260,372359.333,65298,3,PG,1,100,10877
1574867991.919710,372391.667,65298,3,PG,1,100,10872
1574867991.958160,372424.000,65298,3,PG,1,100,10854
1574867991.995817,372455.667,65316,3,PG,1,100,10862
1574867992.033475,372487.333,65316,3,PG,1,100,10878
1574867992.071132,372519.000,65316,3,PG,1,100,10823
1574867992.111168,372552.667,65334,3,PG,1,100,10841
1574867992.151203,372586.333,65334,3,PG,1,100,10851
1574867992.191239,372620.000,65334,3,PG,1,100,10843
1574867992.232464,372654.667,65350,3,PG,1,100,10893
1574867992.273689,372689.333,65350,3,PG,1,100,10905
1574867992.314914,372724.000,65350,3,PG,1,100,10897
1574867992.360103,372762.000,65368,3,PG,1,100,10949
1574867992.405291,372800.000,65368,3,PG,1,100,10908
1574867992.450480,372838.000,65368,3,PG,1,100,10853
1574867992.489723,372871.000,65386,3,PG,1,100,10866
1574867992.528966,372904.000,65386,3,PG,1,100,10858
1574867992.568209,372937.000,65386,3,PG,1,100,10809
1574867992.605470,372968.333,65404,3,PG,1,100,10850
1574867992.642731,372999.667,65404,3,PG,1,100,10858
1574867992.679992,373031.000,65404,3,PG,1,100,10857
1574867992.720027,373064.667,65422,3,PG,1,100,10858
1574867992.760063,373098.333,65422,3,PG,1,100,10874
1574867992.800099,373132.000,65422,3,PG,1,100,10862
1574867992.841720,373167.000,65440,3,PG,1,100,10876
1574867992.883341,373202.000,65440,3,PG,1,100,10839
1574867992.924963,373237.000,65440,3,PG,1,100,10815
1574867992.966187,373271.667,65459,3,PG,1,100,10829
1574867993.007412,373306.333,65459,3,PG,1,100,10836
1574867993.048637,373341.000,65459,3,PG,1,100,10830
1574867993.088673,373374.667,65476,3,PG,1,100,10831
1574867993.128709,373408.333,65476,3,PG,1,100,10851
1574867993.168744,373442.000,65476,3,PG,1,100,10833
1574867993.206005,373473.333,65494,3,PG,1,100,10857
1574867993.243266,373504.667,65494,3,PG,1,100,10877
1574867993.280527,373536.000,65494,3,PG,1,100,10852
1574867993.317788,373567.333,65512,3,PG,1,100,10864
1574867993.355049,373598.667,65512,3,PG,1,100,10878
1574867993.392310,373630.000,65512,3,PG,1,100,10878
1574867993.433139,373664.333,65529,3,PG,1,100,10889
1574867993.473967,373698.667,65529,3,PG,1,100,10893
1574867993.514796,373733.000,65529,3,PG,1,100,10873
1574867993.555624,373767.333,10,3,PG,1,100,10899
1574867993.596452,373801.667,10,3,PG,1,100,10906
1574867993.637281,373836.000,10,3,PG,1,100,10888
1574867993.678109,373870.333,28,3,PG,1,100,10930
1574867993.718938,373904.667,28,3,PG,1,100,10937
1574867993.759766,373939.000,28,3,PG,1,100,10935
1574867993.796235,373969.667,46,3,PG,1,100,10968
1574867993.832703,374000.333,46,3,PG,1,100,10957
1574867993.869171,374031.000,46,3,PG,1,100,10929
1574867993.908810,374064.333,65,3,PG,1,100,10934
1574867993.948449,374097.667,65,3,PG,1,100,10920
1574867993.988089,374131.000,65,3,PG,1,100,10903
1574867994.028521,374165.000,83,3,PG,1,100,10872
1574867994.068953,374199.000,83,3,PG,1,100,10880
1574867994.109385,374233.000,83,3,PG,1,100,10859
1574867994.154574,374271.000,101,3,PG,1,100,10834
1574867994.199763,374309.000,101,3,PG,1,100,10813
1574867994.244951,374347.000,101,3,PG,1,100,10781
1574867994.286176,374381.667,119,3,PG,1,100,10750
1574867994.327401,374416.333,119,3,PG,1,100,10723
1574867994.368626,374451.000,119,3,PG,1,100,10680
1574867994.407076,374483.333,136,3,PG,1,100,10663
1574867994.445526,374515.667,136,3,PG,1,100,10637
1574867994.483977,374548.000,136,3,PG,1,100,10603
1574867994.524805,374582.333,154,3,PG,1,100,10622
1574867994.565634,374616.667,154,3,PG,1,100,10611
1574867994.606462,374651.000,154,3,PG,1,100,10589
1574867994.644516,374683.000,170,3,PG,1,100,10614
1574867994.682570,374715.000,170,3,PG,1,100,10603
1574867994.720623,374747.000,170,3,PG,1,100,10559
1574867994.759470,374779.667,188,3,PG,1,100,10571
1574867994.798316,374812.333,188,3,PG,1,100,10561
1574867994.837163,374845.000,188,3,PG,1,100,10517
1574867994.877991,374879.333,207,3,PG,1,100,10518
1574867994.918820,374913.667,207,3,PG,1,100,10514
1574867994.959648,374948.000,207,3,PG,1,100,10489
1574867995.000477,374982.333,225,3,PG,1,100,10494
1574867995.041305,375016.667,225,3,PG,1,100,10488
1574867995.082134,375051.000,225,3,PG,1,100,10407
1574867995.123755,375086.000,243,3,PG,1,100,10462
1574867995.165376,375121.000,243,3,PG,1,100,10463
1574867995.206997,375156.000,243,3,PG,1,100,10442
1574867995.245051,375188.000,261,3,PG,1,100,10448
1574867995.283105,375220.000,261,3,PG,1,100,10459
1574867995.321159,375252.000,261,3,PG,1,100,10449
1574867995.359609,375284.333,279,3,PG,1,100,10459
1574867995.398059,375316.667,279,3,PG,1,100,10452
1574867995.436509,375349.000,279,3,PG,1,100,10456
1574867995.476545,375382.667,297,3,PG,1,100,10443
1574867995.516580,375416.333,297,3,PG,1,100,10484
1574867995.556616,375450.000,297,3,PG,1,100,10492
1574867995.601408,375487.667,314,3,PG,1,100,10518
1574867995.646201,375525.333,314,3,PG,1,100,10520
1574867995.690993,375563.000,314,3,PG,1,100,10523
1574867995.732615,375598.000,332,3,PG,1,100,10517
1574867995.774236,375633.000,332,3,PG,1,100,10468
1574867995.815857,375668.000,332,3,PG,1,100,10412
1574867995.853911,375700.000,348,3,PG,1,100,10459
1574867995.891965,375732.000,348,3,PG,1,100,10453
1574867995.930018,375764.000,348,3,PG,1,100,10471
1574867995.968468,375796.333,367,3,PG,1,100,10531
1574867996.006918,375828.667,367,3,PG,1,100,10549
1574867996.045369,375861.000,367,3,PG,1,100,10542
1574867996.085404,375894.667,385,3,PG,1,100,10587
1574867996.125440,375928.333,385,3,PG,1,100,10557
1574867996.165476,375962.000,385,3,PG,1,100,10517
1574867996.206701,375996.667,403,3,PG,1,100,10533
1574867996.247926,376031.333,403,3,PG,1,100,10537
1574867996.289150,376066.000,403,3,PG,1,100,10503
1574867996.330772,376101.000,421,3,PG,1,100,10524
1574867996.372393,376136.000,421,3,PG,1,100,10535
1574867996.414014,376171.000,421,3,PG,1,100,10507
1574867996.452861,376203.667,439,3,PG,1,100,10559
1574867996.491707,376236.333,439,3,PG,1,100,10547
1574867996.530554,376269.000,439,3,PG,1,100,10513
1574867996.568211,376300.667,457,3,PG,1,100,10543
1574867996.605868,376332.333,457,3,PG,1,100,10544
1574867996.643526,376364.000,457,3,PG,1,100,10532
1574867996.683958,376398.000,475,3,PG,1,100,10560
1574867996.724390,376432.000,475,3,PG,1,100,10557
1574867996.764822,376466.000,475,3,PG,1,100,10536
1574867996.806047,376500.667,492,3,PG,1,100,10571
1574867996.847272,376535.333,492,3,PG,1,100,10584
1574867996.888497,376570.000,492,3,PG,1,100,10558
1574867996.929722,376604.667,511,3,PG,1,100,10591
1574867996.970946,376639.333,511,3,PG,1,100,10595
1574867997.012171,376674.000,511,3,PG,1,100,10526
1574867997.049036,376705.000,527,3,PG,1,100,10581
1574867997.085900,376736.000,527,3,PG,1,100,10602
1574867997.122765,376767.000,527,3,PG,1,100,10586
1574867997.160819,376799.000,548,5,PG,1,100,10589
1574867997.198872,376831.000,548,5,PG,1,100,10576
1574867997.236926,376863.000,548,5,PG,1,100,10535
1574867997.274980,376895.000,548,5,PG,1,100,10568
1574867997.313034,376927.000,548,5,PG,1,100,10558
1574867997.354655,376962.000,568,3,PG,1,100,10569
1574867997.396276,376997.000,568,3,PG,1,100,10568
1574867997.437897,377032.000,568,3,PG,1,100,10529
1574867997.479122,377066.667,585,3,PG,1,100,10569
1574867997.520347,377101.333,585,3,PG,1,100,10577
1574867997.561572,377136.000,585,3,PG,1,100,10574
1574867997.602401,377170.333,603,3,PG,1,100,10594
1574867997.643229,377204.667,603,3,PG,1,100,10581
1574867997.684057,377239.000,603,3,PG,1,100,10563
1574867997.721318,377270.333,619,3,PG,1,100,10592
1574867997.758579,377301.667,619,3,PG,1,100,10586
1574867997.795840,377333.000,619,3,PG,1,100,10556
1574867997.837461,377368.000,637,3,PG,1,100,10592
1574867997.879083,377403.000,637,3,PG,1,100,10570
1574867997.920704,377438.000,637,3,PG,1,100,10569
1574867997.956776,377468.333,656,3,PG,1,100,10568
1574867997.992848,377498.667,656,3,PG,1,100,10616
1574867998.028919,377529.000,656,3,PG,1,100,10578
1574867998.068559,377562.333,674,3,PG,1,100,10604
1574867998.108198,377595.667,674,3,PG,1,100,10589
1574867998.147837,377629.000,674,3,PG,1,100,10568
1574867998.187477,377662.333,692,3,PG,1,100,10590
1574867998.227116,377695.667,692,3,PG,1,100,10605
1574867998.266755,377729.000,692,3,PG,1,100,10583
1574867998.307980,377763.667,710,3,PG,1,100,10608
1574867998.349205,377798.333,710,3,PG,1,100,10600
1574867998.390430,377833.000,710,3,PG,1,100,10579
1574867998.432447,377868.333,728,3,PG,1,100,10595
1574867998.474465,377903.667,728,3,PG,1,100,10590
1574867998.516483,377939.000,728,3,PG,1,100,10559
1574867998.554140,377970.667,746,3,PG,1,100,10583
1574867998.591798,378002.333,746,3,PG,1,100,10582
1574867998.629455,378034.000,746,3,PG,1,100,10575
1574867998.668698,378067.000,764,3,PG,1,100,10569
1574867998.707941,378100.000,764,3,PG,1,100,10573
1574867998.747184,378133.000,764,3,PG,1,100,10552
1574867998.786427,378166.000,781,3,PG,1,100,10601
1574867998.825670,378199.000,781,3,PG,1,100,10625
1574867998.864912,378232.000,781,3,PG,1,100,10616
1574867998.907723,378268.000,800,3,PG,1,100,10628
1574867998.950533,378304.000,800,3,PG,1,100,10657
1574867998.993344,378340.000,800,3,PG,1,100,10588
1574867999.033379,378373.667,816,3,PG,1,100,10596
1574867999.073415,378407.333,816,3,PG,1,100,10603
1574867999.113451,378441.000,816,3,PG,1,100,10589
1574867999.154676,378475.667,834,3,PG,1,100,10598
1574867999.195900,378510.333,834,3,PG,1,100,10595
1574867999.237125,378545.000,834,3,PG,1,100,10523
1574867999.278747,378580.000,852,3,PG,1,100,10583
1574867999.320368,378615.000,852,3,PG,1,100,10585
1574867999.361989,378650.000,852,3,PG,1,100,10577
1574867999.399647,378681.667,870,3,PG,1,100,10593
1574867999.437304,378713.333,870,3,PG,1,100,10603
1574867999.474961,378745.000,870,3,PG,1,100,10567
1574867999.513411,378777.333,888,3,PG,1,100,10588
1574867999.551862,378809.667,888,3,PG,1,100,10579
1574867999.590312,378842.000,888,3,PG,1,100,10556
1574867999.629555,378875.000,906,3,PG,1,100,10640
1574867999.668797,378908.000,906,3,PG,1,100,10648
1574867999.708040,378941.000,906,3,PG,1,100,10618
1574867999.749265,378975.667,924,3,PG,1,100,10670
1574867999.790490,379010.333,924,3,PG,1,100,10625
1574867999.831715,379045.000,924,3,PG,1,100,10592
1574867999.873336,379080.000,942,3,PG,1,100,10583
1574867999.914958,379115.000,942,3,PG,1,100,10590
1574867999.956579,379150.000,942,3,PG,1,100,10558
1574867999.995029,379182.333,960,3,PG,1,100,10636
1574868000.033479,379214.667,960,3,PG,1,100,10652
1574868000.071929,379247.000,960,3,PG,1,100,10656
1574868000.110379,379279.333,978,3,PG,1,100,10673
1574868000.148829,379311.667,978,3,PG,1,100,10678
1574868000.187279,379344.000,978,3,PG,1,100,10650
1574868000.227315,379377.667,994,3,PG,1,100,10632
1574868000.267351,379411.333,994,3,PG,1,100,10633
1574868000.307387,379445.000,994,3,PG,1,100,10614
1574868000.348612,379479.667,1012,3,PG,1,100,10629
1574868000.389836,379514.333,1012,3,PG,1,100,10625
1574868000.431061,379549.000,1012,3,PG,1,100,10610
1574868000.473079,379584.333,1030,3,PG,1,100,10632
1574868000.515097,379619.667,1030,3,PG,1,100,10651
1574868000.557114,379655.000,1030,3,PG,1,100,10629
1574868000.595961,379687.667,1048,3,PG,1,100,10648
1574868000.634807,379720.333,1048,3,PG,1,100,10646
1574868000.673654,379753.000,1048,3,PG,1,100,10644
1574868000.712104,379785.333,1066,3,PG,1,100,10660
1574868000.750554,379817.667,1066,3,PG,1,100,10670
1574868000.789004,379850.000,1066,3,PG,1,100,10644
1574868000.828644,379883.333,1084,3,PG,1,100,10658
1574868000.868283,379916.667,1084,3,PG,1,100,10650
1574868000.907922,379950.000,1084,3,PG,1,100,10643
1574868000.949940,379985.333,1103,3,PG,1,100,10656
1574868000.991957,380020.667,1103,3,PG,1,100,10667
1574868001.033975,380056.000,1103,3,PG,1,100,10630
1574868001.075200,380090.667,1120,3,PG,1,100,10677
1574868001.116425,380125.333,1120,3,PG,1,100,10681
1574868001.157650,380160.000,1120,3,PG,1,100,10664
1574868001.196496,380192.667,1138,3,PG,1,100,10671
1574868001.235343,380225.333,1138,3,PG,1,100,10663
1574868001.274189,380258.000,1138,3,PG,1,100,10659
1574868001.312639,380290.333,1156,3,PG,1,100,10678
1574868001.351089,380322.667,1156,3,PG,1,100,10673
1574868001.389540,380355.000,1156,3,PG,1,100,10655
1574868001.428782,380388.000,1172,3,PG,1,100,10679
1574868001.468025,380421.000,1172,3,PG,1,100,10673
1574868001.507268,380454.000,1172,3,PG,1,100,10642
1574868001.548890,380489.000,1190,3,PG,1,100,10655
1574868001.590511,380524.000,1190,3,PG,1,100,10662
1574868001.632132,380559.000,1190,3,PG,1,100,10641
1574868001.673357,380593.667,1208,3,PG,1,100,10660
1574868001.714582,380628.333,1208,3,PG,1,100,10654
1574868001.755807,380663.000,1208,3,PG,1,100,10640
1574868001.796635,380697.333,1226,3,PG,1,100,10646
1574868001.837464,380731.667,1226,3,PG,1,100,10667
1574868001.878292,380766.000,1226,3,PG,1,100,10616
1574868001.916346,380798.000,1245,3,PG,1,100,10642
1574868001.954400,380830.000,1245,3,PG,1,100,10630
1574868001.992453,380862.000,1245,3,PG,1,100,10663
1574868002.035264,380898.000,1263,3,PG,1,100,10685
1574868002.078074,380934.000,1263,3,PG,1,100,10691
1574868002.120885,380970.000,1263,3,PG,1,100,10660
1574868002.157749,381001.000,1281,3,PG,1,100,10709
1574868002.194614,381032.000,1281,3,PG,1,100,10658
1574868002.231478,381063.000,1281,3,PG,1,100,10637
1574868002.271514,381096.667,1299,3,PG,1,100,10649
1574868002.311550,381130.333,1299,3,PG,1,100,10666
1574868002.351585,381164.000,1299,3,PG,1,100,10633
1574868002.392018,381198.000,1316,3,PG,1,100,10650
1574868002.432450,381232.000,1316,3,PG,1,100,10651
1574868002.472882,381266.000,1316,3,PG,1,100,10643
1574868002.514503,381301.000,1334,3,PG,1,100,10656
1574868002.556124,381336.000,1334,3,PG,1,100,10655
1574868002.597746,381371.000,1334,3,PG,1,100,10621
1574868002.638574,381405.333,1350,3,PG,1,100,10657
1574868002.679403,381439.667,1350,3,PG,1,100,10636
1574868002.720231,381474.000,1350,3,PG,1,100,10617
1574868002.757888,381505.667,1368,3,PG,1,100,10603
1574868002.795546,381537.333,1368,3,PG,1,100,10613
1574868002.833203,381569.000,1368,3,PG,1,100,10618
1574868002.872446,381602.000,1387,3,PG,1,100,10662
1574868002.911689,381635.000,1387,3,PG,1,100,10660
1574868002.950932,381668.000,1387,3,PG,1,100,10653
1574868002.990571,381701.333,1405,3,PG,1,100,10683
1574868003.030210,381734.667,1405,3,PG,1,100,10655
1574868003.069850,381768.000,1405,3,PG,1,100,10627
1574868003.110678,381802.333,1423,3,PG,1,100,10630
1574868003.151507,381836.667,1423,3,PG,1,100,10619
1574868003.192335,381871.000,1423,3,PG,1,100,10597
1574868003.232054,381904.400,1444,5,PG,1,100,10616
1574868003.271772,381937.800,1444,5,PG,1,100,10673
1574868003.311491,381971.200,1444,5,PG,1,100,10651
1574868003.351209,382004.600,1444,5,PG,1,100,10696
1574868003.390928,382038.000,1444,5,PG,1,100,10723
1574868003.428585,382069.667,1464,3,PG,1,100,10714
1574868003.466243,382101.333,1464,3,PG,1,100,10702
1574868003.503900,382133.000,1464,3,PG,1,100,10649
1574868003.543936,382166.667,1482,3,PG,1,100,10642
1574868003.583972,382200.333,1482,3,PG,1,100,10653
1574868003.624007,382234.000,1482,3,PG,1,100,10636
1574868003.664836,382268.333,1500,3,PG,1,100,10652
1574868003.705664,382302.667,1500,3,PG,1,100,10657
1574868003.746493,382337.000,1500,3,PG,1,100,10647
1574868003.787321,382371.333,1518,3,PG,1,100,10671
1574868003.828150,382405.667,1518,3,PG,1,100,10688
1574868003.868978,382440.000,1518,3,PG,1,100,10667
1574868003.908617,382473.333,1537,3,PG,1,100,10684
1574868003.948257,382506.667,1537,3,PG,1,100,10686
1574868003.987896,382540.000,1537,3,PG,1,100,10679
1574868004.025950,382572.000,1555,3,PG,1,100,10705
1574868004.064003,382604.000,1555,3,PG,1,100,10693
1574868004.102057,382636.000,1555,3,PG,1,100,10681
1574868004.141300,382669.000,1573,3,PG,1,100,10690
1574868004.180543,382702.000,1573,3,PG,1,100,10691
1574868004.219786,382735.000,1573,3,PG,1,100,10673
1574868004.261407,382770.000,1590,3,PG,1,100,10687
1574868004.303028,382805.000,1590,3,PG,1,100,10705
1574868004.344650,382840.000,1590,3,PG,1,100,10667
1574868004.385478,382874.333,1608,3,PG,1,100,10699
1574868004.426307,382908.667,1608,3,PG,1,100,10707
1574868004.467135,382943.000,1608,3,PG,1,100,10698
1574868004.508756,382978.000,1626,3,PG,1,100,10727
1574868004.550378,383013.000,1626,3,PG,1,100,10711
1574868004.591999,383048.000,1626,3,PG,1,100,10682
1574868004.628864,383079.000,1642,3,PG,1,100,10706
1574868004.665728,383110.000,1642,3,PG,1,100,10721
1574868004.702593,383141.000,1642,3,PG,1,100,10694
1574868004.742232,383174.333,1660,3,PG,1,100,10712
1574868004.781871,383207.667,1660,3,PG,1,100,10711
1574868004.821511,383241.000,1660,3,PG,1,100,10693
1574868004.863132,383276.000,1679,3,PG,1,100,10704
1574868004.904753,383311.000,1679,3,PG,1,100,10715
1574868004.946374,383346.000,1679,3,PG,1,100,10649
1574868004.987203,383380.333,1697,3,PG,1,100,10698
1574868005.028031,383414.667,1697,3,PG,1,100,10691
1574868005.068860,383449.000,1697,3,PG,1,100,10677
1574868005.109292,383483.000,1715,3,PG,1,100,10697
1574868005.149724,383517.000,1715,3,PG,1,100,10691
1574868005.190156,383551.000,1715,3,PG,1,100,10673
1574868005.227417,383582.333,1733,3,PG,1,100,10696
1574868005.264678,383613.667,1733,3,PG,1,100,10705
1574868005.301939,383645.000,1733,3,PG,1,100,10680
1574868005.340786,383677.667,1751,3,PG,1,100,10705
1574868005.379632,383710.333,1751,3,PG,1,100,10691
1574868005.418478,383743.000,1751,3,PG,1,100,10688
1574868005.459307,383777.333,1769,3,PG,1,100,10713
1574868005.500135,383811.667,1769,3,PG,1,100,10748
1574868005.540964,383846.000,1769,3,PG,1,100,10742
1574868005.585756,383883.667,1786,3,PG,1,100,10757
1574868005.630549,383921.333,1786,3,PG,1,100,10780
1574868005.675341,383959.000,1786,3,PG,1,100,10792
1574868005.714188,383991.667,1804,3,PG,1,100,10752
1574868005.753034,384024.333,1804,3,PG,1,100,10714
1574868005.791881,384057.000,1804,3,PG,1,100,10686
1574868005.832709,384091.333,1820,3,PG,1,100,10732
1574868005.873538,384125.667,1820,3,PG,1,100,10746
1574868005.914366,384160.000,1820,3,PG,1,100,10734
1574868005.955195,384194.333,1839,3,PG,1,100,10754
1574868005.996023,384228.667,1839,3,PG,1,100,10754
1574868006.036852,384263.000,1839,3,PG,1,100,10723
1574868006.075302,384295.333,1857,3,PG,1,100,10755
1574868006.113752,384327.667,1857,3,PG,1,100,10766
1574868006.152202,384360.000,1857,3,PG,1,100,10745
1574868006.190256,384392.000,1875,3,PG,1,100,10762
1574868006.228309,384424.000,1875,3,PG,1,100,10785
1574868006.266363,384456.000,1875,3,PG,1,100,10722
1574868006.307192,384490.333,1893,3,PG,1,100,10748
1574868006.348020,384524.667,1893,3,PG,1,100,10785
1574868006.388849,384559.000,1893,3,PG,1,100,10798
1574868006.429677,384593.333,1911,3,PG,1,100,10812
1574868006.470505,384627.667,1911,3,PG,1,100,10831
1574868006.511334,384662.000,1911,3,PG,1,100,10809
1574868006.553352,384697.333,1929,3,PG,1,100,10779
1574868006.595369,384732.667,1929,3,PG,1,100,10774
1574868006.637387,384768.000,1929,3,PG,1,100,10754
1574868006.675441,384800.000,1946,3,PG,1,100,10764
1574868006.713495,384832.000,1946,3,PG,1,100,10803
1574868006.751548,384864.000,1946,3,PG,1,100,10809
1574868006.789602,384896.000,1964,3,PG,1,100,10851
1574868006.827656,384928.000,1964,3,PG,1,100,10854
1574868006.865710,384960.000,1964,3,PG,1,100,10851
1574868006.905745,384993.667,1983,3,PG,1,100,10903
1574868006.945781,385027.333,1983,3,PG,1,100,10879
1574868006.985816,385061.000,1983,3,PG,1,100,10844
1574868007.027041,385095.667,1999,3,PG,1,100,10858
1574868007.068266,385130.333,1999,3,PG,1,100,10850
1574868007.109491,385165.000,1999,3,PG,1,100,10823
1574868007.151112,385200.000,2017,3,PG,1,100,10854
1574868007.192734,385235.000,2017,3,PG,1,100,10861
1574868007.234355,385270.000,2017,3,PG,1,100,10840
1574868007.272805,385302.333,2035,3,PG,1,100,10865
1574868007.311255,385334.667,2035,3,PG,1,100,10870
1574868007.349705,385367.000,2035,3,PG,1,100,10846
1574868007.387363,385398.667,2053,3,PG,1,100,10866
1574868007.425020,385430.333,2053,3,PG,1,100,10872
1574868007.462677,385462.000,2053,3,PG,1,100,10862
1574868007.503109,385496.000,2071,3,PG,1,100,10890
1574868007.543541,385530.000,2071,3,PG,1,100,10896
1574868007.583974,385564.000,2071,3,PG,1,100,10876
1574868007.625595,385599.000,2089,3,PG,1,100,10895
1574868007.667216,385634.000,2089,3,PG,1,100,10900
1574868007.708838,385669.000,2089,3,PG,1,100,10888
1574868007.750459,385704.000,2107,3,PG,1,100,10904
1574868007.792080,385739.000,2107,3,PG,1,100,10925
1574868007.833701,385774.000,2107,3,PG,1,100,10897
1574868007.873341,385807.333,2124,3,PG,1,100,10941
1574868007.912980,385840.667,2124,3,PG,1,100,10946
1574868007.952619,385874.000,2124,3,PG,1,100,10911
1574868007.989880,385905.333,2143,3,PG,1,100,10931
1574868008.027141,385936.667,2143,3,PG,1,100,10932
1574868008.064402,385968.000,2143,3,PG,1,100,10891
1574868008.104041,386001.333,2161,3,PG,1,100,10928
1574868008.143681,386034.667,2161,3,PG,1,100,10930
1574868008.183320,386068.000,2161,3,PG,1,100,10918
1574868008.225338,386103.333,2177,3,PG,1,100,10947
1574868008.267355,386138.667,2177,3,PG,1,100,10944
1574868008.309373,386174.000,2177,3,PG,1,100,10939
1574868008.350201,386208.333,2195,3,PG,1,100,10964
1574868008.391030,386242.667,2195,3,PG,1,100,10968
1574868008.431858,386277.000,2195,3,PG,1,100,10942
1574868008.471498,386310.333,2213,3,PG,1,100,10968
1574868008.511137,386343.667,2213,3,PG,1,100,10965
1574868008.550776,386377.000,2213,3,PG,1,100,10936
1574868008.587641,386408.000,2231,3,PG,1,100,10960
1574868008.624505,386439.000,2231,3,PG,1,100,10973
1574868008.661370,386470.000,2231,3,PG,1,100,10932
1574868008.701802,386504.000,2249,3,PG,1,100,10954
1574868008.742234,386538.000,2249,3,PG,1,100,10948
1574868008.782666,386572.000,2249,3,PG,1,100,10982
1574868008.823098,386606.000,2267,3,PG,1,100,11010
1574868008.863530,386640.000,2267,3,PG,1,100,11023
1574868008.903962,386674.000,2267,3,PG,1,100,11019
1574868008.944791,386708.333,2286,3,PG,1,100,11050
1574868008.985619,386742.667,2286,3,PG,1,100,11019
1574868009.026448,386777.000,2286,3,PG,1,100,10991
1574868009.070844,386814.333,2303,3,PG,1,100,10988
1574868009.115240,386851.667,2303,3,PG,1,100,10994
1574868009.159636,386889.000,2303,3,PG,1,100,11002
1574868009.198086,386921.333,2321,3,PG,1,100,11071
1574868009.236536,386953.667,2321,3,PG,1,100,11046
1574868009.274986,386986.000,2321,3,PG,1,100,11016
1574868009.313754,387018.600,2342,5,PG,1,100,11031
1574868009.352521,387051.200,2342,5,PG,1,100,11041
1574868009.391288,387083.800,2342,5,PG,1,100,11014
1574868009.430055,387116.400,2342,5,PG,1,100,11051
1574868009.468822,387149.000,2342,5,PG,1,100,11013
1574868009.508065,387182.000,2362,3,PG,1,100,11014
1574868009.547308,387215.000,2362,3,PG,1,100,11005
1574868009.586551,387248.000,2362,3,PG,1,100,11049
1574868009.626587,387281.667,2380,3,PG,1,100,11069
1574868009.666623,387315.333,2380,3,PG,1,100,11110
1574868009.706658,387349.000,2380,3,PG,1,100,11082
1574868009.747883,387383.667,2398,3,PG,1,100,11128
1574868009.789108,387418.333,2398,3,PG,1,100,11094
1574868009.830333,387453.000,2398,3,PG,1,100,11052
1574868009.871954,387488.000,2415,3,PG,1,100,11067
1574868009.913575,387523.000,2415,3,PG,1,100,11078
1574868009.955197,387558.000,2415,3,PG,1,100,11053
1574868009.993251,387590.000,2434,3,PG,1,100,11110
1574868010.031304,387622.000,2434,3,PG,1,100,11122
1574868010.069358,387654.000,2434,3,PG,1,100,11115
1574868010.107808,387686.333,2450,3,PG,1,100,11163
1574868010.146258,387718.667,2450,3,PG,1,100,11174
1574868010.184708,387751.000,2450,3,PG,1,100,11129
1574868010.223951,387784.000,2468,3,PG,1,100,11114
1574868010.263194,387817.000,2468,3,PG,1,100,11116
1574868010.302437,387850.000,2468,3,PG,1,100,11090
1574868010.343662,387884.667,2486,3,PG,1,100,11114
1574868010.384887,387919.333,2486,3,PG,1,100,11120
1574868010.426112,387954.000,2486,3,PG,1,100,11078
1574868010.468129,387989.333,2504,3,PG,1,100,11140
1574868010.510147,388024.667,2504,3,PG,1,100,11152
1574868010.552165,388060.000,2504,3,PG,1,100,11130
1574868010.591011,388092.667,2522,3,PG,1,100,11171
1574868010.629858,388125.333,2522,3,PG,1,100,11164
1574868010.668704,388158.000,2522,3,PG,1,100,11144
1574868010.706758,388190.000,2540,3,PG,1,100,11161
1574868010.744812,388222.000,2540,3,PG,1,100,11179
1574868010.782866,388254.000,2540,3,PG,1,100,11134
1574868010.822108,388287.000,2558,3,PG,1,100,11176
1574868010.861351,388320.000,2558,3,PG,1,100,11183
1574868010.900594,388353.000,2558,3,PG,1,100,11139
1574868010.941423,388387.333,2577,3,PG,1,100,11181
1574868010.982251,388421.667,2577,3,PG,1,100,11190
1574868011.023080,388456.000,2577,3,PG,1,100,11198
1574868011.064701,388491.000,2594,3,PG,1,100,11231
1574868011.106322,388526.000,2594,3,PG,1,100,11240
1574868011.147943,388561.000,2594,3,PG,1,100,11182
1574868011.187583,388594.333,2612,3,PG,1,100,11245
1574868011.227222,388627.667,2612,3,PG,1,100,11245
1574868011.266861,388661.000,2612,3,PG,1,100,11234
1574868011.305311,388693.333,2628,3,PG,1,100,11255
1574868011.343762,388725.667,2628,3,PG,1,100,11264
1574868011.382212,388758.000,2628,3,PG,1,100,11196
1574868011.421851,388791.333,2646,3,PG,1,100,11260
1574868011.461490,388824.667,2646,3,PG,1,100,11258
1574868011.501130,388858.000,2646,3,PG,1,100,11246
1574868011.542355,388892.667,2664,3,PG,1,100,11253
1574868011.583579,388927.333,2664,3,PG,1,100,11259
1574868011.624804,388962.000,2664,3,PG,1,100,11232
1574868011.666425,388997.000,2682,3,PG,1,100,11263
1574868011.708047,389032.000,2682,3,PG,1,100,11267
1574868011.749668,389067.000,2682,3,PG,1,100,11241
1574868011.790100,389101.000,2700,3,PG,1,100,11267
1574868011.830532,389135.000,2700,3,PG,1,100,11287
1574868011.870964,389169.000,2700,3,PG,1,100,11244
1574868011.910207,389202.000,2719,3,PG,1,100,11278
1574868011.949450,389235.000,2719,3,PG,1,100,11247
1574868011.988693,389268.000,2719,3,PG,1,100,11251
1574868012.027143,389300.333,2737,3,PG,1,100,11280
1574868012.065593,389332.667,2737,3,PG,1,100,11301
1574868012.104043,389365.000,2737,3,PG,1,100,11296
1574868012.145665,389400.000,2755,3,PG,1,100,11334
1574868012.187286,389435.000,2755,3,PG,1,100,11352
1574868012.228907,389470.000,2755,3,PG,1,100,11312
1574868012.270132,389504.667,2772,3,PG,1,100,11301
1574868012.311357,389539.333,2772,3,PG,1,100,11291
1574868012.352582,389574.000,2772,3,PG,1,100,11241
1574868012.393014,389608.000,2790,3,PG,1,100,11253
1574868012.433446,389642.000,2790,3,PG,1,100,11267
1574868012.473878,389676.000,2790,3,PG,1,100,11296
1574868012.511535,389707.667,2806,3,PG,1,100,11335
1574868012.549193,389739.333,2806,3,PG,1,100,11343
1574868012.586850,389771.000,2806,3,PG,1,100,11347
1574868012.629264,389806.667,2824,3,PG,1,100,11351
1574868012.671678,389842.333,2824,3,PG,1,100,11361
1574868012.714092,389878.000,2824,3,PG,1,100,11287
1574868012.750164,389908.333,2842,3,PG,1,100,11310
1574868012.786236,389938.667,2842,3,PG,1,100,11310
1574868012.822308,389969.000,2842,3,PG,1,100,11281
1574868012.862740,390003.000,2861,3,PG,1,100,11298
1574868012.903172,390037.000,2861,3,PG,1,100,11317
1574868012.943604,390071.000,2861,3,PG,1,100,11308
1574868012.983639,390104.667,2879,3,PG,1,100,11339
1574868013.023675,390138.333,2879,3,PG,1,100,11352
1574868013.063711,390172.000,2879,3,PG,1,100,11307
1574868013.105332,390207.000,2897,3,PG,1,100,11296
1574868013.146954,390242.000,2897,3,PG,1,100,11294
1574868013.188575,390277.000,2897,3,PG,1,100,11264
1574868013.229800,390311.667,2915,3,PG,1,100,11304
1574868013.271024,390346.333,2915,3,PG,1,100,11330
1574868013.312249,390381.000,2915,3,PG,1,100,11314
1574868013.349907,390412.667,2933,3,PG,1,100,11359
1574868013.387564,390444.333,2933,3,PG,1,100,11382
1574868013.425221,390476.000,2933,3,PG,1,100,11353
1574868013.464861,390509.333,2950,3,PG,1,100,11384
1574868013.504500,390542.667,2950,3,PG,1,100,11321
1574868013.544139,390576.000,2950,3,PG,1,100,11289
1574868013.584175,390609.667,2968,3,PG,1,100,11298
1574868013.624211,390643.333,2968,3,PG,1,100,11295
1574868013.664246,390677.000,2968,3,PG,1,100,11266
1574868013.705868,390712.000,2986,3,PG,1,100,11288
1574868013.747489,390747.000,2986,3,PG,1,100,11299
1574868013.789110,390782.000,2986,3,PG,1,100,11283
1574868013.831128,390817.333,3002,3,PG,1,100,11303
1574868013.873146,390852.667,3002,3,PG,1,100,11312
1574868013.915163,390888.000,3002,3,PG,1,100,11285
1574868013.952821,390919.667,3021,3,PG,1,100,11296
1574868013.990478,390951.333,3021,3,PG,1,100,11281
1574868014.028135,390983.000,3021,3,PG,1,100,11294
1574868014.066585,391015.333,3039,3,PG,1,100,11314
1574868014.105036,391047.667,3039,3,PG,1,100,11318
1574868014.143486,391080.000,3039,3,PG,1,100,11281
1574868014.182729,391113.000,3057,3,PG,1,100,11310
1574868014.221972,391146.000,3057,3,PG,1,100,11294
1574868014.261214,391179.000,3057,3,PG,1,100,11254
1574868014.302439,391213.667,3075,3,PG,1,100,11273
1574868014.343664,391248.333,3075,3,PG,1,100,11267
1574868014.384889,391283.000,3075,3,PG,1,100,11226
1574868014.426114,391317.667,3093,3,PG,1,100,11279
1574868014.467339,391352.333,3093,3,PG,1,100,11296
1574868014.508564,391387.000,3093,3,PG,1,100,11270
1574868014.547410,391419.667,3111,3,PG,1,100,11280
1574868014.586257,391452.333,3111,3,PG,1,100,11282
1574868014.625103,391485.000,3111,3,PG,1,100,11245
1574868014.663157,391517.000,3128,3,PG,1,100,11269
1574868014.701210,391549.000,3128,3,PG,1,100,11265
1574868014.739264,391581.000,3128,3,PG,1,100,11233
1574868014.778904,391614.333,3146,3,PG,1,100,11266
1574868014.818543,391647.667,3146,3,PG,1,100,11273
1574868014.858182,391681.000,3146,3,PG,1,100,11247
1574868014.899804,391716.000,3165,3,PG,1,100,11276
1574868014.941425,391751.000,3165,3,PG,1,100,11261
1574868014.983046,391786.000,3165,3,PG,1,100,11241
1574868015.024667,391821.000,3181,3,PG,1,100,11239
1574868015.066289,391856.000,3181,3,PG,1,100,11238
1574868015.107910,391891.000,3181,3,PG,1,100,11203
1574868015.147549,391924.333,3199,3,PG,1,100,11216
1574868015.187188,391957.667,3199,3,PG,1,100,11219
1574868015.226828,391991.000,3199,3,PG,1,100,11190
1574868015.264882,392023.000,3217,3,PG,1,100,11195
1574868015.302935,392055.000,3217,3,PG,1,100,11196
1574868015.340989,392087.000,3217,3,PG,1,100,11157
1574868015.381897,392121.400,3238,5,PG,1,100,11173
1574868015.422805,392155.800,3238,5,PG,1,100,11225
1574868015.463712,392190.200,3238,5,PG,1,100,11215
1574868015.504620,392224.600,3238,5,PG,1,100,11230
1574868015.545528,392259.000,3238,5,PG,1,100,11245
1574868015.586356,392293.333,3258,3,PG,1,100,11269
1574868015.627185,392327.667,3258,3,PG,1,100,11228
1574868015.668013,392362.000,3258,3,PG,1,100,11176
1574868015.709238,392396.667,3274,3,PG,1,100,11188
1574868015.750463,392431.333,3274,3,PG,1,100,11138
1574868015.791688,392466.000,3274,3,PG,1,100,11149
1574868015.828949,392497.333,3292,3,PG,1,100,11192
1574868015.866210,392528.667,3292,3,PG,1,100,11185
1574868015.903471,392560.000,3292,3,PG,1,100,11186
1574868015.941921,392592.333,3311,3,PG,1,100,11231
1574868015.980371,392624.667,3311,3,PG,1,100,11243
1574868016.018821,392657.000,3311,3,PG,1,100,11190
1574868016.060442,392692.000,3329,3,PG,1,100,11179
1574868016.102064,392727.000,3329,3,PG,1,100,11170
1574868016.143685,392762.000,3329,3,PG,1,100,11143
1574868016.184117,392796.000,3347,3,PG,1,100,11163
1574868016.224549,392830.000,3347,3,PG,1,100,11163
1574868016.264981,392864.000,3347,3,PG,1,100,11151
1574868016.307395,392899.667,3365,3,PG,1,100,11172
1574868016.349809,392935.333,3365,3,PG,1,100,11173
1574868016.392223,392971.000,3365,3,PG,1,100,11143
1574868016.433052,393005.333,3383,3,PG,1,100,11202
1574868016.473880,393039.667,3383,3,PG,1,100,11137
1574868016.514709,393074.000,3383,3,PG,1,100,11115
1574868016.555141,393108.000,3400,3,PG,1,100,11114
1574868016.595573,393142.000,3400,3,PG,1,100,11080
1574868016.636005,393176.000,3400,3,PG,1,100,11102
1574868016.674455,393208.333,3418,3,PG,1,100,11129
1574868016.712905,393240.667,3418,3,PG,1,100,11149
1574868016.751355,393273.000,3418,3,PG,1,100,11170
1574868016.789409,393305.000,3436,3,PG,1,100,11186
1574868016.827463,393337.000,3436,3,PG,1,100,11182
1574868016.865517,393369.000,3436,3,PG,1,100,11163
1574868016.906345,393403.333,3453,3,PG,1,100,11164
1574868016.947174,393437.667,3453,3,PG,1,100,11144
1574868016.988002,393472.000,3453,3,PG,1,100,11140
1574868017.029227,393506.667,3471,3,PG,1,100,11151
1574868017.070452,393541.333,3471,3,PG,1,100,11149
1574868017.111677,393576.000,3471,3,PG,1,100,11126
1574868017.153694,393611.333,3489,3,PG,1,100,11151
1574868017.195712,393646.667,3489,3,PG,1,100,11146
1574868017.237730,393682.000,3489,3,PG,1,100,11148
1574868017.276180,393714.333,3507,3,PG,1,100,11162
1574868017.314630,393746.667,3507,3,PG,1,100,11148
1574868017.353080,393779.000,3507,3,PG,1,100,11153
1574868017.390737,393810.667,3525,3,PG,1,100,11179
1574868017.428395,393842.333,3525,3,PG,1,100,11170
1574868017.466052,393874.000,3525,3,PG,1,100,11164
1574868017.506088,393907.667,3543,3,PG,1,100,11168
1574868017.546124,393941.333,3543,3,PG,1,100,11176
1574868017.586159,393975.000,3543,3,PG,1,100,11096
1574868017.626988,394009.333,3561,3,PG,1,100,11176
1574868017.667816,394043.667,3561,3,PG,1,100,11161
1574868017.708645,394078.000,3561,3,PG,1,100,11178
1574868017.750266,394113.000,3578,3,PG,1,100,11190
1574868017.791887,394148.000,3578,3,PG,1,100,11177
1574868017.833508,394183.000,3578,3,PG,1,100,11169
1574868017.872751,394216.000,3596,3,PG,1,100,11187
1574868017.911994,394249.000,3596,3,PG,1,100,11171
1574868017.951237,394282.000,3596,3,PG,1,100,11156
1574868017.988894,394313.667,3615,3,PG,1,100,11181
1574868018.026552,394345.333,3615,3,PG,1,100,11165
1574868018.064209,394377.000,3615,3,PG,1,100,11153
1574868018.103848,394410.333,3631,3,PG,1,100,11186
1574868018.143488,394443.667,3631,3,PG,1,100,11184
1574868018.183127,394477.000,3631,3,PG,1,100,11159
1574868018.223956,394511.333,3649,3,PG,1,100,11193
1574868018.264784,394545.667,3649,3,PG,1,100,11171
1574868018.305613,394580.000,3649,3,PG,1,100,11144
1574868018.346837,394614.667,3667,3,PG,1,100,11165
1574868018.388062,394649.333,3667,3,PG,1,100,11147
1574868018.429287,394684.000,3667,3,PG,1,100,11122
1574868018.469323,394717.667,3685,3,PG,1,100,11149
1574868018.509359,394751.333,3685,3,PG,1,100,11143
1574868018.549394,394785.000,3685,3,PG,1,100,11115
1574868018.586655,394816.333,3703,3,PG,1,100,11116
1574868018.623916,394847.667,3703,3,PG,1,100,11118
1574868018.661177,394879.000,3703,3,PG,1,100,11095
1574868018.701213,394912.667,3721,3,PG,1,100,11157
1574868018.741248,394946.333,3721,3,PG,1,100,11175
1574868018.781284,394980.000,3721,3,PG,1,100,11143
1574868018.826473,395018.000,3739,3,PG,1,100,11192
1574868018.871662,395056.000,3739,3,PG,1,100,11185
1574868018.916851,395094.000,3739,3,PG,1,100,11118
1574868018.957877,395128.500,3758,2,PG,1,100,11113
1574868018.998904,395163.000,3758,2,PG,1,100,11100
1574868019.037849,395195.750,3775,4,PG,1,100,11083
1574868019.076795,395228.500,3775,4,PG,1,100,11096
1574868019.115741,395261.250,3775,4,PG,1,100,11130
1574868019.154686,395294.000,3775,4,PG,1,100,11144
1574868019.191154,395324.667,3793,3,PG,1,100,11157
1574868019.227623,395355.333,3793,3,PG,1,100,11162
1574868019.264091,395386.000,3793,3,PG,1,100,11133
1574868019.304127,395419.667,3810,3,PG,1,100,11135
1574868019.344162,395453.333,3810,3,PG,1,100,11127
1574868019.384198,395487.000,3810,3,PG,1,100,11095
1574868019.424630,395521.000,3827,3,PG,1,100,11116
1574868019.465062,395555.000,3827,3,PG,1,100,11114
1574868019.505494,395589.000,3827,3,PG,1,100,11101
1574868019.546719,395623.667,3845,3,PG,1,100,11117
1574868019.587944,395658.333,3845,3,PG,1,100,11118
1574868019.629169,395693.000,3845,3,PG,1,100,11092
1574868019.670394,395727.667,3863,3,PG,1,100,11101
1574868019.711619,395762.333,3863,3,PG,1,100,11073
1574868019.752843,395797.000,3863,3,PG,1,100,11088
1574868019.789312,395827.667,3881,3,PG,1,100,11117
1574868019.825780,395858.333,3881,3,PG,1,100,11107
1574868019.862248,395889.000,3881,3,PG,1,100,11104
1574868019.905455,395925.333,3900,3,PG,1,100,11106
1574868019.948662,395961.667,3900,3,PG,1,100,11127
1574868019.991868,395998.000,3900,3,PG,1,100,11111
1574868020.033093,396032.667,3918,3,PG,1,100,11132
1574868020.074318,396067.333,3918,3,PG,1,100,11149
1574868020.115543,396102.000,3918,3,PG,1,100,11128
1574868020.153597,396134.000,3936,3,PG,1,100,11137
1574868020.191651,396166.000,3936,3,PG,1,100,11135
1574868020.229704,396198.000,3936,3,PG,1,100,11082
1574868020.270929,396232.667,3953,3,PG,1,100,11104
1574868020.312154,396267.333,3953,3,PG,1,100,11104
1574868020.353379,396302.000,3953,3,PG,1,100,11087
1574868020.394207,396336.333,3971,3,PG,1,100,11102
1574868020.435036,396370.667,3971,3,PG,1,100,11102
1574868020.475864,396405.000,3971,3,PG,1,100,11076
1574868020.518080,396440.500,3987,2,PG,1,100,11084
1574868020.560296,396476.000,3987,2,PG,1,100,11061
1574868020.598647,396508.250,4005,4,PG,1,100,11060
1574868020.636998,396540.500,4005,4,PG,1,100,11063
1574868020.675349,396572.750,4005,4,PG,1,100,11040
1574868020.713700,396605.000,4005,4,PG,1,100,11006
1574868020.752150,396637.333,4023,3,PG,1,100,11034
1574868020.790601,396669.667,4023,3,PG,1,100,11009
1574868020.829051,396702.000,4023,3,PG,1,100,10986
1574868020.869879,396736.333,4042,3,PG,1,100,11004
1574868020.910707,396770.667,4042,3,PG,1,100,11017
1574868020.951536,396805.000,4042,3,PG,1,100,10979
1574868020.992364,396839.333,4060,3,PG,1,100,10994
1574868021.033193,396873.667,4060,3,PG,1,100,10960
1574868021.074022,396908.000,4060,3,PG,1,100,10960
1574868021.115643,396943.000,4078,3,PG,1,100,10970
1574868021.157264,396978.000,4078,3,PG,1,100,10956
1574868021.198885,397013.000,4078,3,PG,1,100,10955
1574868021.236939,397045.000,4096,3,PG,1,100,10976
1574868021.274993,397077.000,4096,3,PG,1,100,10960
1574868021.313046,397109.000,4096,3,PG,1,100,10959
1574868021.351893,397141.667,4113,3,PG,1,100,10955
1574868021.390739,397174.333,4113,3,PG,1,100,10940
1574868021.429586,397207.000,4113,3,PG,1,100,10918
1574868021.469780,397240.800,4134,5,PG,1,100,10935
1574868021.509974,397274.600,4134,5,PG,1,100,10927
1574868021.550169,397308.400,4134,5,PG,1,100,10896
1574868021.590363,397342.200,4134,5,PG,1,100,10922
1574868021.630557,397376.000,4134,5,PG,1,100,10935
1574868021.670990,397410.000,4154,2,PG,1,100,10904
1574868021.711421,397444.000,4154,2,PG,1,100,10905
1574868021.753043,397479.000,4172,3,PG,1,100,10897
1574868021.794664,397514.000,4172,3,PG,1,100,10954
1574868021.836285,397549.000,4172,3,PG,1,100,10918
1574868021.877907,397584.000,4191,3,PG,1,100,10967
1574868021.919528,397619.000,4191,3,PG,1,100,10973
1574868021.961149,397654.000,4191,3,PG,1,100,10949
1574868021.999599,397686.333,4209,3,PG,1,100,10930
1574868022.038049,397718.667,4209,3,PG,1,100,10917
1574868022.076499,397751.000,4209,3,PG,1,100,10896
1574868022.116932,397785.000,4226,3,PG,1,100,10894
1574868022.157364,397819.000,4226,3,PG,1,100,10943
1574868022.197796,397853.000,4226,3,PG,1,100,10943
1574868022.239813,397888.333,4244,3,PG,1,100,10956
1574868022.281831,397923.667,4244,3,PG,1,100,11021
1574868022.323849,397959.000,4244,3,PG,1,100,10989
1574868022.365470,397994.000,4260,3,PG,1,100,10958
1574868022.407091,398029.000,4260,3,PG,1,100,10956
1574868022.448713,398064.000,4260,3,PG,1,100,10935
1574868022.486766,398096.000,4278,3,PG,1,100,10938
1574868022.524820,398128.000,4278,3,PG,1,100,10953
1574868022.562874,398160.000,4278,3,PG,1,100,10954
1574868022.600927,398192.000,4296,3,PG,1,100,10970
1574868022.638981,398224.000,4296,3,PG,1,100,10995
1574868022.677035,398256.000,4296,3,PG,1,100,10982
1574868022.715981,398288.750,4314,4,PG,1,100,10974
1574868022.754926,398321.500,4314,4,PG,1,100,10997
1574868022.793872,398354.250,4314,4,PG,1,100,11002
1574868022.832817,398387.000,4314,4,PG,1,100,10996
1574868022.874439,398422.000,4332,2,PG,1,100,11009
1574868022.916060,398457.000,4332,2,PG,1,100,11009
1574868022.956888,398491.333,4351,3,PG,1,100,11021
1574868022.997717,398525.667,4351,3,PG,1,100,11040
1574868023.038545,398560.000,4351,3,PG,1,100,11026
1574868023.076599,398592.000,4369,4,PG,1,100,11046
1574868023.114653,398624.000,4369,4,PG,1,100,11066
1574868023.152707,398656.000,4369,4,PG,1,100,11057
1574868023.190760,398688.000,4369,4,PG,1,100,11072
1574868023.228418,398719.667,4387,3,PG,1,100,11080
1574868023.266075,398751.333,4387,3,PG,1,100,11066
1574868023.303732,398783.000,4387,3,PG,1,100,11051
1574868023.344957,398817.667,4404,3,PG,1,100,11069
1574868023.386182,398852.333,4404,3,PG,1,100,11056
1574868023.427407,398887.000,4404,3,PG,1,100,11047
1574868023.468632,398921.667,4422,3,PG,1,100,11074
1574868023.509857,398956.333,4422,3,PG,1,100,11069
1574868023.551082,398991.000,4422,3,PG,1,100,11061
1574868023.597460,399030.000,4438,2,PG,1,100,11074
1574868023.643837,399069.000,4438,2,PG,1,100,11053
1574868023.683080,399102.000,4456,3,PG,1,100,11063
1574868023.722323,399135.000,4456,3,PG,1,100,11084
1574868023.761566,399168.000,4456,3,PG,1,100,11070
1574868023.800016,399200.333,4474,3,PG,1,100,11062
1574868023.838467,399232.667,4474,3,PG,1,100,11090
1574868023.876917,399265.000,4474,3,PG,1,100,11074
1574868023.915268,399297.250,4493,4,PG,1,100,11095
1574868023.953619,399329.500,4493,4,PG,1,100,11103
1574868023.991970,399361.750,4493,4,PG,1,100,11084
1574868024.030321,399394.000,4493,4,PG,1,100,11097
1574868024.069960,399427.333,4511,3,PG,1,100,11101
1574868024.109599,399460.667,4511,3,PG,1,100,11088
1574868024.149239,399494.000,4511,3,PG,1,100,11100
1574868024.188482,399527.000,4529,3,PG,1,100,11112
1574868024.227725,399560.000,4529,3,PG,1,100,11106
1574868024.266967,399593.000,4529,3,PG,1,100,11102
1574868024.308192,399627.667,4547,3,PG,1,100,11125
1574868024.349417,399662.333,4547,3,PG,1,100,11116
1574868024.390642,399697.000,4547,3,PG,1,100,11106
1574868024.431669,399731.500,4565,2,PG,1,100,11136
1574868024.472695,399766.000,4565,2,PG,1,100,11116
1574868024.512236,399799.250,4582,4,PG,1,100,11102
1574868024.551776,399832.500,4582,4,PG,1,100,11116
1574868024.591316,399865.750,4582,4,PG,1,100,11096
1574868024.630856,399899.000,4582,4,PG,1,100,11126
1574868024.669703,399931.667,4600,3,PG,1,100,11123
1574868024.708549,399964.333,4600,3,PG,1,100,11121
1574868024.747396,399997.000,4600,3,PG,1,100,11106
1574868024.786639,400030.000,4618,3,PG,1,100,11131
1574868024.825881,400063.000,4618,3,PG,1,100,11125
1574868024.865124,400096.000,4618,3,PG,1,100,11147
1574868024.906746,400131.000,4635,2,PG,1,100,11196
1574868024.948367,400166.000,4635,2,PG,1,100,11203
1574868024.993160,400203.667,4653,3,PG,1,100,11217
1574868025.037952,400241.333,4653,3,PG,1,100,11213
1574868025.082744,400279.000,4653,3,PG,1,100,11168
1574868025.122780,400312.667,4671,3,PG,1,100,11149
1574868025.162816,400346.333,4671,3,PG,1,100,11145
1574868025.202851,400380.000,4671,3,PG,1,100,11137
1574868025.240509,400411.667,4689,3,PG,1,100,11162
1574868025.278166,400443.333,4689,3,PG,1,100,11230
1574868025.315823,400475.000,4689,3,PG,1,100,11216
1574868025.355066,400508.000,4707,4,PG,1,100,11245
1574868025.394309,400541.000,4707,4,PG,1,100,11259
1574868025.433552,400574.000,4707,4,PG,1,100,11209
1574868025.472795,400607.000,4707,4,PG,1,100,11194
1574868025.513227,400641.000,4725,3,PG,1,100,11219
1574868025.553659,400675.000,4725,3,PG,1,100,11202
1574868025.594091,400709.000,4725,3,PG,1,100,11173
1574868025.635713,400744.000,4743,2,PG,1,100,11237
1574868025.677334,400779.000,4743,2,PG,1,100,11215
1574868025.718559,400813.667,4760,3,PG,1,100,11209
1574868025.759784,400848.333,4760,3,PG,1,100,11221
1574868025.801008,400883.000,4760,3,PG,1,100,11203
1574868025.839062,400915.000,4778,4,PG,1,100,11227
1574868025.877116,400947.000,4778,4,PG,1,100,11215
1574868025.915170,400979.000,4778,4,PG,1,100,11214
1574868025.953223,401011.000,4778,4,PG,1,100,11214
1574868025.992070,401043.667,4797,3,PG,1,100,11222
1574868026.030916,401076.333,4797,3,PG,1,100,11207
1574868026.069763,401109.000,4797,3,PG,1,100,11195
1574868026.110591,401143.333,4813,3,PG,1,100,11226
1574868026.151420,401177.667,4813,3,PG,1,100,11231
1574868026.192248,401212.000,4813,3,PG,1,100,11224
1574868026.233870,401247.000,4831,2,PG,1,100,11228
1574868026.275491,401282.000,4831,2,PG,1,100,11237
1574868026.314436,401314.750,4849,4,PG,1,100,11197
1574868026.353382,401347.500,4849,4,PG,1,100,11239
1574868026.392328,401380.250,4849,4,PG,1,100,11225
1574868026.431273,401413.000,4849,4,PG,1,100,11210
1574868026.468534,401444.333,4867,3,PG,1,100,11242
1574868026.505795,401475.667,4867,3,PG,1,100,11223
1574868026.543056,401507.000,4867,3,PG,1,100,11223
1574868026.581110,401539.000,4885,3,PG,1,100,11243
1574868026.619164,401571.000,4885,3,PG,1,100,11240
1574868026.657218,401603.000,4885,3,PG,1,100,11232
1574868026.698839,401638.000,4903,3,PG,1,100,11267
1574868026.740460,401673.000,4903,3,PG,1,100,11266
1574868026.782081,401708.000,4903,3,PG,1,100,11213
1574868026.822910,401742.333,4921,3,PG,1,100,11249
1574868026.863738,401776.667,4921,3,PG,1,100,11260
1574868026.904567,401811.000,4921,3,PG,1,100,11236
1574868026.945395,401845.333,4940,3,PG,1,100,11264
1574868026.986224,401879.667,4940,3,PG,1,100,11250
1574868027.027052,401914.000,4940,3,PG,1,100,11252
1574868027.065106,401946.000,4957,3,PG,1,100,11242
1574868027.103160,401978.000,4957,3,PG,1,100,11207
1574868027.141213,402010.000,4957,3,PG,1,100,11252
1574868027.182835,402045.000,4975,3,PG,1,100,11307
1574868027.224456,402080.000,4975,3,PG,1,100,11326
1574868027.266077,402115.000,4975,3,PG,1,100,11309
1574868027.304131,402147.000,4993,3,PG,1,100,11357
1574868027.342185,402179.000,4993,3,PG,1,100,11342
1574868027.380238,402211.000,4993,3,PG,1,100,11313
1574868027.418689,402243.333,5009,3,PG,1,100,11343
1574868027.457139,402275.667,5009,3,PG,1,100,11352
1574868027.495589,402308.000,5009,3,PG,1,100,11331
1574868027.536734,402342.600,5030,5,PG,1,100,11349
1574868027.577880,402377.200,5030,5,PG,1,100,11347
1574868027.619025,402411.800,5030,5,PG,1,100,11312
1574868027.660171,402446.400,5030,5,PG,1,100,11325
1574868027.701317,402481.000,5030,5,PG,1,100,11326
1574868027.742938,402516.000,5048,2,PG,1,100,11317
1574868027.784559,402551.000,5048,2,PG,1,100,11310
1574868027.825388,402585.333,5068,3,PG,1,100,11272
1574868027.866216,402619.667,5068,3,PG,1,100,11296
1574868027.907045,402654.000,5068,3,PG,1,100,11315
1574868027.944702,402685.667,5085,3,PG,1,100,11331
1574868027.982359,402717.333,5085,3,PG,1,100,11358
1574868028.020017,402749.000,5085,3,PG,1,100,11352
1574868028.060746,402783.250,5103,4,PG,1,100,11364
1574868028.101475,402817.500,5103,4,PG,1,100,11358
1574868028.142205,402851.750,5103,4,PG,1,100,11304
1574868028.182934,402886.000,5103,4,PG,1,100,11287
1574868028.221781,402918.667,5121,3,PG,1,100,11333
1574868028.260627,402951.333,5121,3,PG,1,100,11325
1574868028.299474,402984.000,5121,3,PG,1,100,11316
1574868028.339906,403018.000,5139,3,PG,1,100,11334
1574868028.380338,403052.000,5139,3,PG,1,100,11331
1574868028.420770,403086.000,5139,3,PG,1,100,11306
1574868028.461995,403120.667,5157,3,PG,1,100,11329
1574868028.503220,403155.333,5157,3,PG,1,100,11345
1574868028.544445,403190.000,5157,3,PG,1,100,11315
1574868028.586066,403225.000,5175,2,PG,1,100,11337
1574868028.627687,403260.000,5175,2,PG,1,100,11326
1574868028.666930,403293.000,5193,4,PG,1,100,11283
1574868028.706173,403326.000,5193,4,PG,1,100,11325
1574868028.745416,403359.000,5193,4,PG,1,100,11359
1574868028.784659,403392.000,5193,4,PG,1,100,11380
1574868028.822316,403423.667,5211,3,PG,1,100,11397
1574868028.859973,403455.333,5211,3,PG,1,100,11406
1574868028.897631,403487.000,5211,3,PG,1,100,11353
1574868028.937667,403520.667,5229,3,PG,1,100,11343
1574868028.977702,403554.333,5229,3,PG,1,100,11334
1574868029.017738,403588.000,5229,3,PG,1,100,11310
1574868029.058566,403622.333,5247,3,PG,1,100,11338
1574868029.099395,403656.667,5247,3,PG,1,100,11372
1574868029.140224,403691.000,5247,3,PG,1,100,11384
1574868029.181448,403725.667,5265,3,PG,1,100,11407
1574868029.222673,403760.333,5265,3,PG,1,100,11398
1574868029.263898,403795.000,5265,3,PG,1,100,11387
1574868029.302745,403827.667,5281,3,PG,1,100,11397
1574868029.341591,403860.333,5281,3,PG,1,100,11349
1574868029.380438,403893.000,5281,3,PG,1,100,11342
1574868029.418888,403925.333,5299,3,PG,1,100,11355
1574868029.457338,403957.667,5299,3,PG,1,100,11331
1574868029.495788,403990.000,5299,3,PG,1,100,11347
1574868029.535031,404023.000,5317,3,PG,1,100,11366
1574868029.574274,404056.000,5317,3,PG,1,100,11357
1574868029.613517,404089.000,5317,3,PG,1,100,11354
1574868029.655138,404124.000,5335,3,PG,1,100,11383
1574868029.696759,404159.000,5335,3,PG,1,100,11380
1574868029.738380,404194.000,5335,3,PG,1,100,11370
1574868029.779209,404228.333,5353,3,PG,1,100,11392
1574868029.820037,404262.667,5353,3,PG,1,100,11384
1574868029.860866,404297.000,5353,3,PG,1,100,11361
1574868029.901298,404331.000,5372,3,PG,1,100,11373
1574868029.941730,404365.000,5372,3,PG,1,100,11359
1574868029.982162,404399.000,5372,3,PG,1,100,11370
1574868030.020216,404431.000,5390,3,PG,1,100,11389
1574868030.058270,404463.000,5390,3,PG,1,100,11390
1574868030.096323,404495.000,5390,3,PG,1,100,11385
1574868030.135566,404528.000,5407,3,PG,1,100,11402
1574868030.174809,404561.000,5407,3,PG,1,100,11402
1574868030.214052,404594.000,5407,3,PG,1,100,11383
1574868030.256863,404630.000,5425,3,PG,1,100,11403
1574868030.299673,404666.000,5425,3,PG,1,100,11380
1574868030.342484,404702.000,5425,3,PG,1,100,11395
1574868030.383312,404736.333,5443,3,PG,1,100,11418
1574868030.424140,404770.667,5443,3,PG,1,100,11400
1574868030.464969,404805.000,5443,3,PG,1,100,11405
1574868030.505005,404838.667,5459,3,PG,1,100,11444
1574868030.545040,404872.333,5459,3,PG,1,100,11422
1574868030.585076,404906.000,5459,3,PG,1,100,11437
1574868030.622337,404937.333,5477,3,PG,1,100,11463
1574868030.659598,404968.667,5477,3,PG,1,100,11449
1574868030.696859,405000.000,5477,3,PG,1,100,11446
1574868030.735705,405032.667,5495,3,PG,1,100,11476
1574868030.774552,405065.333,5495,3,PG,1,100,11464
1574868030.813398,405098.000,5495,3,PG,1,100,11463
1574868030.855020,405133.000,5514,3,PG,1,100,11481
1574868030.896641,405168.000,5514,3,PG,1,100,11505
1574868030.938262,405203.000,5514,3,PG,1,100,11486
1574868030.979091,405237.333,5532,3,PG,1,100,11514
1574868031.019919,405271.667,5532,3,PG,1,100,11542
1574868031.060748,405306.000,5532,3,PG,1,100,11547
1574868031.102369,405341.000,5550,2,PG,1,100,11592
1574868031.143990,405376.000,5550,2,PG,1,100,11588
1574868031.186008,405411.333,5568,3,PG,1,100,11582
1574868031.228025,405446.667,5568,3,PG,1,100,11638
1574868031.270043,405482.000,5568,3,PG,1,100,11586
1574868031.306611,405512.750,5586,4,PG,1,100,11573
1574868031.343178,405543.500,5586,4,PG,1,100,11566
1574868031.379745,405574.250,5586,4,PG,1,100,11566
1574868031.416312,405605.000,5586,4,PG,1,100,11593
1574868031.454366,405637.000,5603,3,PG,1,100,11620
1574868031.492420,405669.000,5603,3,PG,1,100,11616
1574868031.530473,405701.000,5603,3,PG,1,100,11584
1574868031.568923,405733.333,5621,3,PG,1,100,11599
1574868031.607374,405765.667,5621,3,PG,1,100,11623
1574868031.645824,405798.000,5621,3,PG,1,100,11527
1574868031.686652,405832.333,5639,3,PG,1,100,11580
1574868031.727481,405866.667,5639,3,PG,1,100,11553
1574868031.768309,405901.000,5639,3,PG,1,100,11516
1574868031.809138,405935.333,5655,3,PG,1,100,11562
1574868031.849966,405969.667,5655,3,PG,1,100,11568
1574868031.890795,406004.000,5655,3,PG,1,100,11538
1574868031.932416,406039.000,5674,3,PG,1,100,11562
1574868031.974037,406074.000,5674,3,PG,1,100,11564
1574868032.015659,406109.000,5674,3,PG,1,100,11494
1574868032.054109,406141.333,5692,3,PG,1,100,11472
1574868032.092559,406173.667,5692,3,PG,1,100,11453
1574868032.131009,406206.000,5692,3,PG,1,100,11383
1574868032.169063,406238.000,5710,3,PG,1,100,11402
1574868032.207116,406270.000,5710,3,PG,1,100,11422
1574868032.245170,406302.000,5710,3,PG,1,100,11401
1574868032.285602,406336.000,5728,3,PG,1,100,11377
1574868032.326034,406370.000,5728,3,PG,1,100,11368
1574868032.366466,406404.000,5728,3,PG,1,100,11327
1574868032.407691,406438.667,5746,3,PG,1,100,11268
1574868032.448916,406473.333,5746,3,PG,1,100,11214
1574868032.490141,406508.000,5746,3,PG,1,100,11157
1574868032.531762,406543.000,5764,3,PG,1,100,11140
1574868032.573384,406578.000,5764,3,PG,1,100,11102
1574868032.615005,406613.000,5764,3,PG,1,100,11048
1574868032.653455,406645.333,5781,3,PG,1,100,11058
1574868032.691905,406677.667,5781,3,PG,1,100,11010
1574868032.730355,406710.000,5781,3,PG,1,100,10981
1574868032.768013,406741.667,5799,3,PG,1,100,10984
1574868032.805670,406773.333,5799,3,PG,1,100,10958
1574868032.843327,406805.000,5799,3,PG,1,100,10928
1574868032.883363,406838.667,5818,3,PG,1,100,10921
1574868032.923398,406872.333,5818,3,PG,1,100,10915
1574868032.963434,406906.000,5818,3,PG,1,100,10882
1574868033.004263,406940.333,5834,3,PG,1,100,10872
1574868033.045091,406974.667,5834,3,PG,1,100,10865
1574868033.085920,407009.000,5834,3,PG,1,100,10826
1574868033.127541,407044.000,5852,3,PG,1,100,10833
1574868033.169162,407079.000,5852,3,PG,1,100,10815
1574868033.210783,407114.000,5852,3,PG,1,100,10774
1574868033.250026,407147.000,5870,3,PG,1,100,10784
1574868033.289269,407180.000,5870,3,PG,1,100,10780
1574868033.328512,407213.000,5870,3,PG,1,100,10729
1574868033.365773,407244.333,5888,3,PG,1,100,10745
1574868033.403034,407275.667,5888,3,PG,1,100,10734
1574868033.440295,407307.000,5888,3,PG,1,100,10714
1574868033.480331,407340.667,5906,3,PG,1,100,10702
1574868033.520366,407374.333,5906,3,PG,1,100,10703
1574868033.560402,407408.000,5906,3,PG,1,100,10666
1574868033.601548,407442.600,5927,5,PG,1,100,10661
1574868033.642693,407477.200,5927,5,PG,1,100,10674
1574868033.683839,407511.800,5927,5,PG,1,100,10657
1574868033.724985,407546.400,5927,5,PG,1,100,10651
1574868033.766130,407581.000,5927,5,PG,1,100,10649
1574868033.807355,407615.667,5947,3,PG,1,100,10654
1574868033.848580,407650.333,5947,3,PG,1,100,10637
1574868033.889805,407685.000,5947,3,PG,1,100,10599
1574868033.927462,407716.667,5966,3,PG,1,100,10599
1574868033.965119,407748.333,5966,3,PG,1,100,10592
1574868034.002777,407780.000,5966,3,PG,1,100,10561
1574868034.042416,407813.333,5984,3,PG,1,100,10581
1574868034.082055,407846.667,5984,3,PG,1,100,10561
1574868034.121695,407880.000,5984,3,PG,1,100,10538
1574868034.161731,407913.667,6002,3,PG,1,100,10537
1574868034.201766,407947.333,6002,3,PG,1,100,10532
1574868034.241802,407981.000,6002,3,PG,1,100,10512
1574868034.283027,408015.667,6020,3,PG,1,100,10554
1574868034.324252,408050.333,6020,3,PG,1,100,10569
1574868034.365476,408085.000,6020,3,PG,1,100,10543
1574868034.406701,408119.667,6038,3,PG,1,100,10579
1574868034.447926,408154.333,6038,3,PG,1,100,10592
1574868034.489151,408189.000,6038,3,PG,1,100,10513
1574868034.525619,408219.667,6056,3,PG,1,100,10504
1574868034.562087,408250.333,6056,3,PG,1,100,10467
1574868034.598556,408281.000,6056,3,PG,1,100,10460
1574868034.637799,408314.000,6073,3,PG,1,100,10475
1574868034.677041,408347.000,6073,3,PG,1,100,10498
1574868034.716284,408380.000,6073,3,PG,1,100,10489
1574868034.760284,408417.000,6091,3,PG,1,100,10514
1574868034.804284,408454.000,6091,3,PG,1,100,10507
1574868034.848283,408491.000,6091,3,PG,1,100,10460
1574868034.887130,408523.667,6110,3,PG,1,100,10446
1574868034.925976,408556.333,6110,3,PG,1,100,10447
1574868034.964823,408589.000,6110,3,PG,1,100,10422
1574868035.005255,408623.000,6126,3,PG,1,100,10443
1574868035.045687,408657.000,6126,3,PG,1,100,10413
1574868035.086119,408691.000,6126,3,PG,1,100,10419
1574868035.127344,408725.667,6144,3,PG,1,100,10472
1574868035.168569,408760.333,6144,3,PG,1,100,10479
1574868035.209794,408795.000,6144,3,PG,1,100,10462
1574868035.251811,408830.333,6162,3,PG,1,100,10463
1574868035.293829,408865.667,6162,3,PG,1,100,10406
1574868035.335847,408901.000,6162,3,PG,1,100,10361
1574868035.373504,408932.667,6180,3,PG,1,100,10357
1574868035.411161,408964.333,6180,3,PG,1,100,10364
1574868035.448819,408996.000,6180,3,PG,1,100,10370
1574868035.488061,409029.000,6198,3,PG,1,100,10419
1574868035.527304,409062.000,6198,3,PG,1,100,10429
1574868035.566547,409095.000,6198,3,PG,1,100,10425
1574868035.606187,409128.333,6216,3,PG,1,100,10420
1574868035.645826,409161.667,6216,3,PG,1,100,10392
1574868035.685465,409195.000,6216,3,PG,1,100,10358
1574868035.726690,409229.667,6234,3,PG,1,100,10382
1574868035.767915,409264.333,6234,3,PG,1,100,10377
1574868035.809140,409299.000,6234,3,PG,1,100,10354
1574868035.850761,409334.000,6251,3,PG,1,100,10377
1574868035.892382,409369.000,6251,3,PG,1,100,10351
1574868035.934004,409404.000,6251,3,PG,1,100,10344
1574868035.972454,409436.333,6270,3,PG,1,100,10371
1574868036.010904,409468.667,6270,3,PG,1,100,10365
1574868036.049354,409501.000,6270,3,PG,1,100,10340
1574868036.087408,409533.000,6286,3,PG,1,100,10354
1574868036.125462,409565.000,6286,3,PG,1,100,10354
1574868036.163515,409597.000,6286,3,PG,1,100,10345
1574868036.202758,409630.000,6304,3,PG,1,100,10351
1574868036.242001,409663.000,6304,3,PG,1,100,10349
1574868036.281244,409696.000,6304,3,PG,1,100,10320
1574868036.322469,409730.667,6322,3,PG,1,100,10335
1574868036.363694,409765.333,6322,3,PG,1,100,10346
1574868036.404919,409800.000,6322,3,PG,1,100,10330
1574868036.446540,409835.000,6340,3,PG,1,100,10355
1574868036.488161,409870.000,6340,3,PG,1,100,10372
1574868036.529783,409905.000,6340,3,PG,1,100,10343
1574868036.569422,409938.333,6358,3,PG,1,100,10362
1574868036.609061,409971.667,6358,3,PG,1,100,10348
1574868036.648700,410005.000,6358,3,PG,1,100,10319
1574868036.686754,410037.000,6376,3,PG,1,100,10319
1574868036.724808,410069.000,6376,3,PG,1,100,10317
1574868036.762861,410101.000,6376,3,PG,1,100,10288
1574868036.802501,410134.333,6394,3,PG,1,100,10299
1574868036.842140,410167.667,6394,3,PG,1,100,10301
1574868036.881779,410201.000,6394,3,PG,1,100,10294
1574868036.922608,410235.333,6413,3,PG,1,100,10298
1574868036.963436,410269.667,6413,3,PG,1,100,10294
1574868037.004265,410304.000,6413,3,PG,1,100,10267
1574868037.045886,410339.000,6430,3,PG,1,100,10292
1574868037.087507,410374.000,6430,3,PG,1,100,10293
1574868037.129129,410409.000,6430,3,PG,1,100,10271
1574868037.169164,410442.667,6448,3,PG,1,100,10280
1574868037.209200,410476.333,6448,3,PG,1,100,10284
1574868037.249236,410510.000,6448,3,PG,1,100,10256
1574868037.287290,410542.000,6464,3,PG,1,100,10271
1574868037.325343,410574.000,6464,3,PG,1,100,10255
1574868037.363397,410606.000,6464,3,PG,1,100,10215
1574868037.402640,410639.000,6482,3,PG,1,100,10248
1574868037.441883,410672.000,6482,3,PG,1,100,10250
1574868037.481126,410705.000,6482,3,PG,1,100,10259
1574868037.523143,410740.333,6500,3,PG,1,100,10273
1574868037.565161,410775.667,6500,3,PG,1,100,10274
1574868037.607179,410811.000,6500,3,PG,1,100,10292
1574868037.648800,410846.000,6518,3,PG,1,100,10276
1574868037.690421,410881.000,6518,3,PG,1,100,10227
1574868037.732043,410916.000,6518,3,PG,1,100,10206
1574868037.772078,410949.667,6536,3,PG,1,100,10198
1574868037.812114,410983.333,6536,3,PG,1,100,10215
1574868037.852150,411017.000,6536,3,PG,1,100,10230
1574868037.889410,411048.333,6555,3,PG,1,100,10272
1574868037.926672,411079.667,6555,3,PG,1,100,10289
1574868037.963933,411111.000,6555,3,PG,1,100,10282
1574868038.002383,411143.333,6573,3,PG,1,100,10296
1574868038.040833,411175.667,6573,3,PG,1,100,10267
1574868038.079283,411208.000,6573,3,PG,1,100,10229
1574868038.120904,411243.000,6591,3,PG,1,100,10217
1574868038.162525,411278.000,6591,3,PG,1,100,10215
1574868038.204147,411313.000,6591,3,PG,1,100,10187
1574868038.245372,411347.667,6608,3,PG,1,100,10204
1574868038.286596,411382.333,6608,3,PG,1,100,10204
1574868038.327821,411417.000,6608,3,PG,1,100,10175
1574868038.372217,411454.333,6626,3,PG,1,100,10210
1574868038.416613,411491.667,6626,3,PG,1,100,10216
1574868038.461009,411529.000,6626,3,PG,1,100,10192
1574868038.497081,411559.333,6642,3,PG,1,100,10200
1574868038.533153,411589.667,6642,3,PG,1,100,10208
1574868038.569225,411620.000,6642,3,PG,1,100,10190
1574868038.609260,411653.667,6660,3,PG,1,100,10192
1574868038.649296,411687.333,6660,3,PG,1,100,10192
1574868038.689332,411721.000,6660,3,PG,1,100,10205
1574868038.726593,411752.333,6678,3,PG,1,100,10243
1574868038.763854,411783.667,6678,3,PG,1,100,10246
1574868038.801115,411815.000,6678,3,PG,1,100,10221
1574868038.840754,411848.333,6697,3,PG,1,100,10222
1574868038.880393,411881.667,6697,3,PG,1,100,10216
1574868038.920033,411915.000,6697,3,PG,1,100,10178
1574868038.959672,411948.333,6715,3,PG,1,100,10186
1574868038.999311,411981.667,6715,3,PG,1,100,10178
1574868039.038950,412015.000,6715,3,PG,1,100,10141
1574868039.080572,412050.000,6733,3,PG,1,100,10178
1574868039.122193,412085.000,6733,3,PG,1,100,10186
1574868039.163814,412120.000,6733,3,PG,1,100,10170
1574868039.205436,412155.000,6751,3,PG,1,100,10186
1574868039.247057,412190.000,6751,3,PG,1,100,10183
1574868039.288678,412225.000,6751,3,PG,1,100,10174
1574868039.326335,412256.667,6769,3,PG,1,100,10189
1574868039.363993,412288.333,6769,3,PG,1,100,10201
1574868039.401650,412320.000,6769,3,PG,1,100,10168
1574868039.441289,412353.333,6786,3,PG,1,100,10201
1574868039.480929,412386.667,6786,3,PG,1,100,10184
1574868039.520568,412420.000,6786,3,PG,1,100,10164
1574868039.559811,412453.000,6804,3,PG,1,100,10189
1574868039.599054,412486.000,6804,3,PG,1,100,10193
1574868039.638297,412519.000,6804,3,PG,1,100,10176
1574868039.679204,412553.400,6823,5,PG,1,100,10208
1574868039.720112,412587.800,6823,5,PG,1,100,10190
1574868039.761020,412622.200,6823,5,PG,1,100,10184
1574868039.801928,412656.600,6823,5,PG,1,100,10193
1574868039.842835,412691.000,6823,5,PG,1,100,10196
1574868039.882475,412724.333,6846,3,PG,1,100,10175
1574868039.922114,412757.667,6846,3,PG,1,100,10182
1574868039.961753,412791.000,6846,3,PG,1,100,10158
1574868039.999411,412822.667,6864,3,PG,1,100,10168
1574868040.037068,412854.333,6864,3,PG,1,100,10180
1574868040.074725,412886.000,6864,3,PG,1,100,10170
1574868040.113968,412919.000,6882,3,PG,1,100,10183
1574868040.153211,412952.000,6882,3,PG,1,100,10185
1574868040.192454,412985.000,6882,3,PG,1,100,10168
1574868040.233283,413019.333,6899,3,PG,1,100,10190
1574868040.274111,413053.667,6899,3,PG,1,100,10188
1574868040.314939,413088.000,6899,3,PG,1,100,10157
1574868040.355768,413122.333,6917,3,PG,1,100,10169
1574868040.396596,413156.667,6917,3,PG,1,100,10168
1574868040.437425,413191.000,6917,3,PG,1,100,10144
1574868040.478254,413225.333,6933,3,PG,1,100,10152
1574868040.519082,413259.667,6933,3,PG,1,100,10129
1574868040.559911,413294.000,6933,3,PG,1,100,10107
1574868040.597568,413325.667,6951,3,PG,1,100,10149
1574868040.635225,413357.333,6951,3,PG,1,100,10160
1574868040.672883,413389.000,6951,3,PG,1,100,10146
1574868040.715693,413425.000,6969,3,PG,1,100,10196
1574868040.758503,413461.000,6969,3,PG,1,100,10198
1574868040.801314,413497.000,6969,3,PG,1,100,10176
1574868040.842539,413531.667,6988,3,PG,1,100,10167
1574868040.883764,413566.333,6988,3,PG,1,100,10145
1574868040.924989,413601.000,6988,3,PG,1,100,10112
1574868040.965817,413635.333,7006,3,PG,1,100,10123
1574868041.006645,413669.667,7006,3,PG,1,100,10157
1574868041.047474,413704.000,7006,3,PG,1,100,10170
1574868041.088699,413738.667,7024,3,PG,1,100,10200
1574868041.129924,413773.333,7024,3,PG,1,100,10217
1574868041.171149,413808.000,7024,3,PG,1,100,10206
1574868041.206031,413837.333,7042,3,PG,1,100,10200
1574868041.240914,413866.667,7042,3,PG,1,100,10168
1574868041.275796,413896.000,7042,3,PG,1,100,10148
1574868041.314643,413928.667,7060,3,PG,1,100,10152
1574868041.353489,413961.333,7060,3,PG,1,100,10144
1574868041.392336,413994.000,7060,3,PG,1,100,10114
1574868041.433957,414029.000,7077,3,PG,1,100,10135
1574868041.475578,414064.000,7077,3,PG,1,100,10141
1574868041.517200,414099.000,7077,3,PG,1,100,10111
1574868041.558028,414133.333,7095,3,PG,1,100,10145
1574868041.598857,414167.667,7095,3,PG,1,100,10154
1574868041.639685,414202.000,7095,3,PG,1,100,10140
1574868041.680910,414236.667,7111,3,PG,1,100,10148
1574868041.722135,414271.333,7111,3,PG,1,100,10151
1574868041.763360,414306.000,7111,3,PG,1,100,10143
