EpochTimestamp,EmotiBitTimestamp,PacketNumber,DataLength,TypeTag,ProtocolVersion,DataReliability,PR
1574868621.114449,47432.000,7885,5,PR,1,100,197608
1574868621.114449,47432.000,7885,5,PR,1,100,197594
1574868621.114449,47432.000,7885,5,PR,1,100,197531
1574868621.114449,47432.000,7885,5,PR,1,100,197506
1574868621.114449,47432.000,7885,5,PR,1,100,197557
1574868621.152065,47463.667,7904,3,PR,1,100,197561
1574868621.189681,47495.333,7904,3,PR,1,100,197558
1574868621.227298,47527.000,7904,3,PR,1,100,197512
1574868621.266894,47560.333,7920,3,PR,1,100,197506
1574868621.306490,47593.667,7920,3,PR,1,100,197494
1574868621.346087,47627.000,7920,3,PR,1,100,197469
1574868621.387663,47662.000,7938,3,PR,1,100,197451
1574868621.429239,47697.000,7938,3,PR,1,100,197416
1574868621.470815,47732.000,7938,3,PR,1,100,197406
1574868621.510807,47765.667,7956,3,PR,1,100,197396
1574868621.550799,47799.333,7956,3,PR,1,100,197398
1574868621.590791,47833.000,7956,3,PR,1,100,197377
1574868621.632962,47868.500,7974,2,PR,1,100,197339
1574868621.675132,47904.000,7974,2,PR,1,100,197278
1574868621.713441,47936.250,7992,4,PR,1,100,197246
1574868621.751750,47968.500,7992,4,PR,1,100,197246
1574868621.790060,48000.750,7992,4,PR,1,100,197249
1574868621.828369,48033.000,7992,4,PR,1,100,197227
1574868621.866382,48065.000,8010,3,PR,1,100,197240
1574868621.904394,48097.000,8010,3,PR,1,100,197220
1574868621.942406,48129.000,8010,3,PR,1,100,197215
1574868621.983587,48163.667,8028,3,PR,1,100,197188
1574868622.024767,48198.333,8028,3,PR,1,100,197188
1574868622.065947,48233.000,8028,3,PR,1,100,197186
1574868622.106731,48267.333,8047,3,PR,1,100,197222
1574868622.147515,48301.667,8047,3,PR,1,100,197251
1574868622.188299,48336.000,8047,3,PR,1,100,197276
1574868622.229875,48371.000,8064,3,PR,1,100,197271
1574868622.271451,48406.000,8064,3,PR,1,100,197288
1574868622.313027,48441.000,8064,3,PR,1,100,197235
1574868622.352228,48474.000,8082,3,PR,1,100,197222
1574868622.391428,48507.000,8082,3,PR,1,100,197212
1574868622.430628,48540.000,8082,3,PR,1,100,197192
1574868622.468641,48572.000,8098,3,PR,1,100,197218
1574868622.506653,48604.000,8098,3,PR,1,100,197248
1574868622.544666,48636.000,8098,3,PR,1,100,197274
1574868622.584658,48669.667,8116,3,PR,1,100,197329
1574868622.624650,48703.333,8116,3,PR,1,100,197347
1574868622.664642,48737.000,8116,3,PR,1,100,197325
1574868622.705426,48771.333,8134,3,PR,1,100,197304
1574868622.746211,48805.667,8134,3,PR,1,100,197286
1574868622.786995,48840.000,8134,3,PR,1,100,197279
1574868622.828571,48875.000,8152,3,PR,1,100,197273
1574868622.870147,48910.000,8152,3,PR,1,100,197265
1574868622.911723,48945.000,8152,3,PR,1,100,197267
1574868622.950923,48978.000,8170,3,PR,1,100,197268
1574868622.990124,49011.000,8170,3,PR,1,100,197266
1574868623.029324,49044.000,8170,3,PR,1,100,197270
1574868623.067336,49076.000,8188,3,PR,1,100,197287
1574868623.105349,49108.000,8188,3,PR,1,100,197297
1574868623.143361,49140.000,8188,3,PR,1,100,197290
1574868623.182957,49173.333,8207,3,PR,1,100,197289
1574868623.222554,49206.667,8207,3,PR,1,100,197278
1574868623.262150,49240.000,8207,3,PR,1,100,197270
1574868623.302538,49274.000,8225,3,PR,1,100,197265
1574868623.342926,49308.000,8225,3,PR,1,100,197244
1574868623.383314,49342.000,8225,3,PR,1,100,197269
1574868623.424891,49377.000,8242,3,PR,1,100,197275
1574868623.466467,49412.000,8242,3,PR,1,100,197271
1574868623.508043,49447.000,8242,3,PR,1,100,197262
1574868623.548431,49481.000,8260,3,PR,1,100,197274
1574868623.588819,49515.000,8260,3,PR,1,100,197256
1574868623.629207,49549.000,8260,3,PR,1,100,197249
1574868623.667220,49581.000,8276,3,PR,1,100,197256
1574868623.705232,49613.000,8276,3,PR,1,100,197254
1574868623.743245,49645.000,8276,3,PR,1,100,197233
1574868623.781653,49677.333,8294,3,PR,1,100,197251
1574868623.820061,49709.667,8294,3,PR,1,100,197259
1574868623.858470,49742.000,8294,3,PR,1,100,197246
1574868623.898462,49775.667,8312,3,PR,1,100,197238
1574868623.938454,49809.333,8312,3,PR,1,100,197231
1574868623.978446,49843.000,8312,3,PR,1,100,197220
1574868624.019626,49877.667,8330,3,PR,1,100,197197
1574868624.060807,49912.333,8330,3,PR,1,100,197203
1574868624.101987,49947.000,8330,3,PR,1,100,197203
1574868624.143563,49982.000,8349,3,PR,1,100,197212
1574868624.185139,50017.000,8349,3,PR,1,100,197195
1574868624.226715,50052.000,8349,3,PR,1,100,197208
1574868624.264727,50084.000,8367,3,PR,1,100,197169
1574868624.302740,50116.000,8367,3,PR,1,100,197177
1574868624.340752,50148.000,8367,3,PR,1,100,197201
1574868624.379556,50180.667,8385,3,PR,1,100,197218
1574868624.418361,50213.333,8385,3,PR,1,100,197215
1574868624.457165,50246.000,8385,3,PR,1,100,197232
1574868624.497157,50279.667,8403,3,PR,1,100,197218
1574868624.537150,50313.333,8403,3,PR,1,100,197162
1574868624.577142,50347.000,8403,3,PR,1,100,197143
1574868624.619510,50382.667,8420,3,PR,1,100,197148
1574868624.661878,50418.333,8420,3,PR,1,100,197122
1574868624.704246,50454.000,8420,3,PR,1,100,197200
1574868624.745030,50488.333,8438,3,PR,1,100,197219
1574868624.785814,50522.667,8438,3,PR,1,100,197228
1574868624.826598,50557.000,8438,3,PR,1,100,197243
1574868624.864215,50588.667,8456,3,PR,1,100,197219
1574868624.901831,50620.333,8456,3,PR,1,100,197189
1574868624.939448,50652.000,8456,3,PR,1,100,197187
1574868624.977856,50684.333,8472,3,PR,1,100,197181
1574868625.016264,50716.667,8472,3,PR,1,100,197163
1574868625.054673,50749.000,8472,3,PR,1,100,197164
1574868625.095061,50783.000,8491,3,PR,1,100,197144
1574868625.135449,50817.000,8491,3,PR,1,100,197145
1574868625.175838,50851.000,8491,3,PR,1,100,197150
1574868625.217413,50886.000,8509,3,PR,1,100,197141
1574868625.258990,50921.000,8509,3,PR,1,100,197154
1574868625.300566,50956.000,8509,3,PR,1,100,197213
1574868625.345309,50993.667,8527,3,PR,1,100,197241
1574868625.390053,51031.333,8527,3,PR,1,100,197278
1574868625.434797,51069.000,8527,3,PR,1,100,197325
1574868625.472809,51101.000,8545,3,PR,1,100,197352
1574868625.510822,51133.000,8545,3,PR,1,100,197349
1574868625.548834,51165.000,8545,3,PR,1,100,197416
1574868625.586847,51197.000,8563,3,PR,1,100,197460
1574868625.624859,51229.000,8563,3,PR,1,100,197468
1574868625.662872,51261.000,8563,3,PR,1,100,196814
1574868625.703656,51295.333,8581,3,PR,1,100,196486
1574868625.744440,51329.667,8581,3,PR,1,100,196556
1574868625.785224,51364.000,8581,3,PR,1,100,196516
1574868625.826800,51399.000,8599,3,PR,1,100,196480
1574868625.868376,51434.000,8599,3,PR,1,100,196455
1574868625.909952,51469.000,8599,3,PR,1,100,196462
1574868625.951528,51504.000,8616,3,PR,1,100,196483
1574868625.993104,51539.000,8616,3,PR,1,100,196492
1574868626.034680,51574.000,8616,3,PR,1,100,196523
1574868626.073485,51606.667,8634,3,PR,1,100,196532
1574868626.112289,51639.333,8634,3,PR,1,100,195344
1574868626.151093,51672.000,8634,3,PR,1,100,196213
1574868626.189106,51704.000,8651,3,PR,1,100,195852
1574868626.227118,51736.000,8651,3,PR,1,100,195887
1574868626.265131,51768.000,8651,3,PR,1,100,195921
1574868626.303935,51800.667,8669,3,PR,1,100,195946
1574868626.342739,51833.333,8669,3,PR,1,100,195993
1574868626.381544,51866.000,8669,3,PR,1,100,196031
1574868626.421932,51900.000,8687,3,PR,1,100,196084
1574868626.462320,51934.000,8687,3,PR,1,100,196009
1574868626.502708,51968.000,8687,3,PR,1,100,194970
1574868626.543888,52002.667,8705,3,PR,1,100,195900
1574868626.585068,52037.333,8705,3,PR,1,100,195521
1574868626.626249,52072.000,8705,3,PR,1,100,195511
1574868626.666241,52105.667,8723,3,PR,1,100,195543
1574868626.706233,52139.333,8723,3,PR,1,100,195492
1574868626.746225,52173.000,8723,3,PR,1,100,195449
1574868626.783446,52204.333,8741,3,PR,1,100,195410
1574868626.820666,52235.667,8741,3,PR,1,100,195380
1574868626.857887,52267.000,8741,3,PR,1,100,195376
1574868626.897483,52300.333,8759,3,PR,1,100,195334
1574868626.937079,52333.667,8759,3,PR,1,100,195389
1574868626.976676,52367.000,8759,3,PR,1,100,195388
1574868627.017301,52401.200,8780,5,PR,1,100,195333
1574868627.057927,52435.400,8780,5,PR,1,100,195337
1574868627.098553,52469.600,8780,5,PR,1,100,195290
1574868627.139179,52503.800,8780,5,PR,1,100,195268
1574868627.179804,52538.000,8780,5,PR,1,100,195225
1574868627.220984,52572.667,8801,3,PR,1,100,195217
1574868627.262165,52607.333,8801,3,PR,1,100,195259
1574868627.303345,52642.000,8801,3,PR,1,100,195310
1574868627.342545,52675.000,8819,3,PR,1,100,195308
1574868627.381745,52708.000,8819,3,PR,1,100,195264
1574868627.420946,52741.000,8819,3,PR,1,100,195263
1574868627.459354,52773.333,8837,3,PR,1,100,195273
1574868627.497762,52805.667,8837,3,PR,1,100,195259
1574868627.536171,52838.000,8837,3,PR,1,100,195258
1574868627.576163,52871.667,8855,3,PR,1,100,195265
1574868627.616155,52905.333,8855,3,PR,1,100,195269
1574868627.656147,52939.000,8855,3,PR,1,100,195261
1574868627.696932,52973.333,8873,3,PR,1,100,195266
1574868627.737716,53007.667,8873,3,PR,1,100,195253
1574868627.778500,53042.000,8873,3,PR,1,100,195234
1574868627.819284,53076.333,8890,3,PR,1,100,195245
1574868627.860068,53110.667,8890,3,PR,1,100,195263
1574868627.900852,53145.000,8890,3,PR,1,100,195272
1574868627.940845,53178.667,8908,3,PR,1,100,195257
1574868627.980837,53212.333,8908,3,PR,1,100,195254
1574868628.020829,53246.000,8908,3,PR,1,100,195257
1574868628.058445,53277.667,8926,3,PR,1,100,195259
1574868628.096062,53309.333,8926,3,PR,1,100,195256
1574868628.133678,53341.000,8926,3,PR,1,100,195237
1574868628.173275,53374.333,8943,3,PR,1,100,195250
1574868628.212871,53407.667,8943,3,PR,1,100,195223
1574868628.252467,53441.000,8943,3,PR,1,100,195237
1574868628.292856,53475.000,8961,3,PR,1,100,195231
1574868628.333244,53509.000,8961,3,PR,1,100,195233
1574868628.373632,53543.000,8961,3,PR,1,100,195202
1574868628.414416,53577.333,8979,3,PR,1,100,195192
1574868628.455200,53611.667,8979,3,PR,1,100,195190
1574868628.495984,53646.000,8979,3,PR,1,100,195196
1574868628.537164,53680.667,8997,3,PR,1,100,195178
1574868628.578345,53715.333,8997,3,PR,1,100,195195
1574868628.619525,53750.000,8997,3,PR,1,100,195201
1574868628.657141,53781.667,9015,3,PR,1,100,195180
1574868628.694757,53813.333,9015,3,PR,1,100,195165
1574868628.732374,53845.000,9015,3,PR,1,100,195169
1574868628.773158,53879.333,9033,3,PR,1,100,195161
1574868628.813942,53913.667,9033,3,PR,1,100,195184
1574868628.854727,53948.000,9033,3,PR,1,100,195224
1574868628.895511,53982.333,9051,3,PR,1,100,195221
1574868628.936295,54016.667,9051,3,PR,1,100,195201
1574868628.977079,54051.000,9051,3,PR,1,100,195225
1574868629.018259,54085.667,9069,3,PR,1,100,195175
1574868629.059439,54120.333,9069,3,PR,1,100,195152
1574868629.100619,54155.000,9069,3,PR,1,100,195132
1574868629.141601,54189.500,9087,2,PR,1,100,195117
1574868629.182584,54224.000,9087,2,PR,1,100,195149
1574868629.220596,54256.000,9105,4,PR,1,100,195185
1574868629.258608,54288.000,9105,4,PR,1,100,195198
1574868629.296621,54320.000,9105,4,PR,1,100,195224
1574868629.334633,54352.000,9105,4,PR,1,100,195230
1574868629.374229,54385.333,9121,3,PR,1,100,195183
1574868629.413826,54418.667,9121,3,PR,1,100,195178
1574868629.453422,54452.000,9121,3,PR,1,100,195187
1574868629.494206,54486.333,9139,3,PR,1,100,195182
1574868629.534990,54520.667,9139,3,PR,1,100,195197
1574868629.575774,54555.000,9139,3,PR,1,100,195180
1574868629.616955,54589.667,9157,3,PR,1,100,195187
1574868629.658135,54624.333,9157,3,PR,1,100,195181
1574868629.699315,54659.000,9157,3,PR,1,100,195179
1574868629.740495,54693.667,9175,3,PR,1,100,195177
1574868629.781675,54728.333,9175,3,PR,1,100,195162
1574868629.822855,54763.000,9175,3,PR,1,100,195160
1574868629.861264,54795.333,9193,3,PR,1,100,195175
1574868629.899672,54827.667,9193,3,PR,1,100,195150
1574868629.938080,54860.000,9193,3,PR,1,100,195162
1574868629.976093,54892.000,9211,3,PR,1,100,195146
1574868630.014105,54924.000,9211,3,PR,1,100,195205
1574868630.052118,54956.000,9211,3,PR,1,100,195204
1574868630.092110,54989.667,9230,3,PR,1,100,195162
1574868630.132102,55023.333,9230,3,PR,1,100,195148
1574868630.172094,55057.000,9230,3,PR,1,100,195163
1574868630.213274,55091.667,9248,3,PR,1,100,195161
1574868630.254454,55126.333,9248,3,PR,1,100,195162
1574868630.295635,55161.000,9248,3,PR,1,100,195149
1574868630.336815,55195.667,9265,3,PR,1,100,195127
1574868630.377995,55230.333,9265,3,PR,1,100,195133
1574868630.419175,55265.000,9265,3,PR,1,100,195073
1574868630.457979,55297.667,9283,3,PR,1,100,195095
1574868630.496783,55330.333,9283,3,PR,1,100,195113
1574868630.535588,55363.000,9283,3,PR,1,100,195134
1574868630.573600,55395.000,9299,3,PR,1,100,195134
1574868630.611613,55427.000,9299,3,PR,1,100,195129
1574868630.649625,55459.000,9299,3,PR,1,100,195151
1574868630.689617,55492.667,9317,3,PR,1,100,195183
1574868630.729610,55526.333,9317,3,PR,1,100,195174
1574868630.769602,55560.000,9317,3,PR,1,100,195182
1574868630.810782,55594.667,9335,3,PR,1,100,195176
1574868630.851962,55629.333,9335,3,PR,1,100,195192
1574868630.893142,55664.000,9335,3,PR,1,100,195197
1574868630.935114,55699.333,9353,3,PR,1,100,195208
1574868630.977086,55734.667,9353,3,PR,1,100,195208
1574868631.019058,55770.000,9353,3,PR,1,100,195230
1574868631.058655,55803.333,9371,3,PR,1,100,195162
1574868631.098251,55836.667,9371,3,PR,1,100,195164
1574868631.137847,55870.000,9371,3,PR,1,100,195200
1574868631.175859,55902.000,9390,3,PR,1,100,195192
1574868631.213872,55934.000,9390,3,PR,1,100,195199
1574868631.251884,55966.000,9390,3,PR,1,100,195235
1574868631.290689,55998.667,9408,3,PR,1,100,195199
1574868631.329493,56031.333,9408,3,PR,1,100,195149
1574868631.368297,56064.000,9408,3,PR,1,100,195126
1574868631.408686,56098.000,9426,3,PR,1,100,195102
1574868631.449074,56132.000,9426,3,PR,1,100,195087
1574868631.489462,56166.000,9426,3,PR,1,100,195161
1574868631.531038,56201.000,9443,3,PR,1,100,195213
1574868631.572614,56236.000,9443,3,PR,1,100,195222
1574868631.614190,56271.000,9443,3,PR,1,100,195208
1574868631.654182,56304.667,9461,3,PR,1,100,195157
1574868631.694175,56338.333,9461,3,PR,1,100,195120
1574868631.734167,56372.000,9461,3,PR,1,100,195130
1574868631.772179,56404.000,9477,3,PR,1,100,195168
1574868631.810192,56436.000,9477,3,PR,1,100,195212
1574868631.848204,56468.000,9477,3,PR,1,100,195222
1574868631.886612,56500.333,9495,3,PR,1,100,195208
1574868631.925021,56532.667,9495,3,PR,1,100,195196
1574868631.963429,56565.000,9495,3,PR,1,100,195173
1574868632.003026,56598.333,9513,3,PR,1,100,195164
1574868632.042622,56631.667,9513,3,PR,1,100,195169
1574868632.082218,56665.000,9513,3,PR,1,100,195181
1574868632.124586,56700.667,9532,3,PR,1,100,195202
1574868632.166954,56736.333,9532,3,PR,1,100,195184
1574868632.209322,56772.000,9532,3,PR,1,100,195155
1574868632.250106,56806.333,9550,3,PR,1,100,195140
1574868632.290890,56840.667,9550,3,PR,1,100,195129
1574868632.331675,56875.000,9550,3,PR,1,100,195142
1574868632.369291,56906.667,9568,3,PR,1,100,195099
1574868632.406907,56938.333,9568,3,PR,1,100,195104
1574868632.444524,56970.000,9568,3,PR,1,100,195069
1574868632.483328,57002.667,9586,3,PR,1,100,195061
1574868632.522133,57035.333,9586,3,PR,1,100,195170
1574868632.560937,57068.000,9586,3,PR,1,100,195182
1574868632.602117,57102.667,9604,3,PR,1,100,195116
1574868632.643297,57137.333,9604,3,PR,1,100,195156
1574868632.684477,57172.000,9604,3,PR,1,100,195165
1574868632.726053,57207.000,9622,3,PR,1,100,195083
1574868632.767629,57242.000,9622,3,PR,1,100,195074
1574868632.809206,57277.000,9622,3,PR,1,100,195070
1574868632.850386,57311.667,9639,3,PR,1,100,195092
1574868632.891566,57346.333,9639,3,PR,1,100,195137
1574868632.932746,57381.000,9639,3,PR,1,100,195145
1574868632.969966,57412.333,9657,3,PR,1,100,195126
1574868633.007187,57443.667,9657,3,PR,1,100,195122
1574868633.044407,57475.000,9657,3,PR,1,100,195111
1574868633.083370,57507.800,9678,5,PR,1,100,195112
1574868633.122333,57540.600,9678,5,PR,1,100,195089
1574868633.161295,57573.400,9678,5,PR,1,100,195084
1574868633.200258,57606.200,9678,5,PR,1,100,195085
1574868633.239221,57639.000,9678,5,PR,1,100,195093
1574868633.280005,57673.333,9698,3,PR,1,100,195084
1574868633.320789,57707.667,9698,3,PR,1,100,195074
1574868633.361573,57742.000,9698,3,PR,1,100,195064
1574868633.402358,57776.333,9716,3,PR,1,100,195084
1574868633.443142,57810.667,9716,3,PR,1,100,195047
1574868633.483926,57845.000,9716,3,PR,1,100,195096
1574868633.524314,57879.000,9733,3,PR,1,100,195137
1574868633.564702,57913.000,9733,3,PR,1,100,195128
1574868633.605090,57947.000,9733,3,PR,1,100,195139
1574868633.643103,57979.000,9751,3,PR,1,100,195165
1574868633.681115,58011.000,9751,3,PR,1,100,195110
1574868633.719128,58043.000,9751,3,PR,1,100,195041
1574868633.758724,58076.333,9769,3,PR,1,100,195024
1574868633.798320,58109.667,9769,3,PR,1,100,195038
1574868633.837916,58143.000,9769,3,PR,1,100,195021
1574868633.878305,58177.000,9785,3,PR,1,100,195065
1574868633.918693,58211.000,9785,3,PR,1,100,195098
1574868633.959081,58245.000,9785,3,PR,1,100,195102
1574868633.999865,58279.333,9803,3,PR,1,100,195088
1574868634.040649,58313.667,9803,3,PR,1,100,195097
1574868634.081434,58348.000,9803,3,PR,1,100,195093
1574868634.123010,58383.000,9822,3,PR,1,100,195068
1574868634.164586,58418.000,9822,3,PR,1,100,195060
1574868634.206162,58453.000,9822,3,PR,1,100,195053
1574868634.244174,58485.000,9840,3,PR,1,100,195045
1574868634.282187,58517.000,9840,3,PR,1,100,195050
1574868634.320199,58549.000,9840,3,PR,1,100,195076
1574868634.359003,58581.667,9858,3,PR,1,100,195064
1574868634.397808,58614.333,9858,3,PR,1,100,195068
1574868634.436612,58647.000,9858,3,PR,1,100,195055
1574868634.477000,58681.000,9876,3,PR,1,100,195028
1574868634.517388,58715.000,9876,3,PR,1,100,195050
1574868634.557777,58749.000,9876,3,PR,1,100,195060
1574868634.599353,58784.000,9894,2,PR,1,100,195050
1574868634.640929,58819.000,9894,2,PR,1,100,195041
1574868634.685673,58856.667,9911,3,PR,1,100,195053
1574868634.730416,58894.333,9911,3,PR,1,100,195058
1574868634.775160,58932.000,9911,3,PR,1,100,195023
1574868634.814360,58965.000,9929,3,PR,1,100,195032
1574868634.853561,58998.000,9929,3,PR,1,100,195089
1574868634.892761,59031.000,9929,3,PR,1,100,195126
1574868634.928694,59061.250,9945,4,PR,1,100,195154
1574868634.964628,59091.500,9945,4,PR,1,100,195171
1574868635.000562,59121.750,9945,4,PR,1,100,195181
1574868635.036495,59152.000,9945,4,PR,1,100,195181
1574868635.080051,59188.667,9964,3,PR,1,100,195173
1574868635.123607,59225.333,9964,3,PR,1,100,195145
1574868635.167163,59262.000,9964,3,PR,1,100,195142
1574868635.208343,59296.667,9982,3,PR,1,100,195166
1574868635.249523,59331.333,9982,3,PR,1,100,195134
1574868635.290704,59366.000,9982,3,PR,1,100,195016
1574868635.331686,59400.500,10000,2,PR,1,100,195048
1574868635.372668,59435.000,10000,2,PR,1,100,195195
1574868635.410383,59466.750,10018,4,PR,1,100,195198
1574868635.448099,59498.500,10018,4,PR,1,100,195082
1574868635.485814,59530.250,10018,4,PR,1,100,195075
1574868635.523530,59562.000,10018,4,PR,1,100,195178
1574868635.561542,59594.000,10036,3,PR,1,100,195257
1574868635.599554,59626.000,10036,3,PR,1,100,195147
1574868635.637567,59658.000,10036,3,PR,1,100,195120
1574868635.678351,59692.333,10054,3,PR,1,100,195056
1574868635.719135,59726.667,10054,3,PR,1,100,195045
1574868635.759919,59761.000,10054,3,PR,1,100,195063
1574868635.801495,59796.000,10072,3,PR,1,100,195105
1574868635.843071,59831.000,10072,3,PR,1,100,195076
1574868635.884647,59866.000,10072,3,PR,1,100,195076
1574868635.926224,59901.000,10089,3,PR,1,100,195078
1574868635.967800,59936.000,10089,3,PR,1,100,195081
1574868636.009376,59971.000,10089,3,PR,1,100,195110
1574868636.048180,60003.667,10107,3,PR,1,100,195206
1574868636.086984,60036.333,10107,3,PR,1,100,195215
1574868636.125789,60069.000,10107,3,PR,1,100,195090
1574868636.163801,60101.000,10124,3,PR,1,100,195048
1574868636.201813,60133.000,10124,3,PR,1,100,195094
1574868636.239826,60165.000,10124,3,PR,1,100,195106
1574868636.283382,60201.667,10142,3,PR,1,100,195098
1574868636.326938,60238.333,10142,3,PR,1,100,195090
1574868636.370494,60275.000,10142,3,PR,1,100,195130
1574868636.410288,60308.500,10160,2,PR,1,100,195116
1574868636.450082,60342.000,10160,2,PR,1,100,195107
1574868636.491262,60376.667,10178,3,PR,1,100,195085
1574868636.532442,60411.333,10178,3,PR,1,100,195035
1574868636.573622,60446.000,10178,3,PR,1,100,194991
1574868636.614407,60480.333,10196,3,PR,1,100,195001
1574868636.655191,60514.667,10196,3,PR,1,100,195034
1574868636.695975,60549.000,10196,3,PR,1,100,195047
1574868636.732800,60580.000,10214,4,PR,1,100,195057
1574868636.769624,60611.000,10214,4,PR,1,100,195091
1574868636.806448,60642.000,10214,4,PR,1,100,195082
1574868636.843273,60673.000,10214,4,PR,1,100,195100
1574868636.884057,60707.333,10232,3,PR,1,100,195101
1574868636.924841,60741.667,10232,3,PR,1,100,195071
1574868636.965626,60776.000,10232,3,PR,1,100,195040
1574868637.006014,60810.000,10250,3,PR,1,100,195034
1574868637.046402,60844.000,10250,3,PR,1,100,195036
1574868637.086790,60878.000,10250,3,PR,1,100,195030
1574868637.127574,60912.333,10268,3,PR,1,100,195017
1574868637.168358,60946.667,10268,3,PR,1,100,195013
1574868637.209142,60981.000,10268,3,PR,1,100,195005
1574868637.251312,61016.500,10286,2,PR,1,100,194998
1574868637.293483,61052.000,10286,2,PR,1,100,195019
1574868637.331792,61084.250,10302,4,PR,1,100,195036
1574868637.370101,61116.500,10302,4,PR,1,100,195038
1574868637.408411,61148.750,10302,4,PR,1,100,195025
1574868637.446720,61181.000,10302,4,PR,1,100,195047
1574868637.485920,61214.000,10320,3,PR,1,100,195051
1574868637.525121,61247.000,10320,3,PR,1,100,195013
1574868637.564321,61280.000,10320,3,PR,1,100,194964
1574868637.604313,61313.667,10338,3,PR,1,100,194941
1574868637.644305,61347.333,10338,3,PR,1,100,194948
1574868637.684298,61381.000,10338,3,PR,1,100,194945
1574868637.725478,61415.667,10356,3,PR,1,100,194936
1574868637.766658,61450.333,10356,3,PR,1,100,194929
1574868637.807838,61485.000,10356,3,PR,1,100,194935
1574868637.849414,61520.000,10374,2,PR,1,100,194925
1574868637.890990,61555.000,10374,2,PR,1,100,194948
1574868637.929893,61587.750,10392,4,PR,1,100,194932
1574868637.968797,61620.500,10392,4,PR,1,100,194925
1574868638.007700,61653.250,10392,4,PR,1,100,194908
1574868638.046603,61686.000,10392,4,PR,1,100,194908
1574868638.085012,61718.333,10411,3,PR,1,100,194913
1574868638.123420,61750.667,10411,3,PR,1,100,194919
1574868638.161829,61783.000,10411,3,PR,1,100,194909
1574868638.201029,61816.000,10429,3,PR,1,100,194901
1574868638.240229,61849.000,10429,3,PR,1,100,194850
1574868638.279430,61882.000,10429,3,PR,1,100,194854
1574868638.320610,61916.667,10447,3,PR,1,100,194921
1574868638.361790,61951.333,10447,3,PR,1,100,194990
1574868638.402970,61986.000,10447,3,PR,1,100,195012
1574868638.444942,62021.333,10464,3,PR,1,100,195015
1574868638.486914,62056.667,10464,3,PR,1,100,194990
1574868638.528886,62092.000,10464,3,PR,1,100,194975
1574868638.567690,62124.667,10480,3,PR,1,100,194937
1574868638.606495,62157.333,10480,3,PR,1,100,194929
1574868638.645299,62190.000,10480,3,PR,1,100,194909
1574868638.683311,62222.000,10498,3,PR,1,100,194911
1574868638.721324,62254.000,10498,3,PR,1,100,194894
1574868638.759336,62286.000,10498,3,PR,1,100,194940
1574868638.799329,62319.667,10516,3,PR,1,100,194934
1574868638.839321,62353.333,10516,3,PR,1,100,194940
1574868638.879313,62387.000,10516,3,PR,1,100,194962
1574868638.920493,62421.667,10534,3,PR,1,100,194971
1574868638.961673,62456.333,10534,3,PR,1,100,194957
1574868639.002853,62491.000,10534,3,PR,1,100,194960
1574868639.044825,62526.333,10552,3,PR,1,100,194954
1574868639.086797,62561.667,10552,3,PR,1,100,194953
1574868639.128769,62597.000,10552,3,PR,1,100,194971
1574868639.167673,62629.750,10574,4,PR,1,100,194979
1574868639.206576,62662.500,10574,4,PR,1,100,194967
1574868639.245479,62695.250,10574,4,PR,1,100,194917
1574868639.284383,62728.000,10574,4,PR,1,100,194909
1574868639.322791,62760.333,10594,3,PR,1,100,194931
1574868639.361200,62792.667,10594,3,PR,1,100,194902
1574868639.399608,62825.000,10594,3,PR,1,100,194875
1574868639.440392,62859.333,10612,3,PR,1,100,194919
1574868639.481176,62893.667,10612,3,PR,1,100,194935
1574868639.521960,62928.000,10612,3,PR,1,100,194949
1574868639.562745,62962.333,10630,3,PR,1,100,194955
1574868639.603529,62996.667,10630,3,PR,1,100,194935
1574868639.644313,63031.000,10630,3,PR,1,100,194952
1574868639.686681,63066.667,10648,3,PR,1,100,194910
1574868639.729049,63102.333,10648,3,PR,1,100,194967
1574868639.771417,63138.000,10648,3,PR,1,100,194974
1574868639.809825,63170.333,10666,3,PR,1,100,194940
1574868639.848234,63202.667,10666,3,PR,1,100,194898
1574868639.886642,63235.000,10666,3,PR,1,100,194933
1574868639.924654,63267.000,10684,4,PR,1,100,194899
1574868639.962667,63299.000,10684,4,PR,1,100,194907
1574868640.000679,63331.000,10684,4,PR,1,100,194876
1574868640.038692,63363.000,10684,4,PR,1,100,194871
1574868640.080862,63398.500,10703,2,PR,1,100,194848
1574868640.123032,63434.000,10703,2,PR,1,100,194882
1574868640.163816,63468.333,10721,3,PR,1,100,194883
1574868640.204600,63502.667,10721,3,PR,1,100,194884
1574868640.245384,63537.000,10721,3,PR,1,100,194912
1574868640.286564,63571.667,10738,3,PR,1,100,194949
1574868640.327744,63606.333,10738,3,PR,1,100,194964
1574868640.368925,63641.000,10738,3,PR,1,100,194957
1574868640.407729,63673.667,10756,3,PR,1,100,194927
1574868640.446533,63706.333,10756,3,PR,1,100,194899
1574868640.485337,63739.000,10756,3,PR,1,100,194850
1574868640.523053,63770.750,10772,4,PR,1,100,194811
1574868640.560768,63802.500,10772,4,PR,1,100,194808
1574868640.598484,63834.250,10772,4,PR,1,100,194866
1574868640.636199,63866.000,10772,4,PR,1,100,194874
1574868640.676588,63900.000,10790,3,PR,1,100,194962
1574868640.716976,63934.000,10790,3,PR,1,100,195131
1574868640.757364,63968.000,10790,3,PR,1,100,195185
1574868640.798346,64002.500,10808,2,PR,1,100,195174
1574868640.839328,64037.000,10808,2,PR,1,100,195096
1574868640.880904,64072.000,10826,3,PR,1,100,195040
1574868640.922480,64107.000,10826,3,PR,1,100,195019
1574868640.964056,64142.000,10826,3,PR,1,100,195030
1574868641.005236,64176.667,10844,3,PR,1,100,195062
1574868641.046417,64211.333,10844,3,PR,1,100,195029
1574868641.087597,64246.000,10844,3,PR,1,100,194976
1574868641.125312,64277.750,10863,4,PR,1,100,194957
1574868641.163028,64309.500,10863,4,PR,1,100,194953
1574868641.200743,64341.250,10863,4,PR,1,100,195020
1574868641.238458,64373.000,10863,4,PR,1,100,195061
1574868641.278451,64406.667,10881,3,PR,1,100,195033
1574868641.318443,64440.333,10881,3,PR,1,100,195071
1574868641.358435,64474.000,10881,3,PR,1,100,195084
1574868641.398823,64508.000,10899,2,PR,1,100,195040
1574868641.439212,64542.000,10899,2,PR,1,100,195030
1574868641.479996,64576.333,10916,3,PR,1,100,195031
1574868641.520780,64610.667,10916,3,PR,1,100,194992
1574868641.561564,64645.000,10916,3,PR,1,100,194951
1574868641.603140,64680.000,10934,3,PR,1,100,194952
1574868641.644716,64715.000,10934,3,PR,1,100,194960
1574868641.686292,64750.000,10934,3,PR,1,100,194942
1574868641.724008,64781.750,10950,4,PR,1,100,194951
1574868641.761723,64813.500,10950,4,PR,1,100,194953
1574868641.799438,64845.250,10950,4,PR,1,100,194947
1574868641.837154,64877.000,10950,4,PR,1,100,194950
1574868641.876354,64910.000,10968,3,PR,1,100,194963
1574868641.915555,64943.000,10968,3,PR,1,100,194977
1574868641.954755,64976.000,10968,3,PR,1,100,194996
1574868641.994747,65009.667,10986,3,PR,1,100,195000
1574868642.034739,65043.333,10986,3,PR,1,100,195001
1574868642.074732,65077.000,10986,3,PR,1,100,194983
1574868642.115516,65111.333,11005,3,PR,1,100,194985
1574868642.156300,65145.667,11005,3,PR,1,100,194958
1574868642.197084,65180.000,11005,3,PR,1,100,194945
1574868642.239254,65215.500,11023,2,PR,1,100,194936
1574868642.281424,65251.000,11023,2,PR,1,100,194952
1574868642.319437,65283.000,11041,4,PR,1,100,194941
1574868642.357449,65315.000,11041,4,PR,1,100,194943
1574868642.395461,65347.000,11041,4,PR,1,100,194961
1574868642.433474,65379.000,11041,4,PR,1,100,194957
1574868642.472674,65412.000,11059,3,PR,1,100,194955
1574868642.511874,65445.000,11059,3,PR,1,100,194946
1574868642.551075,65478.000,11059,3,PR,1,100,194962
1574868642.591463,65512.000,11077,3,PR,1,100,194941
1574868642.631851,65546.000,11077,3,PR,1,100,194967
1574868642.672239,65580.000,11077,3,PR,1,100,194992
1574868642.713419,65614.667,11094,3,PR,1,100,194981
1574868642.754600,65649.333,11094,3,PR,1,100,194981
1574868642.795780,65684.000,11094,3,PR,1,100,194986
1574868642.837950,65719.500,11112,2,PR,1,100,194967
1574868642.880120,65755.000,11112,2,PR,1,100,194945
1574868642.918726,65787.500,11128,4,PR,1,100,194920
1574868642.957332,65820.000,11128,4,PR,1,100,194925
1574868642.995939,65852.500,11128,4,PR,1,100,194905
1574868643.034545,65885.000,11128,4,PR,1,100,194908
1574868643.074537,65918.667,11147,3,PR,1,100,194899
1574868643.114530,65952.333,11147,3,PR,1,100,194903
1574868643.154522,65986.000,11147,3,PR,1,100,194888
1574868643.194910,66020.000,11165,3,PR,1,100,194895
1574868643.235298,66054.000,11165,3,PR,1,100,194892
1574868643.275686,66088.000,11165,3,PR,1,100,194932
1574868643.317262,66123.000,11183,2,PR,1,100,194971
1574868643.358839,66158.000,11183,2,PR,1,100,194974
1574868643.400019,66192.667,11201,3,PR,1,100,194967
1574868643.441199,66227.333,11201,3,PR,1,100,194967
1574868643.482379,66262.000,11201,3,PR,1,100,194937
1574868643.520985,66294.500,11219,4,PR,1,100,194923
1574868643.559592,66327.000,11219,4,PR,1,100,194899
1574868643.598198,66359.500,11219,4,PR,1,100,194876
1574868643.636804,66392.000,11219,4,PR,1,100,194889
1574868643.675213,66424.333,11237,3,PR,1,100,194923
1574868643.713621,66456.667,11237,3,PR,1,100,194933
1574868643.752029,66489.000,11237,3,PR,1,100,194960
1574868643.792418,66523.000,11255,3,PR,1,100,194965
1574868643.832806,66557.000,11255,3,PR,1,100,194966
1574868643.873194,66591.000,11255,3,PR,1,100,194931
1574868643.914374,66625.667,11272,3,PR,1,100,194941
1574868643.955554,66660.333,11272,3,PR,1,100,194941
1574868643.996734,66695.000,11272,3,PR,1,100,194949
1574868644.037716,66729.500,11290,2,PR,1,100,194962
1574868644.078699,66764.000,11290,2,PR,1,100,194970
1574868644.118790,66797.750,11307,4,PR,1,100,194966
1574868644.158881,66831.500,11307,4,PR,1,100,194977
1574868644.198972,66865.250,11307,4,PR,1,100,194987
1574868644.239064,66899.000,11307,4,PR,1,100,194997
1574868644.277076,66931.000,11325,3,PR,1,100,194978
1574868644.315088,66963.000,11325,3,PR,1,100,194971
1574868644.353101,66995.000,11325,3,PR,1,100,194961
1574868644.398834,67033.500,11343,2,PR,1,100,194958
1574868644.444568,67072.000,11343,2,PR,1,100,194945
1574868644.482580,67104.000,11361,4,PR,1,100,194907
1574868644.520593,67136.000,11361,4,PR,1,100,194911
1574868644.558605,67168.000,11361,4,PR,1,100,194935
1574868644.596618,67200.000,11361,4,PR,1,100,194975
1574868644.637006,67234.000,11379,3,PR,1,100,194985
1574868644.677394,67268.000,11379,3,PR,1,100,194964
1574868644.717782,67302.000,11379,3,PR,1,100,194950
1574868644.758765,67336.500,11397,2,PR,1,100,194954
1574868644.799747,67371.000,11397,2,PR,1,100,194958
1574868644.840927,67405.667,11415,3,PR,1,100,194978
1574868644.882107,67440.333,11415,3,PR,1,100,194981
1574868644.923287,67475.000,11415,3,PR,1,100,194976
1574868644.964071,67509.333,11432,3,PR,1,100,194979
1574868645.004855,67543.667,11432,3,PR,1,100,194975
1574868645.045640,67578.000,11432,3,PR,1,100,194952
1574868645.083652,67610.000,11451,4,PR,1,100,194949
1574868645.121664,67642.000,11451,4,PR,1,100,194960
1574868645.159677,67674.000,11451,4,PR,1,100,194960
1574868645.197689,67706.000,11451,4,PR,1,100,194949
1574868645.237186,67739.250,11472,4,PR,1,100,194934
1574868645.276684,67772.500,11472,4,PR,1,100,194903
1574868645.316181,67805.750,11472,4,PR,1,100,194925
1574868645.355678,67839.000,11472,4,PR,1,100,194933
1574868645.396462,67873.333,11492,3,PR,1,100,194941
1574868645.437247,67907.667,11492,3,PR,1,100,194969
1574868645.478031,67942.000,11492,3,PR,1,100,194975
1574868645.519607,67977.000,11510,3,PR,1,100,194979
1574868645.561183,68012.000,11510,3,PR,1,100,195009
1574868645.602759,68047.000,11510,3,PR,1,100,194993
1574868645.641563,68079.667,11527,3,PR,1,100,195009
1574868645.680367,68112.333,11527,3,PR,1,100,194996
1574868645.719172,68145.000,11527,3,PR,1,100,195000
1574868645.756788,68176.667,11545,3,PR,1,100,194967
1574868645.794405,68208.333,11545,3,PR,1,100,194950
1574868645.832021,68240.000,11545,3,PR,1,100,194963
1574868645.872409,68274.000,11563,3,PR,1,100,194964
1574868645.912798,68308.000,11563,3,PR,1,100,194951
1574868645.953186,68342.000,11563,3,PR,1,100,194948
1574868645.994762,68377.000,11581,3,PR,1,100,194950
1574868646.036338,68412.000,11581,3,PR,1,100,194963
1574868646.077914,68447.000,11581,3,PR,1,100,194961
1574868646.119490,68482.000,11598,3,PR,1,100,194958
1574868646.161066,68517.000,11598,3,PR,1,100,194955
1574868646.202642,68552.000,11598,3,PR,1,100,194941
1574868646.242239,68585.333,11616,3,PR,1,100,194957
1574868646.281835,68618.667,11616,3,PR,1,100,194951
1574868646.321431,68652.000,11616,3,PR,1,100,194941
1574868646.358652,68683.333,11634,3,PR,1,100,194919
1574868646.395872,68714.667,11634,3,PR,1,100,194915
1574868646.433093,68746.000,11634,3,PR,1,100,194931
1574868646.473085,68779.667,11652,3,PR,1,100,194980
1574868646.513077,68813.333,11652,3,PR,1,100,195017
1574868646.553069,68847.000,11652,3,PR,1,100,195001
1574868646.595437,68882.667,11670,3,PR,1,100,195012
1574868646.637805,68918.333,11670,3,PR,1,100,195080
1574868646.680173,68954.000,11670,3,PR,1,100,195036
1574868646.720958,68988.333,11688,3,PR,1,100,194985
1574868646.761742,69022.667,11688,3,PR,1,100,194935
1574868646.802526,69057.000,11688,3,PR,1,100,194935
1574868646.842518,69090.667,11705,3,PR,1,100,194958
1574868646.882510,69124.333,11705,3,PR,1,100,195012
1574868646.922503,69158.000,11705,3,PR,1,100,195075
1574868646.959327,69189.000,11723,3,PR,1,100,195068
1574868646.996151,69220.000,11723,3,PR,1,100,195048
1574868647.032976,69251.000,11723,3,PR,1,100,195083
1574868647.073364,69285.000,11742,3,PR,1,100,195055
1574868647.113752,69319.000,11742,3,PR,1,100,195027
1574868647.154140,69353.000,11742,3,PR,1,100,195017
1574868647.194529,69387.000,11760,3,PR,1,100,195006
1574868647.234917,69421.000,11760,3,PR,1,100,194991
1574868647.275305,69455.000,11760,3,PR,1,100,194991
1574868647.316485,69489.667,11776,3,PR,1,100,194997
1574868647.357665,69524.333,11776,3,PR,1,100,194976
1574868647.398845,69559.000,11776,3,PR,1,100,194966
1574868647.439630,69593.333,11794,3,PR,1,100,194975
1574868647.480414,69627.667,11794,3,PR,1,100,194989
1574868647.521198,69662.000,11794,3,PR,1,100,195007
1574868647.562378,69696.667,11812,3,PR,1,100,195021
1574868647.603558,69731.333,11812,3,PR,1,100,195030
1574868647.644738,69766.000,11812,3,PR,1,100,195012
1574868647.681167,69796.667,11830,3,PR,1,100,194989
1574868647.717595,69827.333,11830,3,PR,1,100,195001
1574868647.754024,69858.000,11830,3,PR,1,100,194996
1574868647.792036,69890.000,11848,3,PR,1,100,195055
1574868647.830049,69922.000,11848,3,PR,1,100,195092
1574868647.868061,69954.000,11848,3,PR,1,100,195041
1574868647.907262,69987.000,11866,4,PR,1,100,195013
1574868647.946462,70020.000,11866,4,PR,1,100,194990
1574868647.985662,70053.000,11866,4,PR,1,100,194959
1574868648.024863,70086.000,11866,4,PR,1,100,194947
1574868648.067033,70121.500,11885,2,PR,1,100,194948
1574868648.109202,70157.000,11885,2,PR,1,100,194947
1574868648.149987,70191.333,11903,3,PR,1,100,194948
1574868648.190771,70225.667,11903,3,PR,1,100,194947
1574868648.231555,70260.000,11903,3,PR,1,100,194948
1574868648.272339,70294.333,11920,3,PR,1,100,194950
1574868648.313123,70328.667,11920,3,PR,1,100,194963
1574868648.353907,70363.000,11920,3,PR,1,100,194964
1574868648.392316,70395.333,11938,3,PR,1,100,194980
1574868648.430724,70427.667,11938,3,PR,1,100,194992
1574868648.469132,70460.000,11938,3,PR,1,100,194963
1574868648.508036,70492.750,11954,4,PR,1,100,194962
1574868648.546939,70525.500,11954,4,PR,1,100,194972
1574868648.585843,70558.250,11954,4,PR,1,100,194963
1574868648.624746,70591.000,11954,4,PR,1,100,194954
1574868648.665728,70625.500,11972,2,PR,1,100,194951
1574868648.706710,70660.000,11972,2,PR,1,100,194941
1574868648.747494,70694.333,11990,3,PR,1,100,194938
1574868648.788278,70728.667,11990,3,PR,1,100,194949
1574868648.829063,70763.000,11990,3,PR,1,100,194973
1574868648.870639,70798.000,12008,3,PR,1,100,194977
1574868648.912215,70833.000,12008,3,PR,1,100,194958
1574868648.953791,70868.000,12008,3,PR,1,100,194952
1574868648.991803,70900.000,12026,3,PR,1,100,194947
1574868649.029816,70932.000,12026,3,PR,1,100,194954
1574868649.067828,70964.000,12026,3,PR,1,100,194944
1574868649.106731,70996.750,12045,4,PR,1,100,194944
1574868649.145635,71029.500,12045,4,PR,1,100,194950
1574868649.184538,71062.250,12045,4,PR,1,100,194957
1574868649.223441,71095.000,12045,4,PR,1,100,194964
1574868649.263830,71129.000,12063,3,PR,1,100,194978
1574868649.304218,71163.000,12063,3,PR,1,100,194963
1574868649.344606,71197.000,12063,3,PR,1,100,194953
1574868649.385588,71231.500,12081,2,PR,1,100,194947
1574868649.426570,71266.000,12081,2,PR,1,100,194939
1574868649.468146,71301.000,12098,3,PR,1,100,194926
1574868649.509722,71336.000,12098,3,PR,1,100,194925
1574868649.551298,71371.000,12098,3,PR,1,100,194877
1574868649.589608,71403.250,12116,4,PR,1,100,194807
1574868649.627917,71435.500,12116,4,PR,1,100,194765
1574868649.666227,71467.750,12116,4,PR,1,100,194780
1574868649.704536,71500.000,12116,4,PR,1,100,194789
1574868649.743340,71532.667,12134,3,PR,1,100,194848
1574868649.782145,71565.333,12134,3,PR,1,100,194888
1574868649.820949,71598.000,12134,3,PR,1,100,194894
1574868649.861733,71632.333,12150,3,PR,1,100,194904
1574868649.902517,71666.667,12150,3,PR,1,100,194954
1574868649.943301,71701.000,12150,3,PR,1,100,194952
1574868649.984878,71736.000,12168,2,PR,1,100,194905
1574868650.026454,71771.000,12168,2,PR,1,100,194871
1574868650.068030,71806.000,12187,3,PR,1,100,194847
1574868650.109606,71841.000,12187,3,PR,1,100,194795
1574868650.151182,71876.000,12187,3,PR,1,100,194818
1574868650.190778,71909.333,12205,3,PR,1,100,194877
1574868650.230374,71942.667,12205,3,PR,1,100,194888
1574868650.269971,71976.000,12205,3,PR,1,100,194880
1574868650.308280,72008.250,12223,4,PR,1,100,194910
1574868650.346590,72040.500,12223,4,PR,1,100,194885
1574868650.384899,72072.750,12223,4,PR,1,100,194859
1574868650.423208,72105.000,12223,4,PR,1,100,194837
1574868650.465378,72140.500,12241,2,PR,1,100,194832
1574868650.507548,72176.000,12241,2,PR,1,100,194830
1574868650.548332,72210.333,12259,3,PR,1,100,194846
1574868650.589117,72244.667,12259,3,PR,1,100,194856
1574868650.629901,72279.000,12259,3,PR,1,100,194868
1574868650.671081,72313.667,12276,3,PR,1,100,194873
1574868650.712261,72348.333,12276,3,PR,1,100,194870
1574868650.753441,72383.000,12276,3,PR,1,100,194845
1574868650.792641,72416.000,12294,3,PR,1,100,194809
1574868650.831842,72449.000,12294,3,PR,1,100,194805
1574868650.871042,72482.000,12294,3,PR,1,100,194791
1574868650.908164,72513.250,12310,4,PR,1,100,194797
1574868650.945285,72544.500,12310,4,PR,1,100,194804
1574868650.982407,72575.750,12310,4,PR,1,100,194811
1574868651.019528,72607.000,12310,4,PR,1,100,194797
1574868651.061500,72642.333,12329,3,PR,1,100,194778
1574868651.103472,72677.667,12329,3,PR,1,100,194781
1574868651.145444,72713.000,12329,3,PR,1,100,194802
1574868651.183457,72745.000,12347,3,PR,1,100,194832
1574868651.221469,72777.000,12347,3,PR,1,100,194809
1574868651.259481,72809.000,12347,3,PR,1,100,194819
1574868651.300463,72843.500,12368,4,PR,1,100,194821
1574868651.341446,72878.000,12368,4,PR,1,100,194814
1574868651.382428,72912.500,12368,4,PR,1,100,194826
1574868651.423410,72947.000,12368,4,PR,1,100,194840
1574868651.464986,72982.000,12388,3,PR,1,100,194826
1574868651.506562,73017.000,12388,3,PR,1,100,194797
1574868651.548138,73052.000,12388,3,PR,1,100,194801
1574868651.589714,73087.000,12404,3,PR,1,100,194771
1574868651.631290,73122.000,12404,3,PR,1,100,194769
1574868651.672866,73157.000,12404,3,PR,1,100,194764
1574868651.710483,73188.667,12422,3,PR,1,100,194774
1574868651.748099,73220.333,12422,3,PR,1,100,194769
1574868651.785716,73252.000,12422,3,PR,1,100,194787
1574868651.825312,73285.333,12440,3,PR,1,100,194772
1574868651.864908,73318.667,12440,3,PR,1,100,194753
1574868651.904505,73352.000,12440,3,PR,1,100,194772
1574868651.944101,73385.333,12458,3,PR,1,100,194771
1574868651.983697,73418.667,12458,3,PR,1,100,194791
1574868652.023293,73452.000,12458,3,PR,1,100,194813
1574868652.064869,73487.000,12477,3,PR,1,100,194827
1574868652.106446,73522.000,12477,3,PR,1,100,194810
1574868652.148021,73557.000,12477,3,PR,1,100,194835
1574868652.189202,73591.667,12495,3,PR,1,100,194841
1574868652.230382,73626.333,12495,3,PR,1,100,194840
1574868652.271562,73661.000,12495,3,PR,1,100,194833
1574868652.309574,73693.000,12513,3,PR,1,100,194821
1574868652.347587,73725.000,12513,3,PR,1,100,194786
1574868652.385599,73757.000,12513,3,PR,1,100,194766
1574868652.424008,73789.333,12531,3,PR,1,100,194746
1574868652.462416,73821.667,12531,3,PR,1,100,194759
1574868652.500824,73854.000,12531,3,PR,1,100,194740
1574868652.540025,73887.000,12548,3,PR,1,100,194747
1574868652.579225,73920.000,12548,3,PR,1,100,194755
1574868652.618425,73953.000,12548,3,PR,1,100,194749
1574868652.659605,73987.667,12566,3,PR,1,100,194753
1574868652.700785,74022.333,12566,3,PR,1,100,194742
1574868652.741966,74057.000,12566,3,PR,1,100,194740
1574868652.783146,74091.667,12584,3,PR,1,100,194762
1574868652.824326,74126.333,12584,3,PR,1,100,194753
1574868652.865506,74161.000,12584,3,PR,1,100,194744
1574868652.904310,74193.667,12600,3,PR,1,100,194739
1574868652.943115,74226.333,12600,3,PR,1,100,194717
1574868652.981919,74259.000,12600,3,PR,1,100,194740
1574868653.019931,74291.000,12619,3,PR,1,100,194774
1574868653.057944,74323.000,12619,3,PR,1,100,194805
1574868653.095956,74355.000,12619,3,PR,1,100,194824
1574868653.135552,74388.333,12637,3,PR,1,100,194839
1574868653.175149,74421.667,12637,3,PR,1,100,194795
1574868653.214745,74455.000,12637,3,PR,1,100,194739
1574868653.256321,74490.000,12655,3,PR,1,100,194698
1574868653.297897,74525.000,12655,3,PR,1,100,194672
1574868653.339473,74560.000,12655,3,PR,1,100,194658
1574868653.381049,74595.000,12673,3,PR,1,100,194681
1574868653.422625,74630.000,12673,3,PR,1,100,194702
1574868653.464201,74665.000,12673,3,PR,1,100,194731
1574868653.504194,74698.667,12691,3,PR,1,100,194758
1574868653.544186,74732.333,12691,3,PR,1,100,194765
1574868653.584178,74766.000,12691,3,PR,1,100,194743
1574868653.622586,74798.333,12709,3,PR,1,100,194720
1574868653.660995,74830.667,12709,3,PR,1,100,194727
1574868653.699403,74863.000,12709,3,PR,1,100,194723
1574868653.738604,74896.000,12727,3,PR,1,100,194730
1574868653.777804,74929.000,12727,3,PR,1,100,194739
1574868653.817004,74962.000,12727,3,PR,1,100,194748
1574868653.859372,74997.667,12744,3,PR,1,100,194747
1574868653.901740,75033.333,12744,3,PR,1,100,194759
1574868653.944108,75069.000,12744,3,PR,1,100,194769
1574868653.985288,75103.667,12762,3,PR,1,100,194763
1574868654.026469,75138.333,12762,3,PR,1,100,194741
1574868654.067648,75173.000,12762,3,PR,1,100,194724
1574868654.106849,75206.000,12779,3,PR,1,100,194707
1574868654.146049,75239.000,12779,3,PR,1,100,194699
1574868654.185249,75272.000,12779,3,PR,1,100,194676
1574868654.223262,75304.000,12797,3,PR,1,100,194664
1574868654.261274,75336.000,12797,3,PR,1,100,194658
1574868654.299287,75368.000,12797,3,PR,1,100,194671
1574868654.338091,75400.667,12815,3,PR,1,100,194681
1574868654.376895,75433.333,12815,3,PR,1,100,194689
1574868654.415700,75466.000,12815,3,PR,1,100,194709
1574868654.457276,75501.000,12833,3,PR,1,100,194728
1574868654.498852,75536.000,12833,3,PR,1,100,194737
1574868654.540428,75571.000,12833,3,PR,1,100,194729
1574868654.581212,75605.333,12851,3,PR,1,100,194721
1574868654.621996,75639.667,12851,3,PR,1,100,194732
1574868654.662780,75674.000,12851,3,PR,1,100,194731
1574868654.707128,75711.333,12869,3,PR,1,100,194730
1574868654.751476,75748.667,12869,3,PR,1,100,194739
1574868654.795824,75786.000,12869,3,PR,1,100,194749
1574868654.833836,75818.000,12887,3,PR,1,100,194751
1574868654.871849,75850.000,12887,3,PR,1,100,194736
1574868654.909861,75882.000,12887,3,PR,1,100,194703
1574868654.946290,75912.667,12904,3,PR,1,100,194683
1574868654.982718,75943.333,12904,3,PR,1,100,194677
1574868655.019147,75974.000,12904,3,PR,1,100,194654
1574868655.057159,76006.000,12923,4,PR,1,100,194648
1574868655.095172,76038.000,12923,4,PR,1,100,194668
1574868655.133184,76070.000,12923,4,PR,1,100,194684
1574868655.171196,76102.000,12923,4,PR,1,100,194682
1574868655.211585,76136.000,12941,3,PR,1,100,194707
1574868655.251973,76170.000,12941,3,PR,1,100,194721
1574868655.292361,76204.000,12941,3,PR,1,100,194759
1574868655.333145,76238.333,12957,3,PR,1,100,194794
1574868655.373929,76272.667,12957,3,PR,1,100,194801
1574868655.414713,76307.000,12957,3,PR,1,100,194784
1574868655.456290,76342.000,12975,2,PR,1,100,194736
1574868655.497866,76377.000,12975,2,PR,1,100,194691
1574868655.539442,76412.000,12993,3,PR,1,100,194692
1574868655.581018,76447.000,12993,3,PR,1,100,194712
1574868655.622594,76482.000,12993,3,PR,1,100,194686
1574868655.660309,76513.750,13011,4,PR,1,100,194651
1574868655.698025,76545.500,13011,4,PR,1,100,194611
1574868655.735740,76577.250,13011,4,PR,1,100,194597
1574868655.773456,76609.000,13011,4,PR,1,100,194552
1574868655.813448,76642.667,13029,3,PR,1,100,194538
1574868655.853440,76676.333,13029,3,PR,1,100,194581
1574868655.893432,76710.000,13029,3,PR,1,100,194560
1574868655.933820,76744.000,13047,3,PR,1,100,194603
1574868655.974209,76778.000,13047,3,PR,1,100,194631
1574868656.014597,76812.000,13047,3,PR,1,100,194671
1574868656.056173,76847.000,13066,2,PR,1,100,194695
1574868656.097749,76882.000,13066,2,PR,1,100,194696
1574868656.139721,76917.333,13084,3,PR,1,100,194719
1574868656.181693,76952.667,13084,3,PR,1,100,194746
1574868656.223665,76988.000,13084,3,PR,1,100,194732
1574868656.261084,77019.500,13101,4,PR,1,100,194701
1574868656.298502,77051.000,13101,4,PR,1,100,194657
1574868656.335921,77082.500,13101,4,PR,1,100,194639
1574868656.373339,77114.000,13101,4,PR,1,100,194646
1574868656.412539,77147.000,13119,3,PR,1,100,194700
1574868656.451740,77180.000,13119,3,PR,1,100,194722
1574868656.490940,77213.000,13119,3,PR,1,100,194725
1574868656.530932,77246.667,13137,3,PR,1,100,194717
1574868656.570925,77280.333,13137,3,PR,1,100,194673
1574868656.610917,77314.000,13137,3,PR,1,100,194671
1574868656.651701,77348.333,13153,3,PR,1,100,194640
1574868656.692485,77382.667,13153,3,PR,1,100,194636
1574868656.733269,77417.000,13153,3,PR,1,100,194639
1574868656.774845,77452.000,13171,2,PR,1,100,194644
1574868656.816421,77487.000,13171,2,PR,1,100,194642
1574868656.855028,77519.500,13189,4,PR,1,100,194634
1574868656.893634,77552.000,13189,4,PR,1,100,194626
1574868656.932240,77584.500,13189,4,PR,1,100,194634
1574868656.970847,77617.000,13189,4,PR,1,100,194644
1574868657.010047,77650.000,13207,3,PR,1,100,194652
1574868657.049247,77683.000,13207,3,PR,1,100,194667
1574868657.088448,77716.000,13207,3,PR,1,100,194701
1574868657.133587,77754.000,13226,2,PR,1,100,194709
1574868657.178727,77792.000,13226,2,PR,1,100,194705
1574868657.220303,77827.000,13244,3,PR,1,100,194703
1574868657.261879,77862.000,13244,3,PR,1,100,194680
1574868657.303455,77897.000,13244,3,PR,1,100,194703
1574868657.344081,77931.200,13265,5,PR,1,100,194710
1574868657.384707,77965.400,13265,5,PR,1,100,194686
1574868657.425333,77999.600,13265,5,PR,1,100,194676
1574868657.465958,78033.800,13265,5,PR,1,100,194671
1574868657.506584,78068.000,13265,5,PR,1,100,194663
1574868657.543013,78098.667,13285,3,PR,1,100,194636
1574868657.579441,78129.333,13285,3,PR,1,100,194603
1574868657.615870,78160.000,13285,3,PR,1,100,194618
1574868657.653090,78191.333,13303,3,PR,1,100,194632
1574868657.690311,78222.667,13303,3,PR,1,100,194666
1574868657.727531,78254.000,13303,3,PR,1,100,194626
1574868657.767920,78288.000,13321,3,PR,1,100,194623
1574868657.808308,78322.000,13321,3,PR,1,100,194626
1574868657.848696,78356.000,13321,3,PR,1,100,194652
1574868657.889876,78390.667,13339,3,PR,1,100,194681
1574868657.931056,78425.333,13339,3,PR,1,100,194720
1574868657.972236,78460.000,13339,3,PR,1,100,194696
1574868658.013021,78494.333,13358,3,PR,1,100,194683
1574868658.053805,78528.667,13358,3,PR,1,100,194713
1574868658.094589,78563.000,13358,3,PR,1,100,194719
1574868658.131413,78594.000,13375,3,PR,1,100,194701
1574868658.168238,78625.000,13375,3,PR,1,100,194696
1574868658.205062,78656.000,13375,3,PR,1,100,194636
1574868658.244658,78689.333,13393,3,PR,1,100,194662
1574868658.284255,78722.667,13393,3,PR,1,100,194649
1574868658.323851,78756.000,13393,3,PR,1,100,194647
1574868658.368199,78793.333,13411,3,PR,1,100,194673
1574868658.412547,78830.667,13411,3,PR,1,100,194707
1574868658.456895,78868.000,13411,3,PR,1,100,194687
1574868658.494907,78900.000,13427,3,PR,1,100,194693
1574868658.532919,78932.000,13427,3,PR,1,100,194745
1574868658.570932,78964.000,13427,3,PR,1,100,194719
1574868658.612508,78999.000,13445,3,PR,1,100,194699
1574868658.654084,79034.000,13445,3,PR,1,100,194668
1574868658.695660,79069.000,13445,3,PR,1,100,194651
1574868658.736444,79103.333,13463,3,PR,1,100,194646
1574868658.777228,79137.667,13463,3,PR,1,100,194634
1574868658.818012,79172.000,13463,3,PR,1,100,194660
1574868658.859589,79207.000,13481,3,PR,1,100,194655
1574868658.901165,79242.000,13481,3,PR,1,100,194613
1574868658.942741,79277.000,13481,3,PR,1,100,194586
1574868658.980753,79309.000,13499,3,PR,1,100,194600
1574868659.018765,79341.000,13499,3,PR,1,100,194585
1574868659.056778,79373.000,13499,3,PR,1,100,194577
1574868659.095186,79405.333,13518,3,PR,1,100,194557
1574868659.133595,79437.667,13518,3,PR,1,100,194589
1574868659.172003,79470.000,13518,3,PR,1,100,194623
1574868659.212787,79504.333,13536,3,PR,1,100,194619
1574868659.253572,79538.667,13536,3,PR,1,100,194621
1574868659.294356,79573.000,13536,3,PR,1,100,194642
1574868659.335140,79607.333,13553,3,PR,1,100,194627
1574868659.375924,79641.667,13553,3,PR,1,100,194589
1574868659.416708,79676.000,13553,3,PR,1,100,194576
1574868659.458284,79711.000,13571,3,PR,1,100,194591
1574868659.499860,79746.000,13571,3,PR,1,100,194559
1574868659.541436,79781.000,13571,3,PR,1,100,194611
1574868659.579449,79813.000,13587,3,PR,1,100,194618
1574868659.617461,79845.000,13587,3,PR,1,100,194610
1574868659.655473,79877.000,13587,3,PR,1,100,194604
1574868659.694278,79909.667,13605,3,PR,1,100,194596
1574868659.733082,79942.333,13605,3,PR,1,100,194563
1574868659.771887,79975.000,13605,3,PR,1,100,194535
1574868659.811879,80008.667,13623,3,PR,1,100,194539
1574868659.851871,80042.333,13623,3,PR,1,100,194537
1574868659.891863,80076.000,13623,3,PR,1,100,194539
1574868659.932251,80110.000,13641,3,PR,1,100,194543
1574868659.972640,80144.000,13641,3,PR,1,100,194564
1574868660.013028,80178.000,13641,3,PR,1,100,194547
1574868660.054604,80213.000,13660,3,PR,1,100,194571
1574868660.096180,80248.000,13660,3,PR,1,100,194569
1574868660.137756,80283.000,13660,3,PR,1,100,194572
1574868660.180520,80319.000,13678,3,PR,1,100,194574
1574868660.223284,80355.000,13678,3,PR,1,100,194596
1574868660.266048,80391.000,13678,3,PR,1,100,194590
1574868660.304060,80423.000,13696,3,PR,1,100,194525
1574868660.342073,80455.000,13696,3,PR,1,100,194504
1574868660.380085,80487.000,13696,3,PR,1,100,194495
1574868660.420869,80521.333,13714,3,PR,1,100,194469
1574868660.461653,80555.667,13714,3,PR,1,100,194462
1574868660.502438,80590.000,13714,3,PR,1,100,194465
1574868660.543618,80624.667,13731,3,PR,1,100,194485
1574868660.584798,80659.333,13731,3,PR,1,100,194485
1574868660.625978,80694.000,13731,3,PR,1,100,194520
1574868660.667158,80728.667,13749,3,PR,1,100,194518
1574868660.708338,80763.333,13749,3,PR,1,100,194520
1574868660.749518,80798.000,13749,3,PR,1,100,194522
1574868660.789115,80831.333,13765,3,PR,1,100,194501
1574868660.828711,80864.667,13765,3,PR,1,100,194523
1574868660.868307,80898.000,13765,3,PR,1,100,194508
1574868660.905924,80929.667,13783,3,PR,1,100,194516
1574868660.943540,80961.333,13783,3,PR,1,100,194527
1574868660.981157,80993.000,13783,3,PR,1,100,194540
1574868661.021149,81026.667,13802,3,PR,1,100,194538
1574868661.061141,81060.333,13802,3,PR,1,100,194520
1574868661.101133,81094.000,13802,3,PR,1,100,194492
1574868661.141917,81128.333,13820,3,PR,1,100,194476
1574868661.182702,81162.667,13820,3,PR,1,100,194451
1574868661.223486,81197.000,13820,3,PR,1,100,194453
1574868661.261894,81229.333,13838,3,PR,1,100,194449
1574868661.300303,81261.667,13838,3,PR,1,100,194459
1574868661.338711,81294.000,13838,3,PR,1,100,194454
1574868661.378703,81327.667,13856,3,PR,1,100,194449
1574868661.418695,81361.333,13856,3,PR,1,100,194431
1574868661.458688,81395.000,13856,3,PR,1,100,194434
1574868661.495116,81425.667,13874,3,PR,1,100,194404
1574868661.531545,81456.333,13874,3,PR,1,100,194445
1574868661.567973,81487.000,13874,3,PR,1,100,194501
1574868661.607965,81520.667,13892,3,PR,1,100,194513
1574868661.647958,81554.333,13892,3,PR,1,100,194526
1574868661.687950,81588.000,13892,3,PR,1,100,194554
1574868661.728734,81622.333,13909,3,PR,1,100,194534
1574868661.769518,81656.667,13909,3,PR,1,100,194511
1574868661.810302,81691.000,13909,3,PR,1,100,194474
1574868661.851482,81725.667,13927,3,PR,1,100,194450
1574868661.892663,81760.333,13927,3,PR,1,100,194421
1574868661.933843,81795.000,13927,3,PR,1,100,194463
1574868661.978190,81832.333,13943,3,PR,1,100,194471
1574868662.022538,81869.667,13943,3,PR,1,100,194469
1574868662.066886,81907.000,13943,3,PR,1,100,194505
1574868662.103711,81938.000,13962,3,PR,1,100,194478
1574868662.140535,81969.000,13962,3,PR,1,100,194450
1574868662.177360,82000.000,13962,3,PR,1,100,194407
1574868662.217352,82033.667,13980,3,PR,1,100,194408
1574868662.257344,82067.333,13980,3,PR,1,100,194411
1574868662.297336,82101.000,13980,3,PR,1,100,194407
1574868662.334953,82132.667,13998,3,PR,1,100,194468
1574868662.372569,82164.333,13998,3,PR,1,100,194488
1574868662.410186,82196.000,13998,3,PR,1,100,194496
1574868662.450178,82229.667,14016,3,PR,1,100,194506
1574868662.490170,82263.333,14016,3,PR,1,100,194525
1574868662.530162,82297.000,14016,3,PR,1,100,194499
1574868662.570155,82330.667,14034,3,PR,1,100,194496
1574868662.610147,82364.333,14034,3,PR,1,100,194472
1574868662.650139,82398.000,14034,3,PR,1,100,194460
1574868662.691715,82433.000,14052,3,PR,1,100,194389
1574868662.733291,82468.000,14052,3,PR,1,100,194449
1574868662.774867,82503.000,14052,3,PR,1,100,194449
1574868662.816443,82538.000,14070,3,PR,1,100,194467
1574868662.858020,82573.000,14070,3,PR,1,100,194463
1574868662.899595,82608.000,14070,3,PR,1,100,194465
1574868662.937212,82639.667,14087,3,PR,1,100,194430
1574868662.974828,82671.333,14087,3,PR,1,100,194422
1574868663.012445,82703.000,14087,3,PR,1,100,194411
1574868663.051645,82736.000,14106,3,PR,1,100,194422
1574868663.090846,82769.000,14106,3,PR,1,100,194430
1574868663.130046,82802.000,14106,3,PR,1,100,194443
1574868663.169642,82835.333,14124,3,PR,1,100,194447
1574868663.209238,82868.667,14124,3,PR,1,100,194472
1574868663.248835,82902.000,14124,3,PR,1,100,194471
1574868663.290015,82936.667,14140,3,PR,1,100,194473
1574868663.331195,82971.333,14140,3,PR,1,100,194470
1574868663.372375,83006.000,14140,3,PR,1,100,194487
1574868663.414901,83041.800,14161,5,PR,1,100,194488
1574868663.457428,83077.600,14161,5,PR,1,100,194471
1574868663.499954,83113.400,14161,5,PR,1,100,194445
1574868663.542480,83149.200,14161,5,PR,1,100,194426
1574868663.585007,83185.000,14161,5,PR,1,100,194440
1574868663.623019,83217.000,14179,3,PR,1,100,194426
1574868663.661032,83249.000,14179,3,PR,1,100,194433
1574868663.699044,83281.000,14179,3,PR,1,100,194421
1574868663.738245,83314.000,14199,3,PR,1,100,194465
1574868663.777445,83347.000,14199,3,PR,1,100,194445
1574868663.816645,83380.000,14199,3,PR,1,100,194473
1574868663.857033,83414.000,14217,3,PR,1,100,194463
1574868663.897421,83448.000,14217,3,PR,1,100,194489
1574868663.937810,83482.000,14217,3,PR,1,100,194522
1574868663.979386,83517.000,14233,3,PR,1,100,194457
1574868664.020962,83552.000,14233,3,PR,1,100,194387
1574868664.062538,83587.000,14233,3,PR,1,100,194276
1574868664.102530,83620.667,14252,3,PR,1,100,194194
1574868664.142522,83654.333,14252,3,PR,1,100,194167
1574868664.182515,83688.000,14252,3,PR,1,100,194171
1574868664.220527,83720.000,14270,3,PR,1,100,194177
1574868664.258539,83752.000,14270,3,PR,1,100,194152
1574868664.296552,83784.000,14270,3,PR,1,100,194068
1574868664.335752,83817.000,14288,3,PR,1,100,193939
1574868664.374952,83850.000,14288,3,PR,1,100,193945
1574868664.414153,83883.000,14288,3,PR,1,100,193995
1574868664.454937,83917.333,14306,3,PR,1,100,194014
1574868664.495721,83951.667,14306,3,PR,1,100,193984
1574868664.536505,83986.000,14306,3,PR,1,100,193953
1574868664.578081,84021.000,14324,3,PR,1,100,193966
1574868664.619657,84056.000,14324,3,PR,1,100,193831
1574868664.661233,84091.000,14324,3,PR,1,100,193874
1574868664.702414,84125.667,14342,3,PR,1,100,193945
1574868664.743594,84160.333,14342,3,PR,1,100,193952
1574868664.784774,84195.000,14342,3,PR,1,100,193939
1574868664.820014,84224.667,14359,3,PR,1,100,193993
1574868664.855255,84254.333,14359,3,PR,1,100,194023
1574868664.890496,84284.000,14359,3,PR,1,100,194007
1574868664.928508,84316.000,14377,3,PR,1,100,193992
1574868664.966521,84348.000,14377,3,PR,1,100,194012
1574868665.004533,84380.000,14377,3,PR,1,100,194012
1574868665.046109,84415.000,14396,3,PR,1,100,194060
1574868665.087685,84450.000,14396,3,PR,1,100,194086
1574868665.129261,84485.000,14396,3,PR,1,100,194087
1574868665.170441,84519.667,14412,3,PR,1,100,194074
1574868665.211622,84554.333,14412,3,PR,1,100,194079
1574868665.252802,84589.000,14412,3,PR,1,100,194097
1574868665.293586,84623.333,14430,3,PR,1,100,194071
1574868665.334370,84657.667,14430,3,PR,1,100,194077
1574868665.375154,84692.000,14430,3,PR,1,100,194080
1574868665.412771,84723.667,14448,3,PR,1,100,194077
1574868665.450387,84755.333,14448,3,PR,1,100,194089
1574868665.488003,84787.000,14448,3,PR,1,100,194106
1574868665.525224,84818.333,14466,3,PR,1,100,194131
1574868665.562444,84849.667,14466,3,PR,1,100,194145
1574868665.599665,84881.000,14466,3,PR,1,100,194149
1574868665.641637,84916.333,14484,3,PR,1,100,194155
1574868665.683609,84951.667,14484,3,PR,1,100,194175
1574868665.725581,84987.000,14484,3,PR,1,100,194188
1574868665.763989,85019.333,14502,3,PR,1,100,194179
1574868665.802398,85051.667,14502,3,PR,1,100,194135
1574868665.840806,85084.000,14502,3,PR,1,100,194150
1574868665.882382,85119.000,14520,3,PR,1,100,194140
1574868665.923958,85154.000,14520,3,PR,1,100,194193
1574868665.965534,85189.000,14520,3,PR,1,100,194200
1574868666.006715,85223.667,14538,3,PR,1,100,194231
1574868666.047895,85258.333,14538,3,PR,1,100,194238
1574868666.089075,85293.000,14538,3,PR,1,100,194218
1574868666.131047,85328.333,14556,3,PR,1,100,194218
1574868666.173019,85363.667,14556,3,PR,1,100,194235
1574868666.214991,85399.000,14556,3,PR,1,100,194232
1574868666.252607,85430.667,14574,3,PR,1,100,194240
1574868666.290224,85462.333,14574,3,PR,1,100,194259
1574868666.327840,85494.000,14574,3,PR,1,100,194279
1574868666.366645,85526.667,14590,3,PR,1,100,194286
1574868666.405449,85559.333,14590,3,PR,1,100,194315
1574868666.444253,85592.000,14590,3,PR,1,100,194321
1574868666.485037,85626.333,14608,3,PR,1,100,194330
1574868666.525821,85660.667,14608,3,PR,1,100,194320
1574868666.566606,85695.000,14608,3,PR,1,100,194312
1574868666.611745,85733.000,14626,3,PR,1,100,194303
1574868666.656885,85771.000,14626,3,PR,1,100,194267
1574868666.702025,85809.000,14626,3,PR,1,100,194289
1574868666.739641,85840.667,14644,3,PR,1,100,194290
1574868666.777258,85872.333,14644,3,PR,1,100,194346
1574868666.814874,85904.000,14644,3,PR,1,100,194376
1574868666.856450,85939.000,14662,3,PR,1,100,194352
1574868666.898026,85974.000,14662,3,PR,1,100,194317
1574868666.939603,86009.000,14662,3,PR,1,100,194329
1574868666.981179,86044.000,14680,3,PR,1,100,194333
1574868667.022755,86079.000,14680,3,PR,1,100,194332
1574868667.064331,86114.000,14680,3,PR,1,100,194352
1574868667.101947,86145.667,14698,3,PR,1,100,194377
1574868667.139564,86177.333,14698,3,PR,1,100,194371
1574868667.177180,86209.000,14698,3,PR,1,100,194380
1574868667.215984,86241.667,14716,3,PR,1,100,194353
1574868667.254789,86274.333,14716,3,PR,1,100,194328
1574868667.293593,86307.000,14716,3,PR,1,100,194330
1574868667.333585,86340.667,14734,3,PR,1,100,194331
1574868667.373578,86374.333,14734,3,PR,1,100,194336
1574868667.413570,86408.000,14734,3,PR,1,100,194342
1574868667.454354,86442.333,14752,3,PR,1,100,194331
1574868667.495138,86476.667,14752,3,PR,1,100,194347
1574868667.535922,86511.000,14752,3,PR,1,100,194329
1574868667.577894,86546.333,14768,3,PR,1,100,194364
1574868667.619866,86581.667,14768,3,PR,1,100,194375
1574868667.661838,86617.000,14768,3,PR,1,100,194400
1574868667.699851,86649.000,14786,3,PR,1,100,194393
1574868667.737863,86681.000,14786,3,PR,1,100,194409
1574868667.775876,86713.000,14786,3,PR,1,100,194422
1574868667.813888,86745.000,14804,3,PR,1,100,194431
1574868667.851901,86777.000,14804,3,PR,1,100,194403
1574868667.889913,86809.000,14804,3,PR,1,100,194376
1574868667.929509,86842.333,14822,3,PR,1,100,194382
1574868667.969105,86875.667,14822,3,PR,1,100,194362
1574868668.008702,86909.000,14822,3,PR,1,100,194366
1574868668.050278,86944.000,14841,3,PR,1,100,194379
1574868668.091854,86979.000,14841,3,PR,1,100,194377
1574868668.133430,87014.000,14841,3,PR,1,100,194383
1574868668.175006,87049.000,14859,3,PR,1,100,194402
1574868668.216582,87084.000,14859,3,PR,1,100,194391
1574868668.258158,87119.000,14859,3,PR,1,100,194402
1574868668.296962,87151.667,14877,3,PR,1,100,194422
1574868668.335767,87184.333,14877,3,PR,1,100,194426
1574868668.374571,87217.000,14877,3,PR,1,100,194424
1574868668.412980,87249.333,14894,3,PR,1,100,194423
1574868668.451388,87281.667,14894,3,PR,1,100,194428
1574868668.489796,87314.000,14894,3,PR,1,100,194383
1574868668.529392,87347.333,14912,3,PR,1,100,194351
1574868668.568989,87380.667,14912,3,PR,1,100,194353
1574868668.608585,87414.000,14912,3,PR,1,100,194327
1574868668.651349,87450.000,14930,3,PR,1,100,194365
1574868668.694113,87486.000,14930,3,PR,1,100,194388
1574868668.736877,87522.000,14930,3,PR,1,100,194388
1574868668.778057,87556.667,14946,3,PR,1,100,194402
1574868668.819237,87591.333,14946,3,PR,1,100,194408
1574868668.860417,87626.000,14946,3,PR,1,100,194376
1574868668.898826,87658.333,14964,3,PR,1,100,194360
1574868668.937234,87690.667,14964,3,PR,1,100,194346
1574868668.975642,87723.000,14964,3,PR,1,100,194358
1574868669.014051,87755.333,14983,3,PR,1,100,194374
1574868669.052459,87787.667,14983,3,PR,1,100,194403
1574868669.090868,87820.000,14983,3,PR,1,100,194421
1574868669.130068,87853.000,15001,3,PR,1,100,194447
1574868669.169268,87886.000,15001,3,PR,1,100,194406
1574868669.208468,87919.000,15001,3,PR,1,100,194369
1574868669.250045,87954.000,15019,3,PR,1,100,194317
1574868669.291621,87989.000,15019,3,PR,1,100,194312
1574868669.333197,88024.000,15019,3,PR,1,100,194313
1574868669.374377,88058.667,15037,3,PR,1,100,194317
1574868669.415557,88093.333,15037,3,PR,1,100,194325
1574868669.456737,88128.000,15037,3,PR,1,100,194336
1574868669.495462,88160.600,15058,5,PR,1,100,194328
1574868669.534187,88193.200,15058,5,PR,1,100,194327
1574868669.572912,88225.800,15058,5,PR,1,100,194339
1574868669.611638,88258.400,15058,5,PR,1,100,194340
1574868669.650363,88291.000,15058,5,PR,1,100,194350
1574868669.693721,88327.500,15076,2,PR,1,100,194358
1574868669.737079,88364.000,15076,2,PR,1,100,194366
1574868669.778259,88398.667,15096,3,PR,1,100,194356
1574868669.819439,88433.333,15096,3,PR,1,100,194331
1574868669.860619,88468.000,15096,3,PR,1,100,194293
1574868669.898335,88499.750,15114,4,PR,1,100,194288
1574868669.936050,88531.500,15114,4,PR,1,100,194300
1574868669.973765,88563.250,15114,4,PR,1,100,194316
1574868670.011481,88595.000,15114,4,PR,1,100,194320
1574868670.052265,88629.333,15133,3,PR,1,100,194317
1574868670.093049,88663.667,15133,3,PR,1,100,194304
1574868670.133833,88698.000,15133,3,PR,1,100,194311
1574868670.174618,88732.333,15151,3,PR,1,100,194326
1574868670.215402,88766.667,15151,3,PR,1,100,194325
1574868670.256186,88801.000,15151,3,PR,1,100,194315
1574868670.297762,88836.000,15168,2,PR,1,100,194322
1574868670.339338,88871.000,15168,2,PR,1,100,194319
1574868670.378538,88904.000,15186,4,PR,1,100,194347
1574868670.417738,88937.000,15186,4,PR,1,100,194330
1574868670.456939,88970.000,15186,4,PR,1,100,194322
1574868670.496139,89003.000,15186,4,PR,1,100,194317
1574868670.534152,89035.000,15204,3,PR,1,100,194296
1574868670.572164,89067.000,15204,3,PR,1,100,194285
1574868670.610176,89099.000,15204,3,PR,1,100,194285
1574868670.650960,89133.333,15220,3,PR,1,100,194264
1574868670.691745,89167.667,15220,3,PR,1,100,194277
1574868670.732529,89202.000,15220,3,PR,1,100,194294
1574868670.773313,89236.333,15238,3,PR,1,100,194299
1574868670.814097,89270.667,15238,3,PR,1,100,194302
1574868670.854881,89305.000,15238,3,PR,1,100,194324
1574868670.895863,89339.500,15256,2,PR,1,100,194315
1574868670.936846,89374.000,15256,2,PR,1,100,194323
1574868670.976343,89407.250,15274,4,PR,1,100,194319
1574868671.015840,89440.500,15274,4,PR,1,100,194334
1574868671.055337,89473.750,15274,4,PR,1,100,194323
1574868671.094835,89507.000,15274,4,PR,1,100,194311
1574868671.132847,89539.000,15293,3,PR,1,100,194278
1574868671.170860,89571.000,15293,3,PR,1,100,194272
1574868671.208872,89603.000,15293,3,PR,1,100,194280
1574868671.248864,89636.667,15311,3,PR,1,100,194274
1574868671.288856,89670.333,15311,3,PR,1,100,194262
1574868671.328849,89704.000,15311,3,PR,1,100,194268
1574868671.369633,89738.333,15329,3,PR,1,100,194284
1574868671.410417,89772.667,15329,3,PR,1,100,194286
1574868671.451201,89807.000,15329,3,PR,1,100,194284
1574868671.492777,89842.000,15346,3,PR,1,100,194281
1574868671.534353,89877.000,15346,3,PR,1,100,194282
1574868671.575929,89912.000,15346,3,PR,1,100,194303
1574868671.615129,89945.000,15364,3,PR,1,100,194294
1574868671.654330,89978.000,15364,3,PR,1,100,194296
1574868671.693530,90011.000,15364,3,PR,1,100,194274
1574868671.731147,90042.667,15382,3,PR,1,100,194241
1574868671.768763,90074.333,15382,3,PR,1,100,194254
1574868671.806380,90106.000,15382,3,PR,1,100,194251
1574868671.846372,90139.667,15398,3,PR,1,100,194294
1574868671.886364,90173.333,15398,3,PR,1,100,194309
1574868671.926356,90207.000,15398,3,PR,1,100,194333
1574868671.967536,90241.667,15416,3,PR,1,100,194333
1574868672.008716,90276.333,15416,3,PR,1,100,194298
1574868672.049896,90311.000,15416,3,PR,1,100,194282
1574868672.091077,90345.667,15435,3,PR,1,100,194272
1574868672.132257,90380.333,15435,3,PR,1,100,194249
1574868672.173437,90415.000,15435,3,PR,1,100,194285
1574868672.213825,90449.000,15453,3,PR,1,100,194337
1574868672.254213,90483.000,15453,3,PR,1,100,194371
1574868672.294601,90517.000,15453,3,PR,1,100,194392
1574868672.331822,90548.333,15471,3,PR,1,100,194399
1574868672.369042,90579.667,15471,3,PR,1,100,194366
1574868672.406263,90611.000,15471,3,PR,1,100,194314
1574868672.447839,90646.000,15489,3,PR,1,100,194297
1574868672.489415,90681.000,15489,3,PR,1,100,194302
1574868672.530991,90716.000,15489,3,PR,1,100,194294
1574868672.571775,90750.333,15507,3,PR,1,100,194284
1574868672.612560,90784.667,15507,3,PR,1,100,194287
1574868672.653344,90819.000,15507,3,PR,1,100,194309
1574868672.694128,90853.333,15524,3,PR,1,100,194308
1574868672.734912,90887.667,15524,3,PR,1,100,194307
1574868672.775696,90922.000,15524,3,PR,1,100,194317
1574868672.817272,90957.000,15542,2,PR,1,100,194325
1574868672.858848,90992.000,15542,2,PR,1,100,194324
1574868672.895673,91023.000,15559,4,PR,1,100,194343
1574868672.932497,91054.000,15559,4,PR,1,100,194340
1574868672.969322,91085.000,15559,4,PR,1,100,194320
1574868673.006146,91116.000,15559,4,PR,1,100,194286
1574868673.046139,91149.667,15577,3,PR,1,100,194256
1574868673.086131,91183.333,15577,3,PR,1,100,194267
1574868673.126123,91217.000,15577,3,PR,1,100,194279
1574868673.171857,91255.500,15595,2,PR,1,100,194282
1574868673.217590,91294.000,15595,2,PR,1,100,194291
1574868673.256494,91326.750,15613,4,PR,1,100,194298
1574868673.295397,91359.500,15613,4,PR,1,100,194283
1574868673.334301,91392.250,15613,4,PR,1,100,194293
1574868673.373204,91425.000,15613,4,PR,1,100,194275
1574868673.414186,91459.500,15631,2,PR,1,100,194282
1574868673.455168,91494.000,15631,2,PR,1,100,194281
1574868673.496348,91528.667,15649,3,PR,1,100,194280
1574868673.537528,91563.333,15649,3,PR,1,100,194269
1574868673.578708,91598.000,15649,3,PR,1,100,194259
1574868673.620680,91633.333,15667,3,PR,1,100,194229
1574868673.662652,91668.667,15667,3,PR,1,100,194223
1574868673.704624,91704.000,15667,3,PR,1,100,194241
1574868673.742340,91735.750,15685,4,PR,1,100,194223
1574868673.780055,91767.500,15685,4,PR,1,100,194198
1574868673.817771,91799.250,15685,4,PR,1,100,194195
1574868673.855486,91831.000,15685,4,PR,1,100,194183
1574868673.894686,91864.000,15702,3,PR,1,100,194209
1574868673.933887,91897.000,15702,3,PR,1,100,194221
1574868673.973087,91930.000,15702,3,PR,1,100,194230
1574868674.013871,91964.333,15720,3,PR,1,100,194244
1574868674.054656,91998.667,15720,3,PR,1,100,194248
1574868674.095440,92033.000,15720,3,PR,1,100,194264
1574868674.135828,92067.000,15737,2,PR,1,100,194284
1574868674.176216,92101.000,15737,2,PR,1,100,194268
1574868674.218188,92136.333,15755,3,PR,1,100,194246
1574868674.260160,92171.667,15755,3,PR,1,100,194189
1574868674.302132,92207.000,15755,3,PR,1,100,194213
1574868674.340441,92239.250,15773,4,PR,1,100,194199
1574868674.378751,92271.500,15773,4,PR,1,100,194189
1574868674.417060,92303.750,15773,4,PR,1,100,194187
1574868674.455370,92336.000,15773,4,PR,1,100,194216
1574868674.494174,92368.667,15791,3,PR,1,100,194195
1574868674.532978,92401.333,15791,3,PR,1,100,194191
1574868674.571783,92434.000,15791,3,PR,1,100,194195
1574868674.612171,92468.000,15809,3,PR,1,100,194200
1574868674.652559,92502.000,15809,3,PR,1,100,194207
1574868674.692947,92536.000,15809,3,PR,1,100,194210
1574868674.733732,92570.333,15827,3,PR,1,100,194227
1574868674.774516,92604.667,15827,3,PR,1,100,194230
1574868674.815300,92639.000,15827,3,PR,1,100,194173
1574868674.856876,92674.000,15845,2,PR,1,100,194149
1574868674.898452,92709.000,15845,2,PR,1,100,194128
1574868674.937355,92741.750,15863,4,PR,1,100,194094
1574868674.976259,92774.500,15863,4,PR,1,100,194113
1574868675.015162,92807.250,15863,4,PR,1,100,194100
1574868675.054065,92840.000,15863,4,PR,1,100,194161
1574868675.092474,92872.333,15881,3,PR,1,100,194215
1574868675.130882,92904.667,15881,3,PR,1,100,194225
1574868675.169290,92937.000,15881,3,PR,1,100,194166
1574868675.210074,92971.333,15899,3,PR,1,100,194128
1574868675.250859,93005.667,15899,3,PR,1,100,194117
1574868675.291643,93040.000,15899,3,PR,1,100,194091
1574868675.332427,93074.333,15917,3,PR,1,100,194116
1574868675.373211,93108.667,15917,3,PR,1,100,194186
1574868675.413995,93143.000,15917,3,PR,1,100,194230
1574868675.455571,93178.000,15933,2,PR,1,100,194235
1574868675.497147,93213.000,15933,2,PR,1,100,194270
1574868675.536585,93246.200,15954,5,PR,1,100,194216
1574868675.576023,93279.400,15954,5,PR,1,100,194146
1574868675.615461,93312.600,15954,5,PR,1,100,194118
1574868675.654899,93345.800,15954,5,PR,1,100,194111
1574868675.694337,93379.000,15954,5,PR,1,100,194090
1574868675.732745,93411.333,15972,3,PR,1,100,194076
1574868675.771154,93443.667,15972,3,PR,1,100,194099
1574868675.809562,93476.000,15972,3,PR,1,100,194091
1574868675.849950,93510.000,15991,3,PR,1,100,194096
1574868675.890338,93544.000,15991,3,PR,1,100,194104
1574868675.930727,93578.000,15991,3,PR,1,100,194135
1574868675.973490,93614.000,16009,3,PR,1,100,194159
1574868676.016254,93650.000,16009,3,PR,1,100,194154
1574868676.059018,93686.000,16009,3,PR,1,100,194170
1574868676.099802,93720.333,16026,3,PR,1,100,194185
1574868676.140587,93754.667,16026,3,PR,1,100,194188
1574868676.181371,93789.000,16026,3,PR,1,100,194197
1574868676.219383,93821.000,16044,3,PR,1,100,194199
1574868676.257396,93853.000,16044,3,PR,1,100,194164
1574868676.295408,93885.000,16044,3,PR,1,100,194130
1574868676.332629,93916.333,16062,3,PR,1,100,194110
1574868676.369849,93947.667,16062,3,PR,1,100,194109
1574868676.407070,93979.000,16062,3,PR,1,100,194114
1574868676.448646,94014.000,16080,3,PR,1,100,194115
1574868676.490222,94049.000,16080,3,PR,1,100,194097
1574868676.531798,94084.000,16080,3,PR,1,100,194100
1574868676.572978,94118.667,16098,3,PR,1,100,194096
1574868676.614158,94153.333,16098,3,PR,1,100,194105
1574868676.655338,94188.000,16098,3,PR,1,100,194085
1574868676.696122,94222.333,16116,3,PR,1,100,194114
1574868676.736907,94256.667,16116,3,PR,1,100,194109
1574868676.777691,94291.000,16116,3,PR,1,100,194116
1574868676.820455,94327.000,16134,3,PR,1,100,194142
1574868676.863219,94363.000,16134,3,PR,1,100,194159
1574868676.905982,94399.000,16134,3,PR,1,100,194160
1574868676.944391,94431.333,16151,3,PR,1,100,194171
1574868676.982799,94463.667,16151,3,PR,1,100,194191
1574868677.021208,94496.000,16151,3,PR,1,100,194162
1574868677.058428,94527.333,16170,3,PR,1,100,194118
1574868677.095649,94558.667,16170,3,PR,1,100,194100
1574868677.132869,94590.000,16170,3,PR,1,100,194084
1574868677.171674,94622.667,16188,3,PR,1,100,194085
1574868677.210478,94655.333,16188,3,PR,1,100,194081
1574868677.249282,94688.000,16188,3,PR,1,100,194099
1574868677.289670,94722.000,16204,3,PR,1,100,194133
1574868677.330059,94756.000,16204,3,PR,1,100,194139
1574868677.370447,94790.000,16204,3,PR,1,100,194134
1574868677.411627,94824.667,16222,3,PR,1,100,194147
1574868677.452807,94859.333,16222,3,PR,1,100,194141
1574868677.493987,94894.000,16222,3,PR,1,100,194149
1574868677.535959,94929.333,16240,3,PR,1,100,194141
1574868677.577931,94964.667,16240,3,PR,1,100,194146
1574868677.619903,95000.000,16240,3,PR,1,100,194164
1574868677.659104,95033.000,16258,3,PR,1,100,194183
1574868677.698304,95066.000,16258,3,PR,1,100,194194
1574868677.737504,95099.000,16258,3,PR,1,100,194198
1574868677.775913,95131.333,16276,3,PR,1,100,194208
1574868677.814321,95163.667,16276,3,PR,1,100,194190
1574868677.852729,95196.000,16276,3,PR,1,100,194164
1574868677.892721,95229.667,16294,3,PR,1,100,194147
1574868677.932714,95263.333,16294,3,PR,1,100,194143
1574868677.972706,95297.000,16294,3,PR,1,100,194129
1574868678.013490,95331.333,16313,3,PR,1,100,194116
1574868678.054274,95365.667,16313,3,PR,1,100,194127
1574868678.095058,95400.000,16313,3,PR,1,100,194112
1574868678.135843,95434.333,16330,3,PR,1,100,194105
1574868678.176627,95468.667,16330,3,PR,1,100,194125
1574868678.217411,95503.000,16330,3,PR,1,100,194093
1574868678.257007,95536.333,16348,3,PR,1,100,194141
1574868678.296603,95569.667,16348,3,PR,1,100,194194
1574868678.336200,95603.000,16348,3,PR,1,100,194215
1574868678.373816,95634.667,16366,3,PR,1,100,194235
1574868678.411433,95666.333,16366,3,PR,1,100,194267
1574868678.449049,95698.000,16366,3,PR,1,100,194234
1574868678.488249,95731.000,16382,3,PR,1,100,194184
1574868678.527450,95764.000,16382,3,PR,1,100,194192
1574868678.566650,95797.000,16382,3,PR,1,100,194185
1574868678.607434,95831.333,16400,3,PR,1,100,194170
1574868678.648218,95865.667,16400,3,PR,1,100,194206
1574868678.689002,95900.000,16400,3,PR,1,100,194221
1574868678.729787,95934.333,16418,3,PR,1,100,194228
1574868678.770571,95968.667,16418,3,PR,1,100,194214
1574868678.811355,96003.000,16418,3,PR,1,100,194197
1574868678.852535,96037.667,16436,3,PR,1,100,194204
1574868678.893715,96072.333,16436,3,PR,1,100,194198
1574868678.934895,96107.000,16436,3,PR,1,100,194191
1574868678.972512,96138.667,16454,3,PR,1,100,194188
1574868679.010128,96170.333,16454,3,PR,1,100,194190
1574868679.047745,96202.000,16454,3,PR,1,100,194207
1574868679.086945,96235.000,16473,4,PR,1,100,194217
1574868679.126145,96268.000,16473,4,PR,1,100,194218
1574868679.165345,96301.000,16473,4,PR,1,100,194216
1574868679.204546,96334.000,16473,4,PR,1,100,194211
1574868679.246122,96369.000,16491,2,PR,1,100,194240
1574868679.287698,96404.000,16491,2,PR,1,100,194250
1574868679.332442,96441.667,16509,3,PR,1,100,194231
1574868679.377186,96479.333,16509,3,PR,1,100,194206
1574868679.421929,96517.000,16509,3,PR,1,100,194151
1574868679.463109,96551.667,16526,3,PR,1,100,194116
1574868679.504289,96586.333,16526,3,PR,1,100,194156
1574868679.545470,96621.000,16526,3,PR,1,100,194116
1574868679.580314,96650.333,16544,3,PR,1,100,194099
1574868679.615159,96679.667,16544,3,PR,1,100,194028
1574868679.650004,96709.000,16544,3,PR,1,100,194088
1574868679.688808,96741.667,16560,3,PR,1,100,194040
1574868679.727612,96774.333,16560,3,PR,1,100,194024
1574868679.766417,96807.000,16560,3,PR,1,100,194066
1574868679.807993,96842.000,16578,3,PR,1,100,194037
1574868679.849569,96877.000,16578,3,PR,1,100,194069
1574868679.891145,96912.000,16578,3,PR,1,100,194131
1574868679.931533,96946.000,16596,3,PR,1,100,194131
1574868679.971921,96980.000,16596,3,PR,1,100,194132
1574868680.012310,97014.000,16596,3,PR,1,100,194154
1574868680.053490,97048.667,16615,3,PR,1,100,194181
1574868680.094670,97083.333,16615,3,PR,1,100,194144
1574868680.135850,97118.000,16615,3,PR,1,100,194095
1574868680.173466,97149.667,16633,3,PR,1,100,194166
1574868680.211083,97181.333,16633,3,PR,1,100,194206
1574868680.248699,97213.000,16633,3,PR,1,100,194193
1574868680.287009,97245.250,16651,4,PR,1,100,194144
1574868680.325318,97277.500,16651,4,PR,1,100,194137
1574868680.363627,97309.750,16651,4,PR,1,100,194153
1574868680.401937,97342.000,16651,4,PR,1,100,194229
1574868680.450046,97382.500,16669,2,PR,1,100,194230
1574868680.498156,97423.000,16669,2,PR,1,100,194212
1574868680.533396,97452.667,16687,3,PR,1,100,194202
1574868680.568637,97482.333,16687,3,PR,1,100,194250
1574868680.603878,97512.000,16687,3,PR,1,100,194287
1574868680.645454,97547.000,16704,3,PR,1,100,194283
1574868680.687030,97582.000,16704,3,PR,1,100,194351
1574868680.728606,97617.000,16704,3,PR,1,100,194346
1574868680.769786,97651.667,16722,3,PR,1,100,194333
1574868680.810966,97686.333,16722,3,PR,1,100,194354
1574868680.852146,97721.000,16722,3,PR,1,100,194369
1574868680.894118,97756.333,16738,3,PR,1,100,194349
1574868680.936090,97791.667,16738,3,PR,1,100,194336
1574868680.978062,97827.000,16738,3,PR,1,100,194351
1574868681.016867,97859.667,16757,3,PR,1,100,194354
1574868681.055671,97892.333,16757,3,PR,1,100,194357
1574868681.094476,97925.000,16757,3,PR,1,100,194346
1574868681.132092,97956.667,16775,3,PR,1,100,194334
1574868681.169708,97988.333,16775,3,PR,1,100,194342
1574868681.207325,98020.000,16775,3,PR,1,100,194315
1574868681.247713,98054.000,16793,3,PR,1,100,194316
1574868681.288101,98088.000,16793,3,PR,1,100,194252
1574868681.328490,98122.000,16793,3,PR,1,100,194276
1574868681.369670,98156.667,16811,3,PR,1,100,194351
1574868681.410850,98191.333,16811,3,PR,1,100,194435
1574868681.452030,98226.000,16811,3,PR,1,100,194461
1574868681.494002,98261.333,16829,3,PR,1,100,194473
1574868681.535974,98296.667,16829,3,PR,1,100,194442
1574868681.577946,98332.000,16829,3,PR,1,100,194411
1574868681.616196,98364.200,16850,5,PR,1,100,194380
1574868681.654446,98396.400,16850,5,PR,1,100,194361
1574868681.692696,98428.600,16850,5,PR,1,100,194332
1574868681.730946,98460.800,16850,5,PR,1,100,194384
1574868681.769196,98493.000,16850,5,PR,1,100,194513
1574868681.808792,98526.333,16870,3,PR,1,100,194545
1574868681.848388,98559.667,16870,3,PR,1,100,194538
1574868681.887985,98593.000,16870,3,PR,1,100,194617
1574868681.928373,98627.000,16888,3,PR,1,100,194555
1574868681.968761,98661.000,16888,3,PR,1,100,194441
1574868682.009149,98695.000,16888,3,PR,1,100,194469
1574868682.049933,98729.333,16907,3,PR,1,100,194505
1574868682.090718,98763.667,16907,3,PR,1,100,194513
1574868682.131502,98798.000,16907,3,PR,1,100,194483
1574868682.172682,98832.667,16925,3,PR,1,100,194471
1574868682.213862,98867.333,16925,3,PR,1,100,194482
1574868682.255042,98902.000,16925,3,PR,1,100,194495
1574868682.292659,98933.667,16943,3,PR,1,100,194493
1574868682.330275,98965.333,16943,3,PR,1,100,194483
1574868682.367891,98997.000,16943,3,PR,1,100,194481
1574868682.411447,99033.667,16961,3,PR,1,100,194485
1574868682.455003,99070.333,16961,3,PR,1,100,194493
1574868682.498559,99107.000,16961,3,PR,1,100,194461
1574868682.538947,99141.000,16978,3,PR,1,100,194460
1574868682.579335,99175.000,16978,3,PR,1,100,194512
1574868682.619724,99209.000,16978,3,PR,1,100,194512
1574868682.660904,99243.667,16996,3,PR,1,100,194509
1574868682.702084,99278.333,16996,3,PR,1,100,194488
1574868682.743264,99313.000,16996,3,PR,1,100,194477
1574868682.784840,99348.000,17012,3,PR,1,100,194425
1574868682.826416,99383.000,17012,3,PR,1,100,194437
1574868682.867992,99418.000,17012,3,PR,1,100,194454
1574868682.905609,99449.667,17030,3,PR,1,100,194460
1574868682.943225,99481.333,17030,3,PR,1,100,194436
1574868682.980842,99513.000,17030,3,PR,1,100,194422
1574868683.020042,99546.000,17049,3,PR,1,100,194444
1574868683.059242,99579.000,17049,3,PR,1,100,194493
1574868683.098443,99612.000,17049,3,PR,1,100,194501
1574868683.138831,99646.000,17067,3,PR,1,100,194516
1574868683.179219,99680.000,17067,3,PR,1,100,194540
1574868683.219607,99714.000,17067,3,PR,1,100,194546
1574868683.258411,99746.667,17085,3,PR,1,100,194499
1574868683.297216,99779.333,17085,3,PR,1,100,194455
1574868683.336020,99812.000,17085,3,PR,1,100,194424
1574868683.377200,99846.667,17103,3,PR,1,100,194417
1574868683.418380,99881.333,17103,3,PR,1,100,194408
1574868683.459560,99916.000,17103,3,PR,1,100,194420
1574868683.496781,99947.333,17121,3,PR,1,100,194384
1574868683.534001,99978.667,17121,3,PR,1,100,194371
1574868683.571222,100010.000,17121,3,PR,1,100,194437
1574868683.610026,100042.667,17138,3,PR,1,100,194480
1574868683.648831,100075.333,17138,3,PR,1,100,194495
1574868683.687635,100108.000,17138,3,PR,1,100,194544
1574868683.727627,100141.667,17156,3,PR,1,100,194549
1574868683.767619,100175.333,17156,3,PR,1,100,194482
1574868683.807612,100209.000,17156,3,PR,1,100,194500
1574868683.849188,100244.000,17174,3,PR,1,100,194526
1574868683.890764,100279.000,17174,3,PR,1,100,194554
1574868683.932340,100314.000,17174,3,PR,1,100,194598
1574868683.973124,100348.333,17190,3,PR,1,100,194631
1574868684.013908,100382.667,17190,3,PR,1,100,194650
1574868684.054692,100417.000,17190,3,PR,1,100,194657
1574868684.097060,100452.667,17209,3,PR,1,100,194668
1574868684.139428,100488.333,17209,3,PR,1,100,194636
1574868684.181796,100524.000,17209,3,PR,1,100,194543
1574868684.223372,100559.000,17227,3,PR,1,100,194622
1574868684.264949,100594.000,17227,3,PR,1,100,194644
1574868684.306525,100629.000,17227,3,PR,1,100,194634
1574868684.343745,100660.333,17245,3,PR,1,100,194702
1574868684.380965,100691.667,17245,3,PR,1,100,194724
1574868684.418186,100723.000,17245,3,PR,1,100,194698
1574868684.456594,100755.333,17263,3,PR,1,100,194669
1574868684.495003,100787.667,17263,3,PR,1,100,194688
1574868684.533411,100820.000,17263,3,PR,1,100,194608
1574868684.573007,100853.333,17281,3,PR,1,100,194545
1574868684.612604,100886.667,17281,3,PR,1,100,194490
1574868684.652200,100920.000,17281,3,PR,1,100,194477
1574868684.693380,100954.667,17299,3,PR,1,100,194473
1574868684.734560,100989.333,17299,3,PR,1,100,194512
1574868684.775740,101024.000,17299,3,PR,1,100,194526
1574868684.817316,101059.000,17316,3,PR,1,100,194570
1574868684.858892,101094.000,17316,3,PR,1,100,194541
1574868684.900469,101129.000,17316,3,PR,1,100,194499
1574868684.939669,101162.000,17334,3,PR,1,100,194516
1574868684.978869,101195.000,17334,3,PR,1,100,194536
1574868685.018070,101228.000,17334,3,PR,1,100,194524
1574868685.056082,101260.000,17353,3,PR,1,100,194545
1574868685.094094,101292.000,17353,3,PR,1,100,194559
1574868685.132107,101324.000,17353,3,PR,1,100,194553
1574868685.171703,101357.333,17369,3,PR,1,100,194578
1574868685.211299,101390.667,17369,3,PR,1,100,194567
1574868685.250896,101424.000,17369,3,PR,1,100,194563
1574868685.295639,101461.667,17387,3,PR,1,100,194575
1574868685.340383,101499.333,17387,3,PR,1,100,194583
1574868685.385127,101537.000,17387,3,PR,1,100,194559
1574868685.426307,101571.667,17405,3,PR,1,100,194505
1574868685.467487,101606.333,17405,3,PR,1,100,194495
1574868685.508667,101641.000,17405,3,PR,1,100,194487
1574868685.548659,101674.667,17423,3,PR,1,100,194470
1574868685.588652,101708.333,17423,3,PR,1,100,194493
1574868685.628644,101742.000,17423,3,PR,1,100,194485
1574868685.665864,101773.333,17441,3,PR,1,100,194491
1574868685.703085,101804.667,17441,3,PR,1,100,194489
1574868685.740305,101836.000,17441,3,PR,1,100,194492
1574868685.779110,101868.667,17459,3,PR,1,100,194486
1574868685.817914,101901.333,17459,3,PR,1,100,194513
1574868685.856718,101934.000,17459,3,PR,1,100,194475
1574868685.897898,101968.667,17477,3,PR,1,100,194510
1574868685.939079,102003.333,17477,3,PR,1,100,194511
1574868685.980259,102038.000,17477,3,PR,1,100,194532
1574868686.021439,102072.667,17495,3,PR,1,100,194536
1574868686.062619,102107.333,17495,3,PR,1,100,194556
1574868686.103799,102142.000,17495,3,PR,1,100,194552
1574868686.144187,102176.000,17513,3,PR,1,100,194551
1574868686.184576,102210.000,17513,3,PR,1,100,194531
1574868686.224964,102244.000,17513,3,PR,1,100,194500
1574868686.262580,102275.667,17531,3,PR,1,100,194470
1574868686.300197,102307.333,17531,3,PR,1,100,194456
1574868686.337813,102339.000,17531,3,PR,1,100,194437
1574868686.377013,102372.000,17547,3,PR,1,100,194444
1574868686.416214,102405.000,17547,3,PR,1,100,194421
1574868686.455414,102438.000,17547,3,PR,1,100,194427
1574868686.496594,102472.667,17565,3,PR,1,100,194406
1574868686.537774,102507.333,17565,3,PR,1,100,194390
1574868686.578954,102542.000,17565,3,PR,1,100,194450
1574868686.620530,102577.000,17583,3,PR,1,100,194477
1574868686.662107,102612.000,17583,3,PR,1,100,194485
1574868686.703682,102647.000,17583,3,PR,1,100,194507
1574868686.744863,102681.667,17601,3,PR,1,100,194519
1574868686.786043,102716.333,17601,3,PR,1,100,194475
1574868686.827223,102751.000,17601,3,PR,1,100,194464
1574868686.862067,102780.333,17619,3,PR,1,100,194472
1574868686.896912,102809.667,17619,3,PR,1,100,194477
1574868686.931757,102839.000,17619,3,PR,1,100,194513
1574868686.969769,102871.000,17637,3,PR,1,100,194544
1574868687.007782,102903.000,17637,3,PR,1,100,194574
1574868687.045794,102935.000,17637,3,PR,1,100,194544
1574868687.086974,102969.667,17656,3,PR,1,100,194549
1574868687.128155,103004.333,17656,3,PR,1,100,194521
1574868687.169335,103039.000,17656,3,PR,1,100,194473
1574868687.210515,103073.667,17673,3,PR,1,100,194445
1574868687.251695,103108.333,17673,3,PR,1,100,194440
1574868687.292875,103143.000,17673,3,PR,1,100,194451
1574868687.333659,103177.333,17691,3,PR,1,100,194462
1574868687.374443,103211.667,17691,3,PR,1,100,194450
1574868687.415227,103246.000,17691,3,PR,1,100,194457
1574868687.452844,103277.667,17709,3,PR,1,100,194476
1574868687.490460,103309.333,17709,3,PR,1,100,194476
1574868687.528077,103341.000,17709,3,PR,1,100,194479
1574868687.565693,103372.667,17727,3,PR,1,100,194485
1574868687.603310,103404.333,17727,3,PR,1,100,194509
1574868687.640926,103436.000,17727,3,PR,1,100,194536
1574868687.684640,103472.800,17746,5,PR,1,100,194534
1574868687.728355,103509.600,17746,5,PR,1,100,194526
1574868687.772069,103546.400,17746,5,PR,1,100,194545
1574868687.815783,103583.200,17746,5,PR,1,100,194527
1574868687.859498,103620.000,17746,5,PR,1,100,194533
1574868687.897510,103652.000,17766,3,PR,1,100,194561
1574868687.935522,103684.000,17766,3,PR,1,100,194541
1574868687.973535,103716.000,17766,3,PR,1,100,194525
1574868688.014715,103750.667,17783,3,PR,1,100,194511
1574868688.055895,103785.333,17783,3,PR,1,100,194507
1574868688.097075,103820.000,17783,3,PR,1,100,194510
1574868688.138255,103854.667,17802,3,PR,1,100,194521
1574868688.179435,103889.333,17802,3,PR,1,100,194532
1574868688.220615,103924.000,17802,3,PR,1,100,194539
1574868688.260212,103957.333,17818,3,PR,1,100,194551
1574868688.299808,103990.667,17818,3,PR,1,100,194540
1574868688.339404,104024.000,17818,3,PR,1,100,194542
1574868688.377417,104056.000,17836,2,PR,1,100,194543
1574868688.415429,104088.000,17836,2,PR,1,100,194567
1574868688.455223,104121.500,17854,4,PR,1,100,194580
1574868688.495018,104155.000,17854,4,PR,1,100,194578
1574868688.534812,104188.500,17854,4,PR,1,100,194580
1574868688.574606,104222.000,17854,4,PR,1,100,194611
1574868688.613410,104254.667,17872,3,PR,1,100,194649
1574868688.652215,104287.333,17872,3,PR,1,100,194637
1574868688.691019,104320.000,17872,3,PR,1,100,194634
1574868688.730219,104353.000,17890,3,PR,1,100,194612
1574868688.769420,104386.000,17890,3,PR,1,100,194567
1574868688.808620,104419.000,17890,3,PR,1,100,194541
1574868688.850196,104454.000,17908,3,PR,1,100,194543
1574868688.891772,104489.000,17908,3,PR,1,100,194566
1574868688.933348,104524.000,17908,3,PR,1,100,194553
1574868688.974528,104558.667,17926,3,PR,1,100,194587
1574868689.015708,104593.333,17926,3,PR,1,100,194589
1574868689.056889,104628.000,17926,3,PR,1,100,194596
1574868689.096089,104661.000,17944,3,PR,1,100,194619
1574868689.135289,104694.000,17944,3,PR,1,100,194633
1574868689.174489,104727.000,17944,3,PR,1,100,194682
1574868689.212502,104759.000,17962,3,PR,1,100,194722
1574868689.250514,104791.000,17962,3,PR,1,100,194807
1574868689.288527,104823.000,17962,3,PR,1,100,194843
1574868689.327727,104856.000,17980,3,PR,1,100,194847
1574868689.366927,104889.000,17980,3,PR,1,100,194888
1574868689.406128,104922.000,17980,3,PR,1,100,194917
1574868689.446912,104956.333,17997,3,PR,1,100,194932
1574868689.487696,104990.667,17997,3,PR,1,100,194900
1574868689.528480,105025.000,17997,3,PR,1,100,194844
1574868689.569660,105059.667,18014,3,PR,1,100,194838
1574868689.610840,105094.333,18014,3,PR,1,100,194866
1574868689.652020,105129.000,18014,3,PR,1,100,194857
1574868689.692409,105163.000,18032,3,PR,1,100,194842
1574868689.732797,105197.000,18032,3,PR,1,100,194830
1574868689.773185,105231.000,18032,3,PR,1,100,194816
1574868689.811198,105263.000,18050,3,PR,1,100,194833
1574868689.849210,105295.000,18050,3,PR,1,100,194838
1574868689.887222,105327.000,18050,3,PR,1,100,194820
1574868689.926423,105360.000,18068,3,PR,1,100,194839
1574868689.965623,105393.000,18068,3,PR,1,100,194880
1574868690.004823,105426.000,18068,3,PR,1,100,194899
1574868690.046003,105460.667,18087,3,PR,1,100,194907
1574868690.087183,105495.333,18087,3,PR,1,100,194916
1574868690.128364,105530.000,18087,3,PR,1,100,194935
1574868690.169544,105564.667,18105,3,PR,1,100,194887
1574868690.210724,105599.333,18105,3,PR,1,100,194845
1574868690.251904,105634.000,18105,3,PR,1,100,194823
1574868690.293084,105668.667,18122,3,PR,1,100,194841
1574868690.334264,105703.333,18122,3,PR,1,100,194831
1574868690.375444,105738.000,18122,3,PR,1,100,194837
1574868690.413457,105770.000,18140,3,PR,1,100,194824
1574868690.451469,105802.000,18140,3,PR,1,100,194882
1574868690.489481,105834.000,18140,3,PR,1,100,194974
1574868690.527890,105866.333,18158,3,PR,1,100,194987
1574868690.566298,105898.667,18158,3,PR,1,100,194986
1574868690.604707,105931.000,18158,3,PR,1,100,194986
1574868690.645491,105965.333,18174,3,PR,1,100,194967
1574868690.686275,105999.667,18174,3,PR,1,100,194958
1574868690.727059,106034.000,18174,3,PR,1,100,194970
1574868690.769427,106069.667,18192,3,PR,1,100,194991
1574868690.811795,106105.333,18192,3,PR,1,100,195024
1574868690.854163,106141.000,18192,3,PR,1,100,195000
1574868690.894551,106175.000,18210,3,PR,1,100,195035
1574868690.934939,106209.000,18210,3,PR,1,100,195026
1574868690.975328,106243.000,18210,3,PR,1,100,194967
1574868691.013736,106275.333,18228,3,PR,1,100,194955
1574868691.052144,106307.667,18228,3,PR,1,100,194947
1574868691.090553,106340.000,18228,3,PR,1,100,194948
1574868691.128169,106371.667,18247,3,PR,1,100,194944
1574868691.165786,106403.333,18247,3,PR,1,100,194952
1574868691.203402,106435.000,18247,3,PR,1,100,194960
1574868691.244978,106470.000,18265,3,PR,1,100,194970
1574868691.286554,106505.000,18265,3,PR,1,100,194997
1574868691.328130,106540.000,18265,3,PR,1,100,195005
1574868691.369310,106574.667,18283,3,PR,1,100,194996
1574868691.410491,106609.333,18283,3,PR,1,100,195036
1574868691.451671,106644.000,18283,3,PR,1,100,195037
1574868691.492455,106678.333,18301,3,PR,1,100,195025
1574868691.533239,106712.667,18301,3,PR,1,100,195010
1574868691.574023,106747.000,18301,3,PR,1,100,194998
1574868691.615599,106782.000,18318,3,PR,1,100,194983
1574868691.657175,106817.000,18318,3,PR,1,100,194966
1574868691.698751,106852.000,18318,3,PR,1,100,194987
1574868691.736764,106884.000,18336,3,PR,1,100,194974
1574868691.774776,106916.000,18336,3,PR,1,100,195008
1574868691.812789,106948.000,18336,3,PR,1,100,195001
1574868691.850405,106979.667,18352,3,PR,1,100,195014
1574868691.888021,107011.333,18352,3,PR,1,100,195020
1574868691.925638,107043.000,18352,3,PR,1,100,195013
1574868691.964442,107075.667,18370,3,PR,1,100,195014
1574868692.003247,107108.333,18370,3,PR,1,100,195009
1574868692.042051,107141.000,18370,3,PR,1,100,195041
1574868692.082835,107175.333,18389,3,PR,1,100,194996
1574868692.123619,107209.667,18389,3,PR,1,100,194948
1574868692.164403,107244.000,18389,3,PR,1,100,195071
1574868692.205584,107278.667,18407,3,PR,1,100,195011
1574868692.246764,107313.333,18407,3,PR,1,100,194989
1574868692.287944,107348.000,18407,3,PR,1,100,195008
1574868692.329916,107383.333,18425,3,PR,1,100,194980
1574868692.371888,107418.667,18425,3,PR,1,100,194942
1574868692.413860,107454.000,18425,3,PR,1,100,194867
1574868692.451872,107486.000,18443,3,PR,1,100,194875
1574868692.489885,107518.000,18443,3,PR,1,100,194889
1574868692.527897,107550.000,18443,3,PR,1,100,194872
1574868692.566702,107582.667,18461,3,PR,1,100,194900
1574868692.605506,107615.333,18461,3,PR,1,100,194922
1574868692.644310,107648.000,18461,3,PR,1,100,194934
1574868692.684302,107681.667,18479,3,PR,1,100,194942
1574868692.724295,107715.333,18479,3,PR,1,100,194928
1574868692.764287,107749.000,18479,3,PR,1,100,194899
1574868692.805071,107783.333,18496,3,PR,1,100,194861
1574868692.845855,107817.667,18496,3,PR,1,100,194889
1574868692.886639,107852.000,18496,3,PR,1,100,194871
1574868692.928612,107887.333,18514,3,PR,1,100,194892
1574868692.970583,107922.667,18514,3,PR,1,100,194941
1574868693.012556,107958.000,18514,3,PR,1,100,194970
1574868693.051360,107990.667,18531,3,PR,1,100,195021
1574868693.090164,108023.333,18531,3,PR,1,100,195040
1574868693.128968,108056.000,18531,3,PR,1,100,195045
1574868693.166585,108087.667,18549,3,PR,1,100,195060
1574868693.204201,108119.333,18549,3,PR,1,100,195095
1574868693.241818,108151.000,18549,3,PR,1,100,195139
1574868693.281414,108184.333,18567,3,PR,1,100,195169
1574868693.321010,108217.667,18567,3,PR,1,100,195197
1574868693.360607,108251.000,18567,3,PR,1,100,195251
1574868693.401391,108285.333,18585,3,PR,1,100,195215
1574868693.442175,108319.667,18585,3,PR,1,100,195213
1574868693.482959,108354.000,18585,3,PR,1,100,195236
1574868693.523743,108388.333,18603,3,PR,1,100,195316
1574868693.564528,108422.667,18603,3,PR,1,100,195331
1574868693.605312,108457.000,18603,3,PR,1,100,195344
1574868693.645304,108490.667,18621,3,PR,1,100,195365
1574868693.685296,108524.333,18621,3,PR,1,100,195368
1574868693.725288,108558.000,18621,3,PR,1,100,195358
1574868693.763538,108590.200,18642,5,PR,1,100,195336
1574868693.801788,108622.400,18642,5,PR,1,100,195303
1574868693.840038,108654.600,18642,5,PR,1,100,195308
1574868693.878288,108686.800,18642,5,PR,1,100,195318
1574868693.916538,108719.000,18642,5,PR,1,100,195363
1574868693.956926,108753.000,18662,3,PR,1,100,195358
1574868693.997315,108787.000,18662,3,PR,1,100,195373
1574868694.037703,108821.000,18662,3,PR,1,100,195361
1574868694.078883,108855.667,18681,3,PR,1,100,195337
1574868694.120063,108890.333,18681,3,PR,1,100,195284
1574868694.161243,108925.000,18681,3,PR,1,100,195246
1574868694.203611,108960.667,18699,3,PR,1,100,195199
1574868694.245979,108996.333,18699,3,PR,1,100,195148
1574868694.288347,109032.000,18699,3,PR,1,100,195118
1574868694.325963,109063.667,18717,3,PR,1,100,195097
1574868694.363580,109095.333,18717,3,PR,1,100,195101
1574868694.401196,109127.000,18717,3,PR,1,100,195060
1574868694.441189,109160.667,18735,3,PR,1,100,195038
1574868694.481181,109194.333,18735,3,PR,1,100,195055
1574868694.521173,109228.000,18735,3,PR,1,100,195050
1574868694.561561,109262.000,18753,3,PR,1,100,195062
1574868694.601950,109296.000,18753,3,PR,1,100,195072
1574868694.642338,109330.000,18753,3,PR,1,100,195048
1574868694.683518,109364.667,18770,3,PR,1,100,195023
1574868694.724698,109399.333,18770,3,PR,1,100,194990
1574868694.765878,109434.000,18770,3,PR,1,100,194985
1574868694.807454,109469.000,18788,2,PR,1,100,194967
1574868694.849030,109504.000,18788,2,PR,1,100,194938
1574868694.887637,109536.500,18804,4,PR,1,100,194970
1574868694.926243,109569.000,18804,4,PR,1,100,194989
1574868694.964849,109601.500,18804,4,PR,1,100,194979
1574868695.003456,109634.000,18804,4,PR,1,100,194996
1574868695.041864,109666.333,18823,3,PR,1,100,195011
1574868695.080272,109698.667,18823,3,PR,1,100,194994
1574868695.118681,109731.000,18823,3,PR,1,100,194985
1574868695.159069,109765.000,18841,3,PR,1,100,194998
1574868695.199457,109799.000,18841,3,PR,1,100,195001
1574868695.239846,109833.000,18841,3,PR,1,100,195002
1574868695.280630,109867.333,18859,3,PR,1,100,195016
1574868695.321414,109901.667,18859,3,PR,1,100,195008
1574868695.362198,109936.000,18859,3,PR,1,100,194997
1574868695.403774,109971.000,18877,3,PR,1,100,194963
1574868695.445350,110006.000,18877,3,PR,1,100,194928
1574868695.486926,110041.000,18877,3,PR,1,100,194912
1574868695.527314,110075.000,18895,3,PR,1,100,194906
1574868695.567703,110109.000,18895,3,PR,1,100,194883
1574868695.608091,110143.000,18895,3,PR,1,100,194853
1574868695.649667,110178.000,18913,2,PR,1,100,194856
1574868695.691243,110213.000,18913,2,PR,1,100,194862
1574868695.731235,110246.667,18931,3,PR,1,100,194887
1574868695.771227,110280.333,18931,3,PR,1,100,194881
1574868695.811219,110314.000,18931,3,PR,1,100,194901
1574868695.849232,110346.000,18948,4,PR,1,100,194920
1574868695.887244,110378.000,18948,4,PR,1,100,194908
1574868695.925257,110410.000,18948,4,PR,1,100,194923
1574868695.963269,110442.000,18948,4,PR,1,100,194908
1574868696.003657,110476.000,18966,3,PR,1,100,194918
1574868696.044046,110510.000,18966,3,PR,1,100,194920
1574868696.084434,110544.000,18966,3,PR,1,100,194948
1574868696.125218,110578.333,18984,3,PR,1,100,194936
1574868696.166002,110612.667,18984,3,PR,1,100,194914
1574868696.206786,110647.000,18984,3,PR,1,100,194869
1574868696.248362,110682.000,19001,2,PR,1,100,194835
1574868696.289938,110717.000,19001,2,PR,1,100,194818
1574868696.331119,110751.667,19019,3,PR,1,100,194820
1574868696.372299,110786.333,19019,3,PR,1,100,194804
1574868696.413479,110821.000,19019,3,PR,1,100,194806
1574868696.451194,110852.750,19037,4,PR,1,100,194812
1574868696.488910,110884.500,19037,4,PR,1,100,194820
1574868696.526625,110916.250,19037,4,PR,1,100,194799
1574868696.564341,110948.000,19037,4,PR,1,100,194802
1574868696.603937,110981.333,19055,3,PR,1,100,194814
1574868696.643533,111014.667,19055,3,PR,1,100,194808
1574868696.683129,111048.000,19055,3,PR,1,100,194796
1574868696.723517,111082.000,19073,3,PR,1,100,194787
1574868696.763906,111116.000,19073,3,PR,1,100,194808
1574868696.804294,111150.000,19073,3,PR,1,100,194816
1574868696.845078,111184.333,19091,3,PR,1,100,194878
1574868696.885862,111218.667,19091,3,PR,1,100,194890
1574868696.926646,111253.000,19091,3,PR,1,100,194922
1574868696.967035,111287.000,19109,3,PR,1,100,194932
1574868697.007423,111321.000,19109,3,PR,1,100,194885
1574868697.047811,111355.000,19109,3,PR,1,100,194816
1574868697.085427,111386.667,19127,3,PR,1,100,194772
1574868697.123044,111418.333,19127,3,PR,1,100,194736
1574868697.160660,111450.000,19127,3,PR,1,100,194738
1574868697.200653,111483.667,19145,3,PR,1,100,194762
1574868697.240645,111517.333,19145,3,PR,1,100,194761
1574868697.280637,111551.000,19145,3,PR,1,100,194805
1574868697.321421,111585.333,19163,3,PR,1,100,194824
1574868697.362205,111619.667,19163,3,PR,1,100,194829
1574868697.402989,111654.000,19163,3,PR,1,100,194835
1574868697.444170,111688.667,19179,3,PR,1,100,194792
1574868697.485350,111723.333,19179,3,PR,1,100,194783
1574868697.526530,111758.000,19179,3,PR,1,100,194783
1574868697.568700,111793.500,19197,2,PR,1,100,194778
1574868697.610870,111829.000,19197,2,PR,1,100,194786
1574868697.649179,111861.250,19215,4,PR,1,100,194782
1574868697.687489,111893.500,19215,4,PR,1,100,194786
1574868697.725798,111925.750,19215,4,PR,1,100,194784
1574868697.764107,111958.000,19215,4,PR,1,100,194783
1574868697.803308,111991.000,19233,3,PR,1,100,194788
1574868697.842508,112024.000,19233,3,PR,1,100,194752
1574868697.881708,112057.000,19233,3,PR,1,100,194744
1574868697.926848,112095.000,19251,2,PR,1,100,194729
1574868697.971988,112133.000,19251,2,PR,1,100,194727
1574868698.011188,112166.000,19270,4,PR,1,100,194716
1574868698.050388,112199.000,19270,4,PR,1,100,194697
1574868698.089589,112232.000,19270,4,PR,1,100,194705
1574868698.128789,112265.000,19270,4,PR,1,100,194704
1574868698.169771,112299.500,19288,2,PR,1,100,194716
1574868698.210753,112334.000,19288,2,PR,1,100,194708
1574868698.248172,112365.500,19305,4,PR,1,100,194722
1574868698.285590,112397.000,19305,4,PR,1,100,194726
1574868698.323009,112428.500,19305,4,PR,1,100,194754
1574868698.360427,112460.000,19305,4,PR,1,100,194757
1574868698.400023,112493.333,19323,3,PR,1,100,194757
1574868698.439620,112526.667,19323,3,PR,1,100,194757
1574868698.479216,112560.000,19323,3,PR,1,100,194773
1574868698.519208,112593.667,19341,3,PR,1,100,194775
1574868698.559200,112627.333,19341,3,PR,1,100,194746
1574868698.599193,112661.000,19341,3,PR,1,100,194738
1574868698.640769,112696.000,19357,3,PR,1,100,194727
1574868698.682345,112731.000,19357,3,PR,1,100,194705
1574868698.723921,112766.000,19357,3,PR,1,100,194680
1574868698.765101,112800.667,19375,3,PR,1,100,194662
1574868698.806281,112835.333,19375,3,PR,1,100,194700
1574868698.847461,112870.000,19375,3,PR,1,100,194734
1574868698.890819,112906.500,19393,2,PR,1,100,194740
1574868698.934177,112943.000,19393,2,PR,1,100,194754
1574868698.972585,112975.333,19411,3,PR,1,100,194755
1574868699.010994,113007.667,19411,3,PR,1,100,194773
1574868699.049402,113040.000,19411,3,PR,1,100,194765
1574868699.085039,113070.000,19430,4,PR,1,100,194746
1574868699.120675,113100.000,19430,4,PR,1,100,194735
1574868699.156312,113130.000,19430,4,PR,1,100,194783
1574868699.191949,113160.000,19430,4,PR,1,100,194796
1574868699.231149,113193.000,19448,3,PR,1,100,194779
1574868699.270349,113226.000,19448,3,PR,1,100,194762
1574868699.309550,113259.000,19448,3,PR,1,100,194725
1574868699.349542,113292.667,19466,3,PR,1,100,194679
1574868699.389534,113326.333,19466,3,PR,1,100,194692
1574868699.429526,113360.000,19466,3,PR,1,100,194689
1574868699.470706,113394.667,19484,3,PR,1,100,194692
1574868699.511887,113429.333,19484,3,PR,1,100,194696
1574868699.553067,113464.000,19484,3,PR,1,100,194702
1574868699.595039,113499.333,19501,3,PR,1,100,194708
1574868699.637011,113534.667,19501,3,PR,1,100,194725
1574868699.678983,113570.000,19501,3,PR,1,100,194744
1574868699.717391,113602.333,19519,3,PR,1,100,194752
1574868699.755800,113634.667,19519,3,PR,1,100,194757
1574868699.794208,113667.000,19519,3,PR,1,100,194777
1574868699.832695,113699.400,19539,5,PR,1,100,194779
1574868699.871183,113731.800,19539,5,PR,1,100,194771
1574868699.909671,113764.200,19539,5,PR,1,100,194765
1574868699.948158,113796.600,19539,5,PR,1,100,194772
1574868699.986646,113829.000,19539,5,PR,1,100,194749
1574868700.027826,113863.667,19560,3,PR,1,100,194784
1574868700.069006,113898.333,19560,3,PR,1,100,194803
1574868700.110186,113933.000,19560,3,PR,1,100,194801
1574868700.151366,113967.667,19578,3,PR,1,100,194806
1574868700.192546,114002.333,19578,3,PR,1,100,194834
1574868700.233727,114037.000,19578,3,PR,1,100,194802
1574868700.275897,114072.500,19595,2,PR,1,100,194783
1574868700.318066,114108.000,19595,2,PR,1,100,194755
1574868700.356079,114140.000,19613,4,PR,1,100,194767
1574868700.394091,114172.000,19613,4,PR,1,100,194763
1574868700.432104,114204.000,19613,4,PR,1,100,194773
1574868700.470116,114236.000,19613,4,PR,1,100,194840
1574868700.508920,114268.667,19631,3,PR,1,100,194875
1574868700.547725,114301.333,19631,3,PR,1,100,194878
1574868700.586529,114334.000,19631,3,PR,1,100,194908
1574868700.626917,114368.000,19647,3,PR,1,100,194867
1574868700.667305,114402.000,19647,3,PR,1,100,194860
1574868700.707694,114436.000,19647,3,PR,1,100,194849
1574868700.748478,114470.333,19665,3,PR,1,100,194841
1574868700.789262,114504.667,19665,3,PR,1,100,194839
1574868700.830046,114539.000,19665,3,PR,1,100,194808
1574868700.871622,114574.000,19683,3,PR,1,100,194778
1574868700.913198,114609.000,19683,3,PR,1,100,194740
1574868700.954774,114644.000,19683,3,PR,1,100,194726
1574868700.992787,114676.000,19701,3,PR,1,100,194733
1574868701.030799,114708.000,19701,3,PR,1,100,194735
1574868701.068812,114740.000,19701,3,PR,1,100,194734
1574868701.106824,114772.000,19720,2,PR,1,100,194739
1574868701.144836,114804.000,19720,2,PR,1,100,194741
1574868701.189580,114841.667,19738,3,PR,1,100,194735
1574868701.234324,114879.333,19738,3,PR,1,100,194730
1574868701.279068,114917.000,19738,3,PR,1,100,194727
1574868701.320248,114951.667,19756,3,PR,1,100,194732
1574868701.361428,114986.333,19756,3,PR,1,100,194762
1574868701.402608,115021.000,19756,3,PR,1,100,194750
1574868701.444184,115056.000,19773,3,PR,1,100,194766
1574868701.485760,115091.000,19773,3,PR,1,100,194763
1574868701.527336,115126.000,19773,3,PR,1,100,194767
1574868701.566537,115159.000,19791,3,PR,1,100,194756
1574868701.605737,115192.000,19791,3,PR,1,100,194766
1574868701.644937,115225.000,19791,3,PR,1,100,194726
1574868701.682356,115256.500,19808,4,PR,1,100,194701
1574868701.719774,115288.000,19808,4,PR,1,100,194697
1574868701.757193,115319.500,19808,4,PR,1,100,194684
1574868701.794611,115351.000,19808,4,PR,1,100,194701
1574868701.833019,115383.333,19825,3,PR,1,100,194721
1574868701.871428,115415.667,19825,3,PR,1,100,194725
1574868701.909836,115448.000,19825,3,PR,1,100,194732
1574868701.951016,115482.667,19843,3,PR,1,100,194746
1574868701.992197,115517.333,19843,3,PR,1,100,194737
1574868702.033377,115552.000,19843,3,PR,1,100,194757
1574868702.074161,115586.333,19862,3,PR,1,100,194754
1574868702.114945,115620.667,19862,3,PR,1,100,194749
1574868702.155729,115655.000,19862,3,PR,1,100,194748
1574868702.194534,115687.667,19880,3,PR,1,100,194737
1574868702.233338,115720.333,19880,3,PR,1,100,194734
1574868702.272142,115753.000,19880,3,PR,1,100,194752
1574868702.308967,115784.000,19898,3,PR,1,100,194739
1574868702.345791,115815.000,19898,3,PR,1,100,194745
1574868702.382616,115846.000,19898,3,PR,1,100,194686
1574868702.423796,115880.667,19916,3,PR,1,100,194657
1574868702.464976,115915.333,19916,3,PR,1,100,194633
1574868702.506156,115950.000,19916,3,PR,1,100,194674
1574868702.553078,115989.500,19934,2,PR,1,100,194702
1574868702.599999,116029.000,19934,2,PR,1,100,194721
1574868702.638408,116061.333,19951,3,PR,1,100,194714
1574868702.676816,116093.667,19951,3,PR,1,100,194726
1574868702.715225,116126.000,19951,3,PR,1,100,194665
1574868702.756404,116160.667,19969,3,PR,1,100,194680
1574868702.797585,116195.333,19969,3,PR,1,100,194690
1574868702.838765,116230.000,19969,3,PR,1,100,194706
1574868702.880341,116265.000,19985,3,PR,1,100,194690
1574868702.921917,116300.000,19985,3,PR,1,100,194700
1574868702.963493,116335.000,19985,3,PR,1,100,194699
1574868703.004277,116369.333,20004,3,PR,1,100,194692
1574868703.045061,116403.667,20004,3,PR,1,100,194684
1574868703.085845,116438.000,20004,3,PR,1,100,194662
1574868703.123462,116469.667,20022,3,PR,1,100,194673
1574868703.161078,116501.333,20022,3,PR,1,100,194669
1574868703.198695,116533.000,20022,3,PR,1,100,194621
1574868703.238687,116566.667,20040,3,PR,1,100,194582
1574868703.278679,116600.333,20040,3,PR,1,100,194543
1574868703.318671,116634.000,20040,3,PR,1,100,194554
1574868703.359456,116668.333,20058,3,PR,1,100,194577
1574868703.400240,116702.667,20058,3,PR,1,100,194588
1574868703.441024,116737.000,20058,3,PR,1,100,194590
1574868703.482204,116771.667,20076,3,PR,1,100,194618
1574868703.523384,116806.333,20076,3,PR,1,100,194575
1574868703.564564,116841.000,20076,3,PR,1,100,194571
1574868703.605744,116875.667,20094,3,PR,1,100,194568
1574868703.646924,116910.333,20094,3,PR,1,100,194548
1574868703.688105,116945.000,20094,3,PR,1,100,194567
1574868703.725721,116976.667,20111,3,PR,1,100,194636
1574868703.763338,117008.333,20111,3,PR,1,100,194744
1574868703.800954,117040.000,20111,3,PR,1,100,194806
1574868703.839758,117072.667,20129,3,PR,1,100,194846
1574868703.878563,117105.333,20129,3,PR,1,100,194913
1574868703.917367,117138.000,20129,3,PR,1,100,194893
1574868703.956963,117171.333,20147,3,PR,1,100,194896
1574868703.996560,117204.667,20147,3,PR,1,100,194921
1574868704.036156,117238.000,20147,3,PR,1,100,194915
1574868704.077336,117272.667,20164,3,PR,1,100,194864
1574868704.118516,117307.333,20164,3,PR,1,100,194812
1574868704.159696,117342.000,20164,3,PR,1,100,194783
1574868704.201272,117377.000,20182,3,PR,1,100,194773
1574868704.242848,117412.000,20182,3,PR,1,100,194775
1574868704.284424,117447.000,20182,3,PR,1,100,194792
1574868704.322140,117478.750,20200,4,PR,1,100,194736
1574868704.359855,117510.500,20200,4,PR,1,100,194729
1574868704.397571,117542.250,20200,4,PR,1,100,194779
1574868704.435286,117574.000,20200,4,PR,1,100,194811
1574868704.479238,117611.000,20218,2,PR,1,100,194803
1574868704.523190,117648.000,20218,2,PR,1,100,194803
1574868704.563974,117682.333,20236,3,PR,1,100,194833
1574868704.604758,117716.667,20236,3,PR,1,100,194828
1574868704.645542,117751.000,20236,3,PR,1,100,194830
1574868704.686723,117785.667,20254,3,PR,1,100,194879
1574868704.727903,117820.333,20254,3,PR,1,100,194885
1574868704.769083,117855.000,20254,3,PR,1,100,194905
1574868704.811055,117890.333,20272,3,PR,1,100,194938
1574868704.853027,117925.667,20272,3,PR,1,100,194995
1574868704.894999,117961.000,20272,3,PR,1,100,195019
1574868704.932615,117992.667,20289,3,PR,1,100,195035
1574868704.970232,118024.333,20289,3,PR,1,100,194988
1574868705.007848,118056.000,20289,3,PR,1,100,195007
1574868705.045861,118088.000,20308,3,PR,1,100,195011
1574868705.083873,118120.000,20308,3,PR,1,100,194992
1574868705.121885,118152.000,20308,3,PR,1,100,194977
1574868705.162274,118186.000,20326,3,PR,1,100,194963
1574868705.202662,118220.000,20326,3,PR,1,100,194945
1574868705.243050,118254.000,20326,3,PR,1,100,194988
1574868705.281458,118286.333,20342,3,PR,1,100,194987
1574868705.319867,118318.667,20342,3,PR,1,100,194987
1574868705.358275,118351.000,20342,3,PR,1,100,194956
1574868705.399851,118386.000,20360,3,PR,1,100,194975
1574868705.441427,118421.000,20360,3,PR,1,100,195002
1574868705.483003,118456.000,20360,3,PR,1,100,194973
1574868705.521016,118488.000,20378,4,PR,1,100,194977
1574868705.559028,118520.000,20378,4,PR,1,100,194976
1574868705.597041,118552.000,20378,4,PR,1,100,194914
1574868705.635053,118584.000,20378,4,PR,1,100,194905
1574868705.673065,118616.000,20396,3,PR,1,100,194870
1574868705.711078,118648.000,20396,3,PR,1,100,194867
1574868705.749090,118680.000,20396,3,PR,1,100,194893
1574868705.790666,118715.000,20414,3,PR,1,100,194912
1574868705.832242,118750.000,20414,3,PR,1,100,194884
1574868705.873818,118785.000,20414,3,PR,1,100,194913
1574868705.914504,118819.250,20435,4,PR,1,100,194938
1574868705.955189,118853.500,20435,4,PR,1,100,194885
1574868705.995874,118887.750,20435,4,PR,1,100,194875
1574868706.036559,118922.000,20435,4,PR,1,100,194878
1574868706.076947,118956.000,20456,3,PR,1,100,194861
1574868706.117336,118990.000,20456,3,PR,1,100,194912
1574868706.157724,119024.000,20456,3,PR,1,100,194935
1574868706.199300,119059.000,20474,3,PR,1,100,194954
1574868706.240876,119094.000,20474,3,PR,1,100,194964
1574868706.282452,119129.000,20474,3,PR,1,100,194963
1574868706.319277,119160.000,20492,3,PR,1,100,194913
1574868706.356101,119191.000,20492,3,PR,1,100,194848
1574868706.392926,119222.000,20492,3,PR,1,100,194805
1574868706.430938,119254.000,20510,3,PR,1,100,194783
1574868706.468950,119286.000,20510,3,PR,1,100,194729
1574868706.506963,119318.000,20510,3,PR,1,100,194740
1574868706.546163,119351.000,20528,3,PR,1,100,194793
1574868706.585363,119384.000,20528,3,PR,1,100,194832
1574868706.624564,119417.000,20528,3,PR,1,100,194846
1574868706.665348,119451.333,20546,3,PR,1,100,194892
1574868706.706132,119485.667,20546,3,PR,1,100,194832
1574868706.746916,119520.000,20546,3,PR,1,100,194810
1574868706.788096,119554.667,20564,3,PR,1,100,194777
1574868706.829276,119589.333,20564,3,PR,1,100,194747
1574868706.870456,119624.000,20564,3,PR,1,100,194751
1574868706.912033,119659.000,20581,3,PR,1,100,194793
1574868706.953609,119694.000,20581,3,PR,1,100,194826
1574868706.995185,119729.000,20581,3,PR,1,100,194861
1574868707.032801,119760.667,20600,3,PR,1,100,194859
1574868707.070418,119792.333,20600,3,PR,1,100,194857
1574868707.108034,119824.000,20600,3,PR,1,100,194827
1574868707.146838,119856.667,20618,3,PR,1,100,194793
1574868707.185643,119889.333,20618,3,PR,1,100,194766
1574868707.224447,119922.000,20618,3,PR,1,100,194738
1574868707.265231,119956.333,20634,3,PR,1,100,194744
1574868707.306015,119990.667,20634,3,PR,1,100,194748
1574868707.346800,120025.000,20634,3,PR,1,100,194743
1574868707.387584,120059.333,20652,3,PR,1,100,194756
1574868707.428368,120093.667,20652,3,PR,1,100,194759
1574868707.469152,120128.000,20652,3,PR,1,100,194763
1574868707.511124,120163.333,20670,3,PR,1,100,194757
1574868707.553096,120198.667,20670,3,PR,1,100,194796
1574868707.595068,120234.000,20670,3,PR,1,100,194801
1574868707.636248,120268.667,20688,3,PR,1,100,194769
1574868707.677428,120303.333,20688,3,PR,1,100,194779
1574868707.718609,120338.000,20688,3,PR,1,100,194756
1574868707.757017,120370.333,20706,3,PR,1,100,194791
1574868707.795425,120402.667,20706,3,PR,1,100,194775
1574868707.833834,120435.000,20706,3,PR,1,100,194798
1574868707.874222,120469.000,20724,3,PR,1,100,194806
1574868707.914610,120503.000,20724,3,PR,1,100,194815
1574868707.954998,120537.000,20724,3,PR,1,100,194770
1574868707.995782,120571.333,20743,3,PR,1,100,194781
1574868708.036566,120605.667,20743,3,PR,1,100,194769
1574868708.077351,120640.000,20743,3,PR,1,100,194748
1574868708.118531,120674.667,20761,3,PR,1,100,194749
1574868708.159711,120709.333,20761,3,PR,1,100,194731
1574868708.200891,120744.000,20761,3,PR,1,100,194746
1574868708.239299,120776.333,20778,3,PR,1,100,194754
1574868708.277708,120808.667,20778,3,PR,1,100,194752
1574868708.316116,120841.000,20778,3,PR,1,100,194762
1574868708.354129,120873.000,20796,3,PR,1,100,194772
1574868708.392141,120905.000,20796,3,PR,1,100,194768
1574868708.430153,120937.000,20796,3,PR,1,100,194780
1574868708.470146,120970.667,20812,3,PR,1,100,194785
1574868708.510138,121004.333,20812,3,PR,1,100,194780
1574868708.550130,121038.000,20812,3,PR,1,100,194762
1574868708.591706,121073.000,20830,3,PR,1,100,194791
1574868708.633282,121108.000,20830,3,PR,1,100,194775
1574868708.674858,121143.000,20830,3,PR,1,100,194728
1574868708.715642,121177.333,20848,3,PR,1,100,194697
1574868708.756427,121211.667,20848,3,PR,1,100,194671
1574868708.797211,121246.000,20848,3,PR,1,100,194665
1574868708.836807,121279.333,20866,3,PR,1,100,194725
1574868708.876403,121312.667,20866,3,PR,1,100,194759
1574868708.916000,121346.000,20866,3,PR,1,100,194779
1574868708.952230,121376.500,20884,4,PR,1,100,194750
1574868708.988461,121407.000,20884,4,PR,1,100,194720
1574868709.024691,121437.500,20884,4,PR,1,100,194706
1574868709.060922,121468.000,20884,4,PR,1,100,194696
1574868709.100914,121501.667,20903,3,PR,1,100,194686
1574868709.140906,121535.333,20903,3,PR,1,100,194739
1574868709.180899,121569.000,20903,3,PR,1,100,194785
1574868709.223069,121604.500,20921,2,PR,1,100,194820
1574868709.265239,121640.000,20921,2,PR,1,100,194842
1574868709.306023,121674.333,20939,3,PR,1,100,194842
1574868709.346807,121708.667,20939,3,PR,1,100,194805
1574868709.387591,121743.000,20939,3,PR,1,100,194788
1574868709.426198,121775.500,20956,4,PR,1,100,194738
1574868709.464804,121808.000,20956,4,PR,1,100,194731
1574868709.503410,121840.500,20956,4,PR,1,100,194717
1574868709.542017,121873.000,20956,4,PR,1,100,194725
1574868709.580821,121905.667,20974,3,PR,1,100,194738
1574868709.619625,121938.333,20974,3,PR,1,100,194748
1574868709.658430,121971.000,20974,3,PR,1,100,194741
1574868709.698224,122004.500,20992,2,PR,1,100,194760
1574868709.738018,122038.000,20992,2,PR,1,100,194764
1574868709.783554,122076.333,21008,3,PR,1,100,194768
1574868709.829089,122114.667,21008,3,PR,1,100,194767
1574868709.874625,122153.000,21008,3,PR,1,100,194769
1574868709.911450,122184.000,21026,3,PR,1,100,194769
1574868709.948274,122215.000,21026,3,PR,1,100,194781
1574868709.985099,122246.000,21026,3,PR,1,100,194823
1574868710.026675,122281.000,21045,3,PR,1,100,194831
1574868710.068251,122316.000,21045,3,PR,1,100,194875
1574868710.109827,122351.000,21045,3,PR,1,100,194897
1574868710.151007,122385.667,21063,3,PR,1,100,194831
1574868710.192187,122420.333,21063,3,PR,1,100,194793
1574868710.233367,122455.000,21063,3,PR,1,100,194768
1574868710.273756,122489.000,21081,3,PR,1,100,194762
1574868710.314144,122523.000,21081,3,PR,1,100,194761
1574868710.354532,122557.000,21081,3,PR,1,100,194761
1574868710.392940,122589.333,21099,3,PR,1,100,194774
1574868710.431349,122621.667,21099,3,PR,1,100,194764
1574868710.469757,122654.000,21099,3,PR,1,100,194760
1574868710.508561,122686.667,21117,3,PR,1,100,194757
1574868710.547366,122719.333,21117,3,PR,1,100,194768
1574868710.586170,122752.000,21117,3,PR,1,100,194784
1574868710.627746,122787.000,21134,3,PR,1,100,194791
1574868710.669322,122822.000,21134,3,PR,1,100,194798
1574868710.710898,122857.000,21134,3,PR,1,100,194805
1574868710.750890,122890.667,21152,3,PR,1,100,194834
1574868710.790883,122924.333,21152,3,PR,1,100,194855
1574868710.830875,122958.000,21152,3,PR,1,100,194858
1574868710.871659,122992.333,21168,3,PR,1,100,194840
1574868710.912443,123026.667,21168,3,PR,1,100,194769
1574868710.953228,123061.000,21168,3,PR,1,100,194742
1574868710.994408,123095.667,21187,3,PR,1,100,194729
1574868711.035588,123130.333,21187,3,PR,1,100,194709
1574868711.076768,123165.000,21187,3,PR,1,100,194711
1574868711.116760,123198.667,21205,3,PR,1,100,194730
1574868711.156752,123232.333,21205,3,PR,1,100,194739
1574868711.196744,123266.000,21205,3,PR,1,100,194728
1574868711.234361,123297.667,21223,3,PR,1,100,194731
1574868711.271977,123329.333,21223,3,PR,1,100,194734
1574868711.309594,123361.000,21223,3,PR,1,100,194737
1574868711.348398,123393.667,21241,3,PR,1,100,194752
1574868711.387203,123426.333,21241,3,PR,1,100,194762
1574868711.426007,123459.000,21241,3,PR,1,100,194756
1574868711.467187,123493.667,21259,3,PR,1,100,194759
1574868711.508367,123528.333,21259,3,PR,1,100,194762
1574868711.549547,123563.000,21259,3,PR,1,100,194759
1574868711.590727,123597.667,21277,3,PR,1,100,194762
1574868711.631907,123632.333,21277,3,PR,1,100,194742
1574868711.673088,123667.000,21277,3,PR,1,100,194736
1574868711.714268,123701.667,21294,3,PR,1,100,194734
1574868711.755448,123736.333,21294,3,PR,1,100,194724
1574868711.796628,123771.000,21294,3,PR,1,100,194735
1574868711.834640,123803.000,21312,3,PR,1,100,194726
1574868711.872653,123835.000,21312,3,PR,1,100,194730
1574868711.910665,123867.000,21312,3,PR,1,100,194729
1574868711.949865,123900.000,21333,5,PR,1,100,194713
1574868711.989066,123933.000,21333,5,PR,1,100,194725
1574868712.028266,123966.000,21333,5,PR,1,100,194717
1574868712.067466,123999.000,21333,5,PR,1,100,194721
1574868712.106667,124032.000,21333,5,PR,1,100,194731
1574868712.148243,124067.000,21354,3,PR,1,100,194734
1574868712.189819,124102.000,21354,3,PR,1,100,194739
1574868712.231395,124137.000,21354,3,PR,1,100,194746
1574868712.272971,124172.000,21372,3,PR,1,100,194762
1574868712.314547,124207.000,21372,3,PR,1,100,194768
1574868712.356123,124242.000,21372,3,PR,1,100,194740
1574868712.394928,124274.667,21389,3,PR,1,100,194725
1574868712.433732,124307.333,21389,3,PR,1,100,194698
1574868712.472536,124340.000,21389,3,PR,1,100,194694
1574868712.510153,124371.667,21407,3,PR,1,100,194684
1574868712.547769,124403.333,21407,3,PR,1,100,194689
1574868712.585386,124435.000,21407,3,PR,1,100,194650
1574868712.625774,124469.000,21425,3,PR,1,100,194649
1574868712.666162,124503.000,21425,3,PR,1,100,194654
1574868712.706550,124537.000,21425,3,PR,1,100,194730
1574868712.748126,124572.000,21441,3,PR,1,100,194748
