EpochTimestamp,EmotiBitTimestamp,PacketNumber,DataLength,TypeTag,ProtocolVersion,DataReliability,T0
1574867948.675608,336027.000,58918,1,T0,1,100,24.204
1574867948.817120,336146.000,58936,1,T0,1,100,24.273
1574867948.944362,336253.000,58954,1,T0,1,100,24.252
1574867949.073983,336362.000,58973,1,T0,1,100,24.241
1574867949.207171,336474.000,58990,1,T0,1,100,24.273
1574867949.343926,336589.000,59008,1,T0,1,100,24.231
1574867949.480682,336704.000,59042,1,T0,1,100,24.257
1574867949.606735,336810.000,59060,1,T0,1,100,24.220
1574867949.732788,336916.000,59078,1,T0,1,100,24.204
1574867949.869544,337031.000,59096,1,T0,1,100,24.241
1574867950.006299,337146.000,59115,1,T0,1,100,24.236
1574867950.134731,337254.000,59133,1,T0,1,100,24.257
1574867950.275054,337372.000,59151,1,T0,1,100,24.241
1574867950.414188,337489.000,59168,1,T0,1,100,24.231
1574867950.550943,337604.000,59202,1,T0,1,100,24.241
1574867950.692456,337723.000,59220,1,T0,1,100,24.268
1574867950.822076,337832.000,59238,1,T0,1,100,24.225
1574867950.946940,337937.000,59257,1,T0,1,100,24.247
1574867951.084885,338053.000,59275,1,T0,1,100,24.236
1574867951.221640,338168.000,59293,1,T0,1,100,24.295
1574867951.358396,338283.000,59311,1,T0,1,100,24.263
1574867951.485638,338390.000,59328,1,T0,1,100,24.220
1574867951.615259,338499.000,59346,1,T0,1,100,24.247
1574867951.749636,338612.000,59380,1,T0,1,100,24.220
1574867951.887581,338728.000,59398,1,T0,1,100,24.257
1574867952.021958,338841.000,59417,1,T0,1,100,24.241
1574867952.144443,338944.000,59435,1,T0,1,100,24.252
1574867952.278821,339057.000,59453,1,T0,1,100,24.257
1574867952.417954,339174.000,59471,1,T0,1,100,24.220
1574867952.554710,339289.000,59489,1,T0,1,100,24.273
1574867952.683141,339397.000,59506,1,T0,1,100,24.236
1574867952.812762,339506.000,59524,1,T0,1,100,24.252
1574867952.945950,339618.000,59542,1,T0,1,100,24.268
1574867953.085084,339735.000,59577,1,T0,1,100,24.241
1574867953.218272,339847.000,59595,1,T0,1,100,24.247
1574867953.343136,339952.000,59613,1,T0,1,100,24.241
1574867953.477513,340065.000,59631,1,T0,1,100,24.268
1574867953.611890,340178.000,59649,1,T0,1,100,24.252
1574867953.749835,340294.000,59667,1,T0,1,100,24.225
1574867953.881834,340405.000,59685,1,T0,1,100,24.263
1574867954.011455,340514.000,59703,1,T0,1,100,24.273
1574867954.137507,340620.000,59721,1,T0,1,100,24.279
1574867954.267128,340729.000,59739,1,T0,1,100,24.268
1574867954.402694,340843.000,59773,1,T0,1,100,24.220
1574867954.537072,340956.000,59791,1,T0,1,100,24.279
1574867954.670260,341068.000,59812,2,T0,1,100,24.220
1574867954.803448,341180.000,59812,2,T0,1,100,24.257
1574867954.930690,341287.000,59832,1,T0,1,100,24.214
1574867955.068635,341403.000,59867,1,T0,1,100,24.284
1574867955.207769,341520.000,59885,1,T0,1,100,24.263
1574867955.337389,341629.000,59903,1,T0,1,100,24.279
1574867955.465821,341737.000,59921,1,T0,1,100,24.257
1574867955.599009,341849.000,59939,1,T0,1,100,24.247
1574867955.732197,341961.000,59957,1,T0,1,100,24.257
1574867955.871331,342078.000,59975,1,T0,1,100,24.252
1574867956.000951,342187.000,59993,1,T0,1,100,24.290
1574867956.128193,342294.000,60011,1,T0,1,100,24.268
1574867956.263760,342408.000,60045,1,T0,1,100,24.273
1574867956.404083,342526.000,60063,1,T0,1,100,24.268
1574867956.540838,342641.000,60081,1,T0,1,100,24.284
1574867956.665702,342746.000,60099,1,T0,1,100,24.257
1574867956.796512,342856.000,60117,1,T0,1,100,24.252
1574867956.934457,342972.000,60135,1,T0,1,100,24.252
1574867957.072402,343088.000,60154,1,T0,1,100,24.279
1574867957.202022,343197.000,60171,1,T0,1,100,24.252
1574867957.326886,343302.000,60189,1,T0,1,100,24.257
1574867957.464831,343418.000,60223,1,T0,1,100,24.273
1574867957.602775,343534.000,60241,1,T0,1,100,24.273
1574867957.737153,343647.000,60259,1,T0,1,100,24.263
1574867957.875098,343763.000,60277,1,T0,1,100,24.252
1574867958.013042,343879.000,60296,1,T0,1,100,24.241
1574867958.137906,343984.000,60314,1,T0,1,100,24.263
1574867958.271094,344096.000,60332,1,T0,1,100,24.268
1574867958.409039,344212.000,60349,1,T0,1,100,24.279
1574867958.542227,344324.000,60367,1,T0,1,100,24.268
1574867958.681361,344441.000,60401,1,T0,1,100,24.284
1574867958.821684,344559.000,60419,1,T0,1,100,24.268
1574867958.945359,344663.000,60438,1,T0,1,100,24.290
1574867959.076168,344773.000,60456,1,T0,1,100,24.268
1574867959.210546,344886.000,60474,1,T0,1,100,24.241
1574867959.344923,344999.000,60492,1,T0,1,100,24.268
1574867959.482868,345115.000,60510,1,T0,1,100,24.290
1574867959.608921,345221.000,60527,1,T0,1,100,24.279
1574867959.737352,345329.000,60545,1,T0,1,100,24.263
1574867959.874108,345444.000,60579,1,T0,1,100,24.273
1574867960.013242,345561.000,60598,1,T0,1,100,24.252
1574867960.145240,345672.000,60616,1,T0,1,100,24.252
1574867960.272483,345779.000,60634,1,T0,1,100,24.231
1574867960.408049,345893.000,60652,1,T0,1,100,24.241
1574867960.547183,346010.000,60670,1,T0,1,100,24.295
1574867960.685128,346126.000,60688,1,T0,1,100,24.231
1574867960.808802,346230.000,60706,1,T0,1,100,24.268
1574867960.936044,346337.000,60729,1,T0,1,100,24.284
1574867961.076368,346455.000,60747,1,T0,1,100,24.268
1574867961.209556,346567.000,60765,1,T0,1,100,24.268
1574867961.343933,346680.000,60783,1,T0,1,100,24.279
1574867961.468797,346785.000,60800,1,T0,1,100,24.263
1574867961.600796,346896.000,60818,1,T0,1,100,24.284
1574867961.735173,347009.000,60836,1,T0,1,100,24.263
1574867961.875496,347127.000,60870,1,T0,1,100,24.295
1574867962.006306,347237.000,60889,1,T0,1,100,24.252
1574867962.147818,347356.000,60907,1,T0,1,100,24.257
1574867962.275060,347463.000,60925,1,T0,1,100,24.279
1574867962.405870,347573.000,60943,1,T0,1,100,24.279
1574867962.539058,347685.000,60961,1,T0,1,100,24.279
1574867962.679381,347803.000,60978,1,T0,1,100,24.279
1574867962.814948,347917.000,61013,1,T0,1,100,24.247
1574867962.938622,348021.000,61031,1,T0,1,100,24.284
1574867963.071810,348133.000,61049,1,T0,1,100,24.252
1574867963.207376,348247.000,61067,1,T0,1,100,24.273
1574867963.341754,348360.000,61085,1,T0,1,100,24.273
1574867963.474942,348472.000,61103,1,T0,1,100,24.295
1574867963.602184,348579.000,61121,1,T0,1,100,24.284
1574867963.737751,348693.000,61139,1,T0,1,100,24.220
1574867963.873317,348807.000,61157,1,T0,1,100,24.257
1574867964.014829,348926.000,61174,1,T0,1,100,24.284
1574867964.140882,349032.000,61209,1,T0,1,100,24.279
1574867964.272881,349143.000,61227,1,T0,1,100,24.268
1574867964.407258,349256.000,61245,1,T0,1,100,24.241
1574867964.545203,349372.000,61263,1,T0,1,100,24.273
1574867964.679580,349485.000,61281,1,T0,1,100,24.306
1574867964.804444,349590.000,61299,1,T0,1,100,24.295
1574867964.936443,349701.000,61317,1,T0,1,100,24.257
1574867965.075577,349818.000,61336,1,T0,1,100,24.247
1574867965.213522,349934.000,61353,1,T0,1,100,24.290
1574867965.343142,350043.000,61387,1,T0,1,100,24.241
1574867965.482276,350160.000,61405,1,T0,1,100,24.273
1574867965.608329,350266.000,61423,1,T0,1,100,24.236
1574867965.734382,350372.000,61441,1,T0,1,100,24.263
1574867965.873516,350489.000,61459,1,T0,1,100,24.273
1574867966.011461,350605.000,61478,1,T0,1,100,24.252
1574867966.145838,350718.000,61496,1,T0,1,100,24.290
1574867966.273080,350825.000,61514,1,T0,1,100,24.295
1574867966.403890,350935.000,61531,1,T0,1,100,24.284
1574867966.538267,351048.000,61549,1,T0,1,100,24.252
1574867966.677401,351165.000,61583,1,T0,1,100,24.252
1574867966.804643,351272.000,61604,2,T0,1,100,24.279
1574867966.931885,351379.000,61604,2,T0,1,100,24.300
1574867967.067452,351493.000,61625,1,T0,1,100,24.257
1574867967.205397,351609.000,61642,1,T0,1,100,24.241
1574867967.343342,351725.000,61676,1,T0,1,100,24.220
1574867967.468205,351830.000,61694,1,T0,1,100,24.273
1574867967.597826,351939.000,61712,1,T0,1,100,24.241
1574867967.735771,352055.000,61730,1,T0,1,100,24.263
1574867967.871337,352169.000,61748,1,T0,1,100,24.252
1574867968.005714,352282.000,61767,1,T0,1,100,24.273
1574867968.130578,352387.000,61785,1,T0,1,100,24.252
1574867968.266145,352501.000,61803,1,T0,1,100,24.209
1574867968.400522,352614.000,61820,1,T0,1,100,24.252
1574867968.538466,352730.000,61854,1,T0,1,100,24.263
1574867968.666898,352838.000,61872,1,T0,1,100,24.241
1574867968.795329,352946.000,61890,1,T0,1,100,24.268
1574867968.920193,353051.000,61909,1,T0,1,100,24.263
1574867969.053381,353163.000,61927,1,T0,1,100,24.257
1574867969.188947,353277.000,61945,1,T0,1,100,24.225
1574867969.323325,353390.000,61963,1,T0,1,100,24.225
1574867969.460080,353505.000,61981,1,T0,1,100,24.214
1574867969.587322,353612.000,61998,1,T0,1,100,24.236
1574867969.714565,353719.000,62016,1,T0,1,100,24.231
1574867969.853699,353836.000,62050,1,T0,1,100,24.306
1574867969.991643,353952.000,62069,1,T0,1,100,24.220
1574867970.120075,354060.000,62087,1,T0,1,100,24.257
1574867970.250885,354170.000,62105,1,T0,1,100,24.252
1574867970.384073,354282.000,62123,1,T0,1,100,24.279
1574867970.517261,354394.000,62141,1,T0,1,100,24.257
1574867970.658773,354513.000,62159,1,T0,1,100,24.220
1574867970.784826,354619.000,62176,1,T0,1,100,24.204
1574867970.914446,354728.000,62194,1,T0,1,100,24.231
1574867971.048824,354841.000,62213,1,T0,1,100,24.225
1574867971.187958,354958.000,62247,1,T0,1,100,24.236
1574867971.323524,355072.000,62265,1,T0,1,100,24.220
1574867971.448388,355177.000,62283,1,T0,1,100,24.241
1574867971.582765,355290.000,62301,1,T0,1,100,24.231
1574867971.720710,355406.000,62319,1,T0,1,100,24.231
1574867971.858655,355522.000,62337,1,T0,1,100,24.236
1574867971.984708,355628.000,62355,1,T0,1,100,24.247
1574867972.108382,355732.000,62373,1,T0,1,100,24.268
1574867972.247516,355849.000,62391,1,T0,1,100,24.231
1574867972.385461,355965.000,62425,1,T0,1,100,24.214
1574867972.522217,356080.000,62443,1,T0,1,100,24.220
1574867972.660161,356196.000,62461,1,T0,1,100,24.247
1574867972.795728,356310.000,62479,1,T0,1,100,24.252
1574867972.920592,356415.000,62500,1,T0,1,100,24.220
1574867973.056158,356529.000,62521,1,T0,1,100,24.231
1574867973.191725,356643.000,62539,1,T0,1,100,24.231
1574867973.327291,356757.000,62557,1,T0,1,100,24.252
1574867973.459290,356868.000,62575,1,T0,1,100,24.231
1574867973.585343,356974.000,62593,1,T0,1,100,24.241
1574867973.716152,357084.000,62611,1,T0,1,100,24.241
1574867973.854097,357200.000,62629,1,T0,1,100,24.273
1574867973.992042,357316.000,62647,1,T0,1,100,24.284
1574867974.115717,357420.000,62665,1,T0,1,100,24.236
1574867974.247715,357531.000,62699,1,T0,1,100,24.241
1574867974.382093,357644.000,62717,1,T0,1,100,24.225
1574867974.520037,357760.000,62735,1,T0,1,100,24.263
1574867974.654415,357873.000,62753,1,T0,1,100,24.241
1574867974.780468,357979.000,62771,1,T0,1,100,24.241
1574867974.913656,358091.000,62789,1,T0,1,100,24.247
1574867975.049222,358205.000,62808,1,T0,1,100,24.236
1574867975.188356,358322.000,62825,1,T0,1,100,24.241
1574867975.316787,358430.000,62843,1,T0,1,100,24.252
1574867975.444030,358537.000,62877,1,T0,1,100,24.257
1574867975.578407,358650.000,62895,1,T0,1,100,24.263
1574867975.715163,358765.000,62913,1,T0,1,100,24.263
1574867975.853107,358881.000,62931,1,T0,1,100,24.263
1574867975.977971,358986.000,62950,1,T0,1,100,24.236
1574867976.108781,359096.000,62968,1,T0,1,100,24.257
1574867976.245536,359211.000,62986,1,T0,1,100,24.231
1574867976.377535,359322.000,63004,1,T0,1,100,24.263
1574867976.511913,359435.000,63021,1,T0,1,100,24.225
1574867976.653425,359554.000,63055,1,T0,1,100,24.268
1574867976.784235,359664.000,63073,1,T0,1,100,24.247
1574867976.909098,359769.000,63092,1,T0,1,100,24.236
1574867977.047043,359885.000,63110,1,T0,1,100,24.236
1574867977.183799,360000.000,63128,1,T0,1,100,24.268
1574867977.319365,360114.000,63146,1,T0,1,100,24.263
1574867977.446607,360221.000,63164,1,T0,1,100,24.236
1574867977.575039,360329.000,63182,1,T0,1,100,24.279
1574867977.708227,360441.000,63199,1,T0,1,100,24.247
1574867977.846171,360557.000,63234,1,T0,1,100,24.252
1574867977.981738,360671.000,63252,1,T0,1,100,24.231
1574867978.107791,360777.000,63270,1,T0,1,100,24.273
1574867978.239790,360888.000,63288,1,T0,1,100,24.263
1574867978.377735,361004.000,63306,1,T0,1,100,24.279
1574867978.515679,361120.000,63324,1,T0,1,100,24.257
1574867978.645300,361229.000,63342,1,T0,1,100,24.252
1574867978.771353,361335.000,63360,1,T0,1,100,24.241
1574867978.908108,361450.000,63378,1,T0,1,100,24.252
1574867979.047242,361567.000,63399,1,T0,1,100,24.214
1574867979.182809,361681.000,63419,1,T0,1,100,24.252
1574867979.307673,361786.000,63437,1,T0,1,100,24.268
1574867979.439672,361897.000,63455,1,T0,1,100,24.252
1574867979.574049,362010.000,63473,1,T0,1,100,24.263
1574867979.711993,362126.000,63490,1,T0,1,100,24.252
1574867979.854695,362246.000,63524,1,T0,1,100,24.273
1574867979.992640,362362.000,63543,1,T0,1,100,24.273
1574867980.121071,362470.000,63561,1,T0,1,100,24.247
1574867980.251881,362580.000,63579,1,T0,1,100,24.225
1574867980.386258,362693.000,63597,1,T0,1,100,24.268
1574867980.519446,362805.000,63615,1,T0,1,100,24.257
1574867980.659769,362923.000,63633,1,T0,1,100,24.257
1574867980.787011,363030.000,63650,1,T0,1,100,24.257
1574867980.913064,363136.000,63668,1,T0,1,100,24.236
1574867981.051009,363252.000,63703,1,T0,1,100,24.257
1574867981.188954,363368.000,63721,1,T0,1,100,24.257
1574867981.320953,363479.000,63739,1,T0,1,100,24.252
1574867981.449384,363587.000,63757,1,T0,1,100,24.241
1574867981.580194,363697.000,63775,1,T0,1,100,24.263
1574867981.719328,363814.000,63793,1,T0,1,100,24.231
1574867981.856083,363929.000,63811,1,T0,1,100,24.257
1574867981.985704,364038.000,63828,1,T0,1,100,24.279
1574867982.112946,364145.000,63847,1,T0,1,100,24.290
1574867982.248513,364259.000,63881,1,T0,1,100,24.279
1574867982.388836,364377.000,63899,1,T0,1,100,24.284
1574867982.526781,364493.000,63917,1,T0,1,100,24.273
1574867982.650455,364597.000,63935,1,T0,1,100,24.279
1574867982.780076,364706.000,63953,1,T0,1,100,24.290
1574867982.918020,364822.000,63971,1,T0,1,100,24.247
1574867983.055965,364938.000,63990,1,T0,1,100,24.236
1574867983.185586,365047.000,64007,1,T0,1,100,24.279
1574867983.310450,365152.000,64025,1,T0,1,100,24.252
1574867983.443638,365264.000,64059,1,T0,1,100,24.252
1574867983.573258,365373.000,64077,1,T0,1,100,24.273
1574867983.704068,365483.000,64095,1,T0,1,100,24.273
1574867983.844391,365601.000,64113,1,T0,1,100,24.300
1574867983.983525,365718.000,64132,1,T0,1,100,24.290
1574867984.108389,365823.000,64150,1,T0,1,100,24.231
1574867984.241577,365935.000,64168,1,T0,1,100,24.316
1574867984.377143,366049.000,64186,1,T0,1,100,24.252
1574867984.511520,366162.000,64203,1,T0,1,100,24.290
1574867984.648276,366277.000,64237,1,T0,1,100,24.257
1574867984.774329,366383.000,64255,1,T0,1,100,24.263
1574867984.902760,366491.000,64274,1,T0,1,100,24.295
1574867985.041894,366608.000,64295,2,T0,1,100,24.268
1574867985.181028,366725.000,64295,2,T0,1,100,24.268
1574867985.310649,366834.000,64332,1,T0,1,100,24.279
1574867985.437891,366941.000,64349,1,T0,1,100,24.279
1574867985.574646,367056.000,64367,1,T0,1,100,24.295
1574867985.711402,367171.000,64385,1,T0,1,100,24.273
1574867985.849347,367287.000,64403,1,T0,1,100,24.268
1574867985.976589,367394.000,64422,1,T0,1,100,24.279
1574867986.105021,367502.000,64440,1,T0,1,100,24.268
1574867986.245344,367620.000,64458,1,T0,1,100,24.241
1574867986.379721,367733.000,64475,1,T0,1,100,24.263
1574867986.511720,367844.000,64510,1,T0,1,100,24.322
1574867986.637773,367950.000,64527,1,T0,1,100,24.273
1574867986.769772,368061.000,64545,1,T0,1,100,24.273
1574867986.907716,368177.000,64564,1,T0,1,100,24.247
1574867987.050418,368297.000,64582,1,T0,1,100,24.257
1574867987.183606,368409.000,64600,1,T0,1,100,24.332
1574867987.322740,368526.000,64618,1,T0,1,100,24.279
1574867987.449982,368633.000,64635,1,T0,1,100,24.290
1574867987.580792,368743.000,64653,1,T0,1,100,24.290
1574867987.713980,368855.000,64687,1,T0,1,100,24.273
1574867987.854303,368973.000,64705,1,T0,1,100,24.279
1574867987.989869,369087.000,64724,1,T0,1,100,24.257
1574867988.113544,369191.000,64742,1,T0,1,100,24.295
1574867988.247921,369304.000,64760,1,T0,1,100,24.306
1574867988.383488,369418.000,64778,1,T0,1,100,24.300
1574867988.517865,369531.000,64796,1,T0,1,100,24.284
1574867988.648674,369641.000,64813,1,T0,1,100,24.252
1574867988.774728,369747.000,64831,1,T0,1,100,24.295
1574867988.909105,369860.000,64849,1,T0,1,100,24.279
1574867989.044671,369974.000,64884,1,T0,1,100,24.284
1574867989.186183,370093.000,64902,1,T0,1,100,24.263
1574867989.311047,370198.000,64920,1,T0,1,100,24.295
1574867989.439479,370306.000,64938,1,T0,1,100,24.279
1574867989.578613,370423.000,64956,1,T0,1,100,24.263
1574867989.715368,370538.000,64974,1,T0,1,100,24.306
1574867989.847367,370649.000,64992,1,T0,1,100,24.279
1574867989.972231,370754.000,65010,1,T0,1,100,24.290
1574867990.105419,370866.000,65028,1,T0,1,100,24.290
1574867990.244553,370983.000,65062,1,T0,1,100,24.241
1574867990.380119,371097.000,65080,1,T0,1,100,24.273
1574867990.508551,371205.000,65098,1,T0,1,100,24.300
1574867990.642928,371318.000,65116,1,T0,1,100,24.279
1574867990.766603,371422.000,65134,1,T0,1,100,24.311
1574867990.893845,371529.000,65152,1,T0,1,100,24.295
1574867991.031790,371645.000,65171,1,T0,1,100,24.306
1574867991.169734,371761.000,65192,1,T0,1,100,24.316
1574867991.302922,371873.000,65212,1,T0,1,100,24.290
1574867991.431354,371981.000,65230,1,T0,1,100,24.311
1574867991.564542,372093.000,65248,1,T0,1,100,24.295
1574867991.698919,372206.000,65266,1,T0,1,100,24.284
1574867991.839242,372324.000,65284,1,T0,1,100,24.322
1574867991.967674,372432.000,65302,1,T0,1,100,24.284
1574867992.092537,372537.000,65320,1,T0,1,100,24.279
1574867992.229293,372652.000,65354,1,T0,1,100,24.273
1574867992.368427,372769.000,65372,1,T0,1,100,24.290
1574867992.502804,372882.000,65390,1,T0,1,100,24.300
1574867992.630046,372989.000,65408,1,T0,1,100,24.257
1574867992.760856,373099.000,65426,1,T0,1,100,24.300
1574867992.897612,373214.000,65444,1,T0,1,100,24.268
1574867993.033178,373328.000,65463,1,T0,1,100,24.295
1574867993.168744,373442.000,65480,1,T0,1,100,24.284
1574867993.293608,373547.000,65498,1,T0,1,100,24.327
1574867993.429175,373661.000,65533,1,T0,1,100,24.306
1574867993.563552,373774.000,14,1,T0,1,100,24.257
1574867993.701497,373890.000,32,1,T0,1,100,24.268
1574867993.828739,373997.000,50,1,T0,1,100,24.279
1574867993.954792,374103.000,69,1,T0,1,100,24.263
1574867994.090358,374217.000,87,1,T0,1,100,24.300
1574867994.229492,374334.000,105,1,T0,1,100,24.257
1574867994.368626,374451.000,123,1,T0,1,100,24.316
1574867994.506571,374567.000,140,1,T0,1,100,24.273
1574867994.642137,374681.000,174,1,T0,1,100,24.295
1574867994.769379,374788.000,192,1,T0,1,100,24.290
1574867994.897811,374896.000,211,1,T0,1,100,24.284
1574867995.036945,375013.000,229,1,T0,1,100,24.300
1574867995.177268,375131.000,247,1,T0,1,100,24.295
1574867995.304510,375238.000,265,1,T0,1,100,24.311
1574867995.434131,375347.000,283,1,T0,1,100,24.279
1574867995.567319,375459.000,301,1,T0,1,100,24.300
1574867995.701696,375572.000,318,1,T0,1,100,24.290
1574867995.842019,375690.000,352,1,T0,1,100,24.306
1574867995.969261,375797.000,371,1,T0,1,100,24.295
1574867996.094125,375902.000,389,1,T0,1,100,24.290
1574867996.232070,376018.000,407,1,T0,1,100,24.332
1574867996.372393,376136.000,425,1,T0,1,100,24.295
1574867996.505581,376248.000,443,1,T0,1,100,24.316
1574867996.630445,376353.000,461,1,T0,1,100,24.273
1574867996.764822,376466.000,479,1,T0,1,100,24.327
1574867996.902767,376582.000,496,1,T0,1,100,24.354
1574867997.041901,376699.000,531,1,T0,1,100,24.332
1574867997.167954,376805.000,552,2,T0,1,100,24.306
1574867997.294007,376911.000,552,2,T0,1,100,24.284
1574867997.434330,377029.000,572,1,T0,1,100,24.295
1574867997.568707,377142.000,589,1,T0,1,100,24.316
1574867997.705463,377257.000,623,1,T0,1,100,24.295
1574867997.829137,377361.000,641,1,T0,1,100,24.343
1574867997.963515,377474.000,660,1,T0,1,100,24.338
1574867998.088378,377579.000,678,1,T0,1,100,24.295
1574867998.223945,377693.000,696,1,T0,1,100,24.295
1574867998.360700,377808.000,714,1,T0,1,100,24.311
1574867998.497456,377923.000,732,1,T0,1,100,24.327
1574867998.627077,378032.000,750,1,T0,1,100,24.295
1574867998.756697,378141.000,768,1,T0,1,100,24.306
1574867998.887507,378251.000,785,1,T0,1,100,24.284
1574867999.030208,378371.000,820,1,T0,1,100,24.316
1574867999.166964,378486.000,838,1,T0,1,100,24.343
1574867999.301341,378599.000,856,1,T0,1,100,24.311
1574867999.434529,378711.000,874,1,T0,1,100,24.316
1574867999.560582,378817.000,892,1,T0,1,100,24.349
1574867999.690203,378926.000,910,1,T0,1,100,24.354
1574867999.828147,379042.000,928,1,T0,1,100,24.284
1574867999.967281,379159.000,946,1,T0,1,100,24.338
1574868000.095713,379267.000,964,1,T0,1,100,24.322
1574868000.224144,379375.000,998,1,T0,1,100,24.306
1574868000.360900,379490.000,1016,1,T0,1,100,24.327
1574868000.498844,379606.000,1034,1,T0,1,100,24.300
1574868000.634411,379720.000,1052,1,T0,1,100,24.306
1574868000.760464,379826.000,1070,1,T0,1,100,24.295
1574868000.892463,379937.000,1088,1,T0,1,100,24.354
1574868001.030407,380053.000,1107,1,T0,1,100,24.332
1574868001.164785,380166.000,1124,1,T0,1,100,24.300
1574868001.295594,380276.000,1142,1,T0,1,100,24.359
1574868001.422837,380383.000,1176,1,T0,1,100,24.290
1574868001.557214,380496.000,1194,1,T0,1,100,24.316
1574868001.695159,380612.000,1212,1,T0,1,100,24.316
1574868001.835482,380730.000,1230,1,T0,1,100,24.343
1574868001.965102,380839.000,1249,1,T0,1,100,24.343
1574868002.089966,380944.000,1267,1,T0,1,100,24.311
1574868002.229100,381061.000,1285,1,T0,1,100,24.322
1574868002.361099,381172.000,1303,1,T0,1,100,24.295
1574868002.495476,381285.000,1320,1,T0,1,100,24.332
1574868002.635799,381403.000,1354,1,T0,1,100,24.311
1574868002.767798,381514.000,1372,1,T0,1,100,24.338
1574868002.891473,381618.000,1391,1,T0,1,100,24.311
1574868003.027039,381732.000,1409,1,T0,1,100,24.359
1574868003.162606,381846.000,1427,1,T0,1,100,24.322
1574868003.298172,381960.000,1448,1,T0,1,100,24.343
1574868003.426603,382068.000,1468,1,T0,1,100,24.359
1574868003.555035,382176.000,1486,1,T0,1,100,24.343
1574868003.687034,382287.000,1504,1,T0,1,100,24.338
1574868003.823789,382402.000,1522,1,T0,1,100,24.349
1574868003.960545,382517.000,1541,1,T0,1,100,24.349
1574868004.086598,382623.000,1559,1,T0,1,100,24.354
1574868004.217407,382733.000,1577,1,T0,1,100,24.343
1574868004.355352,382849.000,1594,1,T0,1,100,24.359
1574868004.493297,382965.000,1612,1,T0,1,100,24.354
1574868004.625296,383076.000,1646,1,T0,1,100,24.332
1574868004.748971,383180.000,1664,1,T0,1,100,24.375
1574868004.884537,383294.000,1683,1,T0,1,100,24.332
1574868005.023671,383411.000,1701,1,T0,1,100,24.343
1574868005.159237,383525.000,1719,1,T0,1,100,24.343
1574868005.285290,383631.000,1737,1,T0,1,100,24.343
1574868005.416100,383741.000,1755,1,T0,1,100,24.370
1574868005.551666,383855.000,1773,1,T0,1,100,24.332
1574868005.686044,383968.000,1790,1,T0,1,100,24.354
1574868005.828745,384088.000,1824,1,T0,1,100,24.365
1574868005.966690,384204.000,1843,1,T0,1,100,24.381
1574868006.096311,384313.000,1861,1,T0,1,100,24.375
1574868006.224742,384421.000,1879,1,T0,1,100,24.365
1574868006.359119,384534.000,1897,1,T0,1,100,24.370
1574868006.492307,384646.000,1915,1,T0,1,100,24.343
1574868006.633820,384765.000,1933,1,T0,1,100,24.343
1574868006.761062,384872.000,1950,1,T0,1,100,24.359
1574868006.887115,384978.000,1968,1,T0,1,100,24.370
1574868007.023870,385093.000,2003,1,T0,1,100,24.397
1574868007.161815,385209.000,2021,1,T0,1,100,24.370
1574868007.295003,385321.000,2039,1,T0,1,100,24.381
1574868007.422245,385428.000,2057,1,T0,1,100,24.327
1574868007.554244,385539.000,2075,1,T0,1,100,24.381
1574868007.693378,385656.000,2093,1,T0,1,100,24.343
1574868007.830134,385771.000,2111,1,T0,1,100,24.370
1574868007.962132,385882.000,2128,1,T0,1,100,24.338
1574868008.086996,385987.000,2147,1,T0,1,100,24.370
1574868008.223752,386102.000,2181,1,T0,1,100,24.365
1574868008.358129,386215.000,2199,1,T0,1,100,24.354
1574868008.496074,386331.000,2217,1,T0,1,100,24.349
1574868008.620938,386436.000,2235,1,T0,1,100,24.349
1574868008.749369,386544.000,2253,1,T0,1,100,24.359
1574868008.884936,386658.000,2271,1,T0,1,100,24.375
1574868009.022880,386774.000,2290,1,T0,1,100,24.354
1574868009.159636,386889.000,2307,1,T0,1,100,24.397
1574868009.297581,387005.000,2325,1,T0,1,100,24.386
1574868009.428391,387115.000,2346,1,T0,1,100,24.354
1574868009.556822,387223.000,2366,1,T0,1,100,24.370
1574868009.687631,387333.000,2384,1,T0,1,100,24.391
1574868009.826766,387450.000,2402,1,T0,1,100,24.327
1574868009.965899,387567.000,2419,1,T0,1,100,24.386
1574868010.090763,387672.000,2454,1,T0,1,100,24.343
1574868010.221573,387782.000,2472,1,T0,1,100,24.375
1574868010.355950,387895.000,2490,1,T0,1,100,24.375
1574868010.490327,388008.000,2508,1,T0,1,100,24.381
1574868010.628272,388124.000,2526,1,T0,1,100,24.402
1574868010.754325,388230.000,2544,1,T0,1,100,24.381
1574868010.882756,388338.000,2562,1,T0,1,100,24.386
1574868011.019512,388453.000,2581,1,T0,1,100,24.386
1574868011.158646,388570.000,2598,1,T0,1,100,24.375
1574868011.290645,388681.000,2632,1,T0,1,100,24.386
1574868011.417887,388788.000,2650,1,T0,1,100,24.381
1574868011.553453,388902.000,2668,1,T0,1,100,24.349
1574868011.692587,389019.000,2686,1,T0,1,100,24.365
1574868011.830532,389135.000,2704,1,T0,1,100,24.349
1574868011.957774,389242.000,2723,1,T0,1,100,24.418
1574868012.085016,389349.000,2741,1,T0,1,100,24.359
1574868012.225340,389467.000,2759,1,T0,1,100,24.434
1574868012.359717,389580.000,2776,1,T0,1,100,24.397
1574868012.494094,389693.000,2810,1,T0,1,100,24.375
1574868012.620147,389799.000,2828,1,T0,1,100,24.397
1574868012.756903,389914.000,2846,1,T0,1,100,24.445
1574868012.881767,390019.000,2865,1,T0,1,100,24.375
1574868013.020900,390136.000,2883,1,T0,1,100,24.375
1574868013.157656,390251.000,2901,1,T0,1,100,24.375
1574868013.295601,390367.000,2919,1,T0,1,100,24.413
1574868013.422843,390474.000,2937,1,T0,1,100,24.408
1574868013.553653,390584.000,2954,1,T0,1,100,24.386
1574868013.686841,390696.000,2972,1,T0,1,100,24.413
1574868013.827164,390814.000,3006,1,T0,1,100,24.338
1574868013.962730,390928.000,3025,1,T0,1,100,24.375
1574868014.086405,391032.000,3043,1,T0,1,100,24.391
1574868014.219593,391144.000,3061,1,T0,1,100,24.408
1574868014.355160,391258.000,3079,1,T0,1,100,24.391
1574868014.489537,391371.000,3097,1,T0,1,100,24.375
1574868014.622725,391483.000,3115,1,T0,1,100,24.375
1574868014.748778,391589.000,3132,1,T0,1,100,24.370
1574868014.884344,391703.000,3150,1,T0,1,100,24.386
1574868015.019911,391817.000,3185,1,T0,1,100,24.391
1574868015.161423,391936.000,3203,1,T0,1,100,24.440
1574868015.287476,392042.000,3221,1,T0,1,100,24.413
1574868015.420069,392153.500,3242,2,T0,1,100,24.413
1574868015.552663,392265.000,3242,2,T0,1,100,24.413
1574868015.690608,392381.000,3278,1,T0,1,100,24.391
1574868015.824985,392494.000,3296,1,T0,1,100,24.467
1574868015.949849,392599.000,3315,1,T0,1,100,24.397
1574868016.081848,392710.000,3333,1,T0,1,100,24.391
1574868016.220982,392827.000,3351,1,T0,1,100,24.461
1574868016.360116,392944.000,3369,1,T0,1,100,24.391
1574868016.495682,393058.000,3387,1,T0,1,100,24.397
1574868016.633627,393174.000,3404,1,T0,1,100,24.424
1574868016.760869,393281.000,3422,1,T0,1,100,24.429
1574868016.886922,393387.000,3457,1,T0,1,100,24.418
1574868017.026056,393504.000,3475,1,T0,1,100,24.424
1574868017.164001,393620.000,3493,1,T0,1,100,24.408
1574868017.298378,393733.000,3511,1,T0,1,100,24.440
1574868017.425620,393840.000,3529,1,T0,1,100,24.391
1574868017.556430,393950.000,3547,1,T0,1,100,24.418
1574868017.690807,394063.000,3565,1,T0,1,100,24.391
1574868017.829941,394180.000,3582,1,T0,1,100,24.434
1574868017.960751,394290.000,3600,1,T0,1,100,24.397
1574868018.084425,394394.000,3635,1,T0,1,100,24.386
1574868018.219992,394508.000,3653,1,T0,1,100,24.391
1574868018.357936,394624.000,3671,1,T0,1,100,24.434
1574868018.497070,394741.000,3689,1,T0,1,100,24.424
1574868018.621934,394846.000,3707,1,T0,1,100,24.386
1574868018.751555,394955.000,3725,1,T0,1,100,24.413
1574868018.889499,395071.000,3743,1,T0,1,100,24.450
1574868019.025066,395185.000,3762,1,T0,1,100,24.418
1574868019.160632,395299.000,3779,1,T0,1,100,24.424
1574868019.285496,395404.000,3814,1,T0,1,100,24.424
1574868019.421062,395518.000,3831,1,T0,1,100,24.418
1574868019.555440,395631.000,3849,1,T0,1,100,24.429
1574868019.693385,395747.000,3867,1,T0,1,100,24.413
1574868019.821816,395855.000,3885,1,T0,1,100,24.397
1574868019.947869,395961.000,3904,1,T0,1,100,24.424
1574868020.084625,396076.000,3922,1,T0,1,100,24.456
1574868020.227326,396196.000,3940,1,T0,1,100,24.445
1574868020.364082,396311.000,3957,1,T0,1,100,24.408
1574868020.498459,396424.000,3991,1,T0,1,100,24.450
1574868020.635214,396539.000,4009,1,T0,1,100,24.397
1574868020.762457,396646.000,4027,1,T0,1,100,24.440
1574868020.889699,396753.000,4046,1,T0,1,100,24.402
1574868021.028833,396870.000,4064,1,T0,1,100,24.413
1574868021.167967,396987.000,4082,1,T0,1,100,24.445
1574868021.296398,397095.000,4100,1,T0,1,100,24.472
1574868021.427208,397205.000,4117,1,T0,1,100,24.450
1574868021.560396,397317.000,4138,1,T0,1,100,24.434
1574868021.693584,397429.000,4158,1,T0,1,100,24.397
1574868021.833907,397547.000,4176,1,T0,1,100,24.472
1574868021.961149,397654.000,4195,1,T0,1,100,24.397
1574868022.089581,397762.000,4213,1,T0,1,100,24.440
1574868022.225147,397876.000,4230,1,T0,1,100,24.450
1574868022.365470,397994.000,4264,1,T0,1,100,24.424
1574868022.499847,398107.000,4282,1,T0,1,100,24.429
1574868022.624711,398212.000,4300,1,T0,1,100,24.467
1574868022.759088,398325.000,4318,1,T0,1,100,24.440
1574868022.897033,398441.000,4336,1,T0,1,100,24.467
1574868023.034978,398557.000,4355,1,T0,1,100,24.472
1574868023.161031,398663.000,4373,1,T0,1,100,24.509
1574868023.284705,398767.000,4391,1,T0,1,100,24.445
1574868023.425029,398885.000,4408,1,T0,1,100,24.456
1574868023.558217,398997.000,4442,1,T0,1,100,24.504
1574868023.696162,399113.000,4460,1,T0,1,100,24.515
1574868023.831728,399227.000,4478,1,T0,1,100,24.483
1574868023.964916,399339.000,4497,1,T0,1,100,24.450
1574868024.089780,399444.000,4515,1,T0,1,100,24.434
1574868024.225346,399558.000,4533,1,T0,1,100,24.429
1574868024.360913,399672.000,4551,1,T0,1,100,24.456
1574868024.496479,399786.000,4569,1,T0,1,100,24.461
1574868024.628478,399897.000,4586,1,T0,1,100,24.445
1574868024.756909,400005.000,4604,1,T0,1,100,24.445
1574868024.887719,400115.000,4639,1,T0,1,100,24.434
1574868025.025664,400231.000,4657,1,T0,1,100,24.440
1574868025.165987,400349.000,4675,1,T0,1,100,24.450
1574868025.288472,400452.000,4693,1,T0,1,100,24.477
1574868025.419282,400562.000,4711,1,T0,1,100,24.418
1574868025.554848,400676.000,4729,1,T0,1,100,24.472
1574868025.691604,400791.000,4747,1,T0,1,100,24.461
1574868025.825981,400904.000,4764,1,T0,1,100,24.450
1574868025.953223,401011.000,4782,1,T0,1,100,24.445
1574868026.082844,401120.000,4817,1,T0,1,100,24.467
1574868026.218410,401234.000,4835,1,T0,1,100,24.445
1574868026.359923,401353.000,4853,1,T0,1,100,24.450
1574868026.488354,401461.000,4871,1,T0,1,100,24.413
1574868026.614407,401567.000,4889,1,T0,1,100,24.456
1574868026.748784,401680.000,4907,1,T0,1,100,24.472
1574868026.885540,401795.000,4925,1,T0,1,100,24.488
1574868027.023485,401911.000,4944,1,T0,1,100,24.483
1574868027.148348,402016.000,4961,1,T0,1,100,24.402
1574868027.276780,402124.000,4979,1,T0,1,100,24.440
1574868027.413535,402239.000,5013,1,T0,1,100,24.418
1574868027.547913,402352.000,5034,2,T0,1,100,24.456
1574868027.682290,402465.000,5034,2,T0,1,100,24.477
1574868027.823802,402584.000,5052,1,T0,1,100,24.472
1574868027.954612,402694.000,5089,1,T0,1,100,24.493
1574868028.079476,402799.000,5107,1,T0,1,100,24.477
1574868028.218610,402916.000,5125,1,T0,1,100,24.440
1574868028.350609,403027.000,5143,1,T0,1,100,24.483
1574868028.483797,403139.000,5161,1,T0,1,100,24.483
1574868028.624120,403257.000,5179,1,T0,1,100,24.434
1574868028.757308,403369.000,5197,1,T0,1,100,24.493
1574868028.880982,403473.000,5215,1,T0,1,100,24.520
1574868029.015360,403586.000,5233,1,T0,1,100,24.461
1574868029.150926,403700.000,5251,1,T0,1,100,24.450
1574868029.286492,403814.000,5285,1,T0,1,100,24.499
1574868029.416113,403923.000,5303,1,T0,1,100,24.461
1574868029.544544,404031.000,5321,1,T0,1,100,24.461
1574868029.680111,404145.000,5339,1,T0,1,100,24.493
1574868029.815677,404259.000,5357,1,T0,1,100,24.477
1574868029.954811,404376.000,5376,1,T0,1,100,24.456
1574868030.080864,404482.000,5394,1,T0,1,100,24.493
1574868030.211674,404592.000,5411,1,T0,1,100,24.488
1574868030.349619,404708.000,5429,1,T0,1,100,24.477
1574868030.487563,404824.000,5463,1,T0,1,100,24.445
1574868030.618373,404934.000,5481,1,T0,1,100,24.477
1574868030.743237,405039.000,5499,1,T0,1,100,24.461
1574868030.876425,405151.000,5518,1,T0,1,100,24.493
1574868031.015559,405268.000,5536,1,T0,1,100,24.456
1574868031.151125,405382.000,5554,1,T0,1,100,24.483
1574868031.280746,405491.000,5572,1,T0,1,100,24.483
1574868031.413934,405603.000,5590,1,T0,1,100,24.456
1574868031.539987,405709.000,5607,1,T0,1,100,24.509
1574868031.667229,405816.000,5625,1,T0,1,100,24.467
1574868031.805174,405932.000,5659,1,T0,1,100,24.461
1574868031.943119,406048.000,5678,1,T0,1,100,24.450
1574868032.075118,406159.000,5696,1,T0,1,100,24.504
1574868032.203549,406267.000,5714,1,T0,1,100,24.493
1574868032.336737,406379.000,5732,1,T0,1,100,24.450
1574868032.471114,406492.000,5750,1,T0,1,100,24.440
1574868032.611437,406610.000,5768,1,T0,1,100,24.483
1574868032.739869,406718.000,5785,1,T0,1,100,24.461
1574868032.864733,406823.000,5803,1,T0,1,100,24.456
1574868033.001488,406938.000,5838,1,T0,1,100,24.488
1574868033.138244,407053.000,5856,1,T0,1,100,24.461
1574868033.276188,407169.000,5874,1,T0,1,100,24.493
1574868033.401052,407274.000,5892,1,T0,1,100,24.461
1574868033.530673,407383.000,5910,1,T0,1,100,24.493
1574868033.668617,407499.000,5931,1,T0,1,100,24.499
1574868033.804184,407613.000,5951,1,T0,1,100,24.526
1574868033.937372,407725.000,5970,1,T0,1,100,24.499
1574868034.061047,407829.000,5988,1,T0,1,100,24.461
1574868034.198991,407945.000,6006,1,T0,1,100,24.509
1574868034.332180,408057.000,6024,1,T0,1,100,24.526
1574868034.470124,408173.000,6042,1,T0,1,100,24.515
1574868034.596177,408279.000,6060,1,T0,1,100,24.456
1574868034.723419,408386.000,6077,1,T0,1,100,24.504
1574868034.858986,408500.000,6095,1,T0,1,100,24.488
1574868035.001687,408620.000,6130,1,T0,1,100,24.467
1574868035.139632,408736.000,6148,1,T0,1,100,24.520
1574868035.274009,408849.000,6166,1,T0,1,100,24.499
1574868035.408386,408962.000,6184,1,T0,1,100,24.472
1574868035.536818,409070.000,6202,1,T0,1,100,24.488
1574868035.666438,409179.000,6220,1,T0,1,100,24.483
1574868035.805572,409296.000,6238,1,T0,1,100,24.499
1574868035.944706,409413.000,6255,1,T0,1,100,24.472
1574868036.069570,409518.000,6290,1,T0,1,100,24.488
1574868036.200380,409628.000,6308,1,T0,1,100,24.509
1574868036.334757,409741.000,6326,1,T0,1,100,24.472
1574868036.469134,409854.000,6344,1,T0,1,100,24.461
1574868036.608268,409971.000,6362,1,T0,1,100,24.515
1574868036.734321,410077.000,6380,1,T0,1,100,24.499
1574868036.866320,410188.000,6398,1,T0,1,100,24.483
1574868037.000697,410301.000,6417,1,T0,1,100,24.461
1574868037.139831,410418.000,6434,1,T0,1,100,24.483
1574868037.273019,410530.000,6468,1,T0,1,100,24.488
1574868037.399072,410636.000,6486,1,T0,1,100,24.467
1574868037.532260,410748.000,6504,1,T0,1,100,24.488
1574868037.671394,410865.000,6522,1,T0,1,100,24.493
1574868037.809339,410981.000,6540,1,T0,1,100,24.493
1574868037.934203,411086.000,6559,1,T0,1,100,24.483
1574868038.060256,411192.000,6577,1,T0,1,100,24.504
1574868038.200579,411310.000,6595,1,T0,1,100,24.483
1574868038.334956,411423.000,6612,1,T0,1,100,24.488
1574868038.470523,411537.000,6646,1,T0,1,100,24.493
1574868038.606089,411651.000,6664,1,T0,1,100,24.493
1574868038.735710,411760.000,6682,1,T0,1,100,24.483
1574868038.859384,411864.000,6701,1,T0,1,100,24.493
1574868038.996140,411979.000,6719,1,T0,1,100,24.488
1574868039.132895,412094.000,6737,1,T0,1,100,24.472
1574868039.270840,412210.000,6755,1,T0,1,100,24.509
1574868039.399272,412318.000,6773,1,T0,1,100,24.477
1574868039.530081,412428.000,6790,1,T0,1,100,24.477
1574868039.660891,412538.000,6808,1,T0,1,100,24.520
1574868039.797647,412653.000,6827,1,T0,1,100,24.499
1574868039.934402,412768.000,6850,1,T0,1,100,24.440
1574868040.058077,412872.000,6868,1,T0,1,100,24.526
1574868040.190076,412983.000,6886,1,T0,1,100,24.499
1574868040.325642,413097.000,6903,1,T0,1,100,24.483
1574868040.463587,413213.000,6937,1,T0,1,100,24.499
1574868040.595586,413324.000,6955,1,T0,1,100,24.526
1574868040.721639,413430.000,6973,1,T0,1,100,24.488
1574868040.854827,413542.000,6992,1,T0,1,100,24.472
1574868040.990393,413656.000,7010,1,T0,1,100,24.499
1574868041.131906,413775.000,7028,1,T0,1,100,24.467
1574868041.259148,413882.000,7046,1,T0,1,100,24.493
1574868041.389957,413992.000,7064,1,T0,1,100,24.477
1574868041.524335,414105.000,7081,1,T0,1,100,24.483
1574868041.662280,414221.000,7115,1,T0,1,100,24.515
1574868041.797846,414335.000,7133,1,T0,1,100,24.520
1574868041.921520,414439.000,7152,1,T0,1,100,24.504
1574868042.051141,414548.000,7170,1,T0,1,100,24.499
1574868042.187897,414663.000,7188,1,T0,1,100,24.515
1574868042.322274,414776.000,7206,1,T0,1,100,24.552
1574868042.460219,414892.000,7224,1,T0,1,100,24.520
1574868042.601731,415011.000,7242,1,T0,1,100,24.472
1574868042.730162,415119.000,7259,1,T0,1,100,24.499
1574868042.855026,415224.000,7277,1,T0,1,100,24.536
1574868042.992971,415340.000,7312,1,T0,1,100,24.472
1574868043.129726,415455.000,7330,1,T0,1,100,24.536
1574868043.265293,415569.000,7348,1,T0,1,100,24.504
1574868043.392535,415676.000,7366,1,T0,1,100,24.515
1574868043.523345,415786.000,7384,1,T0,1,100,24.509
1574868043.657722,415899.000,7402,1,T0,1,100,24.504
1574868043.795667,416015.000,7420,1,T0,1,100,24.515
1574868043.927666,416126.000,7438,1,T0,1,100,24.509
1574868044.053719,416232.000,7456,1,T0,1,100,24.509
1574868044.188096,416345.000,7490,1,T0,1,100,24.542
1574868044.327230,416462.000,7508,1,T0,1,100,24.520
1574868044.465175,416578.000,7526,1,T0,1,100,24.536
1574868044.592417,416685.000,7544,1,T0,1,100,24.531
1574868044.723227,416795.000,7562,1,T0,1,100,24.509
1574868044.857604,416908.000,7580,1,T0,1,100,24.488
1574868044.996738,417025.000,7599,1,T0,1,100,24.499
1574868045.128736,417136.000,7616,1,T0,1,100,24.515
1574868045.253600,417241.000,7634,1,T0,1,100,24.520
1574868045.387978,417354.000,7668,1,T0,1,100,24.526
1574868045.522355,417467.000,7686,1,T0,1,100,24.509
1574868045.660300,417583.000,7704,1,T0,1,100,24.531
1574868045.798839,417699.500,7725,2,T0,1,100,24.515
1574868045.937378,417816.000,7725,2,T0,1,100,24.520
1574868046.062242,417921.000,7762,1,T0,1,100,24.531
1574868046.191863,418030.000,7780,1,T0,1,100,24.526
1574868046.327429,418144.000,7798,1,T0,1,100,24.504
1574868046.461806,418257.000,7816,1,T0,1,100,24.542
1574868046.599751,418373.000,7834,1,T0,1,100,24.504
1574868046.726993,418480.000,7852,1,T0,1,100,24.526
1574868046.855425,418588.000,7870,1,T0,1,100,24.493
1574868046.992180,418703.000,7889,1,T0,1,100,24.563
1574868047.130125,418819.000,7906,1,T0,1,100,24.520
1574868047.259746,418928.000,7940,1,T0,1,100,24.472
1574868047.388177,419036.000,7958,1,T0,1,100,24.542
1574868047.521365,419148.000,7976,1,T0,1,100,24.477
1574868047.658121,419263.000,7994,1,T0,1,100,24.558
1574868047.796065,419379.000,8012,1,T0,1,100,24.509
1574868047.925686,419488.000,8031,1,T0,1,100,24.542
1574868048.052928,419595.000,8049,1,T0,1,100,24.542
1574868048.188494,419709.000,8067,1,T0,1,100,24.504
1574868048.328818,419827.000,8084,1,T0,1,100,24.515
1574868048.464384,419941.000,8118,1,T0,1,100,24.563
1574868048.589248,420046.000,8136,1,T0,1,100,24.493
1574868048.720057,420156.000,8154,1,T0,1,100,24.509
1574868048.858002,420272.000,8173,1,T0,1,100,24.515
1574868048.995947,420388.000,8191,1,T0,1,100,24.552
1574868049.124378,420496.000,8209,1,T0,1,100,24.547
1574868049.249242,420601.000,8227,1,T0,1,100,24.536
1574868049.388376,420718.000,8245,1,T0,1,100,24.520
1574868049.526321,420834.000,8262,1,T0,1,100,24.558
1574868049.661887,420948.000,8296,1,T0,1,100,24.558
1574868049.802211,421066.000,8314,1,T0,1,100,24.520
1574868049.938966,421181.000,8333,1,T0,1,100,24.579
1574868050.063830,421286.000,8351,1,T0,1,100,24.531
1574868050.198207,421399.000,8369,1,T0,1,100,24.504
1574868050.334963,421514.000,8387,1,T0,1,100,24.563
1574868050.469340,421627.000,8405,1,T0,1,100,24.558
1574868050.602528,421739.000,8422,1,T0,1,100,24.515
1574868050.729770,421846.000,8440,1,T0,1,100,24.542
1574868050.858202,421954.000,8476,1,T0,1,100,24.563
1574868050.996146,422070.000,8493,1,T0,1,100,24.563
1574868051.137659,422189.000,8511,1,T0,1,100,24.515
1574868051.261333,422293.000,8529,1,T0,1,100,24.483
1574868051.390954,422402.000,8547,1,T0,1,100,24.536
1574868051.528899,422518.000,8565,1,T0,1,100,24.531
1574868051.665654,422633.000,8583,1,T0,1,100,24.552
1574868051.801221,422747.000,8600,1,T0,1,100,24.563
1574868051.928463,422854.000,8621,1,T0,1,100,24.536
1574868052.058083,422963.000,8642,1,T0,1,100,24.574
1574868052.196028,423079.000,8660,1,T0,1,100,24.558
1574868052.331594,423193.000,8678,1,T0,1,100,24.520
1574868052.462404,423303.000,8696,1,T0,1,100,24.520
1574868052.588457,423409.000,8713,1,T0,1,100,24.595
1574868052.722834,423522.000,8731,1,T0,1,100,24.536
1574868052.860779,423638.000,8766,1,T0,1,100,24.542
1574868052.998724,423754.000,8784,1,T0,1,100,24.520
1574868053.127155,423862.000,8802,1,T0,1,100,24.509
1574868053.260343,423974.000,8820,1,T0,1,100,24.547
1574868053.387586,424081.000,8838,1,T0,1,100,24.574
1574868053.519584,424192.000,8856,1,T0,1,100,24.542
1574868053.653962,424305.000,8874,1,T0,1,100,24.568
1574868053.794285,424423.000,8892,1,T0,1,100,24.585
1574868053.926284,424534.000,8909,1,T0,1,100,24.558
1574868054.049958,424638.000,8944,1,T0,1,100,24.585
1574868054.187903,424754.000,8962,1,T0,1,100,24.595
1574868054.318713,424864.000,8980,1,T0,1,100,24.568
1574868054.451901,424976.000,8998,1,T0,1,100,24.558
1574868054.589846,425092.000,9016,1,T0,1,100,24.590
1574868054.724223,425205.000,9034,1,T0,1,100,24.579
1574868054.847898,425309.000,9052,1,T0,1,100,24.568
1574868054.981086,425421.000,9071,1,T0,1,100,24.547
1574868055.115463,425534.000,9088,1,T0,1,100,24.558
1574868055.253407,425650.000,9122,1,T0,1,100,24.526
1574868055.383028,425759.000,9140,1,T0,1,100,24.552
1574868055.510270,425866.000,9158,1,T0,1,100,24.595
1574868055.645837,425980.000,9176,1,T0,1,100,24.536
1574868055.781403,426094.000,9194,1,T0,1,100,24.552
1574868055.921726,426212.000,9213,1,T0,1,100,24.579
1574868056.047779,426318.000,9231,1,T0,1,100,24.579
1574868056.179778,426429.000,9249,1,T0,1,100,24.558
1574868056.314155,426542.000,9266,1,T0,1,100,24.574
1574868056.452100,426658.000,9284,1,T0,1,100,24.542
1574868056.585288,426770.000,9318,1,T0,1,100,24.585
1574868056.710152,426875.000,9336,1,T0,1,100,24.536
1574868056.843340,426987.000,9355,1,T0,1,100,24.542
1574868056.982474,427104.000,9373,1,T0,1,100,24.558
1574868057.121608,427221.000,9391,1,T0,1,100,24.552
1574868057.250039,427329.000,9409,1,T0,1,100,24.568
1574868057.387984,427445.000,9427,1,T0,1,100,24.558
1574868057.514037,427551.000,9444,1,T0,1,100,24.563
1574868057.640090,427657.000,9462,1,T0,1,100,24.558
1574868057.779224,427774.000,9496,1,T0,1,100,24.536
1574868057.914196,427887.500,9518,2,T0,1,100,24.568
1574868058.049168,428001.000,9518,2,T0,1,100,24.601
1574868058.177599,428109.000,9538,1,T0,1,100,24.579
1574868058.308409,428219.000,9555,1,T0,1,100,24.568
1574868058.442786,428332.000,9589,1,T0,1,100,24.552
1574868058.581920,428449.000,9607,1,T0,1,100,24.611
1574868058.711540,428558.000,9625,1,T0,1,100,24.595
1574868058.839972,428666.000,9644,1,T0,1,100,24.585
1574868058.974349,428779.000,9662,1,T0,1,100,24.585
1574868059.112294,428895.000,9680,1,T0,1,100,24.568
1574868059.250239,429011.000,9698,1,T0,1,100,24.579
1574868059.375102,429116.000,9716,1,T0,1,100,24.590
1574868059.504723,429225.000,9733,1,T0,1,100,24.585
1574868059.642668,429341.000,9751,1,T0,1,100,24.568
1574868059.780612,429457.000,9785,1,T0,1,100,24.558
1574868059.911422,429567.000,9804,1,T0,1,100,24.611
1574868060.036286,429672.000,9822,1,T0,1,100,24.579
1574868060.173042,429787.000,9840,1,T0,1,100,24.574
1574868060.307419,429900.000,9858,1,T0,1,100,24.579
1574868060.445364,430016.000,9876,1,T0,1,100,24.590
1574868060.574984,430125.000,9894,1,T0,1,100,24.595
1574868060.703415,430233.000,9911,1,T0,1,100,24.574
1574868060.828279,430338.000,9929,1,T0,1,100,24.574
1574868060.961467,430450.000,9948,1,T0,1,100,24.595
1574868061.098223,430565.000,9982,1,T0,1,100,24.606
1574868061.232600,430678.000,10000,1,T0,1,100,24.590
1574868061.368167,430792.000,10018,1,T0,1,100,24.568
1574868061.496598,430900.000,10036,1,T0,1,100,24.590
1574868061.623840,431007.000,10054,1,T0,1,100,24.579
1574868061.761785,431123.000,10072,1,T0,1,100,24.574
1574868061.900919,431240.000,10091,1,T0,1,100,24.590
1574868062.028161,431347.000,10108,1,T0,1,100,24.568
1574868062.158971,431457.000,10126,1,T0,1,100,24.601
1574868062.292159,431569.000,10160,1,T0,1,100,24.574
1574868062.425347,431681.000,10178,1,T0,1,100,24.606
1574868062.565670,431799.000,10196,1,T0,1,100,24.552
1574868062.691723,431905.000,10214,1,T0,1,100,24.585
1574868062.823722,432016.000,10232,1,T0,1,100,24.595
1574868062.959288,432130.000,10251,1,T0,1,100,24.579
1574868063.098422,432247.000,10269,1,T0,1,100,24.601
1574868063.233989,432361.000,10286,1,T0,1,100,24.574
1574868063.360042,432467.000,10304,1,T0,1,100,24.617
1574868063.492040,432578.000,10338,1,T0,1,100,24.579
1574868063.629985,432694.000,10356,1,T0,1,100,24.585
1574868063.767930,432810.000,10374,1,T0,1,100,24.579
1574868063.893983,432916.000,10393,1,T0,1,100,24.574
1574868064.025982,433027.000,10414,2,T0,1,100,24.568
1574868064.157981,433138.000,10414,2,T0,1,100,24.590
1574868064.297115,433255.000,10450,1,T0,1,100,24.595
1574868064.433870,433370.000,10468,1,T0,1,100,24.601
1574868064.574193,433488.000,10486,1,T0,1,100,24.601
1574868064.708571,433601.000,10504,1,T0,1,100,24.595
1574868064.833435,433706.000,10522,1,T0,1,100,24.574
1574868064.969001,433820.000,10541,1,T0,1,100,24.627
1574868065.105757,433935.000,10558,1,T0,1,100,24.585
1574868065.242512,434050.000,10592,1,T0,1,100,24.622
1574868065.373322,434160.000,10610,1,T0,1,100,24.590
1574868065.500564,434267.000,10628,1,T0,1,100,24.595
1574868065.631374,434377.000,10646,1,T0,1,100,24.601
1574868065.769319,434493.000,10664,1,T0,1,100,24.606
1574868065.907263,434609.000,10683,1,T0,1,100,24.606
1574868066.030938,434713.000,10701,1,T0,1,100,24.585
1574868066.162937,434824.000,10719,1,T0,1,100,24.643
1574868066.299692,434939.000,10736,1,T0,1,100,24.622
1574868066.437637,435055.000,10754,1,T0,1,100,24.601
1574868066.570825,435167.000,10788,1,T0,1,100,24.611
1574868066.696878,435273.000,10806,1,T0,1,100,24.590
1574868066.830066,435385.000,10825,1,T0,1,100,24.579
1574868066.969200,435502.000,10843,1,T0,1,100,24.617
1574868067.104767,435616.000,10861,1,T0,1,100,24.601
1574868067.232009,435723.000,10879,1,T0,1,100,24.574
1574868067.360440,435831.000,10897,1,T0,1,100,24.617
1574868067.494817,435944.000,10915,1,T0,1,100,24.617
1574868067.631573,436059.000,10932,1,T0,1,100,24.606
1574868067.769518,436175.000,10966,1,T0,1,100,24.606
1574868067.896760,436282.000,10985,1,T0,1,100,24.606
1574868068.027570,436392.000,11003,1,T0,1,100,24.601
1574868068.156001,436500.000,11021,1,T0,1,100,24.595
1574868068.289189,436612.000,11039,1,T0,1,100,24.633
1574868068.423566,436725.000,11057,1,T0,1,100,24.638
1574868068.565078,436844.000,11075,1,T0,1,100,24.601
1574868068.694699,436953.000,11092,1,T0,1,100,24.611
1574868068.819563,437058.000,11110,1,T0,1,100,24.601
1574868068.957508,437174.000,11129,1,T0,1,100,24.649
1574868069.094263,437289.000,11163,1,T0,1,100,24.558
1574868069.229830,437403.000,11181,1,T0,1,100,24.611
1574868069.357072,437510.000,11199,1,T0,1,100,24.617
1574868069.486692,437619.000,11217,1,T0,1,100,24.595
1574868069.619880,437731.000,11235,1,T0,1,100,24.552
1574868069.757825,437847.000,11253,1,T0,1,100,24.617
1574868069.892202,437960.000,11272,1,T0,1,100,24.627
1574868070.018255,438066.000,11290,1,T0,1,100,24.606
1574868070.151443,438178.000,11310,1,T0,1,100,24.606
1574868070.289388,438294.000,11330,1,T0,1,100,24.563
1574868070.427333,438410.000,11348,1,T0,1,100,24.617
1574868070.555764,438518.000,11366,1,T0,1,100,24.606
1574868070.683007,438625.000,11384,1,T0,1,100,24.617
1574868070.818573,438739.000,11401,1,T0,1,100,24.611
1574868070.957707,438856.000,11436,1,T0,1,100,24.638
1574868071.092084,438969.000,11454,1,T0,1,100,24.622
1574868071.216948,439074.000,11472,1,T0,1,100,24.638
1574868071.350136,439186.000,11490,1,T0,1,100,24.665
1574868071.489270,439303.000,11508,1,T0,1,100,24.627
1574868071.622458,439415.000,11526,1,T0,1,100,24.643
1574868071.761592,439532.000,11544,1,T0,1,100,24.638
1574868071.900726,439649.000,11562,1,T0,1,100,24.606
1574868072.027968,439756.000,11580,1,T0,1,100,24.606
1574868072.157589,439865.000,11614,1,T0,1,100,24.606
1574868072.293155,439979.000,11632,1,T0,1,100,24.601
1574868072.427532,440092.000,11650,1,T0,1,100,24.638
1574868072.566666,440209.000,11668,1,T0,1,100,24.644
1574868072.692719,440315.000,11686,1,T0,1,100,24.568
1574868072.819962,440422.000,11704,1,T0,1,100,24.606
1574868072.956717,440537.000,11723,1,T0,1,100,24.622
1574868073.094662,440653.000,11741,1,T0,1,100,24.633
1574868073.226661,440764.000,11758,1,T0,1,100,24.627
1574868073.355092,440872.000,11792,1,T0,1,100,24.627
1574868073.488280,440984.000,11810,1,T0,1,100,24.606
1574868073.627414,441101.000,11828,1,T0,1,100,24.627
1574868073.764170,441216.000,11846,1,T0,1,100,24.617
1574868073.893790,441325.000,11865,1,T0,1,100,24.644
1574868074.019843,441431.000,11883,1,T0,1,100,24.670
1574868074.155410,441545.000,11901,1,T0,1,100,24.617
1574868074.294544,441662.000,11918,1,T0,1,100,24.611
1574868074.431299,441777.000,11936,1,T0,1,100,24.622
1574868074.554974,441881.000,11970,1,T0,1,100,24.627
1574868074.684594,441990.000,11988,1,T0,1,100,24.627
1574868074.822539,442106.000,12007,1,T0,1,100,24.660
1574868074.960484,442222.000,12025,1,T0,1,100,24.654
1574868075.093672,442334.000,12043,1,T0,1,100,24.633
1574868075.231617,442450.000,12061,1,T0,1,100,24.627
1574868075.360048,442558.000,12079,1,T0,1,100,24.633
1574868075.490858,442668.000,12097,1,T0,1,100,24.660
1574868075.621667,442778.000,12114,1,T0,1,100,24.606
1574868075.761991,442896.000,12148,1,T0,1,100,24.633
1574868075.899935,443012.000,12167,1,T0,1,100,24.633
1574868076.024799,443117.000,12185,1,T0,1,100,24.660
1574868076.159176,443230.000,12206,2,T0,1,100,24.627
1574868076.293554,443343.000,12206,2,T0,1,100,24.654
1574868076.427931,443456.000,12242,1,T0,1,100,24.649
1574868076.563497,443570.000,12260,1,T0,1,100,24.670
1574868076.689550,443676.000,12278,1,T0,1,100,24.627
1574868076.819171,443785.000,12297,1,T0,1,100,24.676
1574868076.957116,443901.000,12315,1,T0,1,100,24.606
1574868077.098628,444020.000,12333,1,T0,1,100,24.617
1574868077.225870,444127.000,12351,1,T0,1,100,24.617
1574868077.353112,444234.000,12369,1,T0,1,100,24.627
1574868077.491057,444350.000,12386,1,T0,1,100,24.670
1574868077.627813,444465.000,12420,1,T0,1,100,24.638
1574868077.764568,444580.000,12438,1,T0,1,100,24.627
1574868077.890621,444686.000,12457,1,T0,1,100,24.649
1574868078.020242,444795.000,12475,1,T0,1,100,24.638
1574868078.160565,444913.000,12493,1,T0,1,100,24.665
1574868078.294942,445026.000,12511,1,T0,1,100,24.627
1574868078.425752,445136.000,12529,1,T0,1,100,24.649
1574868078.551805,445242.000,12547,1,T0,1,100,24.622
1574868078.683804,445353.000,12565,1,T0,1,100,24.643
1574868078.821748,445469.000,12582,1,T0,1,100,24.654
1574868078.964450,445589.000,12617,1,T0,1,100,24.665
1574868079.101206,445704.000,12635,1,T0,1,100,24.585
1574868079.237961,445819.000,12653,1,T0,1,100,24.633
1574868079.365203,445926.000,12671,1,T0,1,100,24.681
1574868079.497202,446037.000,12689,1,T0,1,100,24.681
1574868079.630390,446149.000,12707,1,T0,1,100,24.638
1574868079.770713,446267.000,12725,1,T0,1,100,24.633
1574868079.903901,446379.000,12742,1,T0,1,100,24.670
1574868080.027576,446483.000,12778,1,T0,1,100,24.638
1574868080.161953,446596.000,12795,1,T0,1,100,24.638
1574868080.298709,446711.000,12813,1,T0,1,100,24.660
1574868080.434275,446825.000,12831,1,T0,1,100,24.638
1574868080.563896,446934.000,12849,1,T0,1,100,24.622
1574868080.692327,447042.000,12867,1,T0,1,100,24.638
1574868080.825515,447154.000,12885,1,T0,1,100,24.686
1574868080.961082,447268.000,12904,1,T0,1,100,24.654
1574868081.101405,447386.000,12921,1,T0,1,100,24.654
1574868081.226269,447491.000,12939,1,T0,1,100,24.627
1574868081.355889,447600.000,12973,1,T0,1,100,24.654
1574868081.495023,447717.000,12991,1,T0,1,100,24.665
1574868081.631779,447832.000,13009,1,T0,1,100,24.617
1574868081.762589,447942.000,13027,1,T0,1,100,24.633
1574868081.888641,448048.000,13046,1,T0,1,100,24.643
1574868082.021829,448160.000,13064,1,T0,1,100,24.654
1574868082.160963,448277.000,13082,1,T0,1,100,24.654
1574868082.296530,448391.000,13102,1,T0,1,100,24.622
1574868082.426150,448500.000,13122,1,T0,1,100,24.676
1574868082.559338,448612.000,13140,1,T0,1,100,24.719
1574868082.685391,448718.000,13158,1,T0,1,100,24.644
1574868082.812634,448825.000,13176,1,T0,1,100,24.638
1574868082.950578,448941.000,13195,1,T0,1,100,24.676
1574868083.088523,449057.000,13212,1,T0,1,100,24.638
1574868083.220522,449168.000,13246,1,T0,1,100,24.654
1574868083.348953,449276.000,13264,1,T0,1,100,24.638
1574868083.483330,449389.000,13282,1,T0,1,100,24.670
1574868083.617708,449502.000,13300,1,T0,1,100,24.649
1574868083.756842,449619.000,13318,1,T0,1,100,24.681
1574868083.886462,449728.000,13337,1,T0,1,100,24.665
1574868084.010137,449832.000,13355,1,T0,1,100,24.670
1574868084.148082,449948.000,13373,1,T0,1,100,24.670
1574868084.287216,450065.000,13390,1,T0,1,100,24.660
1574868084.423971,450180.000,13424,1,T0,1,100,24.649
1574868084.548835,450285.000,13442,1,T0,1,100,24.643
1574868084.680834,450396.000,13460,1,T0,1,100,24.660
1574868084.818779,450512.000,13479,1,T0,1,100,24.665
1574868084.954345,450626.000,13497,1,T0,1,100,24.649
1574868085.088722,450739.000,13515,1,T0,1,100,24.692
1574868085.213586,450844.000,13533,1,T0,1,100,24.654
1574868085.352720,450961.000,13551,1,T0,1,100,24.649
1574868085.485908,451073.000,13568,1,T0,1,100,24.681
1574868085.623853,451189.000,13602,1,T0,1,100,24.638
1574868085.749906,451295.000,13620,1,T0,1,100,24.676
1574868085.877148,451402.000,13639,1,T0,1,100,24.676
1574868086.012715,451516.000,13657,1,T0,1,100,24.665
1574868086.155416,451636.000,13675,1,T0,1,100,24.676
1574868086.293361,451752.000,13693,1,T0,1,100,24.665
1574868086.427738,451865.000,13711,1,T0,1,100,24.644
1574868086.562115,451978.000,13729,1,T0,1,100,24.660
1574868086.689358,452085.000,13746,1,T0,1,100,24.649
1574868086.818978,452194.000,13764,1,T0,1,100,24.676
1574868086.958112,452311.000,13799,1,T0,1,100,24.692
1574868087.098435,452429.000,13817,1,T0,1,100,24.665
1574868087.236380,452545.000,13835,1,T0,1,100,24.676
1574868087.374325,452661.000,13853,1,T0,1,100,24.692
1574868087.500378,452767.000,13871,1,T0,1,100,24.643
1574868087.627620,452874.000,13889,1,T0,1,100,24.676
1574868087.765565,452990.000,13907,1,T0,1,100,24.676
1574868087.903509,453106.000,13924,1,T0,1,100,24.686
1574868088.031941,453214.000,13959,1,T0,1,100,24.702
1574868088.161561,453323.000,13977,1,T0,1,100,24.692
1574868088.297722,453437.500,13998,2,T0,1,100,24.654
1574868088.433883,453552.000,13998,2,T0,1,100,24.676
1574868088.571828,453668.000,14018,1,T0,1,100,24.681
1574868088.699070,453775.000,14052,1,T0,1,100,24.702
1574868088.828691,453884.000,14071,1,T0,1,100,24.665
1574868088.963068,453997.000,14089,1,T0,1,100,24.702
1574868089.102202,454114.000,14107,1,T0,1,100,24.670
1574868089.235390,454226.000,14125,1,T0,1,100,24.643
1574868089.360254,454331.000,14143,1,T0,1,100,24.697
1574868089.492253,454442.000,14161,1,T0,1,100,24.708
1574868089.630198,454558.000,14179,1,T0,1,100,24.686
1574868089.768142,454674.000,14196,1,T0,1,100,24.676
1574868089.897763,454783.000,14231,1,T0,1,100,24.686
1574868090.021437,454887.000,14249,1,T0,1,100,24.708
1574868090.158193,455002.000,14267,1,T0,1,100,24.681
1574868090.294949,455117.000,14285,1,T0,1,100,24.740
1574868090.432893,455233.000,14303,1,T0,1,100,24.660
1574868090.570838,455349.000,14321,1,T0,1,100,24.708
1574868090.706404,455463.000,14339,1,T0,1,100,24.660
1574868090.831268,455568.000,14356,1,T0,1,100,24.686
1574868090.966835,455682.000,14375,1,T0,1,100,24.670
1574868091.102401,455796.000,14409,1,T0,1,100,24.692
1574868091.236778,455909.000,14427,1,T0,1,100,24.686
1574868091.368777,456020.000,14445,1,T0,1,100,24.708
1574868091.494830,456126.000,14463,1,T0,1,100,24.686
1574868091.625640,456236.000,14481,1,T0,1,100,24.692
1574868091.763585,456352.000,14499,1,T0,1,100,24.697
1574868091.902719,456469.000,14518,1,T0,1,100,24.702
1574868092.028772,456575.000,14536,1,T0,1,100,24.692
1574868092.157203,456683.000,14553,1,T0,1,100,24.702
1574868092.293959,456798.000,14571,1,T0,1,100,24.692
1574868092.431903,456914.000,14605,1,T0,1,100,24.686
1574868092.566281,457027.000,14623,1,T0,1,100,24.702
1574868092.692334,457133.000,14641,1,T0,1,100,24.681
1574868092.824332,457244.000,14660,1,T0,1,100,24.676
1574868092.963466,457361.000,14678,1,T0,1,100,24.708
1574868093.097844,457474.000,14696,1,T0,1,100,24.729
1574868093.227464,457583.000,14714,1,T0,1,100,24.681
1574868093.354707,457690.000,14731,1,T0,1,100,24.697
1574868093.489084,457803.000,14749,1,T0,1,100,24.692
1574868093.627028,457919.000,14783,1,T0,1,100,24.713
1574868093.768541,458038.000,14801,1,T0,1,100,24.660
1574868093.896972,458146.000,14820,1,T0,1,100,24.708
1574868094.023025,458252.000,14838,1,T0,1,100,24.692
1574868094.162159,458369.000,14856,1,T0,1,100,24.676
1574868094.294158,458480.000,14874,1,T0,1,100,24.708
1574868094.428535,458593.000,14895,1,T0,1,100,24.660
1574868094.570047,458712.000,14915,1,T0,1,100,24.686
1574868094.700857,458822.000,14933,1,T0,1,100,24.708
1574868094.824532,458926.000,14951,1,T0,1,100,24.702
1574868094.960098,459040.000,14970,1,T0,1,100,24.665
1574868095.095665,459154.000,14988,1,T0,1,100,24.697
1574868095.231231,459268.000,15006,1,T0,1,100,24.719
1574868095.358473,459375.000,15023,1,T0,1,100,24.708
1574868095.486905,459483.000,15041,1,T0,1,100,24.660
1574868095.624849,459599.000,15075,1,T0,1,100,24.692
1574868095.760416,459713.000,15093,1,T0,1,100,24.686
1574868095.895982,459827.000,15112,1,T0,1,100,24.724
1574868096.022035,459933.000,15130,1,T0,1,100,24.724
1574868096.152845,460043.000,15148,1,T0,1,100,24.686
1574868096.290790,460159.000,15166,1,T0,1,100,24.724
1574868096.428735,460275.000,15184,1,T0,1,100,24.692
1574868096.557166,460383.000,15201,1,T0,1,100,24.708
1574868096.682029,460488.000,15219,1,T0,1,100,24.724
1574868096.817596,460602.000,15254,1,T0,1,100,24.681
1574868096.956730,460719.000,15272,1,T0,1,100,24.708
1574868097.092296,460833.000,15290,1,T0,1,100,24.676
1574868097.217160,460938.000,15308,1,T0,1,100,24.681
1574868097.346781,461047.000,15326,1,T0,1,100,24.719
1574868097.484725,461163.000,15344,1,T0,1,100,24.702
1574868097.614346,461272.000,15362,1,T0,1,100,24.670
1574868097.753480,461389.000,15380,1,T0,1,100,24.697
1574868097.891425,461505.000,15414,1,T0,1,100,24.735
1574868098.019856,461613.000,15432,1,T0,1,100,24.702
1574868098.149477,461722.000,15450,1,T0,1,100,24.719
1574868098.283854,461835.000,15468,1,T0,1,100,24.713
1574868098.417042,461947.000,15486,1,T0,1,100,24.708
1574868098.558554,462066.000,15504,1,T0,1,100,24.686
1574868098.684607,462172.000,15522,1,T0,1,100,24.724
1574868098.811849,462279.000,15540,1,T0,1,100,24.719
1574868098.949794,462395.000,15559,1,T0,1,100,24.697
1574868099.087739,462511.000,15576,1,T0,1,100,24.681
1574868099.222116,462624.000,15610,1,T0,1,100,24.697
1574868099.346980,462729.000,15628,1,T0,1,100,24.697
1574868099.478979,462840.000,15646,1,T0,1,100,24.697
1574868099.618113,462957.000,15664,1,T0,1,100,24.713
1574868099.754869,463072.000,15682,1,T0,1,100,24.713
1574868099.885678,463182.000,15701,1,T0,1,100,24.729
1574868100.012920,463289.000,15719,1,T0,1,100,24.735
1574868100.152054,463406.000,15737,1,T0,1,100,24.697
1574868100.286432,463519.000,15754,1,T0,1,100,24.702
1574868100.417241,463629.000,15791,2,T0,1,100,24.729
1574868100.548051,463739.000,15791,2,T0,1,100,24.719
1574868100.677671,463848.000,15809,1,T0,1,100,24.719
1574868100.814427,463963.000,15827,1,T0,1,100,24.708
1574868100.957129,464083.000,15847,1,T0,1,100,24.719
1574868101.093884,464198.000,15881,1,T0,1,100,24.713
1574868101.229450,464312.000,15899,1,T0,1,100,24.729
1574868101.360260,464422.000,15917,1,T0,1,100,24.724
1574868101.488692,464530.000,15935,1,T0,1,100,24.702
1574868101.619501,464640.000,15953,1,T0,1,100,24.729
1574868101.758635,464757.000,15971,1,T0,1,100,24.692
1574868101.896580,464873.000,15990,1,T0,1,100,24.702
1574868102.020255,464977.000,16007,1,T0,1,100,24.708
1574868102.152253,465088.000,16025,1,T0,1,100,24.702
1574868102.286631,465201.000,16059,1,T0,1,100,24.735
1574868102.421008,465314.000,16077,1,T0,1,100,24.740
1574868102.557764,465429.000,16095,1,T0,1,100,24.692
1574868102.683817,465535.000,16113,1,T0,1,100,24.702
1574868102.817005,465647.000,16131,1,T0,1,100,24.681
1574868102.952571,465761.000,16150,1,T0,1,100,24.729
1574868103.092894,465879.000,16168,1,T0,1,100,24.719
1574868103.223704,465989.000,16185,1,T0,1,100,24.724
1574868103.350946,466096.000,16203,1,T0,1,100,24.702
1574868103.486512,466210.000,16237,1,T0,1,100,24.735
1574868103.624457,466326.000,16255,1,T0,1,100,24.676
1574868103.762402,466442.000,16273,1,T0,1,100,24.740
1574868103.886077,466546.000,16292,1,T0,1,100,24.713
1574868104.014508,466654.000,16310,1,T0,1,100,24.713
1574868104.154831,466772.000,16328,1,T0,1,100,24.745
1574868104.289208,466885.000,16346,1,T0,1,100,24.719
1574868104.422396,466997.000,16364,1,T0,1,100,24.724
1574868104.557963,467111.000,16381,1,T0,1,100,24.719
1574868104.682827,467216.000,16399,1,T0,1,100,24.702
1574868104.810069,467323.000,16434,1,T0,1,100,24.719
1574868104.948014,467439.000,16452,1,T0,1,100,24.713
1574868105.084769,467554.000,16470,1,T0,1,100,24.702
1574868105.221525,467669.000,16488,1,T0,1,100,24.708
1574868105.348767,467776.000,16506,1,T0,1,100,24.740
1574868105.479577,467886.000,16524,1,T0,1,100,24.740
1574868105.612765,467998.000,16542,1,T0,1,100,24.713
1574868105.751899,468115.000,16559,1,T0,1,100,24.740
1574868105.886276,468228.000,16595,1,T0,1,100,24.761
1574868106.009951,468332.000,16612,1,T0,1,100,24.702
1574868106.143139,468444.000,16630,1,T0,1,100,24.724
1574868106.277516,468557.000,16648,1,T0,1,100,24.719
1574868106.415461,468673.000,16666,1,T0,1,100,24.719
1574868106.543892,468781.000,16687,2,T0,1,100,24.702
1574868106.672323,468889.000,16687,2,T0,1,100,24.735
1574868106.807890,469003.000,16724,1,T0,1,100,24.740
1574868106.943456,469117.000,16742,1,T0,1,100,24.751
1574868107.084969,469236.000,16760,1,T0,1,100,24.735
1574868107.209832,469341.000,16778,1,T0,1,100,24.772
1574868107.341831,469452.000,16796,1,T0,1,100,24.729
1574868107.476208,469565.000,16814,1,T0,1,100,24.751
1574868107.614153,469681.000,16832,1,T0,1,100,24.681
1574868107.747341,469793.000,16849,1,T0,1,100,24.708
1574868107.872205,469898.000,16867,1,T0,1,100,24.729
1574868108.005393,470010.000,16902,1,T0,1,100,24.740
1574868108.144527,470127.000,16920,1,T0,1,100,24.719
1574868108.278904,470240.000,16938,1,T0,1,100,24.751
1574868108.416849,470356.000,16956,1,T0,1,100,24.756
1574868108.557172,470474.000,16974,1,T0,1,100,24.724
1574868108.684414,470581.000,16992,1,T0,1,100,24.751
1574868108.810467,470687.000,17010,1,T0,1,100,24.724
1574868108.949601,470804.000,17028,1,T0,1,100,24.735
1574868109.087546,470920.000,17062,1,T0,1,100,24.729
1574868109.219545,471031.000,17080,1,T0,1,100,24.778
1574868109.347976,471139.000,17098,1,T0,1,100,24.756
1574868109.478786,471249.000,17116,1,T0,1,100,24.729
1574868109.613163,471362.000,17134,1,T0,1,100,24.761
1574868109.752297,471479.000,17152,1,T0,1,100,24.719
1574868109.881918,471588.000,17171,1,T0,1,100,24.719
1574868110.006782,471693.000,17189,1,T0,1,100,24.761
1574868110.143537,471808.000,17206,1,T0,1,100,24.735
1574868110.282671,471925.000,17240,1,T0,1,100,24.708
1574868110.421805,472042.000,17258,1,T0,1,100,24.772
1574868110.546669,472147.000,17276,1,T0,1,100,24.778
1574868110.678668,472258.000,17294,1,T0,1,100,24.740
1574868110.815423,472373.000,17312,1,T0,1,100,24.751
1574868110.953368,472489.000,17331,1,T0,1,100,24.761
1574868111.084178,472599.000,17349,1,T0,1,100,24.751
1574868111.209042,472704.000,17367,1,T0,1,100,24.783
1574868111.345797,472819.000,17384,1,T0,1,100,24.751
1574868111.480175,472932.000,17402,1,T0,1,100,24.772
1574868111.618119,473048.000,17436,1,T0,1,100,24.788
1574868111.747740,473157.000,17454,1,T0,1,100,24.756
1574868111.877360,473266.000,17473,1,T0,1,100,24.745
1574868112.002224,473371.000,17491,1,T0,1,100,24.724
1574868112.135412,473483.000,17509,1,T0,1,100,24.719
1574868112.272168,473598.000,17527,1,T0,1,100,24.745
1574868112.406545,473711.000,17545,1,T0,1,100,24.724
1574868112.542111,473825.000,17563,1,T0,1,100,24.735
1574868112.669353,473932.000,17583,1,T0,1,100,24.729
1574868112.796596,474039.000,17604,1,T0,1,100,24.740
1574868112.935730,474156.000,17622,1,T0,1,100,24.761
1574868113.076053,474274.000,17640,1,T0,1,100,24.751
1574868113.203295,474381.000,17658,1,T0,1,100,24.729
1574868113.334105,474491.000,17675,1,T0,1,100,24.719
1574868113.467293,474603.000,17693,1,T0,1,100,24.751
1574868113.600481,474715.000,17727,1,T0,1,100,24.735
1574868113.740804,474833.000,17745,1,T0,1,100,24.708
1574868113.866857,474939.000,17764,1,T0,1,100,24.713
1574868113.998856,475050.000,17782,1,T0,1,100,24.719
1574868114.134422,475164.000,17800,1,T0,1,100,24.778
1574868114.274745,475282.000,17818,1,T0,1,100,24.740
1574868114.409123,475395.000,17836,1,T0,1,100,24.783
1574868114.533986,475500.000,17853,1,T0,1,100,24.729
1574868114.665985,475611.000,17871,1,T0,1,100,24.719
1574868114.803930,475727.000,17906,1,T0,1,100,24.756
1574868114.941875,475843.000,17924,1,T0,1,100,24.745
1574868115.067928,475949.000,17942,1,T0,1,100,24.740
1574868115.192792,476054.000,17960,1,T0,1,100,24.761
1574868115.333115,476172.000,17978,1,T0,1,100,24.740
1574868115.472249,476289.000,17996,1,T0,1,100,24.740
1574868115.609004,476404.000,18014,1,T0,1,100,24.772
1574868115.749327,476522.000,18031,1,T0,1,100,24.756
1574868115.883705,476635.000,18066,1,T0,1,100,24.772
1574868116.008569,476740.000,18084,1,T0,1,100,24.756
1574868116.144135,476854.000,18102,1,T0,1,100,24.745
1574868116.280890,476969.000,18120,1,T0,1,100,24.767
1574868116.416457,477083.000,18138,1,T0,1,100,24.708
1574868116.547267,477193.000,18156,1,T0,1,100,24.724
1574868116.674509,477300.000,18174,1,T0,1,100,24.729
1574868116.805319,477410.000,18192,1,T0,1,100,24.719
1574868116.943263,477526.000,18210,1,T0,1,100,24.740
1574868117.081208,477642.000,18244,1,T0,1,100,24.740
1574868117.204883,477746.000,18262,1,T0,1,100,24.756
1574868117.336882,477857.000,18280,1,T0,1,100,24.745
1574868117.476016,477974.000,18298,1,T0,1,100,24.708
1574868117.612771,478089.000,18316,1,T0,1,100,24.756
1574868117.745959,478201.000,18334,1,T0,1,100,24.745
1574868117.874391,478309.000,18353,1,T0,1,100,24.729
1574868118.005200,478419.000,18371,1,T0,1,100,24.708
1574868118.144334,478536.000,18388,1,T0,1,100,24.740
1574868118.279901,478650.000,18422,1,T0,1,100,24.713
1574868118.407143,478757.000,18440,1,T0,1,100,24.740
1574868118.535574,478865.000,18458,1,T0,1,100,24.692
1574868118.671141,478979.000,18479,2,T0,1,100,24.745
1574868118.806707,479093.000,18479,2,T0,1,100,24.761
1574868118.944652,479209.000,18500,1,T0,1,100,24.724
1574868119.071894,479316.000,18534,1,T0,1,100,24.713
1574868119.202704,479426.000,18552,1,T0,1,100,24.788
1574868119.331135,479534.000,18570,1,T0,1,100,24.740
1574868119.464323,479646.000,18588,1,T0,1,100,24.729
1574868119.598700,479759.000,18606,1,T0,1,100,24.740
1574868119.740213,479878.000,18624,1,T0,1,100,24.751
1574868119.869833,479987.000,18643,1,T0,1,100,24.740
1574868119.994697,480092.000,18661,1,T0,1,100,24.735
1574868120.132642,480208.000,18678,1,T0,1,100,24.719
1574868120.270586,480324.000,18712,1,T0,1,100,24.708
1574868120.406153,480438.000,18730,1,T0,1,100,24.735
1574868120.533395,480545.000,18748,1,T0,1,100,24.751
1574868120.665394,480656.000,18766,1,T0,1,100,24.735
1574868120.797393,480767.000,18784,1,T0,1,100,24.702
1574868120.935338,480883.000,18803,1,T0,1,100,24.729
1574868121.070904,480997.000,18821,1,T0,1,100,24.719
1574868121.195768,481102.000,18839,1,T0,1,100,24.740
1574868121.327767,481213.000,18857,1,T0,1,100,24.708
1574868121.466901,481330.000,18874,1,T0,1,100,24.735
1574868121.603656,481445.000,18908,1,T0,1,100,24.708
1574868121.732088,481553.000,18926,1,T0,1,100,24.735
1574868121.859330,481660.000,18945,1,T0,1,100,24.745
1574868121.994896,481774.000,18963,1,T0,1,100,24.724
1574868122.134030,481891.000,18981,1,T0,1,100,24.729
1574868122.268407,482004.000,18999,1,T0,1,100,24.702
1574868122.393271,482109.000,19017,1,T0,1,100,24.740
1574868122.526459,482221.000,19035,1,T0,1,100,24.740
1574868122.665593,482338.000,19052,1,T0,1,100,24.686
1574868122.798781,482450.000,19087,1,T0,1,100,24.740
1574868122.937915,482567.000,19105,1,T0,1,100,24.713
1574868123.078238,482685.000,19123,1,T0,1,100,24.761
1574868123.205481,482792.000,19141,1,T0,1,100,24.740
1574868123.335101,482901.000,19159,1,T0,1,100,24.708
1574868123.470668,483015.000,19177,1,T0,1,100,24.729
1574868123.605045,483128.000,19195,1,T0,1,100,24.681
1574868123.744179,483245.000,19212,1,T0,1,100,24.676
1574868123.870232,483351.000,19230,1,T0,1,100,24.708
1574868123.996285,483457.000,19265,1,T0,1,100,24.745
1574868124.133040,483572.000,19283,1,T0,1,100,24.729
1574868124.272174,483689.000,19301,1,T0,1,100,24.692
1574868124.402984,483799.000,19319,1,T0,1,100,24.729
1574868124.530226,483906.000,19337,1,T0,1,100,24.676
1574868124.664603,484019.000,19355,1,T0,1,100,24.670
1574868124.802548,484135.000,19376,1,T0,1,100,24.724
1574868124.939304,484250.000,19397,1,T0,1,100,24.702
1574868125.068924,484359.000,19415,1,T0,1,100,24.729
1574868125.194977,484465.000,19433,1,T0,1,100,24.713
1574868125.330544,484579.000,19451,1,T0,1,100,24.719
1574868125.469678,484696.000,19469,1,T0,1,100,24.713
1574868125.606433,484811.000,19486,1,T0,1,100,24.713
1574868125.730108,484915.000,19504,1,T0,1,100,24.697
1574868125.859728,485024.000,19522,1,T0,1,100,24.692
1574868125.996484,485139.000,19557,1,T0,1,100,24.692
1574868126.134429,485255.000,19575,1,T0,1,100,24.681
1574868126.267617,485367.000,19593,1,T0,1,100,24.708
1574868126.405561,485483.000,19611,1,T0,1,100,24.676
1574868126.531615,485589.000,19629,1,T0,1,100,24.686
1574868126.662424,485699.000,19647,1,T0,1,100,24.708
1574868126.793234,485809.000,19665,1,T0,1,100,24.686
1574868126.933557,485927.000,19683,1,T0,1,100,24.702
1574868127.071502,486043.000,19717,1,T0,1,100,24.724
1574868127.196366,486148.000,19735,1,T0,1,100,24.686
1574868127.329554,486260.000,19753,1,T0,1,100,24.686
1574868127.467499,486376.000,19771,1,T0,1,100,24.719
1574868127.600687,486488.000,19789,1,T0,1,100,24.719
1574868127.739820,486605.000,19807,1,T0,1,100,24.719
1574868127.878954,486722.000,19826,1,T0,1,100,24.708
1574868128.002629,486826.000,19843,1,T0,1,100,24.681
1574868128.133439,486936.000,19861,1,T0,1,100,24.713
1574868128.267816,487049.000,19895,1,T0,1,100,24.681
1574868128.402193,487162.000,19913,1,T0,1,100,24.697
1574868128.541327,487279.000,19931,1,T0,1,100,24.708
1574868128.667380,487385.000,19949,1,T0,1,100,24.660
1574868128.800568,487497.000,19967,1,T0,1,100,24.676
1574868128.934946,487610.000,19986,1,T0,1,100,24.638
1574868129.074080,487727.000,20004,1,T0,1,100,24.692
1574868129.206078,487838.000,20021,1,T0,1,100,24.686
1574868129.335699,487947.000,20039,1,T0,1,100,24.665
1574868129.470076,488060.000,20073,1,T0,1,100,24.686
1574868129.608021,488176.000,20091,1,T0,1,100,24.665
1574868129.745966,488292.000,20109,1,T0,1,100,24.681
1574868129.870830,488397.000,20128,1,T0,1,100,24.692
1574868129.996882,488503.000,20146,1,T0,1,100,24.660
1574868130.137206,488621.000,20164,1,T0,1,100,24.670
1574868130.275150,488737.000,20182,1,T0,1,100,24.643
1574868130.411906,488852.000,20199,1,T0,1,100,24.654
1574868130.539148,488959.000,20217,1,T0,1,100,24.665
1574868130.674715,489073.000,20251,1,T0,1,100,24.681
1574868130.806713,489184.000,20273,2,T0,1,100,24.649
1574868130.938712,489295.000,20273,2,T0,1,100,24.622
1574868131.075468,489410.000,20293,1,T0,1,100,24.617
1574868131.213413,489526.000,20310,1,T0,1,100,24.627
1574868131.340655,489633.000,20344,1,T0,1,100,24.622
1574868131.469086,489741.000,20362,1,T0,1,100,24.622
1574868131.602274,489853.000,20380,1,T0,1,100,24.617
1574868131.740219,489969.000,20398,1,T0,1,100,24.595
1574868131.875785,490083.000,20417,1,T0,1,100,24.622
1574868131.999460,490187.000,20435,1,T0,1,100,24.622
1574868132.132648,490299.000,20453,1,T0,1,100,24.601
1574868132.270593,490415.000,20471,1,T0,1,100,24.627
1574868132.408538,490531.000,20488,1,T0,1,100,24.633
1574868132.539347,490641.000,20522,1,T0,1,100,24.617
1574868132.665401,490747.000,20540,1,T0,1,100,24.579
1574868132.799778,490860.000,20559,1,T0,1,100,24.606
1574868132.935344,490974.000,20577,1,T0,1,100,24.622
1574868133.074478,491091.000,20595,1,T0,1,100,24.617
1574868133.200531,491197.000,20613,1,T0,1,100,24.595
1574868133.331341,491307.000,20631,1,T0,1,100,24.617
1574868133.465718,491420.000,20649,1,T0,1,100,24.590
1574868133.603663,491536.000,20666,1,T0,1,100,24.601
1574868133.738040,491649.000,20700,1,T0,1,100,24.558
1574868133.864093,491755.000,20719,1,T0,1,100,24.563
1574868133.993713,491864.000,20737,1,T0,1,100,24.611
1574868134.134037,491982.000,20755,1,T0,1,100,24.601
1574868134.268414,492095.000,20773,1,T0,1,100,24.601
1574868134.401602,492207.000,20791,1,T0,1,100,24.617
1574868134.543114,492326.000,20809,1,T0,1,100,24.568
1574868134.670356,492433.000,20827,1,T0,1,100,24.579
1574868134.796409,492539.000,20844,1,T0,1,100,24.601
1574868134.934354,492655.000,20863,1,T0,1,100,24.595
1574868135.072299,492771.000,20897,1,T0,1,100,24.558
1574868135.206676,492884.000,20915,1,T0,1,100,24.574
1574868135.333918,492991.000,20933,1,T0,1,100,24.585
1574868135.464728,493101.000,20951,1,T0,1,100,24.606
1574868135.599105,493214.000,20969,1,T0,1,100,24.590
1574868135.738239,493331.000,20987,1,T0,1,100,24.568
1574868135.869049,493441.000,21006,1,T0,1,100,24.585
1574868135.995102,493547.000,21024,1,T0,1,100,24.611
1574868136.128290,493659.000,21041,1,T0,1,100,24.558
1574868136.266235,493775.000,21075,1,T0,1,100,24.590
1574868136.405369,493892.000,21093,1,T0,1,100,24.585
1574868136.531422,493998.000,21111,1,T0,1,100,24.574
1574868136.662231,494108.000,21129,1,T0,1,100,24.611
1574868136.797798,494222.000,21147,1,T0,1,100,24.590
1574868136.935743,494338.000,21169,1,T0,1,100,24.585
1574868137.066552,494448.000,21189,1,T0,1,100,24.552
1574868137.191416,494553.000,21207,1,T0,1,100,24.585
1574868137.325793,494666.000,21225,1,T0,1,100,24.536
1574868137.464927,494783.000,21243,1,T0,1,100,24.579
1574868137.599304,494896.000,21261,1,T0,1,100,24.558
1574868137.738439,495013.000,21279,1,T0,1,100,24.574
1574868137.876383,495129.000,21297,1,T0,1,100,24.606
1574868138.001247,495234.000,21315,1,T0,1,100,24.606
1574868138.132057,495344.000,21349,1,T0,1,100,24.558
1574868138.267623,495458.000,21367,1,T0,1,100,24.590
1574868138.402000,495571.000,21385,1,T0,1,100,24.563
1574868138.539945,495687.000,21403,1,T0,1,100,24.595
1574868138.665998,495793.000,21421,1,T0,1,100,24.574
1574868138.793240,495900.000,21439,1,T0,1,100,24.558
1574868138.931185,496016.000,21458,1,T0,1,100,24.563
1574868139.070319,496133.000,21476,1,T0,1,100,24.611
1574868139.198750,496241.000,21493,1,T0,1,100,24.590
1574868139.328371,496350.000,21511,1,T0,1,100,24.558
1574868139.461559,496462.000,21545,1,T0,1,100,24.558
1574868139.599504,496578.000,21563,1,T0,1,100,24.536
1574868139.737449,496694.000,21581,1,T0,1,100,24.611
1574868139.864691,496801.000,21600,1,T0,1,100,24.590
1574868139.995501,496911.000,21618,1,T0,1,100,24.547
1574868140.129878,497024.000,21636,1,T0,1,100,24.563
1574868140.269012,497141.000,21654,1,T0,1,100,24.579
1574868140.402200,497253.000,21671,1,T0,1,100,24.563
1574868140.528253,497359.000,21689,1,T0,1,100,24.590
1574868140.660252,497470.000,21723,1,T0,1,100,24.563
1574868140.798196,497586.000,21742,1,T0,1,100,24.579
1574868140.936141,497702.000,21760,1,T0,1,100,24.579
1574868141.063383,497809.000,21778,1,T0,1,100,24.574
1574868141.189436,497915.000,21796,1,T0,1,100,24.542
1574868141.326192,498030.000,21814,1,T0,1,100,24.536
1574868141.457002,498140.000,21832,1,T0,1,100,24.585
1574868141.590190,498252.000,21850,1,T0,1,100,24.547
1574868141.730513,498370.000,21867,1,T0,1,100,24.542
1574868141.866079,498484.000,21902,1,T0,1,100,24.536
1574868141.990943,498589.000,21920,1,T0,1,100,24.547
1574868142.126509,498703.000,21938,1,T0,1,100,24.590
1574868142.263265,498818.000,21956,1,T0,1,100,24.552
1574868142.397642,498931.000,21974,1,T0,1,100,24.579
1574868142.529641,499042.000,21992,1,T0,1,100,24.574
1574868142.655694,499148.000,22010,1,T0,1,100,24.558
1574868142.786504,499258.000,22028,1,T0,1,100,24.536
1574868142.924449,499374.000,22046,1,T0,1,100,24.568
1574868143.064772,499492.000,22067,1,T0,1,100,24.574
1574868143.190825,499598.000,22087,1,T0,1,100,24.563
1574868143.319256,499706.000,22105,1,T0,1,100,24.558
1574868143.456012,499821.000,22123,1,T0,1,100,24.568
1574868143.593956,499937.000,22140,1,T0,1,100,24.558
1574868143.728334,500050.000,22174,1,T0,1,100,24.552
1574868143.854387,500156.000,22193,1,T0,1,100,24.606
1574868143.986386,500267.000,22211,1,T0,1,100,24.568
1574868144.125520,500384.000,22229,1,T0,1,100,24.558
1574868144.259897,500497.000,22247,1,T0,1,100,24.579
1574868144.389517,500606.000,22265,1,T0,1,100,24.547
1574868144.515570,500712.000,22283,1,T0,1,100,24.558
1574868144.649947,500825.000,22301,1,T0,1,100,24.542
1574868144.787892,500941.000,22319,1,T0,1,100,24.547
1574868144.931783,501062.000,22353,1,T0,1,100,24.558
1574868145.069728,501178.000,22371,1,T0,1,100,24.536
1574868145.204105,501291.000,22389,1,T0,1,100,24.568
1574868145.332536,501399.000,22407,1,T0,1,100,24.574
1574868145.464535,501510.000,22425,1,T0,1,100,24.558
1574868145.598912,501623.000,22443,1,T0,1,100,24.563
1574868145.740425,501742.000,22461,1,T0,1,100,24.568
1574868145.871234,501852.000,22479,1,T0,1,100,24.552
1574868145.994909,501956.000,22497,1,T0,1,100,24.558
1574868146.130476,502070.000,22531,1,T0,1,100,24.547
1574868146.267231,502185.000,22549,1,T0,1,100,24.563
1574868146.403987,502300.000,22567,1,T0,1,100,24.579
1574868146.531229,502407.000,22585,1,T0,1,100,24.558
1574868146.659660,502515.000,22603,1,T0,1,100,24.579
1574868146.797605,502631.000,22621,1,T0,1,100,24.563
1574868146.933172,502745.000,22640,1,T0,1,100,24.558
1574868147.068738,502859.000,22657,1,T0,1,100,24.574
1574868147.194791,502965.000,22675,1,T0,1,100,24.590
1574868147.325601,503075.000,22693,1,T0,1,100,24.558
1574868147.463545,503191.000,22727,1,T0,1,100,24.547
1574868147.601490,503307.000,22745,1,T0,1,100,24.568
1574868147.729921,503415.000,22763,1,T0,1,100,24.579
1574868147.855974,503521.000,22782,1,T0,1,100,24.579
1574868147.991541,503635.000,22800,1,T0,1,100,24.568
1574868148.130675,503752.000,22818,1,T0,1,100,24.552
1574868148.266241,503866.000,22836,1,T0,1,100,24.585
1574868148.391105,503971.000,22853,1,T0,1,100,24.574
1574868148.521915,504081.000,22871,1,T0,1,100,24.579
1574868148.649157,504188.000,22889,1,T0,1,100,24.547
1574868148.776399,504295.000,22924,1,T0,1,100,24.574
1574868148.915533,504412.000,22942,1,T0,1,100,24.574
1574868149.049316,504524.500,22963,2,T0,1,100,24.590
1574868149.183098,504637.000,22963,2,T0,1,100,24.536
1574868149.312719,504746.000,22983,1,T0,1,100,24.552
1574868149.447096,504859.000,23017,1,T0,1,100,24.536
1574868149.580284,504971.000,23035,1,T0,1,100,24.574
1574868149.720607,505089.000,23053,1,T0,1,100,24.552
1574868149.846660,505195.000,23072,1,T0,1,100,24.579
1574868149.973902,505302.000,23090,1,T0,1,100,24.552
1574868150.111847,505418.000,23108,1,T0,1,100,24.579
1574868150.249792,505534.000,23126,1,T0,1,100,24.558
1574868150.384169,505647.000,23143,1,T0,1,100,24.574
1574868150.510222,505753.000,23161,1,T0,1,100,24.579
1574868150.642221,505864.000,23195,1,T0,1,100,24.590
1574868150.781355,505981.000,23214,1,T0,1,100,24.558
1574868150.918111,506096.000,23232,1,T0,1,100,24.558
1574868151.048920,506206.000,23250,1,T0,1,100,24.574
1574868151.176162,506313.000,23268,1,T0,1,100,24.585
1574868151.316486,506431.000,23286,1,T0,1,100,24.536
1574868151.450863,506544.000,23304,1,T0,1,100,24.579
1574868151.588808,506660.000,23321,1,T0,1,100,24.574
1574868151.712482,506764.000,23339,1,T0,1,100,24.590
1574868151.842103,506873.000,23374,1,T0,1,100,24.547
1574868151.977669,506987.000,23392,1,T0,1,100,24.574
1574868152.119182,507106.000,23410,1,T0,1,100,24.617
1574868152.252370,507218.000,23428,1,T0,1,100,24.601
1574868152.391504,507335.000,23446,1,T0,1,100,24.579
1574868152.522313,507445.000,23464,1,T0,1,100,24.574
1574868152.650745,507553.000,23482,1,T0,1,100,24.558
1574868152.781554,507663.000,23499,1,T0,1,100,24.585
1574868152.920688,507780.000,23535,1,T0,1,100,24.574
1574868153.059822,507897.000,23552,1,T0,1,100,24.531
1574868153.183497,508001.000,23570,1,T0,1,100,24.568
1574868153.315496,508112.000,23588,1,T0,1,100,24.552
1574868153.449873,508225.000,23606,1,T0,1,100,24.574
1574868153.584250,508338.000,23624,1,T0,1,100,24.590
1574868153.721006,508453.000,23642,1,T0,1,100,24.611
1574868153.847059,508559.000,23661,1,T0,1,100,24.574
1574868153.979058,508670.000,23679,1,T0,1,100,24.585
1574868154.114624,508784.000,23696,1,T0,1,100,24.563
1574868154.254947,508902.000,23730,1,T0,1,100,24.568
1574868154.385757,509012.000,23748,1,T0,1,100,24.617
1574868154.512999,509119.000,23766,1,T0,1,100,24.574
1574868154.648566,509233.000,23784,1,T0,1,100,24.585
1574868154.786510,509349.000,23802,1,T0,1,100,24.601
1574868154.924455,509465.000,23821,1,T0,1,100,24.611
1574868155.048130,509569.000,23839,1,T0,1,100,24.601
1574868155.176561,509677.000,23860,1,T0,1,100,24.611
1574868155.316884,509795.000,23880,1,T0,1,100,24.563
1574868155.451262,509908.000,23898,1,T0,1,100,24.579
1574868155.584450,510020.000,23916,1,T0,1,100,24.595
1574868155.720016,510134.000,23934,1,T0,1,100,24.574
1574868155.844880,510239.000,23952,1,T0,1,100,24.563
1574868155.969743,510344.000,23970,1,T0,1,100,24.606
1574868156.107688,510460.000,23988,1,T0,1,100,24.579
1574868156.245633,510576.000,24022,1,T0,1,100,24.585
1574868156.383578,510692.000,24040,1,T0,1,100,24.547
1574868156.510820,510799.000,24058,1,T0,1,100,24.606
1574868156.641630,510909.000,24076,1,T0,1,100,24.606
1574868156.774818,511021.000,24094,1,T0,1,100,24.601
1574868156.913952,511138.000,24113,1,T0,1,100,24.601
1574868157.048329,511251.000,24131,1,T0,1,100,24.627
1574868157.172004,511355.000,24148,1,T0,1,100,24.568
1574868157.305192,511467.000,24166,1,T0,1,100,24.574
1574868157.439569,511580.000,24200,1,T0,1,100,24.585
1574868157.573946,511693.000,24218,1,T0,1,100,24.585
1574868157.705945,511804.000,24236,1,T0,1,100,24.627
1574868157.833187,511911.000,24255,1,T0,1,100,24.563
1574868157.968754,512025.000,24273,1,T0,1,100,24.590
1574868158.104320,512139.000,24291,1,T0,1,100,24.579
1574868158.245832,512258.000,24309,1,T0,1,100,24.590
1574868158.370696,512363.000,24326,1,T0,1,100,24.601
1574868158.502695,512474.000,24344,1,T0,1,100,24.601
1574868158.637072,512587.000,24378,1,T0,1,100,24.590
1574868158.773828,512702.000,24397,1,T0,1,100,24.563
1574868158.907016,512814.000,24415,1,T0,1,100,24.611
1574868159.031880,512919.000,24433,1,T0,1,100,24.552
1574868159.165068,513031.000,24451,1,T0,1,100,24.611
1574868159.304202,513148.000,24469,1,T0,1,100,24.606
1574868159.443336,513265.000,24487,1,T0,1,100,24.590
1574868159.581280,513381.000,24504,1,T0,1,100,24.606
1574868159.721604,513499.000,24538,1,T0,1,100,24.574
1574868159.848846,513606.000,24557,1,T0,1,100,24.585
1574868159.974899,513712.000,24575,1,T0,1,100,24.606
1574868160.114033,513829.000,24593,1,T0,1,100,24.568
1574868160.251977,513945.000,24611,1,T0,1,100,24.617
1574868160.385165,514057.000,24629,1,T0,1,100,24.611
1574868160.512408,514164.000,24647,1,T0,1,100,24.606
1574868160.643217,514274.000,24665,1,T0,1,100,24.563
1574868160.777595,514387.000,24683,1,T0,1,100,24.643
1574868160.916729,514504.000,24701,1,T0,1,100,24.627
1574868161.046349,514613.000,24735,1,T0,1,100,24.585
1574868161.177159,514723.000,24756,2,T0,1,100,24.590
1574868161.307969,514833.000,24756,2,T0,1,100,24.622
1574868161.448292,514951.000,24776,1,T0,1,100,24.590
1574868161.586236,515067.000,24809,1,T0,1,100,24.579
1574868161.711100,515172.000,24827,1,T0,1,100,24.601
1574868161.843099,515283.000,24846,1,T0,1,100,24.590
1574868161.978666,515397.000,24864,1,T0,1,100,24.611
1574868162.116610,515513.000,24882,1,T0,1,100,24.627
1574868162.247420,515623.000,24900,1,T0,1,100,24.590
1574868162.372284,515728.000,24918,1,T0,1,100,24.585
1574868162.509039,515843.000,24936,1,T0,1,100,24.579
1574868162.643417,515956.000,24954,1,T0,1,100,24.585
1574868162.781362,516072.000,24971,1,T0,1,100,24.654
1574868162.908604,516179.000,25006,1,T0,1,100,24.606
1574868163.038224,516288.000,25024,1,T0,1,100,24.595
1574868163.163088,516393.000,25042,1,T0,1,100,24.611
1574868163.296276,516505.000,25060,1,T0,1,100,24.579
1574868163.433032,516620.000,25078,1,T0,1,100,24.611
1574868163.567409,516733.000,25096,1,T0,1,100,24.579
1574868163.702975,516847.000,25114,1,T0,1,100,24.617
1574868163.831407,516955.000,25133,1,T0,1,100,24.611
1574868163.958649,517062.000,25151,1,T0,1,100,24.590
1574868164.097783,517179.000,25168,1,T0,1,100,24.611
1574868164.238106,517297.000,25202,1,T0,1,100,24.601
1574868164.365348,517404.000,25220,1,T0,1,100,24.617
1574868164.494969,517513.000,25238,1,T0,1,100,24.627
1574868164.630535,517627.000,25256,1,T0,1,100,24.611
1574868164.762534,517738.000,25274,1,T0,1,100,24.611
1574868164.902857,517856.000,25293,1,T0,1,100,24.622
1574868165.030099,517963.000,25311,1,T0,1,100,24.579
1574868165.158530,518071.000,25329,1,T0,1,100,24.574
1574868165.294097,518185.000,25346,1,T0,1,100,24.627
1574868165.434420,518303.000,25380,1,T0,1,100,24.622
1574868165.568797,518416.000,25398,1,T0,1,100,24.574
1574868165.697229,518524.000,25416,1,T0,1,100,24.590
1574868165.828038,518634.000,25435,1,T0,1,100,24.633
1574868165.965983,518750.000,25453,1,T0,1,100,24.638
1574868166.103928,518866.000,25471,1,T0,1,100,24.611
1574868166.229981,518972.000,25489,1,T0,1,100,24.649
1574868166.354845,519077.000,25507,1,T0,1,100,24.622
1574868166.495168,519195.000,25525,1,T0,1,100,24.638
1574868166.634302,519312.000,25558,1,T0,1,100,24.611
1574868166.771057,519427.000,25577,1,T0,1,100,24.590
1574868166.911381,519545.000,25595,1,T0,1,100,24.590
1574868167.045758,519658.000,25613,1,T0,1,100,24.595
1574868167.170622,519763.000,25631,1,T0,1,100,24.622
1574868167.306188,519877.000,25652,1,T0,1,100,24.643
1574868167.442944,519992.000,25672,1,T0,1,100,24.638
1574868167.579699,520107.000,25690,1,T0,1,100,24.638
1574868167.710509,520217.000,25708,1,T0,1,100,24.681
1574868167.840129,520326.000,25727,1,T0,1,100,24.617
1574868167.968561,520434.000,25745,1,T0,1,100,24.590
1574868168.106506,520550.000,25763,1,T0,1,100,24.611
1574868168.245640,520667.000,25780,1,T0,1,100,24.606
1574868168.368125,520770.000,25798,1,T0,1,100,24.617
1574868168.498935,520880.000,25816,1,T0,1,100,24.660
1574868168.638069,520997.000,25850,1,T0,1,100,24.601
1574868168.774824,521112.000,25869,1,T0,1,100,24.590
1574868168.908012,521224.000,25887,1,T0,1,100,24.601
1574868169.036444,521332.000,25905,1,T0,1,100,24.606
1574868169.167253,521442.000,25923,1,T0,1,100,24.644
1574868169.302820,521556.000,25941,1,T0,1,100,24.606
1574868169.441954,521673.000,25958,1,T0,1,100,24.606
1574868169.569196,521780.000,25976,1,T0,1,100,24.606
1574868169.697627,521888.000,25994,1,T0,1,100,24.627
1574868169.832005,522001.000,26029,1,T0,1,100,24.633
1574868169.968760,522116.000,26047,1,T0,1,100,24.654
1574868170.106705,522232.000,26065,1,T0,1,100,24.638
1574868170.233947,522339.000,26083,1,T0,1,100,24.595
1574868170.364757,522449.000,26101,1,T0,1,100,24.611
1574868170.493188,522557.000,26119,1,T0,1,100,24.654
1574868170.626376,522669.000,26137,1,T0,1,100,24.633
1574868170.760753,522782.000,26155,1,T0,1,100,24.622
1574868170.902266,522901.000,26173,1,T0,1,100,24.617
1574868171.031886,523010.000,26207,1,T0,1,100,24.633
1574868171.156750,523115.000,26225,1,T0,1,100,24.622
1574868171.294695,523231.000,26243,1,T0,1,100,24.611
1574868171.426694,523342.000,26261,1,T0,1,100,24.606
1574868171.561071,523455.000,26279,1,T0,1,100,24.606
1574868171.701394,523573.000,26297,1,T0,1,100,24.638
1574868171.833393,523684.000,26316,1,T0,1,100,24.633
1574868171.957067,523788.000,26334,1,T0,1,100,24.595
1574868172.092634,523902.000,26351,1,T0,1,100,24.611
1574868172.228200,524016.000,26385,1,T0,1,100,24.670
1574868172.364956,524131.000,26403,1,T0,1,100,24.617
1574868172.493387,524239.000,26421,1,T0,1,100,24.595
1574868172.621819,524347.000,26439,1,T0,1,100,24.601
1574868172.757385,524461.000,26457,1,T0,1,100,24.611
1574868172.891762,524574.000,26476,1,T0,1,100,24.622
1574868173.029707,524690.000,26494,1,T0,1,100,24.649
1574868173.155760,524796.000,26512,1,T0,1,100,24.606
1574868173.290137,524909.000,26529,1,T0,1,100,24.622
1574868173.425704,525023.000,26550,1,T0,1,100,24.638
1574868173.563648,525139.000,26570,1,T0,1,100,24.643
1574868173.693269,525248.000,26588,1,T0,1,100,24.606
1574868173.819322,525354.000,26607,1,T0,1,100,24.590
1574868173.953699,525467.000,26625,1,T0,1,100,24.627
1574868174.092833,525584.000,26642,1,T0,1,100,24.595
1574868174.233156,525702.000,26676,1,T0,1,100,24.558
1574868174.360399,525809.000,26694,1,T0,1,100,24.606
1574868174.490019,525918.000,26712,1,T0,1,100,24.617
1574868174.627964,526034.000,26730,1,T0,1,100,24.601
1574868174.758774,526144.000,26748,1,T0,1,100,24.622
1574868174.896718,526260.000,26767,1,T0,1,100,24.601
1574868175.034663,526376.000,26785,1,T0,1,100,24.649
1574868175.165473,526486.000,26802,1,T0,1,100,24.643
1574868175.293904,526594.000,26820,1,T0,1,100,24.606
1574868175.427092,526706.000,26854,1,T0,1,100,24.622
1574868175.561469,526819.000,26872,1,T0,1,100,24.633
1574868175.701792,526937.000,26890,1,T0,1,100,24.590
1574868175.829035,527044.000,26909,1,T0,1,100,24.611
1574868175.955088,527150.000,26927,1,T0,1,100,24.611
1574868176.091843,527265.000,26945,1,T0,1,100,24.633
1574868176.230977,527382.000,26963,1,T0,1,100,24.633
1574868176.367733,527497.000,26980,1,T0,1,100,24.627
1574868176.493786,527603.000,26998,1,T0,1,100,24.660
1574868176.625785,527714.000,27032,1,T0,1,100,24.643
1574868176.764919,527831.000,27051,1,T0,1,100,24.606
1574868176.904053,527948.000,27069,1,T0,1,100,24.606
1574868177.031295,528055.000,27087,1,T0,1,100,24.627
1574868177.156159,528160.000,27105,1,T0,1,100,24.643
1574868177.295293,528277.000,27123,1,T0,1,100,24.617
1574868177.428481,528389.000,27141,1,T0,1,100,24.633
1574868177.566425,528505.000,27158,1,T0,1,100,24.633
1574868177.692478,528611.000,27176,1,T0,1,100,24.622
1574868177.823288,528721.000,27211,1,T0,1,100,24.601
1574868177.956476,528833.000,27229,1,T0,1,100,24.633
1574868178.099178,528953.000,27247,1,T0,1,100,24.643
1574868178.235933,529068.000,27265,1,T0,1,100,24.649
1574868178.371500,529182.000,27283,1,T0,1,100,24.617
1574868178.504688,529294.000,27301,1,T0,1,100,24.627
1574868178.631930,529401.000,27319,1,T0,1,100,24.622
1574868178.762740,529511.000,27336,1,T0,1,100,24.622
1574868178.901874,529628.000,27371,1,T0,1,100,24.611
1574868179.042197,529746.000,27389,1,T0,1,100,24.622
1574868179.165871,529850.000,27407,1,T0,1,100,24.654
1574868179.296681,529960.000,27425,1,T0,1,100,24.622
1574868179.431058,530073.000,27446,2,T0,1,100,24.595
1574868179.565435,530186.000,27446,2,T0,1,100,24.611
1574868179.704569,530303.000,27482,1,T0,1,100,24.622
1574868179.830622,530409.000,27501,1,T0,1,100,24.638
1574868179.963810,530521.000,27519,1,T0,1,100,24.633
1574868180.098188,530634.000,27537,1,T0,1,100,24.611
1574868180.237322,530751.000,27555,1,T0,1,100,24.622
1574868180.369321,530862.000,27573,1,T0,1,100,24.606
1574868180.495373,530968.000,27591,1,T0,1,100,24.638
1574868180.632129,531083.000,27608,1,T0,1,100,24.601
1574868180.770074,531199.000,27626,1,T0,1,100,24.660
1574868180.908019,531315.000,27661,1,T0,1,100,24.643
1574868181.032882,531420.000,27679,1,T0,1,100,24.633
1574868181.158936,531526.000,27697,1,T0,1,100,24.606
1574868181.299259,531644.000,27715,1,T0,1,100,24.617
1574868181.438393,531761.000,27733,1,T0,1,100,24.595
1574868181.575148,531876.000,27751,1,T0,1,100,24.622
1574868181.714282,531993.000,27769,1,T0,1,100,24.627
1574868181.846281,532104.000,27786,1,T0,1,100,24.595
1574868181.971145,532209.000,27822,1,T0,1,100,24.611
1574868182.107900,532324.000,27839,1,T0,1,100,24.606
1574868182.245845,532440.000,27857,1,T0,1,100,24.638
1574868182.383790,532556.000,27875,1,T0,1,100,24.622
1574868182.511032,532663.000,27893,1,T0,1,100,24.627
1574868182.639463,532771.000,27911,1,T0,1,100,24.660
1574868182.772652,532883.000,27929,1,T0,1,100,24.627
1574868182.910596,532999.000,27948,1,T0,1,100,24.638
1574868183.046163,533113.000,27965,1,T0,1,100,24.590
1574868183.169837,533217.000,27983,1,T0,1,100,24.611
1574868183.303025,533329.000,28019,1,T0,1,100,24.627
1574868183.439781,533444.000,28038,1,T0,1,100,24.611
1574868183.577726,533560.000,28057,1,T0,1,100,24.622
1574868183.708535,533670.000,28076,1,T0,1,100,24.627
1574868183.835778,533777.000,28096,1,T0,1,100,24.622
1574868183.970155,533890.000,28115,1,T0,1,100,24.622
1574868184.105721,534004.000,28134,1,T0,1,100,24.590
1574868184.244855,534121.000,28152,1,T0,1,100,24.606
1574868184.370908,534227.000,28171,1,T0,1,100,24.633
1574868184.501718,534337.000,28207,1,T0,1,100,24.622
1574868184.636095,534450.000,28226,1,T0,1,100,24.579
1574868184.772851,534565.000,28245,1,T0,1,100,24.606
1574868184.907228,534678.000,28263,1,T0,1,100,24.654
1574868185.034470,534785.000,28281,1,T0,1,100,24.590
1574868185.162902,534893.000,28299,1,T0,1,100,24.585
1574868185.291333,535001.000,28317,1,T0,1,100,24.601
1574868185.425710,535114.000,28335,1,T0,1,100,24.595
1574868185.558898,535226.000,28355,1,T0,1,100,24.617
1574868185.700411,535345.000,28375,1,T0,1,100,24.606
1574868185.827653,535452.000,28394,1,T0,1,100,24.611
1574868185.953706,535558.000,28412,1,T0,1,100,24.606
1574868186.091650,535674.000,28430,1,T0,1,100,24.585
1574868186.229595,535790.000,28447,1,T0,1,100,24.595
1574868186.363972,535903.000,28481,1,T0,1,100,24.611
1574868186.492404,536011.000,28499,1,T0,1,100,24.595
1574868186.623214,536121.000,28517,1,T0,1,100,24.627
1574868186.757591,536234.000,28536,1,T0,1,100,24.643
1574868186.896725,536351.000,28554,1,T0,1,100,24.622
1574868187.027534,536461.000,28572,1,T0,1,100,24.606
1574868187.152398,536566.000,28590,1,T0,1,100,24.601
1574868187.285586,536678.000,28608,1,T0,1,100,24.601
1574868187.423531,536794.000,28626,1,T0,1,100,24.590
1574868187.562665,536911.000,28643,1,T0,1,100,24.579
1574868187.688718,537017.000,28677,1,T0,1,100,24.611
1574868187.818339,537126.000,28696,1,T0,1,100,24.617
1574868187.953905,537240.000,28714,1,T0,1,100,24.654
1574868188.091850,537356.000,28732,1,T0,1,100,24.590
1574868188.222659,537466.000,28750,1,T0,1,100,24.590
1574868188.347523,537571.000,28768,1,T0,1,100,24.590
1574868188.481900,537684.000,28786,1,T0,1,100,24.606
1574868188.616278,537797.000,28804,1,T0,1,100,24.611
1574868188.754222,537913.000,28821,1,T0,1,100,24.692
1574868188.895735,538032.000,28856,1,T0,1,100,24.601
1574868189.034869,538149.000,28874,1,T0,1,100,24.617
1574868189.159733,538254.000,28892,1,T0,1,100,24.638
1574868189.290542,538364.000,28910,1,T0,1,100,24.617
1574868189.426109,538478.000,28928,1,T0,1,100,24.585
1574868189.560486,538591.000,28946,1,T0,1,100,24.654
1574868189.698431,538707.000,28964,1,T0,1,100,24.617
1574868189.825673,538814.000,28982,1,T0,1,100,24.627
1574868189.952915,538921.000,29000,1,T0,1,100,24.627
1574868190.090860,539037.000,29034,1,T0,1,100,24.644
1574868190.229994,539154.000,29052,1,T0,1,100,24.670
1574868190.358425,539262.000,29070,1,T0,1,100,24.611
1574868190.486856,539370.000,29088,1,T0,1,100,24.627
1574868190.620044,539482.000,29106,1,T0,1,100,24.633
1574868190.757989,539598.000,29124,1,T0,1,100,24.676
1574868190.895934,539714.000,29143,1,T0,1,100,24.579
1574868191.023176,539821.000,29160,1,T0,1,100,24.568
1574868191.153986,539931.000,29178,1,T0,1,100,24.601
1574868191.289552,540045.000,29212,1,T0,1,100,24.654
1574868191.429876,540163.000,29230,1,T0,1,100,24.660
1574868191.558902,540271.500,29251,2,T0,1,100,24.643
1574868191.687927,540380.000,29251,2,T0,1,100,24.606
1574868191.819926,540491.000,29270,1,T0,1,100,24.611
1574868191.957871,540607.000,29289,1,T0,1,100,24.660
1574868192.095816,540723.000,29323,1,T0,1,100,24.606
1574868192.223058,540830.000,29341,1,T0,1,100,24.633
1574868192.346733,540934.000,29359,1,T0,1,100,24.606
1574868192.483488,541049.000,29377,1,T0,1,100,24.633
1574868192.614298,541159.000,29395,1,T0,1,100,24.606
1574868192.747486,541271.000,29413,1,T0,1,100,24.563
1574868192.887809,541389.000,29432,1,T0,1,100,24.611
1574868193.023376,541503.000,29449,1,T0,1,100,24.617
1574868193.148239,541608.000,29467,1,T0,1,100,24.617
1574868193.283806,541722.000,29501,1,T0,1,100,24.643
1574868193.420561,541837.000,29519,1,T0,1,100,24.611
1574868193.554939,541950.000,29537,1,T0,1,100,24.611
1574868193.686938,542061.000,29555,1,T0,1,100,24.633
1574868193.812990,542167.000,29574,1,T0,1,100,24.617
1574868193.943800,542277.000,29592,1,T0,1,100,24.627
1574868194.081745,542393.000,29610,1,T0,1,100,24.633
1574868194.222068,542511.000,29628,1,T0,1,100,24.643
1574868194.348121,542617.000,29645,1,T0,1,100,24.595
1574868194.476552,542725.000,29663,1,T0,1,100,24.590
1574868194.614497,542841.000,29697,1,T0,1,100,24.627
1574868194.751253,542956.000,29716,1,T0,1,100,24.622
1574868194.885630,543069.000,29734,1,T0,1,100,24.660
1574868195.012872,543176.000,29752,1,T0,1,100,24.595
1574868195.144871,543287.000,29770,1,T0,1,100,24.611
1574868195.284005,543404.000,29788,1,T0,1,100,24.638
1574868195.418382,543517.000,29806,1,T0,1,100,24.579
1574868195.548003,543626.000,29823,1,T0,1,100,24.595
1574868195.675245,543733.000,29841,1,T0,1,100,24.638
1574868195.809622,543846.000,29876,1,T0,1,100,24.622
1574868195.947567,543962.000,29894,1,T0,1,100,24.660
1574868196.091458,544083.000,29912,1,T0,1,100,24.654
1574868196.229402,544199.000,29930,1,T0,1,100,24.611
1574868196.363780,544312.000,29948,1,T0,1,100,24.638
1574868196.491022,544419.000,29966,1,T0,1,100,24.643
1574868196.623021,544530.000,29983,1,T0,1,100,24.644
1574868196.757398,544643.000,30001,1,T0,1,100,24.622
1574868196.898910,544762.000,30036,1,T0,1,100,24.633
1574868197.029720,544872.000,30054,1,T0,1,100,24.638
1574868197.153395,544976.000,30072,1,T0,1,100,24.590
1574868197.288961,545090.000,30090,1,T0,1,100,24.601
1574868197.425717,545205.000,30108,1,T0,1,100,24.638
1574868197.562472,545320.000,30126,1,T0,1,100,24.622
1574868197.689714,545427.000,30147,1,T0,1,100,24.617
1574868197.818146,545535.000,30168,1,T0,1,100,24.611
1574868197.954901,545650.000,30186,1,T0,1,100,24.643
1574868198.089278,545763.000,30204,1,T0,1,100,24.627
1574868198.226034,545878.000,30222,1,T0,1,100,24.654
1574868198.350898,545983.000,30240,1,T0,1,100,24.606
1574868198.482897,546094.000,30258,1,T0,1,100,24.617
1574868198.622031,546211.000,30275,1,T0,1,100,24.649
1574868198.758786,546326.000,30310,1,T0,1,100,24.622
1574868198.887218,546434.000,30328,1,T0,1,100,24.579
1574868199.013271,546540.000,30346,1,T0,1,100,24.638
1574868199.148837,546654.000,30364,1,T0,1,100,24.660
1574868199.287971,546771.000,30382,1,T0,1,100,24.617
1574868199.423537,546885.000,30400,1,T0,1,100,24.601
1574868199.548401,546990.000,30418,1,T0,1,100,24.611
1574868199.679211,547100.000,30436,1,T0,1,100,24.638
1574868199.805264,547206.000,30455,1,T0,1,100,24.649
1574868199.936074,547316.000,30472,1,T0,1,100,24.611
1574868200.075208,547433.000,30506,1,T0,1,100,24.633
1574868200.214342,547550.000,30524,1,T0,1,100,24.627
1574868200.342773,547658.000,30542,1,T0,1,100,24.617
1574868200.472394,547767.000,30560,1,T0,1,100,24.627
1574868200.606771,547880.000,30578,1,T0,1,100,24.665
1574868200.739959,547992.000,30596,1,T0,1,100,24.627
1574868200.881471,548111.000,30615,1,T0,1,100,24.649
1574868201.007524,548217.000,30633,1,T0,1,100,24.590
1574868201.134766,548324.000,30650,1,T0,1,100,24.611
1574868201.272711,548440.000,30668,1,T0,1,100,24.643
1574868201.411845,548557.000,30702,1,T0,1,100,24.649
1574868201.546222,548670.000,30720,1,T0,1,100,24.601
1574868201.671086,548775.000,30738,1,T0,1,100,24.633
1574868201.804274,548887.000,30757,1,T0,1,100,24.643
1574868201.942219,549003.000,30775,1,T0,1,100,24.660
1574868202.078974,549118.000,30793,1,T0,1,100,24.595
1574868202.210973,549229.000,30810,1,T0,1,100,24.676
1574868202.337026,549335.000,30828,1,T0,1,100,24.627
1574868202.477350,549453.000,30863,1,T0,1,100,24.644
1574868202.611727,549566.000,30880,1,T0,1,100,24.649
1574868202.749671,549682.000,30899,1,T0,1,100,24.622
1574868202.873346,549786.000,30917,1,T0,1,100,24.638
1574868203.002967,549895.000,30935,1,T0,1,100,24.660
1574868203.139722,550010.000,30953,1,T0,1,100,24.633
1574868203.282424,550130.000,30971,1,T0,1,100,24.638
1574868203.415612,550242.000,30988,1,T0,1,100,24.670
1574868203.554746,550359.000,31006,1,T0,1,100,24.638
1574868203.684366,550468.000,31041,2,T0,1,100,24.676
1574868203.813987,550577.000,31041,2,T0,1,100,24.665
1574868203.944797,550687.000,31064,1,T0,1,100,24.665
1574868204.083930,550804.000,31082,1,T0,1,100,24.649
1574868204.223064,550921.000,31099,1,T0,1,100,24.654
1574868204.346739,551025.000,31133,1,T0,1,100,24.654
1574868204.478738,551136.000,31151,1,T0,1,100,24.643
1574868204.615494,551251.000,31169,1,T0,1,100,24.660
1574868204.747492,551362.000,31188,1,T0,1,100,24.633
1574868204.884248,551477.000,31206,1,T0,1,100,24.654
1574868205.011490,551584.000,31224,1,T0,1,100,24.638
1574868205.136354,551689.000,31242,1,T0,1,100,24.665
1574868205.274299,551805.000,31260,1,T0,1,100,24.660
1574868205.415811,551924.000,31277,1,T0,1,100,24.670
1574868205.545432,552033.000,31295,1,T0,1,100,24.654
1574868205.671485,552139.000,31329,1,T0,1,100,24.665
1574868205.808240,552254.000,31348,1,T0,1,100,24.681
1574868205.944996,552369.000,31366,1,T0,1,100,24.638
1574868206.082941,552485.000,31384,1,T0,1,100,24.660
1574868206.206615,552589.000,31402,1,T0,1,100,24.681
1574868206.333857,552696.000,31420,1,T0,1,100,24.692
1574868206.474180,552814.000,31438,1,T0,1,100,24.665
1574868206.608558,552927.000,31455,1,T0,1,100,24.654
1574868206.741746,553039.000,31473,1,T0,1,100,24.665
1574868206.870177,553147.000,31508,1,T0,1,100,24.670
1574868207.006933,553262.000,31526,1,T0,1,100,24.676
1574868207.131797,553367.000,31544,1,T0,1,100,24.654
1574868207.269741,553483.000,31562,1,T0,1,100,24.660
1574868207.407686,553599.000,31580,1,T0,1,100,24.681
1574868207.545631,553715.000,31598,1,T0,1,100,24.649
1574868207.672873,553822.000,31616,1,T0,1,100,24.649
1574868207.807250,553935.000,31635,1,T0,1,100,24.622
1574868207.934492,554042.000,31652,1,T0,1,100,24.676
1574868208.070059,554156.000,31670,1,T0,1,100,24.692
1574868208.206815,554271.000,31704,1,T0,1,100,24.654
1574868208.343570,554386.000,31722,1,T0,1,100,24.686
1574868208.473191,554495.000,31740,1,T0,1,100,24.665
1574868208.600433,554602.000,31758,1,T0,1,100,24.649
1574868208.731242,554712.000,31776,1,T0,1,100,24.681
1574868208.869187,554828.000,31795,1,T0,1,100,24.617
1574868209.005943,554943.000,31813,1,T0,1,100,24.692
1574868209.131996,555049.000,31830,1,T0,1,100,24.643
1574868209.262805,555159.000,31848,1,T0,1,100,24.702
1574868209.400750,555275.000,31882,1,T0,1,100,24.676
1574868209.538695,555391.000,31900,1,T0,1,100,24.676
1574868209.671883,555503.000,31918,1,T0,1,100,24.697
1574868209.802098,555612.500,31940,2,T0,1,100,24.617
1574868209.932313,555722.000,31940,2,T0,1,100,24.681
1574868210.071447,555839.000,31976,1,T0,1,100,24.654
1574868210.207014,555953.000,31994,1,T0,1,100,24.665
1574868210.334256,556060.000,32012,1,T0,1,100,24.676
1574868210.463876,556169.000,32030,1,T0,1,100,24.692
1574868210.598254,556282.000,32048,1,T0,1,100,24.665
1574868210.735009,556397.000,32066,1,T0,1,100,24.681
1574868210.875332,556515.000,32085,1,T0,1,100,24.654
1574868211.002574,556622.000,32102,1,T0,1,100,24.686
1574868211.131006,556730.000,32120,1,T0,1,100,24.622
1574868211.270140,556847.000,32154,1,T0,1,100,24.676
1574868211.404517,556960.000,32172,1,T0,1,100,24.611
1574868211.538894,557073.000,32190,1,T0,1,100,24.654
1574868211.680407,557192.000,32208,1,T0,1,100,24.729
1574868211.810027,557301.000,32227,1,T0,1,100,24.665
1574868211.934891,557406.000,32245,1,T0,1,100,24.649
1574868212.071647,557521.000,32263,1,T0,1,100,24.665
1574868212.209591,557637.000,32280,1,T0,1,100,24.724
1574868212.343969,557750.000,32314,1,T0,1,100,24.665
1574868212.471211,557857.000,32332,1,T0,1,100,24.686
1574868212.600831,557966.000,32350,1,T0,1,100,24.702
1574868212.737587,558081.000,32369,1,T0,1,100,24.665
1574868212.873153,558195.000,32387,1,T0,1,100,24.681
1574868213.006341,558307.000,32405,1,T0,1,100,24.697
1574868213.132394,558413.000,32423,1,T0,1,100,24.686
1574868213.265582,558525.000,32441,1,T0,1,100,24.676
1574868213.403527,558641.000,32458,1,T0,1,100,24.627
1574868213.542661,558758.000,32476,1,T0,1,100,24.660
1574868213.667525,558863.000,32510,1,T0,1,100,24.670
1574868213.794767,558970.000,32529,1,T0,1,100,24.713
1574868213.930334,559084.000,32547,1,T0,1,100,24.724
1574868214.069468,559201.000,32565,1,T0,1,100,24.660
1574868214.202656,559313.000,32583,1,T0,1,100,24.713
1574868214.327519,559418.000,32601,1,T0,1,100,24.665
1574868214.458329,559528.000,32619,1,T0,1,100,24.660
1574868214.583193,559633.000,32637,1,T0,1,100,24.676
1574868214.716381,559745.000,32655,1,T0,1,100,24.692
1574868214.855515,559862.000,32673,1,T0,1,100,24.713
1574868214.995838,559980.000,32707,1,T0,1,100,24.676
1574868215.121891,560086.000,32725,1,T0,1,100,24.686
1574868215.251512,560195.000,32743,1,T0,1,100,24.676
1574868215.387078,560309.000,32761,1,T0,1,100,24.735
1574868215.521455,560422.000,32779,1,T0,1,100,24.670
1574868215.660589,560539.000,32797,1,T0,1,100,24.692
1574868215.786642,560645.000,32816,1,T0,1,100,24.670
1574868215.915073,560753.000,32837,1,T0,1,100,24.692
1574868216.051829,560868.000,32857,1,T0,1,100,24.702
1574868216.189774,560984.000,32875,1,T0,1,100,24.692
1574868216.320584,561094.000,32893,1,T0,1,100,24.633
1574868216.449015,561202.000,32911,1,T0,1,100,24.692
1574868216.584581,561316.000,32929,1,T0,1,100,24.665
1574868216.723715,561433.000,32946,1,T0,1,100,24.649
1574868216.861660,561549.000,32981,1,T0,1,100,24.644
1574868216.990091,561657.000,32999,1,T0,1,100,24.660
1574868217.118523,561765.000,33017,1,T0,1,100,24.670
1574868217.257657,561882.000,33035,1,T0,1,100,24.660
1574868217.392034,561995.000,33053,1,T0,1,100,24.713
1574868217.527600,562109.000,33071,1,T0,1,100,24.708
1574868217.652464,562214.000,33089,1,T0,1,100,24.649
1574868217.783274,562324.000,33108,1,T0,1,100,24.665
1574868217.920029,562439.000,33125,1,T0,1,100,24.702
1574868218.057974,562555.000,33159,1,T0,1,100,24.686
1574868218.189973,562666.000,33177,1,T0,1,100,24.681
1574868218.329107,562783.000,33195,1,T0,1,100,24.676
1574868218.457538,562891.000,33213,1,T0,1,100,24.686
1574868218.588348,563001.000,33231,1,T0,1,100,24.708
1574868218.720347,563112.000,33249,1,T0,1,100,24.692
1574868218.859481,563229.000,33268,1,T0,1,100,24.649
1574868218.996237,563344.000,33286,1,T0,1,100,24.702
1574868219.121100,563449.000,33303,1,T0,1,100,24.676
1574868219.254288,563561.000,33321,1,T0,1,100,24.670
1574868219.389855,563675.000,33355,1,T0,1,100,24.676
1574868219.524232,563788.000,33373,1,T0,1,100,24.692
1574868219.658609,563901.000,33391,1,T0,1,100,24.676
1574868219.784662,564007.000,33410,1,T0,1,100,24.633
1574868219.914283,564116.000,33428,1,T0,1,100,24.686
1574868220.052228,564232.000,33446,1,T0,1,100,24.702
1574868220.192551,564350.000,33464,1,T0,1,100,24.686
1574868220.319793,564457.000,33481,1,T0,1,100,24.670
1574868220.448224,564565.000,33499,1,T0,1,100,24.660
1574868220.586169,564681.000,33533,1,T0,1,100,24.692
1574868220.722925,564796.000,33552,1,T0,1,100,24.681
1574868220.859680,564911.000,33570,1,T0,1,100,24.697
1574868220.982166,565014.000,33588,1,T0,1,100,24.676
1574868221.112975,565124.000,33606,1,T0,1,100,24.713
1574868221.252109,565241.000,33624,1,T0,1,100,24.670
1574868221.386487,565354.000,33642,1,T0,1,100,24.708
1574868221.517296,565464.000,33660,1,T0,1,100,24.708
1574868221.644538,565571.000,33677,1,T0,1,100,24.692
1574868221.782483,565687.000,33712,1,T0,1,100,24.660
1574868221.915077,565798.500,33733,2,T0,1,100,24.686
1574868222.047670,565910.000,33733,2,T0,1,100,24.681
1574868222.185615,566026.000,33753,1,T0,1,100,24.676
1574868222.321181,566140.000,33770,1,T0,1,100,24.692
1574868222.448424,566247.000,33788,1,T0,1,100,24.719
1574868222.580422,566358.000,33822,1,T0,1,100,24.649
1574868222.714800,566471.000,33841,1,T0,1,100,24.686
1574868222.855123,566589.000,33859,1,T0,1,100,24.681
1574868222.987122,566700.000,33877,1,T0,1,100,24.697
1574868223.110796,566804.000,33895,1,T0,1,100,24.681
1574868223.246363,566918.000,33913,1,T0,1,100,24.681
1574868223.381929,567032.000,33931,1,T0,1,100,24.681
1574868223.518685,567147.000,33948,1,T0,1,100,24.676
1574868223.647116,567255.000,33966,1,T0,1,100,24.681
1574868223.775548,567363.000,34001,1,T0,1,100,24.724
1574868223.911114,567477.000,34019,1,T0,1,100,24.708
1574868224.045491,567590.000,34037,1,T0,1,100,24.654
1574868224.184625,567707.000,34055,1,T0,1,100,24.692
1574868224.309489,567812.000,34073,1,T0,1,100,24.702
1574868224.443866,567925.000,34091,1,T0,1,100,24.686
1574868224.579432,568039.000,34109,1,T0,1,100,24.697
1574868224.716188,568154.000,34126,1,T0,1,100,24.702
1574868224.845809,568263.000,34145,1,T0,1,100,24.686
1574868224.971862,568369.000,34163,1,T0,1,100,24.686
1574868225.106239,568482.000,34197,1,T0,1,100,24.697
1574868225.245373,568599.000,34215,1,T0,1,100,24.681
1574868225.385696,568717.000,34233,1,T0,1,100,24.638
1574868225.523641,568833.000,34251,1,T0,1,100,24.692
1574868225.660396,568948.000,34269,1,T0,1,100,24.676
1574868225.787638,569055.000,34288,1,T0,1,100,24.697
1574868225.916070,569163.000,34305,1,T0,1,100,24.686
1574868226.054015,569279.000,34340,1,T0,1,100,24.697
1574868226.191959,569395.000,34357,1,T0,1,100,24.681
1574868226.322769,569505.000,34375,1,T0,1,100,24.745
1574868226.450011,569612.000,34393,1,T0,1,100,24.719
1574868226.583199,569724.000,34411,1,T0,1,100,24.692
1574868226.717577,569837.000,34429,1,T0,1,100,24.708
1574868226.859089,569956.000,34448,1,T0,1,100,24.702
1574868226.986331,570063.000,34466,1,T0,1,100,24.729
1574868227.112384,570169.000,34483,1,T0,1,100,24.692
1574868227.249140,570284.000,34501,1,T0,1,100,24.729
1574868227.389463,570402.000,34535,1,T0,1,100,24.708
1574868227.525029,570516.000,34553,1,T0,1,100,24.670
1574868227.649893,570621.000,34571,1,T0,1,100,24.719
1574868227.781892,570732.000,34590,1,T0,1,100,24.713
1574868227.918648,570847.000,34608,1,T0,1,100,24.713
1574868228.054214,570961.000,34627,1,T0,1,100,24.681
1574868228.185024,571071.000,34645,1,T0,1,100,24.665
1574868228.309887,571176.000,34663,1,T0,1,100,24.719
1574868228.449021,571293.000,34685,1,T0,1,100,24.719
1574868228.582209,571405.000,34703,1,T0,1,100,24.708
1574868228.720154,571521.000,34721,1,T0,1,100,24.708
1574868228.846207,571627.000,34740,1,T0,1,100,24.681
1574868228.979395,571739.000,34758,1,T0,1,100,24.686
1574868229.104259,571844.000,34775,1,T0,1,100,24.697
1574868229.239825,571958.000,34793,1,T0,1,100,24.724
1574868229.376581,572073.000,34827,1,T0,1,100,24.713
1574868229.512147,572187.000,34845,1,T0,1,100,24.724
1574868229.645335,572299.000,34863,1,T0,1,100,24.719
1574868229.773767,572407.000,34882,1,T0,1,100,24.719
1574868229.904577,572517.000,34900,1,T0,1,100,24.686
1574868230.043710,572634.000,34918,1,T0,1,100,24.697
1574868230.184034,572752.000,34936,1,T0,1,100,24.708
1574868230.307708,572856.000,34953,1,T0,1,100,24.735
1574868230.438518,572966.000,34971,1,T0,1,100,24.719
1574868230.574085,573080.000,35005,1,T0,1,100,24.654
1574868230.706083,573191.000,35024,1,T0,1,100,24.681
1574868230.845217,573308.000,35042,1,T0,1,100,24.697
1574868230.973649,573416.000,35060,1,T0,1,100,24.702
1574868231.104458,573526.000,35078,1,T0,1,100,24.724
1574868231.240025,573640.000,35096,1,T0,1,100,24.702
1574868231.380348,573758.000,35114,1,T0,1,100,24.692
1574868231.511158,573868.000,35131,1,T0,1,100,24.708
1574868231.637211,573974.000,35149,1,T0,1,100,24.708
1574868231.771588,574087.000,35184,1,T0,1,100,24.692
1574868231.909533,574203.000,35202,1,T0,1,100,24.702
1574868232.047477,574319.000,35220,1,T0,1,100,24.681
1574868232.172341,574424.000,35238,1,T0,1,100,24.692
1574868232.298394,574530.000,35256,1,T0,1,100,24.708
1574868232.438717,574648.000,35274,1,T0,1,100,24.692
1574868232.577851,574765.000,35292,1,T0,1,100,24.702
1574868232.714607,574880.000,35309,1,T0,1,100,24.761
1574868232.852552,574996.000,35344,1,T0,1,100,24.708
1574868232.984550,575107.000,35362,1,T0,1,100,24.719
1574868233.109414,575212.000,35380,1,T0,1,100,24.708
1574868233.246170,575327.000,35398,1,T0,1,100,24.702
1574868233.384115,575443.000,35416,1,T0,1,100,24.708
1574868233.523249,575560.000,35434,1,T0,1,100,24.708
1574868233.650491,575667.000,35452,1,T0,1,100,24.719
1574868233.780111,575776.000,35471,1,T0,1,100,24.697
1574868233.907353,575883.000,35488,1,T0,1,100,24.729
1574868234.042920,575997.000,35506,1,T0,1,100,24.702
1574868234.178486,576111.000,35527,1,T0,1,100,24.692
1574868234.312864,576224.000,35547,1,T0,1,100,24.692
1574868234.443673,576334.000,35565,1,T0,1,100,24.719
1574868234.569726,576440.000,35583,1,T0,1,100,24.729
1574868234.700536,576550.000,35600,1,T0,1,100,24.724
1574868234.838481,576666.000,35636,1,T0,1,100,24.708
1574868234.978804,576784.000,35653,1,T0,1,100,24.697
1574868235.104857,576890.000,35671,1,T0,1,100,24.697
1574868235.234477,576999.000,35689,1,T0,1,100,24.729
1574868235.371233,577114.000,35707,1,T0,1,100,24.708
1574868235.509178,577230.000,35725,1,T0,1,100,24.708
1574868235.644744,577344.000,35743,1,T0,1,100,24.751
1574868235.768419,577448.000,35762,1,T0,1,100,24.724
1574868235.901607,577560.000,35779,1,T0,1,100,24.713
1574868236.040741,577677.000,35813,1,T0,1,100,24.713
1574868236.176307,577791.000,35831,1,T0,1,100,24.708
1574868236.304739,577899.000,35849,1,T0,1,100,24.751
1574868236.433170,578007.000,35867,1,T0,1,100,24.740
1574868236.568736,578121.000,35885,1,T0,1,100,24.756
1574868236.701924,578233.000,35903,1,T0,1,100,24.697
1574868236.844626,578353.000,35922,1,T0,1,100,24.665
1574868236.982571,578469.000,35939,1,T0,1,100,24.740
1574868237.115759,578581.000,35957,1,T0,1,100,24.735
1574868237.244190,578689.000,35991,1,T0,1,100,24.702
1574868237.377378,578801.000,36009,1,T0,1,100,24.713
1574868237.511755,578914.000,36027,1,T0,1,100,24.702
1574868237.653268,579033.000,36045,1,T0,1,100,24.724
1574868237.781699,579141.000,36064,1,T0,1,100,24.729
1574868237.906563,579246.000,36082,1,T0,1,100,24.729
1574868238.043319,579361.000,36100,1,T0,1,100,24.761
1574868238.181263,579477.000,36118,1,T0,1,100,24.708
1574868238.316830,579591.000,36135,1,T0,1,100,24.729
1574868238.444072,579698.000,36169,1,T0,1,100,24.729
1574868238.572503,579806.000,36187,1,T0,1,100,24.745
1574868238.710448,579922.000,36206,1,T0,1,100,24.729
1574868238.846014,580036.000,36224,1,T0,1,100,24.724
1574868238.980392,580149.000,36242,1,T0,1,100,24.713
1574868239.106445,580255.000,36260,1,T0,1,100,24.756
1574868239.238443,580366.000,36278,1,T0,1,100,24.713
1574868239.375199,580481.000,36296,1,T0,1,100,24.740
1574868239.513144,580597.000,36313,1,T0,1,100,24.740
1574868239.640386,580704.000,36331,1,T0,1,100,24.729
1574868239.766439,580810.000,36366,1,T0,1,100,24.745
1574868239.902005,580924.000,36384,1,T0,1,100,24.724
1574868240.041139,581041.000,36402,1,T0,1,100,24.761
1574868240.180273,581158.000,36423,1,T0,1,100,24.756
1574868240.318218,581274.000,36443,1,T0,1,100,24.724
1574868240.451406,581386.000,36460,1,T0,1,100,24.772
1574868240.578648,581493.000,36478,1,T0,1,100,24.767
1574868240.707080,581601.000,36497,1,T0,1,100,24.756
1574868240.846214,581718.000,36515,1,T0,1,100,24.788
1574868240.986537,581836.000,36533,1,T0,1,100,24.761
1574868241.113779,581943.000,36551,1,T0,1,100,24.735
1574868241.244589,582053.000,36569,1,T0,1,100,24.713
1574868241.377777,582165.000,36586,1,T0,1,100,24.735
1574868241.512154,582278.000,36604,1,T0,1,100,24.740
1574868241.652477,582396.000,36638,1,T0,1,100,24.772
1574868241.778530,582502.000,36657,1,T0,1,100,24.729
1574868241.905772,582609.000,36675,1,T0,1,100,24.756
1574868242.043717,582725.000,36693,1,T0,1,100,24.751
1574868242.181662,582841.000,36711,1,T0,1,100,24.751
1574868242.316039,582954.000,36729,1,T0,1,100,24.783
1574868242.442092,583060.000,36747,1,T0,1,100,24.735
1574868242.574091,583171.000,36764,1,T0,1,100,24.740
1574868242.713225,583288.000,36782,1,T0,1,100,24.751
1574868242.849980,583403.000,36817,1,T0,1,100,24.745
1574868242.979601,583512.000,36835,1,T0,1,100,24.783
1574868243.105654,583618.000,36853,1,T0,1,100,24.783
1574868243.245977,583736.000,36871,1,T0,1,100,24.735
1574868243.380354,583849.000,36889,1,T0,1,100,24.729
1574868243.517110,583964.000,36907,1,T0,1,100,24.740
1574868243.640785,584068.000,36925,1,T0,1,100,24.756
1574868243.775162,584181.000,36944,1,T0,1,100,24.740
1574868243.900026,584286.000,36961,1,T0,1,100,24.724
1574868244.037970,584402.000,36995,1,T0,1,100,24.767
1574868244.174726,584517.000,37013,1,T0,1,100,24.794
1574868244.311481,584632.000,37031,1,T0,1,100,24.767
1574868244.441102,584741.000,37049,1,T0,1,100,24.778
1574868244.570723,584850.000,37067,1,T0,1,100,24.772
1574868244.701532,584960.000,37085,1,T0,1,100,24.761
1574868244.841856,585078.000,37104,1,T0,1,100,24.767
1574868244.979800,585194.000,37121,1,T0,1,100,24.751
1574868245.103475,585298.000,37139,1,T0,1,100,24.778
1574868245.235474,585409.000,37157,1,T0,1,100,24.778
1574868245.371040,585523.000,37191,1,T0,1,100,24.767
1574868245.505417,585636.000,37209,1,T0,1,100,24.761
1574868245.640984,585750.000,37227,1,T0,1,100,24.778
1574868245.769415,585858.000,37246,1,T0,1,100,24.756
1574868245.902603,585970.000,37264,1,T0,1,100,24.778
1574868246.038170,586084.000,37282,1,T0,1,100,24.745
1574868246.178493,586202.000,37299,1,T0,1,100,24.783
1574868246.308113,586311.000,37320,1,T0,1,100,24.783
1574868246.436545,586419.000,37340,1,T0,1,100,24.767
1574868246.572111,586533.000,37358,1,T0,1,100,24.804
1574868246.708867,586648.000,37376,1,T0,1,100,24.783
1574868246.845622,586763.000,37395,1,T0,1,100,24.740
1574868246.969297,586867.000,37412,1,T0,1,100,24.756
1574868247.098917,586976.000,37430,1,T0,1,100,24.756
1574868247.239241,587094.000,37464,1,T0,1,100,24.794
1574868247.373618,587207.000,37482,1,T0,1,100,24.794
1574868247.507995,587320.000,37500,1,T0,1,100,24.778
1574868247.644751,587435.000,37518,1,T0,1,100,24.756
1574868247.773182,587543.000,37537,1,T0,1,100,24.783
1574868247.898046,587648.000,37555,1,T0,1,100,24.751
1574868248.035990,587764.000,37573,1,T0,1,100,24.783
1574868248.173935,587880.000,37590,1,T0,1,100,24.788
1574868248.310691,587995.000,37624,1,T0,1,100,24.761
1574868248.437933,588102.000,37642,1,T0,1,100,24.831
1574868248.569932,588213.000,37660,1,T0,1,100,24.804
1574868248.703120,588325.000,37679,1,T0,1,100,24.761
1574868248.841065,588441.000,37697,1,T0,1,100,24.745
1574868248.974253,588553.000,37715,1,T0,1,100,24.778
1574868249.097928,588657.000,37733,1,T0,1,100,24.788
1574868249.232305,588770.000,37751,1,T0,1,100,24.751
1574868249.367871,588884.000,37769,1,T0,1,100,24.761
1574868249.505816,589000.000,37786,1,T0,1,100,24.778
1574868249.634247,589108.000,37820,1,T0,1,100,24.783
1574868249.761489,589215.000,37839,1,T0,1,100,24.783
1574868249.897056,589329.000,37857,1,T0,1,100,24.799
1574868250.032622,589443.000,37875,1,T0,1,100,24.794
1574868250.172945,589561.000,37893,1,T0,1,100,24.761
1574868250.295431,589664.000,37911,1,T0,1,100,24.756
1574868250.429808,589777.000,37929,1,T0,1,100,24.799
1574868250.564185,589890.000,37947,1,T0,1,100,24.788
1574868250.700941,590005.000,37964,1,T0,1,100,24.772
1574868250.832940,590116.000,37999,1,T0,1,100,24.788
1574868250.958993,590222.000,38017,1,T0,1,100,24.815
1574868251.092181,590334.000,38035,1,T0,1,100,24.783
1574868251.232504,590452.000,38053,1,T0,1,100,24.804
