EpochTimestamp,EmotiBitTimestamp,PacketNumber,DataLength,TypeTag,ProtocolVersion,DataReliability,AX
1570470239.576895,50847.000,8228,11,AX,1,100,-0.439
1570470239.576895,50847.000,8228,11,AX,1,100,-0.419
1570470239.576895,50847.000,8228,11,AX,1,100,-0.419
1570470239.576895,50847.000,8228,11,AX,1,100,-0.422
1570470239.576895,50847.000,8228,11,AX,1,100,-0.368
1570470239.576895,50847.000,8228,11,AX,1,100,-0.379
1570470239.576895,50847.000,8228,11,AX,1,100,-0.486
1570470239.576895,50847.000,8228,11,AX,1,100,-0.548
1570470239.576895,50847.000,8228,11,AX,1,100,-0.537
1570470239.576895,50847.000,8228,11,AX,1,100,-0.498
1570470239.576895,50847.000,8228,11,AX,1,100,-0.480
1570470239.593852,50860.286,8246,7,AX,1,100,-0.477
1570470239.610810,50873.571,8246,7,AX,1,100,-0.465
1570470239.627768,50886.857,8246,7,AX,1,100,-0.455
1570470239.644725,50900.143,8246,7,AX,1,100,-0.468
1570470239.661683,50913.429,8246,7,AX,1,100,-0.460
1570470239.678641,50926.714,8246,7,AX,1,100,-0.459
1570470239.695598,50940.000,8246,7,AX,1,100,-0.455
1570470239.712191,50953.000,8264,8,AX,1,100,-0.398
1570470239.728784,50966.000,8264,8,AX,1,100,-0.372
1570470239.745377,50979.000,8264,8,AX,1,100,-0.373
1570470239.761970,50992.000,8264,8,AX,1,100,-0.387
1570470239.778563,51005.000,8264,8,AX,1,100,-0.390
1570470239.795156,51018.000,8264,8,AX,1,100,-0.441
1570470239.811749,51031.000,8264,8,AX,1,100,-0.456
1570470239.828342,51044.000,8264,8,AX,1,100,-0.477
1570470239.844775,51056.875,8282,8,AX,1,100,-0.498
1570470239.861209,51069.750,8282,8,AX,1,100,-0.432
1570470239.877642,51082.625,8282,8,AX,1,100,-0.406
1570470239.894076,51095.500,8282,8,AX,1,100,-0.360
1570470239.910509,51108.375,8282,8,AX,1,100,-0.353
1570470239.926942,51121.250,8282,8,AX,1,100,-0.380
1570470239.943376,51134.125,8282,8,AX,1,100,-0.469
1570470239.959809,51147.000,8282,8,AX,1,100,-0.482
1570470239.976562,51160.125,8300,8,AX,1,100,-0.462
1570470239.993314,51173.250,8300,8,AX,1,100,-0.385
1570470240.010067,51186.375,8300,8,AX,1,100,-0.330
1570470240.026819,51199.500,8300,8,AX,1,100,-0.332
1570470240.043572,51212.625,8300,8,AX,1,100,-0.415
1570470240.060324,51225.750,8300,8,AX,1,100,-0.445
1570470240.077077,51238.875,8300,8,AX,1,100,-0.382
1570470240.093829,51252.000,8300,8,AX,1,100,-0.176
1570470240.110240,51264.857,8318,7,AX,1,100,-0.083
1570470240.126651,51277.714,8318,7,AX,1,100,0.012
1570470240.143061,51290.571,8318,7,AX,1,100,-0.032
1570470240.159472,51303.429,8318,7,AX,1,100,-0.193
1570470240.175882,51316.286,8318,7,AX,1,100,-0.680
1570470240.192293,51329.143,8318,7,AX,1,100,-0.672
1570470240.208704,51342.000,8318,7,AX,1,100,-0.504
1570470240.225456,51355.125,8336,8,AX,1,100,-0.217
1570470240.242209,51368.250,8336,8,AX,1,100,-0.238
1570470240.258961,51381.375,8336,8,AX,1,100,-0.386
1570470240.275714,51394.500,8336,8,AX,1,100,-0.710
1570470240.292466,51407.625,8336,8,AX,1,100,-0.650
1570470240.309219,51420.750,8336,8,AX,1,100,-0.562
1570470240.325971,51433.875,8336,8,AX,1,100,-0.527
1570470240.342724,51447.000,8336,8,AX,1,100,-0.521
1570470240.359476,51460.125,8355,8,AX,1,100,-0.627
1570470240.376229,51473.250,8355,8,AX,1,100,-0.606
1570470240.392981,51486.375,8355,8,AX,1,100,-0.498
1570470240.409734,51499.500,8355,8,AX,1,100,-0.427
1570470240.426486,51512.625,8355,8,AX,1,100,-0.306
1570470240.443239,51525.750,8355,8,AX,1,100,-0.300
1570470240.459991,51538.875,8355,8,AX,1,100,-0.286
1570470240.476744,51552.000,8355,8,AX,1,100,-0.336
1570470240.493656,51565.250,8373,8,AX,1,100,-0.383
1570470240.510568,51578.500,8373,8,AX,1,100,-0.445
1570470240.527480,51591.750,8373,8,AX,1,100,-0.479
1570470240.544392,51605.000,8373,8,AX,1,100,-0.526
1570470240.561304,51618.250,8373,8,AX,1,100,-0.604
1570470240.578216,51631.500,8373,8,AX,1,100,-0.693
1570470240.595128,51644.750,8373,8,AX,1,100,-0.741
1570470240.612040,51658.000,8373,8,AX,1,100,-0.698
1570470240.628815,51671.143,8391,7,AX,1,100,-0.598
1570470240.645591,51684.286,8391,7,AX,1,100,-0.529
1570470240.662366,51697.429,8391,7,AX,1,100,-0.390
1570470240.679141,51710.571,8391,7,AX,1,100,-0.345
1570470240.695917,51723.714,8391,7,AX,1,100,-0.351
1570470240.712692,51736.857,8391,7,AX,1,100,-0.410
1570470240.729467,51750.000,8391,7,AX,1,100,-0.460
1570470240.746060,51763.000,8409,8,AX,1,100,-0.452
1570470240.762653,51776.000,8409,8,AX,1,100,-0.410
1570470240.779246,51789.000,8409,8,AX,1,100,-0.414
1570470240.795839,51802.000,8409,8,AX,1,100,-0.406
1570470240.812432,51815.000,8409,8,AX,1,100,-0.412
1570470240.829025,51828.000,8409,8,AX,1,100,-0.414
1570470240.845618,51841.000,8409,8,AX,1,100,-0.445
1570470240.862211,51854.000,8409,8,AX,1,100,-0.423
1570470240.878644,51866.875,8427,8,AX,1,100,-0.434
1570470240.895078,51879.750,8427,8,AX,1,100,-0.468
1570470240.911511,51892.625,8427,8,AX,1,100,-0.478
1570470240.927945,51905.500,8427,8,AX,1,100,-0.536
1570470240.944378,51918.375,8427,8,AX,1,100,-0.525
1570470240.960811,51931.250,8427,8,AX,1,100,-0.458
1570470240.977245,51944.125,8427,8,AX,1,100,-0.450
1570470240.993678,51957.000,8427,8,AX,1,100,-0.459
1570470241.010112,51969.875,8445,8,AX,1,100,-0.483
1570470241.026545,51982.750,8445,8,AX,1,100,-0.552
1570470241.042979,51995.625,8445,8,AX,1,100,-0.505
1570470241.059412,52008.500,8445,8,AX,1,100,-0.456
1570470241.075845,52021.375,8445,8,AX,1,100,-0.425
1570470241.092279,52034.250,8445,8,AX,1,100,-0.401
1570470241.108712,52047.125,8445,8,AX,1,100,-0.427
1570470241.125145,52060.000,8445,8,AX,1,100,-0.478
1570470241.141556,52072.857,8463,7,AX,1,100,-0.479
1570470241.157967,52085.714,8463,7,AX,1,100,-0.494
1570470241.174377,52098.571,8463,7,AX,1,100,-0.516
1570470241.190788,52111.429,8463,7,AX,1,100,-0.540
1570470241.207199,52124.286,8463,7,AX,1,100,-0.579
1570470241.223609,52137.143,8463,7,AX,1,100,-0.550
1570470241.240020,52150.000,8463,7,AX,1,100,-0.499
1570470241.256613,52163.000,8481,8,AX,1,100,-0.474
1570470241.273206,52176.000,8481,8,AX,1,100,-0.485
1570470241.289799,52189.000,8481,8,AX,1,100,-0.479
1570470241.306392,52202.000,8481,8,AX,1,100,-0.465
1570470241.322985,52215.000,8481,8,AX,1,100,-0.488
1570470241.339578,52228.000,8481,8,AX,1,100,-0.497
1570470241.356171,52241.000,8481,8,AX,1,100,-0.493
1570470241.372764,52254.000,8481,8,AX,1,100,-0.476
1570470241.389357,52267.000,8500,8,AX,1,100,-0.463
1570470241.405950,52280.000,8500,8,AX,1,100,-0.474
1570470241.422542,52293.000,8500,8,AX,1,100,-0.464
1570470241.439135,52306.000,8500,8,AX,1,100,-0.472
1570470241.455728,52319.000,8500,8,AX,1,100,-0.570
1570470241.472321,52332.000,8500,8,AX,1,100,-0.575
1570470241.488914,52345.000,8500,8,AX,1,100,-0.565
1570470241.505507,52358.000,8500,8,AX,1,100,-0.512
1570470241.522260,52371.125,8518,8,AX,1,100,-0.485
1570470241.539012,52384.250,8518,8,AX,1,100,-0.468
1570470241.555765,52397.375,8518,8,AX,1,100,-0.447
1570470241.572517,52410.500,8518,8,AX,1,100,-0.450
1570470241.589270,52423.625,8518,8,AX,1,100,-0.466
1570470241.606022,52436.750,8518,8,AX,1,100,-0.440
1570470241.622775,52449.875,8518,8,AX,1,100,-0.435
1570470241.639527,52463.000,8518,8,AX,1,100,-0.414
1570470241.656303,52476.143,8536,7,AX,1,100,-0.437
1570470241.673078,52489.286,8536,7,AX,1,100,-0.467
1570470241.689853,52502.429,8536,7,AX,1,100,-0.504
1570470241.706629,52515.571,8536,7,AX,1,100,-0.544
1570470241.723404,52528.714,8536,7,AX,1,100,-0.564
1570470241.740179,52541.857,8536,7,AX,1,100,-0.565
1570470241.756954,52555.000,8536,7,AX,1,100,-0.542
1570470241.773547,52568.000,8554,8,AX,1,100,-0.518
1570470241.790140,52581.000,8554,8,AX,1,100,-0.474
1570470241.806733,52594.000,8554,8,AX,1,100,-0.476
1570470241.823326,52607.000,8554,8,AX,1,100,-0.496
1570470241.839919,52620.000,8554,8,AX,1,100,-0.553
1570470241.856512,52633.000,8554,8,AX,1,100,-0.599
1570470241.873105,52646.000,8554,8,AX,1,100,-0.605
1570470241.889698,52659.000,8554,8,AX,1,100,-0.578
1570470241.906451,52672.125,8572,8,AX,1,100,-0.559
1570470241.923203,52685.250,8572,8,AX,1,100,-0.578
1570470241.939956,52698.375,8572,8,AX,1,100,-0.660
1570470241.956708,52711.500,8572,8,AX,1,100,-0.769
1570470241.973461,52724.625,8572,8,AX,1,100,-0.771
1570470241.990213,52737.750,8572,8,AX,1,100,-0.715
1570470242.006966,52750.875,8572,8,AX,1,100,-0.730
1570470242.023718,52764.000,8572,8,AX,1,100,-0.736
1570470242.040152,52776.875,8590,8,AX,1,100,-0.728
1570470242.056585,52789.750,8590,8,AX,1,100,-0.701
1570470242.073018,52802.625,8590,8,AX,1,100,-0.615
1570470242.089452,52815.500,8590,8,AX,1,100,-0.592
1570470242.105885,52828.375,8590,8,AX,1,100,-0.656
1570470242.122319,52841.250,8590,8,AX,1,100,-0.704
1570470242.138752,52854.125,8590,8,AX,1,100,-0.767
1570470242.155185,52867.000,8590,8,AX,1,100,-0.763
1570470242.171596,52879.857,8607,7,AX,1,100,-0.724
1570470242.188007,52892.714,8607,7,AX,1,100,-0.745
1570470242.204417,52905.571,8607,7,AX,1,100,-0.761
1570470242.220828,52918.429,8607,7,AX,1,100,-0.878
1570470242.237239,52931.286,8607,7,AX,1,100,-0.908
1570470242.253649,52944.143,8607,7,AX,1,100,-0.906
1570470242.270060,52957.000,8607,7,AX,1,100,-0.796
1570470242.286812,52970.125,8626,8,AX,1,100,-0.807
1570470242.303565,52983.250,8626,8,AX,1,100,-0.797
1570470242.320317,52996.375,8626,8,AX,1,100,-0.765
1570470242.337070,53009.500,8626,8,AX,1,100,-0.780
1570470242.353822,53022.625,8626,8,AX,1,100,-0.759
1570470242.370575,53035.750,8626,8,AX,1,100,-0.764
1570470242.387327,53048.875,8626,8,AX,1,100,-0.788
1570470242.404080,53062.000,8626,8,AX,1,100,-0.844
1570470242.420992,53075.250,8644,8,AX,1,100,-0.845
1570470242.437904,53088.500,8644,8,AX,1,100,-0.829
1570470242.454816,53101.750,8644,8,AX,1,100,-0.856
1570470242.471728,53115.000,8644,8,AX,1,100,-0.935
1570470242.488640,53128.250,8644,8,AX,1,100,-0.998
1570470242.505552,53141.500,8644,8,AX,1,100,-0.931
1570470242.522464,53154.750,8644,8,AX,1,100,-0.782
1570470242.539376,53168.000,8644,8,AX,1,100,-0.770
1570470242.556129,53181.125,8662,8,AX,1,100,-0.706
1570470242.572881,53194.250,8662,8,AX,1,100,-0.734
1570470242.589634,53207.375,8662,8,AX,1,100,-0.858
1570470242.606386,53220.500,8662,8,AX,1,100,-0.856
1570470242.623139,53233.625,8662,8,AX,1,100,-0.826
1570470242.639891,53246.750,8662,8,AX,1,100,-0.819
1570470242.656644,53259.875,8662,8,AX,1,100,-0.811
1570470242.673396,53273.000,8662,8,AX,1,100,-0.791
1570470242.690172,53286.143,8680,7,AX,1,100,-0.752
1570470242.706947,53299.286,8680,7,AX,1,100,-0.747
1570470242.723722,53312.429,8680,7,AX,1,100,-0.781
1570470242.740498,53325.571,8680,7,AX,1,100,-0.839
1570470242.757273,53338.714,8680,7,AX,1,100,-0.833
1570470242.774048,53351.857,8680,7,AX,1,100,-0.786
1570470242.790823,53365.000,8680,7,AX,1,100,-0.760
1570470242.807735,53378.250,8698,8,AX,1,100,-0.746
1570470242.824648,53391.500,8698,8,AX,1,100,-0.731
1570470242.841560,53404.750,8698,8,AX,1,100,-0.716
1570470242.858472,53418.000,8698,8,AX,1,100,-0.616
1570470242.875384,53431.250,8698,8,AX,1,100,-0.520
1570470242.892296,53444.500,8698,8,AX,1,100,-0.260
1570470242.909208,53457.750,8698,8,AX,1,100,-0.141
1570470242.926120,53471.000,8698,8,AX,1,100,-0.157
1570470242.942872,53484.125,8715,8,AX,1,100,-1.562
1570470242.959625,53497.250,8715,8,AX,1,100,-5.070
1570470242.976377,53510.375,8715,8,AX,1,100,0.167
1570470242.993130,53523.500,8715,8,AX,1,100,0.717
1570470243.009882,53536.625,8715,8,AX,1,100,0.045
1570470243.026635,53549.750,8715,8,AX,1,100,-1.176
1570470243.043387,53562.875,8715,8,AX,1,100,-1.053
1570470243.060140,53576.000,8715,8,AX,1,100,-1.073
1570470243.076414,53588.750,8733,8,AX,1,100,-0.928
1570470243.092688,53601.500,8733,8,AX,1,100,-0.347
1570470243.108962,53614.250,8733,8,AX,1,100,-0.219
1570470243.125235,53627.000,8733,8,AX,1,100,-0.111
1570470243.141509,53639.750,8733,8,AX,1,100,-0.015
1570470243.157783,53652.500,8733,8,AX,1,100,0.035
1570470243.174057,53665.250,8733,8,AX,1,100,-0.380
1570470243.190331,53678.000,8733,8,AX,1,100,-5.530
1570470243.206924,53691.000,8750,7,AX,1,100,-5.824
1570470243.223517,53704.000,8750,7,AX,1,100,3.246
1570470243.240110,53717.000,8750,7,AX,1,100,1.661
1570470243.256703,53730.000,8750,7,AX,1,100,-1.343
1570470243.273296,53743.000,8750,7,AX,1,100,-1.468
1570470243.289889,53756.000,8750,7,AX,1,100,-0.940
1570470243.306482,53769.000,8750,7,AX,1,100,-0.845
1570470243.323075,53782.000,8769,8,AX,1,100,-0.758
1570470243.339668,53795.000,8769,8,AX,1,100,-0.633
1570470243.356261,53808.000,8769,8,AX,1,100,-0.693
1570470243.372854,53821.000,8769,8,AX,1,100,-0.821
1570470243.389446,53834.000,8769,8,AX,1,100,-0.760
1570470243.406039,53847.000,8769,8,AX,1,100,-0.289
1570470243.422632,53860.000,8769,8,AX,1,100,0.030
1570470243.439225,53873.000,8769,8,AX,1,100,-0.117
1570470243.456137,53886.250,8787,8,AX,1,100,-0.756
1570470243.473049,53899.500,8787,8,AX,1,100,-0.781
1570470243.489961,53912.750,8787,8,AX,1,100,-5.791
1570470243.506873,53926.000,8787,8,AX,1,100,3.465
1570470243.523786,53939.250,8787,8,AX,1,100,0.160
1570470243.540698,53952.500,8787,8,AX,1,100,-0.756
1570470243.557610,53965.750,8787,8,AX,1,100,-1.129
1570470243.574522,53979.000,8787,8,AX,1,100,-1.111
1570470243.591115,53992.000,8805,8,AX,1,100,-0.848
1570470243.607708,54005.000,8805,8,AX,1,100,-1.077
1570470243.624300,54018.000,8805,8,AX,1,100,-1.175
1570470243.640893,54031.000,8805,8,AX,1,100,-1.160
1570470243.657486,54044.000,8805,8,AX,1,100,-1.100
1570470243.674079,54057.000,8805,8,AX,1,100,-1.066
1570470243.690672,54070.000,8805,8,AX,1,100,-0.984
1570470243.707265,54083.000,8805,8,AX,1,100,-0.956
1570470243.724405,54096.429,8823,7,AX,1,100,-0.945
1570470243.741545,54109.857,8823,7,AX,1,100,-0.942
1570470243.758685,54123.286,8823,7,AX,1,100,-0.877
1570470243.775825,54136.714,8823,7,AX,1,100,-0.899
1570470243.792965,54150.143,8823,7,AX,1,100,-0.852
1570470243.810105,54163.571,8823,7,AX,1,100,-0.810
1570470243.827245,54177.000,8823,7,AX,1,100,-0.782
1570470243.843838,54190.000,8841,8,AX,1,100,-0.797
1570470243.860431,54203.000,8841,8,AX,1,100,-0.756
1570470243.877024,54216.000,8841,8,AX,1,100,-0.792
1570470243.893617,54229.000,8841,8,AX,1,100,-0.704
1570470243.910210,54242.000,8841,8,AX,1,100,-0.658
1570470243.926803,54255.000,8841,8,AX,1,100,-0.637
1570470243.943396,54268.000,8841,8,AX,1,100,-0.684
1570470243.959989,54281.000,8841,8,AX,1,100,-0.751
1570470243.976582,54294.000,8859,8,AX,1,100,-0.678
1570470243.993175,54307.000,8859,8,AX,1,100,-0.575
1570470244.009768,54320.000,8859,8,AX,1,100,-0.534
1570470244.026361,54333.000,8859,8,AX,1,100,-0.608
1570470244.042954,54346.000,8859,8,AX,1,100,-0.648
1570470244.059547,54359.000,8859,8,AX,1,100,-0.599
1570470244.076140,54372.000,8859,8,AX,1,100,-0.556
1570470244.092733,54385.000,8859,8,AX,1,100,-0.614
1570470244.108961,54397.714,8877,7,AX,1,100,-0.636
1570470244.125189,54410.429,8877,7,AX,1,100,-0.580
1570470244.141418,54423.143,8877,7,AX,1,100,-0.536
1570470244.157646,54435.857,8877,7,AX,1,100,-0.537
1570470244.173874,54448.571,8877,7,AX,1,100,-0.617
1570470244.190102,54461.286,8877,7,AX,1,100,-0.628
1570470244.206331,54474.000,8877,7,AX,1,100,-0.631
1570470244.222924,54487.000,8895,8,AX,1,100,-0.677
1570470244.239516,54500.000,8895,8,AX,1,100,-0.676
1570470244.256109,54513.000,8895,8,AX,1,100,-0.606
1570470244.272702,54526.000,8895,8,AX,1,100,-0.557
1570470244.289295,54539.000,8895,8,AX,1,100,-0.595
1570470244.305888,54552.000,8895,8,AX,1,100,-0.592
1570470244.322481,54565.000,8895,8,AX,1,100,-0.625
1570470244.339074,54578.000,8895,8,AX,1,100,-0.627
1570470244.355348,54590.750,8914,8,AX,1,100,-0.661
1570470244.371622,54603.500,8914,8,AX,1,100,-0.684
1570470244.387896,54616.250,8914,8,AX,1,100,-0.651
1570470244.404170,54629.000,8914,8,AX,1,100,-0.635
1570470244.420444,54641.750,8914,8,AX,1,100,-0.669
1570470244.436718,54654.500,8914,8,AX,1,100,-0.642
1570470244.452991,54667.250,8914,8,AX,1,100,-0.625
1570470244.469265,54680.000,8914,8,AX,1,100,-0.651
1570470244.486177,54693.250,8932,8,AX,1,100,-0.671
1570470244.503089,54706.500,8932,8,AX,1,100,-0.683
1570470244.520001,54719.750,8932,8,AX,1,100,-0.728
1570470244.536913,54733.000,8932,8,AX,1,100,-0.788
1570470244.553825,54746.250,8932,8,AX,1,100,-0.700
1570470244.570738,54759.500,8932,8,AX,1,100,-0.670
1570470244.587650,54772.750,8932,8,AX,1,100,-0.652
1570470244.604562,54786.000,8932,8,AX,1,100,-0.681
1570470244.621337,54799.143,8950,7,AX,1,100,-0.667
1570470244.638112,54812.286,8950,7,AX,1,100,-0.609
1570470244.654887,54825.429,8950,7,AX,1,100,-0.649
1570470244.671663,54838.571,8950,7,AX,1,100,-0.676
1570470244.688438,54851.714,8950,7,AX,1,100,-0.787
1570470244.705213,54864.857,8950,7,AX,1,100,-0.813
1570470244.721989,54878.000,8950,7,AX,1,100,-0.757
1570470244.738741,54891.125,8968,8,AX,1,100,-0.750
1570470244.755494,54904.250,8968,8,AX,1,100,-0.703
1570470244.772246,54917.375,8968,8,AX,1,100,-0.678
1570470244.788999,54930.500,8968,8,AX,1,100,-0.676
1570470244.805751,54943.625,8968,8,AX,1,100,-0.668
1570470244.822504,54956.750,8968,8,AX,1,100,-0.703
1570470244.839256,54969.875,8968,8,AX,1,100,-0.718
1570470244.856009,54983.000,8968,8,AX,1,100,-0.702
1570470244.872602,54996.000,8986,8,AX,1,100,-0.688
1570470244.889195,55009.000,8986,8,AX,1,100,-0.721
1570470244.905788,55022.000,8986,8,AX,1,100,-0.760
1570470244.922381,55035.000,8986,8,AX,1,100,-0.761
1570470244.938974,55048.000,8986,8,AX,1,100,-0.727
1570470244.955566,55061.000,8986,8,AX,1,100,-0.708
1570470244.972159,55074.000,8986,8,AX,1,100,-0.695
1570470244.988752,55087.000,8986,8,AX,1,100,-0.702
1570470245.005505,55100.125,9004,8,AX,1,100,-0.697
1570470245.022258,55113.250,9004,8,AX,1,100,-0.673
1570470245.039010,55126.375,9004,8,AX,1,100,-0.674
1570470245.055763,55139.500,9004,8,AX,1,100,-0.689
1570470245.072515,55152.625,9004,8,AX,1,100,-0.674
1570470245.089267,55165.750,9004,8,AX,1,100,-0.660
1570470245.106020,55178.875,9004,8,AX,1,100,-0.666
1570470245.122772,55192.000,9004,8,AX,1,100,-0.696
1570470245.139206,55204.875,9022,8,AX,1,100,-0.696
1570470245.155639,55217.750,9022,8,AX,1,100,-0.704
1570470245.172073,55230.625,9022,8,AX,1,100,-0.644
1570470245.188506,55243.500,9022,8,AX,1,100,-0.669
1570470245.204940,55256.375,9022,8,AX,1,100,-0.670
1570470245.221373,55269.250,9022,8,AX,1,100,-0.723
1570470245.237806,55282.125,9022,8,AX,1,100,-0.736
1570470245.254240,55295.000,9022,8,AX,1,100,-0.701
1570470245.270833,55308.000,9040,7,AX,1,100,-0.718
1570470245.287426,55321.000,9040,7,AX,1,100,-0.685
1570470245.304019,55334.000,9040,7,AX,1,100,-0.665
1570470245.320612,55347.000,9040,7,AX,1,100,-0.683
1570470245.337205,55360.000,9040,7,AX,1,100,-0.696
1570470245.353797,55373.000,9040,7,AX,1,100,-0.713
1570470245.370390,55386.000,9040,7,AX,1,100,-0.694
1570470245.387143,55399.125,9059,8,AX,1,100,-0.708
1570470245.403896,55412.250,9059,8,AX,1,100,-0.683
1570470245.420648,55425.375,9059,8,AX,1,100,-0.696
1570470245.437401,55438.500,9059,8,AX,1,100,-0.718
1570470245.454153,55451.625,9059,8,AX,1,100,-0.703
1570470245.470906,55464.750,9059,8,AX,1,100,-0.697
1570470245.487658,55477.875,9059,8,AX,1,100,-0.673
1570470245.504411,55491.000,9059,8,AX,1,100,-0.676
1570470245.521323,55504.250,9077,8,AX,1,100,-0.680
1570470245.538235,55517.500,9077,8,AX,1,100,-0.693
1570470245.555147,55530.750,9077,8,AX,1,100,-0.676
1570470245.572059,55544.000,9077,8,AX,1,100,-0.681
1570470245.588971,55557.250,9077,8,AX,1,100,-0.677
1570470245.605883,55570.500,9077,8,AX,1,100,-0.701
1570470245.622795,55583.750,9077,8,AX,1,100,-0.684
1570470245.639707,55597.000,9077,8,AX,1,100,-0.682
1570470245.656482,55610.143,9095,7,AX,1,100,-0.673
1570470245.673258,55623.286,9095,7,AX,1,100,-0.665
1570470245.690033,55636.429,9095,7,AX,1,100,-0.677
1570470245.706808,55649.571,9095,7,AX,1,100,-0.682
1570470245.723583,55662.714,9095,7,AX,1,100,-0.651
1570470245.740359,55675.857,9095,7,AX,1,100,-0.666
1570470245.757134,55689.000,9095,7,AX,1,100,-0.663
1570470245.774046,55702.250,9113,8,AX,1,100,-0.688
1570470245.790958,55715.500,9113,8,AX,1,100,-0.694
1570470245.807870,55728.750,9113,8,AX,1,100,-0.717
1570470245.824782,55742.000,9113,8,AX,1,100,-0.677
1570470245.841694,55755.250,9113,8,AX,1,100,-0.674
1570470245.858606,55768.500,9113,8,AX,1,100,-0.685
1570470245.875519,55781.750,9113,8,AX,1,100,-0.654
1570470245.892431,55795.000,9113,8,AX,1,100,-0.691
1570470245.909024,55808.000,9134,13,AX,1,100,-0.682
1570470245.925617,55821.000,9134,13,AX,1,100,-0.690
1570470245.942209,55834.000,9134,13,AX,1,100,-0.706
1570470245.958802,55847.000,9134,13,AX,1,100,-0.701
1570470245.975395,55860.000,9134,13,AX,1,100,-0.689
1570470245.991988,55873.000,9134,13,AX,1,100,-0.694
1570470246.008581,55886.000,9134,13,AX,1,100,-0.676
1570470246.025174,55899.000,9134,13,AX,1,100,-0.664
1570470246.041767,55912.000,9134,13,AX,1,100,-0.667
1570470246.058360,55925.000,9134,13,AX,1,100,-0.677
1570470246.074953,55938.000,9134,13,AX,1,100,-0.704
1570470246.091546,55951.000,9134,13,AX,1,100,-0.696
1570470246.108139,55964.000,9134,13,AX,1,100,-0.675
1570470246.124914,55977.143,9154,7,AX,1,100,-0.672
1570470246.141690,55990.286,9154,7,AX,1,100,-0.680
1570470246.158465,56003.429,9154,7,AX,1,100,-0.667
1570470246.175240,56016.571,9154,7,AX,1,100,-0.686
1570470246.192016,56029.714,9154,7,AX,1,100,-0.679
1570470246.208791,56042.857,9154,7,AX,1,100,-0.672
1570470246.225566,56056.000,9154,7,AX,1,100,-0.684
1570470246.242000,56068.875,9172,8,AX,1,100,-0.676
1570470246.258433,56081.750,9172,8,AX,1,100,-0.665
1570470246.274866,56094.625,9172,8,AX,1,100,-0.662
1570470246.291300,56107.500,9172,8,AX,1,100,-0.651
1570470246.307733,56120.375,9172,8,AX,1,100,-0.674
1570470246.324167,56133.250,9172,8,AX,1,100,-0.676
1570470246.340600,56146.125,9172,8,AX,1,100,-0.690
1570470246.357033,56159.000,9172,8,AX,1,100,-0.662
1570470246.373626,56172.000,9191,7,AX,1,100,-0.656
1570470246.390219,56185.000,9191,7,AX,1,100,-0.645
1570470246.406812,56198.000,9191,7,AX,1,100,-0.657
1570470246.423405,56211.000,9191,7,AX,1,100,-0.684
1570470246.439998,56224.000,9191,7,AX,1,100,-0.669
1570470246.456591,56237.000,9191,7,AX,1,100,-0.666
1570470246.473184,56250.000,9191,7,AX,1,100,-0.664
1570470246.490096,56263.250,9209,8,AX,1,100,-0.681
1570470246.507008,56276.500,9209,8,AX,1,100,-0.658
1570470246.523920,56289.750,9209,8,AX,1,100,-0.646
1570470246.540832,56303.000,9209,8,AX,1,100,-0.662
1570470246.557745,56316.250,9209,8,AX,1,100,-0.658
1570470246.574656,56329.500,9209,8,AX,1,100,-0.662
1570470246.591568,56342.750,9209,8,AX,1,100,-0.674
1570470246.608481,56356.000,9209,8,AX,1,100,-0.655
1570470246.625233,56369.125,9227,8,AX,1,100,-0.633
1570470246.641986,56382.250,9227,8,AX,1,100,-0.662
1570470246.658738,56395.375,9227,8,AX,1,100,-0.666
1570470246.675491,56408.500,9227,8,AX,1,100,-0.676
1570470246.692243,56421.625,9227,8,AX,1,100,-0.679
1570470246.708996,56434.750,9227,8,AX,1,100,-0.662
1570470246.725748,56447.875,9227,8,AX,1,100,-0.635
1570470246.742501,56461.000,9227,8,AX,1,100,-0.620
1570470246.759641,56474.429,9245,7,AX,1,100,-0.621
1570470246.776781,56487.857,9245,7,AX,1,100,-0.666
1570470246.793921,56501.286,9245,7,AX,1,100,-0.674
1570470246.811061,56514.714,9245,7,AX,1,100,-0.680
1570470246.828201,56528.143,9245,7,AX,1,100,-0.652
1570470246.845340,56541.571,9245,7,AX,1,100,-0.637
1570470246.862480,56555.000,9245,7,AX,1,100,-0.640
1570470246.879073,56568.000,9263,8,AX,1,100,-0.648
1570470246.895666,56581.000,9263,8,AX,1,100,-0.668
1570470246.912259,56594.000,9263,8,AX,1,100,-0.672
1570470246.928852,56607.000,9263,8,AX,1,100,-0.670
1570470246.945445,56620.000,9263,8,AX,1,100,-0.656
1570470246.962038,56633.000,9263,8,AX,1,100,-0.646
1570470246.978631,56646.000,9263,8,AX,1,100,-0.656
1570470246.995224,56659.000,9263,8,AX,1,100,-0.650
1570470247.011658,56671.875,9281,8,AX,1,100,-0.655
1570470247.028091,56684.750,9281,8,AX,1,100,-0.651
1570470247.044524,56697.625,9281,8,AX,1,100,-0.662
1570470247.060958,56710.500,9281,8,AX,1,100,-0.664
1570470247.077391,56723.375,9281,8,AX,1,100,-0.671
1570470247.093825,56736.250,9281,8,AX,1,100,-0.655
1570470247.110258,56749.125,9281,8,AX,1,100,-0.641
1570470247.126692,56762.000,9281,8,AX,1,100,-0.642
1570470247.143285,56775.000,9299,8,AX,1,100,-0.654
1570470247.159877,56788.000,9299,8,AX,1,100,-0.663
1570470247.176470,56801.000,9299,8,AX,1,100,-0.673
1570470247.193063,56814.000,9299,8,AX,1,100,-0.651
1570470247.209656,56827.000,9299,8,AX,1,100,-0.635
1570470247.226249,56840.000,9299,8,AX,1,100,-0.625
1570470247.242842,56853.000,9299,8,AX,1,100,-0.637
1570470247.259435,56866.000,9299,8,AX,1,100,-0.706
1570470247.275869,56878.875,9317,8,AX,1,100,-0.688
1570470247.292302,56891.750,9317,8,AX,1,100,-0.626
1570470247.308735,56904.625,9317,8,AX,1,100,-0.606
1570470247.325169,56917.500,9317,8,AX,1,100,-0.624
1570470247.341602,56930.375,9317,8,AX,1,100,-0.624
1570470247.358036,56943.250,9317,8,AX,1,100,-0.615
1570470247.374469,56956.125,9317,8,AX,1,100,-0.621
1570470247.390903,56969.000,9317,8,AX,1,100,-0.627
1570470247.407131,56981.714,9336,7,AX,1,100,-0.609
1570470247.423359,56994.429,9336,7,AX,1,100,-0.589
1570470247.439587,57007.143,9336,7,AX,1,100,-0.501
1570470247.455816,57019.857,9336,7,AX,1,100,-0.462
1570470247.472044,57032.571,9336,7,AX,1,100,-0.487
1570470247.488272,57045.286,9336,7,AX,1,100,-0.501
1570470247.504500,57058.000,9336,7,AX,1,100,-0.543
1570470247.521253,57071.125,9354,8,AX,1,100,-0.588
1570470247.538005,57084.250,9354,8,AX,1,100,-0.601
1570470247.554758,57097.375,9354,8,AX,1,100,-0.531
1570470247.571511,57110.500,9354,8,AX,1,100,-0.488
1570470247.588263,57123.625,9354,8,AX,1,100,-0.465
1570470247.605016,57136.750,9354,8,AX,1,100,-0.473
1570470247.621768,57149.875,9354,8,AX,1,100,-0.533
1570470247.638520,57163.000,9354,8,AX,1,100,-0.555
1570470247.655273,57176.125,9372,8,AX,1,100,-0.566
1570470247.672025,57189.250,9372,8,AX,1,100,-0.541
1570470247.688778,57202.375,9372,8,AX,1,100,-0.497
1570470247.705530,57215.500,9372,8,AX,1,100,-0.483
1570470247.722283,57228.625,9372,8,AX,1,100,-0.531
1570470247.739036,57241.750,9372,8,AX,1,100,-0.536
1570470247.755788,57254.875,9372,8,AX,1,100,-0.521
1570470247.772541,57268.000,9372,8,AX,1,100,-0.505
1570470247.789134,57281.000,9390,8,AX,1,100,-0.503
1570470247.805727,57294.000,9390,8,AX,1,100,-0.501
1570470247.822320,57307.000,9390,8,AX,1,100,-0.491
1570470247.838912,57320.000,9390,8,AX,1,100,-0.511
1570470247.855505,57333.000,9390,8,AX,1,100,-0.576
1570470247.872098,57346.000,9390,8,AX,1,100,-0.553
1570470247.888691,57359.000,9390,8,AX,1,100,-0.545
1570470247.905284,57372.000,9390,8,AX,1,100,-0.534
1570470247.922242,57385.286,9408,7,AX,1,100,-0.549
1570470247.939199,57398.571,9408,7,AX,1,100,-0.554
1570470247.956157,57411.857,9408,7,AX,1,100,-0.591
1570470247.973115,57425.143,9408,7,AX,1,100,-0.579
1570470247.990072,57438.429,9408,7,AX,1,100,-0.614
1570470248.007030,57451.714,9408,7,AX,1,100,-0.658
1570470248.023988,57465.000,9408,7,AX,1,100,-0.676
1570470248.040581,57478.000,9426,8,AX,1,100,-0.655
1570470248.057174,57491.000,9426,8,AX,1,100,-0.636
1570470248.073766,57504.000,9426,8,AX,1,100,-0.610
1570470248.090359,57517.000,9426,8,AX,1,100,-0.615
1570470248.106952,57530.000,9426,8,AX,1,100,-0.627
1570470248.123545,57543.000,9426,8,AX,1,100,-0.619
1570470248.140138,57556.000,9426,8,AX,1,100,-0.632
1570470248.156731,57569.000,9426,8,AX,1,100,-0.637
1570470248.173324,57582.000,9444,8,AX,1,100,-0.649
1570470248.189917,57595.000,9444,8,AX,1,100,-0.634
1570470248.206510,57608.000,9444,8,AX,1,100,-0.614
1570470248.223103,57621.000,9444,8,AX,1,100,-0.605
1570470248.239696,57634.000,9444,8,AX,1,100,-0.601
1570470248.256289,57647.000,9444,8,AX,1,100,-0.614
1570470248.272882,57660.000,9444,8,AX,1,100,-0.622
1570470248.289475,57673.000,9444,8,AX,1,100,-0.598
1570470248.305886,57685.857,9461,7,AX,1,100,-0.646
1570470248.322296,57698.714,9461,7,AX,1,100,-0.646
1570470248.338707,57711.571,9461,7,AX,1,100,-0.638
1570470248.355118,57724.429,9461,7,AX,1,100,-0.608
1570470248.371528,57737.286,9461,7,AX,1,100,-0.612
1570470248.387939,57750.143,9461,7,AX,1,100,-0.631
1570470248.404349,57763.000,9461,7,AX,1,100,-0.627
1570470248.421102,57776.125,9480,8,AX,1,100,-0.636
1570470248.437855,57789.250,9480,8,AX,1,100,-0.626
1570470248.454607,57802.375,9480,8,AX,1,100,-0.608
1570470248.471359,57815.500,9480,8,AX,1,100,-0.621
1570470248.488112,57828.625,9480,8,AX,1,100,-0.632
1570470248.504864,57841.750,9480,8,AX,1,100,-0.626
1570470248.521617,57854.875,9480,8,AX,1,100,-0.647
1570470248.538369,57868.000,9480,8,AX,1,100,-0.634
1570470248.555122,57881.125,9498,8,AX,1,100,-0.619
1570470248.571874,57894.250,9498,8,AX,1,100,-0.601
1570470248.588627,57907.375,9498,8,AX,1,100,-0.611
1570470248.605380,57920.500,9498,8,AX,1,100,-0.618
1570470248.622132,57933.625,9498,8,AX,1,100,-0.633
1570470248.638885,57946.750,9498,8,AX,1,100,-0.624
1570470248.655637,57959.875,9498,8,AX,1,100,-0.623
1570470248.672390,57973.000,9498,8,AX,1,100,-0.614
1570470248.689142,57986.125,9516,8,AX,1,100,-0.601
1570470248.705894,57999.250,9516,8,AX,1,100,-0.601
1570470248.722647,58012.375,9516,8,AX,1,100,-0.611
1570470248.739399,58025.500,9516,8,AX,1,100,-0.618
1570470248.756152,58038.625,9516,8,AX,1,100,-0.629
1570470248.772905,58051.750,9516,8,AX,1,100,-0.618
1570470248.789657,58064.875,9516,8,AX,1,100,-0.612
1570470248.806410,58078.000,9516,8,AX,1,100,-0.607
1570470248.823550,58091.429,9534,7,AX,1,100,-0.613
1570470248.840690,58104.857,9534,7,AX,1,100,-0.611
1570470248.857830,58118.286,9534,7,AX,1,100,-0.613
1570470248.874969,58131.714,9534,7,AX,1,100,-0.623
1570470248.892109,58145.143,9534,7,AX,1,100,-0.617
1570470248.909250,58158.571,9534,7,AX,1,100,-0.588
1570470248.926389,58172.000,9534,7,AX,1,100,-0.601
1570470248.943142,58185.125,9552,8,AX,1,100,-0.601
1570470248.959894,58198.250,9552,8,AX,1,100,-0.606
1570470248.976647,58211.375,9552,8,AX,1,100,-0.620
1570470248.993399,58224.500,9552,8,AX,1,100,-0.605
1570470249.010152,58237.625,9552,8,AX,1,100,-0.595
1570470249.026905,58250.750,9552,8,AX,1,100,-0.600
1570470249.043657,58263.875,9552,8,AX,1,100,-0.597
1570470249.060410,58277.000,9552,8,AX,1,100,-0.608
1570470249.076843,58289.875,9570,8,AX,1,100,-0.621
1570470249.093276,58302.750,9570,8,AX,1,100,-0.639
1570470249.109710,58315.625,9570,8,AX,1,100,-0.606
1570470249.126143,58328.500,9570,8,AX,1,100,-0.597
1570470249.142576,58341.375,9570,8,AX,1,100,-0.607
1570470249.159010,58354.250,9570,8,AX,1,100,-0.607
1570470249.175443,58367.125,9570,8,AX,1,100,-0.616
1570470249.191877,58380.000,9570,8,AX,1,100,-0.607
1570470249.208470,58393.000,9586,7,AX,1,100,-0.616
1570470249.225063,58406.000,9586,7,AX,1,100,-0.607
1570470249.241656,58419.000,9586,7,AX,1,100,-0.590
1570470249.258249,58432.000,9586,7,AX,1,100,-0.594
1570470249.274842,58445.000,9586,7,AX,1,100,-0.605
1570470249.291435,58458.000,9586,7,AX,1,100,-0.600
1570470249.308028,58471.000,9586,7,AX,1,100,-0.601
1570470249.324620,58484.000,9604,8,AX,1,100,-0.596
1570470249.341213,58497.000,9604,8,AX,1,100,-0.593
1570470249.357806,58510.000,9604,8,AX,1,100,-0.595
1570470249.374399,58523.000,9604,8,AX,1,100,-0.591
1570470249.390992,58536.000,9604,8,AX,1,100,-0.605
1570470249.407585,58549.000,9604,8,AX,1,100,-0.596
1570470249.424178,58562.000,9604,8,AX,1,100,-0.570
1570470249.440771,58575.000,9604,8,AX,1,100,-0.530
1570470249.457524,58588.125,9623,8,AX,1,100,-0.479
1570470249.474276,58601.250,9623,8,AX,1,100,-0.473
1570470249.491029,58614.375,9623,8,AX,1,100,-0.452
1570470249.507781,58627.500,9623,8,AX,1,100,-0.431
1570470249.524534,58640.625,9623,8,AX,1,100,-0.409
1570470249.541286,58653.750,9623,8,AX,1,100,-0.413
1570470249.558039,58666.875,9623,8,AX,1,100,-0.419
1570470249.574791,58680.000,9623,8,AX,1,100,-0.421
1570470249.591384,58693.000,9641,8,AX,1,100,-0.460
1570470249.607977,58706.000,9641,8,AX,1,100,-0.468
1570470249.624570,58719.000,9641,8,AX,1,100,-0.449
1570470249.641163,58732.000,9641,8,AX,1,100,-0.473
1570470249.657756,58745.000,9641,8,AX,1,100,-0.500
1570470249.674349,58758.000,9641,8,AX,1,100,-0.514
1570470249.690942,58771.000,9641,8,AX,1,100,-0.505
1570470249.707535,58784.000,9641,8,AX,1,100,-0.528
1570470249.724675,58797.429,9659,7,AX,1,100,-0.567
1570470249.741815,58810.857,9659,7,AX,1,100,-0.564
1570470249.758955,58824.286,9659,7,AX,1,100,-0.568
1570470249.776095,58837.714,9659,7,AX,1,100,-0.552
1570470249.793235,58851.143,9659,7,AX,1,100,-0.546
1570470249.810375,58864.571,9659,7,AX,1,100,-0.551
1570470249.827515,58878.000,9659,7,AX,1,100,-0.534
1570470249.844267,58891.125,9677,8,AX,1,100,-0.520
1570470249.861020,58904.250,9677,8,AX,1,100,-0.514
1570470249.877772,58917.375,9677,8,AX,1,100,-0.542
1570470249.894525,58930.500,9677,8,AX,1,100,-0.576
1570470249.911277,58943.625,9677,8,AX,1,100,-0.547
1570470249.928030,58956.750,9677,8,AX,1,100,-0.533
1570470249.944782,58969.875,9677,8,AX,1,100,-0.540
1570470249.961535,58983.000,9677,8,AX,1,100,-0.550
1570470249.978287,58996.125,9695,8,AX,1,100,-0.562
1570470249.995040,59009.250,9695,8,AX,1,100,-0.558
1570470250.011792,59022.375,9695,8,AX,1,100,-0.583
1570470250.028545,59035.500,9695,8,AX,1,100,-0.560
1570470250.045297,59048.625,9695,8,AX,1,100,-0.557
1570470250.062050,59061.750,9695,8,AX,1,100,-0.579
1570470250.078802,59074.875,9695,8,AX,1,100,-0.592
1570470250.095555,59088.000,9695,8,AX,1,100,-0.571
1570470250.111966,59100.857,9713,7,AX,1,100,-0.587
1570470250.128376,59113.714,9713,7,AX,1,100,-0.588
1570470250.144787,59126.571,9713,7,AX,1,100,-0.590
1570470250.161197,59139.429,9713,7,AX,1,100,-0.593
1570470250.177608,59152.286,9713,7,AX,1,100,-0.594
1570470250.194019,59165.143,9713,7,AX,1,100,-0.599
1570470250.210429,59178.000,9713,7,AX,1,100,-0.607
1570470250.227022,59191.000,9731,8,AX,1,100,-0.617
1570470250.243615,59204.000,9731,8,AX,1,100,-0.627
1570470250.260208,59217.000,9731,8,AX,1,100,-0.636
1570470250.276801,59230.000,9731,8,AX,1,100,-0.634
1570470250.293394,59243.000,9731,8,AX,1,100,-0.618
1570470250.309987,59256.000,9731,8,AX,1,100,-0.622
1570470250.326580,59269.000,9731,8,AX,1,100,-0.641
1570470250.343173,59282.000,9731,8,AX,1,100,-0.626
1570470250.359447,59294.750,9749,8,AX,1,100,-0.625
1570470250.375721,59307.500,9749,8,AX,1,100,-0.623
1570470250.391994,59320.250,9749,8,AX,1,100,-0.604
1570470250.408268,59333.000,9749,8,AX,1,100,-0.599
1570470250.424542,59345.750,9749,8,AX,1,100,-0.589
1570470250.440816,59358.500,9749,8,AX,1,100,-0.588
1570470250.457090,59371.250,9749,8,AX,1,100,-0.581
1570470250.473364,59384.000,9749,8,AX,1,100,-0.573
1570470250.489957,59397.000,9768,8,AX,1,100,-0.561
1570470250.506550,59410.000,9768,8,AX,1,100,-0.551
1570470250.523143,59423.000,9768,8,AX,1,100,-0.547
1570470250.539736,59436.000,9768,8,AX,1,100,-0.527
1570470250.556329,59449.000,9768,8,AX,1,100,-0.532
1570470250.572922,59462.000,9768,8,AX,1,100,-0.519
1570470250.589514,59475.000,9768,8,AX,1,100,-0.524
1570470250.606107,59488.000,9768,8,AX,1,100,-0.521
1570470250.622860,59501.125,9786,8,AX,1,100,-0.513
1570470250.639612,59514.250,9786,8,AX,1,100,-0.518
1570470250.656365,59527.375,9786,8,AX,1,100,-0.517
1570470250.673118,59540.500,9786,8,AX,1,100,-0.521
1570470250.689870,59553.625,9786,8,AX,1,100,-0.537
1570470250.706623,59566.750,9786,8,AX,1,100,-0.541
1570470250.723375,59579.875,9786,8,AX,1,100,-0.522
1570470250.740128,59593.000,9786,8,AX,1,100,-0.511
1570470250.756561,59605.875,9804,8,AX,1,100,-0.500
1570470250.772995,59618.750,9804,8,AX,1,100,-0.513
1570470250.789428,59631.625,9804,8,AX,1,100,-0.521
1570470250.805861,59644.500,9804,8,AX,1,100,-0.535
1570470250.822295,59657.375,9804,8,AX,1,100,-0.540
1570470250.838728,59670.250,9804,8,AX,1,100,-0.525
1570470250.855161,59683.125,9804,8,AX,1,100,-0.504
1570470250.871595,59696.000,9804,8,AX,1,100,-0.520
1570470250.888735,59709.429,9822,7,AX,1,100,-0.543
1570470250.905875,59722.857,9822,7,AX,1,100,-0.557
1570470250.923015,59736.286,9822,7,AX,1,100,-0.560
1570470250.940155,59749.714,9822,7,AX,1,100,-0.548
1570470250.957295,59763.143,9822,7,AX,1,100,-0.544
1570470250.974435,59776.571,9822,7,AX,1,100,-0.542
1570470250.991575,59790.000,9822,7,AX,1,100,-0.543
1570470251.008168,59803.000,9840,8,AX,1,100,-0.558
1570470251.024761,59816.000,9840,8,AX,1,100,-0.578
1570470251.041354,59829.000,9840,8,AX,1,100,-0.570
1570470251.057947,59842.000,9840,8,AX,1,100,-0.551
1570470251.074540,59855.000,9840,8,AX,1,100,-0.568
1570470251.091132,59868.000,9840,8,AX,1,100,-0.570
1570470251.107725,59881.000,9840,8,AX,1,100,-0.584
1570470251.124318,59894.000,9840,8,AX,1,100,-0.591
1570470251.140911,59907.000,9858,8,AX,1,100,-0.588
1570470251.157504,59920.000,9858,8,AX,1,100,-0.577
1570470251.174097,59933.000,9858,8,AX,1,100,-0.571
1570470251.190690,59946.000,9858,8,AX,1,100,-0.587
1570470251.207283,59959.000,9858,8,AX,1,100,-0.602
1570470251.223876,59972.000,9858,8,AX,1,100,-0.609
1570470251.240469,59985.000,9858,8,AX,1,100,-0.616
1570470251.257062,59998.000,9858,8,AX,1,100,-0.609
1570470251.273655,60011.000,9876,7,AX,1,100,-0.608
1570470251.290248,60024.000,9876,7,AX,1,100,-0.622
1570470251.306841,60037.000,9876,7,AX,1,100,-0.617
1570470251.323434,60050.000,9876,7,AX,1,100,-0.626
1570470251.340027,60063.000,9876,7,AX,1,100,-0.623
1570470251.356620,60076.000,9876,7,AX,1,100,-0.627
1570470251.373213,60089.000,9876,7,AX,1,100,-0.617
1570470251.389646,60101.875,9894,8,AX,1,100,-0.607
1570470251.406080,60114.750,9894,8,AX,1,100,-0.593
1570470251.422513,60127.625,9894,8,AX,1,100,-0.588
1570470251.438946,60140.500,9894,8,AX,1,100,-0.583
1570470251.455380,60153.375,9894,8,AX,1,100,-0.578
1570470251.471813,60166.250,9894,8,AX,1,100,-0.573
1570470251.488247,60179.125,9894,8,AX,1,100,-0.581
1570470251.504680,60192.000,9894,8,AX,1,100,-0.592
1570470251.521273,60205.000,9913,8,AX,1,100,-0.598
1570470251.537866,60218.000,9913,8,AX,1,100,-0.592
1570470251.554459,60231.000,9913,8,AX,1,100,-0.592
1570470251.571052,60244.000,9913,8,AX,1,100,-0.580
1570470251.587645,60257.000,9913,8,AX,1,100,-0.573
1570470251.604238,60270.000,9913,8,AX,1,100,-0.574
1570470251.620831,60283.000,9913,8,AX,1,100,-0.580
1570470251.637424,60296.000,9913,8,AX,1,100,-0.573
1570470251.654176,60309.125,9931,8,AX,1,100,-0.565
1570470251.670929,60322.250,9931,8,AX,1,100,-0.564
1570470251.687681,60335.375,9931,8,AX,1,100,-0.563
1570470251.704434,60348.500,9931,8,AX,1,100,-0.552
1570470251.721186,60361.625,9931,8,AX,1,100,-0.553
1570470251.737939,60374.750,9931,8,AX,1,100,-0.548
1570470251.754691,60387.875,9931,8,AX,1,100,-0.550
1570470251.771444,60401.000,9931,8,AX,1,100,-0.550
1570470251.788402,60414.286,9949,7,AX,1,100,-0.560
1570470251.805359,60427.571,9949,7,AX,1,100,-0.574
1570470251.822317,60440.857,9949,7,AX,1,100,-0.591
1570470251.839274,60454.143,9949,7,AX,1,100,-0.582
1570470251.856232,60467.429,9949,7,AX,1,100,-0.573
1570470251.873190,60480.714,9949,7,AX,1,100,-0.562
1570470251.890147,60494.000,9949,7,AX,1,100,-0.552
1570470251.907059,60507.250,9967,8,AX,1,100,-0.562
1570470251.923971,60520.500,9967,8,AX,1,100,-0.572
1570470251.940884,60533.750,9967,8,AX,1,100,-0.572
1570470251.957796,60547.000,9967,8,AX,1,100,-0.571
1570470251.974708,60560.250,9967,8,AX,1,100,-0.562
1570470251.991620,60573.500,9967,8,AX,1,100,-0.574
1570470252.008532,60586.750,9967,8,AX,1,100,-0.583
1570470252.025444,60600.000,9967,8,AX,1,100,-0.584
1570470252.042037,60613.000,9985,8,AX,1,100,-0.578
1570470252.058630,60626.000,9985,8,AX,1,100,-0.576
1570470252.075223,60639.000,9985,8,AX,1,100,-0.577
1570470252.091816,60652.000,9985,8,AX,1,100,-0.582
1570470252.108409,60665.000,9985,8,AX,1,100,-0.589
1570470252.125002,60678.000,9985,8,AX,1,100,-0.591
1570470252.141594,60691.000,9985,8,AX,1,100,-0.595
1570470252.158187,60704.000,9985,8,AX,1,100,-0.587
1570470252.174780,60717.000,10002,7,AX,1,100,-0.596
1570470252.191373,60730.000,10002,7,AX,1,100,-0.574
1570470252.207966,60743.000,10002,7,AX,1,100,-0.578
1570470252.224559,60756.000,10002,7,AX,1,100,-0.573
1570470252.241152,60769.000,10002,7,AX,1,100,-0.560
1570470252.257745,60782.000,10002,7,AX,1,100,-0.570
1570470252.274338,60795.000,10002,7,AX,1,100,-0.567
1570470252.290931,60808.000,10020,8,AX,1,100,-0.557
1570470252.307524,60821.000,10020,8,AX,1,100,-0.550
1570470252.324117,60834.000,10020,8,AX,1,100,-0.549
1570470252.340710,60847.000,10020,8,AX,1,100,-0.577
1570470252.357303,60860.000,10020,8,AX,1,100,-0.596
1570470252.373896,60873.000,10020,8,AX,1,100,-0.591
1570470252.390489,60886.000,10020,8,AX,1,100,-0.596
1570470252.407082,60899.000,10020,8,AX,1,100,-0.601
1570470252.423773,60912.077,10041,13,AX,1,100,-0.597
1570470252.440464,60925.154,10041,13,AX,1,100,-0.577
1570470252.457155,60938.231,10041,13,AX,1,100,-0.570
1570470252.473846,60951.308,10041,13,AX,1,100,-0.590
1570470252.490538,60964.385,10041,13,AX,1,100,-0.580
1570470252.507229,60977.462,10041,13,AX,1,100,-0.576
1570470252.523920,60990.538,10041,13,AX,1,100,-0.581
1570470252.540611,61003.615,10041,13,AX,1,100,-0.578
1570470252.557302,61016.692,10041,13,AX,1,100,-0.582
1570470252.573993,61029.769,10041,13,AX,1,100,-0.572
1570470252.590684,61042.846,10041,13,AX,1,100,-0.570
1570470252.607376,61055.923,10041,13,AX,1,100,-0.578
1570470252.624067,61069.000,10041,13,AX,1,100,-0.583
1570470252.640660,61082.000,10062,7,AX,1,100,-0.587
1570470252.657253,61095.000,10062,7,AX,1,100,-0.578
1570470252.673846,61108.000,10062,7,AX,1,100,-0.571
1570470252.690439,61121.000,10062,7,AX,1,100,-0.574
1570470252.707031,61134.000,10062,7,AX,1,100,-0.571
1570470252.723624,61147.000,10062,7,AX,1,100,-0.573
1570470252.740217,61160.000,10062,7,AX,1,100,-0.580
1570470252.756810,61173.000,10080,8,AX,1,100,-0.585
1570470252.773403,61186.000,10080,8,AX,1,100,-0.567
1570470252.789996,61199.000,10080,8,AX,1,100,-0.571
1570470252.806589,61212.000,10080,8,AX,1,100,-0.570
1570470252.823182,61225.000,10080,8,AX,1,100,-0.571
1570470252.839775,61238.000,10080,8,AX,1,100,-0.575
1570470252.856368,61251.000,10080,8,AX,1,100,-0.571
1570470252.872961,61264.000,10080,8,AX,1,100,-0.573
1570470252.889873,61277.250,10098,8,AX,1,100,-0.561
1570470252.906785,61290.500,10098,8,AX,1,100,-0.568
1570470252.923697,61303.750,10098,8,AX,1,100,-0.578
1570470252.940609,61317.000,10098,8,AX,1,100,-0.589
1570470252.957521,61330.250,10098,8,AX,1,100,-0.597
1570470252.974433,61343.500,10098,8,AX,1,100,-0.597
1570470252.991345,61356.750,10098,8,AX,1,100,-0.596
1570470253.008258,61370.000,10098,8,AX,1,100,-0.603
1570470253.025033,61383.143,10116,7,AX,1,100,-0.596
1570470253.041808,61396.286,10116,7,AX,1,100,-0.588
1570470253.058583,61409.429,10116,7,AX,1,100,-0.587
1570470253.075359,61422.571,10116,7,AX,1,100,-0.579
1570470253.092134,61435.714,10116,7,AX,1,100,-0.557
1570470253.108909,61448.857,10116,7,AX,1,100,-0.556
1570470253.125685,61462.000,10116,7,AX,1,100,-0.554
1570470253.142597,61475.250,10134,8,AX,1,100,-0.555
1570470253.159509,61488.500,10134,8,AX,1,100,-0.557
1570470253.176421,61501.750,10134,8,AX,1,100,-0.554
1570470253.193333,61515.000,10134,8,AX,1,100,-0.548
1570470253.210245,61528.250,10134,8,AX,1,100,-0.542
1570470253.227157,61541.500,10134,8,AX,1,100,-0.532
1570470253.244069,61554.750,10134,8,AX,1,100,-0.553
1570470253.260981,61568.000,10134,8,AX,1,100,-0.555
1570470253.277415,61580.875,10152,8,AX,1,100,-0.548
1570470253.293848,61593.750,10152,8,AX,1,100,-0.553
1570470253.310281,61606.625,10152,8,AX,1,100,-0.557
1570470253.326715,61619.500,10152,8,AX,1,100,-0.552
1570470253.343148,61632.375,10152,8,AX,1,100,-0.571
1570470253.359581,61645.250,10152,8,AX,1,100,-0.581
1570470253.376015,61658.125,10152,8,AX,1,100,-0.588
1570470253.392448,61671.000,10152,8,AX,1,100,-0.593
1570470253.408882,61683.875,10170,8,AX,1,100,-0.591
1570470253.425315,61696.750,10170,8,AX,1,100,-0.598
1570470253.441749,61709.625,10170,8,AX,1,100,-0.602
1570470253.458182,61722.500,10170,8,AX,1,100,-0.594
1570470253.474616,61735.375,10170,8,AX,1,100,-0.596
1570470253.491049,61748.250,10170,8,AX,1,100,-0.583
1570470253.507482,61761.125,10170,8,AX,1,100,-0.585
1570470253.523916,61774.000,10170,8,AX,1,100,-0.582
1570470253.540326,61786.857,10189,7,AX,1,100,-0.584
1570470253.556737,61799.714,10189,7,AX,1,100,-0.571
1570470253.573148,61812.571,10189,7,AX,1,100,-0.595
1570470253.589558,61825.429,10189,7,AX,1,100,-0.587
1570470253.605969,61838.286,10189,7,AX,1,100,-0.576
1570470253.622380,61851.143,10189,7,AX,1,100,-0.584
1570470253.638790,61864.000,10189,7,AX,1,100,-0.581
1570470253.655383,61877.000,10207,8,AX,1,100,-0.581
1570470253.671976,61890.000,10207,8,AX,1,100,-0.574
1570470253.688569,61903.000,10207,8,AX,1,100,-0.568
1570470253.705162,61916.000,10207,8,AX,1,100,-0.574
1570470253.721755,61929.000,10207,8,AX,1,100,-0.567
1570470253.738348,61942.000,10207,8,AX,1,100,-0.569
1570470253.754941,61955.000,10207,8,AX,1,100,-0.584
1570470253.771534,61968.000,10207,8,AX,1,100,-0.589
1570470253.787967,61980.875,10225,8,AX,1,100,-0.586
1570470253.804400,61993.750,10225,8,AX,1,100,-0.576
1570470253.820834,62006.625,10225,8,AX,1,100,-0.571
1570470253.837267,62019.500,10225,8,AX,1,100,-0.569
1570470253.853701,62032.375,10225,8,AX,1,100,-0.566
1570470253.870134,62045.250,10225,8,AX,1,100,-0.566
1570470253.886568,62058.125,10225,8,AX,1,100,-0.575
1570470253.903001,62071.000,10225,8,AX,1,100,-0.568
1570470253.919754,62084.125,10243,8,AX,1,100,-0.565
1570470253.936506,62097.250,10243,8,AX,1,100,-0.565
1570470253.953259,62110.375,10243,8,AX,1,100,-0.564
1570470253.970011,62123.500,10243,8,AX,1,100,-0.560
1570470253.986763,62136.625,10243,8,AX,1,100,-0.579
1570470254.003516,62149.750,10243,8,AX,1,100,-0.573
1570470254.020269,62162.875,10243,8,AX,1,100,-0.569
1570470254.037021,62176.000,10243,8,AX,1,100,-0.585
1570470254.053796,62189.143,10261,7,AX,1,100,-0.580
1570470254.070572,62202.286,10261,7,AX,1,100,-0.575
1570470254.087347,62215.429,10261,7,AX,1,100,-0.581
1570470254.104122,62228.571,10261,7,AX,1,100,-0.587
1570470254.120898,62241.714,10261,7,AX,1,100,-0.581
1570470254.137673,62254.857,10261,7,AX,1,100,-0.574
1570470254.154448,62268.000,10261,7,AX,1,100,-0.574
1570470254.171201,62281.125,10279,8,AX,1,100,-0.574
1570470254.187953,62294.250,10279,8,AX,1,100,-0.579
1570470254.204706,62307.375,10279,8,AX,1,100,-0.583
1570470254.221458,62320.500,10279,8,AX,1,100,-0.580
1570470254.238211,62333.625,10279,8,AX,1,100,-0.571
1570470254.254963,62346.750,10279,8,AX,1,100,-0.561
1570470254.271716,62359.875,10279,8,AX,1,100,-0.557
1570470254.288468,62373.000,10279,8,AX,1,100,-0.560
1570470254.304902,62385.875,10297,8,AX,1,100,-0.579
1570470254.321335,62398.750,10297,8,AX,1,100,-0.597
1570470254.337769,62411.625,10297,8,AX,1,100,-0.582
1570470254.354202,62424.500,10297,8,AX,1,100,-0.573
1570470254.370635,62437.375,10297,8,AX,1,100,-0.578
1570470254.387069,62450.250,10297,8,AX,1,100,-0.576
1570470254.403502,62463.125,10297,8,AX,1,100,-0.582
1570470254.419935,62476.000,10297,8,AX,1,100,-0.588
1570470254.436688,62489.125,10315,8,AX,1,100,-0.592
1570470254.453441,62502.250,10315,8,AX,1,100,-0.606
1570470254.470193,62515.375,10315,8,AX,1,100,-0.598
1570470254.486946,62528.500,10315,8,AX,1,100,-0.586
1570470254.503698,62541.625,10315,8,AX,1,100,-0.591
1570470254.520451,62554.750,10315,8,AX,1,100,-0.582
1570470254.537203,62567.875,10315,8,AX,1,100,-0.573
1570470254.553956,62581.000,10315,8,AX,1,100,-0.568
1570470254.570366,62593.857,10333,7,AX,1,100,-0.569
1570470254.586777,62606.714,10333,7,AX,1,100,-0.570
1570470254.603188,62619.571,10333,7,AX,1,100,-0.567
1570470254.619598,62632.429,10333,7,AX,1,100,-0.575
1570470254.636009,62645.286,10333,7,AX,1,100,-0.574
1570470254.652419,62658.143,10333,7,AX,1,100,-0.570
1570470254.668830,62671.000,10333,7,AX,1,100,-0.571
1570470254.685423,62684.000,10351,8,AX,1,100,-0.573
1570470254.702016,62697.000,10351,8,AX,1,100,-0.572
1570470254.718609,62710.000,10351,8,AX,1,100,-0.577
1570470254.735202,62723.000,10351,8,AX,1,100,-0.576
1570470254.751795,62736.000,10351,8,AX,1,100,-0.584
1570470254.768388,62749.000,10351,8,AX,1,100,-0.587
1570470254.784981,62762.000,10351,8,AX,1,100,-0.586
1570470254.801574,62775.000,10351,8,AX,1,100,-0.580
1570470254.818326,62788.125,10369,8,AX,1,100,-0.577
1570470254.835079,62801.250,10369,8,AX,1,100,-0.585
1570470254.851831,62814.375,10369,8,AX,1,100,-0.589
1570470254.868584,62827.500,10369,8,AX,1,100,-0.585
1570470254.885336,62840.625,10369,8,AX,1,100,-0.587
1570470254.902089,62853.750,10369,8,AX,1,100,-0.586
1570470254.918841,62866.875,10369,8,AX,1,100,-0.581
1570470254.935594,62880.000,10369,8,AX,1,100,-0.577
1570470254.952346,62893.125,10387,8,AX,1,100,-0.589
1570470254.969099,62906.250,10387,8,AX,1,100,-0.594
1570470254.985851,62919.375,10387,8,AX,1,100,-0.585
1570470255.002604,62932.500,10387,8,AX,1,100,-0.588
1570470255.019356,62945.625,10387,8,AX,1,100,-0.577
1570470255.036109,62958.750,10387,8,AX,1,100,-0.572
1570470255.052861,62971.875,10387,8,AX,1,100,-0.568
1570470255.069614,62985.000,10387,8,AX,1,100,-0.574
1570470255.086389,62998.143,10405,7,AX,1,100,-0.566
1570470255.103164,63011.286,10405,7,AX,1,100,-0.564
1570470255.119940,63024.429,10405,7,AX,1,100,-0.565
1570470255.136715,63037.571,10405,7,AX,1,100,-0.565
1570470255.153490,63050.714,10405,7,AX,1,100,-0.568
1570470255.170265,63063.857,10405,7,AX,1,100,-0.560
1570470255.187041,63077.000,10405,7,AX,1,100,-0.571
1570470255.204113,63090.375,10423,8,AX,1,100,-0.568
1570470255.221184,63103.750,10423,8,AX,1,100,-0.561
1570470255.238256,63117.125,10423,8,AX,1,100,-0.568
1570470255.255327,63130.500,10423,8,AX,1,100,-0.565
1570470255.272399,63143.875,10423,8,AX,1,100,-0.562
1570470255.289470,63157.250,10423,8,AX,1,100,-0.570
1570470255.306542,63170.625,10423,8,AX,1,100,-0.569
1570470255.323614,63184.000,10423,8,AX,1,100,-0.582
1570470255.340366,63197.125,10441,8,AX,1,100,-0.594
1570470255.357119,63210.250,10441,8,AX,1,100,-0.576
1570470255.373871,63223.375,10441,8,AX,1,100,-0.576
1570470255.390624,63236.500,10441,8,AX,1,100,-0.586
1570470255.407376,63249.625,10441,8,AX,1,100,-0.578
1570470255.424129,63262.750,10441,8,AX,1,100,-0.572
1570470255.440881,63275.875,10441,8,AX,1,100,-0.570
1570470255.457634,63289.000,10441,8,AX,1,100,-0.568
1570470255.473907,63301.750,10458,8,AX,1,100,-0.565
1570470255.490181,63314.500,10458,8,AX,1,100,-0.573
1570470255.506455,63327.250,10458,8,AX,1,100,-0.563
1570470255.522729,63340.000,10458,8,AX,1,100,-0.567
1570470255.539003,63352.750,10458,8,AX,1,100,-0.566
1570470255.555277,63365.500,10458,8,AX,1,100,-0.547
1570470255.571551,63378.250,10458,8,AX,1,100,-0.557
1570470255.587825,63391.000,10458,8,AX,1,100,-0.558
1570470255.604418,63404.000,10476,7,AX,1,100,-0.555
1570470255.621011,63417.000,10476,7,AX,1,100,-0.556
1570470255.637604,63430.000,10476,7,AX,1,100,-0.556
1570470255.654197,63443.000,10476,7,AX,1,100,-0.570
1570470255.670789,63456.000,10476,7,AX,1,100,-0.576
1570470255.687382,63469.000,10476,7,AX,1,100,-0.566
1570470255.703975,63482.000,10476,7,AX,1,100,-0.584
1570470255.720568,63495.000,10494,8,AX,1,100,-0.580
1570470255.737161,63508.000,10494,8,AX,1,100,-0.572
1570470255.753754,63521.000,10494,8,AX,1,100,-0.585
1570470255.770347,63534.000,10494,8,AX,1,100,-0.586
1570470255.786940,63547.000,10494,8,AX,1,100,-0.581
1570470255.803533,63560.000,10494,8,AX,1,100,-0.591
1570470255.820126,63573.000,10494,8,AX,1,100,-0.591
1570470255.836719,63586.000,10494,8,AX,1,100,-0.582
1570470255.853631,63599.250,10512,8,AX,1,100,-0.572
1570470255.870543,63612.500,10512,8,AX,1,100,-0.567
1570470255.887455,63625.750,10512,8,AX,1,100,-0.569
1570470255.904367,63639.000,10512,8,AX,1,100,-0.579
1570470255.921279,63652.250,10512,8,AX,1,100,-0.588
1570470255.938191,63665.500,10512,8,AX,1,100,-0.580
1570470255.955103,63678.750,10512,8,AX,1,100,-0.564
1570470255.972015,63692.000,10512,8,AX,1,100,-0.572
1570470255.988608,63705.000,10530,8,AX,1,100,-0.579
1570470256.005201,63718.000,10530,8,AX,1,100,-0.573
1570470256.021794,63731.000,10530,8,AX,1,100,-0.568
1570470256.038387,63744.000,10530,8,AX,1,100,-0.579
1570470256.054980,63757.000,10530,8,AX,1,100,-0.561
1570470256.071573,63770.000,10530,8,AX,1,100,-0.563
1570470256.088166,63783.000,10530,8,AX,1,100,-0.575
1570470256.104759,63796.000,10530,8,AX,1,100,-0.570
1570470256.121717,63809.286,10548,7,AX,1,100,-0.577
1570470256.138674,63822.571,10548,7,AX,1,100,-0.576
1570470256.155632,63835.857,10548,7,AX,1,100,-0.567
1570470256.172590,63849.143,10548,7,AX,1,100,-0.565
1570470256.189547,63862.429,10548,7,AX,1,100,-0.574
1570470256.206505,63875.714,10548,7,AX,1,100,-0.571
1570470256.223463,63889.000,10548,7,AX,1,100,-0.571
1570470256.240375,63902.250,10566,8,AX,1,100,-0.577
1570470256.257287,63915.500,10566,8,AX,1,100,-0.587
1570470256.274199,63928.750,10566,8,AX,1,100,-0.579
1570470256.291111,63942.000,10566,8,AX,1,100,-0.564
1570470256.308023,63955.250,10566,8,AX,1,100,-0.567
1570470256.324935,63968.500,10566,8,AX,1,100,-0.579
1570470256.341847,63981.750,10566,8,AX,1,100,-0.583
1570470256.358759,63995.000,10566,8,AX,1,100,-0.572
1570470256.374987,64007.714,10584,7,AX,1,100,-0.583
1570470256.391216,64020.429,10584,7,AX,1,100,-0.582
1570470256.407444,64033.143,10584,7,AX,1,100,-0.580
1570470256.423672,64045.857,10584,7,AX,1,100,-0.583
1570470256.439900,64058.571,10584,7,AX,1,100,-0.580
1570470256.456129,64071.286,10584,7,AX,1,100,-0.565
1570470256.472357,64084.000,10584,7,AX,1,100,-0.568
1570470256.488950,64097.000,10602,8,AX,1,100,-0.561
1570470256.505543,64110.000,10602,8,AX,1,100,-0.558
1570470256.522136,64123.000,10602,8,AX,1,100,-0.576
1570470256.538729,64136.000,10602,8,AX,1,100,-0.573
1570470256.555322,64149.000,10602,8,AX,1,100,-0.571
1570470256.571915,64162.000,10602,8,AX,1,100,-0.572
1570470256.588508,64175.000,10602,8,AX,1,100,-0.570
1570470256.605101,64188.000,10602,8,AX,1,100,-0.564
1570470256.621694,64201.000,10621,8,AX,1,100,-0.573
1570470256.638287,64214.000,10621,8,AX,1,100,-0.579
1570470256.654880,64227.000,10621,8,AX,1,100,-0.576
1570470256.671473,64240.000,10621,8,AX,1,100,-0.578
1570470256.688066,64253.000,10621,8,AX,1,100,-0.596
1570470256.704659,64266.000,10621,8,AX,1,100,-0.580
1570470256.721251,64279.000,10621,8,AX,1,100,-0.566
1570470256.737844,64292.000,10621,8,AX,1,100,-0.568
1570470256.754118,64304.750,10639,8,AX,1,100,-0.581
1570470256.770392,64317.500,10639,8,AX,1,100,-0.573
1570470256.786666,64330.250,10639,8,AX,1,100,-0.579
1570470256.802940,64343.000,10639,8,AX,1,100,-0.594
1570470256.819214,64355.750,10639,8,AX,1,100,-0.585
1570470256.835488,64368.500,10639,8,AX,1,100,-0.565
1570470256.851761,64381.250,10639,8,AX,1,100,-0.583
1570470256.868035,64394.000,10639,8,AX,1,100,-0.574
1570470256.884947,64407.250,10657,8,AX,1,100,-0.554
1570470256.901860,64420.500,10657,8,AX,1,100,-0.564
1570470256.918772,64433.750,10657,8,AX,1,100,-0.584
1570470256.935683,64447.000,10657,8,AX,1,100,-0.579
1570470256.952595,64460.250,10657,8,AX,1,100,-0.570
1570470256.969508,64473.500,10657,8,AX,1,100,-0.572
1570470256.986420,64486.750,10657,8,AX,1,100,-0.568
1570470257.003332,64500.000,10657,8,AX,1,100,-0.562
1570470257.020107,64513.143,10675,7,AX,1,100,-0.562
1570470257.036882,64526.286,10675,7,AX,1,100,-0.582
1570470257.053658,64539.429,10675,7,AX,1,100,-0.594
1570470257.070433,64552.571,10675,7,AX,1,100,-0.586
1570470257.087208,64565.714,10675,7,AX,1,100,-0.573
1570470257.103984,64578.857,10675,7,AX,1,100,-0.584
1570470257.120759,64592.000,10675,7,AX,1,100,-0.574
1570470257.137511,64605.125,10693,8,AX,1,100,-0.562
1570470257.154264,64618.250,10693,8,AX,1,100,-0.569
1570470257.171016,64631.375,10693,8,AX,1,100,-0.575
1570470257.187769,64644.500,10693,8,AX,1,100,-0.571
1570470257.204521,64657.625,10693,8,AX,1,100,-0.577
1570470257.221274,64670.750,10693,8,AX,1,100,-0.571
1570470257.238026,64683.875,10693,8,AX,1,100,-0.569
1570470257.254779,64697.000,10693,8,AX,1,100,-0.594
1570470257.271531,64710.125,10711,8,AX,1,100,-0.577
1570470257.288284,64723.250,10711,8,AX,1,100,-0.567
1570470257.305037,64736.375,10711,8,AX,1,100,-0.574
1570470257.321789,64749.500,10711,8,AX,1,100,-0.568
1570470257.338542,64762.625,10711,8,AX,1,100,-0.565
1570470257.355294,64775.750,10711,8,AX,1,100,-0.575
1570470257.372046,64788.875,10711,8,AX,1,100,-0.581
1570470257.388799,64802.000,10711,8,AX,1,100,-0.576
1570470257.405392,64815.000,10729,8,AX,1,100,-0.571
1570470257.421985,64828.000,10729,8,AX,1,100,-0.575
1570470257.438578,64841.000,10729,8,AX,1,100,-0.577
1570470257.455171,64854.000,10729,8,AX,1,100,-0.576
1570470257.471764,64867.000,10729,8,AX,1,100,-0.583
1570470257.488357,64880.000,10729,8,AX,1,100,-0.588
1570470257.504950,64893.000,10729,8,AX,1,100,-0.591
1570470257.521543,64906.000,10729,8,AX,1,100,-0.578
1570470257.537771,64918.714,10747,7,AX,1,100,-0.569
1570470257.553999,64931.429,10747,7,AX,1,100,-0.572
1570470257.570227,64944.143,10747,7,AX,1,100,-0.566
1570470257.586456,64956.857,10747,7,AX,1,100,-0.570
1570470257.602684,64969.571,10747,7,AX,1,100,-0.564
1570470257.618912,64982.286,10747,7,AX,1,100,-0.568
1570470257.635141,64995.000,10747,7,AX,1,100,-0.567
1570470257.651893,65008.125,10766,8,AX,1,100,-0.571
1570470257.668646,65021.250,10766,8,AX,1,100,-0.578
1570470257.685398,65034.375,10766,8,AX,1,100,-0.567
1570470257.702151,65047.500,10766,8,AX,1,100,-0.562
1570470257.718903,65060.625,10766,8,AX,1,100,-0.576
1570470257.735656,65073.750,10766,8,AX,1,100,-0.573
1570470257.752408,65086.875,10766,8,AX,1,100,-0.569
1570470257.769161,65100.000,10766,8,AX,1,100,-0.586
1570470257.785594,65112.875,10784,8,AX,1,100,-0.597
1570470257.802027,65125.750,10784,8,AX,1,100,-0.578
1570470257.818461,65138.625,10784,8,AX,1,100,-0.574
1570470257.834894,65151.500,10784,8,AX,1,100,-0.592
1570470257.851328,65164.375,10784,8,AX,1,100,-0.571
1570470257.867761,65177.250,10784,8,AX,1,100,-0.566
1570470257.884195,65190.125,10784,8,AX,1,100,-0.580
1570470257.900628,65203.000,10784,8,AX,1,100,-0.582
1570470257.917540,65216.250,10802,8,AX,1,100,-0.578
1570470257.934452,65229.500,10802,8,AX,1,100,-0.584
1570470257.951364,65242.750,10802,8,AX,1,100,-0.586
1570470257.968276,65256.000,10802,8,AX,1,100,-0.576
1570470257.985188,65269.250,10802,8,AX,1,100,-0.562
1570470258.002100,65282.500,10802,8,AX,1,100,-0.566
1570470258.019012,65295.750,10802,8,AX,1,100,-0.565
1570470258.035924,65309.000,10802,8,AX,1,100,-0.568
1570470258.052700,65322.143,10820,7,AX,1,100,-0.571
1570470258.069475,65335.286,10820,7,AX,1,100,-0.581
1570470258.086250,65348.429,10820,7,AX,1,100,-0.581
1570470258.103026,65361.571,10820,7,AX,1,100,-0.575
1570470258.119801,65374.714,10820,7,AX,1,100,-0.567
1570470258.136576,65387.857,10820,7,AX,1,100,-0.573
1570470258.153352,65401.000,10820,7,AX,1,100,-0.582
1570470258.170264,65414.250,10838,8,AX,1,100,-0.588
1570470258.187176,65427.500,10838,8,AX,1,100,-0.584
1570470258.204088,65440.750,10838,8,AX,1,100,-0.584
1570470258.221000,65454.000,10838,8,AX,1,100,-0.572
1570470258.237912,65467.250,10838,8,AX,1,100,-0.570
1570470258.254824,65480.500,10838,8,AX,1,100,-0.573
1570470258.271736,65493.750,10838,8,AX,1,100,-0.573
1570470258.288648,65507.000,10838,8,AX,1,100,-0.572
1570470258.305400,65520.125,10856,8,AX,1,100,-0.572
1570470258.322153,65533.250,10856,8,AX,1,100,-0.574
1570470258.338906,65546.375,10856,8,AX,1,100,-0.567
1570470258.355658,65559.500,10856,8,AX,1,100,-0.569
1570470258.372411,65572.625,10856,8,AX,1,100,-0.570
1570470258.389163,65585.750,10856,8,AX,1,100,-0.576
1570470258.405915,65598.875,10856,8,AX,1,100,-0.581
1570470258.422668,65612.000,10856,8,AX,1,100,-0.576
1570470258.439079,65624.857,10873,7,AX,1,100,-0.576
1570470258.455489,65637.714,10873,7,AX,1,100,-0.573
1570470258.471900,65650.571,10873,7,AX,1,100,-0.577
1570470258.488311,65663.429,10873,7,AX,1,100,-0.571
1570470258.504721,65676.286,10873,7,AX,1,100,-0.581
1570470258.521132,65689.143,10873,7,AX,1,100,-0.570
1570470258.537542,65702.000,10873,7,AX,1,100,-0.578
1570470258.554135,65715.000,10892,8,AX,1,100,-0.583
1570470258.570728,65728.000,10892,8,AX,1,100,-0.577
1570470258.587321,65741.000,10892,8,AX,1,100,-0.574
1570470258.603914,65754.000,10892,8,AX,1,100,-0.591
1570470258.620507,65767.000,10892,8,AX,1,100,-0.591
1570470258.637100,65780.000,10892,8,AX,1,100,-0.583
1570470258.653693,65793.000,10892,8,AX,1,100,-0.583
1570470258.670286,65806.000,10892,8,AX,1,100,-0.579
1570470258.686879,65819.000,10910,8,AX,1,100,-0.570
1570470258.703472,65832.000,10910,8,AX,1,100,-0.572
1570470258.720065,65845.000,10910,8,AX,1,100,-0.573
1570470258.736658,65858.000,10910,8,AX,1,100,-0.568
1570470258.753251,65871.000,10910,8,AX,1,100,-0.554
1570470258.769844,65884.000,10910,8,AX,1,100,-0.554
1570470258.786437,65897.000,10910,8,AX,1,100,-0.560
1570470258.803030,65910.000,10910,8,AX,1,100,-0.564
1570470258.819623,65923.000,10928,8,AX,1,100,-0.581
1570470258.836216,65936.000,10928,8,AX,1,100,-0.583
1570470258.852808,65949.000,10928,8,AX,1,100,-0.572
1570470258.869401,65962.000,10928,8,AX,1,100,-0.568
1570470258.885994,65975.000,10928,8,AX,1,100,-0.580
1570470258.902587,65988.000,10928,8,AX,1,100,-0.584
1570470258.919180,66001.000,10928,8,AX,1,100,-0.593
1570470258.935773,66014.000,10928,8,AX,1,100,-0.587
1570470258.952473,66027.083,10949,12,AX,1,100,-0.589
1570470258.969172,66040.167,10949,12,AX,1,100,-0.577
1570470258.985871,66053.250,10949,12,AX,1,100,-0.579
1570470259.002571,66066.333,10949,12,AX,1,100,-0.577
1570470259.019270,66079.417,10949,12,AX,1,100,-0.571
1570470259.035969,66092.500,10949,12,AX,1,100,-0.573
1570470259.052669,66105.583,10949,12,AX,1,100,-0.572
1570470259.069368,66118.667,10949,12,AX,1,100,-0.572
1570470259.086067,66131.750,10949,12,AX,1,100,-0.585
1570470259.102767,66144.833,10949,12,AX,1,100,-0.587
1570470259.119466,66157.917,10949,12,AX,1,100,-0.579
1570470259.136165,66171.000,10949,12,AX,1,100,-0.574
1570470259.152918,66184.125,10969,8,AX,1,100,-0.569
1570470259.169670,66197.250,10969,8,AX,1,100,-0.570
1570470259.186423,66210.375,10969,8,AX,1,100,-0.570
1570470259.203175,66223.500,10969,8,AX,1,100,-0.571
1570470259.219928,66236.625,10969,8,AX,1,100,-0.580
1570470259.236680,66249.750,10969,8,AX,1,100,-0.579
1570470259.253433,66262.875,10969,8,AX,1,100,-0.574
1570470259.270185,66276.000,10969,8,AX,1,100,-0.572
1570470259.287143,66289.286,10987,7,AX,1,100,-0.576
1570470259.304101,66302.571,10987,7,AX,1,100,-0.578
1570470259.321058,66315.857,10987,7,AX,1,100,-0.571
1570470259.338016,66329.143,10987,7,AX,1,100,-0.579
1570470259.354974,66342.429,10987,7,AX,1,100,-0.577
1570470259.371931,66355.714,10987,7,AX,1,100,-0.573
1570470259.388889,66369.000,10987,7,AX,1,100,-0.573
1570470259.405482,66382.000,11005,8,AX,1,100,-0.578
1570470259.422075,66395.000,11005,8,AX,1,100,-0.580
1570470259.438668,66408.000,11005,8,AX,1,100,-0.574
1570470259.455261,66421.000,11005,8,AX,1,100,-0.572
1570470259.471854,66434.000,11005,8,AX,1,100,-0.572
1570470259.488446,66447.000,11005,8,AX,1,100,-0.567
1570470259.505039,66460.000,11005,8,AX,1,100,-0.567
1570470259.521632,66473.000,11005,8,AX,1,100,-0.568
1570470259.538225,66486.000,11023,8,AX,1,100,-0.579
1570470259.554818,66499.000,11023,8,AX,1,100,-0.588
1570470259.571411,66512.000,11023,8,AX,1,100,-0.583
1570470259.588004,66525.000,11023,8,AX,1,100,-0.566
1570470259.604597,66538.000,11023,8,AX,1,100,-0.560
1570470259.621190,66551.000,11023,8,AX,1,100,-0.564
1570470259.637783,66564.000,11023,8,AX,1,100,-0.570
1570470259.654376,66577.000,11023,8,AX,1,100,-0.583
1570470259.670810,66589.875,11042,8,AX,1,100,-0.583
1570470259.687243,66602.750,11042,8,AX,1,100,-0.570
1570470259.703676,66615.625,11042,8,AX,1,100,-0.571
1570470259.720110,66628.500,11042,8,AX,1,100,-0.576
1570470259.736543,66641.375,11042,8,AX,1,100,-0.584
1570470259.752977,66654.250,11042,8,AX,1,100,-0.578
1570470259.769410,66667.125,11042,8,AX,1,100,-0.583
1570470259.785843,66680.000,11042,8,AX,1,100,-0.591
1570470259.802072,66692.714,11060,7,AX,1,100,-0.588
1570470259.818300,66705.429,11060,7,AX,1,100,-0.567
1570470259.834528,66718.143,11060,7,AX,1,100,-0.555
1570470259.850757,66730.857,11060,7,AX,1,100,-0.563
1570470259.866985,66743.571,11060,7,AX,1,100,-0.567
1570470259.883213,66756.286,11060,7,AX,1,100,-0.573
1570470259.899441,66769.000,11060,7,AX,1,100,-0.575
1570470259.916034,66782.000,11078,8,AX,1,100,-0.579
1570470259.932627,66795.000,11078,8,AX,1,100,-0.586
1570470259.949220,66808.000,11078,8,AX,1,100,-0.582
1570470259.965813,66821.000,11078,8,AX,1,100,-0.568
1570470259.982406,66834.000,11078,8,AX,1,100,-0.555
1570470259.998999,66847.000,11078,8,AX,1,100,-0.562
1570470260.015592,66860.000,11078,8,AX,1,100,-0.572
1570470260.032185,66873.000,11078,8,AX,1,100,-0.576
1570470260.048938,66886.125,11096,8,AX,1,100,-0.598
1570470260.065690,66899.250,11096,8,AX,1,100,-0.599
1570470260.082443,66912.375,11096,8,AX,1,100,-0.589
1570470260.099195,66925.500,11096,8,AX,1,100,-0.581
1570470260.115948,66938.625,11096,8,AX,1,100,-0.575
1570470260.132700,66951.750,11096,8,AX,1,100,-0.575
1570470260.149453,66964.875,11096,8,AX,1,100,-0.581
1570470260.166205,66978.000,11096,8,AX,1,100,-0.587
1570470260.182798,66991.000,11114,8,AX,1,100,-0.587
1570470260.199391,67004.000,11114,8,AX,1,100,-0.578
1570470260.215984,67017.000,11114,8,AX,1,100,-0.560
1570470260.232577,67030.000,11114,8,AX,1,100,-0.557
1570470260.249170,67043.000,11114,8,AX,1,100,-0.563
1570470260.265763,67056.000,11114,8,AX,1,100,-0.568
1570470260.282356,67069.000,11114,8,AX,1,100,-0.571
1570470260.298949,67082.000,11114,8,AX,1,100,-0.576
1570470260.315724,67095.143,11132,7,AX,1,100,-0.587
1570470260.332500,67108.286,11132,7,AX,1,100,-0.590
1570470260.349275,67121.429,11132,7,AX,1,100,-0.589
1570470260.366050,67134.571,11132,7,AX,1,100,-0.590
1570470260.382825,67147.714,11132,7,AX,1,100,-0.590
1570470260.399601,67160.857,11132,7,AX,1,100,-0.582
1570470260.416376,67174.000,11132,7,AX,1,100,-0.577
1570470260.433128,67187.125,11150,8,AX,1,100,-0.585
1570470260.449881,67200.250,11150,8,AX,1,100,-0.570
1570470260.466634,67213.375,11150,8,AX,1,100,-0.570
1570470260.483386,67226.500,11150,8,AX,1,100,-0.576
1570470260.500139,67239.625,11150,8,AX,1,100,-0.584
1570470260.516891,67252.750,11150,8,AX,1,100,-0.581
1570470260.533643,67265.875,11150,8,AX,1,100,-0.572
1570470260.550396,67279.000,11150,8,AX,1,100,-0.588
1570470260.566989,67292.000,11168,8,AX,1,100,-0.584
1570470260.583582,67305.000,11168,8,AX,1,100,-0.568
1570470260.600175,67318.000,11168,8,AX,1,100,-0.566
1570470260.616768,67331.000,11168,8,AX,1,100,-0.566
1570470260.633361,67344.000,11168,8,AX,1,100,-0.570
1570470260.649954,67357.000,11168,8,AX,1,100,-0.568
1570470260.666547,67370.000,11168,8,AX,1,100,-0.579
1570470260.683140,67383.000,11168,8,AX,1,100,-0.593
1570470260.699573,67395.875,11187,8,AX,1,100,-0.586
1570470260.716007,67408.750,11187,8,AX,1,100,-0.582
1570470260.732440,67421.625,11187,8,AX,1,100,-0.589
1570470260.748873,67434.500,11187,8,AX,1,100,-0.591
1570470260.765307,67447.375,11187,8,AX,1,100,-0.584
1570470260.781740,67460.250,11187,8,AX,1,100,-0.583
1570470260.798174,67473.125,11187,8,AX,1,100,-0.581
1570470260.814607,67486.000,11187,8,AX,1,100,-0.583
1570470260.831382,67499.143,11204,7,AX,1,100,-0.583
1570470260.848158,67512.286,11204,7,AX,1,100,-0.583
1570470260.864933,67525.429,11204,7,AX,1,100,-0.577
1570470260.881708,67538.571,11204,7,AX,1,100,-0.565
1570470260.898484,67551.714,11204,7,AX,1,100,-0.568
1570470260.915259,67564.857,11204,7,AX,1,100,-0.566
1570470260.932034,67578.000,11204,7,AX,1,100,-0.568
1570470260.948627,67591.000,11222,8,AX,1,100,-0.573
1570470260.965220,67604.000,11222,8,AX,1,100,-0.579
1570470260.981813,67617.000,11222,8,AX,1,100,-0.585
1570470260.998406,67630.000,11222,8,AX,1,100,-0.585
1570470261.014999,67643.000,11222,8,AX,1,100,-0.590
1570470261.031592,67656.000,11222,8,AX,1,100,-0.588
1570470261.048185,67669.000,11222,8,AX,1,100,-0.587
1570470261.064778,67682.000,11222,8,AX,1,100,-0.593
1570470261.081530,67695.125,11240,8,AX,1,100,-0.599
1570470261.098283,67708.250,11240,8,AX,1,100,-0.591
1570470261.115035,67721.375,11240,8,AX,1,100,-0.587
1570470261.131788,67734.500,11240,8,AX,1,100,-0.585
1570470261.148540,67747.625,11240,8,AX,1,100,-0.583
1570470261.165293,67760.750,11240,8,AX,1,100,-0.571
1570470261.182045,67773.875,11240,8,AX,1,100,-0.574
1570470261.198798,67787.000,11240,8,AX,1,100,-0.581
1570470261.215938,67800.429,11258,7,AX,1,100,-0.579
1570470261.233078,67813.857,11258,7,AX,1,100,-0.576
1570470261.250218,67827.286,11258,7,AX,1,100,-0.586
1570470261.267358,67840.714,11258,7,AX,1,100,-0.589
1570470261.284498,67854.143,11258,7,AX,1,100,-0.580
1570470261.301638,67867.571,11258,7,AX,1,100,-0.587
1570470261.318778,67881.000,11258,7,AX,1,100,-0.574
1570470261.335530,67894.125,11276,8,AX,1,100,-0.575
1570470261.352283,67907.250,11276,8,AX,1,100,-0.579
1570470261.369035,67920.375,11276,8,AX,1,100,-0.570
1570470261.385788,67933.500,11276,8,AX,1,100,-0.568
1570470261.402540,67946.625,11276,8,AX,1,100,-0.576
1570470261.419293,67959.750,11276,8,AX,1,100,-0.574
1570470261.436045,67972.875,11276,8,AX,1,100,-0.587
1570470261.452798,67986.000,11276,8,AX,1,100,-0.592
1570470261.469550,67999.125,11294,8,AX,1,100,-0.597
1570470261.486303,68012.250,11294,8,AX,1,100,-0.593
1570470261.503055,68025.375,11294,8,AX,1,100,-0.577
1570470261.519808,68038.500,11294,8,AX,1,100,-0.569
1570470261.536560,68051.625,11294,8,AX,1,100,-0.577
1570470261.553313,68064.750,11294,8,AX,1,100,-0.588
1570470261.570065,68077.875,11294,8,AX,1,100,-0.591
1570470261.586818,68091.000,11294,8,AX,1,100,-0.581
1570470261.603411,68104.000,11311,7,AX,1,100,-0.574
1570470261.620004,68117.000,11311,7,AX,1,100,-0.564
1570470261.636597,68130.000,11311,7,AX,1,100,-0.564
1570470261.653190,68143.000,11311,7,AX,1,100,-0.574
1570470261.669783,68156.000,11311,7,AX,1,100,-0.573
1570470261.686376,68169.000,11311,7,AX,1,100,-0.572
1570470261.702969,68182.000,11311,7,AX,1,100,-0.569
1570470261.719562,68195.000,11329,8,AX,1,100,-0.589
1570470261.736155,68208.000,11329,8,AX,1,100,-0.587
1570470261.752747,68221.000,11329,8,AX,1,100,-0.588
1570470261.769340,68234.000,11329,8,AX,1,100,-0.580
1570470261.785933,68247.000,11329,8,AX,1,100,-0.571
1570470261.802526,68260.000,11329,8,AX,1,100,-0.585
1570470261.819119,68273.000,11329,8,AX,1,100,-0.586
1570470261.835712,68286.000,11329,8,AX,1,100,-0.586
1570470261.852305,68299.000,11347,8,AX,1,100,-0.588
1570470261.868898,68312.000,11347,8,AX,1,100,-0.572
1570470261.885491,68325.000,11347,8,AX,1,100,-0.555
1570470261.902084,68338.000,11347,8,AX,1,100,-0.552
1570470261.918677,68351.000,11347,8,AX,1,100,-0.572
1570470261.935270,68364.000,11347,8,AX,1,100,-0.582
1570470261.951863,68377.000,11347,8,AX,1,100,-0.601
1570470261.968456,68390.000,11347,8,AX,1,100,-0.598
1570470261.985049,68403.000,11365,8,AX,1,100,-0.590
1570470262.001642,68416.000,11365,8,AX,1,100,-0.576
1570470262.018235,68429.000,11365,8,AX,1,100,-0.557
1570470262.034828,68442.000,11365,8,AX,1,100,-0.557
1570470262.051421,68455.000,11365,8,AX,1,100,-0.575
1570470262.068014,68468.000,11365,8,AX,1,100,-0.593
1570470262.084607,68481.000,11365,8,AX,1,100,-0.591
1570470262.101200,68494.000,11365,8,AX,1,100,-0.594
1570470262.117952,68507.125,11383,8,AX,1,100,-0.595
1570470262.134705,68520.250,11383,8,AX,1,100,-0.589
1570470262.151457,68533.375,11383,8,AX,1,100,-0.578
1570470262.168210,68546.500,11383,8,AX,1,100,-0.577
1570470262.184962,68559.625,11383,8,AX,1,100,-0.587
1570470262.201715,68572.750,11383,8,AX,1,100,-0.587
1570470262.218467,68585.875,11383,8,AX,1,100,-0.596
1570470262.235220,68599.000,11383,8,AX,1,100,-0.596
1570470262.252177,68612.286,11401,7,AX,1,100,-0.575
1570470262.269135,68625.571,11401,7,AX,1,100,-0.574
1570470262.286093,68638.857,11401,7,AX,1,100,-0.582
1570470262.303050,68652.143,11401,7,AX,1,100,-0.576
1570470262.320008,68665.429,11401,7,AX,1,100,-0.574
1570470262.336966,68678.714,11401,7,AX,1,100,-0.574
1570470262.353923,68692.000,11401,7,AX,1,100,-0.579
1570470262.370676,68705.125,11419,8,AX,1,100,-0.565
1570470262.387428,68718.250,11419,8,AX,1,100,-0.561
1570470262.404181,68731.375,11419,8,AX,1,100,-0.581
1570470262.420933,68744.500,11419,8,AX,1,100,-0.584
1570470262.437686,68757.625,11419,8,AX,1,100,-0.587
1570470262.454438,68770.750,11419,8,AX,1,100,-0.601
1570470262.471191,68783.875,11419,8,AX,1,100,-0.598
1570470262.487943,68797.000,11419,8,AX,1,100,-0.581
1570470262.504536,68810.000,11437,8,AX,1,100,-0.583
1570470262.521129,68823.000,11437,8,AX,1,100,-0.574
1570470262.537722,68836.000,11437,8,AX,1,100,-0.571
1570470262.554315,68849.000,11437,8,AX,1,100,-0.568
1570470262.570908,68862.000,11437,8,AX,1,100,-0.568
1570470262.587501,68875.000,11437,8,AX,1,100,-0.565
1570470262.604094,68888.000,11437,8,AX,1,100,-0.561
1570470262.620687,68901.000,11437,8,AX,1,100,-0.545
1570470262.637097,68913.857,11456,7,AX,1,100,-0.536
1570470262.653508,68926.714,11456,7,AX,1,100,-0.541
1570470262.669919,68939.571,11456,7,AX,1,100,-0.547
1570470262.686329,68952.429,11456,7,AX,1,100,-0.548
1570470262.702740,68965.286,11456,7,AX,1,100,-0.556
1570470262.719151,68978.143,11456,7,AX,1,100,-0.577
1570470262.735561,68991.000,11456,7,AX,1,100,-0.590
1570470262.751995,69003.875,11474,8,AX,1,100,-0.590
1570470262.768428,69016.750,11474,8,AX,1,100,-0.609
1570470262.784861,69029.625,11474,8,AX,1,100,-0.604
1570470262.801295,69042.500,11474,8,AX,1,100,-0.589
1570470262.817728,69055.375,11474,8,AX,1,100,-0.594
1570470262.834162,69068.250,11474,8,AX,1,100,-0.588
1570470262.850595,69081.125,11474,8,AX,1,100,-0.563
1570470262.867028,69094.000,11474,8,AX,1,100,-0.581
1570470262.883621,69107.000,11492,8,AX,1,100,-0.583
1570470262.900214,69120.000,11492,8,AX,1,100,-0.566
1570470262.916807,69133.000,11492,8,AX,1,100,-0.554
1570470262.933400,69146.000,11492,8,AX,1,100,-0.570
1570470262.949993,69159.000,11492,8,AX,1,100,-0.570
1570470262.966586,69172.000,11492,8,AX,1,100,-0.549
1570470262.983179,69185.000,11492,8,AX,1,100,-0.555
1570470262.999772,69198.000,11492,8,AX,1,100,-0.583
1570470263.016206,69210.875,11510,8,AX,1,100,-0.576
1570470263.032639,69223.750,11510,8,AX,1,100,-0.559
1570470263.049073,69236.625,11510,8,AX,1,100,-0.559
1570470263.065506,69249.500,11510,8,AX,1,100,-0.542
1570470263.081939,69262.375,11510,8,AX,1,100,-0.533
1570470263.098373,69275.250,11510,8,AX,1,100,-0.555
1570470263.114806,69288.125,11510,8,AX,1,100,-0.573
1570470263.131239,69301.000,11510,8,AX,1,100,-0.572
1570470263.147832,69314.000,11528,8,AX,1,100,-0.570
1570470263.164425,69327.000,11528,8,AX,1,100,-0.579
1570470263.181018,69340.000,11528,8,AX,1,100,-0.596
1570470263.197611,69353.000,11528,8,AX,1,100,-0.583
1570470263.214204,69366.000,11528,8,AX,1,100,-0.596
1570470263.230797,69379.000,11528,8,AX,1,100,-0.588
1570470263.247390,69392.000,11528,8,AX,1,100,-0.577
1570470263.263983,69405.000,11528,8,AX,1,100,-0.580
1570470263.281123,69418.429,11546,7,AX,1,100,-0.576
1570470263.298263,69431.857,11546,7,AX,1,100,-0.560
1570470263.315403,69445.286,11546,7,AX,1,100,-0.551
1570470263.332543,69458.714,11546,7,AX,1,100,-0.552
1570470263.349683,69472.143,11546,7,AX,1,100,-0.564
1570470263.366823,69485.571,11546,7,AX,1,100,-0.565
1570470263.383963,69499.000,11546,7,AX,1,100,-0.561
1570470263.400556,69512.000,11564,8,AX,1,100,-0.562
1570470263.417149,69525.000,11564,8,AX,1,100,-0.558
1570470263.433742,69538.000,11564,8,AX,1,100,-0.558
1570470263.450335,69551.000,11564,8,AX,1,100,-0.558
1570470263.466928,69564.000,11564,8,AX,1,100,-0.556
1570470263.483521,69577.000,11564,8,AX,1,100,-0.546
1570470263.500114,69590.000,11564,8,AX,1,100,-0.546
1570470263.516707,69603.000,11564,8,AX,1,100,-0.562
1570470263.533459,69616.125,11582,8,AX,1,100,-0.572
1570470263.550212,69629.250,11582,8,AX,1,100,-0.572
1570470263.566964,69642.375,11582,8,AX,1,100,-0.581
1570470263.583717,69655.500,11582,8,AX,1,100,-0.569
1570470263.600469,69668.625,11582,8,AX,1,100,-0.563
1570470263.617222,69681.750,11582,8,AX,1,100,-0.586
1570470263.633974,69694.875,11582,8,AX,1,100,-0.597
1570470263.650727,69708.000,11582,8,AX,1,100,-0.597
1570470263.667160,69720.875,11601,8,AX,1,100,-0.605
1570470263.683594,69733.750,11601,8,AX,1,100,-0.607
1570470263.700027,69746.625,11601,8,AX,1,100,-0.611
1570470263.716460,69759.500,11601,8,AX,1,100,-0.615
1570470263.732894,69772.375,11601,8,AX,1,100,-0.613
1570470263.749327,69785.250,11601,8,AX,1,100,-0.591
1570470263.765761,69798.125,11601,8,AX,1,100,-0.578
1570470263.782194,69811.000,11601,8,AX,1,100,-0.568
1570470263.798605,69823.857,11619,7,AX,1,100,-0.567
1570470263.815015,69836.714,11619,7,AX,1,100,-0.568
1570470263.831426,69849.571,11619,7,AX,1,100,-0.558
1570470263.847836,69862.429,11619,7,AX,1,100,-0.579
1570470263.864247,69875.286,11619,7,AX,1,100,-0.564
1570470263.880658,69888.143,11619,7,AX,1,100,-0.563
1570470263.897068,69901.000,11619,7,AX,1,100,-0.560
1570470263.913661,69914.000,11637,8,AX,1,100,-0.584
1570470263.930254,69927.000,11637,8,AX,1,100,-0.586
1570470263.946847,69940.000,11637,8,AX,1,100,-0.583
1570470263.963440,69953.000,11637,8,AX,1,100,-0.586
1570470263.980033,69966.000,11637,8,AX,1,100,-0.592
1570470263.996626,69979.000,11637,8,AX,1,100,-0.595
1570470264.013219,69992.000,11637,8,AX,1,100,-0.592
1570470264.029812,70005.000,11637,8,AX,1,100,-0.594
1570470264.046565,70018.125,11655,8,AX,1,100,-0.600
1570470264.063317,70031.250,11655,8,AX,1,100,-0.600
1570470264.080070,70044.375,11655,8,AX,1,100,-0.593
1570470264.096822,70057.500,11655,8,AX,1,100,-0.583
1570470264.113575,70070.625,11655,8,AX,1,100,-0.580
1570470264.130327,70083.750,11655,8,AX,1,100,-0.580
1570470264.147080,70096.875,11655,8,AX,1,100,-0.572
1570470264.163832,70110.000,11655,8,AX,1,100,-0.575
1570470264.180585,70123.125,11673,8,AX,1,100,-0.582
1570470264.197337,70136.250,11673,8,AX,1,100,-0.586
1570470264.214090,70149.375,11673,8,AX,1,100,-0.585
1570470264.230842,70162.500,11673,8,AX,1,100,-0.580
1570470264.247595,70175.625,11673,8,AX,1,100,-0.586
1570470264.264347,70188.750,11673,8,AX,1,100,-0.590
1570470264.281100,70201.875,11673,8,AX,1,100,-0.585
1570470264.297852,70215.000,11673,8,AX,1,100,-0.600
1570470264.314810,70228.286,11691,7,AX,1,100,-0.599
1570470264.331768,70241.571,11691,7,AX,1,100,-0.586
1570470264.348725,70254.857,11691,7,AX,1,100,-0.567
1570470264.365683,70268.143,11691,7,AX,1,100,-0.567
1570470264.382640,70281.429,11691,7,AX,1,100,-0.579
1570470264.399598,70294.714,11691,7,AX,1,100,-0.581
1570470264.416556,70308.000,11691,7,AX,1,100,-0.588
1570470264.433308,70321.125,11709,8,AX,1,100,-0.596
1570470264.450061,70334.250,11709,8,AX,1,100,-0.572
1570470264.466813,70347.375,11709,8,AX,1,100,-0.563
1570470264.483566,70360.500,11709,8,AX,1,100,-0.569
1570470264.500318,70373.625,11709,8,AX,1,100,-0.570
1570470264.517071,70386.750,11709,8,AX,1,100,-0.577
1570470264.533823,70399.875,11709,8,AX,1,100,-0.582
1570470264.550576,70413.000,11709,8,AX,1,100,-0.576
1570470264.567351,70426.143,11726,7,AX,1,100,-0.568
1570470264.584126,70439.286,11726,7,AX,1,100,-0.568
1570470264.600902,70452.429,11726,7,AX,1,100,-0.571
1570470264.617677,70465.571,11726,7,AX,1,100,-0.573
1570470264.634452,70478.714,11726,7,AX,1,100,-0.582
1570470264.651227,70491.857,11726,7,AX,1,100,-0.589
1570470264.668003,70505.000,11726,7,AX,1,100,-0.597
1570470264.684755,70518.125,11745,8,AX,1,100,-0.592
1570470264.701508,70531.250,11745,8,AX,1,100,-0.589
1570470264.718260,70544.375,11745,8,AX,1,100,-0.583
1570470264.735013,70557.500,11745,8,AX,1,100,-0.581
1570470264.751765,70570.625,11745,8,AX,1,100,-0.569
1570470264.768518,70583.750,11745,8,AX,1,100,-0.576
1570470264.785270,70596.875,11745,8,AX,1,100,-0.565
1570470264.802023,70610.000,11745,8,AX,1,100,-0.563
1570470264.818456,70622.875,11763,8,AX,1,100,-0.559
1570470264.834890,70635.750,11763,8,AX,1,100,-0.558
1570470264.851323,70648.625,11763,8,AX,1,100,-0.555
1570470264.867757,70661.500,11763,8,AX,1,100,-0.559
1570470264.884190,70674.375,11763,8,AX,1,100,-0.559
1570470264.900623,70687.250,11763,8,AX,1,100,-0.573
1570470264.917057,70700.125,11763,8,AX,1,100,-0.567
1570470264.933490,70713.000,11763,8,AX,1,100,-0.567
1570470264.950402,70726.250,11781,8,AX,1,100,-0.578
1570470264.967314,70739.500,11781,8,AX,1,100,-0.569
1570470264.984226,70752.750,11781,8,AX,1,100,-0.572
1570470265.001138,70766.000,11781,8,AX,1,100,-0.591
1570470265.018050,70779.250,11781,8,AX,1,100,-0.596
1570470265.034962,70792.500,11781,8,AX,1,100,-0.586
1570470265.051875,70805.750,11781,8,AX,1,100,-0.570
1570470265.068787,70819.000,11781,8,AX,1,100,-0.573
1570470265.085562,70832.143,11799,7,AX,1,100,-0.574
1570470265.102337,70845.286,11799,7,AX,1,100,-0.573
1570470265.119112,70858.429,11799,7,AX,1,100,-0.587
1570470265.135888,70871.571,11799,7,AX,1,100,-0.592
1570470265.152663,70884.714,11799,7,AX,1,100,-0.588
1570470265.169438,70897.857,11799,7,AX,1,100,-0.586
1570470265.186214,70911.000,11799,7,AX,1,100,-0.590
1570470265.202966,70924.125,11817,8,AX,1,100,-0.587
1570470265.219719,70937.250,11817,8,AX,1,100,-0.582
1570470265.236471,70950.375,11817,8,AX,1,100,-0.578
1570470265.253224,70963.500,11817,8,AX,1,100,-0.584
1570470265.269976,70976.625,11817,8,AX,1,100,-0.588
1570470265.286729,70989.750,11817,8,AX,1,100,-0.577
1570470265.303481,71002.875,11817,8,AX,1,100,-0.574
1570470265.320234,71016.000,11817,8,AX,1,100,-0.572
1570470265.337146,71029.250,11835,8,AX,1,100,-0.572
1570470265.354058,71042.500,11835,8,AX,1,100,-0.572
1570470265.370970,71055.750,11835,8,AX,1,100,-0.577
1570470265.387882,71069.000,11835,8,AX,1,100,-0.573
1570470265.404794,71082.250,11835,8,AX,1,100,-0.569
1570470265.421706,71095.500,11835,8,AX,1,100,-0.569
1570470265.438618,71108.750,11835,8,AX,1,100,-0.572
1570470265.455530,71122.000,11835,8,AX,1,100,-0.581
1570470265.472229,71135.083,11856,12,AX,1,100,-0.580
1570470265.488929,71148.167,11856,12,AX,1,100,-0.579
1570470265.505628,71161.250,11856,12,AX,1,100,-0.574
1570470265.522327,71174.333,11856,12,AX,1,100,-0.576
1570470265.539027,71187.417,11856,12,AX,1,100,-0.569
1570470265.555726,71200.500,11856,12,AX,1,100,-0.568
1570470265.572426,71213.583,11856,12,AX,1,100,-0.579
1570470265.589125,71226.667,11856,12,AX,1,100,-0.576
1570470265.605824,71239.750,11856,12,AX,1,100,-0.576
1570470265.622524,71252.833,11856,12,AX,1,100,-0.583
1570470265.639223,71265.917,11856,12,AX,1,100,-0.589
1570470265.655922,71279.000,11856,12,AX,1,100,-0.587
1570470265.672196,71291.750,11877,8,AX,1,100,-0.578
1570470265.688470,71304.500,11877,8,AX,1,100,-0.588
1570470265.704744,71317.250,11877,8,AX,1,100,-0.595
1570470265.721018,71330.000,11877,8,AX,1,100,-0.584
1570470265.737291,71342.750,11877,8,AX,1,100,-0.582
1570470265.753565,71355.500,11877,8,AX,1,100,-0.585
1570470265.769839,71368.250,11877,8,AX,1,100,-0.568
1570470265.786113,71381.000,11877,8,AX,1,100,-0.572
1570470265.802547,71393.875,11895,8,AX,1,100,-0.564
1570470265.818980,71406.750,11895,8,AX,1,100,-0.566
1570470265.835413,71419.625,11895,8,AX,1,100,-0.568
1570470265.851847,71432.500,11895,8,AX,1,100,-0.573
1570470265.868280,71445.375,11895,8,AX,1,100,-0.567
1570470265.884713,71458.250,11895,8,AX,1,100,-0.571
1570470265.901147,71471.125,11895,8,AX,1,100,-0.568
1570470265.917580,71484.000,11895,8,AX,1,100,-0.574
1570470265.933991,71496.857,11913,7,AX,1,100,-0.576
1570470265.950402,71509.714,11913,7,AX,1,100,-0.592
1570470265.966812,71522.571,11913,7,AX,1,100,-0.595
1570470265.983223,71535.429,11913,7,AX,1,100,-0.578
1570470265.999634,71548.286,11913,7,AX,1,100,-0.585
1570470266.016044,71561.143,11913,7,AX,1,100,-0.580
1570470266.032455,71574.000,11913,7,AX,1,100,-0.583
1570470266.049048,71587.000,11931,8,AX,1,100,-0.587
1570470266.065641,71600.000,11931,8,AX,1,100,-0.588
1570470266.082234,71613.000,11931,8,AX,1,100,-0.590
1570470266.098826,71626.000,11931,8,AX,1,100,-0.580
1570470266.115419,71639.000,11931,8,AX,1,100,-0.581
1570470266.132012,71652.000,11931,8,AX,1,100,-0.584
1570470266.148605,71665.000,11931,8,AX,1,100,-0.583
1570470266.165198,71678.000,11931,8,AX,1,100,-0.582
1570470266.181472,71690.750,11949,8,AX,1,100,-0.581
1570470266.197746,71703.500,11949,8,AX,1,100,-0.578
1570470266.214020,71716.250,11949,8,AX,1,100,-0.581
1570470266.230294,71729.000,11949,8,AX,1,100,-0.578
1570470266.246568,71741.750,11949,8,AX,1,100,-0.572
1570470266.262841,71754.500,11949,8,AX,1,100,-0.570
1570470266.279115,71767.250,11949,8,AX,1,100,-0.573
1570470266.295389,71780.000,11949,8,AX,1,100,-0.572
1570470266.312142,71793.125,11967,8,AX,1,100,-0.574
1570470266.328894,71806.250,11967,8,AX,1,100,-0.577
1570470266.345647,71819.375,11967,8,AX,1,100,-0.578
1570470266.362399,71832.500,11967,8,AX,1,100,-0.590
1570470266.379152,71845.625,11967,8,AX,1,100,-0.585
1570470266.395904,71858.750,11967,8,AX,1,100,-0.583
1570470266.412657,71871.875,11967,8,AX,1,100,-0.587
1570470266.429409,71885.000,11967,8,AX,1,100,-0.589
1570470266.446162,71898.125,11985,8,AX,1,100,-0.592
1570470266.462914,71911.250,11985,8,AX,1,100,-0.595
1570470266.479667,71924.375,11985,8,AX,1,100,-0.583
1570470266.496419,71937.500,11985,8,AX,1,100,-0.576
1570470266.513172,71950.625,11985,8,AX,1,100,-0.568
1570470266.529924,71963.750,11985,8,AX,1,100,-0.584
1570470266.546677,71976.875,11985,8,AX,1,100,-0.586
1570470266.563429,71990.000,11985,8,AX,1,100,-0.583
1570470266.580205,72003.143,12003,7,AX,1,100,-0.572
1570470266.596980,72016.286,12003,7,AX,1,100,-0.565
1570470266.613755,72029.429,12003,7,AX,1,100,-0.552
1570470266.630531,72042.571,12003,7,AX,1,100,-0.562
1570470266.647306,72055.714,12003,7,AX,1,100,-0.584
1570470266.664081,72068.857,12003,7,AX,1,100,-0.598
1570470266.680856,72082.000,12003,7,AX,1,100,-0.598
1570470266.697449,72095.000,12022,8,AX,1,100,-0.583
1570470266.714042,72108.000,12022,8,AX,1,100,-0.565
1570470266.730635,72121.000,12022,8,AX,1,100,-0.569
1570470266.747228,72134.000,12022,8,AX,1,100,-0.581
1570470266.763821,72147.000,12022,8,AX,1,100,-0.597
1570470266.780414,72160.000,12022,8,AX,1,100,-0.601
1570470266.797007,72173.000,12022,8,AX,1,100,-0.597
1570470266.813600,72186.000,12022,8,AX,1,100,-0.574
1570470266.830353,72199.125,12040,8,AX,1,100,-0.565
1570470266.847105,72212.250,12040,8,AX,1,100,-0.562
1570470266.863858,72225.375,12040,8,AX,1,100,-0.570
1570470266.880610,72238.500,12040,8,AX,1,100,-0.575
1570470266.897363,72251.625,12040,8,AX,1,100,-0.582
1570470266.914115,72264.750,12040,8,AX,1,100,-0.571
1570470266.930868,72277.875,12040,8,AX,1,100,-0.572
1570470266.947620,72291.000,12040,8,AX,1,100,-0.560
1570470266.964031,72303.857,12057,7,AX,1,100,-0.551
1570470266.980442,72316.714,12057,7,AX,1,100,-0.541
1570470266.996852,72329.571,12057,7,AX,1,100,-0.560
1570470267.013263,72342.429,12057,7,AX,1,100,-0.583
1570470267.029673,72355.286,12057,7,AX,1,100,-0.585
1570470267.046084,72368.143,12057,7,AX,1,100,-0.582
1570470267.062495,72381.000,12057,7,AX,1,100,-0.573
1570470267.079087,72394.000,12075,8,AX,1,100,-0.564
1570470267.095680,72407.000,12075,8,AX,1,100,-0.528
1570470267.112273,72420.000,12075,8,AX,1,100,-0.530
1570470267.128866,72433.000,12075,8,AX,1,100,-0.523
1570470267.145459,72446.000,12075,8,AX,1,100,-0.571
1570470267.162052,72459.000,12075,8,AX,1,100,-0.603
1570470267.178645,72472.000,12075,8,AX,1,100,-0.630
1570470267.195238,72485.000,12075,8,AX,1,100,-0.641
1570470267.211831,72498.000,12093,8,AX,1,100,-0.665
1570470267.228424,72511.000,12093,8,AX,1,100,-0.680
1570470267.245017,72524.000,12093,8,AX,1,100,-0.686
1570470267.261610,72537.000,12093,8,AX,1,100,-0.677
1570470267.278203,72550.000,12093,8,AX,1,100,-0.669
1570470267.294796,72563.000,12093,8,AX,1,100,-0.647
1570470267.311389,72576.000,12093,8,AX,1,100,-0.609
1570470267.327982,72589.000,12093,8,AX,1,100,-0.587
1570470267.344894,72602.250,12111,8,AX,1,100,-0.573
1570470267.361806,72615.500,12111,8,AX,1,100,-0.559
1570470267.378718,72628.750,12111,8,AX,1,100,-0.534
1570470267.395630,72642.000,12111,8,AX,1,100,-0.522
1570470267.412542,72655.250,12111,8,AX,1,100,-0.504
1570470267.429454,72668.500,12111,8,AX,1,100,-0.492
1570470267.446366,72681.750,12111,8,AX,1,100,-0.490
1570470267.463278,72695.000,12111,8,AX,1,100,-0.523
1570470267.480054,72708.143,12129,7,AX,1,100,-0.562
1570470267.496829,72721.286,12129,7,AX,1,100,-0.566
1570470267.513604,72734.429,12129,7,AX,1,100,-0.576
1570470267.530380,72747.571,12129,7,AX,1,100,-0.582
1570470267.547155,72760.714,12129,7,AX,1,100,-0.574
1570470267.563930,72773.857,12129,7,AX,1,100,-0.581
1570470267.580705,72787.000,12129,7,AX,1,100,-0.564
1570470267.597777,72800.375,12147,8,AX,1,100,-0.570
1570470267.614849,72813.750,12147,8,AX,1,100,-0.571
1570470267.631920,72827.125,12147,8,AX,1,100,-0.571
1570470267.648992,72840.500,12147,8,AX,1,100,-0.572
1570470267.666064,72853.875,12147,8,AX,1,100,-0.558
1570470267.683135,72867.250,12147,8,AX,1,100,-0.557
1570470267.700207,72880.625,12147,8,AX,1,100,-0.558
1570470267.717278,72894.000,12147,8,AX,1,100,-0.557
1570470267.733871,72907.000,12164,7,AX,1,100,-0.557
1570470267.750464,72920.000,12164,7,AX,1,100,-0.561
1570470267.767057,72933.000,12164,7,AX,1,100,-0.557
1570470267.783650,72946.000,12164,7,AX,1,100,-0.554
1570470267.800243,72959.000,12164,7,AX,1,100,-0.558
1570470267.816836,72972.000,12164,7,AX,1,100,-0.570
1570470267.833429,72985.000,12164,7,AX,1,100,-0.569
1570470267.850182,72998.125,12182,8,AX,1,100,-0.594
1570470267.866934,73011.250,12182,8,AX,1,100,-0.596
1570470267.883687,73024.375,12182,8,AX,1,100,-0.590
1570470267.900439,73037.500,12182,8,AX,1,100,-0.595
1570470267.917192,73050.625,12182,8,AX,1,100,-0.605
1570470267.933944,73063.750,12182,8,AX,1,100,-0.606
1570470267.950696,73076.875,12182,8,AX,1,100,-0.606
1570470267.967449,73090.000,12182,8,AX,1,100,-0.601
1570470267.984042,73103.000,12200,8,AX,1,100,-0.596
1570470268.000635,73116.000,12200,8,AX,1,100,-0.588
1570470268.017228,73129.000,12200,8,AX,1,100,-0.582
1570470268.033821,73142.000,12200,8,AX,1,100,-0.570
1570470268.050414,73155.000,12200,8,AX,1,100,-0.557
1570470268.067007,73168.000,12200,8,AX,1,100,-0.558
1570470268.083600,73181.000,12200,8,AX,1,100,-0.545
1570470268.100193,73194.000,12200,8,AX,1,100,-0.536
1570470268.116945,73207.125,12218,8,AX,1,100,-0.533
1570470268.133698,73220.250,12218,8,AX,1,100,-0.539
1570470268.150450,73233.375,12218,8,AX,1,100,-0.557
1570470268.167203,73246.500,12218,8,AX,1,100,-0.565
1570470268.183955,73259.625,12218,8,AX,1,100,-0.573
1570470268.200708,73272.750,12218,8,AX,1,100,-0.577
1570470268.217460,73285.875,12218,8,AX,1,100,-0.573
1570470268.234213,73299.000,12218,8,AX,1,100,-0.573
1570470268.250965,73312.125,12236,8,AX,1,100,-0.577
1570470268.267718,73325.250,12236,8,AX,1,100,-0.582
1570470268.284470,73338.375,12236,8,AX,1,100,-0.593
1570470268.301223,73351.500,12236,8,AX,1,100,-0.587
1570470268.317975,73364.625,12236,8,AX,1,100,-0.568
1570470268.334728,73377.750,12236,8,AX,1,100,-0.561
1570470268.351480,73390.875,12236,8,AX,1,100,-0.551
1570470268.368233,73404.000,12236,8,AX,1,100,-0.549
1570470268.385008,73417.143,12254,7,AX,1,100,-0.560
1570470268.401783,73430.286,12254,7,AX,1,100,-0.572
1570470268.418559,73443.429,12254,7,AX,1,100,-0.569
1570470268.435334,73456.571,12254,7,AX,1,100,-0.567
1570470268.452109,73469.714,12254,7,AX,1,100,-0.563
1570470268.468885,73482.857,12254,7,AX,1,100,-0.572
1570470268.485660,73496.000,12254,7,AX,1,100,-0.579
1570470268.502253,73509.000,12272,8,AX,1,100,-0.575
1570470268.518846,73522.000,12272,8,AX,1,100,-0.582
1570470268.535439,73535.000,12272,8,AX,1,100,-0.583
1570470268.552032,73548.000,12272,8,AX,1,100,-0.587
1570470268.568625,73561.000,12272,8,AX,1,100,-0.578
1570470268.585218,73574.000,12272,8,AX,1,100,-0.575
1570470268.601811,73587.000,12272,8,AX,1,100,-0.558
1570470268.618404,73600.000,12272,8,AX,1,100,-0.544
1570470268.635156,73613.125,12290,8,AX,1,100,-0.550
1570470268.651909,73626.250,12290,8,AX,1,100,-0.547
1570470268.668661,73639.375,12290,8,AX,1,100,-0.560
1570470268.685414,73652.500,12290,8,AX,1,100,-0.567
1570470268.702166,73665.625,12290,8,AX,1,100,-0.578
1570470268.718919,73678.750,12290,8,AX,1,100,-0.553
1570470268.735671,73691.875,12290,8,AX,1,100,-0.546
1570470268.752424,73705.000,12290,8,AX,1,100,-0.560
1570470268.769017,73718.000,12309,7,AX,1,100,-0.562
1570470268.785610,73731.000,12309,7,AX,1,100,-0.578
1570470268.802203,73744.000,12309,7,AX,1,100,-0.589
1570470268.818795,73757.000,12309,7,AX,1,100,-0.590
1570470268.835388,73770.000,12309,7,AX,1,100,-0.586
1570470268.851981,73783.000,12309,7,AX,1,100,-0.573
1570470268.868574,73796.000,12309,7,AX,1,100,-0.578
1570470268.885008,73808.875,12327,8,AX,1,100,-0.573
1570470268.901441,73821.750,12327,8,AX,1,100,-0.576
1570470268.917875,73834.625,12327,8,AX,1,100,-0.574
1570470268.934308,73847.500,12327,8,AX,1,100,-0.577
1570470268.950742,73860.375,12327,8,AX,1,100,-0.571
1570470268.967175,73873.250,12327,8,AX,1,100,-0.566
1570470268.983608,73886.125,12327,8,AX,1,100,-0.556
1570470269.000042,73899.000,12327,8,AX,1,100,-0.543
1570470269.016475,73911.875,12345,8,AX,1,100,-0.548
1570470269.032908,73924.750,12345,8,AX,1,100,-0.556
1570470269.049342,73937.625,12345,8,AX,1,100,-0.565
1570470269.065775,73950.500,12345,8,AX,1,100,-0.566
1570470269.082209,73963.375,12345,8,AX,1,100,-0.561
1570470269.098642,73976.250,12345,8,AX,1,100,-0.554
1570470269.115076,73989.125,12345,8,AX,1,100,-0.566
1570470269.131509,74002.000,12345,8,AX,1,100,-0.605
1570470269.147943,74014.875,12363,8,AX,1,100,-0.622
1570470269.164376,74027.750,12363,8,AX,1,100,-0.607
1570470269.180809,74040.625,12363,8,AX,1,100,-0.579
1570470269.197243,74053.500,12363,8,AX,1,100,-0.568
1570470269.213676,74066.375,12363,8,AX,1,100,-0.552
1570470269.230109,74079.250,12363,8,AX,1,100,-0.555
1570470269.246543,74092.125,12363,8,AX,1,100,-0.562
1570470269.262976,74105.000,12363,8,AX,1,100,-0.583
1570470269.279569,74118.000,12381,8,AX,1,100,-0.588
1570470269.296162,74131.000,12381,8,AX,1,100,-0.577
1570470269.312755,74144.000,12381,8,AX,1,100,-0.566
1570470269.329348,74157.000,12381,8,AX,1,100,-0.568
1570470269.345941,74170.000,12381,8,AX,1,100,-0.569
1570470269.362534,74183.000,12381,8,AX,1,100,-0.571
1570470269.379127,74196.000,12381,8,AX,1,100,-0.580
1570470269.395720,74209.000,12381,8,AX,1,100,-0.577
1570470269.412313,74222.000,12399,8,AX,1,100,-0.575
1570470269.428906,74235.000,12399,8,AX,1,100,-0.574
1570470269.445499,74248.000,12399,8,AX,1,100,-0.573
1570470269.462092,74261.000,12399,8,AX,1,100,-0.573
1570470269.478685,74274.000,12399,8,AX,1,100,-0.569
1570470269.495278,74287.000,12399,8,AX,1,100,-0.560
1570470269.511871,74300.000,12399,8,AX,1,100,-0.567
1570470269.528464,74313.000,12399,8,AX,1,100,-0.566
1570470269.545421,74326.286,12417,7,AX,1,100,-0.566
1570470269.562379,74339.571,12417,7,AX,1,100,-0.572
1570470269.579337,74352.857,12417,7,AX,1,100,-0.567
1570470269.596294,74366.143,12417,7,AX,1,100,-0.576
1570470269.613252,74379.429,12417,7,AX,1,100,-0.561
1570470269.630209,74392.714,12417,7,AX,1,100,-0.564
1570470269.647167,74406.000,12417,7,AX,1,100,-0.574
1570470269.663920,74419.125,12435,8,AX,1,100,-0.584
1570470269.680672,74432.250,12435,8,AX,1,100,-0.578
1570470269.697425,74445.375,12435,8,AX,1,100,-0.568
1570470269.714177,74458.500,12435,8,AX,1,100,-0.583
1570470269.730930,74471.625,12435,8,AX,1,100,-0.582
1570470269.747682,74484.750,12435,8,AX,1,100,-0.572
1570470269.764435,74497.875,12435,8,AX,1,100,-0.579
1570470269.781187,74511.000,12435,8,AX,1,100,-0.586
1570470269.797780,74524.000,12454,8,AX,1,100,-0.560
1570470269.814373,74537.000,12454,8,AX,1,100,-0.555
1570470269.830966,74550.000,12454,8,AX,1,100,-0.549
1570470269.847559,74563.000,12454,8,AX,1,100,-0.552
1570470269.864152,74576.000,12454,8,AX,1,100,-0.537
1570470269.880745,74589.000,12454,8,AX,1,100,-0.544
1570470269.897338,74602.000,12454,8,AX,1,100,-0.563
1570470269.913931,74615.000,12454,8,AX,1,100,-0.562
1570470269.930159,74627.714,12472,7,AX,1,100,-0.564
1570470269.946388,74640.429,12472,7,AX,1,100,-0.575
1570470269.962616,74653.143,12472,7,AX,1,100,-0.574
1570470269.978844,74665.857,12472,7,AX,1,100,-0.574
1570470269.995072,74678.571,12472,7,AX,1,100,-0.572
1570470270.011301,74691.286,12472,7,AX,1,100,-0.576
1570470270.027529,74704.000,12472,7,AX,1,100,-0.576
1570470270.044281,74717.125,12490,8,AX,1,100,-0.577
1570470270.061034,74730.250,12490,8,AX,1,100,-0.575
1570470270.077786,74743.375,12490,8,AX,1,100,-0.573
1570470270.094539,74756.500,12490,8,AX,1,100,-0.567
1570470270.111291,74769.625,12490,8,AX,1,100,-0.552
1570470270.128044,74782.750,12490,8,AX,1,100,-0.550
1570470270.144796,74795.875,12490,8,AX,1,100,-0.558
1570470270.161549,74809.000,12490,8,AX,1,100,-0.561
1570470270.177982,74821.875,12508,8,AX,1,100,-0.567
1570470270.194416,74834.750,12508,8,AX,1,100,-0.567
1570470270.210849,74847.625,12508,8,AX,1,100,-0.570
1570470270.227283,74860.500,12508,8,AX,1,100,-0.565
1570470270.243716,74873.375,12508,8,AX,1,100,-0.563
1570470270.260149,74886.250,12508,8,AX,1,100,-0.565
1570470270.276583,74899.125,12508,8,AX,1,100,-0.562
1570470270.293016,74912.000,12508,8,AX,1,100,-0.569
1570470270.309609,74925.000,12526,8,AX,1,100,-0.581
1570470270.326202,74938.000,12526,8,AX,1,100,-0.585
1570470270.342795,74951.000,12526,8,AX,1,100,-0.582
1570470270.359388,74964.000,12526,8,AX,1,100,-0.577
1570470270.375981,74977.000,12526,8,AX,1,100,-0.573
1570470270.392574,74990.000,12526,8,AX,1,100,-0.579
1570470270.409167,75003.000,12526,8,AX,1,100,-0.590
1570470270.425760,75016.000,12526,8,AX,1,100,-0.582
1570470270.442513,75029.125,12544,8,AX,1,100,-0.574
1570470270.459265,75042.250,12544,8,AX,1,100,-0.564
1570470270.476017,75055.375,12544,8,AX,1,100,-0.563
1570470270.492770,75068.500,12544,8,AX,1,100,-0.566
1570470270.509522,75081.625,12544,8,AX,1,100,-0.570
1570470270.526275,75094.750,12544,8,AX,1,100,-0.569
1570470270.543027,75107.875,12544,8,AX,1,100,-0.566
1570470270.559780,75121.000,12544,8,AX,1,100,-0.571
1570470270.576738,75134.286,12562,7,AX,1,100,-0.578
1570470270.593695,75147.571,12562,7,AX,1,100,-0.579
1570470270.610653,75160.857,12562,7,AX,1,100,-0.573
1570470270.627610,75174.143,12562,7,AX,1,100,-0.569
1570470270.644568,75187.429,12562,7,AX,1,100,-0.577
1570470270.661526,75200.714,12562,7,AX,1,100,-0.573
1570470270.678483,75214.000,12562,7,AX,1,100,-0.578
1570470270.695236,75227.125,12580,8,AX,1,100,-0.593
1570470270.711988,75240.250,12580,8,AX,1,100,-0.585
1570470270.728741,75253.375,12580,8,AX,1,100,-0.580
1570470270.745493,75266.500,12580,8,AX,1,100,-0.569
1570470270.762246,75279.625,12580,8,AX,1,100,-0.570
1570470270.778998,75292.750,12580,8,AX,1,100,-0.574
1570470270.795751,75305.875,12580,8,AX,1,100,-0.571
1570470270.812504,75319.000,12580,8,AX,1,100,-0.574
1570470270.829256,75332.125,12598,8,AX,1,100,-0.580
1570470270.846009,75345.250,12598,8,AX,1,100,-0.569
1570470270.862761,75358.375,12598,8,AX,1,100,-0.562
1570470270.879514,75371.500,12598,8,AX,1,100,-0.555
1570470270.896266,75384.625,12598,8,AX,1,100,-0.562
1570470270.913018,75397.750,12598,8,AX,1,100,-0.565
1570470270.929771,75410.875,12598,8,AX,1,100,-0.583
1570470270.946524,75424.000,12598,8,AX,1,100,-0.597
1570470270.963116,75437.000,12616,7,AX,1,100,-0.596
1570470270.979709,75450.000,12616,7,AX,1,100,-0.584
1570470270.996302,75463.000,12616,7,AX,1,100,-0.576
1570470271.012895,75476.000,12616,7,AX,1,100,-0.573
1570470271.029488,75489.000,12616,7,AX,1,100,-0.586
1570470271.046081,75502.000,12616,7,AX,1,100,-0.596
1570470271.062674,75515.000,12616,7,AX,1,100,-0.594
1570470271.079427,75528.125,12634,8,AX,1,100,-0.572
1570470271.096179,75541.250,12634,8,AX,1,100,-0.567
1570470271.112932,75554.375,12634,8,AX,1,100,-0.567
1570470271.129684,75567.500,12634,8,AX,1,100,-0.566
1570470271.146437,75580.625,12634,8,AX,1,100,-0.568
1570470271.163189,75593.750,12634,8,AX,1,100,-0.567
1570470271.179942,75606.875,12634,8,AX,1,100,-0.566
1570470271.196694,75620.000,12634,8,AX,1,100,-0.566
1570470271.213128,75632.875,12652,8,AX,1,100,-0.571
1570470271.229561,75645.750,12652,8,AX,1,100,-0.574
1570470271.245995,75658.625,12652,8,AX,1,100,-0.570
1570470271.262428,75671.500,12652,8,AX,1,100,-0.565
1570470271.278861,75684.375,12652,8,AX,1,100,-0.565
1570470271.295295,75697.250,12652,8,AX,1,100,-0.565
1570470271.311728,75710.125,12652,8,AX,1,100,-0.567
1570470271.328162,75723.000,12652,8,AX,1,100,-0.574
1570470271.345484,75736.571,12670,7,AX,1,100,-0.583
1570470271.362806,75750.143,12670,7,AX,1,100,-0.587
1570470271.380129,75763.714,12670,7,AX,1,100,-0.585
1570470271.397451,75777.286,12670,7,AX,1,100,-0.578
1570470271.414773,75790.857,12670,7,AX,1,100,-0.575
1570470271.432096,75804.429,12670,7,AX,1,100,-0.579
1570470271.449418,75818.000,12670,7,AX,1,100,-0.571
1570470271.465851,75830.875,12688,8,AX,1,100,-0.559
1570470271.482285,75843.750,12688,8,AX,1,100,-0.555
1570470271.498718,75856.625,12688,8,AX,1,100,-0.573
1570470271.515152,75869.500,12688,8,AX,1,100,-0.586
1570470271.531585,75882.375,12688,8,AX,1,100,-0.585
1570470271.548018,75895.250,12688,8,AX,1,100,-0.600
1570470271.564452,75908.125,12688,8,AX,1,100,-0.598
1570470271.580885,75921.000,12688,8,AX,1,100,-0.587
1570470271.597638,75934.125,12706,8,AX,1,100,-0.574
1570470271.614390,75947.250,12706,8,AX,1,100,-0.574
1570470271.631143,75960.375,12706,8,AX,1,100,-0.578
1570470271.647895,75973.500,12706,8,AX,1,100,-0.578
1570470271.664648,75986.625,12706,8,AX,1,100,-0.578
1570470271.681400,75999.750,12706,8,AX,1,100,-0.558
1570470271.698153,76012.875,12706,8,AX,1,100,-0.536
1570470271.714905,76026.000,12706,8,AX,1,100,-0.531
1570470271.731498,76039.000,12722,7,AX,1,100,-0.535
1570470271.748091,76052.000,12722,7,AX,1,100,-0.558
1570470271.764684,76065.000,12722,7,AX,1,100,-0.561
1570470271.781277,76078.000,12722,7,AX,1,100,-0.563
1570470271.797870,76091.000,12722,7,AX,1,100,-0.560
1570470271.814463,76104.000,12722,7,AX,1,100,-0.560
1570470271.831056,76117.000,12722,7,AX,1,100,-0.564
1570470271.847808,76130.125,12741,8,AX,1,100,-0.572
1570470271.864561,76143.250,12741,8,AX,1,100,-0.575
1570470271.881314,76156.375,12741,8,AX,1,100,-0.585
1570470271.898066,76169.500,12741,8,AX,1,100,-0.585
1570470271.914819,76182.625,12741,8,AX,1,100,-0.581
1570470271.931571,76195.750,12741,8,AX,1,100,-0.577
1570470271.948323,76208.875,12741,8,AX,1,100,-0.579
1570470271.965076,76222.000,12741,8,AX,1,100,-0.587
1570470271.981571,76234.923,12762,13,AX,1,100,-0.595
1570470271.998065,76247.846,12762,13,AX,1,100,-0.594
1570470272.014560,76260.769,12762,13,AX,1,100,-0.586
1570470272.031055,76273.692,12762,13,AX,1,100,-0.578
1570470272.047550,76286.615,12762,13,AX,1,100,-0.570
1570470272.064045,76299.538,12762,13,AX,1,100,-0.573
1570470272.080539,76312.462,12762,13,AX,1,100,-0.588
1570470272.097034,76325.385,12762,13,AX,1,100,-0.585
1570470272.113529,76338.308,12762,13,AX,1,100,-0.566
1570470272.130024,76351.231,12762,13,AX,1,100,-0.562
1570470272.146518,76364.154,12762,13,AX,1,100,-0.564
1570470272.163013,76377.077,12762,13,AX,1,100,-0.548
1570470272.179508,76390.000,12762,13,AX,1,100,-0.548
1570470272.195736,76402.714,12782,7,AX,1,100,-0.566
1570470272.211965,76415.429,12782,7,AX,1,100,-0.574
1570470272.228193,76428.143,12782,7,AX,1,100,-0.566
1570470272.244421,76440.857,12782,7,AX,1,100,-0.576
1570470272.260649,76453.571,12782,7,AX,1,100,-0.579
1570470272.276878,76466.286,12782,7,AX,1,100,-0.574
1570470272.293106,76479.000,12782,7,AX,1,100,-0.571
1570470272.309699,76492.000,12800,8,AX,1,100,-0.583
1570470272.326292,76505.000,12800,8,AX,1,100,-0.593
1570470272.342885,76518.000,12800,8,AX,1,100,-0.586
1570470272.359478,76531.000,12800,8,AX,1,100,-0.578
1570470272.376071,76544.000,12800,8,AX,1,100,-0.580
1570470272.392664,76557.000,12800,8,AX,1,100,-0.566
1570470272.409257,76570.000,12800,8,AX,1,100,-0.573
1570470272.425850,76583.000,12800,8,AX,1,100,-0.572
1570470272.442443,76596.000,12818,8,AX,1,100,-0.584
1570470272.459036,76609.000,12818,8,AX,1,100,-0.573
1570470272.475629,76622.000,12818,8,AX,1,100,-0.574
1570470272.492222,76635.000,12818,8,AX,1,100,-0.571
1570470272.508815,76648.000,12818,8,AX,1,100,-0.566
1570470272.525408,76661.000,12818,8,AX,1,100,-0.567
1570470272.542001,76674.000,12818,8,AX,1,100,-0.568
1570470272.558594,76687.000,12818,8,AX,1,100,-0.568
1570470272.575186,76700.000,12836,8,AX,1,100,-0.576
1570470272.591779,76713.000,12836,8,AX,1,100,-0.579
1570470272.608372,76726.000,12836,8,AX,1,100,-0.575
1570470272.624965,76739.000,12836,8,AX,1,100,-0.565
1570470272.641558,76752.000,12836,8,AX,1,100,-0.568
1570470272.658151,76765.000,12836,8,AX,1,100,-0.570
1570470272.674744,76778.000,12836,8,AX,1,100,-0.567
1570470272.691337,76791.000,12836,8,AX,1,100,-0.578
1570470272.708090,76804.125,12854,8,AX,1,100,-0.583
1570470272.724842,76817.250,12854,8,AX,1,100,-0.575
1570470272.741595,76830.375,12854,8,AX,1,100,-0.566
1570470272.758347,76843.500,12854,8,AX,1,100,-0.559
1570470272.775100,76856.625,12854,8,AX,1,100,-0.571
1570470272.791852,76869.750,12854,8,AX,1,100,-0.573
1570470272.808605,76882.875,12854,8,AX,1,100,-0.571
1570470272.825357,76896.000,12854,8,AX,1,100,-0.583
1570470272.842133,76909.143,12873,7,AX,1,100,-0.583
1570470272.858908,76922.286,12873,7,AX,1,100,-0.580
1570470272.875683,76935.429,12873,7,AX,1,100,-0.578
1570470272.892458,76948.571,12873,7,AX,1,100,-0.574
1570470272.909234,76961.714,12873,7,AX,1,100,-0.560
1570470272.926009,76974.857,12873,7,AX,1,100,-0.553
1570470272.942784,76988.000,12873,7,AX,1,100,-0.555
1570470272.959537,77001.125,12891,8,AX,1,100,-0.552
1570470272.976289,77014.250,12891,8,AX,1,100,-0.572
1570470272.993042,77027.375,12891,8,AX,1,100,-0.581
1570470273.009794,77040.500,12891,8,AX,1,100,-0.585
1570470273.026547,77053.625,12891,8,AX,1,100,-0.594
1570470273.043299,77066.750,12891,8,AX,1,100,-0.585
1570470273.060052,77079.875,12891,8,AX,1,100,-0.590
1570470273.076804,77093.000,12891,8,AX,1,100,-0.601
1570470273.093238,77105.875,12909,8,AX,1,100,-0.601
1570470273.109671,77118.750,12909,8,AX,1,100,-0.591
1570470273.126105,77131.625,12909,8,AX,1,100,-0.585
1570470273.142538,77144.500,12909,8,AX,1,100,-0.575
1570470273.158971,77157.375,12909,8,AX,1,100,-0.561
1570470273.175405,77170.250,12909,8,AX,1,100,-0.557
1570470273.191838,77183.125,12909,8,AX,1,100,-0.555
1570470273.208272,77196.000,12909,8,AX,1,100,-0.546
1570470273.224864,77209.000,12926,7,AX,1,100,-0.543
1570470273.241457,77222.000,12926,7,AX,1,100,-0.555
1570470273.258050,77235.000,12926,7,AX,1,100,-0.563
1570470273.274643,77248.000,12926,7,AX,1,100,-0.564
1570470273.291236,77261.000,12926,7,AX,1,100,-0.579
1570470273.307829,77274.000,12926,7,AX,1,100,-0.586
1570470273.324422,77287.000,12926,7,AX,1,100,-0.585
1570470273.341015,77300.000,12944,8,AX,1,100,-0.570
1570470273.357608,77313.000,12944,8,AX,1,100,-0.574
1570470273.374201,77326.000,12944,8,AX,1,100,-0.575
1570470273.390794,77339.000,12944,8,AX,1,100,-0.587
1570470273.407387,77352.000,12944,8,AX,1,100,-0.584
1570470273.423980,77365.000,12944,8,AX,1,100,-0.585
1570470273.440573,77378.000,12944,8,AX,1,100,-0.582
1570470273.457166,77391.000,12944,8,AX,1,100,-0.580
1570470273.473759,77404.000,12962,8,AX,1,100,-0.584
1570470273.490352,77417.000,12962,8,AX,1,100,-0.577
1570470273.506945,77430.000,12962,8,AX,1,100,-0.574
1570470273.523538,77443.000,12962,8,AX,1,100,-0.571
1570470273.540131,77456.000,12962,8,AX,1,100,-0.578
1570470273.556724,77469.000,12962,8,AX,1,100,-0.572
1570470273.573317,77482.000,12962,8,AX,1,100,-0.574
1570470273.589910,77495.000,12962,8,AX,1,100,-0.575
1570470273.606662,77508.125,12980,8,AX,1,100,-0.574
1570470273.623415,77521.250,12980,8,AX,1,100,-0.569
1570470273.640167,77534.375,12980,8,AX,1,100,-0.573
1570470273.656920,77547.500,12980,8,AX,1,100,-0.581
1570470273.673672,77560.625,12980,8,AX,1,100,-0.581
1570470273.690425,77573.750,12980,8,AX,1,100,-0.575
1570470273.707177,77586.875,12980,8,AX,1,100,-0.570
1570470273.723930,77600.000,12980,8,AX,1,100,-0.575
1570470273.741070,77613.429,12998,7,AX,1,100,-0.580
1570470273.758210,77626.857,12998,7,AX,1,100,-0.591
1570470273.775350,77640.286,12998,7,AX,1,100,-0.586
1570470273.792490,77653.714,12998,7,AX,1,100,-0.586
1570470273.809630,77667.143,12998,7,AX,1,100,-0.578
1570470273.826770,77680.571,12998,7,AX,1,100,-0.582
1570470273.843910,77694.000,12998,7,AX,1,100,-0.567
1570470273.860502,77707.000,13017,8,AX,1,100,-0.573
1570470273.877095,77720.000,13017,8,AX,1,100,-0.568
1570470273.893688,77733.000,13017,8,AX,1,100,-0.561
1570470273.910281,77746.000,13017,8,AX,1,100,-0.568
1570470273.926874,77759.000,13017,8,AX,1,100,-0.557
1570470273.943467,77772.000,13017,8,AX,1,100,-0.560
1570470273.960060,77785.000,13017,8,AX,1,100,-0.565
1570470273.976653,77798.000,13017,8,AX,1,100,-0.573
1570470273.993565,77811.250,13035,8,AX,1,100,-0.580
1570470274.010477,77824.500,13035,8,AX,1,100,-0.594
1570470274.027390,77837.750,13035,8,AX,1,100,-0.584
1570470274.044302,77851.000,13035,8,AX,1,100,-0.583
1570470274.061213,77864.250,13035,8,AX,1,100,-0.571
1570470274.078126,77877.500,13035,8,AX,1,100,-0.586
1570470274.095038,77890.750,13035,8,AX,1,100,-0.589
1570470274.111950,77904.000,13035,8,AX,1,100,-0.602
1570470274.128543,77917.000,13051,7,AX,1,100,-0.591
1570470274.145136,77930.000,13051,7,AX,1,100,-0.573
1570470274.161729,77943.000,13051,7,AX,1,100,-0.559
1570470274.178322,77956.000,13051,7,AX,1,100,-0.553
1570470274.194915,77969.000,13051,7,AX,1,100,-0.559
1570470274.211508,77982.000,13051,7,AX,1,100,-0.553
1570470274.228101,77995.000,13051,7,AX,1,100,-0.551
1570470274.244853,78008.125,13069,8,AX,1,100,-0.574
1570470274.261606,78021.250,13069,8,AX,1,100,-0.585
1570470274.278358,78034.375,13069,8,AX,1,100,-0.588
1570470274.295110,78047.500,13069,8,AX,1,100,-0.581
1570470274.311863,78060.625,13069,8,AX,1,100,-0.568
1570470274.328615,78073.750,13069,8,AX,1,100,-0.567
1570470274.345368,78086.875,13069,8,AX,1,100,-0.601
1570470274.362121,78100.000,13069,8,AX,1,100,-0.612
1570470274.378713,78113.000,13087,8,AX,1,100,-0.604
1570470274.395306,78126.000,13087,8,AX,1,100,-0.586
1570470274.411899,78139.000,13087,8,AX,1,100,-0.583
1570470274.428492,78152.000,13087,8,AX,1,100,-0.582
1570470274.445085,78165.000,13087,8,AX,1,100,-0.583
1570470274.461678,78178.000,13087,8,AX,1,100,-0.585
1570470274.478271,78191.000,13087,8,AX,1,100,-0.585
1570470274.494864,78204.000,13087,8,AX,1,100,-0.582
1570470274.511617,78217.125,13105,8,AX,1,100,-0.560
1570470274.528369,78230.250,13105,8,AX,1,100,-0.562
1570470274.545122,78243.375,13105,8,AX,1,100,-0.578
1570470274.561874,78256.500,13105,8,AX,1,100,-0.579
1570470274.578627,78269.625,13105,8,AX,1,100,-0.580
1570470274.595379,78282.750,13105,8,AX,1,100,-0.587
1570470274.612132,78295.875,13105,8,AX,1,100,-0.592
1570470274.628884,78309.000,13105,8,AX,1,100,-0.580
1570470274.645659,78322.143,13123,7,AX,1,100,-0.574
1570470274.662435,78335.286,13123,7,AX,1,100,-0.576
1570470274.679210,78348.429,13123,7,AX,1,100,-0.580
1570470274.695986,78361.571,13123,7,AX,1,100,-0.575
1570470274.712761,78374.714,13123,7,AX,1,100,-0.575
1570470274.729536,78387.857,13123,7,AX,1,100,-0.583
1570470274.746311,78401.000,13123,7,AX,1,100,-0.574
1570470274.763064,78414.125,13141,8,AX,1,100,-0.572
1570470274.779816,78427.250,13141,8,AX,1,100,-0.577
1570470274.796569,78440.375,13141,8,AX,1,100,-0.580
1570470274.813321,78453.500,13141,8,AX,1,100,-0.576
1570470274.830074,78466.625,13141,8,AX,1,100,-0.582
1570470274.846826,78479.750,13141,8,AX,1,100,-0.587
1570470274.863579,78492.875,13141,8,AX,1,100,-0.590
1570470274.880332,78506.000,13141,8,AX,1,100,-0.567
1570470274.896924,78519.000,13160,8,AX,1,100,-0.568
1570470274.913517,78532.000,13160,8,AX,1,100,-0.576
1570470274.930110,78545.000,13160,8,AX,1,100,-0.571
1570470274.946703,78558.000,13160,8,AX,1,100,-0.572
1570470274.963296,78571.000,13160,8,AX,1,100,-0.579
1570470274.979889,78584.000,13160,8,AX,1,100,-0.579
1570470274.996482,78597.000,13160,8,AX,1,100,-0.580
1570470275.013075,78610.000,13160,8,AX,1,100,-0.578
1570470275.029668,78623.000,13178,7,AX,1,100,-0.582
1570470275.046261,78636.000,13178,7,AX,1,100,-0.587
1570470275.062854,78649.000,13178,7,AX,1,100,-0.584
1570470275.079447,78662.000,13178,7,AX,1,100,-0.589
1570470275.096040,78675.000,13178,7,AX,1,100,-0.588
1570470275.112633,78688.000,13178,7,AX,1,100,-0.588
1570470275.129226,78701.000,13178,7,AX,1,100,-0.584
1570470275.145659,78713.875,13196,8,AX,1,100,-0.567
1570470275.162093,78726.750,13196,8,AX,1,100,-0.553
1570470275.178526,78739.625,13196,8,AX,1,100,-0.557
1570470275.194959,78752.500,13196,8,AX,1,100,-0.563
1570470275.211393,78765.375,13196,8,AX,1,100,-0.574
1570470275.227826,78778.250,13196,8,AX,1,100,-0.574
1570470275.244260,78791.125,13196,8,AX,1,100,-0.567
1570470275.260693,78804.000,13196,8,AX,1,100,-0.576
1570470275.277286,78817.000,13214,8,AX,1,100,-0.585
1570470275.293879,78830.000,13214,8,AX,1,100,-0.583
1570470275.310472,78843.000,13214,8,AX,1,100,-0.568
1570470275.327065,78856.000,13214,8,AX,1,100,-0.575
1570470275.343658,78869.000,13214,8,AX,1,100,-0.591
1570470275.360251,78882.000,13214,8,AX,1,100,-0.584
1570470275.376844,78895.000,13214,8,AX,1,100,-0.569
1570470275.393437,78908.000,13214,8,AX,1,100,-0.591
1570470275.409870,78920.875,13232,8,AX,1,100,-0.597
1570470275.426304,78933.750,13232,8,AX,1,100,-0.588
1570470275.442737,78946.625,13232,8,AX,1,100,-0.579
1570470275.459170,78959.500,13232,8,AX,1,100,-0.583
1570470275.475604,78972.375,13232,8,AX,1,100,-0.572
1570470275.492037,78985.250,13232,8,AX,1,100,-0.572
1570470275.508471,78998.125,13232,8,AX,1,100,-0.569
1570470275.524904,79011.000,13232,8,AX,1,100,-0.589
1570470275.541337,79023.875,13250,8,AX,1,100,-0.581
1570470275.557771,79036.750,13250,8,AX,1,100,-0.573
1570470275.574204,79049.625,13250,8,AX,1,100,-0.575
1570470275.590638,79062.500,13250,8,AX,1,100,-0.565
1570470275.607071,79075.375,13250,8,AX,1,100,-0.558
1570470275.623505,79088.250,13250,8,AX,1,100,-0.565
1570470275.639938,79101.125,13250,8,AX,1,100,-0.588
1570470275.656371,79114.000,13250,8,AX,1,100,-0.580
1570470275.673511,79127.429,13268,7,AX,1,100,-0.570
1570470275.690651,79140.857,13268,7,AX,1,100,-0.583
1570470275.707791,79154.286,13268,7,AX,1,100,-0.594
1570470275.724931,79167.714,13268,7,AX,1,100,-0.561
1570470275.742071,79181.143,13268,7,AX,1,100,-0.559
1570470275.759211,79194.571,13268,7,AX,1,100,-0.577
1570470275.776351,79208.000,13268,7,AX,1,100,-0.580
1570470275.792944,79221.000,13286,8,AX,1,100,-0.574
1570470275.809537,79234.000,13286,8,AX,1,100,-0.578
1570470275.826130,79247.000,13286,8,AX,1,100,-0.578
1570470275.842723,79260.000,13286,8,AX,1,100,-0.575
1570470275.859316,79273.000,13286,8,AX,1,100,-0.574
1570470275.875909,79286.000,13286,8,AX,1,100,-0.576
1570470275.892502,79299.000,13286,8,AX,1,100,-0.579
1570470275.909095,79312.000,13286,8,AX,1,100,-0.566
1570470275.925848,79325.125,13305,8,AX,1,100,-0.564
1570470275.942600,79338.250,13305,8,AX,1,100,-0.565
1570470275.959352,79351.375,13305,8,AX,1,100,-0.571
1570470275.976105,79364.500,13305,8,AX,1,100,-0.568
1570470275.992857,79377.625,13305,8,AX,1,100,-0.562
1570470276.009610,79390.750,13305,8,AX,1,100,-0.573
1570470276.026362,79403.875,13305,8,AX,1,100,-0.573
1570470276.043115,79417.000,13305,8,AX,1,100,-0.581
1570470276.059708,79430.000,13323,8,AX,1,100,-0.606
1570470276.076301,79443.000,13323,8,AX,1,100,-0.606
1570470276.092894,79456.000,13323,8,AX,1,100,-0.592
1570470276.109487,79469.000,13323,8,AX,1,100,-0.593
1570470276.126080,79482.000,13323,8,AX,1,100,-0.595
1570470276.142673,79495.000,13323,8,AX,1,100,-0.587
1570470276.159266,79508.000,13323,8,AX,1,100,-0.568
1570470276.175859,79521.000,13323,8,AX,1,100,-0.570
1570470276.192269,79533.857,13341,7,AX,1,100,-0.576
1570470276.208680,79546.714,13341,7,AX,1,100,-0.577
1570470276.225091,79559.571,13341,7,AX,1,100,-0.569
1570470276.241501,79572.429,13341,7,AX,1,100,-0.569
1570470276.257912,79585.286,13341,7,AX,1,100,-0.576
1570470276.274322,79598.143,13341,7,AX,1,100,-0.590
1570470276.290733,79611.000,13341,7,AX,1,100,-0.608
1570470276.307326,79624.000,13359,8,AX,1,100,-0.600
1570470276.323919,79637.000,13359,8,AX,1,100,-0.598
1570470276.340512,79650.000,13359,8,AX,1,100,-0.579
1570470276.357105,79663.000,13359,8,AX,1,100,-0.567
1570470276.373698,79676.000,13359,8,AX,1,100,-0.558
1570470276.390291,79689.000,13359,8,AX,1,100,-0.575
1570470276.406884,79702.000,13359,8,AX,1,100,-0.586
1570470276.423477,79715.000,13359,8,AX,1,100,-0.583
1570470276.440229,79728.125,13377,8,AX,1,100,-0.580
1570470276.456982,79741.250,13377,8,AX,1,100,-0.573
1570470276.473734,79754.375,13377,8,AX,1,100,-0.562
1570470276.490487,79767.500,13377,8,AX,1,100,-0.571
1570470276.507239,79780.625,13377,8,AX,1,100,-0.572
1570470276.523992,79793.750,13377,8,AX,1,100,-0.573
1570470276.540744,79806.875,13377,8,AX,1,100,-0.585
1570470276.557497,79820.000,13377,8,AX,1,100,-0.585
1570470276.573930,79832.875,13395,8,AX,1,100,-0.581
1570470276.590364,79845.750,13395,8,AX,1,100,-0.574
1570470276.606797,79858.625,13395,8,AX,1,100,-0.577
1570470276.623230,79871.500,13395,8,AX,1,100,-0.581
1570470276.639664,79884.375,13395,8,AX,1,100,-0.579
1570470276.656097,79897.250,13395,8,AX,1,100,-0.580
1570470276.672531,79910.125,13395,8,AX,1,100,-0.572
1570470276.688964,79923.000,13395,8,AX,1,100,-0.570
1570470276.705922,79936.286,13413,7,AX,1,100,-0.571
1570470276.722879,79949.571,13413,7,AX,1,100,-0.588
1570470276.739837,79962.857,13413,7,AX,1,100,-0.590
1570470276.756795,79976.143,13413,7,AX,1,100,-0.582
1570470276.773752,79989.429,13413,7,AX,1,100,-0.572
1570470276.790710,80002.714,13413,7,AX,1,100,-0.564
1570470276.807667,80016.000,13413,7,AX,1,100,-0.567
1570470276.824420,80029.125,13431,8,AX,1,100,-0.578
1570470276.841172,80042.250,13431,8,AX,1,100,-0.582
1570470276.857925,80055.375,13431,8,AX,1,100,-0.582
1570470276.874678,80068.500,13431,8,AX,1,100,-0.573
1570470276.891430,80081.625,13431,8,AX,1,100,-0.574
1570470276.908183,80094.750,13431,8,AX,1,100,-0.573
1570470276.924935,80107.875,13431,8,AX,1,100,-0.579
1570470276.941688,80121.000,13431,8,AX,1,100,-0.590
1570470276.958600,80134.250,13450,8,AX,1,100,-0.581
1570470276.975512,80147.500,13450,8,AX,1,100,-0.581
1570470276.992424,80160.750,13450,8,AX,1,100,-0.578
1570470277.009336,80174.000,13450,8,AX,1,100,-0.575
1570470277.026248,80187.250,13450,8,AX,1,100,-0.564
1570470277.043160,80200.500,13450,8,AX,1,100,-0.560
1570470277.060072,80213.750,13450,8,AX,1,100,-0.567
1570470277.076984,80227.000,13450,8,AX,1,100,-0.571
1570470277.093577,80240.000,13467,7,AX,1,100,-0.568
1570470277.110170,80253.000,13467,7,AX,1,100,-0.589
1570470277.126763,80266.000,13467,7,AX,1,100,-0.593
1570470277.143356,80279.000,13467,7,AX,1,100,-0.592
1570470277.159949,80292.000,13467,7,AX,1,100,-0.574
1570470277.176542,80305.000,13467,7,AX,1,100,-0.577
1570470277.193135,80318.000,13467,7,AX,1,100,-0.575
1570470277.209568,80330.875,13485,8,AX,1,100,-0.583
1570470277.226002,80343.750,13485,8,AX,1,100,-0.583
1570470277.242435,80356.625,13485,8,AX,1,100,-0.597
1570470277.258868,80369.500,13485,8,AX,1,100,-0.583
1570470277.275302,80382.375,13485,8,AX,1,100,-0.563
1570470277.291735,80395.250,13485,8,AX,1,100,-0.564
1570470277.308169,80408.125,13485,8,AX,1,100,-0.565
1570470277.324602,80421.000,13485,8,AX,1,100,-0.567
1570470277.341514,80434.250,13503,8,AX,1,100,-0.569
1570470277.358426,80447.500,13503,8,AX,1,100,-0.572
1570470277.375338,80460.750,13503,8,AX,1,100,-0.564
1570470277.392250,80474.000,13503,8,AX,1,100,-0.571
1570470277.409162,80487.250,13503,8,AX,1,100,-0.573
1570470277.426074,80500.500,13503,8,AX,1,100,-0.561
1570470277.442986,80513.750,13503,8,AX,1,100,-0.566
1570470277.459898,80527.000,13503,8,AX,1,100,-0.577
1570470277.476651,80540.125,13521,8,AX,1,100,-0.598
1570470277.493403,80553.250,13521,8,AX,1,100,-0.604
1570470277.510156,80566.375,13521,8,AX,1,100,-0.623
1570470277.526908,80579.500,13521,8,AX,1,100,-0.590
1570470277.543661,80592.625,13521,8,AX,1,100,-0.580
1570470277.560414,80605.750,13521,8,AX,1,100,-0.574
1570470277.577166,80618.875,13521,8,AX,1,100,-0.574
1570470277.593919,80632.000,13521,8,AX,1,100,-0.580
1570470277.610352,80644.875,13539,8,AX,1,100,-0.596
1570470277.626785,80657.750,13539,8,AX,1,100,-0.584
1570470277.643219,80670.625,13539,8,AX,1,100,-0.579
1570470277.659652,80683.500,13539,8,AX,1,100,-0.565
1570470277.676086,80696.375,13539,8,AX,1,100,-0.561
1570470277.692519,80709.250,13539,8,AX,1,100,-0.569
1570470277.708952,80722.125,13539,8,AX,1,100,-0.585
1570470277.725386,80735.000,13539,8,AX,1,100,-0.586
1570470277.742708,80748.571,13557,7,AX,1,100,-0.583
1570470277.760031,80762.143,13557,7,AX,1,100,-0.568
1570470277.777353,80775.714,13557,7,AX,1,100,-0.562
1570470277.794675,80789.286,13557,7,AX,1,100,-0.565
1570470277.811997,80802.857,13557,7,AX,1,100,-0.565
1570470277.829320,80816.429,13557,7,AX,1,100,-0.564
1570470277.846642,80830.000,13557,7,AX,1,100,-0.564
1570470277.863075,80842.875,13576,8,AX,1,100,-0.577
1570470277.879509,80855.750,13576,8,AX,1,100,-0.581
1570470277.895942,80868.625,13576,8,AX,1,100,-0.581
1570470277.912376,80881.500,13576,8,AX,1,100,-0.594
1570470277.928809,80894.375,13576,8,AX,1,100,-0.595
1570470277.945243,80907.250,13576,8,AX,1,100,-0.595
1570470277.961676,80920.125,13576,8,AX,1,100,-0.593
1570470277.978109,80933.000,13576,8,AX,1,100,-0.593
1570470277.994702,80946.000,13592,7,AX,1,100,-0.576
1570470278.011295,80959.000,13592,7,AX,1,100,-0.573
1570470278.027888,80972.000,13592,7,AX,1,100,-0.579
