EpochTimestamp,EmotiBitTimestamp,PacketNumber,DataLength,TypeTag,ProtocolVersion,DataReliability,AZ
1570470239.593488,50860.000,8230,12,AZ,1,100,0.528
1570470239.593488,50860.000,8230,12,AZ,1,100,0.544
1570470239.593488,50860.000,8230,12,AZ,1,100,0.582
1570470239.593488,50860.000,8230,12,AZ,1,100,0.570
1570470239.593488,50860.000,8230,12,AZ,1,100,0.608
1570470239.593488,50860.000,8230,12,AZ,1,100,0.559
1570470239.593488,50860.000,8230,12,AZ,1,100,0.497
1570470239.593488,50860.000,8230,12,AZ,1,100,0.459
1570470239.593488,50860.000,8230,12,AZ,1,100,0.464
1570470239.593488,50860.000,8230,12,AZ,1,100,0.501
1570470239.593488,50860.000,8230,12,AZ,1,100,0.527
1570470239.593488,50860.000,8230,12,AZ,1,100,0.539
1570470239.610263,50873.143,8248,7,AZ,1,100,0.574
1570470239.627038,50886.286,8248,7,AZ,1,100,0.596
1570470239.643814,50899.429,8248,7,AZ,1,100,0.595
1570470239.660589,50912.571,8248,7,AZ,1,100,0.579
1570470239.677364,50925.714,8248,7,AZ,1,100,0.578
1570470239.694139,50938.857,8248,7,AZ,1,100,0.615
1570470239.710915,50952.000,8248,7,AZ,1,100,0.697
1570470239.727508,50965.000,8266,8,AZ,1,100,0.715
1570470239.744101,50978.000,8266,8,AZ,1,100,0.704
1570470239.760694,50991.000,8266,8,AZ,1,100,0.714
1570470239.777287,51004.000,8266,8,AZ,1,100,0.712
1570470239.793880,51017.000,8266,8,AZ,1,100,0.691
1570470239.810472,51030.000,8266,8,AZ,1,100,0.641
1570470239.827065,51043.000,8266,8,AZ,1,100,0.654
1570470239.843658,51056.000,8266,8,AZ,1,100,0.630
1570470239.860251,51069.000,8284,7,AZ,1,100,0.686
1570470239.876844,51082.000,8284,7,AZ,1,100,0.738
1570470239.893437,51095.000,8284,7,AZ,1,100,0.739
1570470239.910030,51108.000,8284,7,AZ,1,100,0.721
1570470239.926623,51121.000,8284,7,AZ,1,100,0.684
1570470239.943216,51134.000,8284,7,AZ,1,100,0.635
1570470239.959809,51147.000,8284,7,AZ,1,100,0.626
1570470239.976562,51160.125,8302,8,AZ,1,100,0.637
1570470239.993314,51173.250,8302,8,AZ,1,100,0.740
1570470240.010067,51186.375,8302,8,AZ,1,100,0.771
1570470240.026819,51199.500,8302,8,AZ,1,100,0.734
1570470240.043572,51212.625,8302,8,AZ,1,100,0.669
1570470240.060324,51225.750,8302,8,AZ,1,100,0.675
1570470240.077077,51238.875,8302,8,AZ,1,100,0.740
1570470240.093829,51252.000,8302,8,AZ,1,100,0.925
1570470240.110422,51265.000,8320,8,AZ,1,100,1.008
1570470240.127015,51278.000,8320,8,AZ,1,100,1.024
1570470240.143608,51291.000,8320,8,AZ,1,100,0.826
1570470240.160201,51304.000,8320,8,AZ,1,100,0.524
1570470240.176794,51317.000,8320,8,AZ,1,100,0.240
1570470240.193387,51330.000,8320,8,AZ,1,100,0.373
1570470240.209980,51343.000,8320,8,AZ,1,100,0.536
1570470240.226573,51356.000,8320,8,AZ,1,100,0.750
1570470240.243325,51369.125,8338,8,AZ,1,100,0.709
1570470240.260078,51382.250,8338,8,AZ,1,100,0.542
1570470240.276830,51395.375,8338,8,AZ,1,100,0.355
1570470240.293583,51408.500,8338,8,AZ,1,100,0.414
1570470240.310335,51421.625,8338,8,AZ,1,100,0.436
1570470240.327088,51434.750,8338,8,AZ,1,100,0.563
1570470240.343841,51447.875,8338,8,AZ,1,100,0.514
1570470240.360593,51461.000,8338,8,AZ,1,100,0.456
1570470240.377186,51474.000,8357,7,AZ,1,100,0.511
1570470240.393779,51487.000,8357,7,AZ,1,100,0.660
1570470240.410372,51500.000,8357,7,AZ,1,100,0.729
1570470240.426965,51513.000,8357,7,AZ,1,100,0.792
1570470240.443558,51526.000,8357,7,AZ,1,100,0.820
1570470240.460151,51539.000,8357,7,AZ,1,100,0.772
1570470240.476744,51552.000,8357,7,AZ,1,100,0.694
1570470240.493656,51565.250,8375,8,AZ,1,100,0.656
1570470240.510568,51578.500,8375,8,AZ,1,100,0.580
1570470240.527480,51591.750,8375,8,AZ,1,100,0.497
1570470240.544392,51605.000,8375,8,AZ,1,100,0.470
1570470240.561304,51618.250,8375,8,AZ,1,100,0.374
1570470240.578216,51631.500,8375,8,AZ,1,100,0.298
1570470240.595128,51644.750,8375,8,AZ,1,100,0.307
1570470240.612040,51658.000,8375,8,AZ,1,100,0.320
1570470240.628793,51671.125,8393,8,AZ,1,100,0.434
1570470240.645545,51684.250,8393,8,AZ,1,100,0.490
1570470240.662298,51697.375,8393,8,AZ,1,100,0.623
1570470240.679050,51710.500,8393,8,AZ,1,100,0.640
1570470240.695803,51723.625,8393,8,AZ,1,100,0.679
1570470240.712555,51736.750,8393,8,AZ,1,100,0.622
1570470240.729308,51749.875,8393,8,AZ,1,100,0.600
1570470240.746060,51763.000,8393,8,AZ,1,100,0.621
1570470240.762334,51775.750,8411,8,AZ,1,100,0.653
1570470240.778608,51788.500,8411,8,AZ,1,100,0.648
1570470240.794882,51801.250,8411,8,AZ,1,100,0.597
1570470240.811156,51814.000,8411,8,AZ,1,100,0.566
1570470240.827430,51826.750,8411,8,AZ,1,100,0.547
1570470240.843704,51839.500,8411,8,AZ,1,100,0.575
1570470240.859977,51852.250,8411,8,AZ,1,100,0.555
1570470240.876251,51865.000,8411,8,AZ,1,100,0.523
1570470240.893026,51878.143,8429,7,AZ,1,100,0.498
1570470240.909802,51891.286,8429,7,AZ,1,100,0.481
1570470240.926577,51904.429,8429,7,AZ,1,100,0.451
1570470240.943352,51917.571,8429,7,AZ,1,100,0.459
1570470240.960128,51930.714,8429,7,AZ,1,100,0.491
1570470240.976903,51943.857,8429,7,AZ,1,100,0.486
1570470240.993678,51957.000,8429,7,AZ,1,100,0.489
1570470241.010112,51969.875,8447,8,AZ,1,100,0.462
1570470241.026545,51982.750,8447,8,AZ,1,100,0.438
1570470241.042979,51995.625,8447,8,AZ,1,100,0.473
1570470241.059412,52008.500,8447,8,AZ,1,100,0.520
1570470241.075845,52021.375,8447,8,AZ,1,100,0.515
1570470241.092279,52034.250,8447,8,AZ,1,100,0.532
1570470241.108712,52047.125,8447,8,AZ,1,100,0.516
1570470241.125145,52060.000,8447,8,AZ,1,100,0.520
1570470241.141738,52073.000,8465,8,AZ,1,100,0.507
1570470241.158331,52086.000,8465,8,AZ,1,100,0.482
1570470241.174924,52099.000,8465,8,AZ,1,100,0.447
1570470241.191517,52112.000,8465,8,AZ,1,100,0.406
1570470241.208110,52125.000,8465,8,AZ,1,100,0.401
1570470241.224703,52138.000,8465,8,AZ,1,100,0.449
1570470241.241296,52151.000,8465,8,AZ,1,100,0.476
1570470241.257889,52164.000,8465,8,AZ,1,100,0.505
1570470241.274482,52177.000,8483,8,AZ,1,100,0.494
1570470241.291075,52190.000,8483,8,AZ,1,100,0.532
1570470241.307668,52203.000,8483,8,AZ,1,100,0.514
1570470241.324261,52216.000,8483,8,AZ,1,100,0.489
1570470241.340854,52229.000,8483,8,AZ,1,100,0.493
1570470241.357447,52242.000,8483,8,AZ,1,100,0.536
1570470241.374040,52255.000,8483,8,AZ,1,100,0.522
1570470241.390633,52268.000,8483,8,AZ,1,100,0.498
1570470241.407043,52280.857,8502,7,AZ,1,100,0.482
1570470241.423454,52293.714,8502,7,AZ,1,100,0.516
1570470241.439865,52306.571,8502,7,AZ,1,100,0.484
1570470241.456275,52319.429,8502,7,AZ,1,100,0.390
1570470241.472686,52332.286,8502,7,AZ,1,100,0.367
1570470241.489097,52345.143,8502,7,AZ,1,100,0.398
1570470241.505507,52358.000,8502,7,AZ,1,100,0.439
1570470241.522260,52371.125,8520,8,AZ,1,100,0.487
1570470241.539012,52384.250,8520,8,AZ,1,100,0.500
1570470241.555765,52397.375,8520,8,AZ,1,100,0.553
1570470241.572517,52410.500,8520,8,AZ,1,100,0.553
1570470241.589270,52423.625,8520,8,AZ,1,100,0.575
1570470241.606022,52436.750,8520,8,AZ,1,100,0.604
1570470241.622775,52449.875,8520,8,AZ,1,100,0.635
1570470241.639527,52463.000,8520,8,AZ,1,100,0.616
1570470241.656280,52476.125,8538,8,AZ,1,100,0.599
1570470241.673032,52489.250,8538,8,AZ,1,100,0.571
1570470241.689785,52502.375,8538,8,AZ,1,100,0.518
1570470241.706537,52515.500,8538,8,AZ,1,100,0.499
1570470241.723290,52528.625,8538,8,AZ,1,100,0.493
1570470241.740042,52541.750,8538,8,AZ,1,100,0.465
1570470241.756795,52554.875,8538,8,AZ,1,100,0.472
1570470241.773547,52568.000,8538,8,AZ,1,100,0.485
1570470241.789981,52580.875,8556,8,AZ,1,100,0.562
1570470241.806414,52593.750,8556,8,AZ,1,100,0.581
1570470241.822848,52606.625,8556,8,AZ,1,100,0.554
1570470241.839281,52619.500,8556,8,AZ,1,100,0.494
1570470241.855714,52632.375,8556,8,AZ,1,100,0.474
1570470241.872148,52645.250,8556,8,AZ,1,100,0.485
1570470241.888581,52658.125,8556,8,AZ,1,100,0.524
1570470241.905015,52671.000,8556,8,AZ,1,100,0.518
1570470241.921972,52684.286,8574,7,AZ,1,100,0.494
1570470241.938930,52697.571,8574,7,AZ,1,100,0.386
1570470241.955888,52710.857,8574,7,AZ,1,100,0.378
1570470241.972845,52724.143,8574,7,AZ,1,100,0.390
1570470241.989803,52737.429,8574,7,AZ,1,100,0.350
1570470242.006761,52750.714,8574,7,AZ,1,100,0.371
1570470242.023718,52764.000,8574,7,AZ,1,100,0.395
1570470242.040152,52776.875,8592,8,AZ,1,100,0.454
1570470242.056585,52789.750,8592,8,AZ,1,100,0.505
1570470242.073018,52802.625,8592,8,AZ,1,100,0.629
1570470242.089452,52815.500,8592,8,AZ,1,100,0.610
1570470242.105885,52828.375,8592,8,AZ,1,100,0.570
1570470242.122319,52841.250,8592,8,AZ,1,100,0.500
1570470242.138752,52854.125,8592,8,AZ,1,100,0.502
1570470242.155185,52867.000,8592,8,AZ,1,100,0.497
1570470242.171778,52880.000,8609,8,AZ,1,100,0.500
1570470242.188371,52893.000,8609,8,AZ,1,100,0.517
1570470242.204964,52906.000,8609,8,AZ,1,100,0.469
1570470242.221557,52919.000,8609,8,AZ,1,100,0.411
1570470242.238150,52932.000,8609,8,AZ,1,100,0.396
1570470242.254743,52945.000,8609,8,AZ,1,100,0.379
1570470242.271336,52958.000,8609,8,AZ,1,100,0.462
1570470242.287929,52971.000,8609,8,AZ,1,100,0.473
1570470242.304841,52984.250,8628,8,AZ,1,100,0.526
1570470242.321753,52997.500,8628,8,AZ,1,100,0.588
1570470242.338665,53010.750,8628,8,AZ,1,100,0.591
1570470242.355577,53024.000,8628,8,AZ,1,100,0.594
1570470242.372489,53037.250,8628,8,AZ,1,100,0.575
1570470242.389401,53050.500,8628,8,AZ,1,100,0.549
1570470242.406313,53063.750,8628,8,AZ,1,100,0.529
1570470242.423226,53077.000,8628,8,AZ,1,100,0.540
1570470242.439819,53090.000,8646,7,AZ,1,100,0.515
1570470242.456412,53103.000,8646,7,AZ,1,100,0.358
1570470242.473004,53116.000,8646,7,AZ,1,100,0.331
1570470242.489597,53129.000,8646,7,AZ,1,100,0.352
1570470242.506190,53142.000,8646,7,AZ,1,100,0.404
1570470242.522783,53155.000,8646,7,AZ,1,100,0.426
1570470242.539376,53168.000,8646,7,AZ,1,100,0.497
1570470242.556129,53181.125,8664,8,AZ,1,100,0.582
1570470242.572881,53194.250,8664,8,AZ,1,100,0.544
1570470242.589634,53207.375,8664,8,AZ,1,100,0.478
1570470242.606386,53220.500,8664,8,AZ,1,100,0.443
1570470242.623139,53233.625,8664,8,AZ,1,100,0.441
1570470242.639891,53246.750,8664,8,AZ,1,100,0.485
1570470242.656644,53259.875,8664,8,AZ,1,100,0.503
1570470242.673396,53273.000,8664,8,AZ,1,100,0.483
1570470242.690149,53286.125,8682,8,AZ,1,100,0.571
1570470242.706901,53299.250,8682,8,AZ,1,100,0.589
1570470242.723654,53312.375,8682,8,AZ,1,100,0.583
1570470242.740406,53325.500,8682,8,AZ,1,100,0.526
1570470242.757159,53338.625,8682,8,AZ,1,100,0.555
1570470242.773911,53351.750,8682,8,AZ,1,100,0.564
1570470242.790664,53364.875,8682,8,AZ,1,100,0.608
1570470242.807416,53378.000,8682,8,AZ,1,100,0.614
1570470242.824374,53391.286,8700,7,AZ,1,100,0.634
1570470242.841332,53404.571,8700,7,AZ,1,100,0.699
1570470242.858289,53417.857,8700,7,AZ,1,100,0.863
1570470242.875247,53431.143,8700,7,AZ,1,100,0.914
1570470242.892205,53444.429,8700,7,AZ,1,100,1.148
1570470242.909162,53457.714,8700,7,AZ,1,100,1.221
1570470242.926120,53471.000,8700,7,AZ,1,100,1.039
1570470242.942872,53484.125,8717,8,AZ,1,100,-5.008
1570470242.959625,53497.250,8717,8,AZ,1,100,-0.357
1570470242.976377,53510.375,8717,8,AZ,1,100,-0.860
1570470242.993130,53523.500,8717,8,AZ,1,100,1.598
1570470243.009882,53536.625,8717,8,AZ,1,100,1.002
1570470243.026635,53549.750,8717,8,AZ,1,100,0.508
1570470243.043387,53562.875,8717,8,AZ,1,100,0.137
1570470243.060140,53576.000,8717,8,AZ,1,100,0.187
1570470243.076414,53588.750,8735,8,AZ,1,100,0.606
1570470243.092688,53601.500,8735,8,AZ,1,100,0.947
1570470243.108962,53614.250,8735,8,AZ,1,100,1.083
1570470243.125235,53627.000,8735,8,AZ,1,100,1.405
1570470243.141509,53639.750,8735,8,AZ,1,100,1.496
1570470243.157783,53652.500,8735,8,AZ,1,100,1.301
1570470243.174057,53665.250,8735,8,AZ,1,100,1.119
1570470243.190331,53678.000,8735,8,AZ,1,100,-5.378
1570470243.206924,53691.000,8752,7,AZ,1,100,3.231
1570470243.223517,53704.000,8752,7,AZ,1,100,-0.060
1570470243.240110,53717.000,8752,7,AZ,1,100,2.790
1570470243.256703,53730.000,8752,7,AZ,1,100,0.103
1570470243.273296,53743.000,8752,7,AZ,1,100,0.272
1570470243.289889,53756.000,8752,7,AZ,1,100,0.225
1570470243.306482,53769.000,8752,7,AZ,1,100,0.356
1570470243.323075,53782.000,8771,8,AZ,1,100,0.760
1570470243.339668,53795.000,8771,8,AZ,1,100,0.776
1570470243.356261,53808.000,8771,8,AZ,1,100,0.602
1570470243.372854,53821.000,8771,8,AZ,1,100,0.687
1570470243.389446,53834.000,8771,8,AZ,1,100,0.760
1570470243.406039,53847.000,8771,8,AZ,1,100,1.099
1570470243.422632,53860.000,8771,8,AZ,1,100,1.358
1570470243.439225,53873.000,8771,8,AZ,1,100,1.305
1570470243.456137,53886.250,8789,8,AZ,1,100,1.248
1570470243.473049,53899.500,8789,8,AZ,1,100,-2.419
1570470243.489961,53912.750,8789,8,AZ,1,100,2.781
1570470243.506873,53926.000,8789,8,AZ,1,100,-1.296
1570470243.523786,53939.250,8789,8,AZ,1,100,2.062
1570470243.540698,53952.500,8789,8,AZ,1,100,0.275
1570470243.557610,53965.750,8789,8,AZ,1,100,0.341
1570470243.574522,53979.000,8789,8,AZ,1,100,0.228
1570470243.591115,53992.000,8807,8,AZ,1,100,0.200
1570470243.607708,54005.000,8807,8,AZ,1,100,0.302
1570470243.624300,54018.000,8807,8,AZ,1,100,0.038
1570470243.640893,54031.000,8807,8,AZ,1,100,-0.028
1570470243.657486,54044.000,8807,8,AZ,1,100,0.275
1570470243.674079,54057.000,8807,8,AZ,1,100,0.367
1570470243.690672,54070.000,8807,8,AZ,1,100,0.290
1570470243.707265,54083.000,8807,8,AZ,1,100,0.308
1570470243.724405,54096.429,8825,7,AZ,1,100,0.353
1570470243.741545,54109.857,8825,7,AZ,1,100,0.477
1570470243.758685,54123.286,8825,7,AZ,1,100,0.302
1570470243.775825,54136.714,8825,7,AZ,1,100,0.390
1570470243.792965,54150.143,8825,7,AZ,1,100,0.539
1570470243.810105,54163.571,8825,7,AZ,1,100,0.586
1570470243.827245,54177.000,8825,7,AZ,1,100,0.510
1570470243.843838,54190.000,8843,8,AZ,1,100,0.526
1570470243.860431,54203.000,8843,8,AZ,1,100,0.601
1570470243.877024,54216.000,8843,8,AZ,1,100,0.656
1570470243.893617,54229.000,8843,8,AZ,1,100,0.683
1570470243.910210,54242.000,8843,8,AZ,1,100,0.682
1570470243.926803,54255.000,8843,8,AZ,1,100,0.642
1570470243.943396,54268.000,8843,8,AZ,1,100,0.659
1570470243.959989,54281.000,8843,8,AZ,1,100,0.708
1570470243.976582,54294.000,8861,8,AZ,1,100,0.768
1570470243.993175,54307.000,8861,8,AZ,1,100,0.783
1570470244.009768,54320.000,8861,8,AZ,1,100,0.770
1570470244.026361,54333.000,8861,8,AZ,1,100,0.820
1570470244.042954,54346.000,8861,8,AZ,1,100,0.819
1570470244.059547,54359.000,8861,8,AZ,1,100,0.828
1570470244.076140,54372.000,8861,8,AZ,1,100,0.773
1570470244.092733,54385.000,8861,8,AZ,1,100,0.749
1570470244.109166,54397.875,8879,8,AZ,1,100,0.789
1570470244.125599,54410.750,8879,8,AZ,1,100,0.841
1570470244.142033,54423.625,8879,8,AZ,1,100,0.835
1570470244.158466,54436.500,8879,8,AZ,1,100,0.820
1570470244.174900,54449.375,8879,8,AZ,1,100,0.736
1570470244.191333,54462.250,8879,8,AZ,1,100,0.631
1570470244.207767,54475.125,8879,8,AZ,1,100,0.623
1570470244.224200,54488.000,8879,8,AZ,1,100,0.619
1570470244.240633,54500.875,8897,8,AZ,1,100,0.624
1570470244.257067,54513.750,8897,8,AZ,1,100,0.655
1570470244.273500,54526.625,8897,8,AZ,1,100,0.680
1570470244.289933,54539.500,8897,8,AZ,1,100,0.720
1570470244.306367,54552.375,8897,8,AZ,1,100,0.676
1570470244.322800,54565.250,8897,8,AZ,1,100,0.580
1570470244.339234,54578.125,8897,8,AZ,1,100,0.580
1570470244.355667,54591.000,8897,8,AZ,1,100,0.570
1570470244.371896,54603.714,8916,7,AZ,1,100,0.584
1570470244.388124,54616.429,8916,7,AZ,1,100,0.603
1570470244.404352,54629.143,8916,7,AZ,1,100,0.528
1570470244.420580,54641.857,8916,7,AZ,1,100,0.562
1570470244.436809,54654.571,8916,7,AZ,1,100,0.581
1570470244.453037,54667.286,8916,7,AZ,1,100,0.581
1570470244.469265,54680.000,8916,7,AZ,1,100,0.548
1570470244.486177,54693.250,8934,8,AZ,1,100,0.494
1570470244.503089,54706.500,8934,8,AZ,1,100,0.427
1570470244.520001,54719.750,8934,8,AZ,1,100,0.406
1570470244.536913,54733.000,8934,8,AZ,1,100,0.440
1570470244.553825,54746.250,8934,8,AZ,1,100,0.483
1570470244.570738,54759.500,8934,8,AZ,1,100,0.475
1570470244.587650,54772.750,8934,8,AZ,1,100,0.475
1570470244.604562,54786.000,8934,8,AZ,1,100,0.567
1570470244.621314,54799.125,8952,8,AZ,1,100,0.623
1570470244.638067,54812.250,8952,8,AZ,1,100,0.599
1570470244.654819,54825.375,8952,8,AZ,1,100,0.546
1570470244.671572,54838.500,8952,8,AZ,1,100,0.502
1570470244.688324,54851.625,8952,8,AZ,1,100,0.385
1570470244.705077,54864.750,8952,8,AZ,1,100,0.370
1570470244.721829,54877.875,8952,8,AZ,1,100,0.349
1570470244.738582,54891.000,8952,8,AZ,1,100,0.432
1570470244.755175,54904.000,8970,8,AZ,1,100,0.498
1570470244.771768,54917.000,8970,8,AZ,1,100,0.494
1570470244.788361,54930.000,8970,8,AZ,1,100,0.530
1570470244.804954,54943.000,8970,8,AZ,1,100,0.526
1570470244.821547,54956.000,8970,8,AZ,1,100,0.532
1570470244.838139,54969.000,8970,8,AZ,1,100,0.543
1570470244.854732,54982.000,8970,8,AZ,1,100,0.546
1570470244.871325,54995.000,8970,8,AZ,1,100,0.519
1570470244.888101,55008.143,8988,7,AZ,1,100,0.451
1570470244.904876,55021.286,8988,7,AZ,1,100,0.427
1570470244.921651,55034.429,8988,7,AZ,1,100,0.412
1570470244.938426,55047.571,8988,7,AZ,1,100,0.460
1570470244.955202,55060.714,8988,7,AZ,1,100,0.480
1570470244.971977,55073.857,8988,7,AZ,1,100,0.517
1570470244.988752,55087.000,8988,7,AZ,1,100,0.486
1570470245.005505,55100.125,9006,8,AZ,1,100,0.462
1570470245.022258,55113.250,9006,8,AZ,1,100,0.490
1570470245.039010,55126.375,9006,8,AZ,1,100,0.505
1570470245.055763,55139.500,9006,8,AZ,1,100,0.494
1570470245.072515,55152.625,9006,8,AZ,1,100,0.450
1570470245.089267,55165.750,9006,8,AZ,1,100,0.433
1570470245.106020,55178.875,9006,8,AZ,1,100,0.399
1570470245.122772,55192.000,9006,8,AZ,1,100,0.411
1570470245.139206,55204.875,9024,8,AZ,1,100,0.410
1570470245.155639,55217.750,9024,8,AZ,1,100,0.443
1570470245.172073,55230.625,9024,8,AZ,1,100,0.434
1570470245.188506,55243.500,9024,8,AZ,1,100,0.447
1570470245.204940,55256.375,9024,8,AZ,1,100,0.412
1570470245.221373,55269.250,9024,8,AZ,1,100,0.391
1570470245.237806,55282.125,9024,8,AZ,1,100,0.390
1570470245.254240,55295.000,9024,8,AZ,1,100,0.398
1570470245.270833,55308.000,9042,8,AZ,1,100,0.448
1570470245.287426,55321.000,9042,8,AZ,1,100,0.467
1570470245.304019,55334.000,9042,8,AZ,1,100,0.486
1570470245.320612,55347.000,9042,8,AZ,1,100,0.434
1570470245.337205,55360.000,9042,8,AZ,1,100,0.435
1570470245.353797,55373.000,9042,8,AZ,1,100,0.443
1570470245.370390,55386.000,9042,8,AZ,1,100,0.418
1570470245.386983,55399.000,9042,8,AZ,1,100,0.445
1570470245.403759,55412.143,9061,7,AZ,1,100,0.459
1570470245.420534,55425.286,9061,7,AZ,1,100,0.453
1570470245.437309,55438.429,9061,7,AZ,1,100,0.435
1570470245.454085,55451.571,9061,7,AZ,1,100,0.434
1570470245.470860,55464.714,9061,7,AZ,1,100,0.460
1570470245.487635,55477.857,9061,7,AZ,1,100,0.463
1570470245.504411,55491.000,9061,7,AZ,1,100,0.471
1570470245.521323,55504.250,9079,8,AZ,1,100,0.473
1570470245.538235,55517.500,9079,8,AZ,1,100,0.482
1570470245.555147,55530.750,9079,8,AZ,1,100,0.453
1570470245.572059,55544.000,9079,8,AZ,1,100,0.459
1570470245.588971,55557.250,9079,8,AZ,1,100,0.427
1570470245.605883,55570.500,9079,8,AZ,1,100,0.432
1570470245.622795,55583.750,9079,8,AZ,1,100,0.431
1570470245.639707,55597.000,9079,8,AZ,1,100,0.433
1570470245.656460,55610.125,9097,8,AZ,1,100,0.445
1570470245.673212,55623.250,9097,8,AZ,1,100,0.455
1570470245.689965,55636.375,9097,8,AZ,1,100,0.453
1570470245.706717,55649.500,9097,8,AZ,1,100,0.461
1570470245.723469,55662.625,9097,8,AZ,1,100,0.448
1570470245.740222,55675.750,9097,8,AZ,1,100,0.457
1570470245.756974,55688.875,9097,8,AZ,1,100,0.447
1570470245.773727,55702.000,9097,8,AZ,1,100,0.427
1570470245.790685,55715.286,9115,7,AZ,1,100,0.408
1570470245.807642,55728.571,9115,7,AZ,1,100,0.419
1570470245.824600,55741.857,9115,7,AZ,1,100,0.446
1570470245.841558,55755.143,9115,7,AZ,1,100,0.454
1570470245.858515,55768.429,9115,7,AZ,1,100,0.465
1570470245.875473,55781.714,9115,7,AZ,1,100,0.460
1570470245.892431,55795.000,9115,7,AZ,1,100,0.464
1570470245.909024,55808.000,9136,13,AZ,1,100,0.457
1570470245.925617,55821.000,9136,13,AZ,1,100,0.429
1570470245.942209,55834.000,9136,13,AZ,1,100,0.428
1570470245.958802,55847.000,9136,13,AZ,1,100,0.425
1570470245.975395,55860.000,9136,13,AZ,1,100,0.433
1570470245.991988,55873.000,9136,13,AZ,1,100,0.449
1570470246.008581,55886.000,9136,13,AZ,1,100,0.454
1570470246.025174,55899.000,9136,13,AZ,1,100,0.454
1570470246.041767,55912.000,9136,13,AZ,1,100,0.449
1570470246.058360,55925.000,9136,13,AZ,1,100,0.448
1570470246.074953,55938.000,9136,13,AZ,1,100,0.437
1570470246.091546,55951.000,9136,13,AZ,1,100,0.433
1570470246.108139,55964.000,9136,13,AZ,1,100,0.447
1570470246.124914,55977.143,9156,7,AZ,1,100,0.443
1570470246.141690,55990.286,9156,7,AZ,1,100,0.447
1570470246.158465,56003.429,9156,7,AZ,1,100,0.453
1570470246.175240,56016.571,9156,7,AZ,1,100,0.449
1570470246.192016,56029.714,9156,7,AZ,1,100,0.451
1570470246.208791,56042.857,9156,7,AZ,1,100,0.439
1570470246.225566,56056.000,9156,7,AZ,1,100,0.439
1570470246.242000,56068.875,9174,8,AZ,1,100,0.446
1570470246.258433,56081.750,9174,8,AZ,1,100,0.464
1570470246.274866,56094.625,9174,8,AZ,1,100,0.471
1570470246.291300,56107.500,9174,8,AZ,1,100,0.451
1570470246.307733,56120.375,9174,8,AZ,1,100,0.452
1570470246.324167,56133.250,9174,8,AZ,1,100,0.416
1570470246.340600,56146.125,9174,8,AZ,1,100,0.419
1570470246.357033,56159.000,9174,8,AZ,1,100,0.451
1570470246.373786,56172.125,9193,8,AZ,1,100,0.459
1570470246.390538,56185.250,9193,8,AZ,1,100,0.480
1570470246.407291,56198.375,9193,8,AZ,1,100,0.437
1570470246.424043,56211.500,9193,8,AZ,1,100,0.414
1570470246.440796,56224.625,9193,8,AZ,1,100,0.430
1570470246.457548,56237.750,9193,8,AZ,1,100,0.435
1570470246.474301,56250.875,9193,8,AZ,1,100,0.428
1570470246.491054,56264.000,9193,8,AZ,1,100,0.426
1570470246.507829,56277.143,9211,7,AZ,1,100,0.439
1570470246.524604,56290.286,9211,7,AZ,1,100,0.436
1570470246.541379,56303.429,9211,7,AZ,1,100,0.426
1570470246.558155,56316.571,9211,7,AZ,1,100,0.441
1570470246.574930,56329.714,9211,7,AZ,1,100,0.437
1570470246.591705,56342.857,9211,7,AZ,1,100,0.443
1570470246.608481,56356.000,9211,7,AZ,1,100,0.451
1570470246.625233,56369.125,9229,8,AZ,1,100,0.460
1570470246.641986,56382.250,9229,8,AZ,1,100,0.436
1570470246.658738,56395.375,9229,8,AZ,1,100,0.425
1570470246.675491,56408.500,9229,8,AZ,1,100,0.426
1570470246.692243,56421.625,9229,8,AZ,1,100,0.432
1570470246.708996,56434.750,9229,8,AZ,1,100,0.439
1570470246.725748,56447.875,9229,8,AZ,1,100,0.478
1570470246.742501,56461.000,9229,8,AZ,1,100,0.477
1570470246.759253,56474.125,9247,8,AZ,1,100,0.464
1570470246.776006,56487.250,9247,8,AZ,1,100,0.431
1570470246.792758,56500.375,9247,8,AZ,1,100,0.406
1570470246.809511,56513.500,9247,8,AZ,1,100,0.428
1570470246.826263,56526.625,9247,8,AZ,1,100,0.449
1570470246.843016,56539.750,9247,8,AZ,1,100,0.451
1570470246.859768,56552.875,9247,8,AZ,1,100,0.452
1570470246.876521,56566.000,9247,8,AZ,1,100,0.444
1570470246.893273,56579.125,9265,8,AZ,1,100,0.435
1570470246.910026,56592.250,9265,8,AZ,1,100,0.432
1570470246.926778,56605.375,9265,8,AZ,1,100,0.438
1570470246.943531,56618.500,9265,8,AZ,1,100,0.455
1570470246.960283,56631.625,9265,8,AZ,1,100,0.456
1570470246.977036,56644.750,9265,8,AZ,1,100,0.449
1570470246.993788,56657.875,9265,8,AZ,1,100,0.454
1570470247.010541,56671.000,9265,8,AZ,1,100,0.459
1570470247.027134,56684.000,9283,7,AZ,1,100,0.443
1570470247.043727,56697.000,9283,7,AZ,1,100,0.449
1570470247.060320,56710.000,9283,7,AZ,1,100,0.417
1570470247.076913,56723.000,9283,7,AZ,1,100,0.437
1570470247.093506,56736.000,9283,7,AZ,1,100,0.460
1570470247.110099,56749.000,9283,7,AZ,1,100,0.476
1570470247.126692,56762.000,9283,7,AZ,1,100,0.448
1570470247.143285,56775.000,9301,8,AZ,1,100,0.434
1570470247.159877,56788.000,9301,8,AZ,1,100,0.415
1570470247.176470,56801.000,9301,8,AZ,1,100,0.429
1570470247.193063,56814.000,9301,8,AZ,1,100,0.444
1570470247.209656,56827.000,9301,8,AZ,1,100,0.464
1570470247.226249,56840.000,9301,8,AZ,1,100,0.438
1570470247.242842,56853.000,9301,8,AZ,1,100,0.411
1570470247.259435,56866.000,9301,8,AZ,1,100,0.417
1570470247.275869,56878.875,9319,8,AZ,1,100,0.448
1570470247.292302,56891.750,9319,8,AZ,1,100,0.492
1570470247.308735,56904.625,9319,8,AZ,1,100,0.506
1570470247.325169,56917.500,9319,8,AZ,1,100,0.500
1570470247.341602,56930.375,9319,8,AZ,1,100,0.482
1570470247.358036,56943.250,9319,8,AZ,1,100,0.448
1570470247.374469,56956.125,9319,8,AZ,1,100,0.439
1570470247.390903,56969.000,9319,8,AZ,1,100,0.414
1570470247.407336,56981.875,9338,8,AZ,1,100,0.394
1570470247.423769,56994.750,9338,8,AZ,1,100,0.422
1570470247.440203,57007.625,9338,8,AZ,1,100,0.475
1570470247.456636,57020.500,9338,8,AZ,1,100,0.493
1570470247.473069,57033.375,9338,8,AZ,1,100,0.525
1570470247.489503,57046.250,9338,8,AZ,1,100,0.490
1570470247.505936,57059.125,9338,8,AZ,1,100,0.497
1570470247.522370,57072.000,9338,8,AZ,1,100,0.461
1570470247.538963,57085.000,9356,7,AZ,1,100,0.410
1570470247.555556,57098.000,9356,7,AZ,1,100,0.357
1570470247.572149,57111.000,9356,7,AZ,1,100,0.354
1570470247.588742,57124.000,9356,7,AZ,1,100,0.398
1570470247.605335,57137.000,9356,7,AZ,1,100,0.403
1570470247.621927,57150.000,9356,7,AZ,1,100,0.385
1570470247.638520,57163.000,9356,7,AZ,1,100,0.357
1570470247.655273,57176.125,9374,8,AZ,1,100,0.339
1570470247.672025,57189.250,9374,8,AZ,1,100,0.343
1570470247.688778,57202.375,9374,8,AZ,1,100,0.349
1570470247.705530,57215.500,9374,8,AZ,1,100,0.325
1570470247.722283,57228.625,9374,8,AZ,1,100,0.321
1570470247.739036,57241.750,9374,8,AZ,1,100,0.346
1570470247.755788,57254.875,9374,8,AZ,1,100,0.370
1570470247.772541,57268.000,9374,8,AZ,1,100,0.379
1570470247.789134,57281.000,9392,8,AZ,1,100,0.375
1570470247.805727,57294.000,9392,8,AZ,1,100,0.376
1570470247.822320,57307.000,9392,8,AZ,1,100,0.317
1570470247.838912,57320.000,9392,8,AZ,1,100,0.261
1570470247.855505,57333.000,9392,8,AZ,1,100,0.271
1570470247.872098,57346.000,9392,8,AZ,1,100,0.256
1570470247.888691,57359.000,9392,8,AZ,1,100,0.291
1570470247.905284,57372.000,9392,8,AZ,1,100,0.282
1570470247.922037,57385.125,9410,8,AZ,1,100,0.278
1570470247.938789,57398.250,9410,8,AZ,1,100,0.251
1570470247.955542,57411.375,9410,8,AZ,1,100,0.285
1570470247.972294,57424.500,9410,8,AZ,1,100,0.279
1570470247.989047,57437.625,9410,8,AZ,1,100,0.262
1570470248.005799,57450.750,9410,8,AZ,1,100,0.170
1570470248.022552,57463.875,9410,8,AZ,1,100,0.156
1570470248.039304,57477.000,9410,8,AZ,1,100,0.131
1570470248.056080,57490.143,9428,7,AZ,1,100,0.128
1570470248.072855,57503.286,9428,7,AZ,1,100,0.107
1570470248.089630,57516.429,9428,7,AZ,1,100,0.100
1570470248.106405,57529.571,9428,7,AZ,1,100,0.056
1570470248.123181,57542.714,9428,7,AZ,1,100,0.034
1570470248.139956,57555.857,9428,7,AZ,1,100,0.043
1570470248.156731,57569.000,9428,7,AZ,1,100,0.062
1570470248.173324,57582.000,9446,8,AZ,1,100,0.084
1570470248.189917,57595.000,9446,8,AZ,1,100,0.083
1570470248.206510,57608.000,9446,8,AZ,1,100,0.080
1570470248.223103,57621.000,9446,8,AZ,1,100,0.073
1570470248.239696,57634.000,9446,8,AZ,1,100,0.061
1570470248.256289,57647.000,9446,8,AZ,1,100,0.042
1570470248.272882,57660.000,9446,8,AZ,1,100,0.016
1570470248.289475,57673.000,9446,8,AZ,1,100,-0.014
1570470248.306228,57686.125,9463,8,AZ,1,100,-0.004
1570470248.322980,57699.250,9463,8,AZ,1,100,-0.017
1570470248.339733,57712.375,9463,8,AZ,1,100,-0.024
1570470248.356485,57725.500,9463,8,AZ,1,100,-0.016
1570470248.373238,57738.625,9463,8,AZ,1,100,-0.019
1570470248.389990,57751.750,9463,8,AZ,1,100,-0.021
1570470248.406743,57764.875,9463,8,AZ,1,100,-0.027
1570470248.423495,57778.000,9463,8,AZ,1,100,-0.013
1570470248.439929,57790.875,9482,8,AZ,1,100,-0.020
1570470248.456362,57803.750,9482,8,AZ,1,100,-0.049
1570470248.472795,57816.625,9482,8,AZ,1,100,-0.043
1570470248.489229,57829.500,9482,8,AZ,1,100,-0.059
1570470248.505662,57842.375,9482,8,AZ,1,100,-0.078
1570470248.522096,57855.250,9482,8,AZ,1,100,-0.073
1570470248.538529,57868.125,9482,8,AZ,1,100,-0.068
1570470248.554962,57881.000,9482,8,AZ,1,100,-0.048
1570470248.571738,57894.143,9500,7,AZ,1,100,-0.030
1570470248.588513,57907.286,9500,7,AZ,1,100,-0.023
1570470248.605288,57920.429,9500,7,AZ,1,100,-0.028
1570470248.622064,57933.571,9500,7,AZ,1,100,-0.034
1570470248.638839,57946.714,9500,7,AZ,1,100,-0.037
1570470248.655614,57959.857,9500,7,AZ,1,100,-0.024
1570470248.672390,57973.000,9500,7,AZ,1,100,-0.019
1570470248.689142,57986.125,9518,8,AZ,1,100,-0.008
1570470248.705894,57999.250,9518,8,AZ,1,100,-0.003
1570470248.722647,58012.375,9518,8,AZ,1,100,-0.002
1570470248.739399,58025.500,9518,8,AZ,1,100,-0.013
1570470248.756152,58038.625,9518,8,AZ,1,100,-0.006
1570470248.772905,58051.750,9518,8,AZ,1,100,-0.013
1570470248.789657,58064.875,9518,8,AZ,1,100,0.009
1570470248.806410,58078.000,9518,8,AZ,1,100,0.019
1570470248.823322,58091.250,9536,8,AZ,1,100,0.001
1570470248.840234,58104.500,9536,8,AZ,1,100,-0.009
1570470248.857146,58117.750,9536,8,AZ,1,100,-0.019
1570470248.874058,58131.000,9536,8,AZ,1,100,-0.018
1570470248.890970,58144.250,9536,8,AZ,1,100,-0.019
1570470248.907882,58157.500,9536,8,AZ,1,100,-0.011
1570470248.924794,58170.750,9536,8,AZ,1,100,0.016
1570470248.941706,58184.000,9536,8,AZ,1,100,0.008
1570470248.958458,58197.125,9554,8,AZ,1,100,0.004
1570470248.975211,58210.250,9554,8,AZ,1,100,0.022
1570470248.991964,58223.375,9554,8,AZ,1,100,0.017
1570470249.008716,58236.500,9554,8,AZ,1,100,0.021
1570470249.025469,58249.625,9554,8,AZ,1,100,0.019
1570470249.042221,58262.750,9554,8,AZ,1,100,0.016
1570470249.058974,58275.875,9554,8,AZ,1,100,0.014
1570470249.075726,58289.000,9554,8,AZ,1,100,-0.009
1570470249.092319,58302.000,9572,7,AZ,1,100,-0.010
1570470249.108912,58315.000,9572,7,AZ,1,100,0.003
1570470249.125505,58328.000,9572,7,AZ,1,100,0.007
1570470249.142098,58341.000,9572,7,AZ,1,100,0.016
1570470249.158691,58354.000,9572,7,AZ,1,100,-0.009
1570470249.175284,58367.000,9572,7,AZ,1,100,-0.001
1570470249.191877,58380.000,9572,7,AZ,1,100,-0.010
1570470249.208629,58393.125,9588,8,AZ,1,100,-0.011
1570470249.225382,58406.250,9588,8,AZ,1,100,-0.002
1570470249.242134,58419.375,9588,8,AZ,1,100,0.006
1570470249.258887,58432.500,9588,8,AZ,1,100,0.009
1570470249.275639,58445.625,9588,8,AZ,1,100,0.003
1570470249.292392,58458.750,9588,8,AZ,1,100,-0.003
1570470249.309144,58471.875,9588,8,AZ,1,100,0.007
1570470249.325897,58485.000,9588,8,AZ,1,100,0.006
1570470249.342649,58498.125,9606,8,AZ,1,100,0.007
1570470249.359402,58511.250,9606,8,AZ,1,100,0.012
1570470249.376154,58524.375,9606,8,AZ,1,100,-0.003
1570470249.392907,58537.500,9606,8,AZ,1,100,0.006
1570470249.409659,58550.625,9606,8,AZ,1,100,0.012
1570470249.426412,58563.750,9606,8,AZ,1,100,0.050
1570470249.443164,58576.875,9606,8,AZ,1,100,0.116
1570470249.459917,58590.000,9606,8,AZ,1,100,0.160
1570470249.476328,58602.857,9625,7,AZ,1,100,0.170
1570470249.492738,58615.714,9625,7,AZ,1,100,0.190
1570470249.509149,58628.571,9625,7,AZ,1,100,0.195
1570470249.525559,58641.429,9625,7,AZ,1,100,0.191
1570470249.541970,58654.286,9625,7,AZ,1,100,0.178
1570470249.558381,58667.143,9625,7,AZ,1,100,0.167
1570470249.574791,58680.000,9625,7,AZ,1,100,0.162
1570470249.591384,58693.000,9643,8,AZ,1,100,0.164
1570470249.607977,58706.000,9643,8,AZ,1,100,0.161
1570470249.624570,58719.000,9643,8,AZ,1,100,0.155
1570470249.641163,58732.000,9643,8,AZ,1,100,0.144
1570470249.657756,58745.000,9643,8,AZ,1,100,0.142
1570470249.674349,58758.000,9643,8,AZ,1,100,0.156
1570470249.690942,58771.000,9643,8,AZ,1,100,0.114
1570470249.707535,58784.000,9643,8,AZ,1,100,0.095
1570470249.724447,58797.250,9661,8,AZ,1,100,0.051
1570470249.741359,58810.500,9661,8,AZ,1,100,0.043
1570470249.758271,58823.750,9661,8,AZ,1,100,0.037
1570470249.775183,58837.000,9661,8,AZ,1,100,0.050
1570470249.792095,58850.250,9661,8,AZ,1,100,0.048
1570470249.809007,58863.500,9661,8,AZ,1,100,0.041
1570470249.825919,58876.750,9661,8,AZ,1,100,0.033
1570470249.842831,58890.000,9661,8,AZ,1,100,0.025
1570470249.859789,58903.286,9679,7,AZ,1,100,0.013
1570470249.876747,58916.571,9679,7,AZ,1,100,-0.048
1570470249.893704,58929.857,9679,7,AZ,1,100,-0.064
1570470249.910662,58943.143,9679,7,AZ,1,100,-0.069
1570470249.927620,58956.429,9679,7,AZ,1,100,-0.050
1570470249.944577,58969.714,9679,7,AZ,1,100,-0.064
1570470249.961535,58983.000,9679,7,AZ,1,100,-0.094
1570470249.978287,58996.125,9697,8,AZ,1,100,-0.097
1570470249.995040,59009.250,9697,8,AZ,1,100,-0.106
1570470250.011792,59022.375,9697,8,AZ,1,100,-0.098
1570470250.028545,59035.500,9697,8,AZ,1,100,-0.089
1570470250.045297,59048.625,9697,8,AZ,1,100,-0.083
1570470250.062050,59061.750,9697,8,AZ,1,100,-0.103
1570470250.078802,59074.875,9697,8,AZ,1,100,-0.098
1570470250.095555,59088.000,9697,8,AZ,1,100,-0.089
1570470250.112148,59101.000,9715,8,AZ,1,100,-0.054
1570470250.128741,59114.000,9715,8,AZ,1,100,-0.042
1570470250.145334,59127.000,9715,8,AZ,1,100,-0.033
1570470250.161927,59140.000,9715,8,AZ,1,100,-0.029
1570470250.178520,59153.000,9715,8,AZ,1,100,-0.014
1570470250.195113,59166.000,9715,8,AZ,1,100,-0.011
1570470250.211706,59179.000,9715,8,AZ,1,100,-0.005
1570470250.228299,59192.000,9715,8,AZ,1,100,0.007
1570470250.244732,59204.875,9733,8,AZ,1,100,0.027
1570470250.261165,59217.750,9733,8,AZ,1,100,0.046
1570470250.277599,59230.625,9733,8,AZ,1,100,0.051
1570470250.294032,59243.500,9733,8,AZ,1,100,0.065
1570470250.310466,59256.375,9733,8,AZ,1,100,0.058
1570470250.326899,59269.250,9733,8,AZ,1,100,0.065
1570470250.343333,59282.125,9733,8,AZ,1,100,0.083
1570470250.359766,59295.000,9733,8,AZ,1,100,0.101
1570470250.375994,59307.714,9751,7,AZ,1,100,0.116
1570470250.392222,59320.429,9751,7,AZ,1,100,0.128
1570470250.408451,59333.143,9751,7,AZ,1,100,0.144
1570470250.424679,59345.857,9751,7,AZ,1,100,0.146
1570470250.440907,59358.571,9751,7,AZ,1,100,0.157
1570470250.457136,59371.286,9751,7,AZ,1,100,0.163
1570470250.473364,59384.000,9751,7,AZ,1,100,0.180
1570470250.489957,59397.000,9770,8,AZ,1,100,0.200
1570470250.506550,59410.000,9770,8,AZ,1,100,0.198
1570470250.523143,59423.000,9770,8,AZ,1,100,0.222
1570470250.539736,59436.000,9770,8,AZ,1,100,0.221
1570470250.556329,59449.000,9770,8,AZ,1,100,0.225
1570470250.572922,59462.000,9770,8,AZ,1,100,0.236
1570470250.589514,59475.000,9770,8,AZ,1,100,0.241
1570470250.606107,59488.000,9770,8,AZ,1,100,0.258
1570470250.622860,59501.125,9788,8,AZ,1,100,0.257
1570470250.639612,59514.250,9788,8,AZ,1,100,0.273
1570470250.656365,59527.375,9788,8,AZ,1,100,0.274
1570470250.673118,59540.500,9788,8,AZ,1,100,0.278
1570470250.689870,59553.625,9788,8,AZ,1,100,0.283
1570470250.706623,59566.750,9788,8,AZ,1,100,0.289
1570470250.723375,59579.875,9788,8,AZ,1,100,0.296
1570470250.740128,59593.000,9788,8,AZ,1,100,0.297
1570470250.756561,59605.875,9806,8,AZ,1,100,0.321
1570470250.772995,59618.750,9806,8,AZ,1,100,0.343
1570470250.789428,59631.625,9806,8,AZ,1,100,0.350
1570470250.805861,59644.500,9806,8,AZ,1,100,0.353
1570470250.822295,59657.375,9806,8,AZ,1,100,0.358
1570470250.838728,59670.250,9806,8,AZ,1,100,0.354
1570470250.855161,59683.125,9806,8,AZ,1,100,0.372
1570470250.871595,59696.000,9806,8,AZ,1,100,0.385
1570470250.888507,59709.250,9824,8,AZ,1,100,0.379
1570470250.905419,59722.500,9824,8,AZ,1,100,0.373
1570470250.922331,59735.750,9824,8,AZ,1,100,0.379
1570470250.939243,59749.000,9824,8,AZ,1,100,0.379
1570470250.956155,59762.250,9824,8,AZ,1,100,0.387
1570470250.973067,59775.500,9824,8,AZ,1,100,0.398
1570470250.989979,59788.750,9824,8,AZ,1,100,0.416
1570470251.006891,59802.000,9824,8,AZ,1,100,0.438
1570470251.023667,59815.143,9842,7,AZ,1,100,0.428
1570470251.040442,59828.286,9842,7,AZ,1,100,0.428
1570470251.057217,59841.429,9842,7,AZ,1,100,0.407
1570470251.073992,59854.571,9842,7,AZ,1,100,0.411
1570470251.090768,59867.714,9842,7,AZ,1,100,0.412
1570470251.107543,59880.857,9842,7,AZ,1,100,0.404
1570470251.124318,59894.000,9842,7,AZ,1,100,0.408
1570470251.140911,59907.000,9860,8,AZ,1,100,0.430
1570470251.157504,59920.000,9860,8,AZ,1,100,0.450
1570470251.174097,59933.000,9860,8,AZ,1,100,0.439
1570470251.190690,59946.000,9860,8,AZ,1,100,0.440
1570470251.207283,59959.000,9860,8,AZ,1,100,0.426
1570470251.223876,59972.000,9860,8,AZ,1,100,0.427
1570470251.240469,59985.000,9860,8,AZ,1,100,0.412
1570470251.257062,59998.000,9860,8,AZ,1,100,0.402
1570470251.273655,60011.000,9878,8,AZ,1,100,0.398
1570470251.290248,60024.000,9878,8,AZ,1,100,0.400
1570470251.306841,60037.000,9878,8,AZ,1,100,0.388
1570470251.323434,60050.000,9878,8,AZ,1,100,0.382
1570470251.340027,60063.000,9878,8,AZ,1,100,0.366
1570470251.356620,60076.000,9878,8,AZ,1,100,0.378
1570470251.373213,60089.000,9878,8,AZ,1,100,0.368
1570470251.389806,60102.000,9878,8,AZ,1,100,0.381
1570470251.406216,60114.857,9896,7,AZ,1,100,0.380
1570470251.422627,60127.714,9896,7,AZ,1,100,0.394
1570470251.439038,60140.571,9896,7,AZ,1,100,0.414
1570470251.455448,60153.429,9896,7,AZ,1,100,0.417
1570470251.471859,60166.286,9896,7,AZ,1,100,0.420
1570470251.488270,60179.143,9896,7,AZ,1,100,0.402
1570470251.504680,60192.000,9896,7,AZ,1,100,0.396
1570470251.521273,60205.000,9915,8,AZ,1,100,0.382
1570470251.537866,60218.000,9915,8,AZ,1,100,0.381
1570470251.554459,60231.000,9915,8,AZ,1,100,0.388
1570470251.571052,60244.000,9915,8,AZ,1,100,0.401
1570470251.587645,60257.000,9915,8,AZ,1,100,0.427
1570470251.604238,60270.000,9915,8,AZ,1,100,0.423
1570470251.620831,60283.000,9915,8,AZ,1,100,0.433
1570470251.637424,60296.000,9915,8,AZ,1,100,0.424
1570470251.654176,60309.125,9933,8,AZ,1,100,0.443
1570470251.670929,60322.250,9933,8,AZ,1,100,0.457
1570470251.687681,60335.375,9933,8,AZ,1,100,0.463
1570470251.704434,60348.500,9933,8,AZ,1,100,0.471
1570470251.721186,60361.625,9933,8,AZ,1,100,0.478
1570470251.737939,60374.750,9933,8,AZ,1,100,0.482
1570470251.754691,60387.875,9933,8,AZ,1,100,0.488
1570470251.771444,60401.000,9933,8,AZ,1,100,0.488
1570470251.788196,60414.125,9951,8,AZ,1,100,0.484
1570470251.804949,60427.250,9951,8,AZ,1,100,0.470
1570470251.821701,60440.375,9951,8,AZ,1,100,0.458
1570470251.838454,60453.500,9951,8,AZ,1,100,0.452
1570470251.855206,60466.625,9951,8,AZ,1,100,0.459
1570470251.871959,60479.750,9951,8,AZ,1,100,0.460
1570470251.888711,60492.875,9951,8,AZ,1,100,0.477
1570470251.905464,60506.000,9951,8,AZ,1,100,0.474
1570470251.922604,60519.429,9969,7,AZ,1,100,0.454
1570470251.939744,60532.857,9969,7,AZ,1,100,0.450
1570470251.956884,60546.286,9969,7,AZ,1,100,0.456
1570470251.974024,60559.714,9969,7,AZ,1,100,0.453
1570470251.991164,60573.143,9969,7,AZ,1,100,0.444
1570470252.008304,60586.571,9969,7,AZ,1,100,0.431
1570470252.025444,60600.000,9969,7,AZ,1,100,0.437
1570470252.042037,60613.000,9987,8,AZ,1,100,0.442
1570470252.058630,60626.000,9987,8,AZ,1,100,0.440
1570470252.075223,60639.000,9987,8,AZ,1,100,0.440
1570470252.091816,60652.000,9987,8,AZ,1,100,0.426
1570470252.108409,60665.000,9987,8,AZ,1,100,0.417
1570470252.125002,60678.000,9987,8,AZ,1,100,0.407
1570470252.141594,60691.000,9987,8,AZ,1,100,0.422
1570470252.158187,60704.000,9987,8,AZ,1,100,0.401
1570470252.174940,60717.125,10004,8,AZ,1,100,0.404
1570470252.191693,60730.250,10004,8,AZ,1,100,0.393
1570470252.208445,60743.375,10004,8,AZ,1,100,0.402
1570470252.225198,60756.500,10004,8,AZ,1,100,0.424
1570470252.241950,60769.625,10004,8,AZ,1,100,0.443
1570470252.258703,60782.750,10004,8,AZ,1,100,0.447
1570470252.275455,60795.875,10004,8,AZ,1,100,0.447
1570470252.292207,60809.000,10004,8,AZ,1,100,0.442
1570470252.308618,60821.857,10022,7,AZ,1,100,0.444
1570470252.325029,60834.714,10022,7,AZ,1,100,0.454
1570470252.341439,60847.571,10022,7,AZ,1,100,0.424
1570470252.357850,60860.429,10022,7,AZ,1,100,0.417
1570470252.374261,60873.286,10022,7,AZ,1,100,0.403
1570470252.390671,60886.143,10022,7,AZ,1,100,0.396
1570470252.407082,60899.000,10022,7,AZ,1,100,0.402
1570470252.423773,60912.077,10043,13,AZ,1,100,0.407
1570470252.440464,60925.154,10043,13,AZ,1,100,0.432
1570470252.457155,60938.231,10043,13,AZ,1,100,0.443
1570470252.473846,60951.308,10043,13,AZ,1,100,0.430
1570470252.490538,60964.385,10043,13,AZ,1,100,0.426
1570470252.507229,60977.462,10043,13,AZ,1,100,0.429
1570470252.523920,60990.538,10043,13,AZ,1,100,0.433
1570470252.540611,61003.615,10043,13,AZ,1,100,0.435
1570470252.557302,61016.692,10043,13,AZ,1,100,0.438
1570470252.573993,61029.769,10043,13,AZ,1,100,0.431
1570470252.590684,61042.846,10043,13,AZ,1,100,0.421
1570470252.607376,61055.923,10043,13,AZ,1,100,0.425
1570470252.624067,61069.000,10043,13,AZ,1,100,0.420
1570470252.640660,61082.000,10064,8,AZ,1,100,0.423
1570470252.657253,61095.000,10064,8,AZ,1,100,0.428
1570470252.673846,61108.000,10064,8,AZ,1,100,0.421
1570470252.690439,61121.000,10064,8,AZ,1,100,0.427
1570470252.707031,61134.000,10064,8,AZ,1,100,0.429
1570470252.723624,61147.000,10064,8,AZ,1,100,0.423
1570470252.740217,61160.000,10064,8,AZ,1,100,0.418
1570470252.756810,61173.000,10064,8,AZ,1,100,0.417
1570470252.773403,61186.000,10082,7,AZ,1,100,0.414
1570470252.789996,61199.000,10082,7,AZ,1,100,0.423
1570470252.806589,61212.000,10082,7,AZ,1,100,0.430
1570470252.823182,61225.000,10082,7,AZ,1,100,0.429
1570470252.839775,61238.000,10082,7,AZ,1,100,0.431
1570470252.856368,61251.000,10082,7,AZ,1,100,0.427
1570470252.872961,61264.000,10082,7,AZ,1,100,0.431
1570470252.889873,61277.250,10100,8,AZ,1,100,0.450
1570470252.906785,61290.500,10100,8,AZ,1,100,0.457
1570470252.923697,61303.750,10100,8,AZ,1,100,0.434
1570470252.940609,61317.000,10100,8,AZ,1,100,0.427
1570470252.957521,61330.250,10100,8,AZ,1,100,0.418
1570470252.974433,61343.500,10100,8,AZ,1,100,0.422
1570470252.991345,61356.750,10100,8,AZ,1,100,0.415
1570470253.008258,61370.000,10100,8,AZ,1,100,0.414
1570470253.025010,61383.125,10118,8,AZ,1,100,0.417
1570470253.041763,61396.250,10118,8,AZ,1,100,0.413
1570470253.058515,61409.375,10118,8,AZ,1,100,0.415
1570470253.075268,61422.500,10118,8,AZ,1,100,0.417
1570470253.092020,61435.625,10118,8,AZ,1,100,0.424
1570470253.108773,61448.750,10118,8,AZ,1,100,0.425
1570470253.125525,61461.875,10118,8,AZ,1,100,0.426
1570470253.142278,61475.000,10118,8,AZ,1,100,0.419
1570470253.159235,61488.286,10136,7,AZ,1,100,0.407
1570470253.176193,61501.571,10136,7,AZ,1,100,0.402
1570470253.193151,61514.857,10136,7,AZ,1,100,0.408
1570470253.210108,61528.143,10136,7,AZ,1,100,0.416
1570470253.227066,61541.429,10136,7,AZ,1,100,0.421
1570470253.244024,61554.714,10136,7,AZ,1,100,0.407
1570470253.260981,61568.000,10136,7,AZ,1,100,0.398
1570470253.277415,61580.875,10154,8,AZ,1,100,0.401
1570470253.293848,61593.750,10154,8,AZ,1,100,0.406
1570470253.310281,61606.625,10154,8,AZ,1,100,0.409
1570470253.326715,61619.500,10154,8,AZ,1,100,0.410
1570470253.343148,61632.375,10154,8,AZ,1,100,0.394
1570470253.359581,61645.250,10154,8,AZ,1,100,0.382
1570470253.376015,61658.125,10154,8,AZ,1,100,0.370
1570470253.392448,61671.000,10154,8,AZ,1,100,0.378
1570470253.408882,61683.875,10172,8,AZ,1,100,0.378
1570470253.425315,61696.750,10172,8,AZ,1,100,0.375
1570470253.441749,61709.625,10172,8,AZ,1,100,0.369
1570470253.458182,61722.500,10172,8,AZ,1,100,0.372
1570470253.474616,61735.375,10172,8,AZ,1,100,0.381
1570470253.491049,61748.250,10172,8,AZ,1,100,0.385
1570470253.507482,61761.125,10172,8,AZ,1,100,0.391
1570470253.523916,61774.000,10172,8,AZ,1,100,0.388
1570470253.540509,61787.000,10191,8,AZ,1,100,0.396
1570470253.557102,61800.000,10191,8,AZ,1,100,0.385
1570470253.573694,61813.000,10191,8,AZ,1,100,0.385
1570470253.590287,61826.000,10191,8,AZ,1,100,0.376
1570470253.606880,61839.000,10191,8,AZ,1,100,0.381
1570470253.623473,61852.000,10191,8,AZ,1,100,0.379
1570470253.640066,61865.000,10191,8,AZ,1,100,0.381
1570470253.656659,61878.000,10191,8,AZ,1,100,0.380
1570470253.673093,61890.875,10209,8,AZ,1,100,0.393
1570470253.689526,61903.750,10209,8,AZ,1,100,0.396
1570470253.705960,61916.625,10209,8,AZ,1,100,0.399
1570470253.722393,61929.500,10209,8,AZ,1,100,0.400
1570470253.738827,61942.375,10209,8,AZ,1,100,0.401
1570470253.755260,61955.250,10209,8,AZ,1,100,0.392
1570470253.771693,61968.125,10209,8,AZ,1,100,0.390
1570470253.788127,61981.000,10209,8,AZ,1,100,0.391
1570470253.804537,61993.857,10227,7,AZ,1,100,0.394
1570470253.820948,62006.714,10227,7,AZ,1,100,0.405
1570470253.837358,62019.571,10227,7,AZ,1,100,0.410
1570470253.853769,62032.429,10227,7,AZ,1,100,0.415
1570470253.870180,62045.286,10227,7,AZ,1,100,0.412
1570470253.886590,62058.143,10227,7,AZ,1,100,0.407
1570470253.903001,62071.000,10227,7,AZ,1,100,0.409
1570470253.919754,62084.125,10245,8,AZ,1,100,0.417
1570470253.936506,62097.250,10245,8,AZ,1,100,0.418
1570470253.953259,62110.375,10245,8,AZ,1,100,0.421
1570470253.970011,62123.500,10245,8,AZ,1,100,0.419
1570470253.986763,62136.625,10245,8,AZ,1,100,0.410
1570470254.003516,62149.750,10245,8,AZ,1,100,0.413
1570470254.020269,62162.875,10245,8,AZ,1,100,0.411
1570470254.037021,62176.000,10245,8,AZ,1,100,0.408
1570470254.053774,62189.125,10263,8,AZ,1,100,0.411
1570470254.070526,62202.250,10263,8,AZ,1,100,0.405
1570470254.087279,62215.375,10263,8,AZ,1,100,0.395
1570470254.104031,62228.500,10263,8,AZ,1,100,0.394
1570470254.120784,62241.625,10263,8,AZ,1,100,0.404
1570470254.137536,62254.750,10263,8,AZ,1,100,0.409
1570470254.154289,62267.875,10263,8,AZ,1,100,0.410
1570470254.171041,62281.000,10263,8,AZ,1,100,0.413
1570470254.187634,62294.000,10281,8,AZ,1,100,0.406
1570470254.204227,62307.000,10281,8,AZ,1,100,0.393
1570470254.220820,62320.000,10281,8,AZ,1,100,0.384
1570470254.237413,62333.000,10281,8,AZ,1,100,0.406
1570470254.254006,62346.000,10281,8,AZ,1,100,0.412
1570470254.270599,62359.000,10281,8,AZ,1,100,0.426
1570470254.287192,62372.000,10281,8,AZ,1,100,0.399
1570470254.303785,62385.000,10281,8,AZ,1,100,0.383
1570470254.320378,62398.000,10299,7,AZ,1,100,0.369
1570470254.336971,62411.000,10299,7,AZ,1,100,0.400
1570470254.353564,62424.000,10299,7,AZ,1,100,0.409
1570470254.370157,62437.000,10299,7,AZ,1,100,0.416
1570470254.386750,62450.000,10299,7,AZ,1,100,0.406
1570470254.403342,62463.000,10299,7,AZ,1,100,0.406
1570470254.419935,62476.000,10299,7,AZ,1,100,0.395
1570470254.436688,62489.125,10317,8,AZ,1,100,0.391
1570470254.453441,62502.250,10317,8,AZ,1,100,0.383
1570470254.470193,62515.375,10317,8,AZ,1,100,0.383
1570470254.486946,62528.500,10317,8,AZ,1,100,0.392
1570470254.503698,62541.625,10317,8,AZ,1,100,0.402
1570470254.520451,62554.750,10317,8,AZ,1,100,0.409
1570470254.537203,62567.875,10317,8,AZ,1,100,0.414
1570470254.553956,62581.000,10317,8,AZ,1,100,0.420
1570470254.570549,62594.000,10335,8,AZ,1,100,0.423
1570470254.587142,62607.000,10335,8,AZ,1,100,0.421
1570470254.603734,62620.000,10335,8,AZ,1,100,0.417
1570470254.620327,62633.000,10335,8,AZ,1,100,0.414
1570470254.636920,62646.000,10335,8,AZ,1,100,0.416
1570470254.653513,62659.000,10335,8,AZ,1,100,0.419
1570470254.670106,62672.000,10335,8,AZ,1,100,0.425
1570470254.686699,62685.000,10335,8,AZ,1,100,0.420
1570470254.703133,62697.875,10353,8,AZ,1,100,0.417
1570470254.719566,62710.750,10353,8,AZ,1,100,0.415
1570470254.736000,62723.625,10353,8,AZ,1,100,0.417
1570470254.752433,62736.500,10353,8,AZ,1,100,0.422
1570470254.768866,62749.375,10353,8,AZ,1,100,0.422
1570470254.785300,62762.250,10353,8,AZ,1,100,0.419
1570470254.801733,62775.125,10353,8,AZ,1,100,0.424
1570470254.818166,62788.000,10353,8,AZ,1,100,0.426
1570470254.834942,62801.143,10371,7,AZ,1,100,0.428
1570470254.851717,62814.286,10371,7,AZ,1,100,0.429
1570470254.868492,62827.429,10371,7,AZ,1,100,0.431
1570470254.885268,62840.571,10371,7,AZ,1,100,0.428
1570470254.902043,62853.714,10371,7,AZ,1,100,0.432
1570470254.918818,62866.857,10371,7,AZ,1,100,0.438
1570470254.935594,62880.000,10371,7,AZ,1,100,0.436
1570470254.952346,62893.125,10389,8,AZ,1,100,0.420
1570470254.969099,62906.250,10389,8,AZ,1,100,0.426
1570470254.985851,62919.375,10389,8,AZ,1,100,0.419
1570470255.002604,62932.500,10389,8,AZ,1,100,0.425
1570470255.019356,62945.625,10389,8,AZ,1,100,0.432
1570470255.036109,62958.750,10389,8,AZ,1,100,0.445
1570470255.052861,62971.875,10389,8,AZ,1,100,0.438
1570470255.069614,62985.000,10389,8,AZ,1,100,0.439
1570470255.086366,62998.125,10407,8,AZ,1,100,0.445
1570470255.103119,63011.250,10407,8,AZ,1,100,0.454
1570470255.119871,63024.375,10407,8,AZ,1,100,0.451
1570470255.136624,63037.500,10407,8,AZ,1,100,0.455
1570470255.153376,63050.625,10407,8,AZ,1,100,0.457
1570470255.170129,63063.750,10407,8,AZ,1,100,0.450
1570470255.186881,63076.875,10407,8,AZ,1,100,0.451
1570470255.203634,63090.000,10407,8,AZ,1,100,0.451
1570470255.220774,63103.429,10425,7,AZ,1,100,0.463
1570470255.237914,63116.857,10425,7,AZ,1,100,0.460
1570470255.255054,63130.286,10425,7,AZ,1,100,0.464
1570470255.272194,63143.714,10425,7,AZ,1,100,0.462
1570470255.289334,63157.143,10425,7,AZ,1,100,0.458
1570470255.306474,63170.571,10425,7,AZ,1,100,0.451
1570470255.323614,63184.000,10425,7,AZ,1,100,0.447
1570470255.340366,63197.125,10443,8,AZ,1,100,0.446
1570470255.357119,63210.250,10443,8,AZ,1,100,0.454
1570470255.373871,63223.375,10443,8,AZ,1,100,0.458
1570470255.390624,63236.500,10443,8,AZ,1,100,0.451
1570470255.407376,63249.625,10443,8,AZ,1,100,0.449
1570470255.424129,63262.750,10443,8,AZ,1,100,0.448
1570470255.440881,63275.875,10443,8,AZ,1,100,0.448
1570470255.457634,63289.000,10443,8,AZ,1,100,0.453
1570470255.473907,63301.750,10460,8,AZ,1,100,0.462
1570470255.490181,63314.500,10460,8,AZ,1,100,0.455
1570470255.506455,63327.250,10460,8,AZ,1,100,0.440
1570470255.522729,63340.000,10460,8,AZ,1,100,0.444
1570470255.539003,63352.750,10460,8,AZ,1,100,0.445
1570470255.555277,63365.500,10460,8,AZ,1,100,0.454
1570470255.571551,63378.250,10460,8,AZ,1,100,0.461
1570470255.587825,63391.000,10460,8,AZ,1,100,0.460
1570470255.604418,63404.000,10478,7,AZ,1,100,0.462
1570470255.621011,63417.000,10478,7,AZ,1,100,0.466
1570470255.637604,63430.000,10478,7,AZ,1,100,0.463
1570470255.654197,63443.000,10478,7,AZ,1,100,0.455
1570470255.670789,63456.000,10478,7,AZ,1,100,0.451
1570470255.687382,63469.000,10478,7,AZ,1,100,0.450
1570470255.703975,63482.000,10478,7,AZ,1,100,0.442
1570470255.720568,63495.000,10496,8,AZ,1,100,0.437
1570470255.737161,63508.000,10496,8,AZ,1,100,0.440
1570470255.753754,63521.000,10496,8,AZ,1,100,0.438
1570470255.770347,63534.000,10496,8,AZ,1,100,0.436
1570470255.786940,63547.000,10496,8,AZ,1,100,0.439
1570470255.803533,63560.000,10496,8,AZ,1,100,0.430
1570470255.820126,63573.000,10496,8,AZ,1,100,0.428
1570470255.836719,63586.000,10496,8,AZ,1,100,0.434
1570470255.853631,63599.250,10514,8,AZ,1,100,0.441
1570470255.870543,63612.500,10514,8,AZ,1,100,0.447
1570470255.887455,63625.750,10514,8,AZ,1,100,0.441
1570470255.904367,63639.000,10514,8,AZ,1,100,0.431
1570470255.921279,63652.250,10514,8,AZ,1,100,0.422
1570470255.938191,63665.500,10514,8,AZ,1,100,0.421
1570470255.955103,63678.750,10514,8,AZ,1,100,0.427
1570470255.972015,63692.000,10514,8,AZ,1,100,0.431
1570470255.988608,63705.000,10532,8,AZ,1,100,0.434
1570470256.005201,63718.000,10532,8,AZ,1,100,0.439
1570470256.021794,63731.000,10532,8,AZ,1,100,0.436
1570470256.038387,63744.000,10532,8,AZ,1,100,0.431
1570470256.054980,63757.000,10532,8,AZ,1,100,0.436
1570470256.071573,63770.000,10532,8,AZ,1,100,0.439
1570470256.088166,63783.000,10532,8,AZ,1,100,0.440
1570470256.104759,63796.000,10532,8,AZ,1,100,0.443
1570470256.121717,63809.286,10550,7,AZ,1,100,0.444
1570470256.138674,63822.571,10550,7,AZ,1,100,0.446
1570470256.155632,63835.857,10550,7,AZ,1,100,0.447
1570470256.172590,63849.143,10550,7,AZ,1,100,0.446
1570470256.189547,63862.429,10550,7,AZ,1,100,0.447
1570470256.206505,63875.714,10550,7,AZ,1,100,0.450
1570470256.223463,63889.000,10550,7,AZ,1,100,0.446
1570470256.240375,63902.250,10568,8,AZ,1,100,0.439
1570470256.257287,63915.500,10568,8,AZ,1,100,0.433
1570470256.274199,63928.750,10568,8,AZ,1,100,0.439
1570470256.291111,63942.000,10568,8,AZ,1,100,0.438
1570470256.308023,63955.250,10568,8,AZ,1,100,0.439
1570470256.324935,63968.500,10568,8,AZ,1,100,0.436
1570470256.341847,63981.750,10568,8,AZ,1,100,0.443
1570470256.358759,63995.000,10568,8,AZ,1,100,0.447
1570470256.375352,64008.000,10586,8,AZ,1,100,0.435
1570470256.391945,64021.000,10586,8,AZ,1,100,0.427
1570470256.408538,64034.000,10586,8,AZ,1,100,0.427
1570470256.425131,64047.000,10586,8,AZ,1,100,0.432
1570470256.441724,64060.000,10586,8,AZ,1,100,0.435
1570470256.458317,64073.000,10586,8,AZ,1,100,0.449
1570470256.474910,64086.000,10586,8,AZ,1,100,0.445
1570470256.491503,64099.000,10586,8,AZ,1,100,0.449
1570470256.507777,64111.750,10604,8,AZ,1,100,0.454
1570470256.524050,64124.500,10604,8,AZ,1,100,0.444
1570470256.540324,64137.250,10604,8,AZ,1,100,0.439
1570470256.556598,64150.000,10604,8,AZ,1,100,0.442
1570470256.572872,64162.750,10604,8,AZ,1,100,0.439
1570470256.589146,64175.500,10604,8,AZ,1,100,0.447
1570470256.605420,64188.250,10604,8,AZ,1,100,0.451
1570470256.621694,64201.000,10604,8,AZ,1,100,0.442
1570470256.638287,64214.000,10623,8,AZ,1,100,0.443
1570470256.654880,64227.000,10623,8,AZ,1,100,0.444
1570470256.671473,64240.000,10623,8,AZ,1,100,0.434
1570470256.688066,64253.000,10623,8,AZ,1,100,0.426
1570470256.704659,64266.000,10623,8,AZ,1,100,0.435
1570470256.721251,64279.000,10623,8,AZ,1,100,0.444
1570470256.737844,64292.000,10623,8,AZ,1,100,0.443
1570470256.754437,64305.000,10623,8,AZ,1,100,0.434
1570470256.770666,64317.714,10641,7,AZ,1,100,0.436
1570470256.786894,64330.429,10641,7,AZ,1,100,0.430
1570470256.803122,64343.143,10641,7,AZ,1,100,0.417
1570470256.819350,64355.857,10641,7,AZ,1,100,0.422
1570470256.835579,64368.571,10641,7,AZ,1,100,0.431
1570470256.851807,64381.286,10641,7,AZ,1,100,0.446
1570470256.868035,64394.000,10641,7,AZ,1,100,0.449
1570470256.884947,64407.250,10659,8,AZ,1,100,0.447
1570470256.901860,64420.500,10659,8,AZ,1,100,0.449
1570470256.918772,64433.750,10659,8,AZ,1,100,0.437
1570470256.935683,64447.000,10659,8,AZ,1,100,0.436
1570470256.952595,64460.250,10659,8,AZ,1,100,0.437
1570470256.969508,64473.500,10659,8,AZ,1,100,0.438
1570470256.986420,64486.750,10659,8,AZ,1,100,0.450
1570470257.003332,64500.000,10659,8,AZ,1,100,0.460
1570470257.020084,64513.125,10677,8,AZ,1,100,0.453
1570470257.036837,64526.250,10677,8,AZ,1,100,0.435
1570470257.053589,64539.375,10677,8,AZ,1,100,0.431
1570470257.070342,64552.500,10677,8,AZ,1,100,0.424
1570470257.087094,64565.625,10677,8,AZ,1,100,0.425
1570470257.103847,64578.750,10677,8,AZ,1,100,0.427
1570470257.120599,64591.875,10677,8,AZ,1,100,0.438
1570470257.137352,64605.000,10677,8,AZ,1,100,0.445
1570470257.153785,64617.875,10695,8,AZ,1,100,0.444
1570470257.170219,64630.750,10695,8,AZ,1,100,0.438
1570470257.186652,64643.625,10695,8,AZ,1,100,0.435
1570470257.203085,64656.500,10695,8,AZ,1,100,0.440
1570470257.219519,64669.375,10695,8,AZ,1,100,0.436
1570470257.235952,64682.250,10695,8,AZ,1,100,0.432
1570470257.252386,64695.125,10695,8,AZ,1,100,0.430
1570470257.268819,64708.000,10695,8,AZ,1,100,0.431
1570470257.285959,64721.429,10713,7,AZ,1,100,0.436
1570470257.303099,64734.857,10713,7,AZ,1,100,0.438
1570470257.320239,64748.286,10713,7,AZ,1,100,0.441
1570470257.337379,64761.714,10713,7,AZ,1,100,0.442
1570470257.354519,64775.143,10713,7,AZ,1,100,0.437
1570470257.371659,64788.571,10713,7,AZ,1,100,0.431
1570470257.388799,64802.000,10713,7,AZ,1,100,0.436
1570470257.405392,64815.000,10731,8,AZ,1,100,0.438
1570470257.421985,64828.000,10731,8,AZ,1,100,0.439
1570470257.438578,64841.000,10731,8,AZ,1,100,0.442
1570470257.455171,64854.000,10731,8,AZ,1,100,0.442
1570470257.471764,64867.000,10731,8,AZ,1,100,0.432
1570470257.488357,64880.000,10731,8,AZ,1,100,0.426
1570470257.504950,64893.000,10731,8,AZ,1,100,0.424
1570470257.521543,64906.000,10731,8,AZ,1,100,0.434
1570470257.537976,64918.875,10749,8,AZ,1,100,0.437
1570470257.554410,64931.750,10749,8,AZ,1,100,0.443
1570470257.570843,64944.625,10749,8,AZ,1,100,0.441
1570470257.587276,64957.500,10749,8,AZ,1,100,0.443
1570470257.603710,64970.375,10749,8,AZ,1,100,0.439
1570470257.620143,64983.250,10749,8,AZ,1,100,0.435
1570470257.636577,64996.125,10749,8,AZ,1,100,0.434
1570470257.653010,65009.000,10749,8,AZ,1,100,0.436
1570470257.669603,65022.000,10768,8,AZ,1,100,0.437
1570470257.686196,65035.000,10768,8,AZ,1,100,0.439
1570470257.702789,65048.000,10768,8,AZ,1,100,0.444
1570470257.719382,65061.000,10768,8,AZ,1,100,0.448
1570470257.735975,65074.000,10768,8,AZ,1,100,0.442
1570470257.752568,65087.000,10768,8,AZ,1,100,0.433
1570470257.769161,65100.000,10768,8,AZ,1,100,0.424
1570470257.785754,65113.000,10768,8,AZ,1,100,0.427
1570470257.802164,65125.857,10786,7,AZ,1,100,0.427
1570470257.818575,65138.714,10786,7,AZ,1,100,0.429
1570470257.834985,65151.571,10786,7,AZ,1,100,0.427
1570470257.851396,65164.429,10786,7,AZ,1,100,0.440
1570470257.867807,65177.286,10786,7,AZ,1,100,0.441
1570470257.884217,65190.143,10786,7,AZ,1,100,0.431
1570470257.900628,65203.000,10786,7,AZ,1,100,0.428
1570470257.917540,65216.250,10804,8,AZ,1,100,0.425
1570470257.934452,65229.500,10804,8,AZ,1,100,0.417
1570470257.951364,65242.750,10804,8,AZ,1,100,0.419
1570470257.968276,65256.000,10804,8,AZ,1,100,0.435
1570470257.985188,65269.250,10804,8,AZ,1,100,0.440
1570470258.002100,65282.500,10804,8,AZ,1,100,0.439
1570470258.019012,65295.750,10804,8,AZ,1,100,0.441
1570470258.035924,65309.000,10804,8,AZ,1,100,0.440
1570470258.052677,65322.125,10822,8,AZ,1,100,0.433
1570470258.069429,65335.250,10822,8,AZ,1,100,0.424
1570470258.086182,65348.375,10822,8,AZ,1,100,0.430
1570470258.102934,65361.500,10822,8,AZ,1,100,0.438
1570470258.119687,65374.625,10822,8,AZ,1,100,0.447
1570470258.136440,65387.750,10822,8,AZ,1,100,0.444
1570470258.153192,65400.875,10822,8,AZ,1,100,0.431
1570470258.169945,65414.000,10822,8,AZ,1,100,0.426
1570470258.186902,65427.286,10840,7,AZ,1,100,0.424
1570470258.203860,65440.571,10840,7,AZ,1,100,0.432
1570470258.220817,65453.857,10840,7,AZ,1,100,0.438
1570470258.237775,65467.143,10840,7,AZ,1,100,0.439
1570470258.254733,65480.429,10840,7,AZ,1,100,0.439
1570470258.271690,65493.714,10840,7,AZ,1,100,0.435
1570470258.288648,65507.000,10840,7,AZ,1,100,0.434
1570470258.305400,65520.125,10858,8,AZ,1,100,0.433
1570470258.322153,65533.250,10858,8,AZ,1,100,0.432
1570470258.338906,65546.375,10858,8,AZ,1,100,0.437
1570470258.355658,65559.500,10858,8,AZ,1,100,0.444
1570470258.372411,65572.625,10858,8,AZ,1,100,0.434
1570470258.389163,65585.750,10858,8,AZ,1,100,0.429
1570470258.405915,65598.875,10858,8,AZ,1,100,0.429
1570470258.422668,65612.000,10858,8,AZ,1,100,0.434
1570470258.439101,65624.875,10875,8,AZ,1,100,0.438
1570470258.455535,65637.750,10875,8,AZ,1,100,0.434
1570470258.471968,65650.625,10875,8,AZ,1,100,0.435
1570470258.488402,65663.500,10875,8,AZ,1,100,0.433
1570470258.504835,65676.375,10875,8,AZ,1,100,0.435
1570470258.521268,65689.250,10875,8,AZ,1,100,0.433
1570470258.537702,65702.125,10875,8,AZ,1,100,0.435
1570470258.554135,65715.000,10875,8,AZ,1,100,0.438
1570470258.570728,65728.000,10894,7,AZ,1,100,0.441
1570470258.587321,65741.000,10894,7,AZ,1,100,0.441
1570470258.603914,65754.000,10894,7,AZ,1,100,0.428
1570470258.620507,65767.000,10894,7,AZ,1,100,0.428
1570470258.637100,65780.000,10894,7,AZ,1,100,0.428
1570470258.653693,65793.000,10894,7,AZ,1,100,0.438
1570470258.670286,65806.000,10894,7,AZ,1,100,0.444
1570470258.686879,65819.000,10912,9,AZ,1,100,0.439
1570470258.703472,65832.000,10912,9,AZ,1,100,0.434
1570470258.720065,65845.000,10912,9,AZ,1,100,0.435
1570470258.736658,65858.000,10912,9,AZ,1,100,0.430
1570470258.753251,65871.000,10912,9,AZ,1,100,0.442
1570470258.769844,65884.000,10912,9,AZ,1,100,0.455
1570470258.786437,65897.000,10912,9,AZ,1,100,0.448
1570470258.803030,65910.000,10912,9,AZ,1,100,0.439
1570470258.819623,65923.000,10912,9,AZ,1,100,0.421
1570470258.836216,65936.000,10930,7,AZ,1,100,0.422
1570470258.852808,65949.000,10930,7,AZ,1,100,0.439
1570470258.869401,65962.000,10930,7,AZ,1,100,0.439
1570470258.885994,65975.000,10930,7,AZ,1,100,0.436
1570470258.902587,65988.000,10930,7,AZ,1,100,0.426
1570470258.919180,66001.000,10930,7,AZ,1,100,0.425
1570470258.935773,66014.000,10930,7,AZ,1,100,0.422
1570470258.952563,66027.154,10951,13,AZ,1,100,0.429
1570470258.969352,66040.308,10951,13,AZ,1,100,0.439
1570470258.986141,66053.462,10951,13,AZ,1,100,0.447
1570470259.002931,66066.615,10951,13,AZ,1,100,0.444
1570470259.019720,66079.769,10951,13,AZ,1,100,0.439
1570470259.036509,66092.923,10951,13,AZ,1,100,0.437
1570470259.053299,66106.077,10951,13,AZ,1,100,0.440
1570470259.070088,66119.231,10951,13,AZ,1,100,0.434
1570470259.086877,66132.385,10951,13,AZ,1,100,0.421
1570470259.103667,66145.538,10951,13,AZ,1,100,0.418
1570470259.120456,66158.692,10951,13,AZ,1,100,0.417
1570470259.137245,66171.846,10951,13,AZ,1,100,0.428
1570470259.154035,66185.000,10951,13,AZ,1,100,0.438
1570470259.170628,66198.000,10971,7,AZ,1,100,0.445
1570470259.187221,66211.000,10971,7,AZ,1,100,0.436
1570470259.203814,66224.000,10971,7,AZ,1,100,0.430
1570470259.220407,66237.000,10971,7,AZ,1,100,0.433
1570470259.237000,66250.000,10971,7,AZ,1,100,0.435
1570470259.253592,66263.000,10971,7,AZ,1,100,0.440
1570470259.270185,66276.000,10971,7,AZ,1,100,0.441
1570470259.287097,66289.250,10989,8,AZ,1,100,0.443
1570470259.304009,66302.500,10989,8,AZ,1,100,0.438
1570470259.320921,66315.750,10989,8,AZ,1,100,0.440
1570470259.337834,66329.000,10989,8,AZ,1,100,0.438
1570470259.354746,66342.250,10989,8,AZ,1,100,0.437
1570470259.371658,66355.500,10989,8,AZ,1,100,0.443
1570470259.388570,66368.750,10989,8,AZ,1,100,0.445
1570470259.405482,66382.000,10989,8,AZ,1,100,0.440
1570470259.422075,66395.000,11007,7,AZ,1,100,0.438
1570470259.438668,66408.000,11007,7,AZ,1,100,0.440
1570470259.455261,66421.000,11007,7,AZ,1,100,0.438
1570470259.471854,66434.000,11007,7,AZ,1,100,0.440
1570470259.488446,66447.000,11007,7,AZ,1,100,0.448
1570470259.505039,66460.000,11007,7,AZ,1,100,0.450
1570470259.521632,66473.000,11007,7,AZ,1,100,0.445
1570470259.538225,66486.000,11025,8,AZ,1,100,0.432
1570470259.554818,66499.000,11025,8,AZ,1,100,0.427
1570470259.571411,66512.000,11025,8,AZ,1,100,0.434
1570470259.588004,66525.000,11025,8,AZ,1,100,0.448
1570470259.604597,66538.000,11025,8,AZ,1,100,0.451
1570470259.621190,66551.000,11025,8,AZ,1,100,0.445
1570470259.637783,66564.000,11025,8,AZ,1,100,0.443
1570470259.654376,66577.000,11025,8,AZ,1,100,0.441
1570470259.670810,66589.875,11044,8,AZ,1,100,0.437
1570470259.687243,66602.750,11044,8,AZ,1,100,0.436
1570470259.703676,66615.625,11044,8,AZ,1,100,0.437
1570470259.720110,66628.500,11044,8,AZ,1,100,0.434
1570470259.736543,66641.375,11044,8,AZ,1,100,0.438
1570470259.752977,66654.250,11044,8,AZ,1,100,0.433
1570470259.769410,66667.125,11044,8,AZ,1,100,0.425
1570470259.785843,66680.000,11044,8,AZ,1,100,0.413
1570470259.802277,66692.875,11062,8,AZ,1,100,0.421
1570470259.818710,66705.750,11062,8,AZ,1,100,0.448
1570470259.835144,66718.625,11062,8,AZ,1,100,0.456
1570470259.851577,66731.500,11062,8,AZ,1,100,0.451
1570470259.868011,66744.375,11062,8,AZ,1,100,0.435
1570470259.884444,66757.250,11062,8,AZ,1,100,0.434
1570470259.900877,66770.125,11062,8,AZ,1,100,0.432
1570470259.917311,66783.000,11062,8,AZ,1,100,0.429
1570470259.933904,66796.000,11080,8,AZ,1,100,0.417
1570470259.950497,66809.000,11080,8,AZ,1,100,0.422
1570470259.967090,66822.000,11080,8,AZ,1,100,0.442
1570470259.983683,66835.000,11080,8,AZ,1,100,0.455
1570470260.000276,66848.000,11080,8,AZ,1,100,0.456
1570470260.016869,66861.000,11080,8,AZ,1,100,0.439
1570470260.033462,66874.000,11080,8,AZ,1,100,0.427
1570470260.050055,66887.000,11080,8,AZ,1,100,0.411
1570470260.066807,66900.125,11098,8,AZ,1,100,0.405
1570470260.083560,66913.250,11098,8,AZ,1,100,0.414
1570470260.100312,66926.375,11098,8,AZ,1,100,0.416
1570470260.117064,66939.500,11098,8,AZ,1,100,0.421
1570470260.133817,66952.625,11098,8,AZ,1,100,0.423
1570470260.150569,66965.750,11098,8,AZ,1,100,0.417
1570470260.167322,66978.875,11098,8,AZ,1,100,0.409
1570470260.184074,66992.000,11098,8,AZ,1,100,0.407
1570470260.200485,67004.857,11116,7,AZ,1,100,0.426
1570470260.216896,67017.714,11116,7,AZ,1,100,0.442
1570470260.233306,67030.571,11116,7,AZ,1,100,0.440
1570470260.249717,67043.429,11116,7,AZ,1,100,0.433
1570470260.266128,67056.286,11116,7,AZ,1,100,0.440
1570470260.282538,67069.143,11116,7,AZ,1,100,0.437
1570470260.298949,67082.000,11116,7,AZ,1,100,0.434
1570470260.315701,67095.125,11134,8,AZ,1,100,0.426
1570470260.332454,67108.250,11134,8,AZ,1,100,0.416
1570470260.349206,67121.375,11134,8,AZ,1,100,0.410
1570470260.365959,67134.500,11134,8,AZ,1,100,0.412
1570470260.382711,67147.625,11134,8,AZ,1,100,0.422
1570470260.399464,67160.750,11134,8,AZ,1,100,0.428
1570470260.416216,67173.875,11134,8,AZ,1,100,0.427
1570470260.432969,67187.000,11134,8,AZ,1,100,0.431
1570470260.449721,67200.125,11152,8,AZ,1,100,0.438
1570470260.466474,67213.250,11152,8,AZ,1,100,0.436
1570470260.483227,67226.375,11152,8,AZ,1,100,0.431
1570470260.499979,67239.500,11152,8,AZ,1,100,0.424
1570470260.516732,67252.625,11152,8,AZ,1,100,0.429
1570470260.533484,67265.750,11152,8,AZ,1,100,0.426
1570470260.550236,67278.875,11152,8,AZ,1,100,0.419
1570470260.566989,67292.000,11152,8,AZ,1,100,0.414
1570470260.583582,67305.000,11170,7,AZ,1,100,0.420
1570470260.600175,67318.000,11170,7,AZ,1,100,0.427
1570470260.616768,67331.000,11170,7,AZ,1,100,0.436
1570470260.633361,67344.000,11170,7,AZ,1,100,0.438
1570470260.649954,67357.000,11170,7,AZ,1,100,0.421
1570470260.666547,67370.000,11170,7,AZ,1,100,0.411
1570470260.683140,67383.000,11170,7,AZ,1,100,0.412
1570470260.699573,67395.875,11189,8,AZ,1,100,0.416
1570470260.716007,67408.750,11189,8,AZ,1,100,0.429
1570470260.732440,67421.625,11189,8,AZ,1,100,0.426
1570470260.748873,67434.500,11189,8,AZ,1,100,0.424
1570470260.765307,67447.375,11189,8,AZ,1,100,0.423
1570470260.781740,67460.250,11189,8,AZ,1,100,0.426
1570470260.798174,67473.125,11189,8,AZ,1,100,0.425
1570470260.814607,67486.000,11189,8,AZ,1,100,0.418
1570470260.831359,67499.125,11206,8,AZ,1,100,0.412
1570470260.848112,67512.250,11206,8,AZ,1,100,0.411
1570470260.864865,67525.375,11206,8,AZ,1,100,0.416
1570470260.881617,67538.500,11206,8,AZ,1,100,0.429
1570470260.898370,67551.625,11206,8,AZ,1,100,0.435
1570470260.915122,67564.750,11206,8,AZ,1,100,0.431
1570470260.931875,67577.875,11206,8,AZ,1,100,0.429
1570470260.948627,67591.000,11206,8,AZ,1,100,0.420
1570470260.965220,67604.000,11224,7,AZ,1,100,0.411
1570470260.981813,67617.000,11224,7,AZ,1,100,0.410
1570470260.998406,67630.000,11224,7,AZ,1,100,0.406
1570470261.014999,67643.000,11224,7,AZ,1,100,0.404
1570470261.031592,67656.000,11224,7,AZ,1,100,0.406
1570470261.048185,67669.000,11224,7,AZ,1,100,0.407
1570470261.064778,67682.000,11224,7,AZ,1,100,0.399
1570470261.081530,67695.125,11242,8,AZ,1,100,0.398
1570470261.098283,67708.250,11242,8,AZ,1,100,0.401
1570470261.115035,67721.375,11242,8,AZ,1,100,0.408
1570470261.131788,67734.500,11242,8,AZ,1,100,0.412
1570470261.148540,67747.625,11242,8,AZ,1,100,0.419
1570470261.165293,67760.750,11242,8,AZ,1,100,0.416
1570470261.182045,67773.875,11242,8,AZ,1,100,0.417
1570470261.198798,67787.000,11242,8,AZ,1,100,0.415
1570470261.215710,67800.250,11260,8,AZ,1,100,0.421
1570470261.232622,67813.500,11260,8,AZ,1,100,0.410
1570470261.249534,67826.750,11260,8,AZ,1,100,0.399
1570470261.266446,67840.000,11260,8,AZ,1,100,0.396
1570470261.283358,67853.250,11260,8,AZ,1,100,0.404
1570470261.300270,67866.500,11260,8,AZ,1,100,0.412
1570470261.317182,67879.750,11260,8,AZ,1,100,0.415
1570470261.334094,67893.000,11260,8,AZ,1,100,0.410
1570470261.350847,67906.125,11278,8,AZ,1,100,0.422
1570470261.367599,67919.250,11278,8,AZ,1,100,0.425
1570470261.384352,67932.375,11278,8,AZ,1,100,0.426
1570470261.401104,67945.500,11278,8,AZ,1,100,0.427
1570470261.417857,67958.625,11278,8,AZ,1,100,0.420
1570470261.434609,67971.750,11278,8,AZ,1,100,0.417
1570470261.451362,67984.875,11278,8,AZ,1,100,0.403
1570470261.468114,67998.000,11278,8,AZ,1,100,0.398
1570470261.485072,68011.286,11296,7,AZ,1,100,0.395
1570470261.502030,68024.571,11296,7,AZ,1,100,0.412
1570470261.518987,68037.857,11296,7,AZ,1,100,0.421
1570470261.535945,68051.143,11296,7,AZ,1,100,0.432
1570470261.552902,68064.429,11296,7,AZ,1,100,0.421
1570470261.569860,68077.714,11296,7,AZ,1,100,0.417
1570470261.586818,68091.000,11296,7,AZ,1,100,0.412
1570470261.603570,68104.125,11313,8,AZ,1,100,0.418
1570470261.620323,68117.250,11313,8,AZ,1,100,0.435
1570470261.637075,68130.375,11313,8,AZ,1,100,0.436
1570470261.653828,68143.500,11313,8,AZ,1,100,0.423
1570470261.670580,68156.625,11313,8,AZ,1,100,0.418
1570470261.687333,68169.750,11313,8,AZ,1,100,0.419
1570470261.704085,68182.875,11313,8,AZ,1,100,0.423
1570470261.720838,68196.000,11313,8,AZ,1,100,0.419
1570470261.737590,68209.125,11331,8,AZ,1,100,0.409
1570470261.754343,68222.250,11331,8,AZ,1,100,0.416
1570470261.771096,68235.375,11331,8,AZ,1,100,0.423
1570470261.787848,68248.500,11331,8,AZ,1,100,0.427
1570470261.804600,68261.625,11331,8,AZ,1,100,0.431
1570470261.821353,68274.750,11331,8,AZ,1,100,0.416
1570470261.838105,68287.875,11331,8,AZ,1,100,0.406
1570470261.854858,68301.000,11331,8,AZ,1,100,0.404
1570470261.871132,68313.750,11349,8,AZ,1,100,0.416
1570470261.887406,68326.500,11349,8,AZ,1,100,0.433
1570470261.903680,68339.250,11349,8,AZ,1,100,0.442
1570470261.919953,68352.000,11349,8,AZ,1,100,0.439
1570470261.936227,68364.750,11349,8,AZ,1,100,0.409
1570470261.952501,68377.500,11349,8,AZ,1,100,0.376
1570470261.968775,68390.250,11349,8,AZ,1,100,0.366
1570470261.985049,68403.000,11349,8,AZ,1,100,0.397
1570470262.001642,68416.000,11367,7,AZ,1,100,0.417
1570470262.018235,68429.000,11367,7,AZ,1,100,0.441
1570470262.034828,68442.000,11367,7,AZ,1,100,0.437
1570470262.051421,68455.000,11367,7,AZ,1,100,0.416
1570470262.068014,68468.000,11367,7,AZ,1,100,0.405
1570470262.084607,68481.000,11367,7,AZ,1,100,0.400
1570470262.101200,68494.000,11367,7,AZ,1,100,0.394
1570470262.117952,68507.125,11385,8,AZ,1,100,0.396
1570470262.134705,68520.250,11385,8,AZ,1,100,0.395
1570470262.151457,68533.375,11385,8,AZ,1,100,0.403
1570470262.168210,68546.500,11385,8,AZ,1,100,0.403
1570470262.184962,68559.625,11385,8,AZ,1,100,0.400
1570470262.201715,68572.750,11385,8,AZ,1,100,0.390
1570470262.218467,68585.875,11385,8,AZ,1,100,0.393
1570470262.235220,68599.000,11385,8,AZ,1,100,0.397
1570470262.252132,68612.250,11403,8,AZ,1,100,0.389
1570470262.269044,68625.500,11403,8,AZ,1,100,0.383
1570470262.285956,68638.750,11403,8,AZ,1,100,0.385
1570470262.302868,68652.000,11403,8,AZ,1,100,0.385
1570470262.319780,68665.250,11403,8,AZ,1,100,0.398
1570470262.336692,68678.500,11403,8,AZ,1,100,0.393
1570470262.353604,68691.750,11403,8,AZ,1,100,0.406
1570470262.370516,68705.000,11403,8,AZ,1,100,0.418
1570470262.387291,68718.143,11421,7,AZ,1,100,0.430
1570470262.404067,68731.286,11421,7,AZ,1,100,0.425
1570470262.420842,68744.429,11421,7,AZ,1,100,0.419
1570470262.437617,68757.571,11421,7,AZ,1,100,0.406
1570470262.454393,68770.714,11421,7,AZ,1,100,0.408
1570470262.471168,68783.857,11421,7,AZ,1,100,0.414
1570470262.487943,68797.000,11421,7,AZ,1,100,0.422
1570470262.504536,68810.000,11439,8,AZ,1,100,0.434
1570470262.521129,68823.000,11439,8,AZ,1,100,0.433
1570470262.537722,68836.000,11439,8,AZ,1,100,0.435
1570470262.554315,68849.000,11439,8,AZ,1,100,0.433
1570470262.570908,68862.000,11439,8,AZ,1,100,0.433
1570470262.587501,68875.000,11439,8,AZ,1,100,0.442
1570470262.604094,68888.000,11439,8,AZ,1,100,0.445
1570470262.620687,68901.000,11439,8,AZ,1,100,0.453
1570470262.637280,68914.000,11458,8,AZ,1,100,0.457
1570470262.653873,68927.000,11458,8,AZ,1,100,0.456
1570470262.670466,68940.000,11458,8,AZ,1,100,0.464
1570470262.687059,68953.000,11458,8,AZ,1,100,0.453
1570470262.703652,68966.000,11458,8,AZ,1,100,0.442
1570470262.720245,68979.000,11458,8,AZ,1,100,0.421
1570470262.736838,68992.000,11458,8,AZ,1,100,0.410
1570470262.753431,69005.000,11458,8,AZ,1,100,0.401
1570470262.770024,69018.000,11476,8,AZ,1,100,0.396
1570470262.786617,69031.000,11476,8,AZ,1,100,0.397
1570470262.803209,69044.000,11476,8,AZ,1,100,0.397
1570470262.819802,69057.000,11476,8,AZ,1,100,0.445
1570470262.836395,69070.000,11476,8,AZ,1,100,0.444
1570470262.852988,69083.000,11476,8,AZ,1,100,0.441
1570470262.869581,69096.000,11476,8,AZ,1,100,0.447
1570470262.886174,69109.000,11476,8,AZ,1,100,0.456
1570470262.902448,69121.750,11494,8,AZ,1,100,0.464
1570470262.918722,69134.500,11494,8,AZ,1,100,0.455
1570470262.934996,69147.250,11494,8,AZ,1,100,0.446
1570470262.951270,69160.000,11494,8,AZ,1,100,0.424
1570470262.967544,69172.750,11494,8,AZ,1,100,0.419
1570470262.983817,69185.500,11494,8,AZ,1,100,0.419
1570470263.000091,69198.250,11494,8,AZ,1,100,0.409
1570470263.016365,69211.000,11494,8,AZ,1,100,0.409
1570470263.032776,69223.857,11512,7,AZ,1,100,0.415
1570470263.049186,69236.714,11512,7,AZ,1,100,0.442
1570470263.065597,69249.571,11512,7,AZ,1,100,0.477
1570470263.082008,69262.429,11512,7,AZ,1,100,0.476
1570470263.098418,69275.286,11512,7,AZ,1,100,0.478
1570470263.114829,69288.143,11512,7,AZ,1,100,0.468
1570470263.131239,69301.000,11512,7,AZ,1,100,0.468
1570470263.147832,69314.000,11530,8,AZ,1,100,0.457
1570470263.164425,69327.000,11530,8,AZ,1,100,0.449
1570470263.181018,69340.000,11530,8,AZ,1,100,0.455
1570470263.197611,69353.000,11530,8,AZ,1,100,0.443
1570470263.214204,69366.000,11530,8,AZ,1,100,0.449
1570470263.230797,69379.000,11530,8,AZ,1,100,0.449
1570470263.247390,69392.000,11530,8,AZ,1,100,0.448
1570470263.263983,69405.000,11530,8,AZ,1,100,0.449
1570470263.280895,69418.250,11548,8,AZ,1,100,0.448
1570470263.297807,69431.500,11548,8,AZ,1,100,0.450
1570470263.314719,69444.750,11548,8,AZ,1,100,0.448
1570470263.331631,69458.000,11548,8,AZ,1,100,0.429
1570470263.348543,69471.250,11548,8,AZ,1,100,0.408
1570470263.365455,69484.500,11548,8,AZ,1,100,0.395
1570470263.382368,69497.750,11548,8,AZ,1,100,0.397
1570470263.399280,69511.000,11548,8,AZ,1,100,0.401
1570470263.415873,69524.000,11566,8,AZ,1,100,0.397
1570470263.432466,69537.000,11566,8,AZ,1,100,0.397
1570470263.449059,69550.000,11566,8,AZ,1,100,0.416
1570470263.465652,69563.000,11566,8,AZ,1,100,0.429
1570470263.482244,69576.000,11566,8,AZ,1,100,0.442
1570470263.498837,69589.000,11566,8,AZ,1,100,0.444
1570470263.515430,69602.000,11566,8,AZ,1,100,0.432
1570470263.532023,69615.000,11566,8,AZ,1,100,0.420
1570470263.548981,69628.286,11584,7,AZ,1,100,0.416
1570470263.565938,69641.571,11584,7,AZ,1,100,0.406
1570470263.582896,69654.857,11584,7,AZ,1,100,0.417
1570470263.599854,69668.143,11584,7,AZ,1,100,0.413
1570470263.616812,69681.429,11584,7,AZ,1,100,0.390
1570470263.633769,69694.714,11584,7,AZ,1,100,0.365
1570470263.650727,69708.000,11584,7,AZ,1,100,0.356
1570470263.667160,69720.875,11603,8,AZ,1,100,0.352
1570470263.683594,69733.750,11603,8,AZ,1,100,0.350
1570470263.700027,69746.625,11603,8,AZ,1,100,0.359
1570470263.716460,69759.500,11603,8,AZ,1,100,0.351
1570470263.732894,69772.375,11603,8,AZ,1,100,0.360
1570470263.749327,69785.250,11603,8,AZ,1,100,0.382
1570470263.765761,69798.125,11603,8,AZ,1,100,0.424
1570470263.782194,69811.000,11603,8,AZ,1,100,0.437
1570470263.798947,69824.125,11621,8,AZ,1,100,0.437
1570470263.815699,69837.250,11621,8,AZ,1,100,0.431
1570470263.832452,69850.375,11621,8,AZ,1,100,0.406
1570470263.849204,69863.500,11621,8,AZ,1,100,0.463
1570470263.865957,69876.625,11621,8,AZ,1,100,0.467
1570470263.882709,69889.750,11621,8,AZ,1,100,0.461
1570470263.899462,69902.875,11621,8,AZ,1,100,0.462
1570470263.916214,69916.000,11621,8,AZ,1,100,0.454
1570470263.932647,69928.875,11639,8,AZ,1,100,0.448
1570470263.949081,69941.750,11639,8,AZ,1,100,0.434
1570470263.965514,69954.625,11639,8,AZ,1,100,0.433
1570470263.981948,69967.500,11639,8,AZ,1,100,0.421
1570470263.998381,69980.375,11639,8,AZ,1,100,0.416
1570470264.014815,69993.250,11639,8,AZ,1,100,0.411
1570470264.031248,70006.125,11639,8,AZ,1,100,0.408
1570470264.047681,70019.000,11639,8,AZ,1,100,0.398
1570470264.064274,70032.000,11657,7,AZ,1,100,0.397
1570470264.080867,70045.000,11657,7,AZ,1,100,0.400
1570470264.097460,70058.000,11657,7,AZ,1,100,0.405
1570470264.114053,70071.000,11657,7,AZ,1,100,0.417
1570470264.130646,70084.000,11657,7,AZ,1,100,0.425
1570470264.147239,70097.000,11657,7,AZ,1,100,0.425
1570470264.163832,70110.000,11657,7,AZ,1,100,0.423
1570470264.180585,70123.125,11675,8,AZ,1,100,0.420
1570470264.197337,70136.250,11675,8,AZ,1,100,0.418
1570470264.214090,70149.375,11675,8,AZ,1,100,0.419
1570470264.230842,70162.500,11675,8,AZ,1,100,0.421
1570470264.247595,70175.625,11675,8,AZ,1,100,0.423
1570470264.264347,70188.750,11675,8,AZ,1,100,0.423
1570470264.281100,70201.875,11675,8,AZ,1,100,0.422
1570470264.297852,70215.000,11675,8,AZ,1,100,0.419
1570470264.314764,70228.250,11693,8,AZ,1,100,0.418
1570470264.331676,70241.500,11693,8,AZ,1,100,0.436
1570470264.348588,70254.750,11693,8,AZ,1,100,0.450
1570470264.365500,70268.000,11693,8,AZ,1,100,0.455
1570470264.382412,70281.250,11693,8,AZ,1,100,0.454
1570470264.399324,70294.500,11693,8,AZ,1,100,0.448
1570470264.416237,70307.750,11693,8,AZ,1,100,0.434
1570470264.433149,70321.000,11693,8,AZ,1,100,0.436
1570470264.449924,70334.143,11711,7,AZ,1,100,0.451
1570470264.466699,70347.286,11711,7,AZ,1,100,0.454
1570470264.483474,70360.429,11711,7,AZ,1,100,0.454
1570470264.500250,70373.571,11711,7,AZ,1,100,0.449
1570470264.517025,70386.714,11711,7,AZ,1,100,0.439
1570470264.533800,70399.857,11711,7,AZ,1,100,0.436
1570470264.550576,70413.000,11711,7,AZ,1,100,0.435
1570470264.567488,70426.250,11728,8,AZ,1,100,0.439
1570470264.584400,70439.500,11728,8,AZ,1,100,0.438
1570470264.601312,70452.750,11728,8,AZ,1,100,0.442
1570470264.618224,70466.000,11728,8,AZ,1,100,0.439
1570470264.635136,70479.250,11728,8,AZ,1,100,0.429
1570470264.652048,70492.500,11728,8,AZ,1,100,0.425
1570470264.668960,70505.750,11728,8,AZ,1,100,0.417
1570470264.685872,70519.000,11728,8,AZ,1,100,0.422
1570470264.702465,70532.000,11747,8,AZ,1,100,0.433
1570470264.719058,70545.000,11747,8,AZ,1,100,0.444
1570470264.735651,70558.000,11747,8,AZ,1,100,0.450
1570470264.752244,70571.000,11747,8,AZ,1,100,0.450
1570470264.768837,70584.000,11747,8,AZ,1,100,0.461
1570470264.785430,70597.000,11747,8,AZ,1,100,0.473
1570470264.802023,70610.000,11747,8,AZ,1,100,0.475
1570470264.818616,70623.000,11747,8,AZ,1,100,0.471
1570470264.835027,70635.857,11765,7,AZ,1,100,0.470
1570470264.851437,70648.714,11765,7,AZ,1,100,0.471
1570470264.867848,70661.571,11765,7,AZ,1,100,0.467
1570470264.884258,70674.429,11765,7,AZ,1,100,0.458
1570470264.900669,70687.286,11765,7,AZ,1,100,0.459
1570470264.917079,70700.143,11765,7,AZ,1,100,0.452
1570470264.933490,70713.000,11765,7,AZ,1,100,0.451
1570470264.950402,70726.250,11783,8,AZ,1,100,0.448
1570470264.967314,70739.500,11783,8,AZ,1,100,0.448
1570470264.984226,70752.750,11783,8,AZ,1,100,0.448
1570470265.001138,70766.000,11783,8,AZ,1,100,0.427
1570470265.018050,70779.250,11783,8,AZ,1,100,0.425
1570470265.034962,70792.500,11783,8,AZ,1,100,0.432
1570470265.051875,70805.750,11783,8,AZ,1,100,0.443
1570470265.068787,70819.000,11783,8,AZ,1,100,0.452
1570470265.085539,70832.125,11801,8,AZ,1,100,0.461
1570470265.102292,70845.250,11801,8,AZ,1,100,0.458
1570470265.119044,70858.375,11801,8,AZ,1,100,0.442
1570470265.135797,70871.500,11801,8,AZ,1,100,0.437
1570470265.152549,70884.625,11801,8,AZ,1,100,0.439
1570470265.169302,70897.750,11801,8,AZ,1,100,0.441
1570470265.186054,70910.875,11801,8,AZ,1,100,0.442
1570470265.202807,70924.000,11801,8,AZ,1,100,0.443
1570470265.219240,70936.875,11819,8,AZ,1,100,0.446
1570470265.235673,70949.750,11819,8,AZ,1,100,0.452
1570470265.252107,70962.625,11819,8,AZ,1,100,0.453
1570470265.268540,70975.500,11819,8,AZ,1,100,0.452
1570470265.284974,70988.375,11819,8,AZ,1,100,0.454
1570470265.301407,71001.250,11819,8,AZ,1,100,0.457
1570470265.317841,71014.125,11819,8,AZ,1,100,0.460
1570470265.334274,71027.000,11819,8,AZ,1,100,0.467
1570470265.351596,71040.571,11837,7,AZ,1,100,0.462
1570470265.368919,71054.143,11837,7,AZ,1,100,0.462
1570470265.386241,71067.714,11837,7,AZ,1,100,0.459
1570470265.403563,71081.286,11837,7,AZ,1,100,0.461
1570470265.420886,71094.857,11837,7,AZ,1,100,0.470
1570470265.438208,71108.429,11837,7,AZ,1,100,0.468
1570470265.455530,71122.000,11837,7,AZ,1,100,0.454
1570470265.472025,71134.923,11858,13,AZ,1,100,0.453
1570470265.488520,71147.846,11858,13,AZ,1,100,0.458
1570470265.505015,71160.769,11858,13,AZ,1,100,0.458
1570470265.521509,71173.692,11858,13,AZ,1,100,0.469
1570470265.538004,71186.615,11858,13,AZ,1,100,0.471
1570470265.554499,71199.538,11858,13,AZ,1,100,0.468
1570470265.570994,71212.462,11858,13,AZ,1,100,0.467
1570470265.587488,71225.385,11858,13,AZ,1,100,0.460
1570470265.603983,71238.308,11858,13,AZ,1,100,0.458
1570470265.620478,71251.231,11858,13,AZ,1,100,0.458
1570470265.636973,71264.154,11858,13,AZ,1,100,0.458
1570470265.653468,71277.077,11858,13,AZ,1,100,0.459
1570470265.669962,71290.000,11858,13,AZ,1,100,0.466
1570470265.686555,71303.000,11879,7,AZ,1,100,0.461
1570470265.703148,71316.000,11879,7,AZ,1,100,0.459
1570470265.719741,71329.000,11879,7,AZ,1,100,0.453
1570470265.736334,71342.000,11879,7,AZ,1,100,0.457
1570470265.752927,71355.000,11879,7,AZ,1,100,0.463
1570470265.769520,71368.000,11879,7,AZ,1,100,0.466
1570470265.786113,71381.000,11879,7,AZ,1,100,0.469
1570470265.802547,71393.875,11897,8,AZ,1,100,0.472
1570470265.818980,71406.750,11897,8,AZ,1,100,0.468
1570470265.835413,71419.625,11897,8,AZ,1,100,0.463
1570470265.851847,71432.500,11897,8,AZ,1,100,0.463
1570470265.868280,71445.375,11897,8,AZ,1,100,0.459
1570470265.884713,71458.250,11897,8,AZ,1,100,0.463
1570470265.901147,71471.125,11897,8,AZ,1,100,0.467
1570470265.917580,71484.000,11897,8,AZ,1,100,0.464
1570470265.934173,71497.000,11915,8,AZ,1,100,0.460
1570470265.950766,71510.000,11915,8,AZ,1,100,0.445
1570470265.967359,71523.000,11915,8,AZ,1,100,0.447
1570470265.983952,71536.000,11915,8,AZ,1,100,0.449
1570470266.000545,71549.000,11915,8,AZ,1,100,0.455
1570470266.017138,71562.000,11915,8,AZ,1,100,0.450
1570470266.033731,71575.000,11915,8,AZ,1,100,0.452
1570470266.050324,71588.000,11915,8,AZ,1,100,0.450
1570470266.066757,71600.875,11933,8,AZ,1,100,0.448
1570470266.083191,71613.750,11933,8,AZ,1,100,0.450
1570470266.099624,71626.625,11933,8,AZ,1,100,0.450
1570470266.116058,71639.500,11933,8,AZ,1,100,0.452
1570470266.132491,71652.375,11933,8,AZ,1,100,0.451
1570470266.148925,71665.250,11933,8,AZ,1,100,0.453
1570470266.165358,71678.125,11933,8,AZ,1,100,0.451
1570470266.181791,71691.000,11933,8,AZ,1,100,0.451
1570470266.198020,71703.714,11951,7,AZ,1,100,0.453
1570470266.214248,71716.429,11951,7,AZ,1,100,0.448
1570470266.230476,71729.143,11951,7,AZ,1,100,0.451
1570470266.246704,71741.857,11951,7,AZ,1,100,0.457
1570470266.262933,71754.571,11951,7,AZ,1,100,0.456
1570470266.279161,71767.286,11951,7,AZ,1,100,0.457
1570470266.295389,71780.000,11951,7,AZ,1,100,0.455
1570470266.312142,71793.125,11969,8,AZ,1,100,0.458
1570470266.328894,71806.250,11969,8,AZ,1,100,0.452
1570470266.345647,71819.375,11969,8,AZ,1,100,0.451
1570470266.362399,71832.500,11969,8,AZ,1,100,0.448
1570470266.379152,71845.625,11969,8,AZ,1,100,0.448
1570470266.395904,71858.750,11969,8,AZ,1,100,0.448
1570470266.412657,71871.875,11969,8,AZ,1,100,0.443
1570470266.429409,71885.000,11969,8,AZ,1,100,0.434
1570470266.446162,71898.125,11987,8,AZ,1,100,0.432
1570470266.462914,71911.250,11987,8,AZ,1,100,0.436
1570470266.479667,71924.375,11987,8,AZ,1,100,0.449
1570470266.496419,71937.500,11987,8,AZ,1,100,0.458
1570470266.513172,71950.625,11987,8,AZ,1,100,0.461
1570470266.529924,71963.750,11987,8,AZ,1,100,0.447
1570470266.546677,71976.875,11987,8,AZ,1,100,0.437
1570470266.563429,71990.000,11987,8,AZ,1,100,0.444
1570470266.580022,72003.000,12005,8,AZ,1,100,0.458
1570470266.596615,72016.000,12005,8,AZ,1,100,0.464
1570470266.613208,72029.000,12005,8,AZ,1,100,0.466
1570470266.629801,72042.000,12005,8,AZ,1,100,0.461
1570470266.646394,72055.000,12005,8,AZ,1,100,0.438
1570470266.662987,72068.000,12005,8,AZ,1,100,0.424
1570470266.679580,72081.000,12005,8,AZ,1,100,0.429
1570470266.696173,72094.000,12005,8,AZ,1,100,0.450
1570470266.712948,72107.143,12024,7,AZ,1,100,0.472
1570470266.729724,72120.286,12024,7,AZ,1,100,0.474
1570470266.746499,72133.429,12024,7,AZ,1,100,0.461
1570470266.763274,72146.571,12024,7,AZ,1,100,0.441
1570470266.780050,72159.714,12024,7,AZ,1,100,0.437
1570470266.796825,72172.857,12024,7,AZ,1,100,0.452
1570470266.813600,72186.000,12024,7,AZ,1,100,0.474
1570470266.830353,72199.125,12042,8,AZ,1,100,0.478
1570470266.847105,72212.250,12042,8,AZ,1,100,0.470
1570470266.863858,72225.375,12042,8,AZ,1,100,0.466
1570470266.880610,72238.500,12042,8,AZ,1,100,0.449
1570470266.897363,72251.625,12042,8,AZ,1,100,0.441
1570470266.914115,72264.750,12042,8,AZ,1,100,0.439
1570470266.930868,72277.875,12042,8,AZ,1,100,0.443
1570470266.947620,72291.000,12042,8,AZ,1,100,0.455
1570470266.964213,72304.000,12059,8,AZ,1,100,0.469
1570470266.980806,72317.000,12059,8,AZ,1,100,0.483
1570470266.997399,72330.000,12059,8,AZ,1,100,0.467
1570470267.013992,72343.000,12059,8,AZ,1,100,0.458
1570470267.030585,72356.000,12059,8,AZ,1,100,0.455
1570470267.047178,72369.000,12059,8,AZ,1,100,0.483
1570470267.063771,72382.000,12059,8,AZ,1,100,0.482
1570470267.080364,72395.000,12059,8,AZ,1,100,0.501
1570470267.096797,72407.875,12077,8,AZ,1,100,0.526
1570470267.113231,72420.750,12077,8,AZ,1,100,0.542
1570470267.129664,72433.625,12077,8,AZ,1,100,0.533
1570470267.146098,72446.500,12077,8,AZ,1,100,0.478
1570470267.162531,72459.375,12077,8,AZ,1,100,0.461
1570470267.178964,72472.250,12077,8,AZ,1,100,0.408
1570470267.195398,72485.125,12077,8,AZ,1,100,0.393
1570470267.211831,72498.000,12077,8,AZ,1,100,0.362
1570470267.228424,72511.000,12095,7,AZ,1,100,0.341
1570470267.245017,72524.000,12095,7,AZ,1,100,0.338
1570470267.261610,72537.000,12095,7,AZ,1,100,0.335
1570470267.278203,72550.000,12095,7,AZ,1,100,0.345
1570470267.294796,72563.000,12095,7,AZ,1,100,0.356
1570470267.311389,72576.000,12095,7,AZ,1,100,0.386
1570470267.327982,72589.000,12095,7,AZ,1,100,0.407
1570470267.344894,72602.250,12113,8,AZ,1,100,0.410
1570470267.361806,72615.500,12113,8,AZ,1,100,0.427
1570470267.378718,72628.750,12113,8,AZ,1,100,0.448
1570470267.395630,72642.000,12113,8,AZ,1,100,0.458
1570470267.412542,72655.250,12113,8,AZ,1,100,0.491
1570470267.429454,72668.500,12113,8,AZ,1,100,0.507
1570470267.446366,72681.750,12113,8,AZ,1,100,0.502
1570470267.463278,72695.000,12113,8,AZ,1,100,0.459
1570470267.480031,72708.125,12131,8,AZ,1,100,0.434
1570470267.496783,72721.250,12131,8,AZ,1,100,0.424
1570470267.513536,72734.375,12131,8,AZ,1,100,0.412
1570470267.530288,72747.500,12131,8,AZ,1,100,0.402
1570470267.547041,72760.625,12131,8,AZ,1,100,0.396
1570470267.563793,72773.750,12131,8,AZ,1,100,0.395
1570470267.580546,72786.875,12131,8,AZ,1,100,0.391
1570470267.597298,72800.000,12131,8,AZ,1,100,0.390
1570470267.614051,72813.125,12149,8,AZ,1,100,0.390
1570470267.630803,72826.250,12149,8,AZ,1,100,0.388
1570470267.647556,72839.375,12149,8,AZ,1,100,0.396
1570470267.664309,72852.500,12149,8,AZ,1,100,0.407
1570470267.681061,72865.625,12149,8,AZ,1,100,0.415
1570470267.697814,72878.750,12149,8,AZ,1,100,0.428
1570470267.714566,72891.875,12149,8,AZ,1,100,0.440
1570470267.731318,72905.000,12149,8,AZ,1,100,0.444
1570470267.748641,72918.571,12166,7,AZ,1,100,0.454
1570470267.765963,72932.143,12166,7,AZ,1,100,0.466
1570470267.783285,72945.714,12166,7,AZ,1,100,0.472
1570470267.800608,72959.286,12166,7,AZ,1,100,0.479
1570470267.817930,72972.857,12166,7,AZ,1,100,0.481
1570470267.835253,72986.429,12166,7,AZ,1,100,0.478
1570470267.852575,73000.000,12166,7,AZ,1,100,0.468
1570470267.869008,73012.875,12184,8,AZ,1,100,0.457
1570470267.885442,73025.750,12184,8,AZ,1,100,0.454
1570470267.901875,73038.625,12184,8,AZ,1,100,0.444
1570470267.918308,73051.500,12184,8,AZ,1,100,0.432
1570470267.934742,73064.375,12184,8,AZ,1,100,0.432
1570470267.951175,73077.250,12184,8,AZ,1,100,0.432
1570470267.967609,73090.125,12184,8,AZ,1,100,0.428
1570470267.984042,73103.000,12184,8,AZ,1,100,0.435
1570470268.000635,73116.000,12202,7,AZ,1,100,0.437
1570470268.017228,73129.000,12202,7,AZ,1,100,0.443
1570470268.033821,73142.000,12202,7,AZ,1,100,0.457
1570470268.050414,73155.000,12202,7,AZ,1,100,0.458
1570470268.067007,73168.000,12202,7,AZ,1,100,0.463
1570470268.083600,73181.000,12202,7,AZ,1,100,0.467
1570470268.100193,73194.000,12202,7,AZ,1,100,0.482
1570470268.116945,73207.125,12220,8,AZ,1,100,0.484
1570470268.133698,73220.250,12220,8,AZ,1,100,0.472
1570470268.150450,73233.375,12220,8,AZ,1,100,0.450
1570470268.167203,73246.500,12220,8,AZ,1,100,0.440
1570470268.183955,73259.625,12220,8,AZ,1,100,0.433
1570470268.200708,73272.750,12220,8,AZ,1,100,0.432
1570470268.217460,73285.875,12220,8,AZ,1,100,0.434
1570470268.234213,73299.000,12220,8,AZ,1,100,0.439
1570470268.250965,73312.125,12238,8,AZ,1,100,0.431
1570470268.267718,73325.250,12238,8,AZ,1,100,0.430
1570470268.284470,73338.375,12238,8,AZ,1,100,0.426
1570470268.301223,73351.500,12238,8,AZ,1,100,0.435
1570470268.317975,73364.625,12238,8,AZ,1,100,0.457
1570470268.334728,73377.750,12238,8,AZ,1,100,0.469
1570470268.351480,73390.875,12238,8,AZ,1,100,0.478
1570470268.368233,73404.000,12238,8,AZ,1,100,0.481
1570470268.384826,73417.000,12256,8,AZ,1,100,0.462
1570470268.401419,73430.000,12256,8,AZ,1,100,0.462
1570470268.418012,73443.000,12256,8,AZ,1,100,0.458
1570470268.434605,73456.000,12256,8,AZ,1,100,0.459
1570470268.451198,73469.000,12256,8,AZ,1,100,0.463
1570470268.467791,73482.000,12256,8,AZ,1,100,0.455
1570470268.484384,73495.000,12256,8,AZ,1,100,0.451
1570470268.500977,73508.000,12256,8,AZ,1,100,0.450
1570470268.517752,73521.143,12274,7,AZ,1,100,0.446
1570470268.534527,73534.286,12274,7,AZ,1,100,0.440
1570470268.551302,73547.429,12274,7,AZ,1,100,0.438
1570470268.568078,73560.571,12274,7,AZ,1,100,0.444
1570470268.584853,73573.714,12274,7,AZ,1,100,0.458
1570470268.601628,73586.857,12274,7,AZ,1,100,0.464
1570470268.618404,73600.000,12274,7,AZ,1,100,0.466
1570470268.635156,73613.125,12292,8,AZ,1,100,0.474
1570470268.651909,73626.250,12292,8,AZ,1,100,0.472
1570470268.668661,73639.375,12292,8,AZ,1,100,0.465
1570470268.685414,73652.500,12292,8,AZ,1,100,0.453
1570470268.702166,73665.625,12292,8,AZ,1,100,0.450
1570470268.718919,73678.750,12292,8,AZ,1,100,0.464
1570470268.735671,73691.875,12292,8,AZ,1,100,0.468
1570470268.752424,73705.000,12292,8,AZ,1,100,0.465
1570470268.769336,73718.250,12311,8,AZ,1,100,0.454
1570470268.786248,73731.500,12311,8,AZ,1,100,0.443
1570470268.803160,73744.750,12311,8,AZ,1,100,0.425
1570470268.820072,73758.000,12311,8,AZ,1,100,0.427
1570470268.836984,73771.250,12311,8,AZ,1,100,0.438
1570470268.853896,73784.500,12311,8,AZ,1,100,0.448
1570470268.870808,73797.750,12311,8,AZ,1,100,0.453
1570470268.887720,73811.000,12311,8,AZ,1,100,0.452
1570470268.903835,73823.625,12329,8,AZ,1,100,0.453
1570470268.919949,73836.250,12329,8,AZ,1,100,0.446
1570470268.936063,73848.875,12329,8,AZ,1,100,0.451
1570470268.952178,73861.500,12329,8,AZ,1,100,0.455
1570470268.968292,73874.125,12329,8,AZ,1,100,0.458
1570470268.984406,73886.750,12329,8,AZ,1,100,0.466
1570470269.000520,73899.375,12329,8,AZ,1,100,0.475
1570470269.016635,73912.000,12329,8,AZ,1,100,0.479
1570470269.033045,73924.857,12347,7,AZ,1,100,0.467
1570470269.049456,73937.714,12347,7,AZ,1,100,0.448
1570470269.065866,73950.571,12347,7,AZ,1,100,0.442
1570470269.082277,73963.429,12347,7,AZ,1,100,0.456
1570470269.098688,73976.286,12347,7,AZ,1,100,0.458
1570470269.115098,73989.143,12347,7,AZ,1,100,0.451
1570470269.131509,74002.000,12347,7,AZ,1,100,0.403
1570470269.147943,74014.875,12365,8,AZ,1,100,0.380
1570470269.164376,74027.750,12365,8,AZ,1,100,0.391
1570470269.180809,74040.625,12365,8,AZ,1,100,0.428
1570470269.197243,74053.500,12365,8,AZ,1,100,0.443
1570470269.213676,74066.375,12365,8,AZ,1,100,0.455
1570470269.230109,74079.250,12365,8,AZ,1,100,0.454
1570470269.246543,74092.125,12365,8,AZ,1,100,0.442
1570470269.262976,74105.000,12365,8,AZ,1,100,0.427
1570470269.279569,74118.000,12383,8,AZ,1,100,0.425
1570470269.296162,74131.000,12383,8,AZ,1,100,0.432
1570470269.312755,74144.000,12383,8,AZ,1,100,0.444
1570470269.329348,74157.000,12383,8,AZ,1,100,0.447
1570470269.345941,74170.000,12383,8,AZ,1,100,0.448
1570470269.362534,74183.000,12383,8,AZ,1,100,0.439
1570470269.379127,74196.000,12383,8,AZ,1,100,0.437
1570470269.395720,74209.000,12383,8,AZ,1,100,0.437
1570470269.412313,74222.000,12401,8,AZ,1,100,0.439
1570470269.428906,74235.000,12401,8,AZ,1,100,0.438
1570470269.445499,74248.000,12401,8,AZ,1,100,0.441
1570470269.462092,74261.000,12401,8,AZ,1,100,0.437
1570470269.478685,74274.000,12401,8,AZ,1,100,0.447
1570470269.495278,74287.000,12401,8,AZ,1,100,0.448
1570470269.511871,74300.000,12401,8,AZ,1,100,0.448
1570470269.528464,74313.000,12401,8,AZ,1,100,0.448
1570470269.545057,74326.000,12419,8,AZ,1,100,0.454
1570470269.561650,74339.000,12419,8,AZ,1,100,0.445
1570470269.578243,74352.000,12419,8,AZ,1,100,0.443
1570470269.594836,74365.000,12419,8,AZ,1,100,0.445
1570470269.611428,74378.000,12419,8,AZ,1,100,0.454
1570470269.628021,74391.000,12419,8,AZ,1,100,0.457
1570470269.644614,74404.000,12419,8,AZ,1,100,0.443
1570470269.661207,74417.000,12419,8,AZ,1,100,0.438
1570470269.678347,74430.429,12437,7,AZ,1,100,0.432
1570470269.695487,74443.857,12437,7,AZ,1,100,0.438
1570470269.712627,74457.286,12437,7,AZ,1,100,0.432
1570470269.729767,74470.714,12437,7,AZ,1,100,0.428
1570470269.746907,74484.143,12437,7,AZ,1,100,0.424
1570470269.764047,74497.571,12437,7,AZ,1,100,0.423
1570470269.781187,74511.000,12437,7,AZ,1,100,0.420
1570470269.797780,74524.000,12456,8,AZ,1,100,0.442
1570470269.814373,74537.000,12456,8,AZ,1,100,0.452
1570470269.830966,74550.000,12456,8,AZ,1,100,0.454
1570470269.847559,74563.000,12456,8,AZ,1,100,0.467
1570470269.864152,74576.000,12456,8,AZ,1,100,0.474
1570470269.880745,74589.000,12456,8,AZ,1,100,0.473
1570470269.897338,74602.000,12456,8,AZ,1,100,0.461
1570470269.913931,74615.000,12456,8,AZ,1,100,0.465
1570470269.930364,74627.875,12474,8,AZ,1,100,0.470
1570470269.946798,74640.750,12474,8,AZ,1,100,0.469
1570470269.963231,74653.625,12474,8,AZ,1,100,0.469
1570470269.979665,74666.500,12474,8,AZ,1,100,0.470
1570470269.996098,74679.375,12474,8,AZ,1,100,0.460
1570470270.012531,74692.250,12474,8,AZ,1,100,0.458
1570470270.028965,74705.125,12474,8,AZ,1,100,0.451
1570470270.045398,74718.000,12474,8,AZ,1,100,0.444
1570470270.061991,74731.000,12492,8,AZ,1,100,0.442
1570470270.078584,74744.000,12492,8,AZ,1,100,0.445
1570470270.095177,74757.000,12492,8,AZ,1,100,0.450
1570470270.111770,74770.000,12492,8,AZ,1,100,0.460
1570470270.128363,74783.000,12492,8,AZ,1,100,0.458
1570470270.144956,74796.000,12492,8,AZ,1,100,0.455
1570470270.161549,74809.000,12492,8,AZ,1,100,0.445
1570470270.178142,74822.000,12492,8,AZ,1,100,0.443
1570470270.194552,74834.857,12510,7,AZ,1,100,0.446
1570470270.210963,74847.714,12510,7,AZ,1,100,0.439
1570470270.227374,74860.571,12510,7,AZ,1,100,0.448
1570470270.243784,74873.429,12510,7,AZ,1,100,0.450
1570470270.260195,74886.286,12510,7,AZ,1,100,0.460
1570470270.276606,74899.143,12510,7,AZ,1,100,0.458
1570470270.293016,74912.000,12510,7,AZ,1,100,0.449
1570470270.309609,74925.000,12528,8,AZ,1,100,0.432
1570470270.326202,74938.000,12528,8,AZ,1,100,0.430
1570470270.342795,74951.000,12528,8,AZ,1,100,0.432
1570470270.359388,74964.000,12528,8,AZ,1,100,0.435
1570470270.375981,74977.000,12528,8,AZ,1,100,0.439
1570470270.392574,74990.000,12528,8,AZ,1,100,0.432
1570470270.409167,75003.000,12528,8,AZ,1,100,0.421
1570470270.425760,75016.000,12528,8,AZ,1,100,0.422
1570470270.442513,75029.125,12546,8,AZ,1,100,0.431
1570470270.459265,75042.250,12546,8,AZ,1,100,0.438
1570470270.476017,75055.375,12546,8,AZ,1,100,0.438
1570470270.492770,75068.500,12546,8,AZ,1,100,0.437
1570470270.509522,75081.625,12546,8,AZ,1,100,0.435
1570470270.526275,75094.750,12546,8,AZ,1,100,0.436
1570470270.543027,75107.875,12546,8,AZ,1,100,0.438
1570470270.559780,75121.000,12546,8,AZ,1,100,0.429
1570470270.576532,75134.125,12564,8,AZ,1,100,0.431
1570470270.593285,75147.250,12564,8,AZ,1,100,0.432
1570470270.610038,75160.375,12564,8,AZ,1,100,0.442
1570470270.626790,75173.500,12564,8,AZ,1,100,0.439
1570470270.643543,75186.625,12564,8,AZ,1,100,0.437
1570470270.660295,75199.750,12564,8,AZ,1,100,0.437
1570470270.677047,75212.875,12564,8,AZ,1,100,0.434
1570470270.693800,75226.000,12564,8,AZ,1,100,0.424
1570470270.710758,75239.286,12582,7,AZ,1,100,0.422
1570470270.727715,75252.571,12582,7,AZ,1,100,0.426
1570470270.744673,75265.857,12582,7,AZ,1,100,0.435
1570470270.761631,75279.143,12582,7,AZ,1,100,0.440
1570470270.778588,75292.429,12582,7,AZ,1,100,0.434
1570470270.795546,75305.714,12582,7,AZ,1,100,0.431
1570470270.812504,75319.000,12582,7,AZ,1,100,0.429
1570470270.829256,75332.125,12600,8,AZ,1,100,0.427
1570470270.846009,75345.250,12600,8,AZ,1,100,0.432
1570470270.862761,75358.375,12600,8,AZ,1,100,0.441
1570470270.879514,75371.500,12600,8,AZ,1,100,0.447
1570470270.896266,75384.625,12600,8,AZ,1,100,0.442
1570470270.913018,75397.750,12600,8,AZ,1,100,0.433
1570470270.929771,75410.875,12600,8,AZ,1,100,0.417
1570470270.946524,75424.000,12600,8,AZ,1,100,0.403
1570470270.963276,75437.125,12618,8,AZ,1,100,0.408
1570470270.980029,75450.250,12618,8,AZ,1,100,0.427
1570470270.996781,75463.375,12618,8,AZ,1,100,0.435
1570470271.013534,75476.500,12618,8,AZ,1,100,0.444
1570470271.030286,75489.625,12618,8,AZ,1,100,0.425
1570470271.047039,75502.750,12618,8,AZ,1,100,0.419
1570470271.063791,75515.875,12618,8,AZ,1,100,0.419
1570470271.080544,75529.000,12618,8,AZ,1,100,0.440
1570470271.097136,75542.000,12636,8,AZ,1,100,0.448
1570470271.113729,75555.000,12636,8,AZ,1,100,0.445
1570470271.130322,75568.000,12636,8,AZ,1,100,0.444
1570470271.146915,75581.000,12636,8,AZ,1,100,0.444
1570470271.163508,75594.000,12636,8,AZ,1,100,0.440
1570470271.180101,75607.000,12636,8,AZ,1,100,0.432
1570470271.196694,75620.000,12636,8,AZ,1,100,0.432
1570470271.213287,75633.000,12636,8,AZ,1,100,0.430
1570470271.229698,75645.857,12654,7,AZ,1,100,0.434
1570470271.246109,75658.714,12654,7,AZ,1,100,0.435
1570470271.262519,75671.571,12654,7,AZ,1,100,0.439
1570470271.278930,75684.429,12654,7,AZ,1,100,0.445
1570470271.295340,75697.286,12654,7,AZ,1,100,0.445
1570470271.311751,75710.143,12654,7,AZ,1,100,0.447
1570470271.328162,75723.000,12654,7,AZ,1,100,0.438
1570470271.345074,75736.250,12672,8,AZ,1,100,0.419
1570470271.361986,75749.500,12672,8,AZ,1,100,0.408
1570470271.378898,75762.750,12672,8,AZ,1,100,0.418
1570470271.395810,75776.000,12672,8,AZ,1,100,0.425
1570470271.412722,75789.250,12672,8,AZ,1,100,0.424
1570470271.429634,75802.500,12672,8,AZ,1,100,0.431
1570470271.446546,75815.750,12672,8,AZ,1,100,0.443
1570470271.463458,75829.000,12672,8,AZ,1,100,0.457
1570470271.480211,75842.125,12690,8,AZ,1,100,0.458
1570470271.496963,75855.250,12690,8,AZ,1,100,0.450
1570470271.513716,75868.375,12690,8,AZ,1,100,0.439
1570470271.530468,75881.500,12690,8,AZ,1,100,0.432
1570470271.547221,75894.625,12690,8,AZ,1,100,0.422
1570470271.563973,75907.750,12690,8,AZ,1,100,0.417
1570470271.580726,75920.875,12690,8,AZ,1,100,0.423
1570470271.597478,75934.000,12690,8,AZ,1,100,0.435
1570470271.614254,75947.143,12708,7,AZ,1,100,0.429
1570470271.631029,75960.286,12708,7,AZ,1,100,0.424
1570470271.647804,75973.429,12708,7,AZ,1,100,0.418
1570470271.664579,75986.571,12708,7,AZ,1,100,0.421
1570470271.681355,75999.714,12708,7,AZ,1,100,0.436
1570470271.698130,76012.857,12708,7,AZ,1,100,0.464
1570470271.714905,76026.000,12708,7,AZ,1,100,0.470
1570470271.731817,76039.250,12724,8,AZ,1,100,0.465
1570470271.748729,76052.500,12724,8,AZ,1,100,0.454
1570470271.765641,76065.750,12724,8,AZ,1,100,0.452
1570470271.782553,76079.000,12724,8,AZ,1,100,0.452
1570470271.799465,76092.250,12724,8,AZ,1,100,0.450
1570470271.816378,76105.500,12724,8,AZ,1,100,0.455
1570470271.833290,76118.750,12724,8,AZ,1,100,0.461
1570470271.850202,76132.000,12724,8,AZ,1,100,0.447
1570470271.866635,76144.875,12743,8,AZ,1,100,0.439
1570470271.883069,76157.750,12743,8,AZ,1,100,0.428
1570470271.899502,76170.625,12743,8,AZ,1,100,0.428
1570470271.915935,76183.500,12743,8,AZ,1,100,0.435
1570470271.932369,76196.375,12743,8,AZ,1,100,0.434
1570470271.948802,76209.250,12743,8,AZ,1,100,0.431
1570470271.965235,76222.125,12743,8,AZ,1,100,0.421
1570470271.981669,76235.000,12743,8,AZ,1,100,0.414
1570470271.998065,76247.846,12764,13,AZ,1,100,0.413
1570470272.014462,76260.692,12764,13,AZ,1,100,0.424
1570470272.030859,76273.538,12764,13,AZ,1,100,0.430
1570470272.047255,76286.385,12764,13,AZ,1,100,0.428
1570470272.063652,76299.231,12764,13,AZ,1,100,0.417
1570470272.080049,76312.077,12764,13,AZ,1,100,0.423
1570470272.096445,76324.923,12764,13,AZ,1,100,0.422
1570470272.112842,76337.769,12764,13,AZ,1,100,0.425
1570470272.129238,76350.615,12764,13,AZ,1,100,0.438
1570470272.145635,76363.462,12764,13,AZ,1,100,0.450
1570470272.162031,76376.308,12764,13,AZ,1,100,0.455
1570470272.178428,76389.154,12764,13,AZ,1,100,0.439
1570470272.194825,76402.000,12764,13,AZ,1,100,0.433
1570470272.211418,76415.000,12784,7,AZ,1,100,0.427
1570470272.228011,76428.000,12784,7,AZ,1,100,0.431
1570470272.244604,76441.000,12784,7,AZ,1,100,0.429
1570470272.261197,76454.000,12784,7,AZ,1,100,0.424
1570470272.277790,76467.000,12784,7,AZ,1,100,0.427
1570470272.294382,76480.000,12784,7,AZ,1,100,0.430
1570470272.310975,76493.000,12784,7,AZ,1,100,0.427
1570470272.327568,76506.000,12802,8,AZ,1,100,0.426
1570470272.344161,76519.000,12802,8,AZ,1,100,0.416
1570470272.360754,76532.000,12802,8,AZ,1,100,0.425
1570470272.377347,76545.000,12802,8,AZ,1,100,0.431
1570470272.393940,76558.000,12802,8,AZ,1,100,0.439
1570470272.410533,76571.000,12802,8,AZ,1,100,0.439
1570470272.427126,76584.000,12802,8,AZ,1,100,0.427
1570470272.443719,76597.000,12802,8,AZ,1,100,0.424
1570470272.460312,76610.000,12820,8,AZ,1,100,0.425
1570470272.476905,76623.000,12820,8,AZ,1,100,0.426
1570470272.493498,76636.000,12820,8,AZ,1,100,0.431
1570470272.510091,76649.000,12820,8,AZ,1,100,0.433
1570470272.526684,76662.000,12820,8,AZ,1,100,0.432
1570470272.543277,76675.000,12820,8,AZ,1,100,0.429
1570470272.559870,76688.000,12820,8,AZ,1,100,0.428
1570470272.576463,76701.000,12820,8,AZ,1,100,0.422
1570470272.592873,76713.857,12838,7,AZ,1,100,0.425
1570470272.609284,76726.714,12838,7,AZ,1,100,0.431
1570470272.625695,76739.571,12838,7,AZ,1,100,0.438
1570470272.642105,76752.429,12838,7,AZ,1,100,0.443
1570470272.658516,76765.286,12838,7,AZ,1,100,0.449
1570470272.674927,76778.143,12838,7,AZ,1,100,0.436
1570470272.691337,76791.000,12838,7,AZ,1,100,0.429
1570470272.708090,76804.125,12856,8,AZ,1,100,0.427
1570470272.724842,76817.250,12856,8,AZ,1,100,0.436
1570470272.741595,76830.375,12856,8,AZ,1,100,0.450
1570470272.758347,76843.500,12856,8,AZ,1,100,0.446
1570470272.775100,76856.625,12856,8,AZ,1,100,0.437
1570470272.791852,76869.750,12856,8,AZ,1,100,0.431
1570470272.808605,76882.875,12856,8,AZ,1,100,0.427
1570470272.825357,76896.000,12856,8,AZ,1,100,0.418
1570470272.842110,76909.125,12875,8,AZ,1,100,0.408
1570470272.858862,76922.250,12875,8,AZ,1,100,0.410
1570470272.875615,76935.375,12875,8,AZ,1,100,0.412
1570470272.892367,76948.500,12875,8,AZ,1,100,0.424
1570470272.909120,76961.625,12875,8,AZ,1,100,0.439
1570470272.925872,76974.750,12875,8,AZ,1,100,0.447
1570470272.942625,76987.875,12875,8,AZ,1,100,0.451
1570470272.959377,77001.000,12875,8,AZ,1,100,0.454
1570470272.976152,77014.143,12893,7,AZ,1,100,0.445
1570470272.992928,77027.286,12893,7,AZ,1,100,0.435
1570470273.009703,77040.429,12893,7,AZ,1,100,0.421
1570470273.026479,77053.571,12893,7,AZ,1,100,0.424
1570470273.043254,77066.714,12893,7,AZ,1,100,0.416
1570470273.060029,77079.857,12893,7,AZ,1,100,0.405
1570470273.076804,77093.000,12893,7,AZ,1,100,0.384
1570470273.093238,77105.875,12911,8,AZ,1,100,0.385
1570470273.109671,77118.750,12911,8,AZ,1,100,0.384
1570470273.126105,77131.625,12911,8,AZ,1,100,0.390
1570470273.142538,77144.500,12911,8,AZ,1,100,0.396
1570470273.158971,77157.375,12911,8,AZ,1,100,0.410
1570470273.175405,77170.250,12911,8,AZ,1,100,0.426
1570470273.191838,77183.125,12911,8,AZ,1,100,0.430
1570470273.208272,77196.000,12911,8,AZ,1,100,0.439
1570470273.225024,77209.125,12928,8,AZ,1,100,0.436
1570470273.241777,77222.250,12928,8,AZ,1,100,0.431
1570470273.258529,77235.375,12928,8,AZ,1,100,0.428
1570470273.275282,77248.500,12928,8,AZ,1,100,0.429
1570470273.292034,77261.625,12928,8,AZ,1,100,0.418
1570470273.308787,77274.750,12928,8,AZ,1,100,0.418
1570470273.325539,77287.875,12928,8,AZ,1,100,0.423
1570470273.342292,77301.000,12928,8,AZ,1,100,0.443
1570470273.358885,77314.000,12946,8,AZ,1,100,0.448
1570470273.375478,77327.000,12946,8,AZ,1,100,0.441
1570470273.392071,77340.000,12946,8,AZ,1,100,0.433
1570470273.408664,77353.000,12946,8,AZ,1,100,0.425
1570470273.425256,77366.000,12946,8,AZ,1,100,0.422
1570470273.441849,77379.000,12946,8,AZ,1,100,0.421
1570470273.458442,77392.000,12946,8,AZ,1,100,0.421
1570470273.475035,77405.000,12946,8,AZ,1,100,0.414
1570470273.491628,77418.000,12964,8,AZ,1,100,0.408
1570470273.508221,77431.000,12964,8,AZ,1,100,0.412
1570470273.524814,77444.000,12964,8,AZ,1,100,0.406
1570470273.541407,77457.000,12964,8,AZ,1,100,0.406
1570470273.558000,77470.000,12964,8,AZ,1,100,0.404
1570470273.574593,77483.000,12964,8,AZ,1,100,0.405
1570470273.591186,77496.000,12964,8,AZ,1,100,0.406
1570470273.607779,77509.000,12964,8,AZ,1,100,0.407
1570470273.624372,77522.000,12982,7,AZ,1,100,0.414
1570470273.640965,77535.000,12982,7,AZ,1,100,0.414
1570470273.657558,77548.000,12982,7,AZ,1,100,0.411
1570470273.674151,77561.000,12982,7,AZ,1,100,0.413
1570470273.690744,77574.000,12982,7,AZ,1,100,0.418
1570470273.707337,77587.000,12982,7,AZ,1,100,0.417
1570470273.723930,77600.000,12982,7,AZ,1,100,0.428
1570470273.740842,77613.250,13000,8,AZ,1,100,0.417
1570470273.757754,77626.500,13000,8,AZ,1,100,0.412
1570470273.774666,77639.750,13000,8,AZ,1,100,0.410
1570470273.791578,77653.000,13000,8,AZ,1,100,0.415
1570470273.808490,77666.250,13000,8,AZ,1,100,0.423
1570470273.825402,77679.500,13000,8,AZ,1,100,0.423
1570470273.842314,77692.750,13000,8,AZ,1,100,0.424
1570470273.859226,77706.000,13000,8,AZ,1,100,0.434
1570470273.875979,77719.125,13019,8,AZ,1,100,0.434
1570470273.892731,77732.250,13019,8,AZ,1,100,0.431
1570470273.909484,77745.375,13019,8,AZ,1,100,0.432
1570470273.926236,77758.500,13019,8,AZ,1,100,0.436
1570470273.942989,77771.625,13019,8,AZ,1,100,0.442
1570470273.959741,77784.750,13019,8,AZ,1,100,0.431
1570470273.976494,77797.875,13019,8,AZ,1,100,0.426
1570470273.993246,77811.000,13019,8,AZ,1,100,0.418
1570470274.010204,77824.286,13037,7,AZ,1,100,0.413
1570470274.027162,77837.571,13037,7,AZ,1,100,0.422
1570470274.044119,77850.857,13037,7,AZ,1,100,0.434
1570470274.061077,77864.143,13037,7,AZ,1,100,0.431
1570470274.078034,77877.429,13037,7,AZ,1,100,0.419
1570470274.094992,77890.714,13037,7,AZ,1,100,0.406
1570470274.111950,77904.000,13037,7,AZ,1,100,0.400
1570470274.128862,77917.250,13053,8,AZ,1,100,0.402
1570470274.145774,77930.500,13053,8,AZ,1,100,0.413
1570470274.162686,77943.750,13053,8,AZ,1,100,0.427
1570470274.179598,77957.000,13053,8,AZ,1,100,0.423
1570470274.196510,77970.250,13053,8,AZ,1,100,0.425
1570470274.213422,77983.500,13053,8,AZ,1,100,0.425
1570470274.230334,77996.750,13053,8,AZ,1,100,0.422
1570470274.247246,78010.000,13053,8,AZ,1,100,0.394
1570470274.263680,78022.875,13071,8,AZ,1,100,0.403
1570470274.280113,78035.750,13071,8,AZ,1,100,0.406
1570470274.296546,78048.625,13071,8,AZ,1,100,0.397
1570470274.312980,78061.500,13071,8,AZ,1,100,0.407
1570470274.329413,78074.375,13071,8,AZ,1,100,0.407
1570470274.345847,78087.250,13071,8,AZ,1,100,0.382
1570470274.362280,78100.125,13071,8,AZ,1,100,0.372
1570470274.378713,78113.000,13071,8,AZ,1,100,0.365
1570470274.395306,78126.000,13089,7,AZ,1,100,0.373
1570470274.411899,78139.000,13089,7,AZ,1,100,0.391
1570470274.428492,78152.000,13089,7,AZ,1,100,0.399
1570470274.445085,78165.000,13089,7,AZ,1,100,0.384
1570470274.461678,78178.000,13089,7,AZ,1,100,0.379
1570470274.478271,78191.000,13089,7,AZ,1,100,0.370
1570470274.494864,78204.000,13089,7,AZ,1,100,0.394
1570470274.511617,78217.125,13107,8,AZ,1,100,0.412
1570470274.528369,78230.250,13107,8,AZ,1,100,0.409
1570470274.545122,78243.375,13107,8,AZ,1,100,0.401
1570470274.561874,78256.500,13107,8,AZ,1,100,0.387
1570470274.578627,78269.625,13107,8,AZ,1,100,0.381
1570470274.595379,78282.750,13107,8,AZ,1,100,0.382
1570470274.612132,78295.875,13107,8,AZ,1,100,0.385
1570470274.628884,78309.000,13107,8,AZ,1,100,0.388
1570470274.645637,78322.125,13125,8,AZ,1,100,0.390
1570470274.662389,78335.250,13125,8,AZ,1,100,0.393
1570470274.679142,78348.375,13125,8,AZ,1,100,0.396
1570470274.695894,78361.500,13125,8,AZ,1,100,0.396
1570470274.712647,78374.625,13125,8,AZ,1,100,0.398
1570470274.729399,78387.750,13125,8,AZ,1,100,0.406
1570470274.746152,78400.875,13125,8,AZ,1,100,0.398
1570470274.762904,78414.000,13125,8,AZ,1,100,0.401
1570470274.779497,78427.000,13143,8,AZ,1,100,0.396
1570470274.796090,78440.000,13143,8,AZ,1,100,0.400
1570470274.812683,78453.000,13143,8,AZ,1,100,0.399
1570470274.829276,78466.000,13143,8,AZ,1,100,0.390
1570470274.845869,78479.000,13143,8,AZ,1,100,0.389
1570470274.862462,78492.000,13143,8,AZ,1,100,0.387
1570470274.879055,78505.000,13143,8,AZ,1,100,0.389
1570470274.895648,78518.000,13143,8,AZ,1,100,0.395
1570470274.912423,78531.143,13162,7,AZ,1,100,0.395
1570470274.929199,78544.286,13162,7,AZ,1,100,0.394
1570470274.945974,78557.429,13162,7,AZ,1,100,0.386
1570470274.962749,78570.571,13162,7,AZ,1,100,0.387
1570470274.979525,78583.714,13162,7,AZ,1,100,0.388
1570470274.996300,78596.857,13162,7,AZ,1,100,0.391
1570470275.013075,78610.000,13162,7,AZ,1,100,0.389
1570470275.029828,78623.125,13180,8,AZ,1,100,0.386
1570470275.046580,78636.250,13180,8,AZ,1,100,0.391
1570470275.063333,78649.375,13180,8,AZ,1,100,0.389
1570470275.080085,78662.500,13180,8,AZ,1,100,0.385
1570470275.096838,78675.625,13180,8,AZ,1,100,0.377
1570470275.113590,78688.750,13180,8,AZ,1,100,0.377
1570470275.130343,78701.875,13180,8,AZ,1,100,0.385
1570470275.147095,78715.000,13180,8,AZ,1,100,0.413
1570470275.163688,78728.000,13198,8,AZ,1,100,0.415
1570470275.180281,78741.000,13198,8,AZ,1,100,0.412
1570470275.196874,78754.000,13198,8,AZ,1,100,0.404
1570470275.213467,78767.000,13198,8,AZ,1,100,0.412
1570470275.230060,78780.000,13198,8,AZ,1,100,0.411
1570470275.246653,78793.000,13198,8,AZ,1,100,0.384
1570470275.263246,78806.000,13198,8,AZ,1,100,0.376
1570470275.279839,78819.000,13198,8,AZ,1,100,0.386
1570470275.296113,78831.750,13216,8,AZ,1,100,0.398
1570470275.312387,78844.500,13216,8,AZ,1,100,0.392
1570470275.328660,78857.250,13216,8,AZ,1,100,0.387
1570470275.344934,78870.000,13216,8,AZ,1,100,0.390
1570470275.361208,78882.750,13216,8,AZ,1,100,0.393
1570470275.377482,78895.500,13216,8,AZ,1,100,0.393
1570470275.393756,78908.250,13216,8,AZ,1,100,0.379
1570470275.410030,78921.000,13216,8,AZ,1,100,0.370
1570470275.426440,78933.857,13234,7,AZ,1,100,0.366
1570470275.442851,78946.714,13234,7,AZ,1,100,0.372
1570470275.459262,78959.571,13234,7,AZ,1,100,0.378
1570470275.475672,78972.429,13234,7,AZ,1,100,0.394
1570470275.492083,78985.286,13234,7,AZ,1,100,0.399
1570470275.508493,78998.143,13234,7,AZ,1,100,0.388
1570470275.524904,79011.000,13234,7,AZ,1,100,0.385
1570470275.541337,79023.875,13252,8,AZ,1,100,0.389
1570470275.557771,79036.750,13252,8,AZ,1,100,0.400
1570470275.574204,79049.625,13252,8,AZ,1,100,0.410
1570470275.590638,79062.500,13252,8,AZ,1,100,0.408
1570470275.607071,79075.375,13252,8,AZ,1,100,0.403
1570470275.623505,79088.250,13252,8,AZ,1,100,0.383
1570470275.639938,79101.125,13252,8,AZ,1,100,0.394
1570470275.656371,79114.000,13252,8,AZ,1,100,0.391
1570470275.673283,79127.250,13270,8,AZ,1,100,0.383
1570470275.690196,79140.500,13270,8,AZ,1,100,0.375
1570470275.707108,79153.750,13270,8,AZ,1,100,0.384
1570470275.724020,79167.000,13270,8,AZ,1,100,0.400
1570470275.740932,79180.250,13270,8,AZ,1,100,0.406
1570470275.757844,79193.500,13270,8,AZ,1,100,0.397
1570470275.774756,79206.750,13270,8,AZ,1,100,0.389
1570470275.791668,79220.000,13270,8,AZ,1,100,0.387
1570470275.808261,79233.000,13288,8,AZ,1,100,0.387
1570470275.824854,79246.000,13288,8,AZ,1,100,0.387
1570470275.841447,79259.000,13288,8,AZ,1,100,0.381
1570470275.858040,79272.000,13288,8,AZ,1,100,0.388
1570470275.874633,79285.000,13288,8,AZ,1,100,0.385
1570470275.891226,79298.000,13288,8,AZ,1,100,0.390
1570470275.907819,79311.000,13288,8,AZ,1,100,0.389
1570470275.924412,79324.000,13288,8,AZ,1,100,0.387
1570470275.941369,79337.286,13307,7,AZ,1,100,0.396
1570470275.958327,79350.571,13307,7,AZ,1,100,0.398
1570470275.975284,79363.857,13307,7,AZ,1,100,0.391
1570470275.992242,79377.143,13307,7,AZ,1,100,0.395
1570470276.009200,79390.429,13307,7,AZ,1,100,0.389
1570470276.026157,79403.714,13307,7,AZ,1,100,0.377
1570470276.043115,79417.000,13307,7,AZ,1,100,0.383
1570470276.059708,79430.000,13325,8,AZ,1,100,0.364
1570470276.076301,79443.000,13325,8,AZ,1,100,0.356
1570470276.092894,79456.000,13325,8,AZ,1,100,0.349
1570470276.109487,79469.000,13325,8,AZ,1,100,0.352
1570470276.126080,79482.000,13325,8,AZ,1,100,0.350
1570470276.142673,79495.000,13325,8,AZ,1,100,0.362
1570470276.159266,79508.000,13325,8,AZ,1,100,0.369
1570470276.175859,79521.000,13325,8,AZ,1,100,0.363
1570470276.192611,79534.125,13343,8,AZ,1,100,0.351
1570470276.209364,79547.250,13343,8,AZ,1,100,0.356
1570470276.226116,79560.375,13343,8,AZ,1,100,0.361
1570470276.242869,79573.500,13343,8,AZ,1,100,0.359
1570470276.259621,79586.625,13343,8,AZ,1,100,0.363
1570470276.276374,79599.750,13343,8,AZ,1,100,0.345
1570470276.293126,79612.875,13343,8,AZ,1,100,0.329
1570470276.309879,79626.000,13343,8,AZ,1,100,0.332
1570470276.326312,79638.875,13361,8,AZ,1,100,0.344
1570470276.342746,79651.750,13361,8,AZ,1,100,0.370
1570470276.359179,79664.625,13361,8,AZ,1,100,0.385
1570470276.375612,79677.500,13361,8,AZ,1,100,0.390
1570470276.392046,79690.375,13361,8,AZ,1,100,0.370
1570470276.408479,79703.250,13361,8,AZ,1,100,0.367
1570470276.424913,79716.125,13361,8,AZ,1,100,0.360
1570470276.441346,79729.000,13361,8,AZ,1,100,0.366
1570470276.457939,79742.000,13379,7,AZ,1,100,0.372
1570470276.474532,79755.000,13379,7,AZ,1,100,0.371
1570470276.491125,79768.000,13379,7,AZ,1,100,0.373
1570470276.507718,79781.000,13379,7,AZ,1,100,0.370
1570470276.524311,79794.000,13379,7,AZ,1,100,0.357
1570470276.540904,79807.000,13379,7,AZ,1,100,0.355
1570470276.557497,79820.000,13379,7,AZ,1,100,0.356
1570470276.573930,79832.875,13397,8,AZ,1,100,0.368
1570470276.590364,79845.750,13397,8,AZ,1,100,0.371
1570470276.606797,79858.625,13397,8,AZ,1,100,0.377
1570470276.623230,79871.500,13397,8,AZ,1,100,0.368
1570470276.639664,79884.375,13397,8,AZ,1,100,0.369
1570470276.656097,79897.250,13397,8,AZ,1,100,0.375
1570470276.672531,79910.125,13397,8,AZ,1,100,0.383
1570470276.688964,79923.000,13397,8,AZ,1,100,0.384
1570470276.705876,79936.250,13415,8,AZ,1,100,0.367
1570470276.722788,79949.500,13415,8,AZ,1,100,0.357
1570470276.739700,79962.750,13415,8,AZ,1,100,0.351
1570470276.756612,79976.000,13415,8,AZ,1,100,0.358
1570470276.773524,79989.250,13415,8,AZ,1,100,0.368
1570470276.790436,80002.500,13415,8,AZ,1,100,0.373
1570470276.807348,80015.750,13415,8,AZ,1,100,0.381
1570470276.824260,80029.000,13415,8,AZ,1,100,0.365
1570470276.841036,80042.143,13433,7,AZ,1,100,0.360
1570470276.857811,80055.286,13433,7,AZ,1,100,0.365
1570470276.874586,80068.429,13433,7,AZ,1,100,0.378
1570470276.891362,80081.571,13433,7,AZ,1,100,0.381
1570470276.908137,80094.714,13433,7,AZ,1,100,0.377
1570470276.924912,80107.857,13433,7,AZ,1,100,0.372
1570470276.941688,80121.000,13433,7,AZ,1,100,0.362
1570470276.958600,80134.250,13452,8,AZ,1,100,0.365
1570470276.975512,80147.500,13452,8,AZ,1,100,0.371
1570470276.992424,80160.750,13452,8,AZ,1,100,0.372
1570470277.009336,80174.000,13452,8,AZ,1,100,0.387
1570470277.026248,80187.250,13452,8,AZ,1,100,0.381
1570470277.043160,80200.500,13452,8,AZ,1,100,0.382
1570470277.060072,80213.750,13452,8,AZ,1,100,0.385
1570470277.076984,80227.000,13452,8,AZ,1,100,0.380
1570470277.093577,80240.000,13469,8,AZ,1,100,0.361
1570470277.110170,80253.000,13469,8,AZ,1,100,0.358
1570470277.126763,80266.000,13469,8,AZ,1,100,0.350
1570470277.143356,80279.000,13469,8,AZ,1,100,0.355
1570470277.159949,80292.000,13469,8,AZ,1,100,0.367
1570470277.176542,80305.000,13469,8,AZ,1,100,0.379
1570470277.193135,80318.000,13469,8,AZ,1,100,0.372
1570470277.209728,80331.000,13469,8,AZ,1,100,0.361
1570470277.226480,80344.125,13487,8,AZ,1,100,0.352
1570470277.243233,80357.250,13487,8,AZ,1,100,0.346
1570470277.259985,80370.375,13487,8,AZ,1,100,0.346
1570470277.276738,80383.500,13487,8,AZ,1,100,0.364
1570470277.293490,80396.625,13487,8,AZ,1,100,0.370
1570470277.310243,80409.750,13487,8,AZ,1,100,0.367
1570470277.326995,80422.875,13487,8,AZ,1,100,0.367
1570470277.343748,80436.000,13487,8,AZ,1,100,0.356
1570470277.360341,80449.000,13505,7,AZ,1,100,0.365
1570470277.376934,80462.000,13505,7,AZ,1,100,0.364
1570470277.393527,80475.000,13505,7,AZ,1,100,0.366
1570470277.410120,80488.000,13505,7,AZ,1,100,0.368
1570470277.426713,80501.000,13505,7,AZ,1,100,0.371
1570470277.443305,80514.000,13505,7,AZ,1,100,0.356
1570470277.459898,80527.000,13505,7,AZ,1,100,0.356
1570470277.476651,80540.125,13523,8,AZ,1,100,0.333
1570470277.493403,80553.250,13523,8,AZ,1,100,0.308
1570470277.510156,80566.375,13523,8,AZ,1,100,0.324
1570470277.526908,80579.500,13523,8,AZ,1,100,0.312
1570470277.543661,80592.625,13523,8,AZ,1,100,0.333
1570470277.560414,80605.750,13523,8,AZ,1,100,0.340
1570470277.577166,80618.875,13523,8,AZ,1,100,0.337
1570470277.593919,80632.000,13523,8,AZ,1,100,0.326
1570470277.610352,80644.875,13541,8,AZ,1,100,0.317
1570470277.626785,80657.750,13541,8,AZ,1,100,0.324
1570470277.643219,80670.625,13541,8,AZ,1,100,0.329
1570470277.659652,80683.500,13541,8,AZ,1,100,0.344
1570470277.676086,80696.375,13541,8,AZ,1,100,0.344
1570470277.692519,80709.250,13541,8,AZ,1,100,0.339
1570470277.708952,80722.125,13541,8,AZ,1,100,0.332
1570470277.725386,80735.000,13541,8,AZ,1,100,0.335
1570470277.742708,80748.571,13559,7,AZ,1,100,0.339
1570470277.760031,80762.143,13559,7,AZ,1,100,0.350
1570470277.777353,80775.714,13559,7,AZ,1,100,0.369
1570470277.794675,80789.286,13559,7,AZ,1,100,0.369
1570470277.811997,80802.857,13559,7,AZ,1,100,0.381
1570470277.829320,80816.429,13559,7,AZ,1,100,0.369
1570470277.846642,80830.000,13559,7,AZ,1,100,0.374
1570470277.863075,80842.875,13578,8,AZ,1,100,0.381
1570470277.879509,80855.750,13578,8,AZ,1,100,0.379
1570470277.895942,80868.625,13578,8,AZ,1,100,0.372
1570470277.912376,80881.500,13578,8,AZ,1,100,0.355
1570470277.928809,80894.375,13578,8,AZ,1,100,0.346
1570470277.945243,80907.250,13578,8,AZ,1,100,0.344
1570470277.961676,80920.125,13578,8,AZ,1,100,0.340
1570470277.978109,80933.000,13578,8,AZ,1,100,0.345
1570470277.994862,80946.125,13594,8,AZ,1,100,0.344
1570470278.011614,80959.250,13594,8,AZ,1,100,0.336
1570470278.028367,80972.375,13594,8,AZ,1,100,0.334
1570470278.045120,80985.500,13594,8,AZ,1,100,0.331
1570470278.061872,80998.625,13594,8,AZ,1,100,0.345
1570470278.078624,81011.750,13594,8,AZ,1,100,0.348
1570470278.095377,81024.875,13594,8,AZ,1,100,0.354
1570470278.112129,81038.000,13594,8,AZ,1,100,0.345
1570470278.128722,81051.000,13612,7,AZ,1,100,0.346
1570470278.145315,81064.000,13612,7,AZ,1,100,0.354
1570470278.161908,81077.000,13612,7,AZ,1,100,0.350
1570470278.178501,81090.000,13612,7,AZ,1,100,0.357
1570470278.195094,81103.000,13612,7,AZ,1,100,0.340
1570470278.211687,81116.000,13612,7,AZ,1,100,0.341
1570470278.228280,81129.000,13612,7,AZ,1,100,0.331
1570470278.244873,81142.000,13630,9,AZ,1,100,0.322
1570470278.261466,81155.000,13630,9,AZ,1,100,0.312
1570470278.278059,81168.000,13630,9,AZ,1,100,0.303
1570470278.294652,81181.000,13630,9,AZ,1,100,0.298
1570470278.311245,81194.000,13630,9,AZ,1,100,0.312
1570470278.327838,81207.000,13630,9,AZ,1,100,0.337
1570470278.344431,81220.000,13630,9,AZ,1,100,0.374
1570470278.361024,81233.000,13630,9,AZ,1,100,0.388
1570470278.377617,81246.000,13630,9,AZ,1,100,0.399
1570470278.393845,81258.714,13648,7,AZ,1,100,0.376
1570470278.410073,81271.429,13648,7,AZ,1,100,0.385
1570470278.426302,81284.143,13648,7,AZ,1,100,0.391
1570470278.442530,81296.857,13648,7,AZ,1,100,0.383
1570470278.458758,81309.571,13648,7,AZ,1,100,0.379
1570470278.474987,81322.286,13648,7,AZ,1,100,0.355
1570470278.491215,81335.000,13648,7,AZ,1,100,0.348
1570470278.507808,81348.000,13669,13,AZ,1,100,0.336
1570470278.524401,81361.000,13669,13,AZ,1,100,0.329
1570470278.540994,81374.000,13669,13,AZ,1,100,0.305
1570470278.557587,81387.000,13669,13,AZ,1,100,0.329
1570470278.574180,81400.000,13669,13,AZ,1,100,0.316
1570470278.590773,81413.000,13669,13,AZ,1,100,0.317
1570470278.607365,81426.000,13669,13,AZ,1,100,0.323
1570470278.623958,81439.000,13669,13,AZ,1,100,0.341
1570470278.640551,81452.000,13669,13,AZ,1,100,0.345
1570470278.657144,81465.000,13669,13,AZ,1,100,0.349
1570470278.673737,81478.000,13669,13,AZ,1,100,0.342
1570470278.690330,81491.000,13669,13,AZ,1,100,0.348
1570470278.706923,81504.000,13669,13,AZ,1,100,0.345
1570470278.723334,81516.857,13689,7,AZ,1,100,0.353
1570470278.739744,81529.714,13689,7,AZ,1,100,0.344
