EpochTimestamp,EmotiBitTimestamp,PacketNumber,DataLength,TypeTag,ProtocolVersion,DataReliability,AZ
1570469551.886785,215291.000,37241,11,AZ,1,100,0.701
1570469551.886785,215291.000,37241,11,AZ,1,100,0.677
1570469551.886785,215291.000,37241,11,AZ,1,100,0.685
1570469551.886785,215291.000,37241,11,AZ,1,100,0.669
1570469551.886785,215291.000,37241,11,AZ,1,100,0.687
1570469551.886785,215291.000,37241,11,AZ,1,100,0.690
1570469551.886785,215291.000,37241,11,AZ,1,100,0.705
1570469551.886785,215291.000,37241,11,AZ,1,100,0.698
1570469551.886785,215291.000,37241,11,AZ,1,100,0.701
1570469551.886785,215291.000,37241,11,AZ,1,100,0.696
1570469551.886785,215291.000,37241,11,AZ,1,100,0.693
1570469551.903561,215304.143,37259,7,AZ,1,100,0.668
1570469551.920338,215317.286,37259,7,AZ,1,100,0.683
1570469551.937115,215330.429,37259,7,AZ,1,100,0.703
1570469551.953892,215343.571,37259,7,AZ,1,100,0.706
1570469551.970669,215356.714,37259,7,AZ,1,100,0.707
1570469551.987446,215369.857,37259,7,AZ,1,100,0.676
1570469552.004222,215383.000,37259,7,AZ,1,100,0.681
1570469552.020977,215396.125,37277,8,AZ,1,100,0.682
1570469552.037730,215409.250,37277,8,AZ,1,100,0.695
1570469552.054485,215422.375,37277,8,AZ,1,100,0.703
1570469552.071239,215435.500,37277,8,AZ,1,100,0.711
1570469552.087993,215448.625,37277,8,AZ,1,100,0.699
1570469552.104747,215461.750,37277,8,AZ,1,100,0.669
1570469552.121501,215474.875,37277,8,AZ,1,100,0.674
1570469552.138255,215488.000,37277,8,AZ,1,100,0.663
1570469552.154485,215500.714,37295,7,AZ,1,100,0.696
1570469552.170714,215513.429,37295,7,AZ,1,100,0.712
1570469552.186944,215526.143,37295,7,AZ,1,100,0.697
1570469552.203174,215538.857,37295,7,AZ,1,100,0.689
1570469552.219404,215551.571,37295,7,AZ,1,100,0.695
1570469552.235634,215564.286,37295,7,AZ,1,100,0.715
1570469552.251863,215577.000,37295,7,AZ,1,100,0.689
1570469552.268458,215590.000,37314,8,AZ,1,100,0.685
1570469552.285052,215603.000,37314,8,AZ,1,100,0.689
1570469552.301647,215616.000,37314,8,AZ,1,100,0.679
1570469552.318241,215629.000,37314,8,AZ,1,100,0.680
1570469552.334836,215642.000,37314,8,AZ,1,100,0.690
1570469552.351430,215655.000,37314,8,AZ,1,100,0.697
1570469552.368025,215668.000,37314,8,AZ,1,100,0.671
1570469552.384619,215681.000,37314,8,AZ,1,100,0.684
1570469552.401373,215694.125,37332,8,AZ,1,100,0.665
1570469552.418128,215707.250,37332,8,AZ,1,100,0.691
1570469552.434881,215720.375,37332,8,AZ,1,100,0.714
1570469552.451636,215733.500,37332,8,AZ,1,100,0.700
1570469552.468390,215746.625,37332,8,AZ,1,100,0.691
1570469552.485144,215759.750,37332,8,AZ,1,100,0.696
1570469552.501898,215772.875,37332,8,AZ,1,100,0.686
1570469552.518652,215786.000,37332,8,AZ,1,100,0.664
1570469552.535087,215798.875,37350,8,AZ,1,100,0.658
1570469552.551522,215811.750,37350,8,AZ,1,100,0.675
1570469552.567957,215824.625,37350,8,AZ,1,100,0.701
1570469552.584392,215837.500,37350,8,AZ,1,100,0.688
1570469552.600827,215850.375,37350,8,AZ,1,100,0.693
1570469552.617261,215863.250,37350,8,AZ,1,100,0.705
1570469552.633696,215876.125,37350,8,AZ,1,100,0.686
1570469552.650131,215889.000,37350,8,AZ,1,100,0.687
1570469552.667090,215902.286,37368,7,AZ,1,100,0.685
1570469552.684050,215915.571,37368,7,AZ,1,100,0.711
1570469552.701009,215928.857,37368,7,AZ,1,100,0.712
1570469552.717968,215942.143,37368,7,AZ,1,100,0.695
1570469552.734927,215955.429,37368,7,AZ,1,100,0.693
1570469552.751887,215968.714,37368,7,AZ,1,100,0.693
1570469552.768846,215982.000,37368,7,AZ,1,100,0.705
1570469552.785600,215995.125,37386,8,AZ,1,100,0.687
1570469552.802354,216008.250,37386,8,AZ,1,100,0.689
1570469552.819108,216021.375,37386,8,AZ,1,100,0.694
1570469552.835862,216034.500,37386,8,AZ,1,100,0.673
1570469552.852616,216047.625,37386,8,AZ,1,100,0.694
1570469552.869370,216060.750,37386,8,AZ,1,100,0.702
1570469552.886124,216073.875,37386,8,AZ,1,100,0.676
1570469552.902878,216087.000,37386,8,AZ,1,100,0.675
1570469552.919655,216100.143,37403,7,AZ,1,100,0.698
1570469552.936432,216113.286,37403,7,AZ,1,100,0.702
1570469552.953209,216126.429,37403,7,AZ,1,100,0.696
1570469552.969985,216139.571,37403,7,AZ,1,100,0.691
1570469552.986763,216152.714,37403,7,AZ,1,100,0.673
1570469553.003539,216165.857,37403,7,AZ,1,100,0.690
1570469553.020316,216179.000,37403,7,AZ,1,100,0.712
1570469553.037194,216192.222,37421,9,AZ,1,100,0.715
1570469553.054072,216205.444,37421,9,AZ,1,100,0.717
1570469553.070951,216218.667,37421,9,AZ,1,100,0.668
1570469553.087829,216231.889,37421,9,AZ,1,100,0.668
1570469553.104707,216245.111,37421,9,AZ,1,100,0.684
1570469553.121585,216258.333,37421,9,AZ,1,100,0.691
1570469553.138463,216271.556,37421,9,AZ,1,100,0.667
1570469553.155341,216284.778,37421,9,AZ,1,100,0.681
1570469553.172220,216298.000,37421,9,AZ,1,100,0.718
1570469553.188814,216311.000,37439,7,AZ,1,100,0.707
1570469553.205409,216324.000,37439,7,AZ,1,100,0.679
1570469553.222003,216337.000,37439,7,AZ,1,100,0.679
1570469553.238598,216350.000,37439,7,AZ,1,100,0.706
1570469553.255192,216363.000,37439,7,AZ,1,100,0.658
1570469553.271787,216376.000,37439,7,AZ,1,100,0.688
1570469553.288381,216389.000,37439,7,AZ,1,100,0.715
1570469553.304976,216402.000,37458,8,AZ,1,100,0.723
1570469553.321570,216415.000,37458,8,AZ,1,100,0.692
1570469553.338165,216428.000,37458,8,AZ,1,100,0.672
1570469553.354759,216441.000,37458,8,AZ,1,100,0.686
1570469553.371354,216454.000,37458,8,AZ,1,100,0.694
1570469553.387948,216467.000,37458,8,AZ,1,100,0.674
1570469553.404542,216480.000,37458,8,AZ,1,100,0.689
1570469553.421137,216493.000,37458,8,AZ,1,100,0.687
1570469553.437732,216506.000,37476,8,AZ,1,100,0.664
1570469553.454326,216519.000,37476,8,AZ,1,100,0.695
1570469553.470921,216532.000,37476,8,AZ,1,100,0.660
1570469553.487515,216545.000,37476,8,AZ,1,100,0.695
1570469553.504110,216558.000,37476,8,AZ,1,100,0.706
1570469553.520704,216571.000,37476,8,AZ,1,100,0.693
1570469553.537298,216584.000,37476,8,AZ,1,100,0.695
1570469553.553893,216597.000,37476,8,AZ,1,100,0.685
1570469553.570670,216610.143,37494,7,AZ,1,100,0.714
1570469553.587447,216623.286,37494,7,AZ,1,100,0.691
1570469553.604223,216636.429,37494,7,AZ,1,100,0.700
1570469553.621001,216649.571,37494,7,AZ,1,100,0.697
1570469553.637777,216662.714,37494,7,AZ,1,100,0.676
1570469553.654554,216675.857,37494,7,AZ,1,100,0.691
1570469553.671331,216689.000,37494,7,AZ,1,100,0.693
1570469553.688085,216702.125,37512,8,AZ,1,100,0.708
1570469553.704839,216715.250,37512,8,AZ,1,100,0.694
1570469553.721593,216728.375,37512,8,AZ,1,100,0.662
1570469553.738347,216741.500,37512,8,AZ,1,100,0.690
1570469553.755101,216754.625,37512,8,AZ,1,100,0.697
1570469553.771855,216767.750,37512,8,AZ,1,100,0.673
1570469553.788609,216780.875,37512,8,AZ,1,100,0.706
1570469553.805363,216794.000,37512,8,AZ,1,100,0.724
1570469553.821958,216807.000,37528,8,AZ,1,100,0.674
1570469553.838552,216820.000,37528,8,AZ,1,100,0.667
1570469553.855147,216833.000,37528,8,AZ,1,100,0.678
1570469553.871742,216846.000,37528,8,AZ,1,100,0.711
1570469553.888336,216859.000,37528,8,AZ,1,100,0.708
1570469553.904930,216872.000,37528,8,AZ,1,100,0.725
1570469553.921525,216885.000,37528,8,AZ,1,100,0.687
1570469553.938119,216898.000,37528,8,AZ,1,100,0.690
1570469553.954714,216911.000,37546,7,AZ,1,100,0.685
1570469553.971308,216924.000,37546,7,AZ,1,100,0.681
1570469553.987903,216937.000,37546,7,AZ,1,100,0.666
1570469554.004497,216950.000,37546,7,AZ,1,100,0.677
1570469554.021092,216963.000,37546,7,AZ,1,100,0.701
1570469554.037686,216976.000,37546,7,AZ,1,100,0.706
1570469554.054281,216989.000,37546,7,AZ,1,100,0.674
1570469554.071035,217002.125,37564,8,AZ,1,100,0.708
1570469554.087789,217015.250,37564,8,AZ,1,100,0.716
1570469554.104543,217028.375,37564,8,AZ,1,100,0.670
1570469554.121297,217041.500,37564,8,AZ,1,100,0.673
1570469554.138051,217054.625,37564,8,AZ,1,100,0.691
1570469554.154805,217067.750,37564,8,AZ,1,100,0.676
1570469554.171559,217080.875,37564,8,AZ,1,100,0.700
1570469554.188313,217094.000,37564,8,AZ,1,100,0.694
1570469554.204748,217106.875,37582,8,AZ,1,100,0.697
1570469554.221183,217119.750,37582,8,AZ,1,100,0.687
1570469554.237618,217132.625,37582,8,AZ,1,100,0.660
1570469554.254053,217145.500,37582,8,AZ,1,100,0.674
1570469554.270488,217158.375,37582,8,AZ,1,100,0.684
1570469554.286923,217171.250,37582,8,AZ,1,100,0.701
1570469554.303358,217184.125,37582,8,AZ,1,100,0.702
1570469554.319793,217197.000,37582,8,AZ,1,100,0.703
1570469554.336068,217209.750,37601,8,AZ,1,100,0.699
1570469554.352344,217222.500,37601,8,AZ,1,100,0.688
1570469554.368619,217235.250,37601,8,AZ,1,100,0.689
1570469554.384894,217248.000,37601,8,AZ,1,100,0.703
1570469554.401170,217260.750,37601,8,AZ,1,100,0.690
1570469554.417445,217273.500,37601,8,AZ,1,100,0.697
1570469554.433720,217286.250,37601,8,AZ,1,100,0.682
1570469554.449996,217299.000,37601,8,AZ,1,100,0.696
1570469554.466590,217312.000,37619,8,AZ,1,100,0.672
1570469554.483185,217325.000,37619,8,AZ,1,100,0.699
1570469554.499779,217338.000,37619,8,AZ,1,100,0.703
1570469554.516374,217351.000,37619,8,AZ,1,100,0.683
1570469554.532968,217364.000,37619,8,AZ,1,100,0.669
1570469554.549563,217377.000,37619,8,AZ,1,100,0.675
1570469554.566157,217390.000,37619,8,AZ,1,100,0.684
1570469554.582752,217403.000,37619,8,AZ,1,100,0.686
1570469554.599346,217416.000,37637,8,AZ,1,100,0.700
1570469554.615941,217429.000,37637,8,AZ,1,100,0.695
1570469554.632535,217442.000,37637,8,AZ,1,100,0.698
1570469554.649130,217455.000,37637,8,AZ,1,100,0.686
1570469554.665724,217468.000,37637,8,AZ,1,100,0.671
1570469554.682319,217481.000,37637,8,AZ,1,100,0.685
1570469554.698913,217494.000,37637,8,AZ,1,100,0.693
1570469554.715508,217507.000,37637,8,AZ,1,100,0.705
1570469554.732102,217520.000,37655,7,AZ,1,100,0.678
1570469554.748697,217533.000,37655,7,AZ,1,100,0.681
1570469554.765291,217546.000,37655,7,AZ,1,100,0.688
1570469554.781886,217559.000,37655,7,AZ,1,100,0.689
1570469554.798480,217572.000,37655,7,AZ,1,100,0.679
1570469554.815075,217585.000,37655,7,AZ,1,100,0.680
1570469554.831669,217598.000,37655,7,AZ,1,100,0.690
1570469554.848264,217611.000,37673,8,AZ,1,100,0.692
1570469554.864858,217624.000,37673,8,AZ,1,100,0.685
1570469554.881453,217637.000,37673,8,AZ,1,100,0.679
1570469554.898047,217650.000,37673,8,AZ,1,100,0.694
1570469554.914642,217663.000,37673,8,AZ,1,100,0.688
1570469554.931236,217676.000,37673,8,AZ,1,100,0.665
1570469554.947831,217689.000,37673,8,AZ,1,100,0.684
1570469554.964425,217702.000,37673,8,AZ,1,100,0.697
1570469554.981179,217715.125,37691,8,AZ,1,100,0.704
1570469554.997933,217728.250,37691,8,AZ,1,100,0.677
1570469555.014687,217741.375,37691,8,AZ,1,100,0.676
1570469555.031441,217754.500,37691,8,AZ,1,100,0.668
1570469555.048195,217767.625,37691,8,AZ,1,100,0.683
1570469555.064950,217780.750,37691,8,AZ,1,100,0.693
1570469555.081703,217793.875,37691,8,AZ,1,100,0.699
1570469555.098458,217807.000,37691,8,AZ,1,100,0.686
1570469555.114870,217819.857,37709,7,AZ,1,100,0.671
1570469555.131282,217832.714,37709,7,AZ,1,100,0.692
1570469555.147694,217845.571,37709,7,AZ,1,100,0.699
1570469555.164106,217858.429,37709,7,AZ,1,100,0.682
1570469555.180518,217871.286,37709,7,AZ,1,100,0.678
1570469555.196930,217884.143,37709,7,AZ,1,100,0.701
1570469555.213343,217897.000,37709,7,AZ,1,100,0.696
1570469555.229937,217910.000,37727,8,AZ,1,100,0.683
1570469555.246531,217923.000,37727,8,AZ,1,100,0.697
1570469555.263126,217936.000,37727,8,AZ,1,100,0.667
1570469555.279721,217949.000,37727,8,AZ,1,100,0.704
1570469555.296315,217962.000,37727,8,AZ,1,100,0.706
1570469555.312910,217975.000,37727,8,AZ,1,100,0.681
1570469555.329504,217988.000,37727,8,AZ,1,100,0.677
1570469555.346098,218001.000,37727,8,AZ,1,100,0.688
1570469555.362693,218014.000,37746,8,AZ,1,100,0.681
1570469555.379287,218027.000,37746,8,AZ,1,100,0.652
1570469555.395882,218040.000,37746,8,AZ,1,100,0.700
1570469555.412477,218053.000,37746,8,AZ,1,100,0.701
1570469555.429071,218066.000,37746,8,AZ,1,100,0.691
1570469555.445666,218079.000,37746,8,AZ,1,100,0.713
1570469555.462260,218092.000,37746,8,AZ,1,100,0.701
1570469555.478854,218105.000,37746,8,AZ,1,100,0.689
1570469555.495449,218118.000,37764,8,AZ,1,100,0.692
1570469555.512043,218131.000,37764,8,AZ,1,100,0.681
1570469555.528638,218144.000,37764,8,AZ,1,100,0.681
1570469555.545233,218157.000,37764,8,AZ,1,100,0.694
1570469555.561827,218170.000,37764,8,AZ,1,100,0.702
1570469555.578421,218183.000,37764,8,AZ,1,100,0.702
1570469555.595016,218196.000,37764,8,AZ,1,100,0.687
1570469555.611610,218209.000,37764,8,AZ,1,100,0.671
1570469555.628365,218222.125,37782,8,AZ,1,100,0.694
1570469555.645118,218235.250,37782,8,AZ,1,100,0.696
1570469555.661873,218248.375,37782,8,AZ,1,100,0.687
1570469555.678627,218261.500,37782,8,AZ,1,100,0.699
1570469555.695381,218274.625,37782,8,AZ,1,100,0.702
1570469555.712135,218287.750,37782,8,AZ,1,100,0.690
1570469555.728889,218300.875,37782,8,AZ,1,100,0.685
1570469555.745643,218314.000,37782,8,AZ,1,100,0.693
1570469555.762237,218327.000,37800,8,AZ,1,100,0.688
1570469555.778832,218340.000,37800,8,AZ,1,100,0.682
1570469555.795426,218353.000,37800,8,AZ,1,100,0.658
1570469555.812021,218366.000,37800,8,AZ,1,100,0.702
1570469555.828615,218379.000,37800,8,AZ,1,100,0.701
1570469555.845210,218392.000,37800,8,AZ,1,100,0.707
1570469555.861804,218405.000,37800,8,AZ,1,100,0.659
1570469555.878399,218418.000,37800,8,AZ,1,100,0.676
1570469555.895540,218431.429,37818,7,AZ,1,100,0.668
1570469555.912682,218444.857,37818,7,AZ,1,100,0.690
1570469555.929824,218458.286,37818,7,AZ,1,100,0.705
1570469555.946965,218471.714,37818,7,AZ,1,100,0.693
1570469555.964107,218485.143,37818,7,AZ,1,100,0.690
1570469555.981248,218498.571,37818,7,AZ,1,100,0.683
1570469555.998390,218512.000,37818,7,AZ,1,100,0.696
1570469556.014984,218525.000,37836,8,AZ,1,100,0.696
1570469556.031579,218538.000,37836,8,AZ,1,100,0.684
1570469556.048173,218551.000,37836,8,AZ,1,100,0.676
1570469556.064768,218564.000,37836,8,AZ,1,100,0.705
1570469556.081362,218577.000,37836,8,AZ,1,100,0.694
1570469556.097957,218590.000,37836,8,AZ,1,100,0.689
1570469556.114551,218603.000,37836,8,AZ,1,100,0.687
1570469556.131146,218616.000,37836,8,AZ,1,100,0.691
1570469556.147923,218629.143,37854,7,AZ,1,100,0.694
1570469556.164700,218642.286,37854,7,AZ,1,100,0.694
1570469556.181476,218655.429,37854,7,AZ,1,100,0.694
1570469556.198253,218668.571,37854,7,AZ,1,100,0.681
1570469556.215030,218681.714,37854,7,AZ,1,100,0.679
1570469556.231807,218694.857,37854,7,AZ,1,100,0.693
1570469556.248584,218708.000,37854,7,AZ,1,100,0.706
1570469556.265178,218721.000,37872,8,AZ,1,100,0.710
1570469556.281773,218734.000,37872,8,AZ,1,100,0.724
1570469556.298367,218747.000,37872,8,AZ,1,100,0.733
1570469556.314962,218760.000,37872,8,AZ,1,100,0.749
1570469556.331556,218773.000,37872,8,AZ,1,100,0.812
1570469556.348151,218786.000,37872,8,AZ,1,100,0.868
1570469556.364745,218799.000,37872,8,AZ,1,100,0.935
1570469556.381340,218812.000,37872,8,AZ,1,100,0.925
1570469556.398094,218825.125,37891,8,AZ,1,100,0.912
1570469556.414848,218838.250,37891,8,AZ,1,100,0.930
1570469556.431602,218851.375,37891,8,AZ,1,100,0.943
1570469556.448356,218864.500,37891,8,AZ,1,100,0.890
1570469556.465110,218877.625,37891,8,AZ,1,100,0.732
1570469556.481864,218890.750,37891,8,AZ,1,100,0.760
1570469556.498618,218903.875,37891,8,AZ,1,100,0.746
1570469556.515372,218917.000,37891,8,AZ,1,100,0.772
1570469556.531967,218930.000,37909,8,AZ,1,100,0.744
1570469556.548561,218943.000,37909,8,AZ,1,100,0.750
1570469556.565156,218956.000,37909,8,AZ,1,100,0.708
1570469556.581750,218969.000,37909,8,AZ,1,100,0.677
1570469556.598345,218982.000,37909,8,AZ,1,100,0.685
1570469556.614939,218995.000,37909,8,AZ,1,100,0.655
1570469556.631534,219008.000,37909,8,AZ,1,100,0.597
1570469556.648128,219021.000,37909,8,AZ,1,100,0.640
1570469556.664905,219034.143,37927,7,AZ,1,100,0.621
1570469556.681682,219047.286,37927,7,AZ,1,100,0.664
1570469556.698459,219060.429,37927,7,AZ,1,100,0.595
1570469556.715236,219073.571,37927,7,AZ,1,100,0.644
1570469556.732013,219086.714,37927,7,AZ,1,100,0.709
1570469556.748789,219099.857,37927,7,AZ,1,100,0.612
1570469556.765566,219113.000,37927,7,AZ,1,100,0.524
1570469556.782320,219126.125,37945,8,AZ,1,100,0.450
1570469556.799074,219139.250,37945,8,AZ,1,100,0.528
1570469556.815828,219152.375,37945,8,AZ,1,100,0.349
1570469556.832582,219165.500,37945,8,AZ,1,100,0.363
1570469556.849336,219178.625,37945,8,AZ,1,100,0.328
1570469556.866091,219191.750,37945,8,AZ,1,100,0.469
1570469556.882844,219204.875,37945,8,AZ,1,100,0.523
1570469556.899599,219218.000,37945,8,AZ,1,100,0.536
1570469556.916353,219231.125,37962,8,AZ,1,100,0.405
1570469556.933107,219244.250,37962,8,AZ,1,100,0.424
1570469556.949861,219257.375,37962,8,AZ,1,100,0.414
1570469556.966615,219270.500,37962,8,AZ,1,100,0.431
1570469556.983369,219283.625,37962,8,AZ,1,100,0.415
1570469557.000123,219296.750,37962,8,AZ,1,100,0.267
1570469557.016877,219309.875,37962,8,AZ,1,100,0.241
1570469557.033631,219323.000,37962,8,AZ,1,100,0.231
1570469557.050225,219336.000,37980,8,AZ,1,100,0.250
1570469557.066820,219349.000,37980,8,AZ,1,100,0.308
1570469557.083415,219362.000,37980,8,AZ,1,100,0.420
1570469557.100009,219375.000,37980,8,AZ,1,100,0.495
1570469557.116604,219388.000,37980,8,AZ,1,100,0.489
1570469557.133198,219401.000,37980,8,AZ,1,100,0.484
1570469557.149792,219414.000,37980,8,AZ,1,100,0.462
1570469557.166387,219427.000,37980,8,AZ,1,100,0.434
1570469557.182799,219439.857,37998,7,AZ,1,100,0.412
1570469557.199211,219452.714,37998,7,AZ,1,100,0.492
1570469557.215623,219465.571,37998,7,AZ,1,100,0.510
1570469557.232036,219478.429,37998,7,AZ,1,100,0.516
1570469557.248448,219491.286,37998,7,AZ,1,100,0.514
1570469557.264860,219504.143,37998,7,AZ,1,100,0.676
1570469557.281272,219517.000,37998,7,AZ,1,100,0.850
1570469557.297867,219530.000,38017,8,AZ,1,100,0.965
1570469557.314461,219543.000,38017,8,AZ,1,100,1.096
1570469557.331055,219556.000,38017,8,AZ,1,100,1.016
1570469557.347650,219569.000,38017,8,AZ,1,100,0.954
1570469557.364244,219582.000,38017,8,AZ,1,100,1.641
1570469557.380839,219595.000,38017,8,AZ,1,100,-5.435
1570469557.397434,219608.000,38017,8,AZ,1,100,1.055
1570469557.414028,219621.000,38017,8,AZ,1,100,-0.558
1570469557.430623,219634.000,38035,8,AZ,1,100,1.073
1570469557.447217,219647.000,38035,8,AZ,1,100,1.370
1570469557.463811,219660.000,38035,8,AZ,1,100,0.104
1570469557.480406,219673.000,38035,8,AZ,1,100,0.032
1570469557.497000,219686.000,38035,8,AZ,1,100,-0.201
1570469557.513595,219699.000,38035,8,AZ,1,100,0.423
1570469557.530190,219712.000,38035,8,AZ,1,100,0.795
1570469557.546784,219725.000,38035,8,AZ,1,100,0.847
1570469557.563219,219737.875,38053,8,AZ,1,100,1.035
1570469557.579654,219750.750,38053,8,AZ,1,100,1.219
1570469557.596089,219763.625,38053,8,AZ,1,100,1.177
1570469557.612524,219776.500,38053,8,AZ,1,100,1.001
1570469557.628959,219789.375,38053,8,AZ,1,100,1.065
1570469557.645394,219802.250,38053,8,AZ,1,100,1.047
1570469557.661829,219815.125,38053,8,AZ,1,100,0.717
1570469557.678263,219828.000,38053,8,AZ,1,100,0.796
1570469557.694698,219840.875,38071,8,AZ,1,100,-5.334
1570469557.711133,219853.750,38071,8,AZ,1,100,1.009
1570469557.727568,219866.625,38071,8,AZ,1,100,-0.006
1570469557.744003,219879.500,38071,8,AZ,1,100,0.315
1570469557.760438,219892.375,38071,8,AZ,1,100,0.535
1570469557.776873,219905.250,38071,8,AZ,1,100,0.234
1570469557.793308,219918.125,38071,8,AZ,1,100,0.294
1570469557.809743,219931.000,38071,8,AZ,1,100,0.222
1570469557.826702,219944.286,38089,7,AZ,1,100,0.698
1570469557.843661,219957.571,38089,7,AZ,1,100,1.004
1570469557.860620,219970.857,38089,7,AZ,1,100,0.878
1570469557.877580,219984.143,38089,7,AZ,1,100,0.951
1570469557.894539,219997.429,38089,7,AZ,1,100,1.194
1570469557.911498,220010.714,38089,7,AZ,1,100,1.178
1570469557.928457,220024.000,38089,7,AZ,1,100,0.924
1570469557.945052,220037.000,38105,8,AZ,1,100,0.854
1570469557.961646,220050.000,38105,8,AZ,1,100,0.859
1570469557.978241,220063.000,38105,8,AZ,1,100,-1.693
1570469557.994835,220076.000,38105,8,AZ,1,100,0.233
1570469558.011430,220089.000,38105,8,AZ,1,100,-0.267
1570469558.028024,220102.000,38105,8,AZ,1,100,-0.297
1570469558.044619,220115.000,38105,8,AZ,1,100,1.615
1570469558.061213,220128.000,38105,8,AZ,1,100,0.520
1570469558.077967,220141.125,38123,8,AZ,1,100,-0.035
1570469558.094721,220154.250,38123,8,AZ,1,100,-0.211
1570469558.111475,220167.375,38123,8,AZ,1,100,-0.037
1570469558.128230,220180.500,38123,8,AZ,1,100,0.483
1570469558.144984,220193.625,38123,8,AZ,1,100,0.308
1570469558.161738,220206.750,38123,8,AZ,1,100,0.189
1570469558.178492,220219.875,38123,8,AZ,1,100,0.349
1570469558.195246,220233.000,38123,8,AZ,1,100,0.353
1570469558.211840,220246.000,38144,13,AZ,1,100,0.290
1570469558.228435,220259.000,38144,13,AZ,1,100,0.244
1570469558.245029,220272.000,38144,13,AZ,1,100,0.363
1570469558.261624,220285.000,38144,13,AZ,1,100,0.331
1570469558.278218,220298.000,38144,13,AZ,1,100,0.375
1570469558.294813,220311.000,38144,13,AZ,1,100,0.384
1570469558.311407,220324.000,38144,13,AZ,1,100,0.461
1570469558.328002,220337.000,38144,13,AZ,1,100,0.489
1570469558.344596,220350.000,38144,13,AZ,1,100,0.520
1570469558.361191,220363.000,38144,13,AZ,1,100,0.517
1570469558.377785,220376.000,38144,13,AZ,1,100,0.541
1570469558.394380,220389.000,38144,13,AZ,1,100,0.542
1570469558.410974,220402.000,38144,13,AZ,1,100,0.537
1570469558.427751,220415.143,38165,7,AZ,1,100,0.579
1570469558.444528,220428.286,38165,7,AZ,1,100,0.623
1570469558.461305,220441.429,38165,7,AZ,1,100,0.692
1570469558.478082,220454.571,38165,7,AZ,1,100,0.702
1570469558.494859,220467.714,38165,7,AZ,1,100,0.729
1570469558.511635,220480.857,38165,7,AZ,1,100,0.645
1570469558.528412,220494.000,38165,7,AZ,1,100,0.704
1570469558.544824,220506.857,38183,7,AZ,1,100,0.744
1570469558.561236,220519.714,38183,7,AZ,1,100,0.757
1570469558.577649,220532.571,38183,7,AZ,1,100,0.733
1570469558.594061,220545.429,38183,7,AZ,1,100,0.693
1570469558.610473,220558.286,38183,7,AZ,1,100,0.701
1570469558.626885,220571.143,38183,7,AZ,1,100,0.695
1570469558.643297,220584.000,38183,7,AZ,1,100,0.701
1570469558.659892,220597.000,38201,8,AZ,1,100,0.721
1570469558.676486,220610.000,38201,8,AZ,1,100,0.751
1570469558.693081,220623.000,38201,8,AZ,1,100,0.776
1570469558.709675,220636.000,38201,8,AZ,1,100,0.773
1570469558.726270,220649.000,38201,8,AZ,1,100,0.806
1570469558.742864,220662.000,38201,8,AZ,1,100,0.898
1570469558.759459,220675.000,38201,8,AZ,1,100,0.839
1570469558.776053,220688.000,38201,8,AZ,1,100,0.834
1570469558.792807,220701.125,38219,8,AZ,1,100,0.856
1570469558.809561,220714.250,38219,8,AZ,1,100,0.858
1570469558.826315,220727.375,38219,8,AZ,1,100,1.018
1570469558.843069,220740.500,38219,8,AZ,1,100,0.981
1570469558.859823,220753.625,38219,8,AZ,1,100,0.844
1570469558.876577,220766.750,38219,8,AZ,1,100,0.905
1570469558.893332,220779.875,38219,8,AZ,1,100,0.928
1570469558.910086,220793.000,38219,8,AZ,1,100,0.922
1570469558.926840,220806.125,38237,8,AZ,1,100,0.906
1570469558.943594,220819.250,38237,8,AZ,1,100,0.903
1570469558.960348,220832.375,38237,8,AZ,1,100,0.908
1570469558.977102,220845.500,38237,8,AZ,1,100,0.840
1570469558.993856,220858.625,38237,8,AZ,1,100,0.843
1570469559.010610,220871.750,38237,8,AZ,1,100,0.839
1570469559.027364,220884.875,38237,8,AZ,1,100,0.805
1570469559.044118,220898.000,38237,8,AZ,1,100,0.796
1570469559.061077,220911.286,38255,7,AZ,1,100,0.808
1570469559.078037,220924.571,38255,7,AZ,1,100,0.853
1570469559.094996,220937.857,38255,7,AZ,1,100,0.867
1570469559.111955,220951.143,38255,7,AZ,1,100,0.862
1570469559.128914,220964.429,38255,7,AZ,1,100,0.854
1570469559.145873,220977.714,38255,7,AZ,1,100,0.876
1570469559.162832,220991.000,38255,7,AZ,1,100,0.942
1570469559.179587,221004.125,38272,8,AZ,1,100,0.990
1570469559.196341,221017.250,38272,8,AZ,1,100,0.996
1570469559.213095,221030.375,38272,8,AZ,1,100,0.997
1570469559.229849,221043.500,38272,8,AZ,1,100,0.970
1570469559.246603,221056.625,38272,8,AZ,1,100,0.970
1570469559.263357,221069.750,38272,8,AZ,1,100,0.964
1570469559.280111,221082.875,38272,8,AZ,1,100,0.968
1570469559.296865,221096.000,38272,8,AZ,1,100,0.940
1570469559.313642,221109.143,38290,7,AZ,1,100,0.910
1570469559.330419,221122.286,38290,7,AZ,1,100,0.852
1570469559.347196,221135.429,38290,7,AZ,1,100,0.847
1570469559.363972,221148.571,38290,7,AZ,1,100,0.818
1570469559.380749,221161.714,38290,7,AZ,1,100,0.812
1570469559.397526,221174.857,38290,7,AZ,1,100,0.901
1570469559.414303,221188.000,38290,7,AZ,1,100,0.948
1570469559.431057,221201.125,38309,8,AZ,1,100,0.938
1570469559.447811,221214.250,38309,8,AZ,1,100,0.910
1570469559.464565,221227.375,38309,8,AZ,1,100,0.856
1570469559.481319,221240.500,38309,8,AZ,1,100,0.894
1570469559.498073,221253.625,38309,8,AZ,1,100,0.893
1570469559.514827,221266.750,38309,8,AZ,1,100,0.933
1570469559.531581,221279.875,38309,8,AZ,1,100,0.933
1570469559.548335,221293.000,38309,8,AZ,1,100,0.913
1570469559.564770,221305.875,38327,8,AZ,1,100,0.875
1570469559.581205,221318.750,38327,8,AZ,1,100,0.896
1570469559.597640,221331.625,38327,8,AZ,1,100,0.876
1570469559.614075,221344.500,38327,8,AZ,1,100,0.931
1570469559.630510,221357.375,38327,8,AZ,1,100,0.937
1570469559.646945,221370.250,38327,8,AZ,1,100,0.934
1570469559.663380,221383.125,38327,8,AZ,1,100,0.891
1570469559.679815,221396.000,38327,8,AZ,1,100,0.861
1570469559.696728,221409.250,38345,8,AZ,1,100,0.857
1570469559.713642,221422.500,38345,8,AZ,1,100,0.836
1570469559.730556,221435.750,38345,8,AZ,1,100,0.887
1570469559.747469,221449.000,38345,8,AZ,1,100,0.886
1570469559.764383,221462.250,38345,8,AZ,1,100,0.839
1570469559.781296,221475.500,38345,8,AZ,1,100,0.845
1570469559.798210,221488.750,38345,8,AZ,1,100,0.865
1570469559.815124,221502.000,38345,8,AZ,1,100,0.851
1570469559.831878,221515.125,38363,8,AZ,1,100,0.876
1570469559.848632,221528.250,38363,8,AZ,1,100,0.828
1570469559.865386,221541.375,38363,8,AZ,1,100,0.804
1570469559.882140,221554.500,38363,8,AZ,1,100,0.826
1570469559.898894,221567.625,38363,8,AZ,1,100,0.880
1570469559.915648,221580.750,38363,8,AZ,1,100,0.854
1570469559.932402,221593.875,38363,8,AZ,1,100,0.806
1570469559.949156,221607.000,38363,8,AZ,1,100,0.883
1570469559.965933,221620.143,38381,7,AZ,1,100,0.914
1570469559.982710,221633.286,38381,7,AZ,1,100,0.918
1570469559.999487,221646.429,38381,7,AZ,1,100,0.874
1570469560.016264,221659.571,38381,7,AZ,1,100,0.897
1570469560.033041,221672.714,38381,7,AZ,1,100,0.902
1570469560.049817,221685.857,38381,7,AZ,1,100,0.914
1570469560.066594,221699.000,38381,7,AZ,1,100,0.862
1570469560.083508,221712.250,38397,8,AZ,1,100,0.845
1570469560.100421,221725.500,38397,8,AZ,1,100,0.866
1570469560.117335,221738.750,38397,8,AZ,1,100,0.889
1570469560.134249,221752.000,38397,8,AZ,1,100,0.874
1570469560.151162,221765.250,38397,8,AZ,1,100,0.877
1570469560.168076,221778.500,38397,8,AZ,1,100,0.883
1570469560.184990,221791.750,38397,8,AZ,1,100,0.857
1570469560.201903,221805.000,38397,8,AZ,1,100,0.877
1570469560.218338,221817.875,38415,8,AZ,1,100,0.899
1570469560.234773,221830.750,38415,8,AZ,1,100,0.868
1570469560.251208,221843.625,38415,8,AZ,1,100,0.853
1570469560.267643,221856.500,38415,8,AZ,1,100,0.890
1570469560.284078,221869.375,38415,8,AZ,1,100,0.906
1570469560.300513,221882.250,38415,8,AZ,1,100,0.906
1570469560.316948,221895.125,38415,8,AZ,1,100,0.823
1570469560.333383,221908.000,38415,8,AZ,1,100,0.879
1570469560.349977,221921.000,38433,7,AZ,1,100,0.897
1570469560.366572,221934.000,38433,7,AZ,1,100,0.915
1570469560.383166,221947.000,38433,7,AZ,1,100,0.903
1570469560.399761,221960.000,38433,7,AZ,1,100,0.887
1570469560.416355,221973.000,38433,7,AZ,1,100,0.877
1570469560.432950,221986.000,38433,7,AZ,1,100,0.882
1570469560.449544,221999.000,38433,7,AZ,1,100,0.879
1570469560.465979,222011.875,38452,8,AZ,1,100,0.861
1570469560.482414,222024.750,38452,8,AZ,1,100,0.846
1570469560.498849,222037.625,38452,8,AZ,1,100,0.845
1570469560.515284,222050.500,38452,8,AZ,1,100,0.870
1570469560.531719,222063.375,38452,8,AZ,1,100,0.861
1570469560.548154,222076.250,38452,8,AZ,1,100,0.864
1570469560.564589,222089.125,38452,8,AZ,1,100,0.891
1570469560.581024,222102.000,38452,8,AZ,1,100,0.875
1570469560.597618,222115.000,38470,8,AZ,1,100,0.830
1570469560.614213,222128.000,38470,8,AZ,1,100,0.842
1570469560.630807,222141.000,38470,8,AZ,1,100,0.874
1570469560.647402,222154.000,38470,8,AZ,1,100,0.867
1570469560.663996,222167.000,38470,8,AZ,1,100,0.864
1570469560.680591,222180.000,38470,8,AZ,1,100,0.876
1570469560.697185,222193.000,38470,8,AZ,1,100,0.884
1570469560.713780,222206.000,38470,8,AZ,1,100,0.852
1570469560.730055,222218.750,38488,8,AZ,1,100,0.844
1570469560.746330,222231.500,38488,8,AZ,1,100,0.841
1570469560.762606,222244.250,38488,8,AZ,1,100,0.853
1570469560.778881,222257.000,38488,8,AZ,1,100,0.854
1570469560.795156,222269.750,38488,8,AZ,1,100,0.866
1570469560.811432,222282.500,38488,8,AZ,1,100,0.868
1570469560.827707,222295.250,38488,8,AZ,1,100,0.845
1570469560.843982,222308.000,38488,8,AZ,1,100,0.875
1570469560.860577,222321.000,38506,8,AZ,1,100,0.895
1570469560.877172,222334.000,38506,8,AZ,1,100,0.885
1570469560.893766,222347.000,38506,8,AZ,1,100,0.871
1570469560.910361,222360.000,38506,8,AZ,1,100,0.845
1570469560.926955,222373.000,38506,8,AZ,1,100,0.827
1570469560.943550,222386.000,38506,8,AZ,1,100,0.825
1570469560.960144,222399.000,38506,8,AZ,1,100,0.848
1570469560.976738,222412.000,38506,8,AZ,1,100,0.847
1570469560.993515,222425.143,38524,7,AZ,1,100,0.833
1570469561.010292,222438.286,38524,7,AZ,1,100,0.842
1570469561.027069,222451.429,38524,7,AZ,1,100,0.844
1570469561.043846,222464.571,38524,7,AZ,1,100,0.842
1570469561.060623,222477.714,38524,7,AZ,1,100,0.867
1570469561.077400,222490.857,38524,7,AZ,1,100,0.858
1570469561.094177,222504.000,38524,7,AZ,1,100,0.862
1570469561.110931,222517.125,38542,8,AZ,1,100,0.865
1570469561.127685,222530.250,38542,8,AZ,1,100,0.867
1570469561.144439,222543.375,38542,8,AZ,1,100,0.885
1570469561.161193,222556.500,38542,8,AZ,1,100,0.885
1570469561.177947,222569.625,38542,8,AZ,1,100,0.859
1570469561.194701,222582.750,38542,8,AZ,1,100,0.862
1570469561.211455,222595.875,38542,8,AZ,1,100,0.865
1570469561.228209,222609.000,38542,8,AZ,1,100,0.875
1570469561.244803,222622.000,38560,8,AZ,1,100,0.887
1570469561.261398,222635.000,38560,8,AZ,1,100,0.865
1570469561.277992,222648.000,38560,8,AZ,1,100,0.867
1570469561.294587,222661.000,38560,8,AZ,1,100,0.860
1570469561.311182,222674.000,38560,8,AZ,1,100,0.878
1570469561.327776,222687.000,38560,8,AZ,1,100,0.870
1570469561.344370,222700.000,38560,8,AZ,1,100,0.853
1570469561.360965,222713.000,38560,8,AZ,1,100,0.855
1570469561.377559,222726.000,38579,7,AZ,1,100,0.847
1570469561.394154,222739.000,38579,7,AZ,1,100,0.839
1570469561.410748,222752.000,38579,7,AZ,1,100,0.868
1570469561.427343,222765.000,38579,7,AZ,1,100,0.865
1570469561.443937,222778.000,38579,7,AZ,1,100,0.870
1570469561.460532,222791.000,38579,7,AZ,1,100,0.877
1570469561.477126,222804.000,38579,7,AZ,1,100,0.889
1570469561.493721,222817.000,38597,8,AZ,1,100,0.857
1570469561.510315,222830.000,38597,8,AZ,1,100,0.837
1570469561.526910,222843.000,38597,8,AZ,1,100,0.848
1570469561.543504,222856.000,38597,8,AZ,1,100,0.894
1570469561.560099,222869.000,38597,8,AZ,1,100,0.906
1570469561.576693,222882.000,38597,8,AZ,1,100,0.893
1570469561.593288,222895.000,38597,8,AZ,1,100,0.867
1570469561.609882,222908.000,38597,8,AZ,1,100,0.870
1570469561.626477,222921.000,38615,8,AZ,1,100,0.823
1570469561.643071,222934.000,38615,8,AZ,1,100,0.823
1570469561.659666,222947.000,38615,8,AZ,1,100,0.858
1570469561.676260,222960.000,38615,8,AZ,1,100,0.865
1570469561.692855,222973.000,38615,8,AZ,1,100,0.877
1570469561.709449,222986.000,38615,8,AZ,1,100,0.878
1570469561.726044,222999.000,38615,8,AZ,1,100,0.885
1570469561.742638,223012.000,38615,8,AZ,1,100,0.875
1570469561.759233,223025.000,38633,8,AZ,1,100,0.808
1570469561.775827,223038.000,38633,8,AZ,1,100,0.830
1570469561.792422,223051.000,38633,8,AZ,1,100,0.872
1570469561.809016,223064.000,38633,8,AZ,1,100,0.886
1570469561.825611,223077.000,38633,8,AZ,1,100,0.834
1570469561.842205,223090.000,38633,8,AZ,1,100,0.866
1570469561.858800,223103.000,38633,8,AZ,1,100,0.884
1570469561.875394,223116.000,38633,8,AZ,1,100,0.864
1570469561.891989,223129.000,38651,8,AZ,1,100,0.815
1570469561.908583,223142.000,38651,8,AZ,1,100,0.823
1570469561.925178,223155.000,38651,8,AZ,1,100,0.860
1570469561.941772,223168.000,38651,8,AZ,1,100,0.867
1570469561.958367,223181.000,38651,8,AZ,1,100,0.880
1570469561.974961,223194.000,38651,8,AZ,1,100,0.853
1570469561.991556,223207.000,38651,8,AZ,1,100,0.865
1570469562.008150,223220.000,38651,8,AZ,1,100,0.865
1570469562.024927,223233.143,38669,7,AZ,1,100,0.871
1570469562.041704,223246.286,38669,7,AZ,1,100,0.879
1570469562.058481,223259.429,38669,7,AZ,1,100,0.874
1570469562.075258,223272.571,38669,7,AZ,1,100,0.871
1570469562.092035,223285.714,38669,7,AZ,1,100,0.853
1570469562.108811,223298.857,38669,7,AZ,1,100,0.837
1570469562.125588,223312.000,38669,7,AZ,1,100,0.854
1570469562.142661,223325.375,38687,8,AZ,1,100,0.869
1570469562.159734,223338.750,38687,8,AZ,1,100,0.861
1570469562.176808,223352.125,38687,8,AZ,1,100,0.866
1570469562.193881,223365.500,38687,8,AZ,1,100,0.862
1570469562.210954,223378.875,38687,8,AZ,1,100,0.845
1570469562.228027,223392.250,38687,8,AZ,1,100,0.860
1570469562.245100,223405.625,38687,8,AZ,1,100,0.874
1570469562.262174,223419.000,38687,8,AZ,1,100,0.852
1570469562.278928,223432.125,38705,8,AZ,1,100,0.868
1570469562.295682,223445.250,38705,8,AZ,1,100,0.893
1570469562.312436,223458.375,38705,8,AZ,1,100,0.854
1570469562.329190,223471.500,38705,8,AZ,1,100,0.847
1570469562.345944,223484.625,38705,8,AZ,1,100,0.853
1570469562.362698,223497.750,38705,8,AZ,1,100,0.890
1570469562.379452,223510.875,38705,8,AZ,1,100,0.906
1570469562.396206,223524.000,38705,8,AZ,1,100,0.887
1570469562.412801,223537.000,38724,8,AZ,1,100,0.875
1570469562.429395,223550.000,38724,8,AZ,1,100,0.875
1570469562.445990,223563.000,38724,8,AZ,1,100,0.891
1570469562.462584,223576.000,38724,8,AZ,1,100,0.843
1570469562.479179,223589.000,38724,8,AZ,1,100,0.867
1570469562.495773,223602.000,38724,8,AZ,1,100,0.882
1570469562.512368,223615.000,38724,8,AZ,1,100,0.877
1570469562.528962,223628.000,38724,8,AZ,1,100,0.865
1570469562.545557,223641.000,38742,7,AZ,1,100,0.874
1570469562.562151,223654.000,38742,7,AZ,1,100,0.872
1570469562.578746,223667.000,38742,7,AZ,1,100,0.876
1570469562.595340,223680.000,38742,7,AZ,1,100,0.840
1570469562.611935,223693.000,38742,7,AZ,1,100,0.885
1570469562.628529,223706.000,38742,7,AZ,1,100,0.846
1570469562.645123,223719.000,38742,7,AZ,1,100,0.874
1570469562.661878,223732.125,38760,8,AZ,1,100,0.879
1570469562.678632,223745.250,38760,8,AZ,1,100,0.876
1570469562.695386,223758.375,38760,8,AZ,1,100,0.878
1570469562.712140,223771.500,38760,8,AZ,1,100,0.878
1570469562.728894,223784.625,38760,8,AZ,1,100,0.842
1570469562.745648,223797.750,38760,8,AZ,1,100,0.889
1570469562.762402,223810.875,38760,8,AZ,1,100,0.901
1570469562.779156,223824.000,38760,8,AZ,1,100,0.892
1570469562.795910,223837.125,38778,8,AZ,1,100,0.875
1570469562.812664,223850.250,38778,8,AZ,1,100,0.859
1570469562.829418,223863.375,38778,8,AZ,1,100,0.879
1570469562.846172,223876.500,38778,8,AZ,1,100,0.882
1570469562.862926,223889.625,38778,8,AZ,1,100,0.867
1570469562.879680,223902.750,38778,8,AZ,1,100,0.901
1570469562.896435,223915.875,38778,8,AZ,1,100,0.904
1570469562.913188,223929.000,38778,8,AZ,1,100,0.897
1570469562.929965,223942.143,38796,7,AZ,1,100,0.881
1570469562.946742,223955.286,38796,7,AZ,1,100,0.865
1570469562.963519,223968.429,38796,7,AZ,1,100,0.857
1570469562.980296,223981.571,38796,7,AZ,1,100,0.843
1570469562.997073,223994.714,38796,7,AZ,1,100,0.866
1570469563.013850,224007.857,38796,7,AZ,1,100,0.884
1570469563.030627,224021.000,38796,7,AZ,1,100,0.873
1570469563.047221,224034.000,38814,8,AZ,1,100,0.871
1570469563.063816,224047.000,38814,8,AZ,1,100,0.860
1570469563.080410,224060.000,38814,8,AZ,1,100,0.862
1570469563.097004,224073.000,38814,8,AZ,1,100,0.894
1570469563.113599,224086.000,38814,8,AZ,1,100,0.909
1570469563.130193,224099.000,38814,8,AZ,1,100,0.896
1570469563.146788,224112.000,38814,8,AZ,1,100,0.885
1570469563.163383,224125.000,38814,8,AZ,1,100,0.894
1570469563.180136,224138.125,38831,8,AZ,1,100,0.889
1570469563.196891,224151.250,38831,8,AZ,1,100,0.883
1570469563.213645,224164.375,38831,8,AZ,1,100,0.902
1570469563.230399,224177.500,38831,8,AZ,1,100,0.908
1570469563.247153,224190.625,38831,8,AZ,1,100,0.868
1570469563.263907,224203.750,38831,8,AZ,1,100,0.904
1570469563.280661,224216.875,38831,8,AZ,1,100,0.883
1570469563.297415,224230.000,38831,8,AZ,1,100,0.871
1570469563.314009,224243.000,38849,7,AZ,1,100,0.889
1570469563.330604,224256.000,38849,7,AZ,1,100,0.869
1570469563.347198,224269.000,38849,7,AZ,1,100,0.858
1570469563.363793,224282.000,38849,7,AZ,1,100,0.879
1570469563.380387,224295.000,38849,7,AZ,1,100,0.871
1570469563.396982,224308.000,38849,7,AZ,1,100,0.866
1570469563.413576,224321.000,38849,7,AZ,1,100,0.875
1570469563.430331,224334.125,38868,8,AZ,1,100,0.886
1570469563.447084,224347.250,38868,8,AZ,1,100,0.906
1570469563.463839,224360.375,38868,8,AZ,1,100,0.887
1570469563.480593,224373.500,38868,8,AZ,1,100,0.878
1570469563.497347,224386.625,38868,8,AZ,1,100,0.858
1570469563.514101,224399.750,38868,8,AZ,1,100,0.848
1570469563.530855,224412.875,38868,8,AZ,1,100,0.869
1570469563.547609,224426.000,38868,8,AZ,1,100,0.916
1570469563.564044,224438.875,38886,8,AZ,1,100,0.925
1570469563.580479,224451.750,38886,8,AZ,1,100,0.924
1570469563.596914,224464.625,38886,8,AZ,1,100,0.897
1570469563.613348,224477.500,38886,8,AZ,1,100,0.910
1570469563.629784,224490.375,38886,8,AZ,1,100,0.871
1570469563.646219,224503.250,38886,8,AZ,1,100,0.900
1570469563.662653,224516.125,38886,8,AZ,1,100,0.900
1570469563.679088,224529.000,38886,8,AZ,1,100,0.900
1570469563.695523,224541.875,38904,8,AZ,1,100,0.908
1570469563.711958,224554.750,38904,8,AZ,1,100,0.907
1570469563.728393,224567.625,38904,8,AZ,1,100,0.896
1570469563.744828,224580.500,38904,8,AZ,1,100,0.874
1570469563.761263,224593.375,38904,8,AZ,1,100,0.884
1570469563.777698,224606.250,38904,8,AZ,1,100,0.894
1570469563.794133,224619.125,38904,8,AZ,1,100,0.889
1570469563.810568,224632.000,38904,8,AZ,1,100,0.880
1570469563.827162,224645.000,38922,8,AZ,1,100,0.876
1570469563.843757,224658.000,38922,8,AZ,1,100,0.885
1570469563.860351,224671.000,38922,8,AZ,1,100,0.860
1570469563.876946,224684.000,38922,8,AZ,1,100,0.893
1570469563.893540,224697.000,38922,8,AZ,1,100,0.893
1570469563.910135,224710.000,38922,8,AZ,1,100,0.878
1570469563.926729,224723.000,38922,8,AZ,1,100,0.859
1570469563.943324,224736.000,38922,8,AZ,1,100,0.864
1570469563.959759,224748.875,38940,8,AZ,1,100,0.889
1570469563.976194,224761.750,38940,8,AZ,1,100,0.906
1570469563.992629,224774.625,38940,8,AZ,1,100,0.907
1570469564.009063,224787.500,38940,8,AZ,1,100,0.877
1570469564.025498,224800.375,38940,8,AZ,1,100,0.860
1570469564.041933,224813.250,38940,8,AZ,1,100,0.870
1570469564.058368,224826.125,38940,8,AZ,1,100,0.904
1570469564.074803,224839.000,38940,8,AZ,1,100,0.914
1570469564.091580,224852.143,38958,7,AZ,1,100,0.888
1570469564.108357,224865.286,38958,7,AZ,1,100,0.889
1570469564.125134,224878.429,38958,7,AZ,1,100,0.889
1570469564.141911,224891.571,38958,7,AZ,1,100,0.888
1570469564.158688,224904.714,38958,7,AZ,1,100,0.895
1570469564.175464,224917.857,38958,7,AZ,1,100,0.893
1570469564.192241,224931.000,38958,7,AZ,1,100,0.892
1570469564.208995,224944.125,38976,8,AZ,1,100,0.854
1570469564.225749,224957.250,38976,8,AZ,1,100,0.854
1570469564.242503,224970.375,38976,8,AZ,1,100,0.861
1570469564.259257,224983.500,38976,8,AZ,1,100,0.868
1570469564.276011,224996.625,38976,8,AZ,1,100,0.881
1570469564.292766,225009.750,38976,8,AZ,1,100,0.890
1570469564.309520,225022.875,38976,8,AZ,1,100,0.889
1570469564.326274,225036.000,38976,8,AZ,1,100,0.882
1570469564.342868,225049.000,38992,8,AZ,1,100,0.871
1570469564.359463,225062.000,38992,8,AZ,1,100,0.877
1570469564.376057,225075.000,38992,8,AZ,1,100,0.863
1570469564.392652,225088.000,38992,8,AZ,1,100,0.902
1570469564.409246,225101.000,38992,8,AZ,1,100,0.896
1570469564.425841,225114.000,38992,8,AZ,1,100,0.874
1570469564.442435,225127.000,38992,8,AZ,1,100,0.882
1570469564.459030,225140.000,38992,8,AZ,1,100,0.898
1570469564.475624,225153.000,39011,7,AZ,1,100,0.894
1570469564.492218,225166.000,39011,7,AZ,1,100,0.889
1570469564.508813,225179.000,39011,7,AZ,1,100,0.870
1570469564.525408,225192.000,39011,7,AZ,1,100,0.871
1570469564.542002,225205.000,39011,7,AZ,1,100,0.883
1570469564.558597,225218.000,39011,7,AZ,1,100,0.898
1570469564.575191,225231.000,39011,7,AZ,1,100,0.910
1570469564.591945,225244.125,39029,8,AZ,1,100,0.896
1570469564.608699,225257.250,39029,8,AZ,1,100,0.889
1570469564.625453,225270.375,39029,8,AZ,1,100,0.830
1570469564.642207,225283.500,39029,8,AZ,1,100,0.845
1570469564.658961,225296.625,39029,8,AZ,1,100,0.843
1570469564.675715,225309.750,39029,8,AZ,1,100,0.873
1570469564.692470,225322.875,39029,8,AZ,1,100,0.882
1570469564.709224,225336.000,39029,8,AZ,1,100,0.888
1570469564.725818,225349.000,39050,13,AZ,1,100,0.843
1570469564.742413,225362.000,39050,13,AZ,1,100,0.817
1570469564.759007,225375.000,39050,13,AZ,1,100,0.809
1570469564.775602,225388.000,39050,13,AZ,1,100,0.870
1570469564.792196,225401.000,39050,13,AZ,1,100,0.885
1570469564.808790,225414.000,39050,13,AZ,1,100,0.905
1570469564.825385,225427.000,39050,13,AZ,1,100,0.879
1570469564.841980,225440.000,39050,13,AZ,1,100,0.901
1570469564.858574,225453.000,39050,13,AZ,1,100,0.887
1570469564.875169,225466.000,39050,13,AZ,1,100,0.909
1570469564.891763,225479.000,39050,13,AZ,1,100,0.901
1570469564.908358,225492.000,39050,13,AZ,1,100,0.907
1570469564.924952,225505.000,39050,13,AZ,1,100,0.911
1570469564.941364,225517.857,39070,7,AZ,1,100,0.894
1570469564.957776,225530.714,39070,7,AZ,1,100,0.896
1570469564.974188,225543.571,39070,7,AZ,1,100,0.886
1570469564.990601,225556.429,39070,7,AZ,1,100,0.880
1570469565.007013,225569.286,39070,7,AZ,1,100,0.891
1570469565.023425,225582.143,39070,7,AZ,1,100,0.868
1570469565.039837,225595.000,39070,7,AZ,1,100,0.879
1570469565.056432,225608.000,39088,8,AZ,1,100,0.877
1570469565.073026,225621.000,39088,8,AZ,1,100,0.859
1570469565.089620,225634.000,39088,8,AZ,1,100,0.903
1570469565.106215,225647.000,39088,8,AZ,1,100,0.914
1570469565.122809,225660.000,39088,8,AZ,1,100,0.886
1570469565.139404,225673.000,39088,8,AZ,1,100,0.902
1570469565.155998,225686.000,39088,8,AZ,1,100,0.903
1570469565.172593,225699.000,39088,8,AZ,1,100,0.884
1570469565.189347,225712.125,39106,8,AZ,1,100,0.876
1570469565.206101,225725.250,39106,8,AZ,1,100,0.907
1570469565.222855,225738.375,39106,8,AZ,1,100,0.927
1570469565.239609,225751.500,39106,8,AZ,1,100,0.916
1570469565.256363,225764.625,39106,8,AZ,1,100,0.907
1570469565.273117,225777.750,39106,8,AZ,1,100,0.902
1570469565.289871,225790.875,39106,8,AZ,1,100,0.889
1570469565.306625,225804.000,39106,8,AZ,1,100,0.886
1570469565.323585,225817.286,39124,7,AZ,1,100,0.887
1570469565.340544,225830.571,39124,7,AZ,1,100,0.912
1570469565.357503,225843.857,39124,7,AZ,1,100,0.918
1570469565.374462,225857.143,39124,7,AZ,1,100,0.916
1570469565.391422,225870.429,39124,7,AZ,1,100,0.872
1570469565.408381,225883.714,39124,7,AZ,1,100,0.898
1570469565.425340,225897.000,39124,7,AZ,1,100,0.893
1570469565.442094,225910.125,39143,8,AZ,1,100,0.885
1570469565.458848,225923.250,39143,8,AZ,1,100,0.905
1570469565.475602,225936.375,39143,8,AZ,1,100,0.921
1570469565.492356,225949.500,39143,8,AZ,1,100,0.932
1570469565.509110,225962.625,39143,8,AZ,1,100,0.908
1570469565.525864,225975.750,39143,8,AZ,1,100,0.892
1570469565.542618,225988.875,39143,8,AZ,1,100,0.884
1570469565.559372,226002.000,39143,8,AZ,1,100,0.883
1570469565.575967,226015.000,39160,7,AZ,1,100,0.893
1570469565.592561,226028.000,39160,7,AZ,1,100,0.901
1570469565.609156,226041.000,39160,7,AZ,1,100,0.893
1570469565.625750,226054.000,39160,7,AZ,1,100,0.896
1570469565.642345,226067.000,39160,7,AZ,1,100,0.897
1570469565.658939,226080.000,39160,7,AZ,1,100,0.906
1570469565.675534,226093.000,39160,7,AZ,1,100,0.901
1570469565.692447,226106.250,39178,8,AZ,1,100,0.912
1570469565.709361,226119.500,39178,8,AZ,1,100,0.909
1570469565.726275,226132.750,39178,8,AZ,1,100,0.902
1570469565.743188,226146.000,39178,8,AZ,1,100,0.906
1570469565.760102,226159.250,39178,8,AZ,1,100,0.896
1570469565.777015,226172.500,39178,8,AZ,1,100,0.882
1570469565.793929,226185.750,39178,8,AZ,1,100,0.885
1570469565.810843,226199.000,39178,8,AZ,1,100,0.875
1570469565.827597,226212.125,39196,8,AZ,1,100,0.876
1570469565.844351,226225.250,39196,8,AZ,1,100,0.882
1570469565.861105,226238.375,39196,8,AZ,1,100,0.886
1570469565.877859,226251.500,39196,8,AZ,1,100,0.881
1570469565.894613,226264.625,39196,8,AZ,1,100,0.883
1570469565.911367,226277.750,39196,8,AZ,1,100,0.888
1570469565.928121,226290.875,39196,8,AZ,1,100,0.869
1570469565.944875,226304.000,39196,8,AZ,1,100,0.875
1570469565.961310,226316.875,39214,8,AZ,1,100,0.881
1570469565.977745,226329.750,39214,8,AZ,1,100,0.889
1570469565.994180,226342.625,39214,8,AZ,1,100,0.875
1570469566.010615,226355.500,39214,8,AZ,1,100,0.869
1570469566.027050,226368.375,39214,8,AZ,1,100,0.885
1570469566.043485,226381.250,39214,8,AZ,1,100,0.890
1570469566.059920,226394.125,39214,8,AZ,1,100,0.892
1570469566.076355,226407.000,39214,8,AZ,1,100,0.893
1570469566.093679,226420.571,39232,7,AZ,1,100,0.852
1570469566.111002,226434.143,39232,7,AZ,1,100,0.877
1570469566.128326,226447.714,39232,7,AZ,1,100,0.899
1570469566.145650,226461.286,39232,7,AZ,1,100,0.924
1570469566.162974,226474.857,39232,7,AZ,1,100,0.917
1570469566.180298,226488.429,39232,7,AZ,1,100,0.900
1570469566.197622,226502.000,39232,7,AZ,1,100,0.892
1570469566.214057,226514.875,39250,8,AZ,1,100,0.895
1570469566.230492,226527.750,39250,8,AZ,1,100,0.920
1570469566.246927,226540.625,39250,8,AZ,1,100,0.898
1570469566.263362,226553.500,39250,8,AZ,1,100,0.935
1570469566.279797,226566.375,39250,8,AZ,1,100,0.916
1570469566.296232,226579.250,39250,8,AZ,1,100,0.922
1570469566.312667,226592.125,39250,8,AZ,1,100,0.915
1570469566.329102,226605.000,39250,8,AZ,1,100,0.892
1570469566.345856,226618.125,39266,8,AZ,1,100,0.902
1570469566.362610,226631.250,39266,8,AZ,1,100,0.915
1570469566.379364,226644.375,39266,8,AZ,1,100,0.917
1570469566.396118,226657.500,39266,8,AZ,1,100,0.913
1570469566.412872,226670.625,39266,8,AZ,1,100,0.917
1570469566.429626,226683.750,39266,8,AZ,1,100,0.901
1570469566.446380,226696.875,39266,8,AZ,1,100,0.911
1570469566.463134,226710.000,39266,8,AZ,1,100,0.903
1570469566.479729,226723.000,39285,7,AZ,1,100,0.887
1570469566.496323,226736.000,39285,7,AZ,1,100,0.900
1570469566.512918,226749.000,39285,7,AZ,1,100,0.900
1570469566.529512,226762.000,39285,7,AZ,1,100,0.905
1570469566.546107,226775.000,39285,7,AZ,1,100,0.894
1570469566.562701,226788.000,39285,7,AZ,1,100,0.889
1570469566.579296,226801.000,39285,7,AZ,1,100,0.895
1570469566.596209,226814.250,39303,8,AZ,1,100,0.901
1570469566.613123,226827.500,39303,8,AZ,1,100,0.915
1570469566.630036,226840.750,39303,8,AZ,1,100,0.929
1570469566.646950,226854.000,39303,8,AZ,1,100,0.924
1570469566.663864,226867.250,39303,8,AZ,1,100,0.926
1570469566.680777,226880.500,39303,8,AZ,1,100,0.913
1570469566.697691,226893.750,39303,8,AZ,1,100,0.913
1570469566.714605,226907.000,39303,8,AZ,1,100,0.912
1570469566.730880,226919.750,39321,8,AZ,1,100,0.887
1570469566.747155,226932.500,39321,8,AZ,1,100,0.893
1570469566.763431,226945.250,39321,8,AZ,1,100,0.925
1570469566.779706,226958.000,39321,8,AZ,1,100,0.901
1570469566.795981,226970.750,39321,8,AZ,1,100,0.896
1570469566.812257,226983.500,39321,8,AZ,1,100,0.903
1570469566.828532,226996.250,39321,8,AZ,1,100,0.896
1570469566.844807,227009.000,39321,8,AZ,1,100,0.882
1570469566.861402,227022.000,39339,8,AZ,1,100,0.891
1570469566.877996,227035.000,39339,8,AZ,1,100,0.879
1570469566.894591,227048.000,39339,8,AZ,1,100,0.888
1570469566.911186,227061.000,39339,8,AZ,1,100,0.929
1570469566.927780,227074.000,39339,8,AZ,1,100,0.883
1570469566.944375,227087.000,39339,8,AZ,1,100,0.884
1570469566.960969,227100.000,39339,8,AZ,1,100,0.872
1570469566.977563,227113.000,39339,8,AZ,1,100,0.892
1570469566.994158,227126.000,39357,8,AZ,1,100,0.909
1570469567.010752,227139.000,39357,8,AZ,1,100,0.898
1570469567.027347,227152.000,39357,8,AZ,1,100,0.899
1570469567.043941,227165.000,39357,8,AZ,1,100,0.913
1570469567.060536,227178.000,39357,8,AZ,1,100,0.890
1570469567.077130,227191.000,39357,8,AZ,1,100,0.878
1570469567.093725,227204.000,39357,8,AZ,1,100,0.898
1570469567.110319,227217.000,39357,8,AZ,1,100,0.901
1570469567.126754,227229.875,39375,8,AZ,1,100,0.895
1570469567.143189,227242.750,39375,8,AZ,1,100,0.894
1570469567.159624,227255.625,39375,8,AZ,1,100,0.899
1570469567.176059,227268.500,39375,8,AZ,1,100,0.898
1570469567.192494,227281.375,39375,8,AZ,1,100,0.899
1570469567.208929,227294.250,39375,8,AZ,1,100,0.892
1570469567.225364,227307.125,39375,8,AZ,1,100,0.905
1570469567.241799,227320.000,39375,8,AZ,1,100,0.901
1570469567.258576,227333.143,39393,7,AZ,1,100,0.899
1570469567.275352,227346.286,39393,7,AZ,1,100,0.902
1570469567.292130,227359.429,39393,7,AZ,1,100,0.913
1570469567.308906,227372.571,39393,7,AZ,1,100,0.908
1570469567.325683,227385.714,39393,7,AZ,1,100,0.911
1570469567.342460,227398.857,39393,7,AZ,1,100,0.898
1570469567.359237,227412.000,39393,7,AZ,1,100,0.889
1570469567.375991,227425.125,39411,8,AZ,1,100,0.896
1570469567.392745,227438.250,39411,8,AZ,1,100,0.900
1570469567.409499,227451.375,39411,8,AZ,1,100,0.898
1570469567.426253,227464.500,39411,8,AZ,1,100,0.915
1570469567.443007,227477.625,39411,8,AZ,1,100,0.933
1570469567.459761,227490.750,39411,8,AZ,1,100,0.924
1570469567.476515,227503.875,39411,8,AZ,1,100,0.907
1570469567.493269,227517.000,39411,8,AZ,1,100,0.879
1570469567.510023,227530.125,39430,8,AZ,1,100,0.871
1570469567.526778,227543.250,39430,8,AZ,1,100,0.866
1570469567.543531,227556.375,39430,8,AZ,1,100,0.874
1570469567.560286,227569.500,39430,8,AZ,1,100,0.888
1570469567.577040,227582.625,39430,8,AZ,1,100,0.889
1570469567.593794,227595.750,39430,8,AZ,1,100,0.891
1570469567.610548,227608.875,39430,8,AZ,1,100,0.885
1570469567.627302,227622.000,39430,8,AZ,1,100,0.861
1570469567.643896,227635.000,39448,7,AZ,1,100,0.851
1570469567.660491,227648.000,39448,7,AZ,1,100,0.865
1570469567.677085,227661.000,39448,7,AZ,1,100,0.877
1570469567.693680,227674.000,39448,7,AZ,1,100,0.894
1570469567.710274,227687.000,39448,7,AZ,1,100,0.906
1570469567.726869,227700.000,39448,7,AZ,1,100,0.907
1570469567.743463,227713.000,39448,7,AZ,1,100,0.901
1570469567.759898,227725.875,39466,8,AZ,1,100,0.895
1570469567.776333,227738.750,39466,8,AZ,1,100,0.894
1570469567.792768,227751.625,39466,8,AZ,1,100,0.889
1570469567.809203,227764.500,39466,8,AZ,1,100,0.920
1570469567.825638,227777.375,39466,8,AZ,1,100,0.888
1570469567.842073,227790.250,39466,8,AZ,1,100,0.929
1570469567.858508,227803.125,39466,8,AZ,1,100,0.927
1570469567.874943,227816.000,39466,8,AZ,1,100,0.955
1570469567.891537,227829.000,39484,8,AZ,1,100,0.911
1570469567.908132,227842.000,39484,8,AZ,1,100,0.892
1570469567.924726,227855.000,39484,8,AZ,1,100,0.893
1570469567.941321,227868.000,39484,8,AZ,1,100,0.886
1570469567.957915,227881.000,39484,8,AZ,1,100,0.887
1570469567.974510,227894.000,39484,8,AZ,1,100,0.878
1570469567.991104,227907.000,39484,8,AZ,1,100,0.886
1570469568.007699,227920.000,39484,8,AZ,1,100,0.890
1570469568.024293,227933.000,39502,8,AZ,1,100,0.890
1570469568.040888,227946.000,39502,8,AZ,1,100,0.868
1570469568.057482,227959.000,39502,8,AZ,1,100,0.864
1570469568.074077,227972.000,39502,8,AZ,1,100,0.854
1570469568.090671,227985.000,39502,8,AZ,1,100,0.869
1570469568.107266,227998.000,39502,8,AZ,1,100,0.880
1570469568.123860,228011.000,39502,8,AZ,1,100,0.883
1570469568.140455,228024.000,39502,8,AZ,1,100,0.883
1570469568.157049,228037.000,39520,8,AZ,1,100,0.873
1570469568.173644,228050.000,39520,8,AZ,1,100,0.878
1570469568.190238,228063.000,39520,8,AZ,1,100,0.856
1570469568.206833,228076.000,39520,8,AZ,1,100,0.875
1570469568.223427,228089.000,39520,8,AZ,1,100,0.873
1570469568.240022,228102.000,39520,8,AZ,1,100,0.873
1570469568.256616,228115.000,39520,8,AZ,1,100,0.865
1570469568.273211,228128.000,39520,8,AZ,1,100,0.865
1570469568.290352,228141.429,39538,7,AZ,1,100,0.863
1570469568.307494,228154.857,39538,7,AZ,1,100,0.866
1570469568.324635,228168.286,39538,7,AZ,1,100,0.885
1570469568.341777,228181.714,39538,7,AZ,1,100,0.882
1570469568.358918,228195.143,39538,7,AZ,1,100,0.887
1570469568.376060,228208.571,39538,7,AZ,1,100,0.890
1570469568.393202,228222.000,39538,7,AZ,1,100,0.868
1570469568.409796,228235.000,39556,8,AZ,1,100,0.866
1570469568.426391,228248.000,39556,8,AZ,1,100,0.887
1570469568.442985,228261.000,39556,8,AZ,1,100,0.888
1570469568.459579,228274.000,39556,8,AZ,1,100,0.881
1570469568.476174,228287.000,39556,8,AZ,1,100,0.871
1570469568.492769,228300.000,39556,8,AZ,1,100,0.855
1570469568.509363,228313.000,39556,8,AZ,1,100,0.869
1570469568.525958,228326.000,39556,8,AZ,1,100,0.890
1570469568.542734,228339.143,39575,7,AZ,1,100,0.904
1570469568.559511,228352.286,39575,7,AZ,1,100,0.913
1570469568.576288,228365.429,39575,7,AZ,1,100,0.915
1570469568.593065,228378.571,39575,7,AZ,1,100,0.922
1570469568.609842,228391.714,39575,7,AZ,1,100,0.917
1570469568.626619,228404.857,39575,7,AZ,1,100,0.895
1570469568.643395,228418.000,39575,7,AZ,1,100,0.890
1570469568.660309,228431.250,39593,8,AZ,1,100,0.888
1570469568.677223,228444.500,39593,8,AZ,1,100,0.881
1570469568.694136,228457.750,39593,8,AZ,1,100,0.870
1570469568.711050,228471.000,39593,8,AZ,1,100,0.858
1570469568.727964,228484.250,39593,8,AZ,1,100,0.873
1570469568.744877,228497.500,39593,8,AZ,1,100,0.878
1570469568.761791,228510.750,39593,8,AZ,1,100,0.863
1570469568.778704,228524.000,39593,8,AZ,1,100,0.857
1570469568.795299,228537.000,39611,8,AZ,1,100,0.866
1570469568.811893,228550.000,39611,8,AZ,1,100,0.849
1570469568.828488,228563.000,39611,8,AZ,1,100,0.853
1570469568.845083,228576.000,39611,8,AZ,1,100,0.866
1570469568.861677,228589.000,39611,8,AZ,1,100,0.884
1570469568.878271,228602.000,39611,8,AZ,1,100,0.896
1570469568.894866,228615.000,39611,8,AZ,1,100,0.889
1570469568.911460,228628.000,39611,8,AZ,1,100,0.882
1570469568.928055,228641.000,39629,8,AZ,1,100,0.869
1570469568.944649,228654.000,39629,8,AZ,1,100,0.876
1570469568.961244,228667.000,39629,8,AZ,1,100,0.896
1570469568.977839,228680.000,39629,8,AZ,1,100,0.896
1570469568.994433,228693.000,39629,8,AZ,1,100,0.906
1570469569.011027,228706.000,39629,8,AZ,1,100,0.893
1570469569.027622,228719.000,39629,8,AZ,1,100,0.890
1570469569.044216,228732.000,39629,8,AZ,1,100,0.877
1570469569.060993,228745.143,39647,7,AZ,1,100,0.866
1570469569.077770,228758.286,39647,7,AZ,1,100,0.870
1570469569.094547,228771.429,39647,7,AZ,1,100,0.868
1570469569.111324,228784.571,39647,7,AZ,1,100,0.877
1570469569.128101,228797.714,39647,7,AZ,1,100,0.874
1570469569.144877,228810.857,39647,7,AZ,1,100,0.866
1570469569.161654,228824.000,39647,7,AZ,1,100,0.856
1570469569.178408,228837.125,39665,8,AZ,1,100,0.849
1570469569.195163,228850.250,39665,8,AZ,1,100,0.857
1570469569.211916,228863.375,39665,8,AZ,1,100,0.867
1570469569.228671,228876.500,39665,8,AZ,1,100,0.876
1570469569.245425,228889.625,39665,8,AZ,1,100,0.868
1570469569.262179,228902.750,39665,8,AZ,1,100,0.868
1570469569.278933,228915.875,39665,8,AZ,1,100,0.858
1570469569.295687,228929.000,39665,8,AZ,1,100,0.862
1570469569.312441,228942.125,39682,8,AZ,1,100,0.861
1570469569.329195,228955.250,39682,8,AZ,1,100,0.886
1570469569.345949,228968.375,39682,8,AZ,1,100,0.890
1570469569.362703,228981.500,39682,8,AZ,1,100,0.892
1570469569.379457,228994.625,39682,8,AZ,1,100,0.888
1570469569.396211,229007.750,39682,8,AZ,1,100,0.875
1570469569.412965,229020.875,39682,8,AZ,1,100,0.876
1570469569.429719,229034.000,39682,8,AZ,1,100,0.882
1570469569.446314,229047.000,39700,8,AZ,1,100,0.875
1570469569.462908,229060.000,39700,8,AZ,1,100,0.889
1570469569.479503,229073.000,39700,8,AZ,1,100,0.879
1570469569.496097,229086.000,39700,8,AZ,1,100,0.878
1570469569.512692,229099.000,39700,8,AZ,1,100,0.874
1570469569.529286,229112.000,39700,8,AZ,1,100,0.878
1570469569.545881,229125.000,39700,8,AZ,1,100,0.881
1570469569.562475,229138.000,39700,8,AZ,1,100,0.890
1570469569.578887,229150.857,39719,7,AZ,1,100,0.892
1570469569.595299,229163.714,39719,7,AZ,1,100,0.895
1570469569.611712,229176.571,39719,7,AZ,1,100,0.878
1570469569.628124,229189.429,39719,7,AZ,1,100,0.895
1570469569.644536,229202.286,39719,7,AZ,1,100,0.891
1570469569.660948,229215.143,39719,7,AZ,1,100,0.894
1570469569.677360,229228.000,39719,7,AZ,1,100,0.887
1570469569.694274,229241.250,39737,8,AZ,1,100,0.886
1570469569.711188,229254.500,39737,8,AZ,1,100,0.875
1570469569.728101,229267.750,39737,8,AZ,1,100,0.872
1570469569.745015,229281.000,39737,8,AZ,1,100,0.877
1570469569.761928,229294.250,39737,8,AZ,1,100,0.879
1570469569.778842,229307.500,39737,8,AZ,1,100,0.880
1570469569.795756,229320.750,39737,8,AZ,1,100,0.868
1570469569.812669,229334.000,39737,8,AZ,1,100,0.863
1570469569.829104,229346.875,39755,8,AZ,1,100,0.868
1570469569.845539,229359.750,39755,8,AZ,1,100,0.891
1570469569.861974,229372.625,39755,8,AZ,1,100,0.892
1570469569.878409,229385.500,39755,8,AZ,1,100,0.883
1570469569.894844,229398.375,39755,8,AZ,1,100,0.873
1570469569.911279,229411.250,39755,8,AZ,1,100,0.873
1570469569.927714,229424.125,39755,8,AZ,1,100,0.868
1570469569.944149,229437.000,39755,8,AZ,1,100,0.887
1570469569.960584,229449.875,39773,8,AZ,1,100,0.893
1570469569.977019,229462.750,39773,8,AZ,1,100,0.896
1570469569.993454,229475.625,39773,8,AZ,1,100,0.888
1570469570.009888,229488.500,39773,8,AZ,1,100,0.880
1570469570.026323,229501.375,39773,8,AZ,1,100,0.875
1570469570.042758,229514.250,39773,8,AZ,1,100,0.864
1570469570.059193,229527.125,39773,8,AZ,1,100,0.885
1570469570.075628,229540.000,39773,8,AZ,1,100,0.889
1570469570.092063,229552.875,39791,8,AZ,1,100,0.884
1570469570.108498,229565.750,39791,8,AZ,1,100,0.881
1570469570.124933,229578.625,39791,8,AZ,1,100,0.878
1570469570.141368,229591.500,39791,8,AZ,1,100,0.883
1570469570.157803,229604.375,39791,8,AZ,1,100,0.887
1570469570.174238,229617.250,39791,8,AZ,1,100,0.877
1570469570.190673,229630.125,39791,8,AZ,1,100,0.887
1570469570.207108,229643.000,39791,8,AZ,1,100,0.872
1570469570.223884,229656.143,39809,7,AZ,1,100,0.885
1570469570.240661,229669.286,39809,7,AZ,1,100,0.879
1570469570.257438,229682.429,39809,7,AZ,1,100,0.880
1570469570.274215,229695.571,39809,7,AZ,1,100,0.868
1570469570.290992,229708.714,39809,7,AZ,1,100,0.874
1570469570.307769,229721.857,39809,7,AZ,1,100,0.877
1570469570.324546,229735.000,39809,7,AZ,1,100,0.869
1570469570.341140,229748.000,39826,8,AZ,1,100,0.875
1570469570.357735,229761.000,39826,8,AZ,1,100,0.882
1570469570.374329,229774.000,39826,8,AZ,1,100,0.872
1570469570.390924,229787.000,39826,8,AZ,1,100,0.875
1570469570.407518,229800.000,39826,8,AZ,1,100,0.889
1570469570.424113,229813.000,39826,8,AZ,1,100,0.869
1570469570.440707,229826.000,39826,8,AZ,1,100,0.885
1570469570.457302,229839.000,39826,8,AZ,1,100,0.888
1570469570.474056,229852.125,39843,8,AZ,1,100,0.876
1570469570.490810,229865.250,39843,8,AZ,1,100,0.886
1570469570.507564,229878.375,39843,8,AZ,1,100,0.882
1570469570.524318,229891.500,39843,8,AZ,1,100,0.890
1570469570.541072,229904.625,39843,8,AZ,1,100,0.888
1570469570.557826,229917.750,39843,8,AZ,1,100,0.887
1570469570.574580,229930.875,39843,8,AZ,1,100,0.871
1570469570.591334,229944.000,39843,8,AZ,1,100,0.861
1570469570.608088,229957.125,39862,8,AZ,1,100,0.862
1570469570.624842,229970.250,39862,8,AZ,1,100,0.877
1570469570.641596,229983.375,39862,8,AZ,1,100,0.886
1570469570.658350,229996.500,39862,8,AZ,1,100,0.898
1570469570.675104,230009.625,39862,8,AZ,1,100,0.897
1570469570.691858,230022.750,39862,8,AZ,1,100,0.874
1570469570.708612,230035.875,39862,8,AZ,1,100,0.869
1570469570.725366,230049.000,39862,8,AZ,1,100,0.874
1570469570.741779,230061.857,39880,7,AZ,1,100,0.874
1570469570.758191,230074.714,39880,7,AZ,1,100,0.883
1570469570.774603,230087.571,39880,7,AZ,1,100,0.892
1570469570.791015,230100.429,39880,7,AZ,1,100,0.883
1570469570.807427,230113.286,39880,7,AZ,1,100,0.852
1570469570.823839,230126.143,39880,7,AZ,1,100,0.846
1570469570.840251,230139.000,39880,7,AZ,1,100,0.863
1570469570.856846,230152.000,39898,8,AZ,1,100,0.857
1570469570.873441,230165.000,39898,8,AZ,1,100,0.863
1570469570.890035,230178.000,39898,8,AZ,1,100,0.882
1570469570.906629,230191.000,39898,8,AZ,1,100,0.903
1570469570.923224,230204.000,39898,8,AZ,1,100,0.897
1570469570.939818,230217.000,39898,8,AZ,1,100,0.896
1570469570.956413,230230.000,39898,8,AZ,1,100,0.886
1570469570.973007,230243.000,39898,8,AZ,1,100,0.873
1570469570.989761,230256.125,39916,8,AZ,1,100,0.880
1570469571.006516,230269.250,39916,8,AZ,1,100,0.869
1570469571.023270,230282.375,39916,8,AZ,1,100,0.896
1570469571.040024,230295.500,39916,8,AZ,1,100,0.893
1570469571.056778,230308.625,39916,8,AZ,1,100,0.874
1570469571.073532,230321.750,39916,8,AZ,1,100,0.866
1570469571.090286,230334.875,39916,8,AZ,1,100,0.870
1570469571.107040,230348.000,39916,8,AZ,1,100,0.868
1570469571.123475,230360.875,39934,8,AZ,1,100,0.866
1570469571.139910,230373.750,39934,8,AZ,1,100,0.837
1570469571.156345,230386.625,39934,8,AZ,1,100,0.871
1570469571.172780,230399.500,39934,8,AZ,1,100,0.891
1570469571.189214,230412.375,39934,8,AZ,1,100,0.884
1570469571.205649,230425.250,39934,8,AZ,1,100,0.869
1570469571.222084,230438.125,39934,8,AZ,1,100,0.870
1570469571.238519,230451.000,39934,8,AZ,1,100,0.877
1570469571.255220,230464.083,39955,12,AZ,1,100,0.884
1570469571.271921,230477.167,39955,12,AZ,1,100,0.883
1570469571.288622,230490.250,39955,12,AZ,1,100,0.890
1570469571.305323,230503.333,39955,12,AZ,1,100,0.895
1570469571.322024,230516.417,39955,12,AZ,1,100,0.887
1570469571.338725,230529.500,39955,12,AZ,1,100,0.896
1570469571.355425,230542.583,39955,12,AZ,1,100,0.902
1570469571.372126,230555.667,39955,12,AZ,1,100,0.896
1570469571.388827,230568.750,39955,12,AZ,1,100,0.877
1570469571.405528,230581.833,39955,12,AZ,1,100,0.860
1570469571.422229,230594.917,39955,12,AZ,1,100,0.851
1570469571.438930,230608.000,39955,12,AZ,1,100,0.850
1570469571.455707,230621.143,39975,7,AZ,1,100,0.863
1570469571.472483,230634.286,39975,7,AZ,1,100,0.873
1570469571.489260,230647.429,39975,7,AZ,1,100,0.872
1570469571.506037,230660.571,39975,7,AZ,1,100,0.874
1570469571.522814,230673.714,39975,7,AZ,1,100,0.883
1570469571.539591,230686.857,39975,7,AZ,1,100,0.890
1570469571.556368,230700.000,39975,7,AZ,1,100,0.902
1570469571.573122,230713.125,39994,8,AZ,1,100,0.910
1570469571.589876,230726.250,39994,8,AZ,1,100,0.910
1570469571.606630,230739.375,39994,8,AZ,1,100,0.914
1570469571.623384,230752.500,39994,8,AZ,1,100,0.905
1570469571.640138,230765.625,39994,8,AZ,1,100,0.904
1570469571.656892,230778.750,39994,8,AZ,1,100,0.904
1570469571.673646,230791.875,39994,8,AZ,1,100,0.910
1570469571.690400,230805.000,39994,8,AZ,1,100,0.907
1570469571.707314,230818.250,40011,8,AZ,1,100,0.897
1570469571.724227,230831.500,40011,8,AZ,1,100,0.886
1570469571.741141,230844.750,40011,8,AZ,1,100,0.881
1570469571.758055,230858.000,40011,8,AZ,1,100,0.891
1570469571.774968,230871.250,40011,8,AZ,1,100,0.883
1570469571.791882,230884.500,40011,8,AZ,1,100,0.860
1570469571.808795,230897.750,40011,8,AZ,1,100,0.846
1570469571.825709,230911.000,40011,8,AZ,1,100,0.854
1570469571.842463,230924.125,40029,8,AZ,1,100,0.845
1570469571.859217,230937.250,40029,8,AZ,1,100,0.830
1570469571.875971,230950.375,40029,8,AZ,1,100,0.842
1570469571.892725,230963.500,40029,8,AZ,1,100,0.850
1570469571.909479,230976.625,40029,8,AZ,1,100,0.862
1570469571.926234,230989.750,40029,8,AZ,1,100,0.875
1570469571.942988,231002.875,40029,8,AZ,1,100,0.871
1570469571.959742,231016.000,40029,8,AZ,1,100,0.863
1570469571.976154,231028.857,40047,7,AZ,1,100,0.867
1570469571.992566,231041.714,40047,7,AZ,1,100,0.878
1570469572.008978,231054.571,40047,7,AZ,1,100,0.889
1570469572.025390,231067.429,40047,7,AZ,1,100,0.887
1570469572.041802,231080.286,40047,7,AZ,1,100,0.878
1570469572.058214,231093.143,40047,7,AZ,1,100,0.878
1570469572.074627,231106.000,40047,7,AZ,1,100,0.874
1570469572.091540,231119.250,40065,8,AZ,1,100,0.886
1570469572.108454,231132.500,40065,8,AZ,1,100,0.895
1570469572.125367,231145.750,40065,8,AZ,1,100,0.895
1570469572.142281,231159.000,40065,8,AZ,1,100,0.887
1570469572.159195,231172.250,40065,8,AZ,1,100,0.864
1570469572.176108,231185.500,40065,8,AZ,1,100,0.867
1570469572.193022,231198.750,40065,8,AZ,1,100,0.859
1570469572.209936,231212.000,40065,8,AZ,1,100,0.861
1570469572.226690,231225.125,40083,8,AZ,1,100,0.897
1570469572.243444,231238.250,40083,8,AZ,1,100,0.899
1570469572.260198,231251.375,40083,8,AZ,1,100,0.886
1570469572.276952,231264.500,40083,8,AZ,1,100,0.884
1570469572.293706,231277.625,40083,8,AZ,1,100,0.881
1570469572.310460,231290.750,40083,8,AZ,1,100,0.869
1570469572.327214,231303.875,40083,8,AZ,1,100,0.868
1570469572.343968,231317.000,40083,8,AZ,1,100,0.868
1570469572.360745,231330.143,40101,7,AZ,1,100,0.883
1570469572.377522,231343.286,40101,7,AZ,1,100,0.866
1570469572.394299,231356.429,40101,7,AZ,1,100,0.863
1570469572.411075,231369.571,40101,7,AZ,1,100,0.853
1570469572.427852,231382.714,40101,7,AZ,1,100,0.859
1570469572.444629,231395.857,40101,7,AZ,1,100,0.862
1570469572.461406,231409.000,40101,7,AZ,1,100,0.882
1570469572.478320,231422.250,40117,8,AZ,1,100,0.870
1570469572.495233,231435.500,40117,8,AZ,1,100,0.856
1570469572.512147,231448.750,40117,8,AZ,1,100,0.860
1570469572.529061,231462.000,40117,8,AZ,1,100,0.875
1570469572.545974,231475.250,40117,8,AZ,1,100,0.883
1570469572.562888,231488.500,40117,8,AZ,1,100,0.897
1570469572.579801,231501.750,40117,8,AZ,1,100,0.902
1570469572.596715,231515.000,40117,8,AZ,1,100,0.900
1570469572.613150,231527.875,40136,8,AZ,1,100,0.887
1570469572.629585,231540.750,40136,8,AZ,1,100,0.890
1570469572.646020,231553.625,40136,8,AZ,1,100,0.888
1570469572.662455,231566.500,40136,8,AZ,1,100,0.884
1570469572.678890,231579.375,40136,8,AZ,1,100,0.886
1570469572.695325,231592.250,40136,8,AZ,1,100,0.881
1570469572.711760,231605.125,40136,8,AZ,1,100,0.897
1570469572.728194,231618.000,40136,8,AZ,1,100,0.896
1570469572.744789,231631.000,40154,7,AZ,1,100,0.878
1570469572.761384,231644.000,40154,7,AZ,1,100,0.884
1570469572.777978,231657.000,40154,7,AZ,1,100,0.884
1570469572.794572,231670.000,40154,7,AZ,1,100,0.883
1570469572.811167,231683.000,40154,7,AZ,1,100,0.868
1570469572.827761,231696.000,40154,7,AZ,1,100,0.871
1570469572.844356,231709.000,40154,7,AZ,1,100,0.871
1570469572.861110,231722.125,40172,8,AZ,1,100,0.865
1570469572.877864,231735.250,40172,8,AZ,1,100,0.870
1570469572.894618,231748.375,40172,8,AZ,1,100,0.853
1570469572.911372,231761.500,40172,8,AZ,1,100,0.885
1570469572.928126,231774.625,40172,8,AZ,1,100,0.898
1570469572.944880,231787.750,40172,8,AZ,1,100,0.893
1570469572.961634,231800.875,40172,8,AZ,1,100,0.890
1570469572.978388,231814.000,40172,8,AZ,1,100,0.857
1570469572.994983,231827.000,40190,8,AZ,1,100,0.865
1570469573.011577,231840.000,40190,8,AZ,1,100,0.867
1570469573.028172,231853.000,40190,8,AZ,1,100,0.880
1570469573.044766,231866.000,40190,8,AZ,1,100,0.894
1570469573.061361,231879.000,40190,8,AZ,1,100,0.887
1570469573.077955,231892.000,40190,8,AZ,1,100,0.861
1570469573.094550,231905.000,40190,8,AZ,1,100,0.857
1570469573.111144,231918.000,40190,8,AZ,1,100,0.863
1570469573.127420,231930.750,40208,8,AZ,1,100,0.887
1570469573.143695,231943.500,40208,8,AZ,1,100,0.889
1570469573.159971,231956.250,40208,8,AZ,1,100,0.882
1570469573.176246,231969.000,40208,8,AZ,1,100,0.880
1570469573.192521,231981.750,40208,8,AZ,1,100,0.877
1570469573.208797,231994.500,40208,8,AZ,1,100,0.878
1570469573.225072,232007.250,40208,8,AZ,1,100,0.879
1570469573.241347,232020.000,40208,8,AZ,1,100,0.884
1570469573.257942,232033.000,40226,8,AZ,1,100,0.886
1570469573.274536,232046.000,40226,8,AZ,1,100,0.886
1570469573.291131,232059.000,40226,8,AZ,1,100,0.868
1570469573.307725,232072.000,40226,8,AZ,1,100,0.875
1570469573.324320,232085.000,40226,8,AZ,1,100,0.878
1570469573.340914,232098.000,40226,8,AZ,1,100,0.882
1570469573.357509,232111.000,40226,8,AZ,1,100,0.875
1570469573.374103,232124.000,40226,8,AZ,1,100,0.880
1570469573.390698,232137.000,40244,7,AZ,1,100,0.882
1570469573.407292,232150.000,40244,7,AZ,1,100,0.859
1570469573.423887,232163.000,40244,7,AZ,1,100,0.873
1570469573.440481,232176.000,40244,7,AZ,1,100,0.868
1570469573.457076,232189.000,40244,7,AZ,1,100,0.873
1570469573.473670,232202.000,40244,7,AZ,1,100,0.872
1570469573.490265,232215.000,40244,7,AZ,1,100,0.864
1570469573.507178,232228.250,40262,8,AZ,1,100,0.878
1570469573.524092,232241.500,40262,8,AZ,1,100,0.883
1570469573.541006,232254.750,40262,8,AZ,1,100,0.882
1570469573.557919,232268.000,40262,8,AZ,1,100,0.894
1570469573.574833,232281.250,40262,8,AZ,1,100,0.880
1570469573.591747,232294.500,40262,8,AZ,1,100,0.873
1570469573.608660,232307.750,40262,8,AZ,1,100,0.875
1570469573.625574,232321.000,40262,8,AZ,1,100,0.882
1570469573.642168,232334.000,40281,8,AZ,1,100,0.880
1570469573.658763,232347.000,40281,8,AZ,1,100,0.893
1570469573.675357,232360.000,40281,8,AZ,1,100,0.884
1570469573.691952,232373.000,40281,8,AZ,1,100,0.884
1570469573.708546,232386.000,40281,8,AZ,1,100,0.878
1570469573.725141,232399.000,40281,8,AZ,1,100,0.880
1570469573.741735,232412.000,40281,8,AZ,1,100,0.884
1570469573.758330,232425.000,40281,8,AZ,1,100,0.885
1570469573.775106,232438.143,40299,7,AZ,1,100,0.875
1570469573.791883,232451.286,40299,7,AZ,1,100,0.865
1570469573.808660,232464.429,40299,7,AZ,1,100,0.865
1570469573.825437,232477.571,40299,7,AZ,1,100,0.870
1570469573.842214,232490.714,40299,7,AZ,1,100,0.885
1570469573.858991,232503.857,40299,7,AZ,1,100,0.873
1570469573.875768,232517.000,40299,7,AZ,1,100,0.873
1570469573.892522,232530.125,40317,8,AZ,1,100,0.857
1570469573.909276,232543.250,40317,8,AZ,1,100,0.861
1570469573.926030,232556.375,40317,8,AZ,1,100,0.875
1570469573.942784,232569.500,40317,8,AZ,1,100,0.864
1570469573.959538,232582.625,40317,8,AZ,1,100,0.876
1570469573.976292,232595.750,40317,8,AZ,1,100,0.886
1570469573.993046,232608.875,40317,8,AZ,1,100,0.890
1570469574.009800,232622.000,40317,8,AZ,1,100,0.891
1570469574.026395,232635.000,40335,8,AZ,1,100,0.882
1570469574.042989,232648.000,40335,8,AZ,1,100,0.869
1570469574.059584,232661.000,40335,8,AZ,1,100,0.882
1570469574.076178,232674.000,40335,8,AZ,1,100,0.875
1570469574.092772,232687.000,40335,8,AZ,1,100,0.876
1570469574.109367,232700.000,40335,8,AZ,1,100,0.873
1570469574.125962,232713.000,40335,8,AZ,1,100,0.886
1570469574.142556,232726.000,40335,8,AZ,1,100,0.887
1570469574.159151,232739.000,40353,8,AZ,1,100,0.876
1570469574.175745,232752.000,40353,8,AZ,1,100,0.868
1570469574.192340,232765.000,40353,8,AZ,1,100,0.891
1570469574.208934,232778.000,40353,8,AZ,1,100,0.892
1570469574.225528,232791.000,40353,8,AZ,1,100,0.894
1570469574.242123,232804.000,40353,8,AZ,1,100,0.881
1570469574.258718,232817.000,40353,8,AZ,1,100,0.869
1570469574.275312,232830.000,40353,8,AZ,1,100,0.867
1570469574.291907,232843.000,40371,8,AZ,1,100,0.868
1570469574.308501,232856.000,40371,8,AZ,1,100,0.887
1570469574.325095,232869.000,40371,8,AZ,1,100,0.894
1570469574.341690,232882.000,40371,8,AZ,1,100,0.890
1570469574.358284,232895.000,40371,8,AZ,1,100,0.866
1570469574.374879,232908.000,40371,8,AZ,1,100,0.851
1570469574.391474,232921.000,40371,8,AZ,1,100,0.851
1570469574.408068,232934.000,40371,8,AZ,1,100,0.868
1570469574.424845,232947.143,40389,7,AZ,1,100,0.880
1570469574.441622,232960.286,40389,7,AZ,1,100,0.884
1570469574.458399,232973.429,40389,7,AZ,1,100,0.875
1570469574.475175,232986.571,40389,7,AZ,1,100,0.865
1570469574.491952,232999.714,40389,7,AZ,1,100,0.875
1570469574.508729,233012.857,40389,7,AZ,1,100,0.867
1570469574.525506,233026.000,40389,7,AZ,1,100,0.896
1570469574.542420,233039.250,40407,8,AZ,1,100,0.888
1570469574.559333,233052.500,40407,8,AZ,1,100,0.866
1570469574.576247,233065.750,40407,8,AZ,1,100,0.869
1570469574.593160,233079.000,40407,8,AZ,1,100,0.873
1570469574.610074,233092.250,40407,8,AZ,1,100,0.882
1570469574.626988,233105.500,40407,8,AZ,1,100,0.876
1570469574.643901,233118.750,40407,8,AZ,1,100,0.868
1570469574.660815,233132.000,40407,8,AZ,1,100,0.876
1570469574.677409,233145.000,40426,8,AZ,1,100,0.886
1570469574.694004,233158.000,40426,8,AZ,1,100,0.886
1570469574.710598,233171.000,40426,8,AZ,1,100,0.870
1570469574.727193,233184.000,40426,8,AZ,1,100,0.875
1570469574.743787,233197.000,40426,8,AZ,1,100,0.869
1570469574.760382,233210.000,40426,8,AZ,1,100,0.862
1570469574.776976,233223.000,40426,8,AZ,1,100,0.852
1570469574.793571,233236.000,40426,8,AZ,1,100,0.861
1570469574.810348,233249.143,40444,7,AZ,1,100,0.873
1570469574.827125,233262.286,40444,7,AZ,1,100,0.886
1570469574.843901,233275.429,40444,7,AZ,1,100,0.897
1570469574.860678,233288.571,40444,7,AZ,1,100,0.891
1570469574.877455,233301.714,40444,7,AZ,1,100,0.881
1570469574.894232,233314.857,40444,7,AZ,1,100,0.868
1570469574.911009,233328.000,40444,7,AZ,1,100,0.869
1570469574.927763,233341.125,40462,8,AZ,1,100,0.875
1570469574.944517,233354.250,40462,8,AZ,1,100,0.892
1570469574.961271,233367.375,40462,8,AZ,1,100,0.886
1570469574.978025,233380.500,40462,8,AZ,1,100,0.875
1570469574.994779,233393.625,40462,8,AZ,1,100,0.870
1570469575.011533,233406.750,40462,8,AZ,1,100,0.875
1570469575.028287,233419.875,40462,8,AZ,1,100,0.868
1570469575.045041,233433.000,40462,8,AZ,1,100,0.878
1570469575.061795,233446.125,40480,8,AZ,1,100,0.878
1570469575.078549,233459.250,40480,8,AZ,1,100,0.869
1570469575.095304,233472.375,40480,8,AZ,1,100,0.869
1570469575.112057,233485.500,40480,8,AZ,1,100,0.882
1570469575.128812,233498.625,40480,8,AZ,1,100,0.888
1570469575.145566,233511.750,40480,8,AZ,1,100,0.898
1570469575.162320,233524.875,40480,8,AZ,1,100,0.895
1570469575.179074,233538.000,40480,8,AZ,1,100,0.883
1570469575.195668,233551.000,40498,8,AZ,1,100,0.870
1570469575.212263,233564.000,40498,8,AZ,1,100,0.877
1570469575.228857,233577.000,40498,8,AZ,1,100,0.872
1570469575.245452,233590.000,40498,8,AZ,1,100,0.883
1570469575.262046,233603.000,40498,8,AZ,1,100,0.899
1570469575.278641,233616.000,40498,8,AZ,1,100,0.883
1570469575.295235,233629.000,40498,8,AZ,1,100,0.874
1570469575.311830,233642.000,40498,8,AZ,1,100,0.861
1570469575.328424,233655.000,40516,7,AZ,1,100,0.880
1570469575.345019,233668.000,40516,7,AZ,1,100,0.882
1570469575.361613,233681.000,40516,7,AZ,1,100,0.881
1570469575.378208,233694.000,40516,7,AZ,1,100,0.885
1570469575.394802,233707.000,40516,7,AZ,1,100,0.895
1570469575.411397,233720.000,40516,7,AZ,1,100,0.875
1570469575.427991,233733.000,40516,7,AZ,1,100,0.858
1570469575.444586,233746.000,40534,8,AZ,1,100,0.841
1570469575.461180,233759.000,40534,8,AZ,1,100,0.874
1570469575.477775,233772.000,40534,8,AZ,1,100,0.883
1570469575.494369,233785.000,40534,8,AZ,1,100,0.898
1570469575.510964,233798.000,40534,8,AZ,1,100,0.880
1570469575.527558,233811.000,40534,8,AZ,1,100,0.873
1570469575.544153,233824.000,40534,8,AZ,1,100,0.869
1570469575.560747,233837.000,40534,8,AZ,1,100,0.862
1570469575.577342,233850.000,40551,8,AZ,1,100,0.861
1570469575.593936,233863.000,40551,8,AZ,1,100,0.864
1570469575.610531,233876.000,40551,8,AZ,1,100,0.879
1570469575.627125,233889.000,40551,8,AZ,1,100,0.875
1570469575.643720,233902.000,40551,8,AZ,1,100,0.877
1570469575.660314,233915.000,40551,8,AZ,1,100,0.868
1570469575.676909,233928.000,40551,8,AZ,1,100,0.855
1570469575.693503,233941.000,40551,8,AZ,1,100,0.861
1570469575.710098,233954.000,40570,7,AZ,1,100,0.865
1570469575.726692,233967.000,40570,7,AZ,1,100,0.888
1570469575.743287,233980.000,40570,7,AZ,1,100,0.900
1570469575.759881,233993.000,40570,7,AZ,1,100,0.889
1570469575.776476,234006.000,40570,7,AZ,1,100,0.882
1570469575.793070,234019.000,40570,7,AZ,1,100,0.873
1570469575.809665,234032.000,40570,7,AZ,1,100,0.870
1570469575.826419,234045.125,40588,8,AZ,1,100,0.873
1570469575.843173,234058.250,40588,8,AZ,1,100,0.889
1570469575.859927,234071.375,40588,8,AZ,1,100,0.878
1570469575.876681,234084.500,40588,8,AZ,1,100,0.884
1570469575.893435,234097.625,40588,8,AZ,1,100,0.874
1570469575.910189,234110.750,40588,8,AZ,1,100,0.879
1570469575.926943,234123.875,40588,8,AZ,1,100,0.859
1570469575.943697,234137.000,40588,8,AZ,1,100,0.852
1570469575.960132,234149.875,40606,8,AZ,1,100,0.866
1570469575.976567,234162.750,40606,8,AZ,1,100,0.880
1570469575.993002,234175.625,40606,8,AZ,1,100,0.886
1570469576.009437,234188.500,40606,8,AZ,1,100,0.890
1570469576.025872,234201.375,40606,8,AZ,1,100,0.896
1570469576.042307,234214.250,40606,8,AZ,1,100,0.873
1570469576.058742,234227.125,40606,8,AZ,1,100,0.872
1570469576.075176,234240.000,40606,8,AZ,1,100,0.862
1570469576.091611,234252.875,40624,8,AZ,1,100,0.880
1570469576.108047,234265.750,40624,8,AZ,1,100,0.892
1570469576.124481,234278.625,40624,8,AZ,1,100,0.903
1570469576.140916,234291.500,40624,8,AZ,1,100,0.889
1570469576.157351,234304.375,40624,8,AZ,1,100,0.862
1570469576.173786,234317.250,40624,8,AZ,1,100,0.854
1570469576.190221,234330.125,40624,8,AZ,1,100,0.850
1570469576.206656,234343.000,40624,8,AZ,1,100,0.863
1570469576.223251,234356.000,40642,8,AZ,1,100,0.872
1570469576.239845,234369.000,40642,8,AZ,1,100,0.878
1570469576.256439,234382.000,40642,8,AZ,1,100,0.884
1570469576.273034,234395.000,40642,8,AZ,1,100,0.875
1570469576.289629,234408.000,40642,8,AZ,1,100,0.881
1570469576.306223,234421.000,40642,8,AZ,1,100,0.874
1570469576.322818,234434.000,40642,8,AZ,1,100,0.866
1570469576.339412,234447.000,40642,8,AZ,1,100,0.862
1570469576.355847,234459.875,40660,8,AZ,1,100,0.878
1570469576.372282,234472.750,40660,8,AZ,1,100,0.880
1570469576.388717,234485.625,40660,8,AZ,1,100,0.872
1570469576.405152,234498.500,40660,8,AZ,1,100,0.878
1570469576.421587,234511.375,40660,8,AZ,1,100,0.870
1570469576.438022,234524.250,40660,8,AZ,1,100,0.870
1570469576.454457,234537.125,40660,8,AZ,1,100,0.888
1570469576.470891,234550.000,40660,8,AZ,1,100,0.887
1570469576.487326,234562.875,40678,8,AZ,1,100,0.887
1570469576.503761,234575.750,40678,8,AZ,1,100,0.883
1570469576.520196,234588.625,40678,8,AZ,1,100,0.874
1570469576.536631,234601.500,40678,8,AZ,1,100,0.846
1570469576.553066,234614.375,40678,8,AZ,1,100,0.862
1570469576.569501,234627.250,40678,8,AZ,1,100,0.879
1570469576.585936,234640.125,40678,8,AZ,1,100,0.871
1570469576.602371,234653.000,40678,8,AZ,1,100,0.879
1570469576.619330,234666.286,40697,7,AZ,1,100,0.880
1570469576.636289,234679.571,40697,7,AZ,1,100,0.875
1570469576.653249,234692.857,40697,7,AZ,1,100,0.883
1570469576.670208,234706.143,40697,7,AZ,1,100,0.891
1570469576.687167,234719.429,40697,7,AZ,1,100,0.875
1570469576.704126,234732.714,40697,7,AZ,1,100,0.882
1570469576.721085,234746.000,40697,7,AZ,1,100,0.851
1570469576.737839,234759.125,40713,8,AZ,1,100,0.869
1570469576.754594,234772.250,40713,8,AZ,1,100,0.865
1570469576.771348,234785.375,40713,8,AZ,1,100,0.887
1570469576.788102,234798.500,40713,8,AZ,1,100,0.881
1570469576.804856,234811.625,40713,8,AZ,1,100,0.875
1570469576.821610,234824.750,40713,8,AZ,1,100,0.854
1570469576.838364,234837.875,40713,8,AZ,1,100,0.865
1570469576.855118,234851.000,40713,8,AZ,1,100,0.862
1570469576.871712,234864.000,40731,8,AZ,1,100,0.893
1570469576.888307,234877.000,40731,8,AZ,1,100,0.896
1570469576.904901,234890.000,40731,8,AZ,1,100,0.894
1570469576.921496,234903.000,40731,8,AZ,1,100,0.865
1570469576.938090,234916.000,40731,8,AZ,1,100,0.862
1570469576.954685,234929.000,40731,8,AZ,1,100,0.856
1570469576.971279,234942.000,40731,8,AZ,1,100,0.859
1570469576.987874,234955.000,40731,8,AZ,1,100,0.888
1570469577.004833,234968.286,40749,7,AZ,1,100,0.892
1570469577.021792,234981.571,40749,7,AZ,1,100,0.877
1570469577.038751,234994.857,40749,7,AZ,1,100,0.870
1570469577.055711,235008.143,40749,7,AZ,1,100,0.861
1570469577.072670,235021.429,40749,7,AZ,1,100,0.866
1570469577.089629,235034.714,40749,7,AZ,1,100,0.864
1570469577.106588,235048.000,40749,7,AZ,1,100,0.858
1570469577.123183,235061.000,40767,8,AZ,1,100,0.874
1570469577.139777,235074.000,40767,8,AZ,1,100,0.879
1570469577.156372,235087.000,40767,8,AZ,1,100,0.871
1570469577.172966,235100.000,40767,8,AZ,1,100,0.870
1570469577.189561,235113.000,40767,8,AZ,1,100,0.866
1570469577.206155,235126.000,40767,8,AZ,1,100,0.864
1570469577.222750,235139.000,40767,8,AZ,1,100,0.873
1570469577.239344,235152.000,40767,8,AZ,1,100,0.878
1570469577.255939,235165.000,40785,8,AZ,1,100,0.882
1570469577.272533,235178.000,40785,8,AZ,1,100,0.885
1570469577.289128,235191.000,40785,8,AZ,1,100,0.868
1570469577.305722,235204.000,40785,8,AZ,1,100,0.863
1570469577.322317,235217.000,40785,8,AZ,1,100,0.880
1570469577.338911,235230.000,40785,8,AZ,1,100,0.884
1570469577.355506,235243.000,40785,8,AZ,1,100,0.878
1570469577.372100,235256.000,40785,8,AZ,1,100,0.868
1570469577.388877,235269.143,40803,7,AZ,1,100,0.858
1570469577.405654,235282.286,40803,7,AZ,1,100,0.858
1570469577.422431,235295.429,40803,7,AZ,1,100,0.855
1570469577.439208,235308.571,40803,7,AZ,1,100,0.877
1570469577.455985,235321.714,40803,7,AZ,1,100,0.898
1570469577.472761,235334.857,40803,7,AZ,1,100,0.899
1570469577.489538,235348.000,40803,7,AZ,1,100,0.880
1570469577.506133,235361.000,40821,8,AZ,1,100,0.871
1570469577.522727,235374.000,40821,8,AZ,1,100,0.864
1570469577.539322,235387.000,40821,8,AZ,1,100,0.878
1570469577.555916,235400.000,40821,8,AZ,1,100,0.886
1570469577.572511,235413.000,40821,8,AZ,1,100,0.889
1570469577.589105,235426.000,40821,8,AZ,1,100,0.890
1570469577.605700,235439.000,40821,8,AZ,1,100,0.887
1570469577.622294,235452.000,40821,8,AZ,1,100,0.878
1570469577.639048,235465.125,40840,8,AZ,1,100,0.881
1570469577.655802,235478.250,40840,8,AZ,1,100,0.896
1570469577.672556,235491.375,40840,8,AZ,1,100,0.899
1570469577.689310,235504.500,40840,8,AZ,1,100,0.899
1570469577.706064,235517.625,40840,8,AZ,1,100,0.904
1570469577.722819,235530.750,40840,8,AZ,1,100,0.890
1570469577.739573,235543.875,40840,8,AZ,1,100,0.879
1570469577.756327,235557.000,40840,8,AZ,1,100,0.874
1570469577.773134,235570.167,40861,12,AZ,1,100,0.873
1570469577.789941,235583.333,40861,12,AZ,1,100,0.877
1570469577.806748,235596.500,40861,12,AZ,1,100,0.868
1570469577.823556,235609.667,40861,12,AZ,1,100,0.862
1570469577.840363,235622.833,40861,12,AZ,1,100,0.834
1570469577.857170,235636.000,40861,12,AZ,1,100,0.835
1570469577.873977,235649.167,40861,12,AZ,1,100,0.830
1570469577.890785,235662.333,40861,12,AZ,1,100,0.845
1570469577.907592,235675.500,40861,12,AZ,1,100,0.851
1570469577.924399,235688.667,40861,12,AZ,1,100,0.868
1570469577.941206,235701.833,40861,12,AZ,1,100,0.866
1570469577.958014,235715.000,40861,12,AZ,1,100,0.863
1570469577.974608,235728.000,40880,7,AZ,1,100,0.851
1570469577.991203,235741.000,40880,7,AZ,1,100,0.856
1570469578.007797,235754.000,40880,7,AZ,1,100,0.855
1570469578.024392,235767.000,40880,7,AZ,1,100,0.867
1570469578.040986,235780.000,40880,7,AZ,1,100,0.864
1570469578.057580,235793.000,40880,7,AZ,1,100,0.879
1570469578.074175,235806.000,40880,7,AZ,1,100,0.878
1570469578.090929,235819.125,40898,8,AZ,1,100,0.875
1570469578.107683,235832.250,40898,8,AZ,1,100,0.869
1570469578.124437,235845.375,40898,8,AZ,1,100,0.847
1570469578.141191,235858.500,40898,8,AZ,1,100,0.856
1570469578.157945,235871.625,40898,8,AZ,1,100,0.865
1570469578.174699,235884.750,40898,8,AZ,1,100,0.874
1570469578.191453,235897.875,40898,8,AZ,1,100,0.869
1570469578.208208,235911.000,40898,8,AZ,1,100,0.871
1570469578.224962,235924.125,40916,8,AZ,1,100,0.846
1570469578.241716,235937.250,40916,8,AZ,1,100,0.828
1570469578.258470,235950.375,40916,8,AZ,1,100,0.803
1570469578.275224,235963.500,40916,8,AZ,1,100,0.796
1570469578.291978,235976.625,40916,8,AZ,1,100,0.812
1570469578.308732,235989.750,40916,8,AZ,1,100,0.798
1570469578.325486,236002.875,40916,8,AZ,1,100,0.771
1570469578.342240,236016.000,40916,8,AZ,1,100,0.796
1570469578.358515,236028.750,40934,8,AZ,1,100,0.852
1570469578.374791,236041.500,40934,8,AZ,1,100,0.897
1570469578.391066,236054.250,40934,8,AZ,1,100,0.920
1570469578.407341,236067.000,40934,8,AZ,1,100,0.889
1570469578.423617,236079.750,40934,8,AZ,1,100,0.896
1570469578.439892,236092.500,40934,8,AZ,1,100,0.907
1570469578.456167,236105.250,40934,8,AZ,1,100,0.910
1570469578.472443,236118.000,40934,8,AZ,1,100,0.922
1570469578.489197,236131.125,40952,8,AZ,1,100,0.933
1570469578.505951,236144.250,40952,8,AZ,1,100,0.925
1570469578.522705,236157.375,40952,8,AZ,1,100,0.907
1570469578.539459,236170.500,40952,8,AZ,1,100,0.874
1570469578.556213,236183.625,40952,8,AZ,1,100,0.858
1570469578.572967,236196.750,40952,8,AZ,1,100,0.856
1570469578.589721,236209.875,40952,8,AZ,1,100,0.845
1570469578.606475,236223.000,40952,8,AZ,1,100,0.853
1570469578.623252,236236.143,40970,7,AZ,1,100,0.855
1570469578.640029,236249.286,40970,7,AZ,1,100,0.876
1570469578.656806,236262.429,40970,7,AZ,1,100,0.888
1570469578.673583,236275.571,40970,7,AZ,1,100,0.871
1570469578.690360,236288.714,40970,7,AZ,1,100,0.855
1570469578.707136,236301.857,40970,7,AZ,1,100,0.863
1570469578.723913,236315.000,40970,7,AZ,1,100,0.882
1570469578.740667,236328.125,40988,8,AZ,1,100,0.872
1570469578.757421,236341.250,40988,8,AZ,1,100,0.870
1570469578.774176,236354.375,40988,8,AZ,1,100,0.845
1570469578.790930,236367.500,40988,8,AZ,1,100,0.844
1570469578.807684,236380.625,40988,8,AZ,1,100,0.827
1570469578.824438,236393.750,40988,8,AZ,1,100,0.809
1570469578.841192,236406.875,40988,8,AZ,1,100,0.807
1570469578.857946,236420.000,40988,8,AZ,1,100,0.838
1570469578.874700,236433.125,41005,8,AZ,1,100,0.843
1570469578.891454,236446.250,41005,8,AZ,1,100,0.862
1570469578.908208,236459.375,41005,8,AZ,1,100,0.882
1570469578.924962,236472.500,41005,8,AZ,1,100,0.785
1570469578.941716,236485.625,41005,8,AZ,1,100,0.735
1570469578.958470,236498.750,41005,8,AZ,1,100,0.752
1570469578.975224,236511.875,41005,8,AZ,1,100,0.807
1570469578.991978,236525.000,41005,8,AZ,1,100,0.818
1570469579.008573,236538.000,41023,7,AZ,1,100,0.812
1570469579.025167,236551.000,41023,7,AZ,1,100,0.781
1570469579.041762,236564.000,41023,7,AZ,1,100,0.811
1570469579.058356,236577.000,41023,7,AZ,1,100,0.797
1570469579.074951,236590.000,41023,7,AZ,1,100,0.828
1570469579.091545,236603.000,41023,7,AZ,1,100,0.811
1570469579.108140,236616.000,41023,7,AZ,1,100,0.786
1570469579.124734,236629.000,41041,8,AZ,1,100,0.806
1570469579.141329,236642.000,41041,8,AZ,1,100,0.806
1570469579.157923,236655.000,41041,8,AZ,1,100,0.833
1570469579.174518,236668.000,41041,8,AZ,1,100,0.830
1570469579.191112,236681.000,41041,8,AZ,1,100,0.829
1570469579.207707,236694.000,41041,8,AZ,1,100,0.827
1570469579.224301,236707.000,41041,8,AZ,1,100,0.845
1570469579.240896,236720.000,41041,8,AZ,1,100,0.865
1570469579.257331,236732.875,41059,8,AZ,1,100,0.889
1570469579.273766,236745.750,41059,8,AZ,1,100,0.875
1570469579.290200,236758.625,41059,8,AZ,1,100,0.852
1570469579.306635,236771.500,41059,8,AZ,1,100,0.842
1570469579.323070,236784.375,41059,8,AZ,1,100,0.840
1570469579.339505,236797.250,41059,8,AZ,1,100,0.820
1570469579.355940,236810.125,41059,8,AZ,1,100,0.847
1570469579.372375,236823.000,41059,8,AZ,1,100,0.849
1570469579.388970,236836.000,41077,8,AZ,1,100,0.839
1570469579.405564,236849.000,41077,8,AZ,1,100,0.818
1570469579.422159,236862.000,41077,8,AZ,1,100,0.834
1570469579.438753,236875.000,41077,8,AZ,1,100,0.833
1570469579.455348,236888.000,41077,8,AZ,1,100,0.831
1570469579.471942,236901.000,41077,8,AZ,1,100,0.833
1570469579.488537,236914.000,41077,8,AZ,1,100,0.854
1570469579.505131,236927.000,41077,8,AZ,1,100,0.854
1570469579.521406,236939.750,41095,8,AZ,1,100,0.842
1570469579.537682,236952.500,41095,8,AZ,1,100,0.816
1570469579.553957,236965.250,41095,8,AZ,1,100,0.824
1570469579.570233,236978.000,41095,8,AZ,1,100,0.826
1570469579.586508,236990.750,41095,8,AZ,1,100,0.795
1570469579.602783,237003.500,41095,8,AZ,1,100,0.782
1570469579.619059,237016.250,41095,8,AZ,1,100,0.775
1570469579.635334,237029.000,41095,8,AZ,1,100,0.800
1570469579.651929,237042.000,41113,8,AZ,1,100,0.799
1570469579.668523,237055.000,41113,8,AZ,1,100,0.777
1570469579.685117,237068.000,41113,8,AZ,1,100,0.780
1570469579.701712,237081.000,41113,8,AZ,1,100,0.798
1570469579.718307,237094.000,41113,8,AZ,1,100,0.802
1570469579.734901,237107.000,41113,8,AZ,1,100,0.804
1570469579.751496,237120.000,41113,8,AZ,1,100,0.807
1570469579.768090,237133.000,41113,8,AZ,1,100,0.806
1570469579.785049,237146.286,41132,7,AZ,1,100,0.777
1570469579.802008,237159.571,41132,7,AZ,1,100,0.771
1570469579.818968,237172.857,41132,7,AZ,1,100,0.754
1570469579.835927,237186.143,41132,7,AZ,1,100,0.761
1570469579.852886,237199.429,41132,7,AZ,1,100,0.779
1570469579.869845,237212.714,41132,7,AZ,1,100,0.785
1570469579.886805,237226.000,41132,7,AZ,1,100,0.782
1570469579.903718,237239.250,41150,8,AZ,1,100,0.791
1570469579.920632,237252.500,41150,8,AZ,1,100,0.811
1570469579.937545,237265.750,41150,8,AZ,1,100,0.819
1570469579.954459,237279.000,41150,8,AZ,1,100,0.812
1570469579.971373,237292.250,41150,8,AZ,1,100,0.775
1570469579.988286,237305.500,41150,8,AZ,1,100,0.778
1570469580.005200,237318.750,41150,8,AZ,1,100,0.805
1570469580.022114,237332.000,41150,8,AZ,1,100,0.844
1570469580.038708,237345.000,41168,8,AZ,1,100,0.862
1570469580.055303,237358.000,41168,8,AZ,1,100,0.878
1570469580.071897,237371.000,41168,8,AZ,1,100,0.880
1570469580.088491,237384.000,41168,8,AZ,1,100,0.894
1570469580.105086,237397.000,41168,8,AZ,1,100,0.854
1570469580.121680,237410.000,41168,8,AZ,1,100,0.809
1570469580.138275,237423.000,41168,8,AZ,1,100,0.798
1570469580.154870,237436.000,41168,8,AZ,1,100,0.805
1570469580.171464,237449.000,41186,7,AZ,1,100,0.817
1570469580.188058,237462.000,41186,7,AZ,1,100,0.829
1570469580.204653,237475.000,41186,7,AZ,1,100,0.821
1570469580.221247,237488.000,41186,7,AZ,1,100,0.805
1570469580.237842,237501.000,41186,7,AZ,1,100,0.784
1570469580.254436,237514.000,41186,7,AZ,1,100,0.742
1570469580.271031,237527.000,41186,7,AZ,1,100,0.742
1570469580.287626,237540.000,41204,8,AZ,1,100,0.761
1570469580.304220,237553.000,41204,8,AZ,1,100,0.799
1570469580.320814,237566.000,41204,8,AZ,1,100,0.806
1570469580.337409,237579.000,41204,8,AZ,1,100,0.797
1570469580.354003,237592.000,41204,8,AZ,1,100,0.784
1570469580.370598,237605.000,41204,8,AZ,1,100,0.796
1570469580.387192,237618.000,41204,8,AZ,1,100,0.756
1570469580.403787,237631.000,41204,8,AZ,1,100,0.760
1570469580.420381,237644.000,41222,8,AZ,1,100,0.774
1570469580.436976,237657.000,41222,8,AZ,1,100,0.795
1570469580.453570,237670.000,41222,8,AZ,1,100,0.798
1570469580.470165,237683.000,41222,8,AZ,1,100,0.799
1570469580.486759,237696.000,41222,8,AZ,1,100,0.788
1570469580.503354,237709.000,41222,8,AZ,1,100,0.787
1570469580.519948,237722.000,41222,8,AZ,1,100,0.793
1570469580.536543,237735.000,41222,8,AZ,1,100,0.819
1570469580.553137,237748.000,41240,8,AZ,1,100,0.825
1570469580.569732,237761.000,41240,8,AZ,1,100,0.836
1570469580.586326,237774.000,41240,8,AZ,1,100,0.826
1570469580.602921,237787.000,41240,8,AZ,1,100,0.819
1570469580.619515,237800.000,41240,8,AZ,1,100,0.803
1570469580.636110,237813.000,41240,8,AZ,1,100,0.786
1570469580.652704,237826.000,41240,8,AZ,1,100,0.806
1570469580.669299,237839.000,41240,8,AZ,1,100,0.820
1570469580.685893,237852.000,41259,7,AZ,1,100,0.830
1570469580.702488,237865.000,41259,7,AZ,1,100,0.830
1570469580.719082,237878.000,41259,7,AZ,1,100,0.822
1570469580.735677,237891.000,41259,7,AZ,1,100,0.821
1570469580.752271,237904.000,41259,7,AZ,1,100,0.830
1570469580.768866,237917.000,41259,7,AZ,1,100,0.812
1570469580.785460,237930.000,41259,7,AZ,1,100,0.810
1570469580.802214,237943.125,41277,8,AZ,1,100,0.799
1570469580.818969,237956.250,41277,8,AZ,1,100,0.807
1570469580.835722,237969.375,41277,8,AZ,1,100,0.819
1570469580.852477,237982.500,41277,8,AZ,1,100,0.821
1570469580.869231,237995.625,41277,8,AZ,1,100,0.832
1570469580.885985,238008.750,41277,8,AZ,1,100,0.827
1570469580.902739,238021.875,41277,8,AZ,1,100,0.820
1570469580.919493,238035.000,41277,8,AZ,1,100,0.807
1570469580.936566,238048.375,41295,8,AZ,1,100,0.807
1570469580.953639,238061.750,41295,8,AZ,1,100,0.828
1570469580.970712,238075.125,41295,8,AZ,1,100,0.834
1570469580.987786,238088.500,41295,8,AZ,1,100,0.826
1570469581.004859,238101.875,41295,8,AZ,1,100,0.810
1570469581.021932,238115.250,41295,8,AZ,1,100,0.805
1570469581.039005,238128.625,41295,8,AZ,1,100,0.808
1570469581.056078,238142.000,41295,8,AZ,1,100,0.811
1570469581.072673,238155.000,41313,8,AZ,1,100,0.804
1570469581.089267,238168.000,41313,8,AZ,1,100,0.813
1570469581.105862,238181.000,41313,8,AZ,1,100,0.815
1570469581.122456,238194.000,41313,8,AZ,1,100,0.813
1570469581.139051,238207.000,41313,8,AZ,1,100,0.819
1570469581.155645,238220.000,41313,8,AZ,1,100,0.820
1570469581.172240,238233.000,41313,8,AZ,1,100,0.813
1570469581.188834,238246.000,41313,8,AZ,1,100,0.816
1570469581.205246,238258.857,41331,7,AZ,1,100,0.808
1570469581.221658,238271.714,41331,7,AZ,1,100,0.809
1570469581.238071,238284.571,41331,7,AZ,1,100,0.811
1570469581.254483,238297.429,41331,7,AZ,1,100,0.823
1570469581.270895,238310.286,41331,7,AZ,1,100,0.821
1570469581.287307,238323.143,41331,7,AZ,1,100,0.812
1570469581.303719,238336.000,41331,7,AZ,1,100,0.807
1570469581.320314,238349.000,41349,8,AZ,1,100,0.804
1570469581.336908,238362.000,41349,8,AZ,1,100,0.803
1570469581.353503,238375.000,41349,8,AZ,1,100,0.779
1570469581.370097,238388.000,41349,8,AZ,1,100,0.801
1570469581.386692,238401.000,41349,8,AZ,1,100,0.807
1570469581.403286,238414.000,41349,8,AZ,1,100,0.817
1570469581.419881,238427.000,41349,8,AZ,1,100,0.802
1570469581.436475,238440.000,41349,8,AZ,1,100,0.780
1570469581.453070,238453.000,41367,8,AZ,1,100,0.787
1570469581.469664,238466.000,41367,8,AZ,1,100,0.789
1570469581.486259,238479.000,41367,8,AZ,1,100,0.792
1570469581.502853,238492.000,41367,8,AZ,1,100,0.800
1570469581.519448,238505.000,41367,8,AZ,1,100,0.806
1570469581.536042,238518.000,41367,8,AZ,1,100,0.809
1570469581.552637,238531.000,41367,8,AZ,1,100,0.803
1570469581.569231,238544.000,41367,8,AZ,1,100,0.797
1570469581.585506,238556.750,41385,8,AZ,1,100,0.804
1570469581.601782,238569.500,41385,8,AZ,1,100,0.811
1570469581.618057,238582.250,41385,8,AZ,1,100,0.821
1570469581.634333,238595.000,41385,8,AZ,1,100,0.827
1570469581.650608,238607.750,41385,8,AZ,1,100,0.825
1570469581.666883,238620.500,41385,8,AZ,1,100,0.811
1570469581.683159,238633.250,41385,8,AZ,1,100,0.805
1570469581.699434,238646.000,41385,8,AZ,1,100,0.801
1570469581.716211,238659.143,41404,7,AZ,1,100,0.805
1570469581.732988,238672.286,41404,7,AZ,1,100,0.817
1570469581.749765,238685.429,41404,7,AZ,1,100,0.829
1570469581.766541,238698.571,41404,7,AZ,1,100,0.824
1570469581.783318,238711.714,41404,7,AZ,1,100,0.809
1570469581.800095,238724.857,41404,7,AZ,1,100,0.802
1570469581.816872,238738.000,41404,7,AZ,1,100,0.796
1570469581.833467,238751.000,41422,8,AZ,1,100,0.801
1570469581.850061,238764.000,41422,8,AZ,1,100,0.814
1570469581.866656,238777.000,41422,8,AZ,1,100,0.818
1570469581.883250,238790.000,41422,8,AZ,1,100,0.808
1570469581.899844,238803.000,41422,8,AZ,1,100,0.777
1570469581.916439,238816.000,41422,8,AZ,1,100,0.760
1570469581.933033,238829.000,41422,8,AZ,1,100,0.774
1570469581.949628,238842.000,41422,8,AZ,1,100,0.804
1570469581.966382,238855.125,41439,8,AZ,1,100,0.822
1570469581.983136,238868.250,41439,8,AZ,1,100,0.825
1570469581.999890,238881.375,41439,8,AZ,1,100,0.806
1570469582.016644,238894.500,41439,8,AZ,1,100,0.778
1570469582.033398,238907.625,41439,8,AZ,1,100,0.792
1570469582.050152,238920.750,41439,8,AZ,1,100,0.805
1570469582.066906,238933.875,41439,8,AZ,1,100,0.816
1570469582.083660,238947.000,41439,8,AZ,1,100,0.825
1570469582.100415,238960.125,41457,8,AZ,1,100,0.803
1570469582.117169,238973.250,41457,8,AZ,1,100,0.808
1570469582.133923,238986.375,41457,8,AZ,1,100,0.799
1570469582.150677,238999.500,41457,8,AZ,1,100,0.810
1570469582.167431,239012.625,41457,8,AZ,1,100,0.815
1570469582.184185,239025.750,41457,8,AZ,1,100,0.815
1570469582.200939,239038.875,41457,8,AZ,1,100,0.807
1570469582.217693,239052.000,41457,8,AZ,1,100,0.801
1570469582.234105,239064.857,41475,7,AZ,1,100,0.791
1570469582.250517,239077.714,41475,7,AZ,1,100,0.778
1570469582.266929,239090.571,41475,7,AZ,1,100,0.784
1570469582.283341,239103.429,41475,7,AZ,1,100,0.788
1570469582.299754,239116.286,41475,7,AZ,1,100,0.792
1570469582.316166,239129.143,41475,7,AZ,1,100,0.797
1570469582.332578,239142.000,41475,7,AZ,1,100,0.795
1570469582.349013,239154.875,41493,8,AZ,1,100,0.791
1570469582.365448,239167.750,41493,8,AZ,1,100,0.785
1570469582.381883,239180.625,41493,8,AZ,1,100,0.793
1570469582.398318,239193.500,41493,8,AZ,1,100,0.799
1570469582.414752,239206.375,41493,8,AZ,1,100,0.810
1570469582.431187,239219.250,41493,8,AZ,1,100,0.817
1570469582.447623,239232.125,41493,8,AZ,1,100,0.816
1570469582.464057,239245.000,41493,8,AZ,1,100,0.813
1570469582.480652,239258.000,41511,8,AZ,1,100,0.808
1570469582.497246,239271.000,41511,8,AZ,1,100,0.810
1570469582.513841,239284.000,41511,8,AZ,1,100,0.816
1570469582.530435,239297.000,41511,8,AZ,1,100,0.813
1570469582.547030,239310.000,41511,8,AZ,1,100,0.811
1570469582.563624,239323.000,41511,8,AZ,1,100,0.803
1570469582.580219,239336.000,41511,8,AZ,1,100,0.808
1570469582.596813,239349.000,41511,8,AZ,1,100,0.803
1570469582.613567,239362.125,41529,8,AZ,1,100,0.803
1570469582.630322,239375.250,41529,8,AZ,1,100,0.809
1570469582.647075,239388.375,41529,8,AZ,1,100,0.798
1570469582.663830,239401.500,41529,8,AZ,1,100,0.792
1570469582.680584,239414.625,41529,8,AZ,1,100,0.796
1570469582.697338,239427.750,41529,8,AZ,1,100,0.804
1570469582.714092,239440.875,41529,8,AZ,1,100,0.804
1570469582.730846,239454.000,41529,8,AZ,1,100,0.797
1570469582.747440,239467.000,41548,8,AZ,1,100,0.793
1570469582.764035,239480.000,41548,8,AZ,1,100,0.806
1570469582.780629,239493.000,41548,8,AZ,1,100,0.809
1570469582.797224,239506.000,41548,8,AZ,1,100,0.820
1570469582.813818,239519.000,41548,8,AZ,1,100,0.816
1570469582.830413,239532.000,41548,8,AZ,1,100,0.813
1570469582.847007,239545.000,41548,8,AZ,1,100,0.800
1570469582.863602,239558.000,41548,8,AZ,1,100,0.795
1570469582.880379,239571.143,41566,7,AZ,1,100,0.804
1570469582.897156,239584.286,41566,7,AZ,1,100,0.807
1570469582.913932,239597.429,41566,7,AZ,1,100,0.800
1570469582.930709,239610.571,41566,7,AZ,1,100,0.804
1570469582.947486,239623.714,41566,7,AZ,1,100,0.802
1570469582.964263,239636.857,41566,7,AZ,1,100,0.800
1570469582.981040,239650.000,41566,7,AZ,1,100,0.800
1570469582.998113,239663.375,41582,8,AZ,1,100,0.801
1570469583.015186,239676.750,41582,8,AZ,1,100,0.792
1570469583.032259,239690.125,41582,8,AZ,1,100,0.794
1570469583.049332,239703.500,41582,8,AZ,1,100,0.791
1570469583.066406,239716.875,41582,8,AZ,1,100,0.799
1570469583.083479,239730.250,41582,8,AZ,1,100,0.794
1570469583.100552,239743.625,41582,8,AZ,1,100,0.779
1570469583.117625,239757.000,41582,8,AZ,1,100,0.784
1570469583.134220,239770.000,41600,7,AZ,1,100,0.784
1570469583.150814,239783.000,41600,7,AZ,1,100,0.795
1570469583.167409,239796.000,41600,7,AZ,1,100,0.790
1570469583.184003,239809.000,41600,7,AZ,1,100,0.785
1570469583.200598,239822.000,41600,7,AZ,1,100,0.794
1570469583.217192,239835.000,41600,7,AZ,1,100,0.799
1570469583.233787,239848.000,41600,7,AZ,1,100,0.821
1570469583.250700,239861.250,41618,8,AZ,1,100,0.846
1570469583.267614,239874.500,41618,8,AZ,1,100,0.840
1570469583.284528,239887.750,41618,8,AZ,1,100,0.823
1570469583.301441,239901.000,41618,8,AZ,1,100,0.828
1570469583.318355,239914.250,41618,8,AZ,1,100,0.842
1570469583.335268,239927.500,41618,8,AZ,1,100,0.833
1570469583.352182,239940.750,41618,8,AZ,1,100,0.838
1570469583.369096,239954.000,41618,8,AZ,1,100,0.833
1570469583.385690,239967.000,41636,8,AZ,1,100,0.840
1570469583.402285,239980.000,41636,8,AZ,1,100,0.833
1570469583.418879,239993.000,41636,8,AZ,1,100,0.824
1570469583.435474,240006.000,41636,8,AZ,1,100,0.803
1570469583.452068,240019.000,41636,8,AZ,1,100,0.799
1570469583.468663,240032.000,41636,8,AZ,1,100,0.793
1570469583.485257,240045.000,41636,8,AZ,1,100,0.796
1570469583.501852,240058.000,41636,8,AZ,1,100,0.809
1570469583.518446,240071.000,41654,8,AZ,1,100,0.803
1570469583.535041,240084.000,41654,8,AZ,1,100,0.796
1570469583.551635,240097.000,41654,8,AZ,1,100,0.786
1570469583.568230,240110.000,41654,8,AZ,1,100,0.799
1570469583.584824,240123.000,41654,8,AZ,1,100,0.818
1570469583.601418,240136.000,41654,8,AZ,1,100,0.815
1570469583.618013,240149.000,41654,8,AZ,1,100,0.808
1570469583.634608,240162.000,41654,8,AZ,1,100,0.802
1570469583.651202,240175.000,41672,7,AZ,1,100,0.792
1570469583.667797,240188.000,41672,7,AZ,1,100,0.787
1570469583.684391,240201.000,41672,7,AZ,1,100,0.779
1570469583.700985,240214.000,41672,7,AZ,1,100,0.793
1570469583.717580,240227.000,41672,7,AZ,1,100,0.801
1570469583.734174,240240.000,41672,7,AZ,1,100,0.795
1570469583.750769,240253.000,41672,7,AZ,1,100,0.790
1570469583.767523,240266.125,41691,8,AZ,1,100,0.787
1570469583.784277,240279.250,41691,8,AZ,1,100,0.784
1570469583.801031,240292.375,41691,8,AZ,1,100,0.803
1570469583.817785,240305.500,41691,8,AZ,1,100,0.819
1570469583.834539,240318.625,41691,8,AZ,1,100,0.806
1570469583.851293,240331.750,41691,8,AZ,1,100,0.808
1570469583.868047,240344.875,41691,8,AZ,1,100,0.816
1570469583.884801,240358.000,41691,8,AZ,1,100,0.815
1570469583.901556,240371.125,41709,8,AZ,1,100,0.817
1570469583.918310,240384.250,41709,8,AZ,1,100,0.822
1570469583.935064,240397.375,41709,8,AZ,1,100,0.809
1570469583.951818,240410.500,41709,8,AZ,1,100,0.795
1570469583.968572,240423.625,41709,8,AZ,1,100,0.785
1570469583.985326,240436.750,41709,8,AZ,1,100,0.779
1570469584.002080,240449.875,41709,8,AZ,1,100,0.771
1570469584.018834,240463.000,41709,8,AZ,1,100,0.783
1570469584.035588,240476.125,41727,8,AZ,1,100,0.786
1570469584.052342,240489.250,41727,8,AZ,1,100,0.829
1570469584.069096,240502.375,41727,8,AZ,1,100,0.807
1570469584.085850,240515.500,41727,8,AZ,1,100,0.794
1570469584.102604,240528.625,41727,8,AZ,1,100,0.787
1570469584.119358,240541.750,41727,8,AZ,1,100,0.789
1570469584.136112,240554.875,41727,8,AZ,1,100,0.813
1570469584.152866,240568.000,41727,8,AZ,1,100,0.829
1570469584.169461,240581.000,41745,7,AZ,1,100,0.831
1570469584.186055,240594.000,41745,7,AZ,1,100,0.831
1570469584.202650,240607.000,41745,7,AZ,1,100,0.817
1570469584.219244,240620.000,41745,7,AZ,1,100,0.798
1570469584.235839,240633.000,41745,7,AZ,1,100,0.779
1570469584.252433,240646.000,41745,7,AZ,1,100,0.783
1570469584.269028,240659.000,41745,7,AZ,1,100,0.785
1570469584.285917,240672.231,41766,13,AZ,1,100,0.799
1570469584.302806,240685.462,41766,13,AZ,1,100,0.811
1570469584.319695,240698.692,41766,13,AZ,1,100,0.800
1570469584.336584,240711.923,41766,13,AZ,1,100,0.792
1570469584.353473,240725.154,41766,13,AZ,1,100,0.793
1570469584.370362,240738.385,41766,13,AZ,1,100,0.789
1570469584.387251,240751.615,41766,13,AZ,1,100,0.795
1570469584.404140,240764.846,41766,13,AZ,1,100,0.806
1570469584.421030,240778.077,41766,13,AZ,1,100,0.801
1570469584.437919,240791.308,41766,13,AZ,1,100,0.786
1570469584.454808,240804.538,41766,13,AZ,1,100,0.795
1570469584.471697,240817.769,41766,13,AZ,1,100,0.810
1570469584.488586,240831.000,41766,13,AZ,1,100,0.824
1570469584.504816,240843.714,41786,7,AZ,1,100,0.829
1570469584.521045,240856.429,41786,7,AZ,1,100,0.820
1570469584.537275,240869.143,41786,7,AZ,1,100,0.817
1570469584.553505,240881.857,41786,7,AZ,1,100,0.813
1570469584.569735,240894.571,41786,7,AZ,1,100,0.810
1570469584.585964,240907.286,41786,7,AZ,1,100,0.813
1570469584.602194,240920.000,41786,7,AZ,1,100,0.801
1570469584.618789,240933.000,41804,8,AZ,1,100,0.810
1570469584.635383,240946.000,41804,8,AZ,1,100,0.812
1570469584.651978,240959.000,41804,8,AZ,1,100,0.793
1570469584.668572,240972.000,41804,8,AZ,1,100,0.792
1570469584.685167,240985.000,41804,8,AZ,1,100,0.794
1570469584.701761,240998.000,41804,8,AZ,1,100,0.797
1570469584.718356,241011.000,41804,8,AZ,1,100,0.810
1570469584.734950,241024.000,41804,8,AZ,1,100,0.815
1570469584.751226,241036.750,41823,8,AZ,1,100,0.807
1570469584.767501,241049.500,41823,8,AZ,1,100,0.807
1570469584.783776,241062.250,41823,8,AZ,1,100,0.789
1570469584.800052,241075.000,41823,8,AZ,1,100,0.785
1570469584.816327,241087.750,41823,8,AZ,1,100,0.801
1570469584.832603,241100.500,41823,8,AZ,1,100,0.817
1570469584.848878,241113.250,41823,8,AZ,1,100,0.819
1570469584.865153,241126.000,41823,8,AZ,1,100,0.818
1570469584.881907,241139.125,41841,8,AZ,1,100,0.791
1570469584.898661,241152.250,41841,8,AZ,1,100,0.784
1570469584.915416,241165.375,41841,8,AZ,1,100,0.796
1570469584.932169,241178.500,41841,8,AZ,1,100,0.799
1570469584.948924,241191.625,41841,8,AZ,1,100,0.827
1570469584.965677,241204.750,41841,8,AZ,1,100,0.826
1570469584.982432,241217.875,41841,8,AZ,1,100,0.818
1570469584.999186,241231.000,41841,8,AZ,1,100,0.799
1570469585.015963,241244.143,41859,7,AZ,1,100,0.807
1570469585.032739,241257.286,41859,7,AZ,1,100,0.802
1570469585.049516,241270.429,41859,7,AZ,1,100,0.802
1570469585.066293,241283.571,41859,7,AZ,1,100,0.801
1570469585.083070,241296.714,41859,7,AZ,1,100,0.804
1570469585.099847,241309.857,41859,7,AZ,1,100,0.803
1570469585.116624,241323.000,41859,7,AZ,1,100,0.792
1570469585.133378,241336.125,41876,8,AZ,1,100,0.788
1570469585.150132,241349.250,41876,8,AZ,1,100,0.789
1570469585.166886,241362.375,41876,8,AZ,1,100,0.792
1570469585.183640,241375.500,41876,8,AZ,1,100,0.793
1570469585.200394,241388.625,41876,8,AZ,1,100,0.796
1570469585.217148,241401.750,41876,8,AZ,1,100,0.802
1570469585.233902,241414.875,41876,8,AZ,1,100,0.801
1570469585.250656,241428.000,41876,8,AZ,1,100,0.795
1570469585.267410,241441.125,41893,8,AZ,1,100,0.794
1570469585.284164,241454.250,41893,8,AZ,1,100,0.802
1570469585.300918,241467.375,41893,8,AZ,1,100,0.802
1570469585.317672,241480.500,41893,8,AZ,1,100,0.799
1570469585.334426,241493.625,41893,8,AZ,1,100,0.791
1570469585.351181,241506.750,41893,8,AZ,1,100,0.782
1570469585.367934,241519.875,41893,8,AZ,1,100,0.784
1570469585.384689,241533.000,41893,8,AZ,1,100,0.783
1570469585.401101,241545.857,41911,7,AZ,1,100,0.785
1570469585.417513,241558.714,41911,7,AZ,1,100,0.785
1570469585.433925,241571.571,41911,7,AZ,1,100,0.787
1570469585.450337,241584.429,41911,7,AZ,1,100,0.794
1570469585.466749,241597.286,41911,7,AZ,1,100,0.792
1570469585.483161,241610.143,41911,7,AZ,1,100,0.788
1570469585.499573,241623.000,41911,7,AZ,1,100,0.774
1570469585.516168,241636.000,41929,8,AZ,1,100,0.797
1570469585.532763,241649.000,41929,8,AZ,1,100,0.806
1570469585.549357,241662.000,41929,8,AZ,1,100,0.823
1570469585.565952,241675.000,41929,8,AZ,1,100,0.814
1570469585.582546,241688.000,41929,8,AZ,1,100,0.799
1570469585.599141,241701.000,41929,8,AZ,1,100,0.790
1570469585.615735,241714.000,41929,8,AZ,1,100,0.807
1570469585.632329,241727.000,41929,8,AZ,1,100,0.807
1570469585.649084,241740.125,41947,8,AZ,1,100,0.786
1570469585.665838,241753.250,41947,8,AZ,1,100,0.795
1570469585.682592,241766.375,41947,8,AZ,1,100,0.793
1570469585.699346,241779.500,41947,8,AZ,1,100,0.799
1570469585.716100,241792.625,41947,8,AZ,1,100,0.793
1570469585.732854,241805.750,41947,8,AZ,1,100,0.798
1570469585.749608,241818.875,41947,8,AZ,1,100,0.805
1570469585.766362,241832.000,41947,8,AZ,1,100,0.799
1570469585.782797,241844.875,41966,8,AZ,1,100,0.782
1570469585.799232,241857.750,41966,8,AZ,1,100,0.783
1570469585.815667,241870.625,41966,8,AZ,1,100,0.792
1570469585.832102,241883.500,41966,8,AZ,1,100,0.810
1570469585.848537,241896.375,41966,8,AZ,1,100,0.819
1570469585.864972,241909.250,41966,8,AZ,1,100,0.816
1570469585.881407,241922.125,41966,8,AZ,1,100,0.797
1570469585.897841,241935.000,41966,8,AZ,1,100,0.786
1570469585.914755,241948.250,41984,8,AZ,1,100,0.770
1570469585.931669,241961.500,41984,8,AZ,1,100,0.787
1570469585.948582,241974.750,41984,8,AZ,1,100,0.806
1570469585.965496,241988.000,41984,8,AZ,1,100,0.816
1570469585.982409,242001.250,41984,8,AZ,1,100,0.795
1570469585.999323,242014.500,41984,8,AZ,1,100,0.792
1570469586.016237,242027.750,41984,8,AZ,1,100,0.802
1570469586.033150,242041.000,41984,8,AZ,1,100,0.814
1570469586.049927,242054.143,42002,7,AZ,1,100,0.802
1570469586.066704,242067.286,42002,7,AZ,1,100,0.801
1570469586.083481,242080.429,42002,7,AZ,1,100,0.795
1570469586.100258,242093.571,42002,7,AZ,1,100,0.792
1570469586.117035,242106.714,42002,7,AZ,1,100,0.794
1570469586.133811,242119.857,42002,7,AZ,1,100,0.798
1570469586.150589,242133.000,42002,7,AZ,1,100,0.800
1570469586.167502,242146.250,42020,8,AZ,1,100,0.789
1570469586.184416,242159.500,42020,8,AZ,1,100,0.799
1570469586.201329,242172.750,42020,8,AZ,1,100,0.793
1570469586.218243,242186.000,42020,8,AZ,1,100,0.789
1570469586.235157,242199.250,42020,8,AZ,1,100,0.785
1570469586.252070,242212.500,42020,8,AZ,1,100,0.785
1570469586.268984,242225.750,42020,8,AZ,1,100,0.794
1570469586.285897,242239.000,42020,8,AZ,1,100,0.794
1570469586.302492,242252.000,42038,7,AZ,1,100,0.803
1570469586.319086,242265.000,42038,7,AZ,1,100,0.799
1570469586.335681,242278.000,42038,7,AZ,1,100,0.799
1570469586.352275,242291.000,42038,7,AZ,1,100,0.812
1570469586.368870,242304.000,42038,7,AZ,1,100,0.792
1570469586.385464,242317.000,42038,7,AZ,1,100,0.796
1570469586.402059,242330.000,42038,7,AZ,1,100,0.787
1570469586.418813,242343.125,42056,8,AZ,1,100,0.801
1570469586.435567,242356.250,42056,8,AZ,1,100,0.796
1570469586.452321,242369.375,42056,8,AZ,1,100,0.792
1570469586.469075,242382.500,42056,8,AZ,1,100,0.802
1570469586.485829,242395.625,42056,8,AZ,1,100,0.811
1570469586.502583,242408.750,42056,8,AZ,1,100,0.796
1570469586.519337,242421.875,42056,8,AZ,1,100,0.808
1570469586.536091,242435.000,42056,8,AZ,1,100,0.801
1570469586.552686,242448.000,42074,8,AZ,1,100,0.806
1570469586.569280,242461.000,42074,8,AZ,1,100,0.794
1570469586.585875,242474.000,42074,8,AZ,1,100,0.798
1570469586.602469,242487.000,42074,8,AZ,1,100,0.798
1570469586.619064,242500.000,42074,8,AZ,1,100,0.817
1570469586.635658,242513.000,42074,8,AZ,1,100,0.810
1570469586.652253,242526.000,42074,8,AZ,1,100,0.802
1570469586.668847,242539.000,42074,8,AZ,1,100,0.793
1570469586.685442,242552.000,42092,8,AZ,1,100,0.780
1570469586.702036,242565.000,42092,8,AZ,1,100,0.784
1570469586.718631,242578.000,42092,8,AZ,1,100,0.801
1570469586.735225,242591.000,42092,8,AZ,1,100,0.810
1570469586.751820,242604.000,42092,8,AZ,1,100,0.812
1570469586.768414,242617.000,42092,8,AZ,1,100,0.811
1570469586.785009,242630.000,42092,8,AZ,1,100,0.809
1570469586.801603,242643.000,42092,8,AZ,1,100,0.793
1570469586.818198,242656.000,42111,8,AZ,1,100,0.800
1570469586.834792,242669.000,42111,8,AZ,1,100,0.812
1570469586.851387,242682.000,42111,8,AZ,1,100,0.813
1570469586.867981,242695.000,42111,8,AZ,1,100,0.812
1570469586.884576,242708.000,42111,8,AZ,1,100,0.801
1570469586.901170,242721.000,42111,8,AZ,1,100,0.793
1570469586.917765,242734.000,42111,8,AZ,1,100,0.787
1570469586.934359,242747.000,42111,8,AZ,1,100,0.797
1570469586.950954,242760.000,42129,8,AZ,1,100,0.791
1570469586.967548,242773.000,42129,8,AZ,1,100,0.802
1570469586.984143,242786.000,42129,8,AZ,1,100,0.806
1570469587.000737,242799.000,42129,8,AZ,1,100,0.786
1570469587.017332,242812.000,42129,8,AZ,1,100,0.783
1570469587.033926,242825.000,42129,8,AZ,1,100,0.799
1570469587.050521,242838.000,42129,8,AZ,1,100,0.796
1570469587.067115,242851.000,42129,8,AZ,1,100,0.804
1570469587.084074,242864.286,42147,7,AZ,1,100,0.802
1570469587.101034,242877.571,42147,7,AZ,1,100,0.810
1570469587.117993,242890.857,42147,7,AZ,1,100,0.798
1570469587.134952,242904.143,42147,7,AZ,1,100,0.804
1570469587.151911,242917.429,42147,7,AZ,1,100,0.809
1570469587.168870,242930.714,42147,7,AZ,1,100,0.806
1570469587.185830,242944.000,42147,7,AZ,1,100,0.805
1570469587.202584,242957.125,42165,8,AZ,1,100,0.801
1570469587.219338,242970.250,42165,8,AZ,1,100,0.803
1570469587.236092,242983.375,42165,8,AZ,1,100,0.797
1570469587.252846,242996.500,42165,8,AZ,1,100,0.796
1570469587.269600,243009.625,42165,8,AZ,1,100,0.784
1570469587.286354,243022.750,42165,8,AZ,1,100,0.796
1570469587.303108,243035.875,42165,8,AZ,1,100,0.796
1570469587.319862,243049.000,42165,8,AZ,1,100,0.797
1570469587.336639,243062.143,42183,7,AZ,1,100,0.796
1570469587.353416,243075.286,42183,7,AZ,1,100,0.804
1570469587.370193,243088.429,42183,7,AZ,1,100,0.799
1570469587.386970,243101.571,42183,7,AZ,1,100,0.786
1570469587.403746,243114.714,42183,7,AZ,1,100,0.796
1570469587.420523,243127.857,42183,7,AZ,1,100,0.804
1570469587.437300,243141.000,42183,7,AZ,1,100,0.808
1570469587.454054,243154.125,42201,8,AZ,1,100,0.792
1570469587.470808,243167.250,42201,8,AZ,1,100,0.795
1570469587.487562,243180.375,42201,8,AZ,1,100,0.792
1570469587.504316,243193.500,42201,8,AZ,1,100,0.792
1570469587.521070,243206.625,42201,8,AZ,1,100,0.806
1570469587.537824,243219.750,42201,8,AZ,1,100,0.797
1570469587.554579,243232.875,42201,8,AZ,1,100,0.807
1570469587.571332,243246.000,42201,8,AZ,1,100,0.810
1570469587.587608,243258.750,42219,8,AZ,1,100,0.798
1570469587.603883,243271.500,42219,8,AZ,1,100,0.802
1570469587.620159,243284.250,42219,8,AZ,1,100,0.818
1570469587.636434,243297.000,42219,8,AZ,1,100,0.808
1570469587.652709,243309.750,42219,8,AZ,1,100,0.800
1570469587.668985,243322.500,42219,8,AZ,1,100,0.790
1570469587.685260,243335.250,42219,8,AZ,1,100,0.785
1570469587.701535,243348.000,42219,8,AZ,1,100,0.795
1570469587.718130,243361.000,42237,8,AZ,1,100,0.798
1570469587.734725,243374.000,42237,8,AZ,1,100,0.792
1570469587.751319,243387.000,42237,8,AZ,1,100,0.796
1570469587.767914,243400.000,42237,8,AZ,1,100,0.798
1570469587.784508,243413.000,42237,8,AZ,1,100,0.789
1570469587.801102,243426.000,42237,8,AZ,1,100,0.792
1570469587.817697,243439.000,42237,8,AZ,1,100,0.794
1570469587.834291,243452.000,42237,8,AZ,1,100,0.804
1570469587.850886,243465.000,42256,8,AZ,1,100,0.802
1570469587.867481,243478.000,42256,8,AZ,1,100,0.805
1570469587.884075,243491.000,42256,8,AZ,1,100,0.797
1570469587.900669,243504.000,42256,8,AZ,1,100,0.795
1570469587.917264,243517.000,42256,8,AZ,1,100,0.792
1570469587.933858,243530.000,42256,8,AZ,1,100,0.791
1570469587.950453,243543.000,42256,8,AZ,1,100,0.804
1570469587.967047,243556.000,42256,8,AZ,1,100,0.803
1570469587.983642,243569.000,42274,7,AZ,1,100,0.802
1570469588.000237,243582.000,42274,7,AZ,1,100,0.804
1570469588.016831,243595.000,42274,7,AZ,1,100,0.793
1570469588.033425,243608.000,42274,7,AZ,1,100,0.799
1570469588.050020,243621.000,42274,7,AZ,1,100,0.812
1570469588.066614,243634.000,42274,7,AZ,1,100,0.805
1570469588.083209,243647.000,42274,7,AZ,1,100,0.803
1570469588.099963,243660.125,42291,8,AZ,1,100,0.798
1570469588.116717,243673.250,42291,8,AZ,1,100,0.791
1570469588.133471,243686.375,42291,8,AZ,1,100,0.783
1570469588.150225,243699.500,42291,8,AZ,1,100,0.789
1570469588.166979,243712.625,42291,8,AZ,1,100,0.798
1570469588.183733,243725.750,42291,8,AZ,1,100,0.807
1570469588.200487,243738.875,42291,8,AZ,1,100,0.803
1570469588.217241,243752.000,42291,8,AZ,1,100,0.786
1570469588.233836,243765.000,42309,8,AZ,1,100,0.789
1570469588.250430,243778.000,42309,8,AZ,1,100,0.780
1570469588.267025,243791.000,42309,8,AZ,1,100,0.792
1570469588.283619,243804.000,42309,8,AZ,1,100,0.796
1570469588.300214,243817.000,42309,8,AZ,1,100,0.803
1570469588.316808,243830.000,42309,8,AZ,1,100,0.812
1570469588.333403,243843.000,42309,8,AZ,1,100,0.811
1570469588.349997,243856.000,42309,8,AZ,1,100,0.797
1570469588.366410,243868.857,42327,7,AZ,1,100,0.795
1570469588.382822,243881.714,42327,7,AZ,1,100,0.803
1570469588.399234,243894.571,42327,7,AZ,1,100,0.811
1570469588.415646,243907.429,42327,7,AZ,1,100,0.790
1570469588.432058,243920.286,42327,7,AZ,1,100,0.791
1570469588.448470,243933.143,42327,7,AZ,1,100,0.795
1570469588.464882,243946.000,42327,7,AZ,1,100,0.782
1570469588.481636,243959.125,42345,8,AZ,1,100,0.778
1570469588.498390,243972.250,42345,8,AZ,1,100,0.790
1570469588.515144,243985.375,42345,8,AZ,1,100,0.801
1570469588.531898,243998.500,42345,8,AZ,1,100,0.801
1570469588.548653,244011.625,42345,8,AZ,1,100,0.792
1570469588.565407,244024.750,42345,8,AZ,1,100,0.792
1570469588.582161,244037.875,42345,8,AZ,1,100,0.788
1570469588.598915,244051.000,42345,8,AZ,1,100,0.806
1570469588.615669,244064.125,42363,8,AZ,1,100,0.813
1570469588.632423,244077.250,42363,8,AZ,1,100,0.807
1570469588.649177,244090.375,42363,8,AZ,1,100,0.794
1570469588.665931,244103.500,42363,8,AZ,1,100,0.789
1570469588.682685,244116.625,42363,8,AZ,1,100,0.787
1570469588.699439,244129.750,42363,8,AZ,1,100,0.808
1570469588.716193,244142.875,42363,8,AZ,1,100,0.807
1570469588.732947,244156.000,42363,8,AZ,1,100,0.809
1570469588.749382,244168.875,42381,8,AZ,1,100,0.786
1570469588.765817,244181.750,42381,8,AZ,1,100,0.784
1570469588.782252,244194.625,42381,8,AZ,1,100,0.780
1570469588.798687,244207.500,42381,8,AZ,1,100,0.805
1570469588.815122,244220.375,42381,8,AZ,1,100,0.808
1570469588.831557,244233.250,42381,8,AZ,1,100,0.805
1570469588.847992,244246.125,42381,8,AZ,1,100,0.798
1570469588.864427,244259.000,42381,8,AZ,1,100,0.801
1570469588.881021,244272.000,42400,8,AZ,1,100,0.801
1570469588.897616,244285.000,42400,8,AZ,1,100,0.804
1570469588.914210,244298.000,42400,8,AZ,1,100,0.809
1570469588.930805,244311.000,42400,8,AZ,1,100,0.792
1570469588.947399,244324.000,42400,8,AZ,1,100,0.787
1570469588.963994,244337.000,42400,8,AZ,1,100,0.793
1570469588.980588,244350.000,42400,8,AZ,1,100,0.802
1570469588.997183,244363.000,42400,8,AZ,1,100,0.812
1570469589.014142,244376.286,42418,7,AZ,1,100,0.809
1570469589.031101,244389.571,42418,7,AZ,1,100,0.791
1570469589.048060,244402.857,42418,7,AZ,1,100,0.777
1570469589.065019,244416.143,42418,7,AZ,1,100,0.786
1570469589.081979,244429.429,42418,7,AZ,1,100,0.804
1570469589.098938,244442.714,42418,7,AZ,1,100,0.808
1570469589.115897,244456.000,42418,7,AZ,1,100,0.812
1570469589.132651,244469.125,42434,8,AZ,1,100,0.802
1570469589.149405,244482.250,42434,8,AZ,1,100,0.797
1570469589.166159,244495.375,42434,8,AZ,1,100,0.793
1570469589.182913,244508.500,42434,8,AZ,1,100,0.807
1570469589.199667,244521.625,42434,8,AZ,1,100,0.806
1570469589.216421,244534.750,42434,8,AZ,1,100,0.808
1570469589.233176,244547.875,42434,8,AZ,1,100,0.802
1570469589.249930,244561.000,42434,8,AZ,1,100,0.790
1570469589.266524,244574.000,42452,8,AZ,1,100,0.785
1570469589.283118,244587.000,42452,8,AZ,1,100,0.787
1570469589.299713,244600.000,42452,8,AZ,1,100,0.793
1570469589.316308,244613.000,42452,8,AZ,1,100,0.785
1570469589.332902,244626.000,42452,8,AZ,1,100,0.787
1570469589.349497,244639.000,42452,8,AZ,1,100,0.775
1570469589.366091,244652.000,42452,8,AZ,1,100,0.805
1570469589.382685,244665.000,42452,8,AZ,1,100,0.808
1570469589.399462,244678.143,42470,7,AZ,1,100,0.805
1570469589.416239,244691.286,42470,7,AZ,1,100,0.801
1570469589.433016,244704.429,42470,7,AZ,1,100,0.795
1570469589.449793,244717.571,42470,7,AZ,1,100,0.800
1570469589.466570,244730.714,42470,7,AZ,1,100,0.801
1570469589.483347,244743.857,42470,7,AZ,1,100,0.808
1570469589.500124,244757.000,42470,7,AZ,1,100,0.805
1570469589.517037,244770.250,42488,8,AZ,1,100,0.796
1570469589.533951,244783.500,42488,8,AZ,1,100,0.783
1570469589.550864,244796.750,42488,8,AZ,1,100,0.771
1570469589.567778,244810.000,42488,8,AZ,1,100,0.784
1570469589.584692,244823.250,42488,8,AZ,1,100,0.797
1570469589.601605,244836.500,42488,8,AZ,1,100,0.790
1570469589.618519,244849.750,42488,8,AZ,1,100,0.801
1570469589.635432,244863.000,42488,8,AZ,1,100,0.807
1570469589.652027,244876.000,42506,8,AZ,1,100,0.808
1570469589.668622,244889.000,42506,8,AZ,1,100,0.806
1570469589.685216,244902.000,42506,8,AZ,1,100,0.789
1570469589.701810,244915.000,42506,8,AZ,1,100,0.804
1570469589.718405,244928.000,42506,8,AZ,1,100,0.807
1570469589.734999,244941.000,42506,8,AZ,1,100,0.810
1570469589.751594,244954.000,42506,8,AZ,1,100,0.791
1570469589.768188,244967.000,42506,8,AZ,1,100,0.784
1570469589.784783,244980.000,42524,8,AZ,1,100,0.779
1570469589.801378,244993.000,42524,8,AZ,1,100,0.786
1570469589.817972,245006.000,42524,8,AZ,1,100,0.800
1570469589.834566,245019.000,42524,8,AZ,1,100,0.804
1570469589.851161,245032.000,42524,8,AZ,1,100,0.809
1570469589.867755,245045.000,42524,8,AZ,1,100,0.796
1570469589.884350,245058.000,42524,8,AZ,1,100,0.790
1570469589.900944,245071.000,42524,8,AZ,1,100,0.789
1570469589.917721,245084.143,42543,7,AZ,1,100,0.796
1570469589.934498,245097.286,42543,7,AZ,1,100,0.808
1570469589.951275,245110.429,42543,7,AZ,1,100,0.812
1570469589.968052,245123.571,42543,7,AZ,1,100,0.809
1570469589.984829,245136.714,42543,7,AZ,1,100,0.795
1570469590.001606,245149.857,42543,7,AZ,1,100,0.788
1570469590.018382,245163.000,42543,7,AZ,1,100,0.790
1570469590.034977,245176.000,42561,8,AZ,1,100,0.802
1570469590.051571,245189.000,42561,8,AZ,1,100,0.803
1570469590.068166,245202.000,42561,8,AZ,1,100,0.807
1570469590.084760,245215.000,42561,8,AZ,1,100,0.791
