EpochTimestamp,EmotiBitTimestamp,PacketNumber,DataLength,TypeTag,ProtocolVersion,DataReliability,GX
1570470239.593488,50860.000,8231,12,GX,1,100,29.968
1570470239.593488,50860.000,8231,12,GX,1,100,24.719
1570470239.593488,50860.000,8231,12,GX,1,100,24.261
1570470239.593488,50860.000,8231,12,GX,1,100,4.517
1570470239.593488,50860.000,8231,12,GX,1,100,-10.498
1570470239.593488,50860.000,8231,12,GX,1,100,-6.012
1570470239.593488,50860.000,8231,12,GX,1,100,11.230
1570470239.593488,50860.000,8231,12,GX,1,100,18.097
1570470239.593488,50860.000,8231,12,GX,1,100,12.299
1570470239.593488,50860.000,8231,12,GX,1,100,-1.221
1570470239.593488,50860.000,8231,12,GX,1,100,-3.662
1570470239.593488,50860.000,8231,12,GX,1,100,-1.892
1570470239.610263,50873.143,8249,7,GX,1,100,-2.869
1570470239.627038,50886.286,8249,7,GX,1,100,-9.399
1570470239.643814,50899.429,8249,7,GX,1,100,-12.543
1570470239.660589,50912.571,8249,7,GX,1,100,-26.337
1570470239.677364,50925.714,8249,7,GX,1,100,-26.245
1570470239.694139,50938.857,8249,7,GX,1,100,-27.069
1570470239.710915,50952.000,8249,7,GX,1,100,-35.950
1570470239.727508,50965.000,8267,8,GX,1,100,-43.793
1570470239.744101,50978.000,8267,8,GX,1,100,-45.868
1570470239.760694,50991.000,8267,8,GX,1,100,-33.173
1570470239.777287,51004.000,8267,8,GX,1,100,-29.816
1570470239.793880,51017.000,8267,8,GX,1,100,-15.656
1570470239.810472,51030.000,8267,8,GX,1,100,-11.108
1570470239.827065,51043.000,8267,8,GX,1,100,-7.996
1570470239.843658,51056.000,8267,8,GX,1,100,-4.944
1570470239.860251,51069.000,8285,8,GX,1,100,-9.003
1570470239.876844,51082.000,8285,8,GX,1,100,-11.200
1570470239.893437,51095.000,8285,8,GX,1,100,-17.365
1570470239.910030,51108.000,8285,8,GX,1,100,-21.515
1570470239.926623,51121.000,8285,8,GX,1,100,-14.648
1570470239.943216,51134.000,8285,8,GX,1,100,-8.118
1570470239.959809,51147.000,8285,8,GX,1,100,-13.184
1570470239.976402,51160.000,8285,8,GX,1,100,-18.005
1570470239.993177,51173.143,8303,7,GX,1,100,-28.687
1570470240.009953,51186.286,8303,7,GX,1,100,-33.661
1570470240.026728,51199.429,8303,7,GX,1,100,-28.564
1570470240.043503,51212.571,8303,7,GX,1,100,-13.702
1570470240.060279,51225.714,8303,7,GX,1,100,-20.996
1570470240.077054,51238.857,8303,7,GX,1,100,-36.957
1570470240.093829,51252.000,8303,7,GX,1,100,-83.313
1570470240.110422,51265.000,8321,8,GX,1,100,-102.631
1570470240.127015,51278.000,8321,8,GX,1,100,-123.535
1570470240.143608,51291.000,8321,8,GX,1,100,-115.509
1570470240.160201,51304.000,8321,8,GX,1,100,-80.688
1570470240.176794,51317.000,8321,8,GX,1,100,-22.980
1570470240.193387,51330.000,8321,8,GX,1,100,-82.947
1570470240.209980,51343.000,8321,8,GX,1,100,-111.176
1570470240.226573,51356.000,8321,8,GX,1,100,-131.012
1570470240.243325,51369.125,8339,8,GX,1,100,-92.102
1570470240.260078,51382.250,8339,8,GX,1,100,-51.056
1570470240.276830,51395.375,8339,8,GX,1,100,6.714
1570470240.293583,51408.500,8339,8,GX,1,100,-29.663
1570470240.310335,51421.625,8339,8,GX,1,100,-39.978
1570470240.327088,51434.750,8339,8,GX,1,100,-40.344
1570470240.343841,51447.875,8339,8,GX,1,100,-24.048
1570470240.360593,51461.000,8339,8,GX,1,100,18.585
1570470240.377186,51474.000,8358,7,GX,1,100,9.583
1570470240.393779,51487.000,8358,7,GX,1,100,1.312
1570470240.410372,51500.000,8358,7,GX,1,100,-16.510
1570470240.426965,51513.000,8358,7,GX,1,100,-45.471
1570470240.443558,51526.000,8358,7,GX,1,100,-59.113
1570470240.460151,51539.000,8358,7,GX,1,100,-53.009
1570470240.476744,51552.000,8358,7,GX,1,100,-60.577
1570470240.493656,51565.250,8376,8,GX,1,100,-41.840
1570470240.510568,51578.500,8376,8,GX,1,100,-40.985
1570470240.527480,51591.750,8376,8,GX,1,100,-38.086
1570470240.544392,51605.000,8376,8,GX,1,100,-31.921
1570470240.561304,51618.250,8376,8,GX,1,100,-8.575
1570470240.578216,51631.500,8376,8,GX,1,100,25.299
1570470240.595128,51644.750,8376,8,GX,1,100,41.626
1570470240.612040,51658.000,8376,8,GX,1,100,45.135
1570470240.628793,51671.125,8394,8,GX,1,100,47.394
1570470240.645545,51684.250,8394,8,GX,1,100,47.241
1570470240.662298,51697.375,8394,8,GX,1,100,36.957
1570470240.679050,51710.500,8394,8,GX,1,100,27.496
1570470240.695803,51723.625,8394,8,GX,1,100,19.379
1570470240.712555,51736.750,8394,8,GX,1,100,34.851
1570470240.729308,51749.875,8394,8,GX,1,100,29.449
1570470240.746060,51763.000,8394,8,GX,1,100,22.217
1570470240.762334,51775.750,8412,8,GX,1,100,2.289
1570470240.778608,51788.500,8412,8,GX,1,100,0.854
1570470240.794882,51801.250,8412,8,GX,1,100,-21.118
1570470240.811156,51814.000,8412,8,GX,1,100,-20.447
1570470240.827430,51826.750,8412,8,GX,1,100,-20.233
1570470240.843704,51839.500,8412,8,GX,1,100,-17.365
1570470240.859977,51852.250,8412,8,GX,1,100,-19.653
1570470240.876251,51865.000,8412,8,GX,1,100,-18.219
1570470240.892844,51878.000,8430,8,GX,1,100,-16.449
1570470240.909437,51891.000,8430,8,GX,1,100,-11.810
1570470240.926030,51904.000,8430,8,GX,1,100,4.425
1570470240.942623,51917.000,8430,8,GX,1,100,12.573
1570470240.959216,51930.000,8430,8,GX,1,100,4.669
1570470240.975809,51943.000,8430,8,GX,1,100,4.944
1570470240.992402,51956.000,8430,8,GX,1,100,14.679
1570470241.008995,51969.000,8430,8,GX,1,100,23.315
1570470241.025588,51982.000,8448,7,GX,1,100,29.144
1570470241.042181,51995.000,8448,7,GX,1,100,9.766
1570470241.058774,52008.000,8448,7,GX,1,100,-5.096
1570470241.075367,52021.000,8448,7,GX,1,100,-7.965
1570470241.091960,52034.000,8448,7,GX,1,100,-6.226
1570470241.108553,52047.000,8448,7,GX,1,100,0.397
1570470241.125145,52060.000,8448,7,GX,1,100,2.228
1570470241.141738,52073.000,8466,8,GX,1,100,-7.904
1570470241.158331,52086.000,8466,8,GX,1,100,-16.846
1570470241.174924,52099.000,8466,8,GX,1,100,-17.334
1570470241.191517,52112.000,8466,8,GX,1,100,-0.549
1570470241.208110,52125.000,8466,8,GX,1,100,11.688
1570470241.224703,52138.000,8466,8,GX,1,100,7.629
1570470241.241296,52151.000,8466,8,GX,1,100,0.977
1570470241.257889,52164.000,8466,8,GX,1,100,-9.216
1570470241.274482,52177.000,8484,8,GX,1,100,-2.197
1570470241.291075,52190.000,8484,8,GX,1,100,-0.305
1570470241.307668,52203.000,8484,8,GX,1,100,-3.967
1570470241.324261,52216.000,8484,8,GX,1,100,-6.958
1570470241.340854,52229.000,8484,8,GX,1,100,-6.012
1570470241.357447,52242.000,8484,8,GX,1,100,-1.892
1570470241.374040,52255.000,8484,8,GX,1,100,-8.850
1570470241.390633,52268.000,8484,8,GX,1,100,-15.717
1570470241.407226,52281.000,8503,8,GX,1,100,-14.160
1570470241.423819,52294.000,8503,8,GX,1,100,-5.493
1570470241.440412,52307.000,8503,8,GX,1,100,-0.580
1570470241.457005,52320.000,8503,8,GX,1,100,1.099
1570470241.473598,52333.000,8503,8,GX,1,100,-13.062
1570470241.490191,52346.000,8503,8,GX,1,100,-12.604
1570470241.506784,52359.000,8503,8,GX,1,100,-12.848
1570470241.523377,52372.000,8503,8,GX,1,100,-10.437
1570470241.539969,52385.000,8521,7,GX,1,100,-8.881
1570470241.556562,52398.000,8521,7,GX,1,100,-14.648
1570470241.573155,52411.000,8521,7,GX,1,100,-15.137
1570470241.589748,52424.000,8521,7,GX,1,100,-15.656
1570470241.606341,52437.000,8521,7,GX,1,100,-25.543
1570470241.622934,52450.000,8521,7,GX,1,100,-37.262
1570470241.639527,52463.000,8521,7,GX,1,100,-44.098
1570470241.656280,52476.125,8539,8,GX,1,100,-41.199
1570470241.673032,52489.250,8539,8,GX,1,100,-36.316
1570470241.689785,52502.375,8539,8,GX,1,100,-33.386
1570470241.706537,52515.500,8539,8,GX,1,100,-29.358
1570470241.723290,52528.625,8539,8,GX,1,100,-26.276
1570470241.740042,52541.750,8539,8,GX,1,100,-25.146
1570470241.756795,52554.875,8539,8,GX,1,100,-22.278
1570470241.773547,52568.000,8539,8,GX,1,100,-21.332
1570470241.789981,52580.875,8557,8,GX,1,100,-21.362
1570470241.806414,52593.750,8557,8,GX,1,100,-20.691
1570470241.822848,52606.625,8557,8,GX,1,100,-20.508
1570470241.839281,52619.500,8557,8,GX,1,100,-19.257
1570470241.855714,52632.375,8557,8,GX,1,100,-16.632
1570470241.872148,52645.250,8557,8,GX,1,100,-11.841
1570470241.888581,52658.125,8557,8,GX,1,100,-16.876
1570470241.905015,52671.000,8557,8,GX,1,100,-23.346
1570470241.921608,52684.000,8575,8,GX,1,100,-33.783
1570470241.938200,52697.000,8575,8,GX,1,100,-24.628
1570470241.954793,52710.000,8575,8,GX,1,100,-13.641
1570470241.971386,52723.000,8575,8,GX,1,100,-15.320
1570470241.987979,52736.000,8575,8,GX,1,100,-31.464
1570470242.004572,52749.000,8575,8,GX,1,100,-33.539
1570470242.021165,52762.000,8575,8,GX,1,100,-26.031
1570470242.037758,52775.000,8575,8,GX,1,100,-15.686
1570470242.054534,52788.143,8593,7,GX,1,100,-13.855
1570470242.071309,52801.286,8593,7,GX,1,100,-23.438
1570470242.088084,52814.429,8593,7,GX,1,100,-28.595
1570470242.104860,52827.571,8593,7,GX,1,100,-20.630
1570470242.121635,52840.714,8593,7,GX,1,100,-13.153
1570470242.138410,52853.857,8593,7,GX,1,100,2.441
1570470242.155185,52867.000,8593,7,GX,1,100,0.000
1570470242.171778,52880.000,8610,8,GX,1,100,-2.350
1570470242.188371,52893.000,8610,8,GX,1,100,15.808
1570470242.204964,52906.000,8610,8,GX,1,100,20.416
1570470242.221557,52919.000,8610,8,GX,1,100,26.642
1570470242.238150,52932.000,8610,8,GX,1,100,25.848
1570470242.254743,52945.000,8610,8,GX,1,100,17.426
1570470242.271336,52958.000,8610,8,GX,1,100,14.862
1570470242.287929,52971.000,8610,8,GX,1,100,16.418
1570470242.304841,52984.250,8629,8,GX,1,100,11.383
1570470242.321753,52997.500,8629,8,GX,1,100,-1.831
1570470242.338665,53010.750,8629,8,GX,1,100,-9.766
1570470242.355577,53024.000,8629,8,GX,1,100,-33.508
1570470242.372489,53037.250,8629,8,GX,1,100,-44.006
1570470242.389401,53050.500,8629,8,GX,1,100,-47.119
1570470242.406313,53063.750,8629,8,GX,1,100,-45.685
1570470242.423226,53077.000,8629,8,GX,1,100,-53.009
1570470242.439819,53090.000,8647,8,GX,1,100,-62.073
1570470242.456412,53103.000,8647,8,GX,1,100,-60.638
1570470242.473004,53116.000,8647,8,GX,1,100,-46.112
1570470242.489597,53129.000,8647,8,GX,1,100,-21.637
1570470242.506190,53142.000,8647,8,GX,1,100,-39.276
1570470242.522783,53155.000,8647,8,GX,1,100,-56.091
1570470242.539376,53168.000,8647,8,GX,1,100,-54.504
1570470242.555969,53181.000,8647,8,GX,1,100,-36.377
1570470242.572745,53194.143,8665,7,GX,1,100,-30.853
1570470242.589520,53207.286,8665,7,GX,1,100,-22.919
1570470242.606295,53220.429,8665,7,GX,1,100,-41.382
1570470242.623070,53233.571,8665,7,GX,1,100,-51.788
1570470242.639846,53246.714,8665,7,GX,1,100,-46.814
1570470242.656621,53259.857,8665,7,GX,1,100,-33.020
1570470242.673396,53273.000,8665,7,GX,1,100,-36.163
1570470242.690149,53286.125,8683,8,GX,1,100,-38.361
1570470242.706901,53299.250,8683,8,GX,1,100,-31.281
1570470242.723654,53312.375,8683,8,GX,1,100,-20.386
1570470242.740406,53325.500,8683,8,GX,1,100,-17.151
1570470242.757159,53338.625,8683,8,GX,1,100,-19.257
1570470242.773911,53351.750,8683,8,GX,1,100,-24.323
1570470242.790664,53364.875,8683,8,GX,1,100,-21.912
1570470242.807416,53378.000,8683,8,GX,1,100,-14.648
1570470242.824169,53391.125,8701,8,GX,1,100,-12.878
1570470242.840921,53404.250,8701,8,GX,1,100,-1.587
1570470242.857674,53417.375,8701,8,GX,1,100,10.376
1570470242.874426,53430.500,8701,8,GX,1,100,17.029
1570470242.891179,53443.625,8701,8,GX,1,100,42.480
1570470242.907932,53456.750,8701,8,GX,1,100,65.063
1570470242.924684,53469.875,8701,8,GX,1,100,119.415
1570470242.941437,53483.000,8701,8,GX,1,100,-217.438
1570470242.958394,53496.286,8718,7,GX,1,100,625.916
1570470242.975352,53509.571,8718,7,GX,1,100,-563.019
1570470242.992309,53522.857,8718,7,GX,1,100,-239.899
1570470243.009267,53536.143,8718,7,GX,1,100,-99.609
1570470243.026225,53549.429,8718,7,GX,1,100,187.225
1570470243.043182,53562.714,8718,7,GX,1,100,-47.302
1570470243.060140,53576.000,8718,7,GX,1,100,-70.618
1570470243.076414,53588.750,8736,8,GX,1,100,-31.067
1570470243.092688,53601.500,8736,8,GX,1,100,-70.282
1570470243.108962,53614.250,8736,8,GX,1,100,-70.587
1570470243.125235,53627.000,8736,8,GX,1,100,-7.904
1570470243.141509,53639.750,8736,8,GX,1,100,19.684
1570470243.157783,53652.500,8736,8,GX,1,100,68.390
1570470243.174057,53665.250,8736,8,GX,1,100,103.546
1570470243.190331,53678.000,8736,8,GX,1,100,364.716
1570470243.207083,53691.125,8753,8,GX,1,100,581.848
1570470243.223836,53704.250,8753,8,GX,1,100,-535.980
1570470243.240588,53717.375,8753,8,GX,1,100,-396.698
1570470243.257341,53730.500,8753,8,GX,1,100,149.872
1570470243.274093,53743.625,8753,8,GX,1,100,124.023
1570470243.290846,53756.750,8753,8,GX,1,100,-11.566
1570470243.307598,53769.875,8753,8,GX,1,100,-129.486
1570470243.324351,53783.000,8753,8,GX,1,100,-10.712
1570470243.341103,53796.125,8772,8,GX,1,100,-20.142
1570470243.357856,53809.250,8772,8,GX,1,100,-51.331
1570470243.374609,53822.375,8772,8,GX,1,100,-16.479
1570470243.391361,53835.500,8772,8,GX,1,100,-9.979
1570470243.408113,53848.625,8772,8,GX,1,100,-27.405
1570470243.424866,53861.750,8772,8,GX,1,100,28.076
1570470243.441618,53874.875,8772,8,GX,1,100,88.715
1570470243.458371,53888.000,8772,8,GX,1,100,130.402
1570470243.474964,53901.000,8790,7,GX,1,100,21.851
1570470243.491557,53914.000,8790,7,GX,1,100,413.422
1570470243.508150,53927.000,8790,7,GX,1,100,-548.889
1570470243.524743,53940.000,8790,7,GX,1,100,-49.988
1570470243.541336,53953.000,8790,7,GX,1,100,89.050
1570470243.557929,53966.000,8790,7,GX,1,100,255.676
1570470243.574522,53979.000,8790,7,GX,1,100,183.716
1570470243.591115,53992.000,8808,8,GX,1,100,-49.255
1570470243.607708,54005.000,8808,8,GX,1,100,63.721
1570470243.624300,54018.000,8808,8,GX,1,100,105.286
1570470243.640893,54031.000,8808,8,GX,1,100,63.721
1570470243.657486,54044.000,8808,8,GX,1,100,69.763
1570470243.674079,54057.000,8808,8,GX,1,100,73.730
1570470243.690672,54070.000,8808,8,GX,1,100,68.604
1570470243.707265,54083.000,8808,8,GX,1,100,98.480
1570470243.724177,54096.250,8826,8,GX,1,100,82.611
1570470243.741090,54109.500,8826,8,GX,1,100,71.045
1570470243.758002,54122.750,8826,8,GX,1,100,73.608
1570470243.774914,54136.000,8826,8,GX,1,100,75.836
1570470243.791826,54149.250,8826,8,GX,1,100,75.958
1570470243.808738,54162.500,8826,8,GX,1,100,65.796
1570470243.825650,54175.750,8826,8,GX,1,100,66.742
1570470243.842562,54189.000,8826,8,GX,1,100,89.966
1570470243.859337,54202.143,8844,7,GX,1,100,76.233
1570470243.876112,54215.286,8844,7,GX,1,100,74.890
1570470243.892888,54228.429,8844,7,GX,1,100,71.808
1570470243.909663,54241.571,8844,7,GX,1,100,71.747
1570470243.926438,54254.714,8844,7,GX,1,100,70.862
1570470243.943214,54267.857,8844,7,GX,1,100,100.311
1570470243.959989,54281.000,8844,7,GX,1,100,104.340
1570470243.976582,54294.000,8862,8,GX,1,100,95.428
1570470243.993175,54307.000,8862,8,GX,1,100,74.524
1570470244.009768,54320.000,8862,8,GX,1,100,68.146
1570470244.026361,54333.000,8862,8,GX,1,100,75.226
1570470244.042954,54346.000,8862,8,GX,1,100,80.048
1570470244.059547,54359.000,8862,8,GX,1,100,59.418
1570470244.076140,54372.000,8862,8,GX,1,100,48.248
1570470244.092733,54385.000,8862,8,GX,1,100,58.899
1570470244.109166,54397.875,8880,8,GX,1,100,59.631
1570470244.125599,54410.750,8880,8,GX,1,100,36.316
1570470244.142033,54423.625,8880,8,GX,1,100,23.590
1570470244.158466,54436.500,8880,8,GX,1,100,24.170
1570470244.174900,54449.375,8880,8,GX,1,100,22.552
1570470244.191333,54462.250,8880,8,GX,1,100,35.309
1570470244.207767,54475.125,8880,8,GX,1,100,35.706
1570470244.224200,54488.000,8880,8,GX,1,100,46.051
1570470244.240633,54500.875,8898,8,GX,1,100,53.528
1570470244.257067,54513.750,8898,8,GX,1,100,44.922
1570470244.273500,54526.625,8898,8,GX,1,100,41.534
1570470244.289933,54539.500,8898,8,GX,1,100,41.992
1570470244.306367,54552.375,8898,8,GX,1,100,49.805
1570470244.322800,54565.250,8898,8,GX,1,100,51.270
1570470244.339234,54578.125,8898,8,GX,1,100,47.028
1570470244.355667,54591.000,8898,8,GX,1,100,45.715
1570470244.372260,54604.000,8917,8,GX,1,100,49.042
1570470244.388853,54617.000,8917,8,GX,1,100,38.574
1570470244.405446,54630.000,8917,8,GX,1,100,29.236
1570470244.422039,54643.000,8917,8,GX,1,100,24.231
1570470244.438632,54656.000,8917,8,GX,1,100,26.245
1570470244.455225,54669.000,8917,8,GX,1,100,6.165
1570470244.471818,54682.000,8917,8,GX,1,100,4.822
1570470244.488411,54695.000,8917,8,GX,1,100,1.160
1570470244.505004,54708.000,8935,7,GX,1,100,13.947
1570470244.521597,54721.000,8935,7,GX,1,100,23.926
1570470244.538190,54734.000,8935,7,GX,1,100,36.926
1570470244.554783,54747.000,8935,7,GX,1,100,36.438
1570470244.571376,54760.000,8935,7,GX,1,100,31.372
1570470244.587969,54773.000,8935,7,GX,1,100,41.046
1570470244.604562,54786.000,8935,7,GX,1,100,62.531
1570470244.621314,54799.125,8953,8,GX,1,100,54.443
1570470244.638067,54812.250,8953,8,GX,1,100,28.931
1570470244.654819,54825.375,8953,8,GX,1,100,15.808
1570470244.671572,54838.500,8953,8,GX,1,100,13.550
1570470244.688324,54851.625,8953,8,GX,1,100,22.034
1570470244.705077,54864.750,8953,8,GX,1,100,22.003
1570470244.721829,54877.875,8953,8,GX,1,100,16.510
1570470244.738582,54891.000,8953,8,GX,1,100,25.330
1570470244.755175,54904.000,8971,8,GX,1,100,30.975
1570470244.771768,54917.000,8971,8,GX,1,100,23.956
1570470244.788361,54930.000,8971,8,GX,1,100,22.461
1570470244.804954,54943.000,8971,8,GX,1,100,30.884
1570470244.821547,54956.000,8971,8,GX,1,100,31.036
1570470244.838139,54969.000,8971,8,GX,1,100,18.280
1570470244.854732,54982.000,8971,8,GX,1,100,6.805
1570470244.871325,54995.000,8971,8,GX,1,100,-6.226
1570470244.887918,55008.000,8989,8,GX,1,100,6.470
1570470244.904511,55021.000,8989,8,GX,1,100,16.571
1570470244.921104,55034.000,8989,8,GX,1,100,17.670
1570470244.937697,55047.000,8989,8,GX,1,100,12.177
1570470244.954290,55060.000,8989,8,GX,1,100,12.878
1570470244.970883,55073.000,8989,8,GX,1,100,15.381
1570470244.987476,55086.000,8989,8,GX,1,100,14.160
1570470245.004069,55099.000,8989,8,GX,1,100,12.939
1570470245.021027,55112.286,9007,7,GX,1,100,5.951
1570470245.037984,55125.571,9007,7,GX,1,100,4.944
1570470245.054942,55138.857,9007,7,GX,1,100,4.028
1570470245.071900,55152.143,9007,7,GX,1,100,-1.465
1570470245.088857,55165.429,9007,7,GX,1,100,-12.329
1570470245.105815,55178.714,9007,7,GX,1,100,-8.667
1570470245.122772,55192.000,9007,7,GX,1,100,2.777
1570470245.139206,55204.875,9025,8,GX,1,100,6.439
1570470245.155639,55217.750,9025,8,GX,1,100,0.275
1570470245.172073,55230.625,9025,8,GX,1,100,-13.824
1570470245.188506,55243.500,9025,8,GX,1,100,-12.115
1570470245.204940,55256.375,9025,8,GX,1,100,-9.064
1570470245.221373,55269.250,9025,8,GX,1,100,-0.946
1570470245.237806,55282.125,9025,8,GX,1,100,-2.960
1570470245.254240,55295.000,9025,8,GX,1,100,-4.883
1570470245.270833,55308.000,9043,8,GX,1,100,-4.974
1570470245.287426,55321.000,9043,8,GX,1,100,-0.824
1570470245.304019,55334.000,9043,8,GX,1,100,-9.491
1570470245.320612,55347.000,9043,8,GX,1,100,-7.294
1570470245.337205,55360.000,9043,8,GX,1,100,-4.608
1570470245.353797,55373.000,9043,8,GX,1,100,6.470
1570470245.370390,55386.000,9043,8,GX,1,100,0.153
1570470245.386983,55399.000,9043,8,GX,1,100,-3.845
1570470245.403759,55412.143,9062,7,GX,1,100,0.854
1570470245.420534,55425.286,9062,7,GX,1,100,1.343
1570470245.437309,55438.429,9062,7,GX,1,100,-2.899
1570470245.454085,55451.571,9062,7,GX,1,100,-7.080
1570470245.470860,55464.714,9062,7,GX,1,100,-3.235
1570470245.487635,55477.857,9062,7,GX,1,100,1.251
1570470245.504411,55491.000,9062,7,GX,1,100,1.007
1570470245.521323,55504.250,9080,8,GX,1,100,1.648
1570470245.538235,55517.500,9080,8,GX,1,100,1.068
1570470245.555147,55530.750,9080,8,GX,1,100,-6.866
1570470245.572059,55544.000,9080,8,GX,1,100,-7.294
1570470245.588971,55557.250,9080,8,GX,1,100,-4.150
1570470245.605883,55570.500,9080,8,GX,1,100,0.366
1570470245.622795,55583.750,9080,8,GX,1,100,-0.427
1570470245.639707,55597.000,9080,8,GX,1,100,-1.251
1570470245.656460,55610.125,9098,8,GX,1,100,1.373
1570470245.673212,55623.250,9098,8,GX,1,100,3.143
1570470245.689965,55636.375,9098,8,GX,1,100,4.089
1570470245.706717,55649.500,9098,8,GX,1,100,2.502
1570470245.723469,55662.625,9098,8,GX,1,100,-5.768
1570470245.740222,55675.750,9098,8,GX,1,100,-5.859
1570470245.756974,55688.875,9098,8,GX,1,100,-3.693
1570470245.773727,55702.000,9098,8,GX,1,100,-2.319
1570470245.790480,55715.125,9116,8,GX,1,100,-3.937
1570470245.807232,55728.250,9116,8,GX,1,100,-1.801
1570470245.823985,55741.375,9116,8,GX,1,100,-0.244
1570470245.840737,55754.500,9116,8,GX,1,100,-7.111
1570470245.857490,55767.625,9116,8,GX,1,100,-4.395
1570470245.874242,55780.750,9116,8,GX,1,100,-1.740
1570470245.890995,55793.875,9116,8,GX,1,100,-1.526
1570470245.907747,55807.000,9116,8,GX,1,100,1.617
1570470245.924446,55820.083,9137,12,GX,1,100,-2.045
1570470245.941146,55833.167,9137,12,GX,1,100,-2.167
1570470245.957845,55846.250,9137,12,GX,1,100,1.770
1570470245.974545,55859.333,9137,12,GX,1,100,0.305
1570470245.991244,55872.417,9137,12,GX,1,100,3.967
1570470246.007943,55885.500,9137,12,GX,1,100,0.549
1570470246.024642,55898.583,9137,12,GX,1,100,-5.707
1570470246.041342,55911.667,9137,12,GX,1,100,-3.174
1570470246.058041,55924.750,9137,12,GX,1,100,7.996
1570470246.074740,55937.833,9137,12,GX,1,100,5.280
1570470246.091440,55950.917,9137,12,GX,1,100,1.617
1570470246.108139,55964.000,9137,12,GX,1,100,-2.167
1570470246.124914,55977.143,9157,7,GX,1,100,-1.526
1570470246.141690,55990.286,9157,7,GX,1,100,0.214
1570470246.158465,56003.429,9157,7,GX,1,100,-0.031
1570470246.175240,56016.571,9157,7,GX,1,100,2.228
1570470246.192016,56029.714,9157,7,GX,1,100,0.366
1570470246.208791,56042.857,9157,7,GX,1,100,-0.519
1570470246.225566,56056.000,9157,7,GX,1,100,2.350
1570470246.242000,56068.875,9175,8,GX,1,100,3.937
1570470246.258433,56081.750,9175,8,GX,1,100,0.885
1570470246.274866,56094.625,9175,8,GX,1,100,-1.678
1570470246.291300,56107.500,9175,8,GX,1,100,-0.488
1570470246.307733,56120.375,9175,8,GX,1,100,3.052
1570470246.324167,56133.250,9175,8,GX,1,100,2.167
1570470246.340600,56146.125,9175,8,GX,1,100,0.793
1570470246.357033,56159.000,9175,8,GX,1,100,3.723
1570470246.373786,56172.125,9194,8,GX,1,100,4.608
1570470246.390538,56185.250,9194,8,GX,1,100,-1.923
1570470246.407291,56198.375,9194,8,GX,1,100,2.380
1570470246.424043,56211.500,9194,8,GX,1,100,2.045
1570470246.440796,56224.625,9194,8,GX,1,100,2.167
1570470246.457548,56237.750,9194,8,GX,1,100,-1.038
1570470246.474301,56250.875,9194,8,GX,1,100,-0.671
1570470246.491054,56264.000,9194,8,GX,1,100,4.333
1570470246.507966,56277.250,9212,8,GX,1,100,3.357
1570470246.524878,56290.500,9212,8,GX,1,100,-1.221
1570470246.541790,56303.750,9212,8,GX,1,100,-2.350
1570470246.558702,56317.000,9212,8,GX,1,100,7.477
1570470246.575614,56330.250,9212,8,GX,1,100,2.563
1570470246.592526,56343.500,9212,8,GX,1,100,0.244
1570470246.609438,56356.750,9212,8,GX,1,100,-1.373
1570470246.626350,56370.000,9212,8,GX,1,100,-5.524
1570470246.642943,56383.000,9230,7,GX,1,100,-0.610
1570470246.659536,56396.000,9230,7,GX,1,100,2.960
1570470246.676129,56409.000,9230,7,GX,1,100,2.014
1570470246.692722,56422.000,9230,7,GX,1,100,2.136
1570470246.709315,56435.000,9230,7,GX,1,100,0.336
1570470246.725908,56448.000,9230,7,GX,1,100,-3.784
1570470246.742501,56461.000,9230,7,GX,1,100,-6.653
1570470246.759253,56474.125,9248,8,GX,1,100,-5.402
1570470246.776006,56487.250,9248,8,GX,1,100,3.571
1570470246.792758,56500.375,9248,8,GX,1,100,5.219
1570470246.809511,56513.500,9248,8,GX,1,100,2.167
1570470246.826263,56526.625,9248,8,GX,1,100,-3.204
1570470246.843016,56539.750,9248,8,GX,1,100,-2.747
1570470246.859768,56552.875,9248,8,GX,1,100,-1.587
1570470246.876521,56566.000,9248,8,GX,1,100,3.082
1570470246.893273,56579.125,9266,8,GX,1,100,2.319
1570470246.910026,56592.250,9266,8,GX,1,100,-0.366
1570470246.926778,56605.375,9266,8,GX,1,100,-3.723
1570470246.943531,56618.500,9266,8,GX,1,100,-3.357
1570470246.960283,56631.625,9266,8,GX,1,100,0.244
1570470246.977036,56644.750,9266,8,GX,1,100,-3.754
1570470246.993788,56657.875,9266,8,GX,1,100,-2.045
1570470247.010541,56671.000,9266,8,GX,1,100,-2.594
1570470247.027134,56684.000,9284,8,GX,1,100,-5.798
1570470247.043727,56697.000,9284,8,GX,1,100,-6.165
1570470247.060320,56710.000,9284,8,GX,1,100,-2.075
1570470247.076913,56723.000,9284,8,GX,1,100,1.312
1570470247.093506,56736.000,9284,8,GX,1,100,2.014
1570470247.110099,56749.000,9284,8,GX,1,100,-3.479
1570470247.126692,56762.000,9284,8,GX,1,100,-5.463
1570470247.143285,56775.000,9284,8,GX,1,100,-4.364
1570470247.159877,56788.000,9302,7,GX,1,100,3.754
1570470247.176470,56801.000,9302,7,GX,1,100,5.371
1570470247.193063,56814.000,9302,7,GX,1,100,0.763
1570470247.209656,56827.000,9302,7,GX,1,100,-1.251
1570470247.226249,56840.000,9302,7,GX,1,100,5.310
1570470247.242842,56853.000,9302,7,GX,1,100,7.294
1570470247.259435,56866.000,9302,7,GX,1,100,18.341
1570470247.275869,56878.875,9320,8,GX,1,100,19.196
1570470247.292302,56891.750,9320,8,GX,1,100,14.252
1570470247.308735,56904.625,9320,8,GX,1,100,7.355
1570470247.325169,56917.500,9320,8,GX,1,100,2.930
1570470247.341602,56930.375,9320,8,GX,1,100,2.960
1570470247.358036,56943.250,9320,8,GX,1,100,-2.563
1570470247.374469,56956.125,9320,8,GX,1,100,-2.136
1570470247.390903,56969.000,9320,8,GX,1,100,7.355
1570470247.407336,56981.875,9339,8,GX,1,100,20.508
1570470247.423769,56994.750,9339,8,GX,1,100,25.879
1570470247.440203,57007.625,9339,8,GX,1,100,37.354
1570470247.456636,57020.500,9339,8,GX,1,100,47.394
1570470247.473069,57033.375,9339,8,GX,1,100,57.098
1570470247.489503,57046.250,9339,8,GX,1,100,79.742
1570470247.505936,57059.125,9339,8,GX,1,100,83.588
1570470247.522370,57072.000,9339,8,GX,1,100,94.055
1570470247.539122,57085.125,9357,8,GX,1,100,81.024
1570470247.555875,57098.250,9357,8,GX,1,100,48.401
1570470247.572627,57111.375,9357,8,GX,1,100,35.919
1570470247.589380,57124.500,9357,8,GX,1,100,31.738
1570470247.606132,57137.625,9357,8,GX,1,100,30.701
1570470247.622885,57150.750,9357,8,GX,1,100,27.283
1570470247.639637,57163.875,9357,8,GX,1,100,13.855
1570470247.656390,57177.000,9357,8,GX,1,100,9.125
1570470247.673142,57190.125,9375,8,GX,1,100,-4.395
1570470247.689895,57203.250,9375,8,GX,1,100,-8.209
1570470247.706647,57216.375,9375,8,GX,1,100,-5.524
1570470247.723400,57229.500,9375,8,GX,1,100,6.195
1570470247.740152,57242.625,9375,8,GX,1,100,15.137
1570470247.756905,57255.750,9375,8,GX,1,100,13.916
1570470247.773657,57268.875,9375,8,GX,1,100,6.409
1570470247.790410,57282.000,9375,8,GX,1,100,8.179
1570470247.806820,57294.857,9393,7,GX,1,100,12.329
1570470247.823231,57307.714,9393,7,GX,1,100,20.660
1570470247.839642,57320.571,9393,7,GX,1,100,30.365
1570470247.856052,57333.429,9393,7,GX,1,100,57.098
1570470247.872463,57346.286,9393,7,GX,1,100,73.547
1570470247.888874,57359.143,9393,7,GX,1,100,87.769
1570470247.905284,57372.000,9393,7,GX,1,100,84.351
1570470247.922037,57385.125,9411,8,GX,1,100,81.055
1570470247.938789,57398.250,9411,8,GX,1,100,85.297
1570470247.955542,57411.375,9411,8,GX,1,100,85.663
1570470247.972294,57424.500,9411,8,GX,1,100,75.623
1570470247.989047,57437.625,9411,8,GX,1,100,80.139
1570470248.005799,57450.750,9411,8,GX,1,100,62.256
1570470248.022552,57463.875,9411,8,GX,1,100,56.000
1570470248.039304,57477.000,9411,8,GX,1,100,49.164
1570470248.056080,57490.143,9429,7,GX,1,100,37.506
1570470248.072855,57503.286,9429,7,GX,1,100,29.236
1570470248.089630,57516.429,9429,7,GX,1,100,31.250
1570470248.106405,57529.571,9429,7,GX,1,100,36.957
1570470248.123181,57542.714,9429,7,GX,1,100,42.145
1570470248.139956,57555.857,9429,7,GX,1,100,43.335
1570470248.156731,57569.000,9429,7,GX,1,100,45.349
1570470248.173324,57582.000,9447,8,GX,1,100,45.166
1570470248.189917,57595.000,9447,8,GX,1,100,36.224
1570470248.206510,57608.000,9447,8,GX,1,100,24.780
1570470248.223103,57621.000,9447,8,GX,1,100,18.005
1570470248.239696,57634.000,9447,8,GX,1,100,11.444
1570470248.256289,57647.000,9447,8,GX,1,100,8.942
1570470248.272882,57660.000,9447,8,GX,1,100,10.498
1570470248.289475,57673.000,9447,8,GX,1,100,12.909
1570470248.306228,57686.125,9464,8,GX,1,100,24.048
1570470248.322980,57699.250,9464,8,GX,1,100,27.496
1570470248.339733,57712.375,9464,8,GX,1,100,25.299
1570470248.356485,57725.500,9464,8,GX,1,100,19.928
1570470248.373238,57738.625,9464,8,GX,1,100,16.846
1570470248.389990,57751.750,9464,8,GX,1,100,16.296
1570470248.406743,57764.875,9464,8,GX,1,100,14.557
1570470248.423495,57778.000,9464,8,GX,1,100,13.733
1570470248.439929,57790.875,9483,8,GX,1,100,13.000
1570470248.456362,57803.750,9483,8,GX,1,100,6.134
1570470248.472795,57816.625,9483,8,GX,1,100,4.822
1570470248.489229,57829.500,9483,8,GX,1,100,7.965
1570470248.505662,57842.375,9483,8,GX,1,100,7.446
1570470248.522096,57855.250,9483,8,GX,1,100,3.693
1570470248.538529,57868.125,9483,8,GX,1,100,2.075
1570470248.554962,57881.000,9483,8,GX,1,100,1.923
1570470248.571874,57894.250,9501,8,GX,1,100,-1.648
1570470248.588787,57907.500,9501,8,GX,1,100,0.122
1570470248.605699,57920.750,9501,8,GX,1,100,-0.305
1570470248.622611,57934.000,9501,8,GX,1,100,-1.801
1570470248.639523,57947.250,9501,8,GX,1,100,-7.477
1570470248.656435,57960.500,9501,8,GX,1,100,-9.064
1570470248.673347,57973.750,9501,8,GX,1,100,-8.575
1570470248.690259,57987.000,9501,8,GX,1,100,-4.578
1570470248.706852,58000.000,9519,7,GX,1,100,-2.075
1570470248.723445,58013.000,9519,7,GX,1,100,-0.702
1570470248.740038,58026.000,9519,7,GX,1,100,0.031
1570470248.756631,58039.000,9519,7,GX,1,100,-0.092
1570470248.773224,58052.000,9519,7,GX,1,100,-3.510
1570470248.789817,58065.000,9519,7,GX,1,100,-2.686
1570470248.806410,58078.000,9519,7,GX,1,100,-2.441
1570470248.823322,58091.250,9537,8,GX,1,100,-4.517
1570470248.840234,58104.500,9537,8,GX,1,100,-7.019
1570470248.857146,58117.750,9537,8,GX,1,100,-7.446
1570470248.874058,58131.000,9537,8,GX,1,100,-5.188
1570470248.890970,58144.250,9537,8,GX,1,100,-3.601
1570470248.907882,58157.500,9537,8,GX,1,100,-3.784
1570470248.924794,58170.750,9537,8,GX,1,100,1.526
1570470248.941706,58184.000,9537,8,GX,1,100,3.510
1570470248.958458,58197.125,9555,8,GX,1,100,2.319
1570470248.975211,58210.250,9555,8,GX,1,100,-1.038
1570470248.991964,58223.375,9555,8,GX,1,100,-1.587
1570470249.008716,58236.500,9555,8,GX,1,100,-5.371
1570470249.025469,58249.625,9555,8,GX,1,100,-4.944
1570470249.042221,58262.750,9555,8,GX,1,100,-3.418
1570470249.058974,58275.875,9555,8,GX,1,100,-0.305
1570470249.075726,58289.000,9555,8,GX,1,100,0.275
1570470249.092319,58302.000,9573,7,GX,1,100,-1.465
1570470249.108912,58315.000,9573,7,GX,1,100,-7.477
1570470249.125505,58328.000,9573,7,GX,1,100,-10.010
1570470249.142098,58341.000,9573,7,GX,1,100,-7.599
1570470249.158691,58354.000,9573,7,GX,1,100,-1.495
1570470249.175284,58367.000,9573,7,GX,1,100,-0.549
1570470249.191877,58380.000,9573,7,GX,1,100,-2.655
1570470249.208629,58393.125,9589,8,GX,1,100,-4.120
1570470249.225382,58406.250,9589,8,GX,1,100,-6.104
1570470249.242134,58419.375,9589,8,GX,1,100,-5.585
1570470249.258887,58432.500,9589,8,GX,1,100,-6.714
1570470249.275639,58445.625,9589,8,GX,1,100,-3.784
1570470249.292392,58458.750,9589,8,GX,1,100,-3.601
1570470249.309144,58471.875,9589,8,GX,1,100,-7.874
1570470249.325897,58485.000,9589,8,GX,1,100,-10.254
1570470249.342649,58498.125,9607,8,GX,1,100,-16.327
1570470249.359402,58511.250,9607,8,GX,1,100,-21.332
1570470249.376154,58524.375,9607,8,GX,1,100,-23.407
1570470249.392907,58537.500,9607,8,GX,1,100,-25.909
1570470249.409659,58550.625,9607,8,GX,1,100,-27.466
1570470249.426412,58563.750,9607,8,GX,1,100,-36.407
1570470249.443164,58576.875,9607,8,GX,1,100,-48.584
1570470249.459917,58590.000,9607,8,GX,1,100,-63.416
1570470249.476350,58602.875,9626,8,GX,1,100,-70.770
1570470249.492784,58615.750,9626,8,GX,1,100,-85.449
1570470249.509217,58628.625,9626,8,GX,1,100,-92.285
1570470249.525651,58641.500,9626,8,GX,1,100,-106.445
1570470249.542084,58654.375,9626,8,GX,1,100,-111.725
1570470249.558517,58667.250,9626,8,GX,1,100,-113.739
1570470249.574951,58680.125,9626,8,GX,1,100,-117.920
1570470249.591384,58693.000,9626,8,GX,1,100,-119.537
1570470249.607977,58706.000,9644,7,GX,1,100,-119.965
1570470249.624570,58719.000,9644,7,GX,1,100,-119.537
1570470249.641163,58732.000,9644,7,GX,1,100,-109.833
1570470249.657756,58745.000,9644,7,GX,1,100,-105.164
1570470249.674349,58758.000,9644,7,GX,1,100,-94.147
1570470249.690942,58771.000,9644,7,GX,1,100,-87.463
1570470249.707535,58784.000,9644,7,GX,1,100,-81.421
1570470249.724447,58797.250,9662,8,GX,1,100,-75.287
1570470249.741359,58810.500,9662,8,GX,1,100,-72.571
1570470249.758271,58823.750,9662,8,GX,1,100,-69.763
1570470249.775183,58837.000,9662,8,GX,1,100,-69.580
1570470249.792095,58850.250,9662,8,GX,1,100,-68.329
1570470249.809007,58863.500,9662,8,GX,1,100,-64.575
1570470249.825919,58876.750,9662,8,GX,1,100,-61.218
1570470249.842831,58890.000,9662,8,GX,1,100,-59.692
1570470249.859743,58903.250,9680,8,GX,1,100,-54.596
1570470249.876656,58916.500,9680,8,GX,1,100,-47.974
1570470249.893568,58929.750,9680,8,GX,1,100,-41.046
1570470249.910480,58943.000,9680,8,GX,1,100,-41.351
1570470249.927392,58956.250,9680,8,GX,1,100,-43.182
1570470249.944304,58969.500,9680,8,GX,1,100,-43.121
1570470249.961216,58982.750,9680,8,GX,1,100,-38.666
1570470249.978128,58996.000,9680,8,GX,1,100,-32.837
1570470249.994903,59009.143,9698,7,GX,1,100,-25.513
1570470250.011678,59022.286,9698,7,GX,1,100,-18.433
1570470250.028454,59035.429,9698,7,GX,1,100,-19.592
1570470250.045229,59048.571,9698,7,GX,1,100,-22.797
1570470250.062004,59061.714,9698,7,GX,1,100,-25.299
1570470250.078780,59074.857,9698,7,GX,1,100,-23.834
1570470250.095555,59088.000,9698,7,GX,1,100,-18.982
1570470250.112148,59101.000,9716,8,GX,1,100,-13.702
1570470250.128741,59114.000,9716,8,GX,1,100,-13.733
1570470250.145334,59127.000,9716,8,GX,1,100,-16.937
1570470250.161927,59140.000,9716,8,GX,1,100,-23.254
1570470250.178520,59153.000,9716,8,GX,1,100,-23.560
1570470250.195113,59166.000,9716,8,GX,1,100,-21.240
1570470250.211706,59179.000,9716,8,GX,1,100,-15.808
1570470250.228299,59192.000,9716,8,GX,1,100,-12.329
1570470250.244732,59204.875,9734,8,GX,1,100,-7.385
1570470250.261165,59217.750,9734,8,GX,1,100,-5.005
1570470250.277599,59230.625,9734,8,GX,1,100,-5.432
1570470250.294032,59243.500,9734,8,GX,1,100,-7.874
1570470250.310466,59256.375,9734,8,GX,1,100,-6.653
1570470250.326899,59269.250,9734,8,GX,1,100,-7.355
1570470250.343333,59282.125,9734,8,GX,1,100,-7.172
1570470250.359766,59295.000,9734,8,GX,1,100,-6.744
1570470250.376359,59308.000,9752,8,GX,1,100,-6.531
1570470250.392952,59321.000,9752,8,GX,1,100,-8.362
1570470250.409545,59334.000,9752,8,GX,1,100,-9.918
1570470250.426138,59347.000,9752,8,GX,1,100,-9.674
1570470250.442731,59360.000,9752,8,GX,1,100,-5.249
1570470250.459324,59373.000,9752,8,GX,1,100,-4.150
1570470250.475917,59386.000,9752,8,GX,1,100,-0.549
1570470250.492510,59399.000,9752,8,GX,1,100,-5.463
1570470250.508738,59411.714,9771,7,GX,1,100,-8.514
1570470250.524966,59424.429,9771,7,GX,1,100,-11.688
1570470250.541194,59437.143,9771,7,GX,1,100,-14.709
1570470250.557423,59449.857,9771,7,GX,1,100,-16.327
1570470250.573651,59462.571,9771,7,GX,1,100,-19.043
1570470250.589879,59475.286,9771,7,GX,1,100,-22.034
1570470250.606107,59488.000,9771,7,GX,1,100,-23.651
1570470250.622860,59501.125,9789,8,GX,1,100,-24.902
1570470250.639612,59514.250,9789,8,GX,1,100,-25.024
1570470250.656365,59527.375,9789,8,GX,1,100,-28.442
1570470250.673118,59540.500,9789,8,GX,1,100,-32.043
1570470250.689870,59553.625,9789,8,GX,1,100,-34.241
1570470250.706623,59566.750,9789,8,GX,1,100,-36.896
1570470250.723375,59579.875,9789,8,GX,1,100,-39.124
1570470250.740128,59593.000,9789,8,GX,1,100,-40.192
1570470250.756561,59605.875,9807,8,GX,1,100,-43.060
1570470250.772995,59618.750,9807,8,GX,1,100,-38.177
1570470250.789428,59631.625,9807,8,GX,1,100,-35.431
1570470250.805861,59644.500,9807,8,GX,1,100,-33.569
1570470250.822295,59657.375,9807,8,GX,1,100,-35.339
1570470250.838728,59670.250,9807,8,GX,1,100,-37.445
1570470250.855161,59683.125,9807,8,GX,1,100,-40.039
1570470250.871595,59696.000,9807,8,GX,1,100,-33.264
1570470250.888507,59709.250,9825,8,GX,1,100,-29.114
1570470250.905419,59722.500,9825,8,GX,1,100,-24.933
1570470250.922331,59735.750,9825,8,GX,1,100,-21.637
1570470250.939243,59749.000,9825,8,GX,1,100,-19.562
1570470250.956155,59762.250,9825,8,GX,1,100,-12.939
1570470250.973067,59775.500,9825,8,GX,1,100,-6.317
1570470250.989979,59788.750,9825,8,GX,1,100,-1.404
1570470251.006891,59802.000,9825,8,GX,1,100,4.242
1570470251.023667,59815.143,9843,7,GX,1,100,1.770
1570470251.040442,59828.286,9843,7,GX,1,100,-4.669
1570470251.057217,59841.429,9843,7,GX,1,100,-16.266
1570470251.073992,59854.571,9843,7,GX,1,100,-16.235
1570470251.090768,59867.714,9843,7,GX,1,100,-11.597
1570470251.107543,59880.857,9843,7,GX,1,100,-7.599
1570470251.124318,59894.000,9843,7,GX,1,100,-5.737
1570470251.140911,59907.000,9861,8,GX,1,100,-3.723
1570470251.157504,59920.000,9861,8,GX,1,100,-6.439
1570470251.174097,59933.000,9861,8,GX,1,100,-6.775
1570470251.190690,59946.000,9861,8,GX,1,100,-8.942
1570470251.207283,59959.000,9861,8,GX,1,100,-5.280
1570470251.223876,59972.000,9861,8,GX,1,100,-4.089
1570470251.240469,59985.000,9861,8,GX,1,100,-2.563
1570470251.257062,59998.000,9861,8,GX,1,100,-5.981
1570470251.273655,60011.000,9879,8,GX,1,100,-7.507
1570470251.290248,60024.000,9879,8,GX,1,100,-5.341
1570470251.306841,60037.000,9879,8,GX,1,100,-3.906
1570470251.323434,60050.000,9879,8,GX,1,100,-3.540
1570470251.340027,60063.000,9879,8,GX,1,100,-2.777
1570470251.356620,60076.000,9879,8,GX,1,100,-3.571
1570470251.373213,60089.000,9879,8,GX,1,100,-0.458
1570470251.389806,60102.000,9879,8,GX,1,100,-1.801
1570470251.406558,60115.125,9897,8,GX,1,100,-1.007
1570470251.423311,60128.250,9897,8,GX,1,100,-0.763
1570470251.440063,60141.375,9897,8,GX,1,100,5.402
1570470251.456816,60154.500,9897,8,GX,1,100,6.073
1570470251.473568,60167.625,9897,8,GX,1,100,2.991
1570470251.490321,60180.750,9897,8,GX,1,100,-1.617
1570470251.507073,60193.875,9897,8,GX,1,100,-2.289
1570470251.523826,60207.000,9897,8,GX,1,100,-5.371
1570470251.540054,60219.714,9916,7,GX,1,100,-6.653
1570470251.556283,60232.429,9916,7,GX,1,100,-5.798
1570470251.572511,60245.143,9916,7,GX,1,100,-2.899
1570470251.588739,60257.857,9916,7,GX,1,100,-0.488
1570470251.604967,60270.571,9916,7,GX,1,100,1.068
1570470251.621196,60283.286,9916,7,GX,1,100,0.000
1570470251.637424,60296.000,9916,7,GX,1,100,-0.366
1570470251.654176,60309.125,9934,8,GX,1,100,0.031
1570470251.670929,60322.250,9934,8,GX,1,100,3.937
1570470251.687681,60335.375,9934,8,GX,1,100,4.883
1570470251.704434,60348.500,9934,8,GX,1,100,2.441
1570470251.721186,60361.625,9934,8,GX,1,100,-1.740
1570470251.737939,60374.750,9934,8,GX,1,100,-3.479
1570470251.754691,60387.875,9934,8,GX,1,100,-2.075
1570470251.771444,60401.000,9934,8,GX,1,100,-1.373
1570470251.788196,60414.125,9952,8,GX,1,100,0.763
1570470251.804949,60427.250,9952,8,GX,1,100,0.946
1570470251.821701,60440.375,9952,8,GX,1,100,-0.732
1570470251.838454,60453.500,9952,8,GX,1,100,-3.662
1570470251.855206,60466.625,9952,8,GX,1,100,-2.655
1570470251.871959,60479.750,9952,8,GX,1,100,-2.197
1570470251.888711,60492.875,9952,8,GX,1,100,3.265
1570470251.905464,60506.000,9952,8,GX,1,100,9.430
1570470251.922376,60519.250,9970,8,GX,1,100,3.204
1570470251.939288,60532.500,9970,8,GX,1,100,0.000
1570470251.956200,60545.750,9970,8,GX,1,100,-3.601
1570470251.973112,60559.000,9970,8,GX,1,100,-2.930
1570470251.990024,60572.250,9970,8,GX,1,100,0.244
1570470252.006936,60585.500,9970,8,GX,1,100,2.747
1570470252.023848,60598.750,9970,8,GX,1,100,1.831
1570470252.040760,60612.000,9970,8,GX,1,100,0.763
1570470252.057536,60625.143,9988,7,GX,1,100,-1.617
1570470252.074311,60638.286,9988,7,GX,1,100,-1.495
1570470252.091086,60651.429,9988,7,GX,1,100,0.458
1570470252.107862,60664.571,9988,7,GX,1,100,3.204
1570470252.124637,60677.714,9988,7,GX,1,100,3.387
1570470252.141412,60690.857,9988,7,GX,1,100,3.876
1570470252.158187,60704.000,9988,7,GX,1,100,-0.488
1570470252.174940,60717.125,10005,8,GX,1,100,-1.068
1570470252.191693,60730.250,10005,8,GX,1,100,-4.974
1570470252.208445,60743.375,10005,8,GX,1,100,-1.312
1570470252.225198,60756.500,10005,8,GX,1,100,4.578
1570470252.241950,60769.625,10005,8,GX,1,100,2.991
1570470252.258703,60782.750,10005,8,GX,1,100,-0.671
1570470252.275455,60795.875,10005,8,GX,1,100,-2.716
1570470252.292207,60809.000,10005,8,GX,1,100,-2.014
1570470252.308800,60822.000,10023,8,GX,1,100,-0.916
1570470252.325393,60835.000,10023,8,GX,1,100,2.899
1570470252.341986,60848.000,10023,8,GX,1,100,6.409
1570470252.358579,60861.000,10023,8,GX,1,100,6.439
1570470252.375172,60874.000,10023,8,GX,1,100,0.488
1570470252.391765,60887.000,10023,8,GX,1,100,-3.174
1570470252.408358,60900.000,10023,8,GX,1,100,-4.425
1570470252.424951,60913.000,10023,8,GX,1,100,-3.662
1570470252.441446,60925.923,10044,13,GX,1,100,-2.289
1570470252.457941,60938.846,10044,13,GX,1,100,-1.923
1570470252.474436,60951.769,10044,13,GX,1,100,-1.404
1570470252.490930,60964.692,10044,13,GX,1,100,0.092
1570470252.507425,60977.615,10044,13,GX,1,100,1.862
1570470252.523920,60990.538,10044,13,GX,1,100,3.967
1570470252.540415,61003.462,10044,13,GX,1,100,2.899
1570470252.556909,61016.385,10044,13,GX,1,100,2.167
1570470252.573404,61029.308,10044,13,GX,1,100,-1.129
1570470252.589899,61042.231,10044,13,GX,1,100,-2.197
1570470252.606394,61055.154,10044,13,GX,1,100,-1.526
1570470252.622889,61068.077,10044,13,GX,1,100,2.441
1570470252.639383,61081.000,10044,13,GX,1,100,2.075
1570470252.656159,61094.143,10065,7,GX,1,100,1.221
1570470252.672934,61107.286,10065,7,GX,1,100,-3.021
1570470252.689709,61120.429,10065,7,GX,1,100,-1.495
1570470252.706485,61133.571,10065,7,GX,1,100,0.061
1570470252.723260,61146.714,10065,7,GX,1,100,1.831
1570470252.740035,61159.857,10065,7,GX,1,100,0.885
1570470252.756810,61173.000,10065,7,GX,1,100,1.556
1570470252.773403,61186.000,10083,7,GX,1,100,0.519
1570470252.789996,61199.000,10083,7,GX,1,100,0.549
1570470252.806589,61212.000,10083,7,GX,1,100,0.366
1570470252.823182,61225.000,10083,7,GX,1,100,0.214
1570470252.839775,61238.000,10083,7,GX,1,100,-0.183
1570470252.856368,61251.000,10083,7,GX,1,100,-1.251
1570470252.872961,61264.000,10083,7,GX,1,100,-0.641
1570470252.889873,61277.250,10101,8,GX,1,100,0.641
1570470252.906785,61290.500,10101,8,GX,1,100,0.763
1570470252.923697,61303.750,10101,8,GX,1,100,-0.580
1570470252.940609,61317.000,10101,8,GX,1,100,-0.153
1570470252.957521,61330.250,10101,8,GX,1,100,0.610
1570470252.974433,61343.500,10101,8,GX,1,100,0.641
1570470252.991345,61356.750,10101,8,GX,1,100,1.709
1570470253.008258,61370.000,10101,8,GX,1,100,1.343
1570470253.025010,61383.125,10119,8,GX,1,100,2.014
1570470253.041763,61396.250,10119,8,GX,1,100,2.533
1570470253.058515,61409.375,10119,8,GX,1,100,2.167
1570470253.075268,61422.500,10119,8,GX,1,100,2.686
1570470253.092020,61435.625,10119,8,GX,1,100,3.296
1570470253.108773,61448.750,10119,8,GX,1,100,3.693
1570470253.125525,61461.875,10119,8,GX,1,100,6.256
1570470253.142278,61475.000,10119,8,GX,1,100,9.430
1570470253.158871,61488.000,10137,8,GX,1,100,6.226
1570470253.175463,61501.000,10137,8,GX,1,100,4.303
1570470253.192056,61514.000,10137,8,GX,1,100,0.702
1570470253.208649,61527.000,10137,8,GX,1,100,0.702
1570470253.225242,61540.000,10137,8,GX,1,100,1.617
1570470253.241835,61553.000,10137,8,GX,1,100,3.540
1570470253.258428,61566.000,10137,8,GX,1,100,3.632
1570470253.275021,61579.000,10137,8,GX,1,100,2.808
1570470253.291797,61592.143,10155,7,GX,1,100,0.519
1570470253.308572,61605.286,10155,7,GX,1,100,-0.305
1570470253.325347,61618.429,10155,7,GX,1,100,-1.129
1570470253.342123,61631.571,10155,7,GX,1,100,-1.343
1570470253.358898,61644.714,10155,7,GX,1,100,-1.129
1570470253.375673,61657.857,10155,7,GX,1,100,-1.099
1570470253.392448,61671.000,10155,7,GX,1,100,-2.167
1570470253.408882,61683.875,10173,8,GX,1,100,-2.625
1570470253.425315,61696.750,10173,8,GX,1,100,-3.113
1570470253.441749,61709.625,10173,8,GX,1,100,-2.563
1570470253.458182,61722.500,10173,8,GX,1,100,-2.045
1570470253.474616,61735.375,10173,8,GX,1,100,-0.702
1570470253.491049,61748.250,10173,8,GX,1,100,-0.702
1570470253.507482,61761.125,10173,8,GX,1,100,-0.244
1570470253.523916,61774.000,10173,8,GX,1,100,-0.153
1570470253.540509,61787.000,10192,8,GX,1,100,0.275
1570470253.557102,61800.000,10192,8,GX,1,100,-2.014
1570470253.573694,61813.000,10192,8,GX,1,100,1.007
1570470253.590287,61826.000,10192,8,GX,1,100,1.160
1570470253.606880,61839.000,10192,8,GX,1,100,1.068
1570470253.623473,61852.000,10192,8,GX,1,100,-1.343
1570470253.640066,61865.000,10192,8,GX,1,100,-2.655
1570470253.656659,61878.000,10192,8,GX,1,100,-5.219
1570470253.673093,61890.875,10210,8,GX,1,100,-5.463
1570470253.689526,61903.750,10210,8,GX,1,100,-5.127
1570470253.705960,61916.625,10210,8,GX,1,100,-3.113
1570470253.722393,61929.500,10210,8,GX,1,100,-1.038
1570470253.738827,61942.375,10210,8,GX,1,100,-0.977
1570470253.755260,61955.250,10210,8,GX,1,100,-0.641
1570470253.771693,61968.125,10210,8,GX,1,100,-0.549
1570470253.788127,61981.000,10210,8,GX,1,100,-0.977
1570470253.804537,61993.857,10228,7,GX,1,100,-6.165
1570470253.820948,62006.714,10228,7,GX,1,100,-5.219
1570470253.837358,62019.571,10228,7,GX,1,100,-3.571
1570470253.853769,62032.429,10228,7,GX,1,100,0.702
1570470253.870180,62045.286,10228,7,GX,1,100,1.587
1570470253.886590,62058.143,10228,7,GX,1,100,0.549
1570470253.903001,62071.000,10228,7,GX,1,100,-2.441
1570470253.919754,62084.125,10246,8,GX,1,100,-2.899
1570470253.936506,62097.250,10246,8,GX,1,100,-2.228
1570470253.953259,62110.375,10246,8,GX,1,100,-2.411
1570470253.970011,62123.500,10246,8,GX,1,100,-2.930
1570470253.986763,62136.625,10246,8,GX,1,100,-1.709
1570470254.003516,62149.750,10246,8,GX,1,100,1.434
1570470254.020269,62162.875,10246,8,GX,1,100,1.892
1570470254.037021,62176.000,10246,8,GX,1,100,0.366
1570470254.053774,62189.125,10264,8,GX,1,100,-2.380
1570470254.070526,62202.250,10264,8,GX,1,100,-2.838
1570470254.087279,62215.375,10264,8,GX,1,100,-3.571
1570470254.104031,62228.500,10264,8,GX,1,100,-2.808
1570470254.120784,62241.625,10264,8,GX,1,100,0.244
1570470254.137536,62254.750,10264,8,GX,1,100,0.763
1570470254.154289,62267.875,10264,8,GX,1,100,-0.916
1570470254.171041,62281.000,10264,8,GX,1,100,-0.580
1570470254.187634,62294.000,10282,8,GX,1,100,1.953
1570470254.204227,62307.000,10282,8,GX,1,100,2.411
1570470254.220820,62320.000,10282,8,GX,1,100,-0.519
1570470254.237413,62333.000,10282,8,GX,1,100,0.183
1570470254.254006,62346.000,10282,8,GX,1,100,-0.122
1570470254.270599,62359.000,10282,8,GX,1,100,-0.336
1570470254.287192,62372.000,10282,8,GX,1,100,-1.129
1570470254.303785,62385.000,10282,8,GX,1,100,-0.732
1570470254.320378,62398.000,10300,8,GX,1,100,0.732
1570470254.336971,62411.000,10300,8,GX,1,100,-1.221
1570470254.353564,62424.000,10300,8,GX,1,100,-3.967
1570470254.370157,62437.000,10300,8,GX,1,100,-7.874
1570470254.386750,62450.000,10300,8,GX,1,100,-5.890
1570470254.403342,62463.000,10300,8,GX,1,100,-3.357
1570470254.419935,62476.000,10300,8,GX,1,100,-0.427
1570470254.436528,62489.000,10300,8,GX,1,100,-0.183
1570470254.453304,62502.143,10318,7,GX,1,100,0.183
1570470254.470079,62515.286,10318,7,GX,1,100,-1.465
1570470254.486854,62528.429,10318,7,GX,1,100,-2.289
1570470254.503630,62541.571,10318,7,GX,1,100,-3.479
1570470254.520405,62554.714,10318,7,GX,1,100,-3.326
1570470254.537180,62567.857,10318,7,GX,1,100,-3.876
1570470254.553956,62581.000,10318,7,GX,1,100,-4.547
1570470254.570549,62594.000,10336,8,GX,1,100,-3.418
1570470254.587142,62607.000,10336,8,GX,1,100,-2.502
1570470254.603734,62620.000,10336,8,GX,1,100,-3.510
1570470254.620327,62633.000,10336,8,GX,1,100,-2.869
1570470254.636920,62646.000,10336,8,GX,1,100,-2.808
1570470254.653513,62659.000,10336,8,GX,1,100,-2.930
1570470254.670106,62672.000,10336,8,GX,1,100,-3.113
1570470254.686699,62685.000,10336,8,GX,1,100,-4.059
1570470254.703133,62697.875,10354,8,GX,1,100,-4.791
1570470254.719566,62710.750,10354,8,GX,1,100,-5.432
1570470254.736000,62723.625,10354,8,GX,1,100,-3.540
1570470254.752433,62736.500,10354,8,GX,1,100,-1.251
1570470254.768866,62749.375,10354,8,GX,1,100,-1.251
1570470254.785300,62762.250,10354,8,GX,1,100,-5.615
1570470254.801733,62775.125,10354,8,GX,1,100,-4.608
1570470254.818166,62788.000,10354,8,GX,1,100,-5.066
1570470254.834919,62801.125,10372,8,GX,1,100,-4.913
1570470254.851672,62814.250,10372,8,GX,1,100,-4.639
1570470254.868424,62827.375,10372,8,GX,1,100,-5.280
1570470254.885177,62840.500,10372,8,GX,1,100,-3.967
1570470254.901929,62853.625,10372,8,GX,1,100,-2.502
1570470254.918682,62866.750,10372,8,GX,1,100,-1.373
1570470254.935434,62879.875,10372,8,GX,1,100,-2.472
1570470254.952187,62893.000,10372,8,GX,1,100,-2.716
1570470254.968962,62906.143,10390,7,GX,1,100,-2.594
1570470254.985737,62919.286,10390,7,GX,1,100,-2.716
1570470255.002512,62932.429,10390,7,GX,1,100,-2.441
1570470255.019288,62945.571,10390,7,GX,1,100,-2.655
1570470255.036063,62958.714,10390,7,GX,1,100,-2.441
1570470255.052838,62971.857,10390,7,GX,1,100,-0.031
1570470255.069614,62985.000,10390,7,GX,1,100,0.641
1570470255.086366,62998.125,10408,8,GX,1,100,-1.312
1570470255.103119,63011.250,10408,8,GX,1,100,-0.885
1570470255.119871,63024.375,10408,8,GX,1,100,-2.777
1570470255.136624,63037.500,10408,8,GX,1,100,-3.693
1570470255.153376,63050.625,10408,8,GX,1,100,-2.991
1570470255.170129,63063.750,10408,8,GX,1,100,-1.404
1570470255.186881,63076.875,10408,8,GX,1,100,0.488
1570470255.203634,63090.000,10408,8,GX,1,100,0.824
1570470255.220546,63103.250,10426,8,GX,1,100,1.312
1570470255.237458,63116.500,10426,8,GX,1,100,-0.366
1570470255.254370,63129.750,10426,8,GX,1,100,-2.319
1570470255.271282,63143.000,10426,8,GX,1,100,-2.258
1570470255.288194,63156.250,10426,8,GX,1,100,-2.991
1570470255.305106,63169.500,10426,8,GX,1,100,-2.319
1570470255.322018,63182.750,10426,8,GX,1,100,-1.495
1570470255.338930,63196.000,10426,8,GX,1,100,-0.519
1570470255.355888,63209.286,10444,7,GX,1,100,-1.709
1570470255.372845,63222.571,10444,7,GX,1,100,-0.397
1570470255.389803,63235.857,10444,7,GX,1,100,0.092
1570470255.406761,63249.143,10444,7,GX,1,100,-0.183
1570470255.423718,63262.429,10444,7,GX,1,100,0.244
1570470255.440676,63275.714,10444,7,GX,1,100,0.885
1570470255.457634,63289.000,10444,7,GX,1,100,2.594
1570470255.473907,63301.750,10461,8,GX,1,100,3.998
1570470255.490181,63314.500,10461,8,GX,1,100,3.296
1570470255.506455,63327.250,10461,8,GX,1,100,-1.160
1570470255.522729,63340.000,10461,8,GX,1,100,-1.587
1570470255.539003,63352.750,10461,8,GX,1,100,-0.763
1570470255.555277,63365.500,10461,8,GX,1,100,1.312
1570470255.571551,63378.250,10461,8,GX,1,100,1.801
1570470255.587825,63391.000,10461,8,GX,1,100,0.885
1570470255.604577,63404.125,10479,8,GX,1,100,-0.153
1570470255.621330,63417.250,10479,8,GX,1,100,-1.007
1570470255.638082,63430.375,10479,8,GX,1,100,-1.740
1570470255.654835,63443.500,10479,8,GX,1,100,2.075
1570470255.671587,63456.625,10479,8,GX,1,100,3.265
1570470255.688340,63469.750,10479,8,GX,1,100,2.380
1570470255.705092,63482.875,10479,8,GX,1,100,1.434
1570470255.721845,63496.000,10479,8,GX,1,100,-1.190
1570470255.738597,63509.125,10497,8,GX,1,100,-1.373
1570470255.755350,63522.250,10497,8,GX,1,100,1.404
1570470255.772102,63535.375,10497,8,GX,1,100,1.862
1570470255.788855,63548.500,10497,8,GX,1,100,2.106
1570470255.805607,63561.625,10497,8,GX,1,100,0.427
1570470255.822360,63574.750,10497,8,GX,1,100,-1.129
1570470255.839112,63587.875,10497,8,GX,1,100,-0.610
1570470255.855865,63601.000,10497,8,GX,1,100,0.793
1570470255.872458,63614.000,10515,7,GX,1,100,1.923
1570470255.889051,63627.000,10515,7,GX,1,100,2.228
1570470255.905644,63640.000,10515,7,GX,1,100,1.556
1570470255.922237,63653.000,10515,7,GX,1,100,0.977
1570470255.938830,63666.000,10515,7,GX,1,100,-1.770
1570470255.955422,63679.000,10515,7,GX,1,100,-3.265
1570470255.972015,63692.000,10515,7,GX,1,100,-2.441
1570470255.988608,63705.000,10533,8,GX,1,100,1.221
1570470256.005201,63718.000,10533,8,GX,1,100,1.373
1570470256.021794,63731.000,10533,8,GX,1,100,-0.519
1570470256.038387,63744.000,10533,8,GX,1,100,-3.815
1570470256.054980,63757.000,10533,8,GX,1,100,-2.686
1570470256.071573,63770.000,10533,8,GX,1,100,-0.580
1570470256.088166,63783.000,10533,8,GX,1,100,1.434
1570470256.104759,63796.000,10533,8,GX,1,100,1.221
1570470256.121671,63809.250,10551,8,GX,1,100,-2.411
1570470256.138583,63822.500,10551,8,GX,1,100,-2.686
1570470256.155495,63835.750,10551,8,GX,1,100,-2.930
1570470256.172407,63849.000,10551,8,GX,1,100,-3.998
1570470256.189319,63862.250,10551,8,GX,1,100,-0.214
1570470256.206232,63875.500,10551,8,GX,1,100,1.984
1570470256.223144,63888.750,10551,8,GX,1,100,4.059
1570470256.240056,63902.000,10551,8,GX,1,100,3.754
1570470256.257013,63915.286,10569,7,GX,1,100,0.763
1570470256.273971,63928.571,10569,7,GX,1,100,-1.617
1570470256.290929,63941.857,10569,7,GX,1,100,-3.296
1570470256.307886,63955.143,10569,7,GX,1,100,-2.991
1570470256.324844,63968.429,10569,7,GX,1,100,-0.031
1570470256.341801,63981.714,10569,7,GX,1,100,1.831
1570470256.358759,63995.000,10569,7,GX,1,100,0.916
1570470256.375352,64008.000,10587,8,GX,1,100,-1.862
1570470256.391945,64021.000,10587,8,GX,1,100,-1.434
1570470256.408538,64034.000,10587,8,GX,1,100,0.153
1570470256.425131,64047.000,10587,8,GX,1,100,1.709
1570470256.441724,64060.000,10587,8,GX,1,100,1.312
1570470256.458317,64073.000,10587,8,GX,1,100,-1.251
1570470256.474910,64086.000,10587,8,GX,1,100,-2.625
1570470256.491503,64099.000,10587,8,GX,1,100,-2.808
1570470256.507777,64111.750,10605,8,GX,1,100,-0.031
1570470256.524050,64124.500,10605,8,GX,1,100,2.319
1570470256.540324,64137.250,10605,8,GX,1,100,1.556
1570470256.556598,64150.000,10605,8,GX,1,100,-0.793
1570470256.572872,64162.750,10605,8,GX,1,100,-1.831
1570470256.589146,64175.500,10605,8,GX,1,100,-1.221
1570470256.605420,64188.250,10605,8,GX,1,100,0.122
1570470256.621694,64201.000,10605,8,GX,1,100,-0.946
1570470256.638287,64214.000,10624,8,GX,1,100,-0.854
1570470256.654880,64227.000,10624,8,GX,1,100,1.465
1570470256.671473,64240.000,10624,8,GX,1,100,0.946
1570470256.688066,64253.000,10624,8,GX,1,100,1.038
1570470256.704659,64266.000,10624,8,GX,1,100,1.434
1570470256.721251,64279.000,10624,8,GX,1,100,0.366
1570470256.737844,64292.000,10624,8,GX,1,100,-2.625
1570470256.754437,64305.000,10624,8,GX,1,100,0.610
1570470256.771030,64318.000,10642,8,GX,1,100,1.251
1570470256.787623,64331.000,10642,8,GX,1,100,1.434
1570470256.804216,64344.000,10642,8,GX,1,100,-0.519
1570470256.820809,64357.000,10642,8,GX,1,100,-1.373
1570470256.837402,64370.000,10642,8,GX,1,100,-2.960
1570470256.853995,64383.000,10642,8,GX,1,100,-1.038
1570470256.870588,64396.000,10642,8,GX,1,100,-0.122
1570470256.887181,64409.000,10642,8,GX,1,100,-0.580
1570470256.903774,64422.000,10660,7,GX,1,100,-1.801
1570470256.920367,64435.000,10660,7,GX,1,100,0.824
1570470256.936960,64448.000,10660,7,GX,1,100,1.556
1570470256.953553,64461.000,10660,7,GX,1,100,-3.479
1570470256.970146,64474.000,10660,7,GX,1,100,-4.639
1570470256.986739,64487.000,10660,7,GX,1,100,-0.183
1570470257.003332,64500.000,10660,7,GX,1,100,2.594
1570470257.020084,64513.125,10678,8,GX,1,100,3.754
1570470257.036837,64526.250,10678,8,GX,1,100,0.366
1570470257.053589,64539.375,10678,8,GX,1,100,1.038
1570470257.070342,64552.500,10678,8,GX,1,100,0.916
1570470257.087094,64565.625,10678,8,GX,1,100,-2.441
1570470257.103847,64578.750,10678,8,GX,1,100,-2.411
1570470257.120599,64591.875,10678,8,GX,1,100,-1.129
1570470257.137352,64605.000,10678,8,GX,1,100,1.526
1570470257.153785,64617.875,10696,8,GX,1,100,1.068
1570470257.170219,64630.750,10696,8,GX,1,100,-0.031
1570470257.186652,64643.625,10696,8,GX,1,100,-0.092
1570470257.203085,64656.500,10696,8,GX,1,100,0.763
1570470257.219519,64669.375,10696,8,GX,1,100,0.153
1570470257.235952,64682.250,10696,8,GX,1,100,-0.275
1570470257.252386,64695.125,10696,8,GX,1,100,-0.427
1570470257.268819,64708.000,10696,8,GX,1,100,-0.214
1570470257.285959,64721.429,10714,7,GX,1,100,-1.495
1570470257.303099,64734.857,10714,7,GX,1,100,-0.580
1570470257.320239,64748.286,10714,7,GX,1,100,2.380
1570470257.337379,64761.714,10714,7,GX,1,100,1.953
1570470257.354519,64775.143,10714,7,GX,1,100,0.183
1570470257.371659,64788.571,10714,7,GX,1,100,-1.526
1570470257.388799,64802.000,10714,7,GX,1,100,-1.556
1570470257.405392,64815.000,10732,8,GX,1,100,-1.801
1570470257.421985,64828.000,10732,8,GX,1,100,-2.930
1570470257.438578,64841.000,10732,8,GX,1,100,-2.655
1570470257.455171,64854.000,10732,8,GX,1,100,-0.275
1570470257.471764,64867.000,10732,8,GX,1,100,0.519
1570470257.488357,64880.000,10732,8,GX,1,100,0.763
1570470257.504950,64893.000,10732,8,GX,1,100,0.366
1570470257.521543,64906.000,10732,8,GX,1,100,0.824
1570470257.537976,64918.875,10750,8,GX,1,100,-0.092
1570470257.554410,64931.750,10750,8,GX,1,100,-1.373
1570470257.570843,64944.625,10750,8,GX,1,100,-1.221
1570470257.587276,64957.500,10750,8,GX,1,100,0.763
1570470257.603710,64970.375,10750,8,GX,1,100,0.580
1570470257.620143,64983.250,10750,8,GX,1,100,0.031
1570470257.636577,64996.125,10750,8,GX,1,100,-0.244
1570470257.653010,65009.000,10750,8,GX,1,100,-0.153
1570470257.669603,65022.000,10769,8,GX,1,100,0.244
1570470257.686196,65035.000,10769,8,GX,1,100,-1.129
1570470257.702789,65048.000,10769,8,GX,1,100,-3.143
1570470257.719382,65061.000,10769,8,GX,1,100,-1.495
1570470257.735975,65074.000,10769,8,GX,1,100,1.190
1570470257.752568,65087.000,10769,8,GX,1,100,-0.854
1570470257.769161,65100.000,10769,8,GX,1,100,-0.031
1570470257.785754,65113.000,10769,8,GX,1,100,2.411
1570470257.802506,65126.125,10787,8,GX,1,100,1.648
1570470257.819259,65139.250,10787,8,GX,1,100,-1.801
1570470257.836011,65152.375,10787,8,GX,1,100,-1.770
1570470257.852764,65165.500,10787,8,GX,1,100,1.984
1570470257.869516,65178.625,10787,8,GX,1,100,2.838
1570470257.886269,65191.750,10787,8,GX,1,100,-0.854
1570470257.903021,65204.875,10787,8,GX,1,100,-1.678
1570470257.919774,65218.000,10787,8,GX,1,100,0.153
1570470257.936367,65231.000,10805,7,GX,1,100,1.373
1570470257.952960,65244.000,10805,7,GX,1,100,1.495
1570470257.969553,65257.000,10805,7,GX,1,100,-0.427
1570470257.986145,65270.000,10805,7,GX,1,100,-3.693
1570470258.002738,65283.000,10805,7,GX,1,100,-3.632
1570470258.019331,65296.000,10805,7,GX,1,100,-0.031
1570470258.035924,65309.000,10805,7,GX,1,100,2.411
1570470258.052677,65322.125,10823,8,GX,1,100,1.434
1570470258.069429,65335.250,10823,8,GX,1,100,-2.411
1570470258.086182,65348.375,10823,8,GX,1,100,-2.258
1570470258.102934,65361.500,10823,8,GX,1,100,-1.404
1570470258.119687,65374.625,10823,8,GX,1,100,-0.275
1570470258.136440,65387.750,10823,8,GX,1,100,0.427
1570470258.153192,65400.875,10823,8,GX,1,100,-0.427
1570470258.169945,65414.000,10823,8,GX,1,100,-0.549
1570470258.186697,65427.125,10841,8,GX,1,100,0.153
1570470258.203449,65440.250,10841,8,GX,1,100,0.366
1570470258.220202,65453.375,10841,8,GX,1,100,-0.824
1570470258.236954,65466.500,10841,8,GX,1,100,-1.068
1570470258.253707,65479.625,10841,8,GX,1,100,0.000
1570470258.270459,65492.750,10841,8,GX,1,100,1.129
1570470258.287212,65505.875,10841,8,GX,1,100,0.824
1570470258.303965,65519.000,10841,8,GX,1,100,-0.732
1570470258.320922,65532.286,10859,7,GX,1,100,-0.397
1570470258.337880,65545.571,10859,7,GX,1,100,0.092
1570470258.354837,65558.857,10859,7,GX,1,100,0.519
1570470258.371795,65572.143,10859,7,GX,1,100,-0.977
1570470258.388753,65585.429,10859,7,GX,1,100,-1.892
1570470258.405710,65598.714,10859,7,GX,1,100,-1.251
1570470258.422668,65612.000,10859,7,GX,1,100,-0.092
1570470258.439101,65624.875,10876,8,GX,1,100,0.244
1570470258.455535,65637.750,10876,8,GX,1,100,0.397
1570470258.471968,65650.625,10876,8,GX,1,100,-0.092
1570470258.488402,65663.500,10876,8,GX,1,100,-1.923
1570470258.504835,65676.375,10876,8,GX,1,100,-0.671
1570470258.521268,65689.250,10876,8,GX,1,100,-2.075
1570470258.537702,65702.125,10876,8,GX,1,100,-1.678
1570470258.554135,65715.000,10876,8,GX,1,100,-1.038
1570470258.570888,65728.125,10895,8,GX,1,100,-1.068
1570470258.587640,65741.250,10895,8,GX,1,100,-3.052
1570470258.604393,65754.375,10895,8,GX,1,100,-1.129
1570470258.621145,65767.500,10895,8,GX,1,100,0.610
1570470258.637898,65780.625,10895,8,GX,1,100,2.289
1570470258.654650,65793.750,10895,8,GX,1,100,0.244
1570470258.671403,65806.875,10895,8,GX,1,100,-0.977
1570470258.688155,65820.000,10895,8,GX,1,100,-2.777
1570470258.704589,65832.875,10913,8,GX,1,100,-2.197
1570470258.721022,65845.750,10913,8,GX,1,100,-1.648
1570470258.737456,65858.625,10913,8,GX,1,100,0.366
1570470258.753889,65871.500,10913,8,GX,1,100,0.000
1570470258.770322,65884.375,10913,8,GX,1,100,1.007
1570470258.786756,65897.250,10913,8,GX,1,100,1.678
1570470258.803189,65910.125,10913,8,GX,1,100,0.793
1570470258.819623,65923.000,10913,8,GX,1,100,-0.580
1570470258.836216,65936.000,10931,7,GX,1,100,-0.793
1570470258.852808,65949.000,10931,7,GX,1,100,-0.854
1570470258.869401,65962.000,10931,7,GX,1,100,-1.709
1570470258.885994,65975.000,10931,7,GX,1,100,-0.885
1570470258.902587,65988.000,10931,7,GX,1,100,0.153
1570470258.919180,66001.000,10931,7,GX,1,100,1.190
1570470258.935773,66014.000,10931,7,GX,1,100,-1.495
1570470258.952563,66027.154,10952,13,GX,1,100,-2.014
1570470258.969352,66040.308,10952,13,GX,1,100,-1.587
1570470258.986141,66053.462,10952,13,GX,1,100,1.251
1570470259.002931,66066.615,10952,13,GX,1,100,1.129
1570470259.019720,66079.769,10952,13,GX,1,100,-0.305
1570470259.036509,66092.923,10952,13,GX,1,100,-1.282
1570470259.053299,66106.077,10952,13,GX,1,100,-0.305
1570470259.070088,66119.231,10952,13,GX,1,100,3.265
1570470259.086877,66132.385,10952,13,GX,1,100,2.258
1570470259.103667,66145.538,10952,13,GX,1,100,0.458
1570470259.120456,66158.692,10952,13,GX,1,100,-2.838
1570470259.137245,66171.846,10952,13,GX,1,100,-2.960
1570470259.154035,66185.000,10952,13,GX,1,100,-1.282
1570470259.170628,66198.000,10972,7,GX,1,100,0.244
1570470259.187221,66211.000,10972,7,GX,1,100,-0.763
1570470259.203814,66224.000,10972,7,GX,1,100,-2.136
1570470259.220407,66237.000,10972,7,GX,1,100,-1.587
1570470259.237000,66250.000,10972,7,GX,1,100,-0.458
1570470259.253592,66263.000,10972,7,GX,1,100,-0.275
1570470259.270185,66276.000,10972,7,GX,1,100,-1.984
1570470259.287097,66289.250,10990,8,GX,1,100,-1.495
1570470259.304009,66302.500,10990,8,GX,1,100,-0.671
1570470259.320921,66315.750,10990,8,GX,1,100,-0.916
1570470259.337834,66329.000,10990,8,GX,1,100,-1.221
1570470259.354746,66342.250,10990,8,GX,1,100,-2.106
1570470259.371658,66355.500,10990,8,GX,1,100,-1.617
1570470259.388570,66368.750,10990,8,GX,1,100,-0.122
1570470259.405482,66382.000,10990,8,GX,1,100,2.014
1570470259.422075,66395.000,11008,8,GX,1,100,0.824
1570470259.438668,66408.000,11008,8,GX,1,100,-0.671
1570470259.455261,66421.000,11008,8,GX,1,100,-2.716
1570470259.471854,66434.000,11008,8,GX,1,100,-2.045
1570470259.488446,66447.000,11008,8,GX,1,100,-0.153
1570470259.505039,66460.000,11008,8,GX,1,100,0.671
1570470259.521632,66473.000,11008,8,GX,1,100,0.336
1570470259.538225,66486.000,11008,8,GX,1,100,-0.122
1570470259.554499,66498.750,11026,8,GX,1,100,1.770
1570470259.570773,66511.500,11026,8,GX,1,100,2.319
1570470259.587047,66524.250,11026,8,GX,1,100,1.068
1570470259.603321,66537.000,11026,8,GX,1,100,-2.380
1570470259.619595,66549.750,11026,8,GX,1,100,-2.594
1570470259.635869,66562.500,11026,8,GX,1,100,-2.289
1570470259.652143,66575.250,11026,8,GX,1,100,1.007
1570470259.668416,66588.000,11026,8,GX,1,100,1.282
1570470259.685192,66601.143,11045,7,GX,1,100,-1.404
1570470259.701967,66614.286,11045,7,GX,1,100,-2.655
1570470259.718742,66627.429,11045,7,GX,1,100,-1.648
1570470259.735518,66640.571,11045,7,GX,1,100,3.815
1570470259.752293,66653.714,11045,7,GX,1,100,3.906
1570470259.769068,66666.857,11045,7,GX,1,100,1.434
1570470259.785843,66680.000,11045,7,GX,1,100,-2.289
1570470259.802277,66692.875,11063,8,GX,1,100,-3.387
1570470259.818710,66705.750,11063,8,GX,1,100,-0.854
1570470259.835144,66718.625,11063,8,GX,1,100,1.404
1570470259.851577,66731.500,11063,8,GX,1,100,0.580
1570470259.868011,66744.375,11063,8,GX,1,100,-0.397
1570470259.884444,66757.250,11063,8,GX,1,100,0.854
1570470259.900877,66770.125,11063,8,GX,1,100,2.197
1570470259.917311,66783.000,11063,8,GX,1,100,2.380
1570470259.933904,66796.000,11081,8,GX,1,100,0.519
1570470259.950497,66809.000,11081,8,GX,1,100,-1.526
1570470259.967090,66822.000,11081,8,GX,1,100,-2.228
1570470259.983683,66835.000,11081,8,GX,1,100,-0.824
1570470260.000276,66848.000,11081,8,GX,1,100,0.946
1570470260.016869,66861.000,11081,8,GX,1,100,2.838
1570470260.033462,66874.000,11081,8,GX,1,100,2.594
1570470260.050055,66887.000,11081,8,GX,1,100,1.801
1570470260.066807,66900.125,11099,8,GX,1,100,1.831
1570470260.083560,66913.250,11099,8,GX,1,100,0.458
1570470260.100312,66926.375,11099,8,GX,1,100,-0.763
1570470260.117064,66939.500,11099,8,GX,1,100,-1.343
1570470260.133817,66952.625,11099,8,GX,1,100,0.549
1570470260.150569,66965.750,11099,8,GX,1,100,2.838
1570470260.167322,66978.875,11099,8,GX,1,100,1.831
1570470260.184074,66992.000,11099,8,GX,1,100,-0.061
1570470260.200485,67004.857,11117,7,GX,1,100,-3.967
1570470260.216896,67017.714,11117,7,GX,1,100,-4.364
1570470260.233306,67030.571,11117,7,GX,1,100,-3.723
1570470260.249717,67043.429,11117,7,GX,1,100,-4.120
1570470260.266128,67056.286,11117,7,GX,1,100,-1.251
1570470260.282538,67069.143,11117,7,GX,1,100,0.549
1570470260.298949,67082.000,11117,7,GX,1,100,0.763
1570470260.315701,67095.125,11135,8,GX,1,100,-0.061
1570470260.332454,67108.250,11135,8,GX,1,100,-0.336
1570470260.349206,67121.375,11135,8,GX,1,100,-0.244
1570470260.365959,67134.500,11135,8,GX,1,100,0.336
1570470260.382711,67147.625,11135,8,GX,1,100,0.366
1570470260.399464,67160.750,11135,8,GX,1,100,-1.129
1570470260.416216,67173.875,11135,8,GX,1,100,-2.350
1570470260.432969,67187.000,11135,8,GX,1,100,-0.610
1570470260.449721,67200.125,11153,8,GX,1,100,0.763
1570470260.466474,67213.250,11153,8,GX,1,100,0.610
1570470260.483227,67226.375,11153,8,GX,1,100,0.580
1570470260.499979,67239.500,11153,8,GX,1,100,3.510
1570470260.516732,67252.625,11153,8,GX,1,100,3.540
1570470260.533484,67265.750,11153,8,GX,1,100,0.824
1570470260.550236,67278.875,11153,8,GX,1,100,-0.824
1570470260.566989,67292.000,11153,8,GX,1,100,-0.732
1570470260.583422,67304.875,11171,8,GX,1,100,-0.122
1570470260.599856,67317.750,11171,8,GX,1,100,0.336
1570470260.616289,67330.625,11171,8,GX,1,100,1.556
1570470260.632723,67343.500,11171,8,GX,1,100,2.167
1570470260.649156,67356.375,11171,8,GX,1,100,-1.404
1570470260.665589,67369.250,11171,8,GX,1,100,-2.594
1570470260.682023,67382.125,11171,8,GX,1,100,-1.709
1570470260.698456,67395.000,11171,8,GX,1,100,-1.007
1570470260.715049,67408.000,11190,7,GX,1,100,-0.122
1570470260.731642,67421.000,11190,7,GX,1,100,0.214
1570470260.748235,67434.000,11190,7,GX,1,100,-0.732
1570470260.764828,67447.000,11190,7,GX,1,100,-1.312
1570470260.781421,67460.000,11190,7,GX,1,100,1.404
1570470260.798014,67473.000,11190,7,GX,1,100,2.197
1570470260.814607,67486.000,11190,7,GX,1,100,3.937
1570470260.831359,67499.125,11207,8,GX,1,100,1.587
1570470260.848112,67512.250,11207,8,GX,1,100,-0.214
1570470260.864865,67525.375,11207,8,GX,1,100,-1.465
1570470260.881617,67538.500,11207,8,GX,1,100,0.610
1570470260.898370,67551.625,11207,8,GX,1,100,1.740
1570470260.915122,67564.750,11207,8,GX,1,100,1.129
1570470260.931875,67577.875,11207,8,GX,1,100,0.061
1570470260.948627,67591.000,11207,8,GX,1,100,-0.580
1570470260.965379,67604.125,11225,8,GX,1,100,0.336
1570470260.982132,67617.250,11225,8,GX,1,100,1.770
1570470260.998885,67630.375,11225,8,GX,1,100,1.740
1570470261.015637,67643.500,11225,8,GX,1,100,0.916
1570470261.032390,67656.625,11225,8,GX,1,100,0.092
1570470261.049142,67669.750,11225,8,GX,1,100,-0.641
1570470261.065895,67682.875,11225,8,GX,1,100,0.275
1570470261.082647,67696.000,11225,8,GX,1,100,1.099
1570470261.099400,67709.125,11243,8,GX,1,100,-0.092
1570470261.116152,67722.250,11243,8,GX,1,100,-1.404
1570470261.132905,67735.375,11243,8,GX,1,100,-1.129
1570470261.149657,67748.500,11243,8,GX,1,100,-0.061
1570470261.166410,67761.625,11243,8,GX,1,100,-1.251
1570470261.183162,67774.750,11243,8,GX,1,100,-1.099
1570470261.199915,67787.875,11243,8,GX,1,100,0.488
1570470261.216667,67801.000,11243,8,GX,1,100,1.373
1570470261.233443,67814.143,11261,7,GX,1,100,0.031
1570470261.250218,67827.286,11261,7,GX,1,100,-2.380
1570470261.266993,67840.429,11261,7,GX,1,100,-2.106
1570470261.283768,67853.571,11261,7,GX,1,100,0.427
1570470261.300544,67866.714,11261,7,GX,1,100,0.458
1570470261.317319,67879.857,11261,7,GX,1,100,-3.265
1570470261.334094,67893.000,11261,7,GX,1,100,-4.456
1570470261.350847,67906.125,11279,8,GX,1,100,-0.793
1570470261.367599,67919.250,11279,8,GX,1,100,0.610
1570470261.384352,67932.375,11279,8,GX,1,100,-0.763
1570470261.401104,67945.500,11279,8,GX,1,100,-1.862
1570470261.417857,67958.625,11279,8,GX,1,100,-0.671
1570470261.434609,67971.750,11279,8,GX,1,100,2.380
1570470261.451362,67984.875,11279,8,GX,1,100,3.052
1570470261.468114,67998.000,11279,8,GX,1,100,0.336
1570470261.485072,68011.286,11297,7,GX,1,100,-4.272
1570470261.502030,68024.571,11297,7,GX,1,100,-4.242
1570470261.518987,68037.857,11297,7,GX,1,100,-2.869
1570470261.535945,68051.143,11297,7,GX,1,100,1.373
1570470261.552902,68064.429,11297,7,GX,1,100,1.129
1570470261.569860,68077.714,11297,7,GX,1,100,-0.671
1570470261.586818,68091.000,11297,7,GX,1,100,-4.181
1570470261.603570,68104.125,11314,8,GX,1,100,-3.662
1570470261.620323,68117.250,11314,8,GX,1,100,0.977
1570470261.637075,68130.375,11314,8,GX,1,100,3.204
1570470261.653828,68143.500,11314,8,GX,1,100,0.549
1570470261.670580,68156.625,11314,8,GX,1,100,-1.556
1570470261.687333,68169.750,11314,8,GX,1,100,-1.495
1570470261.704085,68182.875,11314,8,GX,1,100,-0.824
1570470261.720838,68196.000,11314,8,GX,1,100,1.770
1570470261.737590,68209.125,11332,8,GX,1,100,-0.488
1570470261.754343,68222.250,11332,8,GX,1,100,-2.350
1570470261.771096,68235.375,11332,8,GX,1,100,-4.578
1570470261.787848,68248.500,11332,8,GX,1,100,-2.716
1570470261.804600,68261.625,11332,8,GX,1,100,0.671
1570470261.821353,68274.750,11332,8,GX,1,100,4.303
1570470261.838105,68287.875,11332,8,GX,1,100,1.068
1570470261.854858,68301.000,11332,8,GX,1,100,-1.526
1570470261.871132,68313.750,11350,8,GX,1,100,-0.824
1570470261.887406,68326.500,11350,8,GX,1,100,2.808
1570470261.903680,68339.250,11350,8,GX,1,100,3.815
1570470261.919953,68352.000,11350,8,GX,1,100,4.913
1570470261.936227,68364.750,11350,8,GX,1,100,2.899
1570470261.952501,68377.500,11350,8,GX,1,100,3.845
1570470261.968775,68390.250,11350,8,GX,1,100,-3.113
1570470261.985049,68403.000,11350,8,GX,1,100,-3.693
1570470262.001642,68416.000,11368,7,GX,1,100,-1.770
1570470262.018235,68429.000,11368,7,GX,1,100,-1.038
1570470262.034828,68442.000,11368,7,GX,1,100,-2.380
1570470262.051421,68455.000,11368,7,GX,1,100,-2.045
1570470262.068014,68468.000,11368,7,GX,1,100,2.197
1570470262.084607,68481.000,11368,7,GX,1,100,4.028
1570470262.101200,68494.000,11368,7,GX,1,100,2.045
1570470262.117952,68507.125,11386,8,GX,1,100,-1.770
1570470262.134705,68520.250,11386,8,GX,1,100,-2.533
1570470262.151457,68533.375,11386,8,GX,1,100,-0.580
1570470262.168210,68546.500,11386,8,GX,1,100,1.556
1570470262.184962,68559.625,11386,8,GX,1,100,6.683
1570470262.201715,68572.750,11386,8,GX,1,100,6.226
1570470262.218467,68585.875,11386,8,GX,1,100,3.082
1570470262.235220,68599.000,11386,8,GX,1,100,1.465
1570470262.252132,68612.250,11404,8,GX,1,100,-0.946
1570470262.269044,68625.500,11404,8,GX,1,100,-2.930
1570470262.285956,68638.750,11404,8,GX,1,100,-2.350
1570470262.302868,68652.000,11404,8,GX,1,100,-1.221
1570470262.319780,68665.250,11404,8,GX,1,100,-3.052
1570470262.336692,68678.500,11404,8,GX,1,100,-3.662
1570470262.353604,68691.750,11404,8,GX,1,100,-3.937
1570470262.370516,68705.000,11404,8,GX,1,100,-5.676
1570470262.387109,68718.000,11422,8,GX,1,100,-8.575
1570470262.403702,68731.000,11422,8,GX,1,100,-5.981
1570470262.420295,68744.000,11422,8,GX,1,100,-3.387
1570470262.436888,68757.000,11422,8,GX,1,100,-3.052
1570470262.453481,68770.000,11422,8,GX,1,100,-2.899
1570470262.470074,68783.000,11422,8,GX,1,100,-2.716
1570470262.486667,68796.000,11422,8,GX,1,100,-2.991
1570470262.503260,68809.000,11422,8,GX,1,100,-3.204
1570470262.520035,68822.143,11440,7,GX,1,100,-2.472
1570470262.536810,68835.286,11440,7,GX,1,100,-1.099
1570470262.553586,68848.429,11440,7,GX,1,100,-1.190
1570470262.570361,68861.571,11440,7,GX,1,100,-1.587
1570470262.587136,68874.714,11440,7,GX,1,100,-3.265
1570470262.603912,68887.857,11440,7,GX,1,100,-3.296
1570470262.620687,68901.000,11440,7,GX,1,100,-2.930
1570470262.637280,68914.000,11459,8,GX,1,100,-1.831
1570470262.653873,68927.000,11459,8,GX,1,100,0.092
1570470262.670466,68940.000,11459,8,GX,1,100,2.136
1570470262.687059,68953.000,11459,8,GX,1,100,-2.075
1570470262.703652,68966.000,11459,8,GX,1,100,-3.845
1570470262.720245,68979.000,11459,8,GX,1,100,-2.075
1570470262.736838,68992.000,11459,8,GX,1,100,2.563
1570470262.753431,69005.000,11459,8,GX,1,100,2.350
1570470262.770024,69018.000,11477,8,GX,1,100,-0.854
1570470262.786617,69031.000,11477,8,GX,1,100,-3.510
1570470262.803209,69044.000,11477,8,GX,1,100,-4.150
1570470262.819802,69057.000,11477,8,GX,1,100,-1.678
1570470262.836395,69070.000,11477,8,GX,1,100,2.991
1570470262.852988,69083.000,11477,8,GX,1,100,-5.219
1570470262.869581,69096.000,11477,8,GX,1,100,-8.026
1570470262.886174,69109.000,11477,8,GX,1,100,4.059
1570470262.902448,69121.750,11495,8,GX,1,100,5.035
1570470262.918722,69134.500,11495,8,GX,1,100,1.678
1570470262.934996,69147.250,11495,8,GX,1,100,-1.221
1570470262.951270,69160.000,11495,8,GX,1,100,0.427
1570470262.967544,69172.750,11495,8,GX,1,100,4.059
1570470262.983817,69185.500,11495,8,GX,1,100,4.272
1570470263.000091,69198.250,11495,8,GX,1,100,4.639
1570470263.016365,69211.000,11495,8,GX,1,100,-1.923
1570470263.032958,69224.000,11513,8,GX,1,100,-5.859
1570470263.049551,69237.000,11513,8,GX,1,100,-7.660
1570470263.066144,69250.000,11513,8,GX,1,100,-3.815
1570470263.082737,69263.000,11513,8,GX,1,100,-0.763
1570470263.099330,69276.000,11513,8,GX,1,100,-0.244
1570470263.115923,69289.000,11513,8,GX,1,100,-1.343
1570470263.132516,69302.000,11513,8,GX,1,100,-1.465
1570470263.149109,69315.000,11513,8,GX,1,100,-1.678
1570470263.165519,69327.857,11531,7,GX,1,100,-0.031
1570470263.181930,69340.714,11531,7,GX,1,100,2.533
1570470263.198341,69353.571,11531,7,GX,1,100,2.594
1570470263.214751,69366.429,11531,7,GX,1,100,2.319
1570470263.231162,69379.286,11531,7,GX,1,100,2.502
1570470263.247572,69392.143,11531,7,GX,1,100,6.134
1570470263.263983,69405.000,11531,7,GX,1,100,6.683
1570470263.280895,69418.250,11549,8,GX,1,100,5.066
1570470263.297807,69431.500,11549,8,GX,1,100,7.294
1570470263.314719,69444.750,11549,8,GX,1,100,7.843
1570470263.331631,69458.000,11549,8,GX,1,100,9.430
1570470263.348543,69471.250,11549,8,GX,1,100,8.911
1570470263.365455,69484.500,11549,8,GX,1,100,7.172
1570470263.382368,69497.750,11549,8,GX,1,100,3.357
1570470263.399280,69511.000,11549,8,GX,1,100,2.625
1570470263.415873,69524.000,11567,8,GX,1,100,2.686
1570470263.432466,69537.000,11567,8,GX,1,100,-0.885
1570470263.449059,69550.000,11567,8,GX,1,100,0.092
1570470263.465652,69563.000,11567,8,GX,1,100,1.129
1570470263.482244,69576.000,11567,8,GX,1,100,1.678
1570470263.498837,69589.000,11567,8,GX,1,100,-1.007
1570470263.515430,69602.000,11567,8,GX,1,100,-1.068
1570470263.532023,69615.000,11567,8,GX,1,100,0.610
1570470263.548981,69628.286,11585,7,GX,1,100,0.458
1570470263.565938,69641.571,11585,7,GX,1,100,0.610
1570470263.582896,69654.857,11585,7,GX,1,100,-0.641
1570470263.599854,69668.143,11585,7,GX,1,100,-1.068
1570470263.616812,69681.429,11585,7,GX,1,100,-5.768
1570470263.633769,69694.714,11585,7,GX,1,100,-9.827
1570470263.650727,69708.000,11585,7,GX,1,100,-10.742
1570470263.667160,69720.875,11604,8,GX,1,100,-11.871
1570470263.683594,69733.750,11604,8,GX,1,100,-12.177
1570470263.700027,69746.625,11604,8,GX,1,100,-12.177
1570470263.716460,69759.500,11604,8,GX,1,100,-10.223
1570470263.732894,69772.375,11604,8,GX,1,100,-11.292
1570470263.749327,69785.250,11604,8,GX,1,100,-11.688
1570470263.765761,69798.125,11604,8,GX,1,100,-9.308
1570470263.782194,69811.000,11604,8,GX,1,100,-5.035
1570470263.798947,69824.125,11622,8,GX,1,100,-2.777
1570470263.815699,69837.250,11622,8,GX,1,100,-0.061
1570470263.832452,69850.375,11622,8,GX,1,100,-4.181
1570470263.849204,69863.500,11622,8,GX,1,100,-3.784
1570470263.865957,69876.625,11622,8,GX,1,100,-6.622
1570470263.882709,69889.750,11622,8,GX,1,100,-2.380
1570470263.899462,69902.875,11622,8,GX,1,100,-7.141
1570470263.916214,69916.000,11622,8,GX,1,100,-2.777
1570470263.932647,69928.875,11640,8,GX,1,100,-4.791
1570470263.949081,69941.750,11640,8,GX,1,100,-2.502
1570470263.965514,69954.625,11640,8,GX,1,100,-3.113
1570470263.981948,69967.500,11640,8,GX,1,100,-3.143
1570470263.998381,69980.375,11640,8,GX,1,100,-1.373
1570470264.014815,69993.250,11640,8,GX,1,100,1.099
1570470264.031248,70006.125,11640,8,GX,1,100,1.617
1570470264.047681,70019.000,11640,8,GX,1,100,2.106
1570470264.064274,70032.000,11658,8,GX,1,100,1.892
1570470264.080867,70045.000,11658,8,GX,1,100,1.251
1570470264.097460,70058.000,11658,8,GX,1,100,-2.228
1570470264.114053,70071.000,11658,8,GX,1,100,-2.411
1570470264.130646,70084.000,11658,8,GX,1,100,-1.099
1570470264.147239,70097.000,11658,8,GX,1,100,-1.251
1570470264.163832,70110.000,11658,8,GX,1,100,-1.434
1570470264.180425,70123.000,11658,8,GX,1,100,-2.716
1570470264.197200,70136.143,11676,7,GX,1,100,-2.136
1570470264.213976,70149.286,11676,7,GX,1,100,-1.801
1570470264.230751,70162.429,11676,7,GX,1,100,-1.862
1570470264.247526,70175.571,11676,7,GX,1,100,-0.641
1570470264.264302,70188.714,11676,7,GX,1,100,-1.221
1570470264.281077,70201.857,11676,7,GX,1,100,-2.899
1570470264.297852,70215.000,11676,7,GX,1,100,-4.181
1570470264.314764,70228.250,11694,8,GX,1,100,-4.456
1570470264.331676,70241.500,11694,8,GX,1,100,-4.578
1570470264.348588,70254.750,11694,8,GX,1,100,-4.486
1570470264.365500,70268.000,11694,8,GX,1,100,-4.639
1570470264.382412,70281.250,11694,8,GX,1,100,-1.068
1570470264.399324,70294.500,11694,8,GX,1,100,-0.458
1570470264.416237,70307.750,11694,8,GX,1,100,-1.495
1570470264.433149,70321.000,11694,8,GX,1,100,-2.350
1570470264.449924,70334.143,11712,7,GX,1,100,-2.136
1570470264.466699,70347.286,11712,7,GX,1,100,-1.312
1570470264.483474,70360.429,11712,7,GX,1,100,0.580
1570470264.500250,70373.571,11712,7,GX,1,100,0.244
1570470264.517025,70386.714,11712,7,GX,1,100,0.946
1570470264.533800,70399.857,11712,7,GX,1,100,0.397
1570470264.550576,70413.000,11712,7,GX,1,100,-0.275
1570470264.567488,70426.250,11729,8,GX,1,100,-1.404
1570470264.584400,70439.500,11729,8,GX,1,100,-1.831
1570470264.601312,70452.750,11729,8,GX,1,100,-1.526
1570470264.618224,70466.000,11729,8,GX,1,100,-1.740
1570470264.635136,70479.250,11729,8,GX,1,100,-2.411
1570470264.652048,70492.500,11729,8,GX,1,100,-2.655
1570470264.668960,70505.750,11729,8,GX,1,100,-2.625
1570470264.685872,70519.000,11729,8,GX,1,100,-3.845
1570470264.702465,70532.000,11748,8,GX,1,100,-3.448
1570470264.719058,70545.000,11748,8,GX,1,100,-3.479
1570470264.735651,70558.000,11748,8,GX,1,100,-3.448
1570470264.752244,70571.000,11748,8,GX,1,100,-3.265
1570470264.768837,70584.000,11748,8,GX,1,100,-1.282
1570470264.785430,70597.000,11748,8,GX,1,100,1.068
1570470264.802023,70610.000,11748,8,GX,1,100,1.190
1570470264.818616,70623.000,11748,8,GX,1,100,-1.251
1570470264.835368,70636.125,11766,8,GX,1,100,-2.747
1570470264.852121,70649.250,11766,8,GX,1,100,-2.899
1570470264.868873,70662.375,11766,8,GX,1,100,-0.916
1570470264.885626,70675.500,11766,8,GX,1,100,-0.427
1570470264.902378,70688.625,11766,8,GX,1,100,2.319
1570470264.919131,70701.750,11766,8,GX,1,100,0.427
1570470264.935883,70714.875,11766,8,GX,1,100,-1.221
1570470264.952636,70728.000,11766,8,GX,1,100,-2.411
1570470264.969229,70741.000,11784,7,GX,1,100,0.702
1570470264.985822,70754.000,11784,7,GX,1,100,1.648
1570470265.002415,70767.000,11784,7,GX,1,100,0.854
1570470265.019008,70780.000,11784,7,GX,1,100,-1.129
1570470265.035601,70793.000,11784,7,GX,1,100,-2.808
1570470265.052194,70806.000,11784,7,GX,1,100,-4.974
1570470265.068787,70819.000,11784,7,GX,1,100,-4.669
1570470265.085539,70832.125,11802,8,GX,1,100,-1.007
1570470265.102292,70845.250,11802,8,GX,1,100,0.092
1570470265.119044,70858.375,11802,8,GX,1,100,-1.587
1570470265.135797,70871.500,11802,8,GX,1,100,-1.312
1570470265.152549,70884.625,11802,8,GX,1,100,-0.427
1570470265.169302,70897.750,11802,8,GX,1,100,0.153
1570470265.186054,70910.875,11802,8,GX,1,100,-1.343
1570470265.202807,70924.000,11802,8,GX,1,100,-3.448
1570470265.219240,70936.875,11820,8,GX,1,100,-3.693
1570470265.235673,70949.750,11820,8,GX,1,100,-2.167
1570470265.252107,70962.625,11820,8,GX,1,100,-0.549
1570470265.268540,70975.500,11820,8,GX,1,100,-0.824
1570470265.284974,70988.375,11820,8,GX,1,100,-2.563
1570470265.301407,71001.250,11820,8,GX,1,100,-3.174
1570470265.317841,71014.125,11820,8,GX,1,100,-2.197
1570470265.334274,71027.000,11820,8,GX,1,100,0.854
1570470265.351596,71040.571,11838,7,GX,1,100,-0.702
1570470265.368919,71054.143,11838,7,GX,1,100,-1.740
1570470265.386241,71067.714,11838,7,GX,1,100,-3.571
1570470265.403563,71081.286,11838,7,GX,1,100,-2.930
1570470265.420886,71094.857,11838,7,GX,1,100,-1.556
1570470265.438208,71108.429,11838,7,GX,1,100,0.153
1570470265.455530,71122.000,11838,7,GX,1,100,-1.770
1570470265.472025,71134.923,11859,13,GX,1,100,-2.869
1570470265.488520,71147.846,11859,13,GX,1,100,-2.289
1570470265.505015,71160.769,11859,13,GX,1,100,-1.373
1570470265.521509,71173.692,11859,13,GX,1,100,0.610
1570470265.538004,71186.615,11859,13,GX,1,100,-0.122
1570470265.554499,71199.538,11859,13,GX,1,100,-0.671
1570470265.570994,71212.462,11859,13,GX,1,100,-2.228
1570470265.587488,71225.385,11859,13,GX,1,100,0.366
1570470265.603983,71238.308,11859,13,GX,1,100,-1.160
1570470265.620478,71251.231,11859,13,GX,1,100,-1.617
1570470265.636973,71264.154,11859,13,GX,1,100,-2.167
1570470265.653468,71277.077,11859,13,GX,1,100,-0.549
1570470265.669962,71290.000,11859,13,GX,1,100,-0.610
1570470265.686555,71303.000,11880,7,GX,1,100,0.519
1570470265.703148,71316.000,11880,7,GX,1,100,0.641
1570470265.719741,71329.000,11880,7,GX,1,100,0.671
1570470265.736334,71342.000,11880,7,GX,1,100,-0.183
1570470265.752927,71355.000,11880,7,GX,1,100,0.061
1570470265.769520,71368.000,11880,7,GX,1,100,0.275
1570470265.786113,71381.000,11880,7,GX,1,100,-0.031
1570470265.802547,71393.875,11898,8,GX,1,100,0.092
1570470265.818980,71406.750,11898,8,GX,1,100,0.610
1570470265.835413,71419.625,11898,8,GX,1,100,0.549
1570470265.851847,71432.500,11898,8,GX,1,100,1.648
1570470265.868280,71445.375,11898,8,GX,1,100,-0.458
1570470265.884713,71458.250,11898,8,GX,1,100,-0.977
1570470265.901147,71471.125,11898,8,GX,1,100,-0.153
1570470265.917580,71484.000,11898,8,GX,1,100,0.610
1570470265.934173,71497.000,11916,8,GX,1,100,1.617
1570470265.950766,71510.000,11916,8,GX,1,100,2.441
1570470265.967359,71523.000,11916,8,GX,1,100,1.709
1570470265.983952,71536.000,11916,8,GX,1,100,-0.153
1570470266.000545,71549.000,11916,8,GX,1,100,0.916
1570470266.017138,71562.000,11916,8,GX,1,100,1.495
1570470266.033731,71575.000,11916,8,GX,1,100,1.465
1570470266.050324,71588.000,11916,8,GX,1,100,0.580
1570470266.066757,71600.875,11934,8,GX,1,100,0.214
1570470266.083191,71613.750,11934,8,GX,1,100,0.153
1570470266.099624,71626.625,11934,8,GX,1,100,-0.122
1570470266.116058,71639.500,11934,8,GX,1,100,0.275
1570470266.132491,71652.375,11934,8,GX,1,100,0.122
1570470266.148925,71665.250,11934,8,GX,1,100,0.824
1570470266.165358,71678.125,11934,8,GX,1,100,0.580
1570470266.181791,71691.000,11934,8,GX,1,100,-0.092
1570470266.198225,71703.875,11952,8,GX,1,100,0.641
1570470266.214658,71716.750,11952,8,GX,1,100,1.129
1570470266.231091,71729.625,11952,8,GX,1,100,0.854
1570470266.247525,71742.500,11952,8,GX,1,100,0.214
1570470266.263958,71755.375,11952,8,GX,1,100,-0.214
1570470266.280392,71768.250,11952,8,GX,1,100,0.275
1570470266.296825,71781.125,11952,8,GX,1,100,0.031
1570470266.313259,71794.000,11952,8,GX,1,100,0.763
1570470266.329852,71807.000,11970,7,GX,1,100,-0.458
1570470266.346445,71820.000,11970,7,GX,1,100,-0.916
1570470266.363038,71833.000,11970,7,GX,1,100,-0.458
1570470266.379631,71846.000,11970,7,GX,1,100,1.068
1570470266.396223,71859.000,11970,7,GX,1,100,0.732
1570470266.412816,71872.000,11970,7,GX,1,100,0.214
1570470266.429409,71885.000,11970,7,GX,1,100,-0.671
1570470266.446162,71898.125,11988,8,GX,1,100,-1.129
1570470266.462914,71911.250,11988,8,GX,1,100,-0.397
1570470266.479667,71924.375,11988,8,GX,1,100,-1.312
1570470266.496419,71937.500,11988,8,GX,1,100,-2.380
1570470266.513172,71950.625,11988,8,GX,1,100,-2.777
1570470266.529924,71963.750,11988,8,GX,1,100,1.373
1570470266.546677,71976.875,11988,8,GX,1,100,2.838
1570470266.563429,71990.000,11988,8,GX,1,100,1.740
1570470266.580022,72003.000,12006,8,GX,1,100,-1.221
1570470266.596615,72016.000,12006,8,GX,1,100,-2.319
1570470266.613208,72029.000,12006,8,GX,1,100,-1.312
1570470266.629801,72042.000,12006,8,GX,1,100,0.702
1570470266.646394,72055.000,12006,8,GX,1,100,2.563
1570470266.662987,72068.000,12006,8,GX,1,100,-1.221
1570470266.679580,72081.000,12006,8,GX,1,100,-3.845
1570470266.696173,72094.000,12006,8,GX,1,100,-6.012
1570470266.712926,72107.125,12025,8,GX,1,100,-4.486
1570470266.729678,72120.250,12025,8,GX,1,100,-2.014
1570470266.746431,72133.375,12025,8,GX,1,100,1.221
1570470266.763183,72146.500,12025,8,GX,1,100,-0.854
1570470266.779936,72159.625,12025,8,GX,1,100,-1.678
1570470266.796688,72172.750,12025,8,GX,1,100,-2.472
1570470266.813441,72185.875,12025,8,GX,1,100,-2.075
1570470266.830193,72199.000,12025,8,GX,1,100,-1.099
1570470266.846968,72212.143,12043,7,GX,1,100,1.160
1570470266.863744,72225.286,12043,7,GX,1,100,2.563
1570470266.880519,72238.429,12043,7,GX,1,100,5.432
1570470266.897294,72251.571,12043,7,GX,1,100,3.479
1570470266.914070,72264.714,12043,7,GX,1,100,0.671
1570470266.930845,72277.857,12043,7,GX,1,100,-0.580
1570470266.947620,72291.000,12043,7,GX,1,100,-1.099
1570470266.964213,72304.000,12060,8,GX,1,100,-0.702
1570470266.980806,72317.000,12060,8,GX,1,100,-0.366
1570470266.997399,72330.000,12060,8,GX,1,100,0.458
1570470267.013992,72343.000,12060,8,GX,1,100,1.343
1570470267.030585,72356.000,12060,8,GX,1,100,-0.610
1570470267.047178,72369.000,12060,8,GX,1,100,-1.007
1570470267.063771,72382.000,12060,8,GX,1,100,1.740
1570470267.080364,72395.000,12060,8,GX,1,100,10.925
1570470267.096797,72407.875,12078,8,GX,1,100,10.162
1570470267.113231,72420.750,12078,8,GX,1,100,7.904
1570470267.129664,72433.625,12078,8,GX,1,100,3.082
1570470267.146098,72446.500,12078,8,GX,1,100,0.519
1570470267.162531,72459.375,12078,8,GX,1,100,-0.336
1570470267.178964,72472.250,12078,8,GX,1,100,-0.793
1570470267.195398,72485.125,12078,8,GX,1,100,-1.862
1570470267.211831,72498.000,12078,8,GX,1,100,-3.876
1570470267.228584,72511.125,12096,8,GX,1,100,-2.960
1570470267.245336,72524.250,12096,8,GX,1,100,0.610
1570470267.262089,72537.375,12096,8,GX,1,100,1.068
1570470267.278841,72550.500,12096,8,GX,1,100,5.768
1570470267.295594,72563.625,12096,8,GX,1,100,5.310
1570470267.312346,72576.750,12096,8,GX,1,100,10.376
1570470267.329099,72589.875,12096,8,GX,1,100,9.491
1570470267.345851,72603.000,12096,8,GX,1,100,8.179
1570470267.362627,72616.143,12114,7,GX,1,100,15.045
1570470267.379402,72629.286,12114,7,GX,1,100,14.526
1570470267.396177,72642.429,12114,7,GX,1,100,11.780
1570470267.412952,72655.571,12114,7,GX,1,100,3.693
1570470267.429728,72668.714,12114,7,GX,1,100,-2.319
1570470267.446503,72681.857,12114,7,GX,1,100,-4.822
1570470267.463278,72695.000,12114,7,GX,1,100,-3.510
1570470267.480031,72708.125,12132,8,GX,1,100,-2.106
1570470267.496783,72721.250,12132,8,GX,1,100,-1.526
1570470267.513536,72734.375,12132,8,GX,1,100,-2.106
1570470267.530288,72747.500,12132,8,GX,1,100,-3.845
1570470267.547041,72760.625,12132,8,GX,1,100,-6.317
1570470267.563793,72773.750,12132,8,GX,1,100,-0.732
1570470267.580546,72786.875,12132,8,GX,1,100,3.662
1570470267.597298,72800.000,12132,8,GX,1,100,4.547
1570470267.614051,72813.125,12150,8,GX,1,100,0.946
1570470267.630803,72826.250,12150,8,GX,1,100,-1.343
1570470267.647556,72839.375,12150,8,GX,1,100,-4.059
1570470267.664309,72852.500,12150,8,GX,1,100,-5.646
1570470267.681061,72865.625,12150,8,GX,1,100,-6.378
1570470267.697814,72878.750,12150,8,GX,1,100,-4.669
1570470267.714566,72891.875,12150,8,GX,1,100,-3.448
1570470267.731318,72905.000,12150,8,GX,1,100,-4.944
1570470267.748641,72918.571,12167,7,GX,1,100,-7.904
1570470267.765963,72932.143,12167,7,GX,1,100,-7.996
1570470267.783285,72945.714,12167,7,GX,1,100,-7.996
1570470267.800608,72959.286,12167,7,GX,1,100,-6.348
1570470267.817930,72972.857,12167,7,GX,1,100,-4.181
1570470267.835253,72986.429,12167,7,GX,1,100,-3.571
1570470267.852575,73000.000,12167,7,GX,1,100,-2.960
1570470267.869008,73012.875,12185,8,GX,1,100,-2.625
1570470267.885442,73025.750,12185,8,GX,1,100,0.061
1570470267.901875,73038.625,12185,8,GX,1,100,0.549
1570470267.918308,73051.500,12185,8,GX,1,100,-1.007
1570470267.934742,73064.375,12185,8,GX,1,100,-2.075
1570470267.951175,73077.250,12185,8,GX,1,100,-1.801
1570470267.967609,73090.125,12185,8,GX,1,100,-1.038
1570470267.984042,73103.000,12185,8,GX,1,100,0.946
1570470268.000795,73116.125,12203,8,GX,1,100,1.801
1570470268.017547,73129.250,12203,8,GX,1,100,0.397
1570470268.034300,73142.375,12203,8,GX,1,100,-1.190
1570470268.051052,73155.500,12203,8,GX,1,100,-0.763
1570470268.067805,73168.625,12203,8,GX,1,100,0.153
1570470268.084557,73181.750,12203,8,GX,1,100,1.404
1570470268.101310,73194.875,12203,8,GX,1,100,1.617
1570470268.118062,73208.000,12203,8,GX,1,100,2.075
1570470268.134655,73221.000,12221,7,GX,1,100,1.587
1570470268.151248,73234.000,12221,7,GX,1,100,0.946
1570470268.167841,73247.000,12221,7,GX,1,100,0.336
1570470268.184434,73260.000,12221,7,GX,1,100,0.366
1570470268.201027,73273.000,12221,7,GX,1,100,0.702
1570470268.217620,73286.000,12221,7,GX,1,100,-1.587
1570470268.234213,73299.000,12221,7,GX,1,100,-3.601
1570470268.250965,73312.125,12239,8,GX,1,100,-4.425
1570470268.267718,73325.250,12239,8,GX,1,100,-4.211
1570470268.284470,73338.375,12239,8,GX,1,100,-2.289
1570470268.301223,73351.500,12239,8,GX,1,100,-1.770
1570470268.317975,73364.625,12239,8,GX,1,100,-3.815
1570470268.334728,73377.750,12239,8,GX,1,100,-3.510
1570470268.351480,73390.875,12239,8,GX,1,100,-2.441
1570470268.368233,73404.000,12239,8,GX,1,100,-0.031
1570470268.384826,73417.000,12257,8,GX,1,100,0.610
1570470268.401419,73430.000,12257,8,GX,1,100,0.183
1570470268.418012,73443.000,12257,8,GX,1,100,-1.190
1570470268.434605,73456.000,12257,8,GX,1,100,-0.763
1570470268.451198,73469.000,12257,8,GX,1,100,0.000
1570470268.467791,73482.000,12257,8,GX,1,100,-0.153
1570470268.484384,73495.000,12257,8,GX,1,100,-0.336
1570470268.500977,73508.000,12257,8,GX,1,100,-0.061
1570470268.517752,73521.143,12275,7,GX,1,100,0.366
1570470268.534527,73534.286,12275,7,GX,1,100,0.275
1570470268.551302,73547.429,12275,7,GX,1,100,0.031
1570470268.568078,73560.571,12275,7,GX,1,100,-1.923
1570470268.584853,73573.714,12275,7,GX,1,100,-2.472
1570470268.601628,73586.857,12275,7,GX,1,100,-0.214
1570470268.618404,73600.000,12275,7,GX,1,100,-0.641
1570470268.635156,73613.125,12293,8,GX,1,100,0.214
1570470268.651909,73626.250,12293,8,GX,1,100,1.617
1570470268.668661,73639.375,12293,8,GX,1,100,1.617
1570470268.685414,73652.500,12293,8,GX,1,100,0.580
1570470268.702166,73665.625,12293,8,GX,1,100,-0.854
1570470268.718919,73678.750,12293,8,GX,1,100,-1.556
1570470268.735671,73691.875,12293,8,GX,1,100,-0.793
1570470268.752424,73705.000,12293,8,GX,1,100,2.380
1570470268.769336,73718.250,12312,8,GX,1,100,3.387
1570470268.786248,73731.500,12312,8,GX,1,100,1.312
1570470268.803160,73744.750,12312,8,GX,1,100,0.214
1570470268.820072,73758.000,12312,8,GX,1,100,-1.190
1570470268.836984,73771.250,12312,8,GX,1,100,-1.282
1570470268.853896,73784.500,12312,8,GX,1,100,-1.740
1570470268.870808,73797.750,12312,8,GX,1,100,-1.312
1570470268.887720,73811.000,12312,8,GX,1,100,-2.319
1570470268.903835,73823.625,12330,8,GX,1,100,-0.549
1570470268.919949,73836.250,12330,8,GX,1,100,-0.275
1570470268.936063,73848.875,12330,8,GX,1,100,2.136
1570470268.952178,73861.500,12330,8,GX,1,100,1.556
1570470268.968292,73874.125,12330,8,GX,1,100,0.244
1570470268.984406,73886.750,12330,8,GX,1,100,-2.045
1570470269.000520,73899.375,12330,8,GX,1,100,-0.305
1570470269.016635,73912.000,12330,8,GX,1,100,1.282
1570470269.033228,73925.000,12348,8,GX,1,100,3.906
1570470269.049821,73938.000,12348,8,GX,1,100,1.282
1570470269.066414,73951.000,12348,8,GX,1,100,-0.153
1570470269.083007,73964.000,12348,8,GX,1,100,-0.702
1570470269.099600,73977.000,12348,8,GX,1,100,1.984
1570470269.116192,73990.000,12348,8,GX,1,100,5.005
1570470269.132785,74003.000,12348,8,GX,1,100,3.998
1570470269.149378,74016.000,12348,8,GX,1,100,1.526
1570470269.165971,74029.000,12366,8,GX,1,100,1.312
1570470269.182564,74042.000,12366,8,GX,1,100,-3.387
1570470269.199157,74055.000,12366,8,GX,1,100,-5.249
1570470269.215750,74068.000,12366,8,GX,1,100,-1.984
1570470269.232343,74081.000,12366,8,GX,1,100,1.709
1570470269.248936,74094.000,12366,8,GX,1,100,1.831
1570470269.265529,74107.000,12366,8,GX,1,100,1.617
1570470269.282122,74120.000,12366,8,GX,1,100,0.641
1570470269.298350,74132.714,12384,7,GX,1,100,-0.519
1570470269.314579,74145.429,12384,7,GX,1,100,-3.632
1570470269.330807,74158.143,12384,7,GX,1,100,-1.190
1570470269.347035,74170.857,12384,7,GX,1,100,0.214
1570470269.363263,74183.571,12384,7,GX,1,100,0.702
1570470269.379492,74196.286,12384,7,GX,1,100,-0.885
1570470269.395720,74209.000,12384,7,GX,1,100,-1.190
1570470269.412313,74222.000,12402,8,GX,1,100,-1.221
1570470269.428906,74235.000,12402,8,GX,1,100,-0.824
1570470269.445499,74248.000,12402,8,GX,1,100,0.061
1570470269.462092,74261.000,12402,8,GX,1,100,-0.885
1570470269.478685,74274.000,12402,8,GX,1,100,-0.519
1570470269.495278,74287.000,12402,8,GX,1,100,-1.556
1570470269.511871,74300.000,12402,8,GX,1,100,-1.434
1570470269.528464,74313.000,12402,8,GX,1,100,-0.916
1570470269.545057,74326.000,12420,8,GX,1,100,0.366
1570470269.561650,74339.000,12420,8,GX,1,100,-1.282
1570470269.578243,74352.000,12420,8,GX,1,100,-2.563
1570470269.594836,74365.000,12420,8,GX,1,100,-0.183
1570470269.611428,74378.000,12420,8,GX,1,100,1.617
1570470269.628021,74391.000,12420,8,GX,1,100,1.617
1570470269.644614,74404.000,12420,8,GX,1,100,0.824
1570470269.661207,74417.000,12420,8,GX,1,100,-0.031
1570470269.678119,74430.250,12438,8,GX,1,100,-1.343
1570470269.695031,74443.500,12438,8,GX,1,100,-0.610
1570470269.711944,74456.750,12438,8,GX,1,100,1.434
1570470269.728856,74470.000,12438,8,GX,1,100,1.373
1570470269.745768,74483.250,12438,8,GX,1,100,-2.655
1570470269.762680,74496.500,12438,8,GX,1,100,-2.960
1570470269.779592,74509.750,12438,8,GX,1,100,-1.312
1570470269.796504,74523.000,12438,8,GX,1,100,-0.641
1570470269.813279,74536.143,12457,7,GX,1,100,-1.556
1570470269.830054,74549.286,12457,7,GX,1,100,-1.953
1570470269.846830,74562.429,12457,7,GX,1,100,-2.655
1570470269.863605,74575.571,12457,7,GX,1,100,-1.740
1570470269.880380,74588.714,12457,7,GX,1,100,-5.249
1570470269.897156,74601.857,12457,7,GX,1,100,-2.960
1570470269.913931,74615.000,12457,7,GX,1,100,-2.777
1570470269.930364,74627.875,12475,8,GX,1,100,-2.106
1570470269.946798,74640.750,12475,8,GX,1,100,-2.808
1570470269.963231,74653.625,12475,8,GX,1,100,-2.319
1570470269.979665,74666.500,12475,8,GX,1,100,1.007
1570470269.996098,74679.375,12475,8,GX,1,100,1.740
1570470270.012531,74692.250,12475,8,GX,1,100,2.045
1570470270.028965,74705.125,12475,8,GX,1,100,2.655
1570470270.045398,74718.000,12475,8,GX,1,100,0.916
1570470270.061991,74731.000,12493,8,GX,1,100,0.885
1570470270.078584,74744.000,12493,8,GX,1,100,2.777
1570470270.095177,74757.000,12493,8,GX,1,100,2.441
1570470270.111770,74770.000,12493,8,GX,1,100,0.732
1570470270.128363,74783.000,12493,8,GX,1,100,0.977
1570470270.144956,74796.000,12493,8,GX,1,100,1.740
1570470270.161549,74809.000,12493,8,GX,1,100,3.632
1570470270.178142,74822.000,12493,8,GX,1,100,1.160
1570470270.194894,74835.125,12511,8,GX,1,100,-0.244
1570470270.211647,74848.250,12511,8,GX,1,100,-1.312
1570470270.228399,74861.375,12511,8,GX,1,100,0.061
1570470270.245152,74874.500,12511,8,GX,1,100,1.007
1570470270.261904,74887.625,12511,8,GX,1,100,1.465
1570470270.278657,74900.750,12511,8,GX,1,100,1.160
1570470270.295409,74913.875,12511,8,GX,1,100,1.953
1570470270.312162,74927.000,12511,8,GX,1,100,1.740
1570470270.328390,74939.714,12529,7,GX,1,100,1.801
1570470270.344619,74952.429,12529,7,GX,1,100,2.014
1570470270.360847,74965.143,12529,7,GX,1,100,1.068
1570470270.377075,74977.857,12529,7,GX,1,100,0.702
1570470270.393303,74990.571,12529,7,GX,1,100,1.617
1570470270.409532,75003.286,12529,7,GX,1,100,2.411
1570470270.425760,75016.000,12529,7,GX,1,100,2.136
1570470270.442513,75029.125,12547,8,GX,1,100,1.587
1570470270.459265,75042.250,12547,8,GX,1,100,-0.214
1570470270.476017,75055.375,12547,8,GX,1,100,-0.885
1570470270.492770,75068.500,12547,8,GX,1,100,-0.763
1570470270.509522,75081.625,12547,8,GX,1,100,0.519
1570470270.526275,75094.750,12547,8,GX,1,100,0.641
1570470270.543027,75107.875,12547,8,GX,1,100,-0.214
1570470270.559780,75121.000,12547,8,GX,1,100,-0.793
1570470270.576532,75134.125,12565,8,GX,1,100,-0.153
1570470270.593285,75147.250,12565,8,GX,1,100,0.305
1570470270.610038,75160.375,12565,8,GX,1,100,-0.824
1570470270.626790,75173.500,12565,8,GX,1,100,-2.045
1570470270.643543,75186.625,12565,8,GX,1,100,-1.465
1570470270.660295,75199.750,12565,8,GX,1,100,-0.061
1570470270.677047,75212.875,12565,8,GX,1,100,2.167
1570470270.693800,75226.000,12565,8,GX,1,100,2.350
1570470270.710758,75239.286,12583,7,GX,1,100,-0.122
1570470270.727715,75252.571,12583,7,GX,1,100,-1.099
1570470270.744673,75265.857,12583,7,GX,1,100,-0.122
1570470270.761631,75279.143,12583,7,GX,1,100,0.610
1570470270.778588,75292.429,12583,7,GX,1,100,2.167
1570470270.795546,75305.714,12583,7,GX,1,100,-0.549
1570470270.812504,75319.000,12583,7,GX,1,100,-0.763
1570470270.829256,75332.125,12601,8,GX,1,100,-0.427
1570470270.846009,75345.250,12601,8,GX,1,100,1.434
1570470270.862761,75358.375,12601,8,GX,1,100,0.610
1570470270.879514,75371.500,12601,8,GX,1,100,-0.519
1570470270.896266,75384.625,12601,8,GX,1,100,0.427
1570470270.913018,75397.750,12601,8,GX,1,100,0.854
1570470270.929771,75410.875,12601,8,GX,1,100,0.610
1570470270.946524,75424.000,12601,8,GX,1,100,-1.495
1570470270.963276,75437.125,12619,8,GX,1,100,-2.899
1570470270.980029,75450.250,12619,8,GX,1,100,-3.021
1570470270.996781,75463.375,12619,8,GX,1,100,-2.930
1570470271.013534,75476.500,12619,8,GX,1,100,-1.129
1570470271.030286,75489.625,12619,8,GX,1,100,-0.336
1570470271.047039,75502.750,12619,8,GX,1,100,0.031
1570470271.063791,75515.875,12619,8,GX,1,100,-0.732
1570470271.080544,75529.000,12619,8,GX,1,100,-2.045
1570470271.097136,75542.000,12637,8,GX,1,100,-2.075
1570470271.113729,75555.000,12637,8,GX,1,100,-0.641
1570470271.130322,75568.000,12637,8,GX,1,100,0.916
1570470271.146915,75581.000,12637,8,GX,1,100,1.343
1570470271.163508,75594.000,12637,8,GX,1,100,0.580
1570470271.180101,75607.000,12637,8,GX,1,100,-0.397
1570470271.196694,75620.000,12637,8,GX,1,100,0.244
1570470271.213287,75633.000,12637,8,GX,1,100,1.556
1570470271.229698,75645.857,12655,7,GX,1,100,0.366
1570470271.246109,75658.714,12655,7,GX,1,100,-2.686
1570470271.262519,75671.571,12655,7,GX,1,100,-4.242
1570470271.278930,75684.429,12655,7,GX,1,100,-1.190
1570470271.295340,75697.286,12655,7,GX,1,100,1.068
1570470271.311751,75710.143,12655,7,GX,1,100,2.411
1570470271.328162,75723.000,12655,7,GX,1,100,1.770
1570470271.345074,75736.250,12673,8,GX,1,100,0.275
1570470271.361986,75749.500,12673,8,GX,1,100,-0.427
1570470271.378898,75762.750,12673,8,GX,1,100,0.916
1570470271.395810,75776.000,12673,8,GX,1,100,0.946
1570470271.412722,75789.250,12673,8,GX,1,100,-1.678
1570470271.429634,75802.500,12673,8,GX,1,100,-3.021
1570470271.446546,75815.750,12673,8,GX,1,100,-3.021
1570470271.463458,75829.000,12673,8,GX,1,100,-2.838
1570470271.480211,75842.125,12691,8,GX,1,100,-2.899
1570470271.496963,75855.250,12691,8,GX,1,100,-1.221
1570470271.513716,75868.375,12691,8,GX,1,100,1.099
1570470271.530468,75881.500,12691,8,GX,1,100,1.099
1570470271.547221,75894.625,12691,8,GX,1,100,-1.343
1570470271.563973,75907.750,12691,8,GX,1,100,-1.221
1570470271.580726,75920.875,12691,8,GX,1,100,0.183
1570470271.597478,75934.000,12691,8,GX,1,100,0.427
1570470271.613912,75946.875,12709,8,GX,1,100,1.404
1570470271.630345,75959.750,12709,8,GX,1,100,1.587
1570470271.646778,75972.625,12709,8,GX,1,100,1.251
1570470271.663212,75985.500,12709,8,GX,1,100,0.641
1570470271.679645,75998.375,12709,8,GX,1,100,-2.258
1570470271.696079,76011.250,12709,8,GX,1,100,-3.052
1570470271.712512,76024.125,12709,8,GX,1,100,-1.862
1570470271.728945,76037.000,12709,8,GX,1,100,0.122
1570470271.746268,76050.571,12725,7,GX,1,100,0.305
1570470271.763590,76064.143,12725,7,GX,1,100,-0.916
1570470271.780912,76077.714,12725,7,GX,1,100,-0.793
1570470271.798235,76091.286,12725,7,GX,1,100,-2.808
1570470271.815557,76104.857,12725,7,GX,1,100,-2.533
1570470271.832879,76118.429,12725,7,GX,1,100,0.122
1570470271.850202,76132.000,12725,7,GX,1,100,0.763
1570470271.866635,76144.875,12744,8,GX,1,100,0.275
1570470271.883069,76157.750,12744,8,GX,1,100,1.465
1570470271.899502,76170.625,12744,8,GX,1,100,3.021
1570470271.915935,76183.500,12744,8,GX,1,100,2.838
1570470271.932369,76196.375,12744,8,GX,1,100,0.488
1570470271.948802,76209.250,12744,8,GX,1,100,0.275
1570470271.965235,76222.125,12744,8,GX,1,100,1.526
1570470271.981669,76235.000,12744,8,GX,1,100,2.808
1570470271.998065,76247.846,12765,13,GX,1,100,2.014
1570470272.014462,76260.692,12765,13,GX,1,100,0.061
1570470272.030859,76273.538,12765,13,GX,1,100,-0.397
1570470272.047255,76286.385,12765,13,GX,1,100,0.061
1570470272.063652,76299.231,12765,13,GX,1,100,1.038
1570470272.080049,76312.077,12765,13,GX,1,100,2.899
1570470272.096445,76324.923,12765,13,GX,1,100,4.364
1570470272.112842,76337.769,12765,13,GX,1,100,-1.434
1570470272.129238,76350.615,12765,13,GX,1,100,-2.655
1570470272.145635,76363.462,12765,13,GX,1,100,-1.434
1570470272.162031,76376.308,12765,13,GX,1,100,1.343
1570470272.178428,76389.154,12765,13,GX,1,100,-2.838
1570470272.194825,76402.000,12765,13,GX,1,100,-2.502
1570470272.211418,76415.000,12785,7,GX,1,100,2.533
1570470272.228011,76428.000,12785,7,GX,1,100,3.571
1570470272.244604,76441.000,12785,7,GX,1,100,0.946
1570470272.261197,76454.000,12785,7,GX,1,100,-1.373
1570470272.277790,76467.000,12785,7,GX,1,100,-2.258
1570470272.294382,76480.000,12785,7,GX,1,100,-1.373
1570470272.310975,76493.000,12785,7,GX,1,100,0.305
1570470272.327568,76506.000,12803,8,GX,1,100,1.099
1570470272.344161,76519.000,12803,8,GX,1,100,0.031
1570470272.360754,76532.000,12803,8,GX,1,100,-2.045
1570470272.377347,76545.000,12803,8,GX,1,100,-1.862
1570470272.393940,76558.000,12803,8,GX,1,100,0.610
1570470272.410533,76571.000,12803,8,GX,1,100,0.366
1570470272.427126,76584.000,12803,8,GX,1,100,-0.244
1570470272.443719,76597.000,12803,8,GX,1,100,0.214
1570470272.460312,76610.000,12821,8,GX,1,100,0.671
1570470272.476905,76623.000,12821,8,GX,1,100,0.458
1570470272.493498,76636.000,12821,8,GX,1,100,-1.007
1570470272.510091,76649.000,12821,8,GX,1,100,-0.671
1570470272.526684,76662.000,12821,8,GX,1,100,-0.031
1570470272.543277,76675.000,12821,8,GX,1,100,-0.519
1570470272.559870,76688.000,12821,8,GX,1,100,-0.854
1570470272.576463,76701.000,12821,8,GX,1,100,-1.007
1570470272.592873,76713.857,12839,7,GX,1,100,0.000
1570470272.609284,76726.714,12839,7,GX,1,100,-0.092
1570470272.625695,76739.571,12839,7,GX,1,100,-2.625
1570470272.642105,76752.429,12839,7,GX,1,100,-3.082
1570470272.658516,76765.286,12839,7,GX,1,100,-1.404
1570470272.674927,76778.143,12839,7,GX,1,100,1.862
1570470272.691337,76791.000,12839,7,GX,1,100,-0.946
1570470272.708090,76804.125,12857,8,GX,1,100,-1.099
1570470272.724842,76817.250,12857,8,GX,1,100,-0.153
1570470272.741595,76830.375,12857,8,GX,1,100,0.092
1570470272.758347,76843.500,12857,8,GX,1,100,-0.122
1570470272.775100,76856.625,12857,8,GX,1,100,1.312
1570470272.791852,76869.750,12857,8,GX,1,100,1.648
1570470272.808605,76882.875,12857,8,GX,1,100,2.472
1570470272.825357,76896.000,12857,8,GX,1,100,1.984
1570470272.842110,76909.125,12876,8,GX,1,100,0.641
1570470272.858862,76922.250,12876,8,GX,1,100,-0.519
1570470272.875615,76935.375,12876,8,GX,1,100,-0.244
1570470272.892367,76948.500,12876,8,GX,1,100,0.671
1570470272.909120,76961.625,12876,8,GX,1,100,0.916
1570470272.925872,76974.750,12876,8,GX,1,100,-0.732
1570470272.942625,76987.875,12876,8,GX,1,100,-1.221
1570470272.959377,77001.000,12876,8,GX,1,100,-1.373
1570470272.975970,77014.000,12894,8,GX,1,100,-0.275
1570470272.992563,77027.000,12894,8,GX,1,100,0.153
1570470273.009156,77040.000,12894,8,GX,1,100,-0.580
1570470273.025749,77053.000,12894,8,GX,1,100,2.258
1570470273.042342,77066.000,12894,8,GX,1,100,2.197
1570470273.058935,77079.000,12894,8,GX,1,100,1.709
1570470273.075528,77092.000,12894,8,GX,1,100,4.272
1570470273.092121,77105.000,12894,8,GX,1,100,4.456
1570470273.108714,77118.000,12912,7,GX,1,100,2.411
1570470273.125307,77131.000,12912,7,GX,1,100,0.977
1570470273.141900,77144.000,12912,7,GX,1,100,-1.465
1570470273.158493,77157.000,12912,7,GX,1,100,-0.977
1570470273.175086,77170.000,12912,7,GX,1,100,1.038
1570470273.191679,77183.000,12912,7,GX,1,100,-0.824
1570470273.208272,77196.000,12912,7,GX,1,100,-0.427
1570470273.225024,77209.125,12929,8,GX,1,100,-2.533
1570470273.241777,77222.250,12929,8,GX,1,100,-2.533
1570470273.258529,77235.375,12929,8,GX,1,100,-0.397
1570470273.275282,77248.500,12929,8,GX,1,100,-0.732
1570470273.292034,77261.625,12929,8,GX,1,100,-2.991
1570470273.308787,77274.750,12929,8,GX,1,100,-3.418
1570470273.325539,77287.875,12929,8,GX,1,100,-2.472
1570470273.342292,77301.000,12929,8,GX,1,100,-1.678
1570470273.358885,77314.000,12947,8,GX,1,100,-1.801
1570470273.375478,77327.000,12947,8,GX,1,100,-1.709
1570470273.392071,77340.000,12947,8,GX,1,100,0.763
1570470273.408664,77353.000,12947,8,GX,1,100,1.465
1570470273.425256,77366.000,12947,8,GX,1,100,0.854
1570470273.441849,77379.000,12947,8,GX,1,100,-0.427
1570470273.458442,77392.000,12947,8,GX,1,100,0.214
1570470273.475035,77405.000,12947,8,GX,1,100,2.594
1570470273.491628,77418.000,12965,8,GX,1,100,1.984
1570470273.508221,77431.000,12965,8,GX,1,100,0.092
1570470273.524814,77444.000,12965,8,GX,1,100,0.092
1570470273.541407,77457.000,12965,8,GX,1,100,2.136
1570470273.558000,77470.000,12965,8,GX,1,100,2.228
1570470273.574593,77483.000,12965,8,GX,1,100,-0.031
1570470273.591186,77496.000,12965,8,GX,1,100,-1.953
1570470273.607779,77509.000,12965,8,GX,1,100,-1.404
1570470273.624372,77522.000,12983,7,GX,1,100,-0.732
1570470273.640965,77535.000,12983,7,GX,1,100,-1.160
1570470273.657558,77548.000,12983,7,GX,1,100,-1.770
1570470273.674151,77561.000,12983,7,GX,1,100,-2.014
1570470273.690744,77574.000,12983,7,GX,1,100,-2.411
1570470273.707337,77587.000,12983,7,GX,1,100,-2.533
1570470273.723930,77600.000,12983,7,GX,1,100,-0.549
1570470273.740842,77613.250,13001,8,GX,1,100,-1.068
1570470273.757754,77626.500,13001,8,GX,1,100,-1.495
1570470273.774666,77639.750,13001,8,GX,1,100,-2.136
1570470273.791578,77653.000,13001,8,GX,1,100,-1.495
1570470273.808490,77666.250,13001,8,GX,1,100,-1.251
1570470273.825402,77679.500,13001,8,GX,1,100,-1.373
1570470273.842314,77692.750,13001,8,GX,1,100,-1.648
1570470273.859226,77706.000,13001,8,GX,1,100,-1.312
1570470273.875979,77719.125,13020,8,GX,1,100,1.404
1570470273.892731,77732.250,13020,8,GX,1,100,0.214
1570470273.909484,77745.375,13020,8,GX,1,100,0.031
1570470273.926236,77758.500,13020,8,GX,1,100,0.183
1570470273.942989,77771.625,13020,8,GX,1,100,-0.183
1570470273.959741,77784.750,13020,8,GX,1,100,-0.275
1570470273.976494,77797.875,13020,8,GX,1,100,-0.641
1570470273.993246,77811.000,13020,8,GX,1,100,-0.793
1570470274.010204,77824.286,13038,7,GX,1,100,-0.244
1570470274.027162,77837.571,13038,7,GX,1,100,0.000
1570470274.044119,77850.857,13038,7,GX,1,100,0.000
1570470274.061077,77864.143,13038,7,GX,1,100,0.610
1570470274.078034,77877.429,13038,7,GX,1,100,2.808
1570470274.094992,77890.714,13038,7,GX,1,100,3.204
1570470274.111950,77904.000,13038,7,GX,1,100,4.120
1570470274.128862,77917.250,13054,8,GX,1,100,3.235
1570470274.145774,77930.500,13054,8,GX,1,100,1.709
1570470274.162686,77943.750,13054,8,GX,1,100,0.183
1570470274.179598,77957.000,13054,8,GX,1,100,0.641
1570470274.196510,77970.250,13054,8,GX,1,100,1.862
1570470274.213422,77983.500,13054,8,GX,1,100,3.784
1570470274.230334,77996.750,13054,8,GX,1,100,4.272
1570470274.247246,78010.000,13054,8,GX,1,100,2.045
1570470274.263680,78022.875,13072,8,GX,1,100,3.448
1570470274.280113,78035.750,13072,8,GX,1,100,0.793
1570470274.296546,78048.625,13072,8,GX,1,100,0.519
1570470274.312980,78061.500,13072,8,GX,1,100,1.160
1570470274.329413,78074.375,13072,8,GX,1,100,2.106
1570470274.345847,78087.250,13072,8,GX,1,100,4.852
1570470274.362280,78100.125,13072,8,GX,1,100,4.761
1570470274.378713,78113.000,13072,8,GX,1,100,1.801
1570470274.395306,78126.000,13090,7,GX,1,100,-2.441
1570470274.411899,78139.000,13090,7,GX,1,100,0.275
1570470274.428492,78152.000,13090,7,GX,1,100,2.350
1570470274.445085,78165.000,13090,7,GX,1,100,2.075
1570470274.461678,78178.000,13090,7,GX,1,100,-0.519
1570470274.478271,78191.000,13090,7,GX,1,100,-3.784
1570470274.494864,78204.000,13090,7,GX,1,100,1.007
1570470274.511617,78217.125,13108,8,GX,1,100,0.916
1570470274.528369,78230.250,13108,8,GX,1,100,-0.275
1570470274.545122,78243.375,13108,8,GX,1,100,-1.862
1570470274.561874,78256.500,13108,8,GX,1,100,-0.885
1570470274.578627,78269.625,13108,8,GX,1,100,-0.122
1570470274.595379,78282.750,13108,8,GX,1,100,0.031
1570470274.612132,78295.875,13108,8,GX,1,100,0.641
1570470274.628884,78309.000,13108,8,GX,1,100,-0.336
1570470274.645637,78322.125,13126,8,GX,1,100,-3.601
1570470274.662389,78335.250,13126,8,GX,1,100,-2.380
1570470274.679142,78348.375,13126,8,GX,1,100,0.305
1570470274.695894,78361.500,13126,8,GX,1,100,0.793
1570470274.712647,78374.625,13126,8,GX,1,100,-1.831
1570470274.729399,78387.750,13126,8,GX,1,100,-1.434
1570470274.746152,78400.875,13126,8,GX,1,100,1.404
1570470274.762904,78414.000,13126,8,GX,1,100,-0.305
1570470274.779497,78427.000,13144,8,GX,1,100,-1.892
1570470274.796090,78440.000,13144,8,GX,1,100,-1.068
1570470274.812683,78453.000,13144,8,GX,1,100,1.862
1570470274.829276,78466.000,13144,8,GX,1,100,0.610
1570470274.845869,78479.000,13144,8,GX,1,100,0.336
1570470274.862462,78492.000,13144,8,GX,1,100,0.519
1570470274.879055,78505.000,13144,8,GX,1,100,-0.366
1570470274.895648,78518.000,13144,8,GX,1,100,-0.488
1570470274.912423,78531.143,13163,7,GX,1,100,0.763
1570470274.929199,78544.286,13163,7,GX,1,100,1.434
1570470274.945974,78557.429,13163,7,GX,1,100,0.366
1570470274.962749,78570.571,13163,7,GX,1,100,-1.343
1570470274.979525,78583.714,13163,7,GX,1,100,-0.397
1570470274.996300,78596.857,13163,7,GX,1,100,-0.122
1570470275.013075,78610.000,13163,7,GX,1,100,-1.648
1570470275.029828,78623.125,13181,8,GX,1,100,-2.258
1570470275.046580,78636.250,13181,8,GX,1,100,-1.801
1570470275.063333,78649.375,13181,8,GX,1,100,0.214
1570470275.080085,78662.500,13181,8,GX,1,100,0.580
1570470275.096838,78675.625,13181,8,GX,1,100,-0.488
1570470275.113590,78688.750,13181,8,GX,1,100,-1.556
1570470275.130343,78701.875,13181,8,GX,1,100,-0.641
1570470275.147095,78715.000,13181,8,GX,1,100,0.793
1570470275.163688,78728.000,13199,8,GX,1,100,-0.610
1570470275.180281,78741.000,13199,8,GX,1,100,-1.160
1570470275.196874,78754.000,13199,8,GX,1,100,0.885
1570470275.213467,78767.000,13199,8,GX,1,100,1.678
1570470275.230060,78780.000,13199,8,GX,1,100,2.686
1570470275.246653,78793.000,13199,8,GX,1,100,0.092
1570470275.263246,78806.000,13199,8,GX,1,100,-3.296
1570470275.279839,78819.000,13199,8,GX,1,100,-0.793
1570470275.296113,78831.750,13217,8,GX,1,100,2.380
1570470275.312387,78844.500,13217,8,GX,1,100,-1.404
1570470275.328660,78857.250,13217,8,GX,1,100,-2.533
1570470275.344934,78870.000,13217,8,GX,1,100,1.160
1570470275.361208,78882.750,13217,8,GX,1,100,2.747
1570470275.377482,78895.500,13217,8,GX,1,100,0.793
1570470275.393756,78908.250,13217,8,GX,1,100,0.214
1570470275.410030,78921.000,13217,8,GX,1,100,0.916
1570470275.426623,78934.000,13235,8,GX,1,100,1.587
1570470275.443216,78947.000,13235,8,GX,1,100,-1.953
1570470275.459809,78960.000,13235,8,GX,1,100,-2.197
1570470275.476402,78973.000,13235,8,GX,1,100,-0.702
1570470275.492995,78986.000,13235,8,GX,1,100,-0.153
1570470275.509588,78999.000,13235,8,GX,1,100,-1.740
1570470275.526181,79012.000,13235,8,GX,1,100,-0.946
1570470275.542773,79025.000,13235,8,GX,1,100,0.336
1570470275.559002,79037.714,13253,7,GX,1,100,-0.092
1570470275.575230,79050.429,13253,7,GX,1,100,-3.052
1570470275.591458,79063.143,13253,7,GX,1,100,1.709
1570470275.607687,79075.857,13253,7,GX,1,100,-0.519
1570470275.623915,79088.571,13253,7,GX,1,100,-1.373
1570470275.640143,79101.286,13253,7,GX,1,100,1.862
1570470275.656371,79114.000,13253,7,GX,1,100,4.456
1570470275.673283,79127.250,13271,8,GX,1,100,0.763
1570470275.690196,79140.500,13271,8,GX,1,100,-0.702
1570470275.707108,79153.750,13271,8,GX,1,100,0.946
1570470275.724020,79167.000,13271,8,GX,1,100,0.214
1570470275.740932,79180.250,13271,8,GX,1,100,-0.519
1570470275.757844,79193.500,13271,8,GX,1,100,-0.763
1570470275.774756,79206.750,13271,8,GX,1,100,1.556
1570470275.791668,79220.000,13271,8,GX,1,100,1.434
1570470275.808261,79233.000,13289,8,GX,1,100,1.160
1570470275.824854,79246.000,13289,8,GX,1,100,1.068
1570470275.841447,79259.000,13289,8,GX,1,100,1.434
1570470275.858040,79272.000,13289,8,GX,1,100,0.580
1570470275.874633,79285.000,13289,8,GX,1,100,0.366
1570470275.891226,79298.000,13289,8,GX,1,100,0.610
1570470275.907819,79311.000,13289,8,GX,1,100,-0.671
1570470275.924412,79324.000,13289,8,GX,1,100,-0.916
1570470275.941369,79337.286,13308,7,GX,1,100,1.556
1570470275.958327,79350.571,13308,7,GX,1,100,3.967
1570470275.975284,79363.857,13308,7,GX,1,100,1.862
1570470275.992242,79377.143,13308,7,GX,1,100,0.580
1570470276.009200,79390.429,13308,7,GX,1,100,-0.946
1570470276.026157,79403.714,13308,7,GX,1,100,1.770
1570470276.043115,79417.000,13308,7,GX,1,100,3.387
1570470276.059708,79430.000,13326,8,GX,1,100,2.411
1570470276.076301,79443.000,13326,8,GX,1,100,2.686
1570470276.092894,79456.000,13326,8,GX,1,100,-0.031
1570470276.109487,79469.000,13326,8,GX,1,100,0.793
1570470276.126080,79482.000,13326,8,GX,1,100,1.221
1570470276.142673,79495.000,13326,8,GX,1,100,3.571
1570470276.159266,79508.000,13326,8,GX,1,100,1.648
1570470276.175859,79521.000,13326,8,GX,1,100,0.549
1570470276.192611,79534.125,13344,8,GX,1,100,0.610
1570470276.209364,79547.250,13344,8,GX,1,100,1.587
1570470276.226116,79560.375,13344,8,GX,1,100,2.075
1570470276.242869,79573.500,13344,8,GX,1,100,0.671
1570470276.259621,79586.625,13344,8,GX,1,100,2.899
1570470276.276374,79599.750,13344,8,GX,1,100,2.380
1570470276.293126,79612.875,13344,8,GX,1,100,-1.038
1570470276.309879,79626.000,13344,8,GX,1,100,-0.610
1570470276.326312,79638.875,13362,8,GX,1,100,1.587
1570470276.342746,79651.750,13362,8,GX,1,100,-4.303
1570470276.359179,79664.625,13362,8,GX,1,100,-6.348
1570470276.375612,79677.500,13362,8,GX,1,100,-3.448
1570470276.392046,79690.375,13362,8,GX,1,100,0.824
1570470276.408479,79703.250,13362,8,GX,1,100,1.556
1570470276.424913,79716.125,13362,8,GX,1,100,0.793
1570470276.441346,79729.000,13362,8,GX,1,100,-1.068
1570470276.457939,79742.000,13380,8,GX,1,100,-1.190
1570470276.474532,79755.000,13380,8,GX,1,100,0.092
1570470276.491125,79768.000,13380,8,GX,1,100,0.885
1570470276.507718,79781.000,13380,8,GX,1,100,0.824
1570470276.524311,79794.000,13380,8,GX,1,100,-1.251
1570470276.540904,79807.000,13380,8,GX,1,100,-1.312
1570470276.557497,79820.000,13380,8,GX,1,100,-0.031
1570470276.574090,79833.000,13380,8,GX,1,100,-0.458
1570470276.590500,79845.857,13398,7,GX,1,100,-0.763
1570470276.606911,79858.714,13398,7,GX,1,100,-2.350
1570470276.623322,79871.571,13398,7,GX,1,100,-0.488
1570470276.639732,79884.429,13398,7,GX,1,100,-1.282
1570470276.656143,79897.286,13398,7,GX,1,100,-1.434
1570470276.672554,79910.143,13398,7,GX,1,100,-0.580
1570470276.688964,79923.000,13398,7,GX,1,100,-0.092
1570470276.705876,79936.250,13416,8,GX,1,100,-0.244
1570470276.722788,79949.500,13416,8,GX,1,100,0.946
1570470276.739700,79962.750,13416,8,GX,1,100,1.221
1570470276.756612,79976.000,13416,8,GX,1,100,0.336
1570470276.773524,79989.250,13416,8,GX,1,100,-0.366
1570470276.790436,80002.500,13416,8,GX,1,100,-1.343
1570470276.807348,80015.750,13416,8,GX,1,100,0.427
1570470276.824260,80029.000,13416,8,GX,1,100,0.153
1570470276.841013,80042.125,13434,8,GX,1,100,-1.129
1570470276.857765,80055.250,13434,8,GX,1,100,-0.366
1570470276.874518,80068.375,13434,8,GX,1,100,-0.580
1570470276.891270,80081.500,13434,8,GX,1,100,-0.366
1570470276.908023,80094.625,13434,8,GX,1,100,-1.740
1570470276.924776,80107.750,13434,8,GX,1,100,-2.106
1570470276.941528,80120.875,13434,8,GX,1,100,-1.923
1570470276.958281,80134.000,13434,8,GX,1,100,-1.465
1570470276.975238,80147.286,13453,7,GX,1,100,-1.526
1570470276.992196,80160.571,13453,7,GX,1,100,-1.129
1570470277.009153,80173.857,13453,7,GX,1,100,2.533
1570470277.026111,80187.143,13453,7,GX,1,100,1.617
1570470277.043069,80200.429,13453,7,GX,1,100,-0.488
1570470277.060026,80213.714,13453,7,GX,1,100,0.732
1570470277.076984,80227.000,13453,7,GX,1,100,2.716
1570470277.093577,80240.000,13470,8,GX,1,100,2.136
1570470277.110170,80253.000,13470,8,GX,1,100,1.984
1570470277.126763,80266.000,13470,8,GX,1,100,1.007
1570470277.143356,80279.000,13470,8,GX,1,100,-1.160
1570470277.159949,80292.000,13470,8,GX,1,100,-2.075
1570470277.176542,80305.000,13470,8,GX,1,100,-0.305
1570470277.193135,80318.000,13470,8,GX,1,100,3.174
1570470277.209728,80331.000,13470,8,GX,1,100,1.556
1570470277.226480,80344.125,13488,8,GX,1,100,0.183
1570470277.243233,80357.250,13488,8,GX,1,100,1.617
1570470277.259985,80370.375,13488,8,GX,1,100,2.228
1570470277.276738,80383.500,13488,8,GX,1,100,1.831
1570470277.293490,80396.625,13488,8,GX,1,100,-0.153
1570470277.310243,80409.750,13488,8,GX,1,100,0.092
1570470277.326995,80422.875,13488,8,GX,1,100,0.519
1570470277.343748,80436.000,13488,8,GX,1,100,0.854
1570470277.360341,80449.000,13506,7,GX,1,100,0.488
1570470277.376934,80462.000,13506,7,GX,1,100,-0.336
1570470277.393527,80475.000,13506,7,GX,1,100,0.763
1570470277.410120,80488.000,13506,7,GX,1,100,0.946
1570470277.426713,80501.000,13506,7,GX,1,100,0.610
1570470277.443305,80514.000,13506,7,GX,1,100,0.610
1570470277.459898,80527.000,13506,7,GX,1,100,4.669
1570470277.476651,80540.125,13524,8,GX,1,100,7.263
1570470277.493403,80553.250,13524,8,GX,1,100,7.629
1570470277.510156,80566.375,13524,8,GX,1,100,4.333
1570470277.526908,80579.500,13524,8,GX,1,100,-0.092
1570470277.543661,80592.625,13524,8,GX,1,100,-0.519
1570470277.560414,80605.750,13524,8,GX,1,100,0.275
1570470277.577166,80618.875,13524,8,GX,1,100,2.197
1570470277.593919,80632.000,13524,8,GX,1,100,2.228
1570470277.610352,80644.875,13542,8,GX,1,100,0.061
1570470277.626785,80657.750,13542,8,GX,1,100,-0.092
1570470277.643219,80670.625,13542,8,GX,1,100,-0.946
1570470277.659652,80683.500,13542,8,GX,1,100,-2.991
1570470277.676086,80696.375,13542,8,GX,1,100,-2.777
1570470277.692519,80709.250,13542,8,GX,1,100,-1.617
1570470277.708952,80722.125,13542,8,GX,1,100,0.244
1570470277.725386,80735.000,13542,8,GX,1,100,-1.434
1570470277.742298,80748.250,13560,8,GX,1,100,-2.563
1570470277.759210,80761.500,13560,8,GX,1,100,-4.517
1570470277.776122,80774.750,13560,8,GX,1,100,-3.479
1570470277.793034,80788.000,13560,8,GX,1,100,-3.326
1570470277.809946,80801.250,13560,8,GX,1,100,-2.777
1570470277.826858,80814.500,13560,8,GX,1,100,-2.502
1570470277.843770,80827.750,13560,8,GX,1,100,-5.035
1570470277.860682,80841.000,13560,8,GX,1,100,-0.122
1570470277.877458,80854.143,13579,7,GX,1,100,1.404
1570470277.894233,80867.286,13579,7,GX,1,100,0.580
1570470277.911008,80880.429,13579,7,GX,1,100,-1.099
1570470277.927783,80893.571,13579,7,GX,1,100,-0.671
1570470277.944559,80906.714,13579,7,GX,1,100,2.808
1570470277.961334,80919.857,13579,7,GX,1,100,3.418
1570470277.978109,80933.000,13579,7,GX,1,100,3.418
1570470277.994862,80946.125,13595,8,GX,1,100,1.709
1570470278.011614,80959.250,13595,8,GX,1,100,0.458
1570470278.028367,80972.375,13595,8,GX,1,100,1.434
1570470278.045120,80985.500,13595,8,GX,1,100,3.174
1570470278.061872,80998.625,13595,8,GX,1,100,1.434
1570470278.078624,81011.750,13595,8,GX,1,100,-0.061
1570470278.095377,81024.875,13595,8,GX,1,100,0.336
1570470278.112129,81038.000,13595,8,GX,1,100,1.617
1570470278.128882,81051.125,13613,8,GX,1,100,0.427
1570470278.145634,81064.250,13613,8,GX,1,100,0.336
1570470278.162387,81077.375,13613,8,GX,1,100,-0.458
1570470278.179139,81090.500,13613,8,GX,1,100,-0.671
1570470278.195892,81103.625,13613,8,GX,1,100,-2.411
