EpochTimestamp,EmotiBitTimestamp,PacketNumber,DataLength,TypeTag,ProtocolVersion,DataReliability,MX
1570469551.903379,215304.000,37245,11,MX,1,100,-30
1570469551.903379,215304.000,37245,11,MX,1,100,-30
1570469551.903379,215304.000,37245,11,MX,1,100,-30
1570469551.903379,215304.000,37245,11,MX,1,100,-30
1570469551.903379,215304.000,37245,11,MX,1,100,-30
1570469551.903379,215304.000,37245,11,MX,1,100,-30
1570469551.903379,215304.000,37245,11,MX,1,100,-30
1570469551.903379,215304.000,37245,11,MX,1,100,-30
1570469551.903379,215304.000,37245,11,MX,1,100,-30
1570469551.903379,215304.000,37245,11,MX,1,100,-30
1570469551.903379,215304.000,37245,11,MX,1,100,-30
1570469551.919791,215316.857,37263,7,MX,1,100,-30
1570469551.936203,215329.714,37263,7,MX,1,100,-30
1570469551.952615,215342.571,37263,7,MX,1,100,-31
1570469551.969028,215355.429,37263,7,MX,1,100,-31
1570469551.985440,215368.286,37263,7,MX,1,100,-31
1570469552.001852,215381.143,37263,7,MX,1,100,-31
1570469552.018264,215394.000,37263,7,MX,1,100,-31
1570469552.035405,215407.429,37281,7,MX,1,100,-30
1570469552.052547,215420.857,37281,7,MX,1,100,-30
1570469552.069689,215434.286,37281,7,MX,1,100,-31
1570469552.086830,215447.714,37281,7,MX,1,100,-31
1570469552.103972,215461.143,37281,7,MX,1,100,-31
1570469552.121113,215474.571,37281,7,MX,1,100,-30
1570469552.138255,215488.000,37281,7,MX,1,100,-30
1570469552.154849,215501.000,37299,8,MX,1,100,-30
1570469552.171444,215514.000,37299,8,MX,1,100,-30
1570469552.188038,215527.000,37299,8,MX,1,100,-30
1570469552.204633,215540.000,37299,8,MX,1,100,-30
1570469552.221227,215553.000,37299,8,MX,1,100,-30
1570469552.237822,215566.000,37299,8,MX,1,100,-30
1570469552.254416,215579.000,37299,8,MX,1,100,-30
1570469552.271011,215592.000,37299,8,MX,1,100,-30
1570469552.287446,215604.875,37318,8,MX,1,100,-30
1570469552.303881,215617.750,37318,8,MX,1,100,-30
1570469552.320316,215630.625,37318,8,MX,1,100,-30
1570469552.336751,215643.500,37318,8,MX,1,100,-30
1570469552.353185,215656.375,37318,8,MX,1,100,-31
1570469552.369620,215669.250,37318,8,MX,1,100,-31
1570469552.386055,215682.125,37318,8,MX,1,100,-31
1570469552.402490,215695.000,37318,8,MX,1,100,-30
1570469552.419085,215708.000,37336,8,MX,1,100,-30
1570469552.435679,215721.000,37336,8,MX,1,100,-31
1570469552.452274,215734.000,37336,8,MX,1,100,-31
1570469552.468868,215747.000,37336,8,MX,1,100,-31
1570469552.485463,215760.000,37336,8,MX,1,100,-30
1570469552.502057,215773.000,37336,8,MX,1,100,-30
1570469552.518652,215786.000,37336,8,MX,1,100,-30
1570469552.535246,215799.000,37336,8,MX,1,100,-30
1570469552.552000,215812.125,37354,8,MX,1,100,-30
1570469552.568754,215825.250,37354,8,MX,1,100,-29
1570469552.585508,215838.375,37354,8,MX,1,100,-29
1570469552.602262,215851.500,37354,8,MX,1,100,-31
1570469552.619017,215864.625,37354,8,MX,1,100,-31
1570469552.635771,215877.750,37354,8,MX,1,100,-31
1570469552.652525,215890.875,37354,8,MX,1,100,-31
1570469552.669279,215904.000,37354,8,MX,1,100,-31
1570469552.685873,215917.000,37372,7,MX,1,100,-30
1570469552.702468,215930.000,37372,7,MX,1,100,-30
1570469552.719062,215943.000,37372,7,MX,1,100,-30
1570469552.735657,215956.000,37372,7,MX,1,100,-30
1570469552.752251,215969.000,37372,7,MX,1,100,-30
1570469552.768846,215982.000,37372,7,MX,1,100,-30
1570469552.785440,215995.000,37372,7,MX,1,100,-30
1570469552.802194,216008.125,37390,8,MX,1,100,-30
1570469552.818948,216021.250,37390,8,MX,1,100,-30
1570469552.835702,216034.375,37390,8,MX,1,100,-30
1570469552.852456,216047.500,37390,8,MX,1,100,-30
1570469552.869210,216060.625,37390,8,MX,1,100,-30
1570469552.885965,216073.750,37390,8,MX,1,100,-31
1570469552.902719,216086.875,37390,8,MX,1,100,-31
1570469552.919473,216100.000,37390,8,MX,1,100,-30
1570469552.936432,216113.286,37407,7,MX,1,100,-30
1570469552.953391,216126.571,37407,7,MX,1,100,-30
1570469552.970350,216139.857,37407,7,MX,1,100,-31
1570469552.987309,216153.143,37407,7,MX,1,100,-31
1570469553.004269,216166.429,37407,7,MX,1,100,-30
1570469553.021228,216179.714,37407,7,MX,1,100,-30
1570469553.038187,216193.000,37407,7,MX,1,100,-30
1570469553.054941,216206.125,37425,8,MX,1,100,-31
1570469553.071695,216219.250,37425,8,MX,1,100,-31
1570469553.088449,216232.375,37425,8,MX,1,100,-30
1570469553.105203,216245.500,37425,8,MX,1,100,-30
1570469553.121958,216258.625,37425,8,MX,1,100,-30
1570469553.138711,216271.750,37425,8,MX,1,100,-31
1570469553.155466,216284.875,37425,8,MX,1,100,-31
1570469553.172220,216298.000,37425,8,MX,1,100,-31
1570469553.188814,216311.000,37443,8,MX,1,100,-31
1570469553.205409,216324.000,37443,8,MX,1,100,-30
1570469553.222003,216337.000,37443,8,MX,1,100,-30
1570469553.238598,216350.000,37443,8,MX,1,100,-30
1570469553.255192,216363.000,37443,8,MX,1,100,-30
1570469553.271787,216376.000,37443,8,MX,1,100,-30
1570469553.288381,216389.000,37443,8,MX,1,100,-30
1570469553.304976,216402.000,37443,8,MX,1,100,-30
1570469553.321730,216415.125,37462,8,MX,1,100,-30
1570469553.338484,216428.250,37462,8,MX,1,100,-31
1570469553.355238,216441.375,37462,8,MX,1,100,-31
1570469553.371992,216454.500,37462,8,MX,1,100,-30
1570469553.388746,216467.625,37462,8,MX,1,100,-30
1570469553.405500,216480.750,37462,8,MX,1,100,-30
1570469553.422254,216493.875,37462,8,MX,1,100,-30
1570469553.439008,216507.000,37462,8,MX,1,100,-30
1570469553.455420,216519.857,37480,7,MX,1,100,-31
1570469553.471832,216532.714,37480,7,MX,1,100,-31
1570469553.488245,216545.571,37480,7,MX,1,100,-30
1570469553.504657,216558.429,37480,7,MX,1,100,-30
1570469553.521069,216571.286,37480,7,MX,1,100,-30
1570469553.537481,216584.143,37480,7,MX,1,100,-30
1570469553.553893,216597.000,37480,7,MX,1,100,-30
1570469553.570487,216610.000,37498,8,MX,1,100,-30
1570469553.587082,216623.000,37498,8,MX,1,100,-30
1570469553.603677,216636.000,37498,8,MX,1,100,-30
1570469553.620271,216649.000,37498,8,MX,1,100,-31
1570469553.636865,216662.000,37498,8,MX,1,100,-31
1570469553.653460,216675.000,37498,8,MX,1,100,-30
1570469553.670054,216688.000,37498,8,MX,1,100,-30
1570469553.686649,216701.000,37498,8,MX,1,100,-31
1570469553.703243,216714.000,37516,8,MX,1,100,-31
1570469553.719838,216727.000,37516,8,MX,1,100,-31
1570469553.736433,216740.000,37516,8,MX,1,100,-30
1570469553.753027,216753.000,37516,8,MX,1,100,-30
1570469553.769621,216766.000,37516,8,MX,1,100,-30
1570469553.786216,216779.000,37516,8,MX,1,100,-30
1570469553.802810,216792.000,37516,8,MX,1,100,-30
1570469553.819405,216805.000,37516,8,MX,1,100,-30
1570469553.836318,216818.250,37532,8,MX,1,100,-30
1570469553.853232,216831.500,37532,8,MX,1,100,-31
1570469553.870146,216844.750,37532,8,MX,1,100,-31
1570469553.887059,216858.000,37532,8,MX,1,100,-31
1570469553.903973,216871.250,37532,8,MX,1,100,-30
1570469553.920887,216884.500,37532,8,MX,1,100,-30
1570469553.937800,216897.750,37532,8,MX,1,100,-29
1570469553.954714,216911.000,37532,8,MX,1,100,-29
1570469553.971491,216924.143,37550,7,MX,1,100,-31
1570469553.988268,216937.286,37550,7,MX,1,100,-31
1570469554.005044,216950.429,37550,7,MX,1,100,-31
1570469554.021821,216963.571,37550,7,MX,1,100,-31
1570469554.038598,216976.714,37550,7,MX,1,100,-31
1570469554.055375,216989.857,37550,7,MX,1,100,-31
1570469554.072152,217003.000,37550,7,MX,1,100,-31
1570469554.089066,217016.250,37568,8,MX,1,100,-31
1570469554.105979,217029.500,37568,8,MX,1,100,-30
1570469554.122893,217042.750,37568,8,MX,1,100,-30
1570469554.139806,217056.000,37568,8,MX,1,100,-30
1570469554.156720,217069.250,37568,8,MX,1,100,-30
1570469554.173634,217082.500,37568,8,MX,1,100,-30
1570469554.190547,217095.750,37568,8,MX,1,100,-30
1570469554.207461,217109.000,37568,8,MX,1,100,-30
1570469554.223577,217121.625,37586,8,MX,1,100,-29
1570469554.239692,217134.250,37586,8,MX,1,100,-29
1570469554.255808,217146.875,37586,8,MX,1,100,-31
1570469554.271924,217159.500,37586,8,MX,1,100,-31
1570469554.288040,217172.125,37586,8,MX,1,100,-31
1570469554.304156,217184.750,37586,8,MX,1,100,-30
1570469554.320271,217197.375,37586,8,MX,1,100,-30
1570469554.336387,217210.000,37586,8,MX,1,100,-31
1570469554.352822,217222.875,37605,8,MX,1,100,-31
1570469554.369257,217235.750,37605,8,MX,1,100,-31
1570469554.385692,217248.625,37605,8,MX,1,100,-31
1570469554.402127,217261.500,37605,8,MX,1,100,-31
1570469554.418562,217274.375,37605,8,MX,1,100,-30
1570469554.434997,217287.250,37605,8,MX,1,100,-30
1570469554.451432,217300.125,37605,8,MX,1,100,-30
1570469554.467867,217313.000,37605,8,MX,1,100,-30
1570469554.484279,217325.857,37623,7,MX,1,100,-30
1570469554.500691,217338.714,37623,7,MX,1,100,-30
1570469554.517103,217351.571,37623,7,MX,1,100,-30
1570469554.533515,217364.429,37623,7,MX,1,100,-31
1570469554.549927,217377.286,37623,7,MX,1,100,-31
1570469554.566339,217390.143,37623,7,MX,1,100,-31
1570469554.582752,217403.000,37623,7,MX,1,100,-31
1570469554.599346,217416.000,37641,8,MX,1,100,-31
1570469554.615941,217429.000,37641,8,MX,1,100,-30
1570469554.632535,217442.000,37641,8,MX,1,100,-30
1570469554.649130,217455.000,37641,8,MX,1,100,-30
1570469554.665724,217468.000,37641,8,MX,1,100,-30
1570469554.682319,217481.000,37641,8,MX,1,100,-30
1570469554.698913,217494.000,37641,8,MX,1,100,-30
1570469554.715508,217507.000,37641,8,MX,1,100,-30
1570469554.731943,217519.875,37659,8,MX,1,100,-30
1570469554.748378,217532.750,37659,8,MX,1,100,-30
1570469554.764812,217545.625,37659,8,MX,1,100,-30
1570469554.781247,217558.500,37659,8,MX,1,100,-31
1570469554.797682,217571.375,37659,8,MX,1,100,-31
1570469554.814117,217584.250,37659,8,MX,1,100,-30
1570469554.830552,217597.125,37659,8,MX,1,100,-30
1570469554.846987,217610.000,37659,8,MX,1,100,-30
1570469554.863741,217623.125,37677,8,MX,1,100,-30
1570469554.880495,217636.250,37677,8,MX,1,100,-30
1570469554.897249,217649.375,37677,8,MX,1,100,-30
1570469554.914003,217662.500,37677,8,MX,1,100,-30
1570469554.930758,217675.625,37677,8,MX,1,100,-30
1570469554.947511,217688.750,37677,8,MX,1,100,-32
1570469554.964266,217701.875,37677,8,MX,1,100,-32
1570469554.981020,217715.000,37677,8,MX,1,100,-31
1570469554.997797,217728.143,37695,7,MX,1,100,-31
1570469555.014573,217741.286,37695,7,MX,1,100,-31
1570469555.031350,217754.429,37695,7,MX,1,100,-30
1570469555.048127,217767.571,37695,7,MX,1,100,-30
1570469555.064904,217780.714,37695,7,MX,1,100,-31
1570469555.081681,217793.857,37695,7,MX,1,100,-31
1570469555.098458,217807.000,37695,7,MX,1,100,-30
1570469555.115212,217820.125,37713,8,MX,1,100,-30
1570469555.131966,217833.250,37713,8,MX,1,100,-30
1570469555.148720,217846.375,37713,8,MX,1,100,-30
1570469555.165474,217859.500,37713,8,MX,1,100,-30
1570469555.182228,217872.625,37713,8,MX,1,100,-32
1570469555.198982,217885.750,37713,8,MX,1,100,-32
1570469555.215736,217898.875,37713,8,MX,1,100,-32
1570469555.232490,217912.000,37713,8,MX,1,100,-31
1570469555.248765,217924.750,37731,8,MX,1,100,-31
1570469555.265041,217937.500,37731,8,MX,1,100,-30
1570469555.281316,217950.250,37731,8,MX,1,100,-30
1570469555.297591,217963.000,37731,8,MX,1,100,-31
1570469555.313867,217975.750,37731,8,MX,1,100,-31
1570469555.330142,217988.500,37731,8,MX,1,100,-31
1570469555.346418,218001.250,37731,8,MX,1,100,-30
1570469555.362693,218014.000,37731,8,MX,1,100,-30
1570469555.379447,218027.125,37750,8,MX,1,100,-31
1570469555.396201,218040.250,37750,8,MX,1,100,-31
1570469555.412955,218053.375,37750,8,MX,1,100,-31
1570469555.429709,218066.500,37750,8,MX,1,100,-31
1570469555.446463,218079.625,37750,8,MX,1,100,-31
1570469555.463217,218092.750,37750,8,MX,1,100,-31
1570469555.479971,218105.875,37750,8,MX,1,100,-31
1570469555.496726,218119.000,37750,8,MX,1,100,-31
1570469555.513320,218132.000,37768,8,MX,1,100,-30
1570469555.529914,218145.000,37768,8,MX,1,100,-30
1570469555.546509,218158.000,37768,8,MX,1,100,-30
1570469555.563103,218171.000,37768,8,MX,1,100,-30
1570469555.579698,218184.000,37768,8,MX,1,100,-30
1570469555.596292,218197.000,37768,8,MX,1,100,-30
1570469555.612887,218210.000,37768,8,MX,1,100,-30
1570469555.629482,218223.000,37768,8,MX,1,100,-31
1570469555.646076,218236.000,37786,7,MX,1,100,-31
1570469555.662670,218249.000,37786,7,MX,1,100,-31
1570469555.679265,218262.000,37786,7,MX,1,100,-31
1570469555.695859,218275.000,37786,7,MX,1,100,-31
1570469555.712454,218288.000,37786,7,MX,1,100,-31
1570469555.729048,218301.000,37786,7,MX,1,100,-31
1570469555.745643,218314.000,37786,7,MX,1,100,-31
1570469555.762237,218327.000,37804,8,MX,1,100,-31
1570469555.778832,218340.000,37804,8,MX,1,100,-31
1570469555.795426,218353.000,37804,8,MX,1,100,-31
1570469555.812021,218366.000,37804,8,MX,1,100,-31
1570469555.828615,218379.000,37804,8,MX,1,100,-30
1570469555.845210,218392.000,37804,8,MX,1,100,-30
1570469555.861804,218405.000,37804,8,MX,1,100,-31
1570469555.878399,218418.000,37804,8,MX,1,100,-31
1570469555.895313,218431.250,37822,8,MX,1,100,-31
1570469555.912226,218444.500,37822,8,MX,1,100,-30
1570469555.929140,218457.750,37822,8,MX,1,100,-30
1570469555.946053,218471.000,37822,8,MX,1,100,-31
1570469555.962967,218484.250,37822,8,MX,1,100,-31
1570469555.979881,218497.500,37822,8,MX,1,100,-31
1570469555.996794,218510.750,37822,8,MX,1,100,-31
1570469556.013708,218524.000,37822,8,MX,1,100,-31
1570469556.030462,218537.125,37840,8,MX,1,100,-31
1570469556.047216,218550.250,37840,8,MX,1,100,-31
1570469556.063970,218563.375,37840,8,MX,1,100,-31
1570469556.080724,218576.500,37840,8,MX,1,100,-31
1570469556.097478,218589.625,37840,8,MX,1,100,-31
1570469556.114232,218602.750,37840,8,MX,1,100,-31
1570469556.130986,218615.875,37840,8,MX,1,100,-31
1570469556.147740,218629.000,37840,8,MX,1,100,-30
1570469556.164882,218642.429,37858,7,MX,1,100,-30
1570469556.182024,218655.857,37858,7,MX,1,100,-30
1570469556.199165,218669.286,37858,7,MX,1,100,-31
1570469556.216307,218682.714,37858,7,MX,1,100,-31
1570469556.233448,218696.143,37858,7,MX,1,100,-31
1570469556.250590,218709.571,37858,7,MX,1,100,-31
1570469556.267731,218723.000,37858,7,MX,1,100,-31
1570469556.284326,218736.000,37876,8,MX,1,100,-31
1570469556.300920,218749.000,37876,8,MX,1,100,-31
1570469556.317515,218762.000,37876,8,MX,1,100,-32
1570469556.334109,218775.000,37876,8,MX,1,100,-32
1570469556.350704,218788.000,37876,8,MX,1,100,-32
1570469556.367298,218801.000,37876,8,MX,1,100,-31
1570469556.383893,218814.000,37876,8,MX,1,100,-31
1570469556.400487,218827.000,37876,8,MX,1,100,-31
1570469556.416922,218839.875,37895,8,MX,1,100,-31
1570469556.433357,218852.750,37895,8,MX,1,100,-31
1570469556.449792,218865.625,37895,8,MX,1,100,-31
1570469556.466227,218878.500,37895,8,MX,1,100,-31
1570469556.482662,218891.375,37895,8,MX,1,100,-35
1570469556.499097,218904.250,37895,8,MX,1,100,-35
1570469556.515532,218917.125,37895,8,MX,1,100,-39
1570469556.531967,218930.000,37895,8,MX,1,100,-39
1570469556.548721,218943.125,37913,8,MX,1,100,-39
1570469556.565475,218956.250,37913,8,MX,1,100,-42
1570469556.582229,218969.375,37913,8,MX,1,100,-42
1570469556.598983,218982.500,37913,8,MX,1,100,-46
1570469556.615737,218995.625,37913,8,MX,1,100,-46
1570469556.632491,219008.750,37913,8,MX,1,100,-49
1570469556.649245,219021.875,37913,8,MX,1,100,-49
1570469556.665999,219035.000,37913,8,MX,1,100,-49
1570469556.682594,219048.000,37931,7,MX,1,100,-52
1570469556.699188,219061.000,37931,7,MX,1,100,-52
1570469556.715783,219074.000,37931,7,MX,1,100,-56
1570469556.732377,219087.000,37931,7,MX,1,100,-56
1570469556.748972,219100.000,37931,7,MX,1,100,-56
1570469556.765566,219113.000,37931,7,MX,1,100,-58
1570469556.782161,219126.000,37931,7,MX,1,100,-58
1570469556.798915,219139.125,37949,8,MX,1,100,-61
1570469556.815669,219152.250,37949,8,MX,1,100,-61
1570469556.832423,219165.375,37949,8,MX,1,100,-61
1570469556.849177,219178.500,37949,8,MX,1,100,-62
1570469556.865931,219191.625,37949,8,MX,1,100,-62
1570469556.882685,219204.750,37949,8,MX,1,100,-63
1570469556.899439,219217.875,37949,8,MX,1,100,-63
1570469556.916193,219231.000,37949,8,MX,1,100,-63
1570469556.932788,219244.000,37966,8,MX,1,100,-62
1570469556.949382,219257.000,37966,8,MX,1,100,-62
1570469556.965977,219270.000,37966,8,MX,1,100,-60
1570469556.982571,219283.000,37966,8,MX,1,100,-60
1570469556.999166,219296.000,37966,8,MX,1,100,-57
1570469557.015760,219309.000,37966,8,MX,1,100,-57
1570469557.032355,219322.000,37966,8,MX,1,100,-57
1570469557.048949,219335.000,37966,8,MX,1,100,-56
1570469557.065703,219348.125,37984,8,MX,1,100,-56
1570469557.082457,219361.250,37984,8,MX,1,100,-53
1570469557.099211,219374.375,37984,8,MX,1,100,-53
1570469557.115965,219387.500,37984,8,MX,1,100,-53
1570469557.132719,219400.625,37984,8,MX,1,100,-52
1570469557.149473,219413.750,37984,8,MX,1,100,-52
1570469557.166228,219426.875,37984,8,MX,1,100,-53
1570469557.182981,219440.000,37984,8,MX,1,100,-53
1570469557.199758,219453.143,38002,7,MX,1,100,-51
1570469557.216535,219466.286,38002,7,MX,1,100,-51
1570469557.233312,219479.429,38002,7,MX,1,100,-51
1570469557.250089,219492.571,38002,7,MX,1,100,-50
1570469557.266866,219505.714,38002,7,MX,1,100,-50
1570469557.283643,219518.857,38002,7,MX,1,100,-50
1570469557.300420,219532.000,38002,7,MX,1,100,-50
1570469557.317014,219545.000,38021,8,MX,1,100,-50
1570469557.333608,219558.000,38021,8,MX,1,100,-49
1570469557.350203,219571.000,38021,8,MX,1,100,-49
1570469557.366797,219584.000,38021,8,MX,1,100,-50
1570469557.383392,219597.000,38021,8,MX,1,100,-50
1570469557.399987,219610.000,38021,8,MX,1,100,-50
1570469557.416581,219623.000,38021,8,MX,1,100,-48
1570469557.433176,219636.000,38021,8,MX,1,100,-48
1570469557.449451,219648.750,38039,8,MX,1,100,-44
1570469557.465726,219661.500,38039,8,MX,1,100,-44
1570469557.482002,219674.250,38039,8,MX,1,100,-44
1570469557.498277,219687.000,38039,8,MX,1,100,-50
1570469557.514552,219699.750,38039,8,MX,1,100,-50
1570469557.530828,219712.500,38039,8,MX,1,100,-49
1570469557.547103,219725.250,38039,8,MX,1,100,-49
1570469557.563378,219738.000,38039,8,MX,1,100,-48
1570469557.579973,219751.000,38057,8,MX,1,100,-48
1570469557.596567,219764.000,38057,8,MX,1,100,-48
1570469557.613162,219777.000,38057,8,MX,1,100,-46
1570469557.629756,219790.000,38057,8,MX,1,100,-46
1570469557.646351,219803.000,38057,8,MX,1,100,-46
1570469557.662946,219816.000,38057,8,MX,1,100,-46
1570469557.679540,219829.000,38057,8,MX,1,100,-46
1570469557.696134,219842.000,38057,8,MX,1,100,-46
1570469557.712364,219854.714,38075,7,MX,1,100,-46
1570469557.728594,219867.429,38075,7,MX,1,100,-42
1570469557.744824,219880.143,38075,7,MX,1,100,-42
1570469557.761054,219892.857,38075,7,MX,1,100,-45
1570469557.777283,219905.571,38075,7,MX,1,100,-45
1570469557.793513,219918.286,38075,7,MX,1,100,-45
1570469557.809743,219931.000,38075,7,MX,1,100,-47
1570469557.826497,219944.125,38093,8,MX,1,100,-47
1570469557.843251,219957.250,38093,8,MX,1,100,-45
1570469557.860005,219970.375,38093,8,MX,1,100,-45
1570469557.876759,219983.500,38093,8,MX,1,100,-45
1570469557.893513,219996.625,38093,8,MX,1,100,-46
1570469557.910267,220009.750,38093,8,MX,1,100,-46
1570469557.927021,220022.875,38093,8,MX,1,100,-46
1570469557.943775,220036.000,38093,8,MX,1,100,-46
1570469557.960370,220049.000,38109,8,MX,1,100,-46
1570469557.976964,220062.000,38109,8,MX,1,100,-45
1570469557.993559,220075.000,38109,8,MX,1,100,-45
1570469558.010153,220088.000,38109,8,MX,1,100,-47
1570469558.026748,220101.000,38109,8,MX,1,100,-47
1570469558.043342,220114.000,38109,8,MX,1,100,-45
1570469558.059937,220127.000,38109,8,MX,1,100,-45
1570469558.076531,220140.000,38109,8,MX,1,100,-45
1570469558.093126,220153.000,38127,8,MX,1,100,-49
1570469558.109720,220166.000,38127,8,MX,1,100,-49
1570469558.126315,220179.000,38127,8,MX,1,100,-50
1570469558.142909,220192.000,38127,8,MX,1,100,-50
1570469558.159504,220205.000,38127,8,MX,1,100,-50
1570469558.176098,220218.000,38127,8,MX,1,100,-52
1570469558.192693,220231.000,38127,8,MX,1,100,-52
1570469558.209287,220244.000,38127,8,MX,1,100,-54
1570469558.226176,220257.231,38148,13,MX,1,100,-54
1570469558.243065,220270.462,38148,13,MX,1,100,-54
1570469558.259954,220283.692,38148,13,MX,1,100,-54
1570469558.276844,220296.923,38148,13,MX,1,100,-54
1570469558.293733,220310.154,38148,13,MX,1,100,-56
1570469558.310622,220323.385,38148,13,MX,1,100,-56
1570469558.327511,220336.615,38148,13,MX,1,100,-57
1570469558.344400,220349.846,38148,13,MX,1,100,-57
1570469558.361289,220363.077,38148,13,MX,1,100,-57
1570469558.378178,220376.308,38148,13,MX,1,100,-56
1570469558.395067,220389.538,38148,13,MX,1,100,-56
1570469558.411956,220402.769,38148,13,MX,1,100,-57
1570469558.428845,220416.000,38148,13,MX,1,100,-57
1570469558.445440,220429.000,38169,6,MX,1,100,-57
1570469558.462034,220442.000,38169,6,MX,1,100,-58
1570469558.478629,220455.000,38169,6,MX,1,100,-58
1570469558.495223,220468.000,38169,6,MX,1,100,-58
1570469558.511818,220481.000,38169,6,MX,1,100,-58
1570469558.528412,220494.000,38169,6,MX,1,100,-59
1570469558.545166,220507.125,38187,8,MX,1,100,-59
1570469558.561920,220520.250,38187,8,MX,1,100,-59
1570469558.578674,220533.375,38187,8,MX,1,100,-57
1570469558.595428,220546.500,38187,8,MX,1,100,-57
1570469558.612182,220559.625,38187,8,MX,1,100,-59
1570469558.628937,220572.750,38187,8,MX,1,100,-59
1570469558.645691,220585.875,38187,8,MX,1,100,-59
1570469558.662445,220599.000,38187,8,MX,1,100,-58
1570469558.678879,220611.875,38205,8,MX,1,100,-58
1570469558.695314,220624.750,38205,8,MX,1,100,-58
1570469558.711750,220637.625,38205,8,MX,1,100,-58
1570469558.728184,220650.500,38205,8,MX,1,100,-58
1570469558.744619,220663.375,38205,8,MX,1,100,-59
1570469558.761054,220676.250,38205,8,MX,1,100,-59
1570469558.777489,220689.125,38205,8,MX,1,100,-56
1570469558.793924,220702.000,38205,8,MX,1,100,-56
1570469558.810519,220715.000,38223,8,MX,1,100,-56
1570469558.827113,220728.000,38223,8,MX,1,100,-56
1570469558.843708,220741.000,38223,8,MX,1,100,-56
1570469558.860302,220754.000,38223,8,MX,1,100,-55
1570469558.876897,220767.000,38223,8,MX,1,100,-55
1570469558.893491,220780.000,38223,8,MX,1,100,-55
1570469558.910086,220793.000,38223,8,MX,1,100,-55
1570469558.926680,220806.000,38223,8,MX,1,100,-55
1570469558.943457,220819.143,38241,7,MX,1,100,-54
1570469558.960234,220832.286,38241,7,MX,1,100,-54
1570469558.977011,220845.429,38241,7,MX,1,100,-54
1570469558.993788,220858.571,38241,7,MX,1,100,-54
1570469559.010564,220871.714,38241,7,MX,1,100,-54
1570469559.027341,220884.857,38241,7,MX,1,100,-54
1570469559.044118,220898.000,38241,7,MX,1,100,-54
1570469559.061032,220911.250,38259,8,MX,1,100,-54
1570469559.077945,220924.500,38259,8,MX,1,100,-54
1570469559.094859,220937.750,38259,8,MX,1,100,-54
1570469559.111773,220951.000,38259,8,MX,1,100,-54
1570469559.128686,220964.250,38259,8,MX,1,100,-54
1570469559.145600,220977.500,38259,8,MX,1,100,-53
1570469559.162513,220990.750,38259,8,MX,1,100,-53
1570469559.179427,221004.000,38259,8,MX,1,100,-54
1570469559.196181,221017.125,38276,8,MX,1,100,-54
1570469559.212935,221030.250,38276,8,MX,1,100,-54
1570469559.229689,221043.375,38276,8,MX,1,100,-53
1570469559.246443,221056.500,38276,8,MX,1,100,-53
1570469559.263197,221069.625,38276,8,MX,1,100,-53
1570469559.279951,221082.750,38276,8,MX,1,100,-53
1570469559.296705,221095.875,38276,8,MX,1,100,-53
1570469559.313459,221109.000,38276,8,MX,1,100,-52
1570469559.330419,221122.286,38294,7,MX,1,100,-52
1570469559.347378,221135.571,38294,7,MX,1,100,-53
1570469559.364337,221148.857,38294,7,MX,1,100,-53
1570469559.381296,221162.143,38294,7,MX,1,100,-53
1570469559.398256,221175.429,38294,7,MX,1,100,-52
1570469559.415215,221188.714,38294,7,MX,1,100,-52
1570469559.432174,221202.000,38294,7,MX,1,100,-54
1570469559.448768,221215.000,38313,8,MX,1,100,-54
1570469559.465363,221228.000,38313,8,MX,1,100,-53
1570469559.481957,221241.000,38313,8,MX,1,100,-53
1570469559.498552,221254.000,38313,8,MX,1,100,-53
1570469559.515146,221267.000,38313,8,MX,1,100,-54
1570469559.531741,221280.000,38313,8,MX,1,100,-54
1570469559.548335,221293.000,38313,8,MX,1,100,-53
1570469559.564930,221306.000,38313,8,MX,1,100,-53
1570469559.581684,221319.125,38331,8,MX,1,100,-53
1570469559.598438,221332.250,38331,8,MX,1,100,-53
1570469559.615192,221345.375,38331,8,MX,1,100,-53
1570469559.631946,221358.500,38331,8,MX,1,100,-53
1570469559.648700,221371.625,38331,8,MX,1,100,-53
1570469559.665454,221384.750,38331,8,MX,1,100,-53
1570469559.682208,221397.875,38331,8,MX,1,100,-53
1570469559.698962,221411.000,38331,8,MX,1,100,-53
1570469559.715557,221424.000,38349,7,MX,1,100,-53
1570469559.732151,221437.000,38349,7,MX,1,100,-53
1570469559.748746,221450.000,38349,7,MX,1,100,-54
1570469559.765340,221463.000,38349,7,MX,1,100,-54
1570469559.781935,221476.000,38349,7,MX,1,100,-54
1570469559.798529,221489.000,38349,7,MX,1,100,-54
1570469559.815124,221502.000,38349,7,MX,1,100,-54
1570469559.831878,221515.125,38367,8,MX,1,100,-54
1570469559.848632,221528.250,38367,8,MX,1,100,-54
1570469559.865386,221541.375,38367,8,MX,1,100,-54
1570469559.882140,221554.500,38367,8,MX,1,100,-54
1570469559.898894,221567.625,38367,8,MX,1,100,-54
1570469559.915648,221580.750,38367,8,MX,1,100,-54
1570469559.932402,221593.875,38367,8,MX,1,100,-54
1570469559.949156,221607.000,38367,8,MX,1,100,-54
1570469559.965591,221619.875,38385,8,MX,1,100,-54
1570469559.982026,221632.750,38385,8,MX,1,100,-54
1570469559.998461,221645.625,38385,8,MX,1,100,-54
1570469560.014896,221658.500,38385,8,MX,1,100,-54
1570469560.031331,221671.375,38385,8,MX,1,100,-54
1570469560.047766,221684.250,38385,8,MX,1,100,-54
1570469560.064201,221697.125,38385,8,MX,1,100,-54
1570469560.080636,221710.000,38385,8,MX,1,100,-54
1570469560.097549,221723.250,38401,8,MX,1,100,-54
1570469560.114463,221736.500,38401,8,MX,1,100,-53
1570469560.131377,221749.750,38401,8,MX,1,100,-53
1570469560.148290,221763.000,38401,8,MX,1,100,-53
1570469560.165204,221776.250,38401,8,MX,1,100,-54
1570469560.182117,221789.500,38401,8,MX,1,100,-54
1570469560.199031,221802.750,38401,8,MX,1,100,-54
1570469560.215945,221816.000,38401,8,MX,1,100,-54
1570469560.232699,221829.125,38419,8,MX,1,100,-54
1570469560.249453,221842.250,38419,8,MX,1,100,-54
1570469560.266207,221855.375,38419,8,MX,1,100,-54
1570469560.282961,221868.500,38419,8,MX,1,100,-54
1570469560.299715,221881.625,38419,8,MX,1,100,-54
1570469560.316469,221894.750,38419,8,MX,1,100,-54
1570469560.333223,221907.875,38419,8,MX,1,100,-54
1570469560.349977,221921.000,38419,8,MX,1,100,-54
1570469560.366754,221934.143,38437,7,MX,1,100,-55
1570469560.383531,221947.286,38437,7,MX,1,100,-55
1570469560.400308,221960.429,38437,7,MX,1,100,-54
1570469560.417085,221973.571,38437,7,MX,1,100,-54
1570469560.433861,221986.714,38437,7,MX,1,100,-54
1570469560.450638,221999.857,38437,7,MX,1,100,-53
1570469560.467415,222013.000,38437,7,MX,1,100,-53
1570469560.483850,222025.875,38456,8,MX,1,100,-53
1570469560.500285,222038.750,38456,8,MX,1,100,-53
1570469560.516720,222051.625,38456,8,MX,1,100,-54
1570469560.533155,222064.500,38456,8,MX,1,100,-54
1570469560.549590,222077.375,38456,8,MX,1,100,-54
1570469560.566025,222090.250,38456,8,MX,1,100,-55
1570469560.582460,222103.125,38456,8,MX,1,100,-55
1570469560.598895,222116.000,38456,8,MX,1,100,-53
1570469560.615330,222128.875,38474,8,MX,1,100,-53
1570469560.631764,222141.750,38474,8,MX,1,100,-53
1570469560.648200,222154.625,38474,8,MX,1,100,-54
1570469560.664634,222167.500,38474,8,MX,1,100,-54
1570469560.681069,222180.375,38474,8,MX,1,100,-54
1570469560.697504,222193.250,38474,8,MX,1,100,-54
1570469560.713939,222206.125,38474,8,MX,1,100,-54
1570469560.730374,222219.000,38474,8,MX,1,100,-54
1570469560.746809,222231.875,38492,8,MX,1,100,-54
1570469560.763244,222244.750,38492,8,MX,1,100,-55
1570469560.779679,222257.625,38492,8,MX,1,100,-55
1570469560.796114,222270.500,38492,8,MX,1,100,-54
1570469560.812549,222283.375,38492,8,MX,1,100,-54
1570469560.828984,222296.250,38492,8,MX,1,100,-54
1570469560.845419,222309.125,38492,8,MX,1,100,-54
1570469560.861854,222322.000,38492,8,MX,1,100,-54
1570469560.878266,222334.857,38510,7,MX,1,100,-55
1570469560.894678,222347.714,38510,7,MX,1,100,-55
1570469560.911090,222360.571,38510,7,MX,1,100,-55
1570469560.927502,222373.429,38510,7,MX,1,100,-53
1570469560.943914,222386.286,38510,7,MX,1,100,-53
1570469560.960326,222399.143,38510,7,MX,1,100,-54
1570469560.976738,222412.000,38510,7,MX,1,100,-54
1570469560.993493,222425.125,38528,8,MX,1,100,-54
1570469561.010247,222438.250,38528,8,MX,1,100,-54
1570469561.027001,222451.375,38528,8,MX,1,100,-54
1570469561.043755,222464.500,38528,8,MX,1,100,-56
1570469561.060509,222477.625,38528,8,MX,1,100,-56
1570469561.077263,222490.750,38528,8,MX,1,100,-54
1570469561.094017,222503.875,38528,8,MX,1,100,-54
1570469561.110771,222517.000,38528,8,MX,1,100,-54
1570469561.127366,222530.000,38546,8,MX,1,100,-54
1570469561.143960,222543.000,38546,8,MX,1,100,-54
1570469561.160554,222556.000,38546,8,MX,1,100,-54
1570469561.177149,222569.000,38546,8,MX,1,100,-54
1570469561.193743,222582.000,38546,8,MX,1,100,-54
1570469561.210338,222595.000,38546,8,MX,1,100,-55
1570469561.226933,222608.000,38546,8,MX,1,100,-55
1570469561.243527,222621.000,38546,8,MX,1,100,-55
1570469561.260281,222634.125,38564,8,MX,1,100,-55
1570469561.277035,222647.250,38564,8,MX,1,100,-55
1570469561.293789,222660.375,38564,8,MX,1,100,-54
1570469561.310543,222673.500,38564,8,MX,1,100,-54
1570469561.327297,222686.625,38564,8,MX,1,100,-55
1570469561.344051,222699.750,38564,8,MX,1,100,-55
1570469561.360805,222712.875,38564,8,MX,1,100,-55
1570469561.377559,222726.000,38564,8,MX,1,100,-55
1570469561.394336,222739.143,38583,7,MX,1,100,-55
1570469561.411113,222752.286,38583,7,MX,1,100,-54
1570469561.427890,222765.429,38583,7,MX,1,100,-54
1570469561.444667,222778.571,38583,7,MX,1,100,-54
1570469561.461444,222791.714,38583,7,MX,1,100,-54
1570469561.478220,222804.857,38583,7,MX,1,100,-54
1570469561.494998,222818.000,38583,7,MX,1,100,-54
1570469561.511592,222831.000,38601,8,MX,1,100,-54
1570469561.528186,222844.000,38601,8,MX,1,100,-53
1570469561.544781,222857.000,38601,8,MX,1,100,-53
1570469561.561375,222870.000,38601,8,MX,1,100,-54
1570469561.577970,222883.000,38601,8,MX,1,100,-54
1570469561.594564,222896.000,38601,8,MX,1,100,-54
1570469561.611159,222909.000,38601,8,MX,1,100,-55
1570469561.627753,222922.000,38601,8,MX,1,100,-55
1570469561.644188,222934.875,38619,8,MX,1,100,-55
1570469561.660623,222947.750,38619,8,MX,1,100,-55
1570469561.677058,222960.625,38619,8,MX,1,100,-55
1570469561.693493,222973.500,38619,8,MX,1,100,-54
1570469561.709928,222986.375,38619,8,MX,1,100,-54
1570469561.726363,222999.250,38619,8,MX,1,100,-54
1570469561.742798,223012.125,38619,8,MX,1,100,-54
1570469561.759233,223025.000,38619,8,MX,1,100,-54
1570469561.775987,223038.125,38637,8,MX,1,100,-54
1570469561.792741,223051.250,38637,8,MX,1,100,-54
1570469561.809495,223064.375,38637,8,MX,1,100,-54
1570469561.826249,223077.500,38637,8,MX,1,100,-54
1570469561.843003,223090.625,38637,8,MX,1,100,-54
1570469561.859757,223103.750,38637,8,MX,1,100,-54
1570469561.876511,223116.875,38637,8,MX,1,100,-54
1570469561.893265,223130.000,38637,8,MX,1,100,-54
1570469561.909678,223142.857,38655,7,MX,1,100,-54
1570469561.926090,223155.714,38655,7,MX,1,100,-54
1570469561.942502,223168.571,38655,7,MX,1,100,-54
1570469561.958914,223181.429,38655,7,MX,1,100,-54
1570469561.975326,223194.286,38655,7,MX,1,100,-54
1570469561.991738,223207.143,38655,7,MX,1,100,-54
1570469562.008150,223220.000,38655,7,MX,1,100,-55
1570469562.024904,223233.125,38673,8,MX,1,100,-55
1570469562.041658,223246.250,38673,8,MX,1,100,-55
1570469562.058413,223259.375,38673,8,MX,1,100,-54
1570469562.075166,223272.500,38673,8,MX,1,100,-54
1570469562.091921,223285.625,38673,8,MX,1,100,-53
1570469562.108675,223298.750,38673,8,MX,1,100,-53
1570469562.125429,223311.875,38673,8,MX,1,100,-55
1570469562.142183,223325.000,38673,8,MX,1,100,-55
1570469562.158937,223338.125,38691,8,MX,1,100,-55
1570469562.175691,223351.250,38691,8,MX,1,100,-55
1570469562.192445,223364.375,38691,8,MX,1,100,-55
1570469562.209199,223377.500,38691,8,MX,1,100,-54
1570469562.225953,223390.625,38691,8,MX,1,100,-54
1570469562.242707,223403.750,38691,8,MX,1,100,-54
1570469562.259461,223416.875,38691,8,MX,1,100,-54
1570469562.276215,223430.000,38691,8,MX,1,100,-54
1570469562.293129,223443.250,38709,8,MX,1,100,-54
1570469562.310042,223456.500,38709,8,MX,1,100,-54
1570469562.326956,223469.750,38709,8,MX,1,100,-54
1570469562.343870,223483.000,38709,8,MX,1,100,-54
1570469562.360783,223496.250,38709,8,MX,1,100,-54
1570469562.377697,223509.500,38709,8,MX,1,100,-54
1570469562.394611,223522.750,38709,8,MX,1,100,-54
1570469562.411524,223536.000,38709,8,MX,1,100,-54
1570469562.428301,223549.143,38728,7,MX,1,100,-54
1570469562.445078,223562.286,38728,7,MX,1,100,-54
1570469562.461855,223575.429,38728,7,MX,1,100,-54
1570469562.478631,223588.571,38728,7,MX,1,100,-54
1570469562.495409,223601.714,38728,7,MX,1,100,-54
1570469562.512185,223614.857,38728,7,MX,1,100,-54
1570469562.528962,223628.000,38728,7,MX,1,100,-54
1570469562.545716,223641.125,38746,8,MX,1,100,-54
1570469562.562470,223654.250,38746,8,MX,1,100,-54
1570469562.579224,223667.375,38746,8,MX,1,100,-54
1570469562.595978,223680.500,38746,8,MX,1,100,-54
1570469562.612732,223693.625,38746,8,MX,1,100,-54
1570469562.629487,223706.750,38746,8,MX,1,100,-54
1570469562.646240,223719.875,38746,8,MX,1,100,-54
1570469562.662995,223733.000,38746,8,MX,1,100,-54
1570469562.679908,223746.250,38764,8,MX,1,100,-54
1570469562.696822,223759.500,38764,8,MX,1,100,-54
1570469562.713735,223772.750,38764,8,MX,1,100,-54
1570469562.730649,223786.000,38764,8,MX,1,100,-54
1570469562.747563,223799.250,38764,8,MX,1,100,-54
1570469562.764476,223812.500,38764,8,MX,1,100,-54
1570469562.781390,223825.750,38764,8,MX,1,100,-54
1570469562.798304,223839.000,38764,8,MX,1,100,-54
1570469562.814716,223851.857,38782,7,MX,1,100,-54
1570469562.831128,223864.714,38782,7,MX,1,100,-54
1570469562.847540,223877.571,38782,7,MX,1,100,-54
1570469562.863952,223890.429,38782,7,MX,1,100,-53
1570469562.880364,223903.286,38782,7,MX,1,100,-53
1570469562.896776,223916.143,38782,7,MX,1,100,-54
1570469562.913188,223929.000,38782,7,MX,1,100,-54
1570469562.929783,223942.000,38800,8,MX,1,100,-54
1570469562.946378,223955.000,38800,8,MX,1,100,-53
1570469562.962972,223968.000,38800,8,MX,1,100,-53
1570469562.979567,223981.000,38800,8,MX,1,100,-54
1570469562.996161,223994.000,38800,8,MX,1,100,-54
1570469563.012755,224007.000,38800,8,MX,1,100,-54
1570469563.029350,224020.000,38800,8,MX,1,100,-53
1570469563.045944,224033.000,38800,8,MX,1,100,-53
1570469563.062699,224046.125,38818,8,MX,1,100,-54
1570469563.079453,224059.250,38818,8,MX,1,100,-54
1570469563.096207,224072.375,38818,8,MX,1,100,-54
1570469563.112961,224085.500,38818,8,MX,1,100,-52
1570469563.129715,224098.625,38818,8,MX,1,100,-52
1570469563.146469,224111.750,38818,8,MX,1,100,-54
1570469563.163223,224124.875,38818,8,MX,1,100,-54
1570469563.179977,224138.000,38818,8,MX,1,100,-54
1570469563.196731,224151.125,38835,8,MX,1,100,-54
1570469563.213485,224164.250,38835,8,MX,1,100,-54
1570469563.230239,224177.375,38835,8,MX,1,100,-53
1570469563.246993,224190.500,38835,8,MX,1,100,-53
1570469563.263747,224203.625,38835,8,MX,1,100,-53
1570469563.280501,224216.750,38835,8,MX,1,100,-53
1570469563.297255,224229.875,38835,8,MX,1,100,-53
1570469563.314009,224243.000,38835,8,MX,1,100,-52
1570469563.330786,224256.143,38853,7,MX,1,100,-52
1570469563.347563,224269.286,38853,7,MX,1,100,-53
1570469563.364340,224282.429,38853,7,MX,1,100,-53
1570469563.381117,224295.571,38853,7,MX,1,100,-53
1570469563.397894,224308.714,38853,7,MX,1,100,-54
1570469563.414670,224321.857,38853,7,MX,1,100,-54
1570469563.431448,224335.000,38853,7,MX,1,100,-54
1570469563.448042,224348.000,38872,8,MX,1,100,-54
1570469563.464636,224361.000,38872,8,MX,1,100,-54
1570469563.481231,224374.000,38872,8,MX,1,100,-54
1570469563.497825,224387.000,38872,8,MX,1,100,-54
1570469563.514420,224400.000,38872,8,MX,1,100,-53
1570469563.531014,224413.000,38872,8,MX,1,100,-53
1570469563.547609,224426.000,38872,8,MX,1,100,-53
1570469563.564203,224439.000,38872,8,MX,1,100,-53
1570469563.580798,224452.000,38890,8,MX,1,100,-53
1570469563.597392,224465.000,38890,8,MX,1,100,-52
1570469563.613987,224478.000,38890,8,MX,1,100,-52
1570469563.630581,224491.000,38890,8,MX,1,100,-53
1570469563.647176,224504.000,38890,8,MX,1,100,-53
1570469563.663770,224517.000,38890,8,MX,1,100,-53
1570469563.680365,224530.000,38890,8,MX,1,100,-53
1570469563.696959,224543.000,38890,8,MX,1,100,-53
1570469563.713554,224556.000,38908,8,MX,1,100,-53
1570469563.730148,224569.000,38908,8,MX,1,100,-53
1570469563.746743,224582.000,38908,8,MX,1,100,-53
1570469563.763337,224595.000,38908,8,MX,1,100,-53
1570469563.779932,224608.000,38908,8,MX,1,100,-53
1570469563.796526,224621.000,38908,8,MX,1,100,-53
1570469563.813121,224634.000,38908,8,MX,1,100,-53
1570469563.829715,224647.000,38908,8,MX,1,100,-54
1570469563.845945,224659.714,38926,7,MX,1,100,-54
1570469563.862175,224672.429,38926,7,MX,1,100,-54
1570469563.878405,224685.143,38926,7,MX,1,100,-52
1570469563.894634,224697.857,38926,7,MX,1,100,-52
1570469563.910864,224710.571,38926,7,MX,1,100,-53
1570469563.927094,224723.286,38926,7,MX,1,100,-53
1570469563.943324,224736.000,38926,7,MX,1,100,-53
1570469563.959759,224748.875,38944,8,MX,1,100,-54
1570469563.976194,224761.750,38944,8,MX,1,100,-54
1570469563.992629,224774.625,38944,8,MX,1,100,-54
1570469564.009063,224787.500,38944,8,MX,1,100,-54
1570469564.025498,224800.375,38944,8,MX,1,100,-53
1570469564.041933,224813.250,38944,8,MX,1,100,-53
1570469564.058368,224826.125,38944,8,MX,1,100,-53
1570469564.074803,224839.000,38944,8,MX,1,100,-54
1570469564.091238,224851.875,38962,8,MX,1,100,-54
1570469564.107673,224864.750,38962,8,MX,1,100,-54
1570469564.124108,224877.625,38962,8,MX,1,100,-54
1570469564.140543,224890.500,38962,8,MX,1,100,-54
1570469564.156978,224903.375,38962,8,MX,1,100,-53
1570469564.173413,224916.250,38962,8,MX,1,100,-53
1570469564.189848,224929.125,38962,8,MX,1,100,-53
1570469564.206283,224942.000,38962,8,MX,1,100,-53
1570469564.223196,224955.250,38980,8,MX,1,100,-53
1570469564.240110,224968.500,38980,8,MX,1,100,-53
1570469564.257024,224981.750,38980,8,MX,1,100,-53
1570469564.273937,224995.000,38980,8,MX,1,100,-53
1570469564.290851,225008.250,38980,8,MX,1,100,-53
1570469564.307765,225021.500,38980,8,MX,1,100,-53
1570469564.324678,225034.750,38980,8,MX,1,100,-53
1570469564.341592,225048.000,38980,8,MX,1,100,-53
1570469564.358186,225061.000,38996,8,MX,1,100,-53
1570469564.374781,225074.000,38996,8,MX,1,100,-53
1570469564.391375,225087.000,38996,8,MX,1,100,-54
1570469564.407970,225100.000,38996,8,MX,1,100,-54
1570469564.424564,225113.000,38996,8,MX,1,100,-54
1570469564.441159,225126.000,38996,8,MX,1,100,-53
1570469564.457753,225139.000,38996,8,MX,1,100,-53
1570469564.474348,225152.000,38996,8,MX,1,100,-54
1570469564.491307,225165.286,39015,7,MX,1,100,-54
1570469564.508266,225178.571,39015,7,MX,1,100,-54
1570469564.525225,225191.857,39015,7,MX,1,100,-54
1570469564.542184,225205.143,39015,7,MX,1,100,-54
1570469564.559144,225218.429,39015,7,MX,1,100,-53
1570469564.576103,225231.714,39015,7,MX,1,100,-53
1570469564.593062,225245.000,39015,7,MX,1,100,-53
1570469564.609657,225258.000,39033,8,MX,1,100,-53
1570469564.626251,225271.000,39033,8,MX,1,100,-53
1570469564.642846,225284.000,39033,8,MX,1,100,-53
1570469564.659440,225297.000,39033,8,MX,1,100,-53
1570469564.676034,225310.000,39033,8,MX,1,100,-54
1570469564.692629,225323.000,39033,8,MX,1,100,-54
1570469564.709224,225336.000,39033,8,MX,1,100,-54
1570469564.725818,225349.000,39033,8,MX,1,100,-54
1570469564.742314,225361.923,39054,13,MX,1,100,-54
1570469564.758811,225374.846,39054,13,MX,1,100,-53
1570469564.775307,225387.769,39054,13,MX,1,100,-53
1570469564.791803,225400.692,39054,13,MX,1,100,-54
1570469564.808300,225413.615,39054,13,MX,1,100,-54
1570469564.824796,225426.538,39054,13,MX,1,100,-54
1570469564.841292,225439.462,39054,13,MX,1,100,-53
1570469564.857789,225452.385,39054,13,MX,1,100,-53
1570469564.874285,225465.308,39054,13,MX,1,100,-53
1570469564.890781,225478.231,39054,13,MX,1,100,-53
1570469564.907277,225491.154,39054,13,MX,1,100,-53
1570469564.923774,225504.077,39054,13,MX,1,100,-54
1570469564.940270,225517.000,39054,13,MX,1,100,-54
1570469564.957229,225530.286,39074,7,MX,1,100,-53
1570469564.974188,225543.571,39074,7,MX,1,100,-53
1570469564.991148,225556.857,39074,7,MX,1,100,-53
1570469565.008107,225570.143,39074,7,MX,1,100,-52
1570469565.025066,225583.429,39074,7,MX,1,100,-52
1570469565.042025,225596.714,39074,7,MX,1,100,-53
1570469565.058985,225610.000,39074,7,MX,1,100,-53
1570469565.075419,225622.875,39092,8,MX,1,100,-53
1570469565.091854,225635.750,39092,8,MX,1,100,-53
1570469565.108289,225648.625,39092,8,MX,1,100,-53
1570469565.124724,225661.500,39092,8,MX,1,100,-54
1570469565.141159,225674.375,39092,8,MX,1,100,-54
1570469565.157594,225687.250,39092,8,MX,1,100,-53
1570469565.174029,225700.125,39092,8,MX,1,100,-53
1570469565.190464,225713.000,39092,8,MX,1,100,-53
1570469565.207058,225726.000,39110,7,MX,1,100,-53
1570469565.223653,225739.000,39110,7,MX,1,100,-53
1570469565.240247,225752.000,39110,7,MX,1,100,-53
1570469565.256842,225765.000,39110,7,MX,1,100,-53
1570469565.273436,225778.000,39110,7,MX,1,100,-53
1570469565.290031,225791.000,39110,7,MX,1,100,-52
1570469565.306625,225804.000,39110,7,MX,1,100,-52
1570469565.323380,225817.125,39128,8,MX,1,100,-53
1570469565.340133,225830.250,39128,8,MX,1,100,-53
1570469565.356888,225843.375,39128,8,MX,1,100,-53
1570469565.373642,225856.500,39128,8,MX,1,100,-53
1570469565.390396,225869.625,39128,8,MX,1,100,-53
1570469565.407150,225882.750,39128,8,MX,1,100,-52
1570469565.423904,225895.875,39128,8,MX,1,100,-52
1570469565.440658,225909.000,39128,8,MX,1,100,-53
1570469565.457572,225922.250,39147,8,MX,1,100,-53
1570469565.474485,225935.500,39147,8,MX,1,100,-53
1570469565.491399,225948.750,39147,8,MX,1,100,-53
1570469565.508312,225962.000,39147,8,MX,1,100,-53
1570469565.525226,225975.250,39147,8,MX,1,100,-53
1570469565.542140,225988.500,39147,8,MX,1,100,-53
1570469565.559053,226001.750,39147,8,MX,1,100,-53
1570469565.575967,226015.000,39147,8,MX,1,100,-52
1570469565.592926,226028.286,39164,7,MX,1,100,-52
1570469565.609885,226041.571,39164,7,MX,1,100,-53
1570469565.626844,226054.857,39164,7,MX,1,100,-53
1570469565.643804,226068.143,39164,7,MX,1,100,-53
1570469565.660763,226081.429,39164,7,MX,1,100,-53
1570469565.677722,226094.714,39164,7,MX,1,100,-53
1570469565.694681,226108.000,39164,7,MX,1,100,-53
1570469565.711435,226121.125,39182,8,MX,1,100,-53
1570469565.728189,226134.250,39182,8,MX,1,100,-54
1570469565.744943,226147.375,39182,8,MX,1,100,-54
1570469565.761698,226160.500,39182,8,MX,1,100,-54
1570469565.778452,226173.625,39182,8,MX,1,100,-54
1570469565.795206,226186.750,39182,8,MX,1,100,-54
1570469565.811960,226199.875,39182,8,MX,1,100,-53
1570469565.828714,226213.000,39182,8,MX,1,100,-53
1570469565.845308,226226.000,39200,8,MX,1,100,-53
1570469565.861903,226239.000,39200,8,MX,1,100,-53
1570469565.878497,226252.000,39200,8,MX,1,100,-53
1570469565.895092,226265.000,39200,8,MX,1,100,-54
1570469565.911686,226278.000,39200,8,MX,1,100,-54
1570469565.928281,226291.000,39200,8,MX,1,100,-53
1570469565.944875,226304.000,39200,8,MX,1,100,-53
1570469565.961470,226317.000,39200,8,MX,1,100,-53
1570469565.978224,226330.125,39218,8,MX,1,100,-52
1570469565.994978,226343.250,39218,8,MX,1,100,-52
1570469566.011732,226356.375,39218,8,MX,1,100,-54
1570469566.028486,226369.500,39218,8,MX,1,100,-54
1570469566.045240,226382.625,39218,8,MX,1,100,-54
1570469566.061994,226395.750,39218,8,MX,1,100,-53
1570469566.078748,226408.875,39218,8,MX,1,100,-53
1570469566.095502,226422.000,39218,8,MX,1,100,-53
1570469566.112097,226435.000,39236,7,MX,1,100,-53
1570469566.128691,226448.000,39236,7,MX,1,100,-53
1570469566.145286,226461.000,39236,7,MX,1,100,-53
1570469566.161880,226474.000,39236,7,MX,1,100,-53
1570469566.178475,226487.000,39236,7,MX,1,100,-51
1570469566.195069,226500.000,39236,7,MX,1,100,-51
1570469566.211664,226513.000,39236,7,MX,1,100,-53
1570469566.228418,226526.125,39254,8,MX,1,100,-53
1570469566.245172,226539.250,39254,8,MX,1,100,-53
1570469566.261926,226552.375,39254,8,MX,1,100,-53
1570469566.278680,226565.500,39254,8,MX,1,100,-53
1570469566.295434,226578.625,39254,8,MX,1,100,-54
1570469566.312188,226591.750,39254,8,MX,1,100,-54
1570469566.328942,226604.875,39254,8,MX,1,100,-54
1570469566.345696,226618.000,39254,8,MX,1,100,-52
1570469566.362131,226630.875,39270,8,MX,1,100,-52
1570469566.378566,226643.750,39270,8,MX,1,100,-52
1570469566.395001,226656.625,39270,8,MX,1,100,-52
1570469566.411436,226669.500,39270,8,MX,1,100,-52
1570469566.427871,226682.375,39270,8,MX,1,100,-53
1570469566.444306,226695.250,39270,8,MX,1,100,-53
1570469566.460741,226708.125,39270,8,MX,1,100,-53
1570469566.477175,226721.000,39270,8,MX,1,100,-53
1570469566.494499,226734.571,39289,7,MX,1,100,-53
1570469566.511823,226748.143,39289,7,MX,1,100,-53
1570469566.529147,226761.714,39289,7,MX,1,100,-53
1570469566.546471,226775.286,39289,7,MX,1,100,-53
1570469566.563795,226788.857,39289,7,MX,1,100,-53
1570469566.581119,226802.429,39289,7,MX,1,100,-52
1570469566.598443,226816.000,39289,7,MX,1,100,-52
1570469566.615037,226829.000,39307,8,MX,1,100,-52
1570469566.631632,226842.000,39307,8,MX,1,100,-53
1570469566.648226,226855.000,39307,8,MX,1,100,-53
1570469566.664821,226868.000,39307,8,MX,1,100,-53
1570469566.681416,226881.000,39307,8,MX,1,100,-53
1570469566.698010,226894.000,39307,8,MX,1,100,-53
1570469566.714605,226907.000,39307,8,MX,1,100,-53
1570469566.731199,226920.000,39307,8,MX,1,100,-53
1570469566.747634,226932.875,39325,8,MX,1,100,-52
1570469566.764069,226945.750,39325,8,MX,1,100,-52
1570469566.780504,226958.625,39325,8,MX,1,100,-53
1570469566.796939,226971.500,39325,8,MX,1,100,-53
1570469566.813374,226984.375,39325,8,MX,1,100,-53
1570469566.829809,226997.250,39325,8,MX,1,100,-53
1570469566.846244,227010.125,39325,8,MX,1,100,-53
1570469566.862679,227023.000,39325,8,MX,1,100,-53
1570469566.879273,227036.000,39343,8,MX,1,100,-53
1570469566.895868,227049.000,39343,8,MX,1,100,-53
1570469566.912462,227062.000,39343,8,MX,1,100,-53
1570469566.929056,227075.000,39343,8,MX,1,100,-53
1570469566.945651,227088.000,39343,8,MX,1,100,-54
1570469566.962245,227101.000,39343,8,MX,1,100,-54
1570469566.978840,227114.000,39343,8,MX,1,100,-54
1570469566.995435,227127.000,39343,8,MX,1,100,-53
1570469567.011847,227139.857,39361,7,MX,1,100,-53
1570469567.028259,227152.714,39361,7,MX,1,100,-53
1570469567.044671,227165.571,39361,7,MX,1,100,-53
1570469567.061083,227178.429,39361,7,MX,1,100,-53
1570469567.077495,227191.286,39361,7,MX,1,100,-53
1570469567.093907,227204.143,39361,7,MX,1,100,-53
1570469567.110319,227217.000,39361,7,MX,1,100,-53
1570469567.126754,227229.875,39379,8,MX,1,100,-53
1570469567.143189,227242.750,39379,8,MX,1,100,-53
1570469567.159624,227255.625,39379,8,MX,1,100,-53
1570469567.176059,227268.500,39379,8,MX,1,100,-53
1570469567.192494,227281.375,39379,8,MX,1,100,-53
1570469567.208929,227294.250,39379,8,MX,1,100,-53
1570469567.225364,227307.125,39379,8,MX,1,100,-53
1570469567.241799,227320.000,39379,8,MX,1,100,-53
1570469567.258553,227333.125,39397,8,MX,1,100,-54
1570469567.275307,227346.250,39397,8,MX,1,100,-54
1570469567.292061,227359.375,39397,8,MX,1,100,-54
1570469567.308815,227372.500,39397,8,MX,1,100,-52
1570469567.325569,227385.625,39397,8,MX,1,100,-52
1570469567.342323,227398.750,39397,8,MX,1,100,-53
1570469567.359077,227411.875,39397,8,MX,1,100,-53
1570469567.375831,227425.000,39397,8,MX,1,100,-53
1570469567.392586,227438.125,39415,8,MX,1,100,-53
1570469567.409339,227451.250,39415,8,MX,1,100,-53
1570469567.426094,227464.375,39415,8,MX,1,100,-52
1570469567.442847,227477.500,39415,8,MX,1,100,-52
1570469567.459602,227490.625,39415,8,MX,1,100,-52
1570469567.476356,227503.750,39415,8,MX,1,100,-53
1570469567.493110,227516.875,39415,8,MX,1,100,-53
1570469567.509864,227530.000,39415,8,MX,1,100,-52
1570469567.526641,227543.143,39434,7,MX,1,100,-52
1570469567.543417,227556.286,39434,7,MX,1,100,-52
1570469567.560194,227569.429,39434,7,MX,1,100,-53
1570469567.576971,227582.571,39434,7,MX,1,100,-53
1570469567.593748,227595.714,39434,7,MX,1,100,-53
1570469567.610525,227608.857,39434,7,MX,1,100,-53
1570469567.627302,227622.000,39434,7,MX,1,100,-54
1570469567.643896,227635.000,39452,8,MX,1,100,-54
1570469567.660491,227648.000,39452,8,MX,1,100,-54
1570469567.677085,227661.000,39452,8,MX,1,100,-53
1570469567.693680,227674.000,39452,8,MX,1,100,-53
1570469567.710274,227687.000,39452,8,MX,1,100,-54
1570469567.726869,227700.000,39452,8,MX,1,100,-54
1570469567.743463,227713.000,39452,8,MX,1,100,-54
1570469567.760058,227726.000,39452,8,MX,1,100,-54
1570469567.776652,227739.000,39470,8,MX,1,100,-54
1570469567.793247,227752.000,39470,8,MX,1,100,-53
1570469567.809841,227765.000,39470,8,MX,1,100,-53
1570469567.826436,227778.000,39470,8,MX,1,100,-53
1570469567.843030,227791.000,39470,8,MX,1,100,-53
1570469567.859625,227804.000,39470,8,MX,1,100,-53
1570469567.876219,227817.000,39470,8,MX,1,100,-54
1570469567.892814,227830.000,39470,8,MX,1,100,-54
1570469567.909408,227843.000,39488,8,MX,1,100,-53
1570469567.926003,227856.000,39488,8,MX,1,100,-53
1570469567.942597,227869.000,39488,8,MX,1,100,-53
1570469567.959192,227882.000,39488,8,MX,1,100,-54
1570469567.975786,227895.000,39488,8,MX,1,100,-54
1570469567.992381,227908.000,39488,8,MX,1,100,-54
1570469568.008975,227921.000,39488,8,MX,1,100,-54
1570469568.025570,227934.000,39488,8,MX,1,100,-54
1570469568.042005,227946.875,39506,8,MX,1,100,-53
1570469568.058439,227959.750,39506,8,MX,1,100,-53
1570469568.074874,227972.625,39506,8,MX,1,100,-53
1570469568.091309,227985.500,39506,8,MX,1,100,-53
1570469568.107744,227998.375,39506,8,MX,1,100,-53
1570469568.124179,228011.250,39506,8,MX,1,100,-53
1570469568.140614,228024.125,39506,8,MX,1,100,-53
1570469568.157049,228037.000,39506,8,MX,1,100,-53
1570469568.173644,228050.000,39524,7,MX,1,100,-53
1570469568.190238,228063.000,39524,7,MX,1,100,-53
1570469568.206833,228076.000,39524,7,MX,1,100,-53
1570469568.223427,228089.000,39524,7,MX,1,100,-53
1570469568.240022,228102.000,39524,7,MX,1,100,-53
1570469568.256616,228115.000,39524,7,MX,1,100,-53
1570469568.273211,228128.000,39524,7,MX,1,100,-54
1570469568.290124,228141.250,39542,8,MX,1,100,-54
1570469568.307038,228154.500,39542,8,MX,1,100,-54
1570469568.323951,228167.750,39542,8,MX,1,100,-54
1570469568.340865,228181.000,39542,8,MX,1,100,-54
1570469568.357779,228194.250,39542,8,MX,1,100,-52
1570469568.374692,228207.500,39542,8,MX,1,100,-52
1570469568.391606,228220.750,39542,8,MX,1,100,-54
1570469568.408520,228234.000,39542,8,MX,1,100,-54
1570469568.425274,228247.125,39560,8,MX,1,100,-54
1570469568.442028,228260.250,39560,8,MX,1,100,-54
1570469568.458782,228273.375,39560,8,MX,1,100,-54
1570469568.475536,228286.500,39560,8,MX,1,100,-53
1570469568.492290,228299.625,39560,8,MX,1,100,-53
1570469568.509044,228312.750,39560,8,MX,1,100,-53
1570469568.525798,228325.875,39560,8,MX,1,100,-53
1570469568.542552,228339.000,39560,8,MX,1,100,-53
1570469568.559694,228352.429,39579,7,MX,1,100,-53
1570469568.576835,228365.857,39579,7,MX,1,100,-53
1570469568.593977,228379.286,39579,7,MX,1,100,-53
1570469568.611118,228392.714,39579,7,MX,1,100,-53
1570469568.628260,228406.143,39579,7,MX,1,100,-53
1570469568.645401,228419.571,39579,7,MX,1,100,-54
1570469568.662543,228433.000,39579,7,MX,1,100,-54
1570469568.679297,228446.125,39597,8,MX,1,100,-54
1570469568.696051,228459.250,39597,8,MX,1,100,-54
1570469568.712805,228472.375,39597,8,MX,1,100,-54
1570469568.729559,228485.500,39597,8,MX,1,100,-53
1570469568.746313,228498.625,39597,8,MX,1,100,-53
1570469568.763067,228511.750,39597,8,MX,1,100,-54
1570469568.779821,228524.875,39597,8,MX,1,100,-54
1570469568.796576,228538.000,39597,8,MX,1,100,-54
1570469568.813010,228550.875,39615,8,MX,1,100,-53
1570469568.829445,228563.750,39615,8,MX,1,100,-53
1570469568.845880,228576.625,39615,8,MX,1,100,-54
1570469568.862315,228589.500,39615,8,MX,1,100,-54
1570469568.878750,228602.375,39615,8,MX,1,100,-54
1570469568.895185,228615.250,39615,8,MX,1,100,-54
1570469568.911620,228628.125,39615,8,MX,1,100,-54
1570469568.928055,228641.000,39615,8,MX,1,100,-54
1570469568.944649,228654.000,39633,7,MX,1,100,-54
1570469568.961244,228667.000,39633,7,MX,1,100,-53
1570469568.977839,228680.000,39633,7,MX,1,100,-53
1570469568.994433,228693.000,39633,7,MX,1,100,-53
1570469569.011027,228706.000,39633,7,MX,1,100,-53
1570469569.027622,228719.000,39633,7,MX,1,100,-53
1570469569.044216,228732.000,39633,7,MX,1,100,-54
1570469569.060971,228745.125,39651,8,MX,1,100,-54
1570469569.077724,228758.250,39651,8,MX,1,100,-54
1570469569.094479,228771.375,39651,8,MX,1,100,-54
1570469569.111233,228784.500,39651,8,MX,1,100,-54
1570469569.127987,228797.625,39651,8,MX,1,100,-53
1570469569.144741,228810.750,39651,8,MX,1,100,-53
1570469569.161495,228823.875,39651,8,MX,1,100,-54
1570469569.178249,228837.000,39651,8,MX,1,100,-54
1570469569.195003,228850.125,39669,8,MX,1,100,-54
1570469569.211757,228863.250,39669,8,MX,1,100,-53
1570469569.228511,228876.375,39669,8,MX,1,100,-53
1570469569.245265,228889.500,39669,8,MX,1,100,-53
1570469569.262019,228902.625,39669,8,MX,1,100,-53
1570469569.278773,228915.750,39669,8,MX,1,100,-53
1570469569.295527,228928.875,39669,8,MX,1,100,-52
1570469569.312281,228942.000,39669,8,MX,1,100,-52
1570469569.328876,228955.000,39686,8,MX,1,100,-53
1570469569.345470,228968.000,39686,8,MX,1,100,-53
1570469569.362065,228981.000,39686,8,MX,1,100,-53
1570469569.378659,228994.000,39686,8,MX,1,100,-54
1570469569.395254,229007.000,39686,8,MX,1,100,-54
1570469569.411848,229020.000,39686,8,MX,1,100,-54
1570469569.428443,229033.000,39686,8,MX,1,100,-54
1570469569.445037,229046.000,39686,8,MX,1,100,-54
1570469569.461814,229059.143,39704,7,MX,1,100,-53
1570469569.478591,229072.286,39704,7,MX,1,100,-53
1570469569.495368,229085.429,39704,7,MX,1,100,-54
1570469569.512145,229098.571,39704,7,MX,1,100,-54
1570469569.528922,229111.714,39704,7,MX,1,100,-54
1570469569.545698,229124.857,39704,7,MX,1,100,-54
1570469569.562475,229138.000,39704,7,MX,1,100,-54
1570469569.579229,229151.125,39723,8,MX,1,100,-54
1570469569.595984,229164.250,39723,8,MX,1,100,-54
1570469569.612737,229177.375,39723,8,MX,1,100,-54
1570469569.629492,229190.500,39723,8,MX,1,100,-54
1570469569.646245,229203.625,39723,8,MX,1,100,-54
1570469569.663000,229216.750,39723,8,MX,1,100,-54
1570469569.679754,229229.875,39723,8,MX,1,100,-54
1570469569.696508,229243.000,39723,8,MX,1,100,-54
1570469569.713262,229256.125,39741,8,MX,1,100,-54
1570469569.730016,229269.250,39741,8,MX,1,100,-54
1570469569.746770,229282.375,39741,8,MX,1,100,-54
1570469569.763524,229295.500,39741,8,MX,1,100,-54
1570469569.780278,229308.625,39741,8,MX,1,100,-53
1570469569.797032,229321.750,39741,8,MX,1,100,-53
1570469569.813786,229334.875,39741,8,MX,1,100,-54
1570469569.830540,229348.000,39741,8,MX,1,100,-54
1570469569.846816,229360.750,39759,8,MX,1,100,-54
1570469569.863091,229373.500,39759,8,MX,1,100,-54
1570469569.879366,229386.250,39759,8,MX,1,100,-54
1570469569.895642,229399.000,39759,8,MX,1,100,-54
1570469569.911917,229411.750,39759,8,MX,1,100,-54
1570469569.928192,229424.500,39759,8,MX,1,100,-54
1570469569.944468,229437.250,39759,8,MX,1,100,-53
1570469569.960743,229450.000,39759,8,MX,1,100,-53
1570469569.977338,229463.000,39777,8,MX,1,100,-54
1570469569.993932,229476.000,39777,8,MX,1,100,-54
1570469570.010527,229489.000,39777,8,MX,1,100,-54
1570469570.027121,229502.000,39777,8,MX,1,100,-54
1570469570.043716,229515.000,39777,8,MX,1,100,-54
1570469570.060310,229528.000,39777,8,MX,1,100,-54
1570469570.076905,229541.000,39777,8,MX,1,100,-54
1570469570.093499,229554.000,39777,8,MX,1,100,-53
1570469570.109729,229566.714,39795,7,MX,1,100,-53
1570469570.125959,229579.429,39795,7,MX,1,100,-53
1570469570.142189,229592.143,39795,7,MX,1,100,-54
1570469570.158418,229604.857,39795,7,MX,1,100,-54
1570469570.174648,229617.571,39795,7,MX,1,100,-53
1570469570.190878,229630.286,39795,7,MX,1,100,-53
1570469570.207108,229643.000,39795,7,MX,1,100,-53
1570469570.223702,229656.000,39813,8,MX,1,100,-54
1570469570.240297,229669.000,39813,8,MX,1,100,-54
1570469570.256891,229682.000,39813,8,MX,1,100,-52
1570469570.273486,229695.000,39813,8,MX,1,100,-52
1570469570.290080,229708.000,39813,8,MX,1,100,-53
1570469570.306674,229721.000,39813,8,MX,1,100,-53
1570469570.323269,229734.000,39813,8,MX,1,100,-53
1570469570.339864,229747.000,39813,8,MX,1,100,-54
1570469570.356458,229760.000,39830,8,MX,1,100,-54
1570469570.373053,229773.000,39830,8,MX,1,100,-53
1570469570.389647,229786.000,39830,8,MX,1,100,-53
1570469570.406242,229799.000,39830,8,MX,1,100,-53
1570469570.422836,229812.000,39830,8,MX,1,100,-54
1570469570.439430,229825.000,39830,8,MX,1,100,-54
1570469570.456025,229838.000,39830,8,MX,1,100,-53
1570469570.472620,229851.000,39830,8,MX,1,100,-53
1570469570.489579,229864.286,39847,7,MX,1,100,-53
1570469570.506538,229877.571,39847,7,MX,1,100,-53
1570469570.523497,229890.857,39847,7,MX,1,100,-53
1570469570.540456,229904.143,39847,7,MX,1,100,-53
1570469570.557415,229917.429,39847,7,MX,1,100,-53
1570469570.574375,229930.714,39847,7,MX,1,100,-53
1570469570.591334,229944.000,39847,7,MX,1,100,-53
1570469570.608088,229957.125,39866,8,MX,1,100,-53
1570469570.624842,229970.250,39866,8,MX,1,100,-54
1570469570.641596,229983.375,39866,8,MX,1,100,-54
1570469570.658350,229996.500,39866,8,MX,1,100,-54
1570469570.675104,230009.625,39866,8,MX,1,100,-54
1570469570.691858,230022.750,39866,8,MX,1,100,-54
1570469570.708612,230035.875,39866,8,MX,1,100,-54
1570469570.725366,230049.000,39866,8,MX,1,100,-54
1570469570.741961,230062.000,39884,8,MX,1,100,-54
1570469570.758555,230075.000,39884,8,MX,1,100,-54
1570469570.775150,230088.000,39884,8,MX,1,100,-54
1570469570.791744,230101.000,39884,8,MX,1,100,-54
1570469570.808339,230114.000,39884,8,MX,1,100,-54
1570469570.824934,230127.000,39884,8,MX,1,100,-54
1570469570.841528,230140.000,39884,8,MX,1,100,-54
1570469570.858122,230153.000,39884,8,MX,1,100,-54
1570469570.874717,230166.000,39902,8,MX,1,100,-54
1570469570.891311,230179.000,39902,8,MX,1,100,-54
1570469570.907906,230192.000,39902,8,MX,1,100,-53
1570469570.924500,230205.000,39902,8,MX,1,100,-53
1570469570.941095,230218.000,39902,8,MX,1,100,-53
1570469570.957690,230231.000,39902,8,MX,1,100,-53
1570469570.974284,230244.000,39902,8,MX,1,100,-53
1570469570.990878,230257.000,39902,8,MX,1,100,-55
1570469571.007473,230270.000,39920,7,MX,1,100,-55
1570469571.024067,230283.000,39920,7,MX,1,100,-54
1570469571.040662,230296.000,39920,7,MX,1,100,-54
1570469571.057256,230309.000,39920,7,MX,1,100,-54
1570469571.073851,230322.000,39920,7,MX,1,100,-54
1570469571.090445,230335.000,39920,7,MX,1,100,-54
1570469571.107040,230348.000,39920,7,MX,1,100,-54
1570469571.123475,230360.875,39938,8,MX,1,100,-54
1570469571.139910,230373.750,39938,8,MX,1,100,-53
1570469571.156345,230386.625,39938,8,MX,1,100,-53
1570469571.172780,230399.500,39938,8,MX,1,100,-53
1570469571.189214,230412.375,39938,8,MX,1,100,-54
1570469571.205649,230425.250,39938,8,MX,1,100,-54
1570469571.222084,230438.125,39938,8,MX,1,100,-54
1570469571.238519,230451.000,39938,8,MX,1,100,-54
1570469571.255205,230464.071,39959,14,MX,1,100,-54
1570469571.271891,230477.143,39959,14,MX,1,100,-54
1570469571.288576,230490.214,39959,14,MX,1,100,-54
1570469571.305262,230503.286,39959,14,MX,1,100,-53
1570469571.321948,230516.357,39959,14,MX,1,100,-53
1570469571.338633,230529.429,39959,14,MX,1,100,-53
1570469571.355319,230542.500,39959,14,MX,1,100,-54
1570469571.372005,230555.571,39959,14,MX,1,100,-54
1570469571.388690,230568.643,39959,14,MX,1,100,-54
1570469571.405376,230581.714,39959,14,MX,1,100,-54
1570469571.422062,230594.786,39959,14,MX,1,100,-53
1570469571.438747,230607.857,39959,14,MX,1,100,-53
1570469571.455433,230620.929,39959,14,MX,1,100,-53
1570469571.472119,230634.000,39959,14,MX,1,100,-53
1570469571.488926,230647.167,39979,6,MX,1,100,-53
1570469571.505733,230660.333,39979,6,MX,1,100,-54
1570469571.522541,230673.500,39979,6,MX,1,100,-54
1570469571.539348,230686.667,39979,6,MX,1,100,-54
1570469571.556155,230699.833,39979,6,MX,1,100,-54
1570469571.572962,230713.000,39979,6,MX,1,100,-54
1570469571.589716,230726.125,39998,8,MX,1,100,-53
1570469571.606470,230739.250,39998,8,MX,1,100,-53
1570469571.623224,230752.375,39998,8,MX,1,100,-54
1570469571.639978,230765.500,39998,8,MX,1,100,-54
1570469571.656733,230778.625,39998,8,MX,1,100,-54
1570469571.673487,230791.750,39998,8,MX,1,100,-54
1570469571.690241,230804.875,39998,8,MX,1,100,-54
1570469571.706995,230818.000,39998,8,MX,1,100,-53
1570469571.723954,230831.286,40015,7,MX,1,100,-53
1570469571.740913,230844.571,40015,7,MX,1,100,-53
1570469571.757872,230857.857,40015,7,MX,1,100,-53
1570469571.774832,230871.143,40015,7,MX,1,100,-53
1570469571.791791,230884.429,40015,7,MX,1,100,-54
1570469571.808750,230897.714,40015,7,MX,1,100,-54
1570469571.825709,230911.000,40015,7,MX,1,100,-54
1570469571.842463,230924.125,40033,8,MX,1,100,-54
1570469571.859217,230937.250,40033,8,MX,1,100,-54
1570469571.875971,230950.375,40033,8,MX,1,100,-54
1570469571.892725,230963.500,40033,8,MX,1,100,-54
1570469571.909479,230976.625,40033,8,MX,1,100,-54
1570469571.926234,230989.750,40033,8,MX,1,100,-55
1570469571.942988,231002.875,40033,8,MX,1,100,-55
1570469571.959742,231016.000,40033,8,MX,1,100,-54
1570469571.976496,231029.125,40051,8,MX,1,100,-54
1570469571.993250,231042.250,40051,8,MX,1,100,-53
1570469572.010004,231055.375,40051,8,MX,1,100,-53
1570469572.026758,231068.500,40051,8,MX,1,100,-53
1570469572.043512,231081.625,40051,8,MX,1,100,-55
1570469572.060266,231094.750,40051,8,MX,1,100,-55
1570469572.077020,231107.875,40051,8,MX,1,100,-54
1570469572.093774,231121.000,40051,8,MX,1,100,-54
1570469572.110368,231134.000,40069,7,MX,1,100,-54
1570469572.126963,231147.000,40069,7,MX,1,100,-53
1570469572.143558,231160.000,40069,7,MX,1,100,-53
1570469572.160152,231173.000,40069,7,MX,1,100,-53
1570469572.176747,231186.000,40069,7,MX,1,100,-53
1570469572.193341,231199.000,40069,7,MX,1,100,-54
1570469572.209936,231212.000,40069,7,MX,1,100,-54
1570469572.226690,231225.125,40087,8,MX,1,100,-54
1570469572.243444,231238.250,40087,8,MX,1,100,-54
1570469572.260198,231251.375,40087,8,MX,1,100,-54
1570469572.276952,231264.500,40087,8,MX,1,100,-54
1570469572.293706,231277.625,40087,8,MX,1,100,-54
1570469572.310460,231290.750,40087,8,MX,1,100,-54
1570469572.327214,231303.875,40087,8,MX,1,100,-54
1570469572.343968,231317.000,40087,8,MX,1,100,-54
1570469572.360403,231329.875,40105,8,MX,1,100,-53
1570469572.376838,231342.750,40105,8,MX,1,100,-53
1570469572.393273,231355.625,40105,8,MX,1,100,-53
1570469572.409708,231368.500,40105,8,MX,1,100,-54
1570469572.426143,231381.375,40105,8,MX,1,100,-54
1570469572.442578,231394.250,40105,8,MX,1,100,-53
1570469572.459013,231407.125,40105,8,MX,1,100,-53
1570469572.475447,231420.000,40105,8,MX,1,100,-55
1570469572.492361,231433.250,40121,8,MX,1,100,-55
1570469572.509275,231446.500,40121,8,MX,1,100,-55
1570469572.526188,231459.750,40121,8,MX,1,100,-53
1570469572.543102,231473.000,40121,8,MX,1,100,-53
1570469572.560016,231486.250,40121,8,MX,1,100,-53
1570469572.576929,231499.500,40121,8,MX,1,100,-53
1570469572.593843,231512.750,40121,8,MX,1,100,-53
1570469572.610756,231526.000,40121,8,MX,1,100,-54
1570469572.627511,231539.125,40140,8,MX,1,100,-54
1570469572.644265,231552.250,40140,8,MX,1,100,-54
1570469572.661019,231565.375,40140,8,MX,1,100,-54
1570469572.677773,231578.500,40140,8,MX,1,100,-54
1570469572.694527,231591.625,40140,8,MX,1,100,-54
1570469572.711281,231604.750,40140,8,MX,1,100,-54
1570469572.728035,231617.875,40140,8,MX,1,100,-54
1570469572.744789,231631.000,40140,8,MX,1,100,-54
1570469572.761566,231644.143,40158,7,MX,1,100,-54
1570469572.778343,231657.286,40158,7,MX,1,100,-54
1570469572.795120,231670.429,40158,7,MX,1,100,-54
1570469572.811896,231683.571,40158,7,MX,1,100,-55
1570469572.828673,231696.714,40158,7,MX,1,100,-55
1570469572.845450,231709.857,40158,7,MX,1,100,-53
1570469572.862227,231723.000,40158,7,MX,1,100,-53
1570469572.878981,231736.125,40176,8,MX,1,100,-53
1570469572.895735,231749.250,40176,8,MX,1,100,-54
1570469572.912489,231762.375,40176,8,MX,1,100,-54
1570469572.929243,231775.500,40176,8,MX,1,100,-54
1570469572.945997,231788.625,40176,8,MX,1,100,-54
1570469572.962751,231801.750,40176,8,MX,1,100,-54
1570469572.979505,231814.875,40176,8,MX,1,100,-55
1570469572.996259,231828.000,40176,8,MX,1,100,-55
1570469573.012694,231840.875,40194,8,MX,1,100,-54
1570469573.029129,231853.750,40194,8,MX,1,100,-54
1570469573.045564,231866.625,40194,8,MX,1,100,-54
1570469573.061999,231879.500,40194,8,MX,1,100,-54
1570469573.078434,231892.375,40194,8,MX,1,100,-54
1570469573.094869,231905.250,40194,8,MX,1,100,-55
1570469573.111304,231918.125,40194,8,MX,1,100,-55
1570469573.127739,231931.000,40194,8,MX,1,100,-54
1570469573.144174,231943.875,40212,8,MX,1,100,-54
1570469573.160609,231956.750,40212,8,MX,1,100,-54
1570469573.177044,231969.625,40212,8,MX,1,100,-54
1570469573.193479,231982.500,40212,8,MX,1,100,-54
1570469573.209913,231995.375,40212,8,MX,1,100,-54
1570469573.226348,232008.250,40212,8,MX,1,100,-54
1570469573.242783,232021.125,40212,8,MX,1,100,-54
1570469573.259218,232034.000,40212,8,MX,1,100,-53
1570469573.275630,232046.857,40230,7,MX,1,100,-53
1570469573.292042,232059.714,40230,7,MX,1,100,-53
1570469573.308455,232072.571,40230,7,MX,1,100,-53
1570469573.324867,232085.429,40230,7,MX,1,100,-53
1570469573.341279,232098.286,40230,7,MX,1,100,-53
1570469573.357691,232111.143,40230,7,MX,1,100,-53
1570469573.374103,232124.000,40230,7,MX,1,100,-54
1570469573.390698,232137.000,40248,8,MX,1,100,-54
1570469573.407292,232150.000,40248,8,MX,1,100,-54
1570469573.423887,232163.000,40248,8,MX,1,100,-54
1570469573.440481,232176.000,40248,8,MX,1,100,-54
1570469573.457076,232189.000,40248,8,MX,1,100,-53
1570469573.473670,232202.000,40248,8,MX,1,100,-53
1570469573.490265,232215.000,40248,8,MX,1,100,-54
1570469573.506859,232228.000,40248,8,MX,1,100,-54
1570469573.523613,232241.125,40266,8,MX,1,100,-54
1570469573.540367,232254.250,40266,8,MX,1,100,-54
1570469573.557122,232267.375,40266,8,MX,1,100,-54
1570469573.573875,232280.500,40266,8,MX,1,100,-55
1570469573.590630,232293.625,40266,8,MX,1,100,-55
1570469573.607383,232306.750,40266,8,MX,1,100,-53
1570469573.624138,232319.875,40266,8,MX,1,100,-53
1570469573.640892,232333.000,40266,8,MX,1,100,-53
1570469573.657646,232346.125,40285,8,MX,1,100,-54
1570469573.674400,232359.250,40285,8,MX,1,100,-54
1570469573.691154,232372.375,40285,8,MX,1,100,-54
1570469573.707908,232385.500,40285,8,MX,1,100,-54
1570469573.724662,232398.625,40285,8,MX,1,100,-54
1570469573.741416,232411.750,40285,8,MX,1,100,-54
1570469573.758170,232424.875,40285,8,MX,1,100,-54
1570469573.774924,232438.000,40285,8,MX,1,100,-53
1570469573.791883,232451.286,40303,7,MX,1,100,-53
1570469573.808843,232464.571,40303,7,MX,1,100,-53
1570469573.825802,232477.857,40303,7,MX,1,100,-54
1570469573.842761,232491.143,40303,7,MX,1,100,-54
1570469573.859720,232504.429,40303,7,MX,1,100,-54
1570469573.876679,232517.714,40303,7,MX,1,100,-54
1570469573.893639,232531.000,40303,7,MX,1,100,-55
1570469573.910393,232544.125,40321,8,MX,1,100,-55
1570469573.927147,232557.250,40321,8,MX,1,100,-55
1570469573.943901,232570.375,40321,8,MX,1,100,-54
1570469573.960655,232583.500,40321,8,MX,1,100,-54
1570469573.977409,232596.625,40321,8,MX,1,100,-54
1570469573.994163,232609.750,40321,8,MX,1,100,-54
1570469574.010917,232622.875,40321,8,MX,1,100,-54
1570469574.027671,232636.000,40321,8,MX,1,100,-53
1570469574.044106,232648.875,40339,8,MX,1,100,-53
1570469574.060541,232661.750,40339,8,MX,1,100,-52
1570469574.076976,232674.625,40339,8,MX,1,100,-52
1570469574.093411,232687.500,40339,8,MX,1,100,-54
1570469574.109846,232700.375,40339,8,MX,1,100,-54
1570469574.126281,232713.250,40339,8,MX,1,100,-54
1570469574.142716,232726.125,40339,8,MX,1,100,-56
1570469574.159151,232739.000,40339,8,MX,1,100,-56
1570469574.175745,232752.000,40357,7,MX,1,100,-54
1570469574.192340,232765.000,40357,7,MX,1,100,-54
1570469574.208934,232778.000,40357,7,MX,1,100,-54
1570469574.225528,232791.000,40357,7,MX,1,100,-54
1570469574.242123,232804.000,40357,7,MX,1,100,-54
1570469574.258718,232817.000,40357,7,MX,1,100,-54
1570469574.275312,232830.000,40357,7,MX,1,100,-54
1570469574.291907,232843.000,40375,8,MX,1,100,-54
1570469574.308501,232856.000,40375,8,MX,1,100,-54
1570469574.325095,232869.000,40375,8,MX,1,100,-54
1570469574.341690,232882.000,40375,8,MX,1,100,-53
1570469574.358284,232895.000,40375,8,MX,1,100,-53
1570469574.374879,232908.000,40375,8,MX,1,100,-54
1570469574.391474,232921.000,40375,8,MX,1,100,-54
1570469574.408068,232934.000,40375,8,MX,1,100,-54
1570469574.424822,232947.125,40393,8,MX,1,100,-54
1570469574.441576,232960.250,40393,8,MX,1,100,-54
1570469574.458330,232973.375,40393,8,MX,1,100,-54
1570469574.475084,232986.500,40393,8,MX,1,100,-54
1570469574.491838,232999.625,40393,8,MX,1,100,-54
1570469574.508592,233012.750,40393,8,MX,1,100,-54
1570469574.525347,233025.875,40393,8,MX,1,100,-54
1570469574.542100,233039.000,40393,8,MX,1,100,-53
1570469574.558695,233052.000,40411,8,MX,1,100,-53
1570469574.575289,233065.000,40411,8,MX,1,100,-53
1570469574.591884,233078.000,40411,8,MX,1,100,-54
1570469574.608479,233091.000,40411,8,MX,1,100,-54
1570469574.625073,233104.000,40411,8,MX,1,100,-54
1570469574.641667,233117.000,40411,8,MX,1,100,-54
1570469574.658262,233130.000,40411,8,MX,1,100,-54
1570469574.674856,233143.000,40411,8,MX,1,100,-54
1570469574.691770,233156.250,40430,8,MX,1,100,-54
1570469574.708684,233169.500,40430,8,MX,1,100,-54
1570469574.725597,233182.750,40430,8,MX,1,100,-54
1570469574.742511,233196.000,40430,8,MX,1,100,-55
1570469574.759424,233209.250,40430,8,MX,1,100,-55
1570469574.776338,233222.500,40430,8,MX,1,100,-55
1570469574.793252,233235.750,40430,8,MX,1,100,-54
1570469574.810165,233249.000,40430,8,MX,1,100,-54
1570469574.826942,233262.143,40448,7,MX,1,100,-55
1570469574.843719,233275.286,40448,7,MX,1,100,-55
1570469574.860496,233288.429,40448,7,MX,1,100,-54
1570469574.877273,233301.571,40448,7,MX,1,100,-54
1570469574.894050,233314.714,40448,7,MX,1,100,-54
1570469574.910826,233327.857,40448,7,MX,1,100,-53
1570469574.927603,233341.000,40448,7,MX,1,100,-53
1570469574.944517,233354.250,40466,8,MX,1,100,-55
1570469574.961431,233367.500,40466,8,MX,1,100,-55
1570469574.978344,233380.750,40466,8,MX,1,100,-55
1570469574.995258,233394.000,40466,8,MX,1,100,-53
1570469575.012172,233407.250,40466,8,MX,1,100,-53
1570469575.029085,233420.500,40466,8,MX,1,100,-53
1570469575.045999,233433.750,40466,8,MX,1,100,-53
1570469575.062912,233447.000,40466,8,MX,1,100,-53
1570469575.079507,233460.000,40484,7,MX,1,100,-54
1570469575.096101,233473.000,40484,7,MX,1,100,-54
1570469575.112696,233486.000,40484,7,MX,1,100,-54
1570469575.129290,233499.000,40484,7,MX,1,100,-54
1570469575.145885,233512.000,40484,7,MX,1,100,-54
1570469575.162479,233525.000,40484,7,MX,1,100,-53
1570469575.179074,233538.000,40484,7,MX,1,100,-53
1570469575.195668,233551.000,40502,8,MX,1,100,-54
1570469575.212263,233564.000,40502,8,MX,1,100,-54
1570469575.228857,233577.000,40502,8,MX,1,100,-53
1570469575.245452,233590.000,40502,8,MX,1,100,-53
1570469575.262046,233603.000,40502,8,MX,1,100,-53
1570469575.278641,233616.000,40502,8,MX,1,100,-53
1570469575.295235,233629.000,40502,8,MX,1,100,-53
1570469575.311830,233642.000,40502,8,MX,1,100,-53
1570469575.328265,233654.875,40520,8,MX,1,100,-53
1570469575.344700,233667.750,40520,8,MX,1,100,-53
1570469575.361135,233680.625,40520,8,MX,1,100,-53
1570469575.377569,233693.500,40520,8,MX,1,100,-53
1570469575.394004,233706.375,40520,8,MX,1,100,-54
1570469575.410439,233719.250,40520,8,MX,1,100,-54
1570469575.426874,233732.125,40520,8,MX,1,100,-53
1570469575.443309,233745.000,40520,8,MX,1,100,-53
1570469575.460063,233758.125,40538,8,MX,1,100,-53
1570469575.476817,233771.250,40538,8,MX,1,100,-54
1570469575.493571,233784.375,40538,8,MX,1,100,-54
1570469575.510325,233797.500,40538,8,MX,1,100,-55
1570469575.527080,233810.625,40538,8,MX,1,100,-55
1570469575.543833,233823.750,40538,8,MX,1,100,-55
1570469575.560588,233836.875,40538,8,MX,1,100,-53
1570469575.577342,233850.000,40538,8,MX,1,100,-53
1570469575.593936,233863.000,40555,8,MX,1,100,-54
1570469575.610531,233876.000,40555,8,MX,1,100,-54
1570469575.627125,233889.000,40555,8,MX,1,100,-54
1570469575.643720,233902.000,40555,8,MX,1,100,-54
1570469575.660314,233915.000,40555,8,MX,1,100,-54
1570469575.676909,233928.000,40555,8,MX,1,100,-53
1570469575.693503,233941.000,40555,8,MX,1,100,-53
1570469575.710098,233954.000,40555,8,MX,1,100,-53
1570469575.726875,233967.143,40574,7,MX,1,100,-54
1570469575.743651,233980.286,40574,7,MX,1,100,-54
1570469575.760428,233993.429,40574,7,MX,1,100,-54
1570469575.777205,234006.571,40574,7,MX,1,100,-54
1570469575.793982,234019.714,40574,7,MX,1,100,-54
1570469575.810759,234032.857,40574,7,MX,1,100,-54
1570469575.827536,234046.000,40574,7,MX,1,100,-54
1570469575.844130,234059.000,40592,8,MX,1,100,-54
1570469575.860725,234072.000,40592,8,MX,1,100,-54
1570469575.877319,234085.000,40592,8,MX,1,100,-54
1570469575.893914,234098.000,40592,8,MX,1,100,-54
1570469575.910508,234111.000,40592,8,MX,1,100,-54
1570469575.927103,234124.000,40592,8,MX,1,100,-53
1570469575.943697,234137.000,40592,8,MX,1,100,-53
1570469575.960292,234150.000,40592,8,MX,1,100,-54
1570469575.976886,234163.000,40610,8,MX,1,100,-54
1570469575.993481,234176.000,40610,8,MX,1,100,-54
1570469576.010075,234189.000,40610,8,MX,1,100,-54
1570469576.026670,234202.000,40610,8,MX,1,100,-54
1570469576.043264,234215.000,40610,8,MX,1,100,-53
1570469576.059859,234228.000,40610,8,MX,1,100,-53
1570469576.076453,234241.000,40610,8,MX,1,100,-53
1570469576.093048,234254.000,40610,8,MX,1,100,-53
1570469576.109642,234267.000,40628,8,MX,1,100,-53
1570469576.126236,234280.000,40628,8,MX,1,100,-55
1570469576.142831,234293.000,40628,8,MX,1,100,-55
1570469576.159425,234306.000,40628,8,MX,1,100,-54
1570469576.176020,234319.000,40628,8,MX,1,100,-54
1570469576.192615,234332.000,40628,8,MX,1,100,-54
1570469576.209209,234345.000,40628,8,MX,1,100,-53
1570469576.225804,234358.000,40628,8,MX,1,100,-53
1570469576.242079,234370.750,40646,8,MX,1,100,-54
1570469576.258354,234383.500,40646,8,MX,1,100,-54
1570469576.274630,234396.250,40646,8,MX,1,100,-54
1570469576.290905,234409.000,40646,8,MX,1,100,-54
1570469576.307180,234421.750,40646,8,MX,1,100,-54
1570469576.323456,234434.500,40646,8,MX,1,100,-55
1570469576.339731,234447.250,40646,8,MX,1,100,-55
1570469576.356006,234460.000,40646,8,MX,1,100,-54
1570469576.372419,234472.857,40664,7,MX,1,100,-54
1570469576.388831,234485.714,40664,7,MX,1,100,-54
1570469576.405243,234498.571,40664,7,MX,1,100,-54
1570469576.421655,234511.429,40664,7,MX,1,100,-54
1570469576.438067,234524.286,40664,7,MX,1,100,-54
1570469576.454479,234537.143,40664,7,MX,1,100,-54
1570469576.470891,234550.000,40664,7,MX,1,100,-54
1570469576.487326,234562.875,40682,8,MX,1,100,-54
1570469576.503761,234575.750,40682,8,MX,1,100,-54
1570469576.520196,234588.625,40682,8,MX,1,100,-55
1570469576.536631,234601.500,40682,8,MX,1,100,-55
1570469576.553066,234614.375,40682,8,MX,1,100,-54
1570469576.569501,234627.250,40682,8,MX,1,100,-54
1570469576.585936,234640.125,40682,8,MX,1,100,-54
1570469576.602371,234653.000,40682,8,MX,1,100,-55
1570469576.619125,234666.125,40701,8,MX,1,100,-55
1570469576.635879,234679.250,40701,8,MX,1,100,-54
1570469576.652633,234692.375,40701,8,MX,1,100,-54
1570469576.669387,234705.500,40701,8,MX,1,100,-54
1570469576.686141,234718.625,40701,8,MX,1,100,-53
1570469576.702895,234731.750,40701,8,MX,1,100,-53
1570469576.719649,234744.875,40701,8,MX,1,100,-54
1570469576.736403,234758.000,40701,8,MX,1,100,-54
1570469576.753157,234771.125,40717,8,MX,1,100,-54
1570469576.769912,234784.250,40717,8,MX,1,100,-53
1570469576.786665,234797.375,40717,8,MX,1,100,-53
1570469576.803420,234810.500,40717,8,MX,1,100,-52
1570469576.820174,234823.625,40717,8,MX,1,100,-52
1570469576.836928,234836.750,40717,8,MX,1,100,-54
1570469576.853682,234849.875,40717,8,MX,1,100,-54
1570469576.870436,234863.000,40717,8,MX,1,100,-54
1570469576.887190,234876.125,40735,8,MX,1,100,-54
1570469576.903944,234889.250,40735,8,MX,1,100,-54
1570469576.920698,234902.375,40735,8,MX,1,100,-53
1570469576.937452,234915.500,40735,8,MX,1,100,-53
1570469576.954206,234928.625,40735,8,MX,1,100,-53
1570469576.970960,234941.750,40735,8,MX,1,100,-54
1570469576.987714,234954.875,40735,8,MX,1,100,-54
1570469577.004468,234968.000,40735,8,MX,1,100,-54
1570469577.021610,234981.429,40753,7,MX,1,100,-54
1570469577.038751,234994.857,40753,7,MX,1,100,-54
1570469577.055893,235008.286,40753,7,MX,1,100,-53
1570469577.073035,235021.714,40753,7,MX,1,100,-53
1570469577.090176,235035.143,40753,7,MX,1,100,-54
1570469577.107318,235048.571,40753,7,MX,1,100,-54
1570469577.124459,235062.000,40753,7,MX,1,100,-56
1570469577.141213,235075.125,40771,8,MX,1,100,-56
1570469577.157967,235088.250,40771,8,MX,1,100,-56
1570469577.174721,235101.375,40771,8,MX,1,100,-55
1570469577.191475,235114.500,40771,8,MX,1,100,-55
1570469577.208230,235127.625,40771,8,MX,1,100,-54
1570469577.224984,235140.750,40771,8,MX,1,100,-54
1570469577.241738,235153.875,40771,8,MX,1,100,-54
1570469577.258492,235167.000,40771,8,MX,1,100,-54
1570469577.274722,235179.714,40789,7,MX,1,100,-54
1570469577.290951,235192.429,40789,7,MX,1,100,-54
1570469577.307181,235205.143,40789,7,MX,1,100,-54
1570469577.323411,235217.857,40789,7,MX,1,100,-54
1570469577.339641,235230.571,40789,7,MX,1,100,-54
1570469577.355870,235243.286,40789,7,MX,1,100,-54
1570469577.372100,235256.000,40789,7,MX,1,100,-53
1570469577.388854,235269.125,40807,8,MX,1,100,-53
1570469577.405608,235282.250,40807,8,MX,1,100,-54
1570469577.422362,235295.375,40807,8,MX,1,100,-54
1570469577.439116,235308.500,40807,8,MX,1,100,-54
1570469577.455870,235321.625,40807,8,MX,1,100,-55
1570469577.472625,235334.750,40807,8,MX,1,100,-55
1570469577.489379,235347.875,40807,8,MX,1,100,-54
1570469577.506133,235361.000,40807,8,MX,1,100,-54
1570469577.522568,235373.875,40825,8,MX,1,100,-54
1570469577.539003,235386.750,40825,8,MX,1,100,-54
1570469577.555438,235399.625,40825,8,MX,1,100,-54
1570469577.571872,235412.500,40825,8,MX,1,100,-54
1570469577.588307,235425.375,40825,8,MX,1,100,-54
1570469577.604742,235438.250,40825,8,MX,1,100,-54
1570469577.621177,235451.125,40825,8,MX,1,100,-54
1570469577.637612,235464.000,40825,8,MX,1,100,-54
1570469577.654526,235477.250,40844,8,MX,1,100,-55
1570469577.671439,235490.500,40844,8,MX,1,100,-55
1570469577.688353,235503.750,40844,8,MX,1,100,-53
1570469577.705267,235517.000,40844,8,MX,1,100,-53
1570469577.722180,235530.250,40844,8,MX,1,100,-53
1570469577.739094,235543.500,40844,8,MX,1,100,-54
1570469577.756007,235556.750,40844,8,MX,1,100,-54
1570469577.772921,235570.000,40844,8,MX,1,100,-54
1570469577.789712,235583.154,40865,13,MX,1,100,-54
1570469577.806503,235596.308,40865,13,MX,1,100,-54
1570469577.823294,235609.462,40865,13,MX,1,100,-54
1570469577.840085,235622.615,40865,13,MX,1,100,-54
1570469577.856875,235635.769,40865,13,MX,1,100,-55
1570469577.873666,235648.923,40865,13,MX,1,100,-55
1570469577.890457,235662.077,40865,13,MX,1,100,-53
1570469577.907248,235675.231,40865,13,MX,1,100,-53
1570469577.924039,235688.385,40865,13,MX,1,100,-53
1570469577.940830,235701.538,40865,13,MX,1,100,-55
1570469577.957621,235714.692,40865,13,MX,1,100,-55
1570469577.974412,235727.846,40865,13,MX,1,100,-54
1570469577.991203,235741.000,40865,13,MX,1,100,-54
1570469578.008010,235754.167,40884,6,MX,1,100,-54
1570469578.024817,235767.333,40884,6,MX,1,100,-55
1570469578.041624,235780.500,40884,6,MX,1,100,-55
1570469578.058432,235793.667,40884,6,MX,1,100,-55
1570469578.075239,235806.833,40884,6,MX,1,100,-55
1570469578.092046,235820.000,40884,6,MX,1,100,-55
1570469578.108800,235833.125,40902,8,MX,1,100,-54
1570469578.125554,235846.250,40902,8,MX,1,100,-54
1570469578.142308,235859.375,40902,8,MX,1,100,-56
1570469578.159062,235872.500,40902,8,MX,1,100,-56
1570469578.175816,235885.625,40902,8,MX,1,100,-56
1570469578.192570,235898.750,40902,8,MX,1,100,-55
1570469578.209324,235911.875,40902,8,MX,1,100,-55
1570469578.226079,235925.000,40902,8,MX,1,100,-56
1570469578.242673,235938.000,40920,8,MX,1,100,-56
1570469578.259268,235951.000,40920,8,MX,1,100,-55
1570469578.275862,235964.000,40920,8,MX,1,100,-55
1570469578.292456,235977.000,40920,8,MX,1,100,-55
1570469578.309051,235990.000,40920,8,MX,1,100,-56
1570469578.325645,236003.000,40920,8,MX,1,100,-56
1570469578.342240,236016.000,40920,8,MX,1,100,-54
1570469578.358835,236029.000,40920,8,MX,1,100,-54
1570469578.375429,236042.000,40938,8,MX,1,100,-54
1570469578.392023,236055.000,40938,8,MX,1,100,-54
1570469578.408618,236068.000,40938,8,MX,1,100,-54
1570469578.425212,236081.000,40938,8,MX,1,100,-55
1570469578.441807,236094.000,40938,8,MX,1,100,-55
1570469578.458401,236107.000,40938,8,MX,1,100,-54
1570469578.474996,236120.000,40938,8,MX,1,100,-54
1570469578.491590,236133.000,40938,8,MX,1,100,-54
1570469578.508003,236145.857,40956,7,MX,1,100,-54
1570469578.524415,236158.714,40956,7,MX,1,100,-54
1570469578.540827,236171.571,40956,7,MX,1,100,-55
1570469578.557239,236184.429,40956,7,MX,1,100,-55
1570469578.573651,236197.286,40956,7,MX,1,100,-55
1570469578.590063,236210.143,40956,7,MX,1,100,-55
1570469578.606475,236223.000,40956,7,MX,1,100,-55
1570469578.623230,236236.125,40974,8,MX,1,100,-55
1570469578.639983,236249.250,40974,8,MX,1,100,-55
1570469578.656738,236262.375,40974,8,MX,1,100,-55
1570469578.673492,236275.500,40974,8,MX,1,100,-54
1570469578.690246,236288.625,40974,8,MX,1,100,-54
1570469578.707000,236301.750,40974,8,MX,1,100,-55
1570469578.723754,236314.875,40974,8,MX,1,100,-55
1570469578.740508,236328.000,40974,8,MX,1,100,-55
1570469578.756943,236340.875,40992,8,MX,1,100,-55
1570469578.773378,236353.750,40992,8,MX,1,100,-55
1570469578.789813,236366.625,40992,8,MX,1,100,-55
1570469578.806247,236379.500,40992,8,MX,1,100,-55
1570469578.822683,236392.375,40992,8,MX,1,100,-55
1570469578.839118,236405.250,40992,8,MX,1,100,-55
1570469578.855552,236418.125,40992,8,MX,1,100,-55
1570469578.871987,236431.000,40992,8,MX,1,100,-57
1570469578.888901,236444.250,41009,8,MX,1,100,-57
1570469578.905815,236457.500,41009,8,MX,1,100,-57
1570469578.922728,236470.750,41009,8,MX,1,100,-57
1570469578.939642,236484.000,41009,8,MX,1,100,-57
1570469578.956555,236497.250,41009,8,MX,1,100,-56
1570469578.973469,236510.500,41009,8,MX,1,100,-56
1570469578.990383,236523.750,41009,8,MX,1,100,-55
1570469579.007296,236537.000,41009,8,MX,1,100,-55
1570469579.024073,236550.143,41027,7,MX,1,100,-56
1570469579.040850,236563.286,41027,7,MX,1,100,-56
1570469579.057627,236576.429,41027,7,MX,1,100,-56
1570469579.074404,236589.571,41027,7,MX,1,100,-57
1570469579.091181,236602.714,41027,7,MX,1,100,-57
1570469579.107957,236615.857,41027,7,MX,1,100,-56
1570469579.124734,236629.000,41027,7,MX,1,100,-56
1570469579.141488,236642.125,41045,8,MX,1,100,-56
1570469579.158242,236655.250,41045,8,MX,1,100,-57
1570469579.174996,236668.375,41045,8,MX,1,100,-57
1570469579.191751,236681.500,41045,8,MX,1,100,-56
1570469579.208504,236694.625,41045,8,MX,1,100,-56
1570469579.225259,236707.750,41045,8,MX,1,100,-56
1570469579.242013,236720.875,41045,8,MX,1,100,-56
1570469579.258767,236734.000,41045,8,MX,1,100,-56
1570469579.275042,236746.750,41063,8,MX,1,100,-56
1570469579.291317,236759.500,41063,8,MX,1,100,-56
1570469579.307593,236772.250,41063,8,MX,1,100,-56
1570469579.323868,236785.000,41063,8,MX,1,100,-56
1570469579.340144,236797.750,41063,8,MX,1,100,-56
1570469579.356419,236810.500,41063,8,MX,1,100,-56
1570469579.372694,236823.250,41063,8,MX,1,100,-56
1570469579.388970,236836.000,41063,8,MX,1,100,-56
1570469579.405564,236849.000,41081,8,MX,1,100,-56
1570469579.422159,236862.000,41081,8,MX,1,100,-56
1570469579.438753,236875.000,41081,8,MX,1,100,-57
1570469579.455348,236888.000,41081,8,MX,1,100,-57
1570469579.471942,236901.000,41081,8,MX,1,100,-57
1570469579.488537,236914.000,41081,8,MX,1,100,-57
1570469579.505131,236927.000,41081,8,MX,1,100,-57
1570469579.521726,236940.000,41081,8,MX,1,100,-55
1570469579.538161,236952.875,41099,8,MX,1,100,-55
1570469579.554595,236965.750,41099,8,MX,1,100,-57
1570469579.571030,236978.625,41099,8,MX,1,100,-57
1570469579.587465,236991.500,41099,8,MX,1,100,-57
1570469579.603900,237004.375,41099,8,MX,1,100,-57
1570469579.620335,237017.250,41099,8,MX,1,100,-57
1570469579.636770,237030.125,41099,8,MX,1,100,-57
1570469579.653205,237043.000,41099,8,MX,1,100,-57
1570469579.669617,237055.857,41117,7,MX,1,100,-56
1570469579.686029,237068.714,41117,7,MX,1,100,-56
1570469579.702441,237081.571,41117,7,MX,1,100,-56
1570469579.718854,237094.429,41117,7,MX,1,100,-56
1570469579.735266,237107.286,41117,7,MX,1,100,-56
1570469579.751678,237120.143,41117,7,MX,1,100,-57
1570469579.768090,237133.000,41117,7,MX,1,100,-57
1570469579.785004,237146.250,41136,8,MX,1,100,-57
1570469579.801917,237159.500,41136,8,MX,1,100,-57
1570469579.818831,237172.750,41136,8,MX,1,100,-57
1570469579.835745,237186.000,41136,8,MX,1,100,-57
1570469579.852658,237199.250,41136,8,MX,1,100,-57
1570469579.869572,237212.500,41136,8,MX,1,100,-57
1570469579.886485,237225.750,41136,8,MX,1,100,-57
1570469579.903399,237239.000,41136,8,MX,1,100,-57
1570469579.920153,237252.125,41154,8,MX,1,100,-57
1570469579.936907,237265.250,41154,8,MX,1,100,-57
1570469579.953661,237278.375,41154,8,MX,1,100,-57
1570469579.970415,237291.500,41154,8,MX,1,100,-57
1570469579.987169,237304.625,41154,8,MX,1,100,-57
1570469580.003923,237317.750,41154,8,MX,1,100,-56
1570469580.020678,237330.875,41154,8,MX,1,100,-56
1570469580.037431,237344.000,41154,8,MX,1,100,-57
1570469580.054208,237357.143,41172,7,MX,1,100,-57
1570469580.070985,237370.286,41172,7,MX,1,100,-57
1570469580.087762,237383.429,41172,7,MX,1,100,-55
1570469580.104539,237396.571,41172,7,MX,1,100,-55
1570469580.121316,237409.714,41172,7,MX,1,100,-57
1570469580.138093,237422.857,41172,7,MX,1,100,-57
1570469580.154870,237436.000,41172,7,MX,1,100,-55
1570469580.171623,237449.125,41190,8,MX,1,100,-55
1570469580.188378,237462.250,41190,8,MX,1,100,-55
1570469580.205132,237475.375,41190,8,MX,1,100,-56
1570469580.221886,237488.500,41190,8,MX,1,100,-56
1570469580.238640,237501.625,41190,8,MX,1,100,-57
1570469580.255394,237514.750,41190,8,MX,1,100,-57
1570469580.272148,237527.875,41190,8,MX,1,100,-57
1570469580.288902,237541.000,41190,8,MX,1,100,-57
1570469580.305496,237554.000,41208,8,MX,1,100,-57
1570469580.322091,237567.000,41208,8,MX,1,100,-56
1570469580.338686,237580.000,41208,8,MX,1,100,-56
1570469580.355280,237593.000,41208,8,MX,1,100,-56
1570469580.371874,237606.000,41208,8,MX,1,100,-56
1570469580.388469,237619.000,41208,8,MX,1,100,-56
1570469580.405063,237632.000,41208,8,MX,1,100,-56
1570469580.421658,237645.000,41208,8,MX,1,100,-56
1570469580.438093,237657.875,41226,8,MX,1,100,-56
1570469580.454528,237670.750,41226,8,MX,1,100,-56
1570469580.470963,237683.625,41226,8,MX,1,100,-56
1570469580.487398,237696.500,41226,8,MX,1,100,-57
1570469580.503833,237709.375,41226,8,MX,1,100,-57
1570469580.520267,237722.250,41226,8,MX,1,100,-58
1570469580.536702,237735.125,41226,8,MX,1,100,-58
1570469580.553137,237748.000,41226,8,MX,1,100,-58
1570469580.569891,237761.125,41244,8,MX,1,100,-57
1570469580.586646,237774.250,41244,8,MX,1,100,-57
1570469580.603400,237787.375,41244,8,MX,1,100,-58
1570469580.620154,237800.500,41244,8,MX,1,100,-58
1570469580.636908,237813.625,41244,8,MX,1,100,-58
1570469580.653662,237826.750,41244,8,MX,1,100,-58
1570469580.670416,237839.875,41244,8,MX,1,100,-58
1570469580.687170,237853.000,41244,8,MX,1,100,-57
1570469580.703582,237865.857,41263,7,MX,1,100,-57
1570469580.719994,237878.714,41263,7,MX,1,100,-57
1570469580.736406,237891.571,41263,7,MX,1,100,-57
1570469580.752818,237904.429,41263,7,MX,1,100,-57
1570469580.769231,237917.286,41263,7,MX,1,100,-56
1570469580.785643,237930.143,41263,7,MX,1,100,-56
1570469580.802055,237943.000,41263,7,MX,1,100,-56
1570469580.818809,237956.125,41281,8,MX,1,100,-56
1570469580.835563,237969.250,41281,8,MX,1,100,-56
1570469580.852317,237982.375,41281,8,MX,1,100,-57
1570469580.869071,237995.500,41281,8,MX,1,100,-57
1570469580.885825,238008.625,41281,8,MX,1,100,-56
1570469580.902579,238021.750,41281,8,MX,1,100,-56
1570469580.919333,238034.875,41281,8,MX,1,100,-55
1570469580.936087,238048.000,41281,8,MX,1,100,-55
1570469580.952841,238061.125,41299,8,MX,1,100,-55
1570469580.969595,238074.250,41299,8,MX,1,100,-56
1570469580.986349,238087.375,41299,8,MX,1,100,-56
1570469581.003103,238100.500,41299,8,MX,1,100,-56
1570469581.019858,238113.625,41299,8,MX,1,100,-56
1570469581.036612,238126.750,41299,8,MX,1,100,-56
1570469581.053366,238139.875,41299,8,MX,1,100,-57
1570469581.070120,238153.000,41299,8,MX,1,100,-57
1570469581.087079,238166.286,41317,7,MX,1,100,-57
1570469581.104038,238179.571,41317,7,MX,1,100,-57
1570469581.120997,238192.857,41317,7,MX,1,100,-56
1570469581.137957,238206.143,41317,7,MX,1,100,-56
1570469581.154916,238219.429,41317,7,MX,1,100,-56
1570469581.171875,238232.714,41317,7,MX,1,100,-57
1570469581.188834,238246.000,41317,7,MX,1,100,-57
1570469581.205429,238259.000,41335,8,MX,1,100,-56
1570469581.222023,238272.000,41335,8,MX,1,100,-56
1570469581.238618,238285.000,41335,8,MX,1,100,-56
1570469581.255212,238298.000,41335,8,MX,1,100,-57
1570469581.271807,238311.000,41335,8,MX,1,100,-57
1570469581.288401,238324.000,41335,8,MX,1,100,-56
1570469581.304996,238337.000,41335,8,MX,1,100,-56
1570469581.321590,238350.000,41335,8,MX,1,100,-56
1570469581.338185,238363.000,41353,8,MX,1,100,-56
1570469581.354779,238376.000,41353,8,MX,1,100,-56
1570469581.371374,238389.000,41353,8,MX,1,100,-57
1570469581.387968,238402.000,41353,8,MX,1,100,-57
1570469581.404563,238415.000,41353,8,MX,1,100,-57
1570469581.421157,238428.000,41353,8,MX,1,100,-58
1570469581.437752,238441.000,41353,8,MX,1,100,-58
1570469581.454346,238454.000,41353,8,MX,1,100,-56
1570469581.470781,238466.875,41371,8,MX,1,100,-56
1570469581.487216,238479.750,41371,8,MX,1,100,-57
1570469581.503651,238492.625,41371,8,MX,1,100,-57
1570469581.520086,238505.500,41371,8,MX,1,100,-57
1570469581.536521,238518.375,41371,8,MX,1,100,-58
1570469581.552956,238531.250,41371,8,MX,1,100,-58
1570469581.569391,238544.125,41371,8,MX,1,100,-57
1570469581.585826,238557.000,41371,8,MX,1,100,-57
1570469581.602055,238569.714,41389,7,MX,1,100,-57
1570469581.618285,238582.429,41389,7,MX,1,100,-56
1570469581.634515,238595.143,41389,7,MX,1,100,-56
1570469581.650745,238607.857,41389,7,MX,1,100,-56
1570469581.666975,238620.571,41389,7,MX,1,100,-56
1570469581.683204,238633.286,41389,7,MX,1,100,-57
1570469581.699434,238646.000,41389,7,MX,1,100,-57
1570469581.716028,238659.000,41408,8,MX,1,100,-57
1570469581.732623,238672.000,41408,8,MX,1,100,-57
1570469581.749218,238685.000,41408,8,MX,1,100,-57
1570469581.765812,238698.000,41408,8,MX,1,100,-57
1570469581.782407,238711.000,41408,8,MX,1,100,-57
1570469581.799001,238724.000,41408,8,MX,1,100,-57
1570469581.815596,238737.000,41408,8,MX,1,100,-56
1570469581.832190,238750.000,41408,8,MX,1,100,-56
1570469581.848944,238763.125,41426,8,MX,1,100,-57
1570469581.865698,238776.250,41426,8,MX,1,100,-57
1570469581.882452,238789.375,41426,8,MX,1,100,-57
1570469581.899206,238802.500,41426,8,MX,1,100,-57
1570469581.915960,238815.625,41426,8,MX,1,100,-57
1570469581.932714,238828.750,41426,8,MX,1,100,-57
1570469581.949468,238841.875,41426,8,MX,1,100,-57
1570469581.966223,238855.000,41426,8,MX,1,100,-57
1570469581.982817,238868.000,41443,8,MX,1,100,-56
1570469581.999412,238881.000,41443,8,MX,1,100,-56
1570469582.016006,238894.000,41443,8,MX,1,100,-57
1570469582.032600,238907.000,41443,8,MX,1,100,-57
1570469582.049195,238920.000,41443,8,MX,1,100,-57
1570469582.065789,238933.000,41443,8,MX,1,100,-57
1570469582.082384,238946.000,41443,8,MX,1,100,-57
1570469582.098979,238959.000,41443,8,MX,1,100,-56
1570469582.115938,238972.286,41461,7,MX,1,100,-56
1570469582.132897,238985.571,41461,7,MX,1,100,-57
1570469582.149856,238998.857,41461,7,MX,1,100,-57
1570469582.166815,239012.143,41461,7,MX,1,100,-57
1570469582.183774,239025.429,41461,7,MX,1,100,-56
1570469582.200734,239038.714,41461,7,MX,1,100,-56
1570469582.217693,239052.000,41461,7,MX,1,100,-56
1570469582.234128,239064.875,41479,8,MX,1,100,-56
1570469582.250563,239077.750,41479,8,MX,1,100,-56
1570469582.266998,239090.625,41479,8,MX,1,100,-56
1570469582.283433,239103.500,41479,8,MX,1,100,-56
1570469582.299868,239116.375,41479,8,MX,1,100,-56
1570469582.316303,239129.250,41479,8,MX,1,100,-56
1570469582.332737,239142.125,41479,8,MX,1,100,-56
1570469582.349172,239155.000,41479,8,MX,1,100,-56
1570469582.365767,239168.000,41497,8,MX,1,100,-56
1570469582.382361,239181.000,41497,8,MX,1,100,-56
1570469582.398956,239194.000,41497,8,MX,1,100,-56
1570469582.415550,239207.000,41497,8,MX,1,100,-57
1570469582.432145,239220.000,41497,8,MX,1,100,-57
1570469582.448739,239233.000,41497,8,MX,1,100,-57
1570469582.465334,239246.000,41497,8,MX,1,100,-57
1570469582.481928,239259.000,41497,8,MX,1,100,-57
1570469582.498682,239272.125,41515,8,MX,1,100,-57
1570469582.515436,239285.250,41515,8,MX,1,100,-57
1570469582.532191,239298.375,41515,8,MX,1,100,-57
1570469582.548945,239311.500,41515,8,MX,1,100,-57
1570469582.565699,239324.625,41515,8,MX,1,100,-57
1570469582.582453,239337.750,41515,8,MX,1,100,-56
1570469582.599207,239350.875,41515,8,MX,1,100,-56
1570469582.615961,239364.000,41515,8,MX,1,100,-57
1570469582.632373,239376.857,41533,7,MX,1,100,-57
1570469582.648785,239389.714,41533,7,MX,1,100,-57
1570469582.665197,239402.571,41533,7,MX,1,100,-57
1570469582.681609,239415.429,41533,7,MX,1,100,-57
1570469582.698021,239428.286,41533,7,MX,1,100,-58
1570469582.714434,239441.143,41533,7,MX,1,100,-58
1570469582.730846,239454.000,41533,7,MX,1,100,-58
1570469582.747440,239467.000,41552,8,MX,1,100,-56
1570469582.764035,239480.000,41552,8,MX,1,100,-56
1570469582.780629,239493.000,41552,8,MX,1,100,-57
1570469582.797224,239506.000,41552,8,MX,1,100,-57
1570469582.813818,239519.000,41552,8,MX,1,100,-57
1570469582.830413,239532.000,41552,8,MX,1,100,-57
1570469582.847007,239545.000,41552,8,MX,1,100,-57
1570469582.863602,239558.000,41552,8,MX,1,100,-57
1570469582.880356,239571.125,41570,8,MX,1,100,-57
1570469582.897110,239584.250,41570,8,MX,1,100,-57
1570469582.913864,239597.375,41570,8,MX,1,100,-57
1570469582.930618,239610.500,41570,8,MX,1,100,-57
1570469582.947372,239623.625,41570,8,MX,1,100,-57
1570469582.964126,239636.750,41570,8,MX,1,100,-57
1570469582.980880,239649.875,41570,8,MX,1,100,-56
1570469582.997634,239663.000,41570,8,MX,1,100,-56
1570469583.014776,239676.429,41586,7,MX,1,100,-56
1570469583.031917,239689.857,41586,7,MX,1,100,-57
1570469583.049059,239703.286,41586,7,MX,1,100,-57
1570469583.066200,239716.714,41586,7,MX,1,100,-57
1570469583.083342,239730.143,41586,7,MX,1,100,-57
1570469583.100484,239743.571,41586,7,MX,1,100,-57
1570469583.117625,239757.000,41586,7,MX,1,100,-57
1570469583.134379,239770.125,41604,8,MX,1,100,-57
1570469583.151133,239783.250,41604,8,MX,1,100,-58
1570469583.167887,239796.375,41604,8,MX,1,100,-58
1570469583.184641,239809.500,41604,8,MX,1,100,-56
1570469583.201396,239822.625,41604,8,MX,1,100,-56
1570469583.218150,239835.750,41604,8,MX,1,100,-56
1570469583.234904,239848.875,41604,8,MX,1,100,-57
1570469583.251658,239862.000,41604,8,MX,1,100,-57
1570469583.268412,239875.125,41622,8,MX,1,100,-58
1570469583.285166,239888.250,41622,8,MX,1,100,-58
1570469583.301920,239901.375,41622,8,MX,1,100,-58
1570469583.318674,239914.500,41622,8,MX,1,100,-57
1570469583.335428,239927.625,41622,8,MX,1,100,-57
1570469583.352182,239940.750,41622,8,MX,1,100,-56
1570469583.368936,239953.875,41622,8,MX,1,100,-56
1570469583.385690,239967.000,41622,8,MX,1,100,-56
1570469583.402444,239980.125,41640,8,MX,1,100,-56
1570469583.419198,239993.250,41640,8,MX,1,100,-56
1570469583.435952,240006.375,41640,8,MX,1,100,-56
1570469583.452706,240019.500,41640,8,MX,1,100,-56
1570469583.469460,240032.625,41640,8,MX,1,100,-57
1570469583.486214,240045.750,41640,8,MX,1,100,-57
1570469583.502969,240058.875,41640,8,MX,1,100,-57
1570469583.519723,240072.000,41640,8,MX,1,100,-57
1570469583.536135,240084.857,41658,7,MX,1,100,-57
1570469583.552547,240097.714,41658,7,MX,1,100,-57
1570469583.568959,240110.571,41658,7,MX,1,100,-57
1570469583.585371,240123.429,41658,7,MX,1,100,-57
1570469583.601783,240136.286,41658,7,MX,1,100,-57
1570469583.618196,240149.143,41658,7,MX,1,100,-57
1570469583.634608,240162.000,41658,7,MX,1,100,-57
1570469583.651202,240175.000,41676,8,MX,1,100,-57
1570469583.667797,240188.000,41676,8,MX,1,100,-57
1570469583.684391,240201.000,41676,8,MX,1,100,-57
1570469583.700985,240214.000,41676,8,MX,1,100,-57
1570469583.717580,240227.000,41676,8,MX,1,100,-56
1570469583.734174,240240.000,41676,8,MX,1,100,-56
1570469583.750769,240253.000,41676,8,MX,1,100,-57
1570469583.767364,240266.000,41676,8,MX,1,100,-57
1570469583.783958,240279.000,41695,8,MX,1,100,-57
1570469583.800553,240292.000,41695,8,MX,1,100,-57
1570469583.817147,240305.000,41695,8,MX,1,100,-57
1570469583.833741,240318.000,41695,8,MX,1,100,-58
1570469583.850336,240331.000,41695,8,MX,1,100,-58
1570469583.866930,240344.000,41695,8,MX,1,100,-58
1570469583.883525,240357.000,41695,8,MX,1,100,-57
1570469583.900120,240370.000,41695,8,MX,1,100,-57
1570469583.916873,240383.125,41713,8,MX,1,100,-56
1570469583.933628,240396.250,41713,8,MX,1,100,-56
1570469583.950382,240409.375,41713,8,MX,1,100,-57
1570469583.967136,240422.500,41713,8,MX,1,100,-57
1570469583.983890,240435.625,41713,8,MX,1,100,-57
1570469584.000644,240448.750,41713,8,MX,1,100,-56
1570469584.017398,240461.875,41713,8,MX,1,100,-56
1570469584.034152,240475.000,41713,8,MX,1,100,-58
1570469584.051111,240488.286,41731,7,MX,1,100,-58
1570469584.068070,240501.571,41731,7,MX,1,100,-58
1570469584.085030,240514.857,41731,7,MX,1,100,-57
1570469584.101989,240528.143,41731,7,MX,1,100,-57
1570469584.118948,240541.429,41731,7,MX,1,100,-56
1570469584.135907,240554.714,41731,7,MX,1,100,-56
1570469584.152866,240568.000,41731,7,MX,1,100,-56
1570469584.169621,240581.125,41749,8,MX,1,100,-56
1570469584.186374,240594.250,41749,8,MX,1,100,-56
1570469584.203129,240607.375,41749,8,MX,1,100,-57
1570469584.219883,240620.500,41749,8,MX,1,100,-57
1570469584.236637,240633.625,41749,8,MX,1,100,-57
1570469584.253391,240646.750,41749,8,MX,1,100,-57
1570469584.270145,240659.875,41749,8,MX,1,100,-57
1570469584.286899,240673.000,41749,8,MX,1,100,-58
1570469584.303493,240686.000,41770,13,MX,1,100,-58
1570469584.320088,240699.000,41770,13,MX,1,100,-57
1570469584.336682,240712.000,41770,13,MX,1,100,-57
1570469584.353277,240725.000,41770,13,MX,1,100,-57
1570469584.369871,240738.000,41770,13,MX,1,100,-56
1570469584.386466,240751.000,41770,13,MX,1,100,-56
1570469584.403060,240764.000,41770,13,MX,1,100,-57
1570469584.419655,240777.000,41770,13,MX,1,100,-57
1570469584.436249,240790.000,41770,13,MX,1,100,-58
1570469584.452844,240803.000,41770,13,MX,1,100,-58
1570469584.469438,240816.000,41770,13,MX,1,100,-58
1570469584.486033,240829.000,41770,13,MX,1,100,-57
1570469584.502627,240842.000,41770,13,MX,1,100,-57
1570469584.519404,240855.143,41790,7,MX,1,100,-58
1570469584.536181,240868.286,41790,7,MX,1,100,-58
1570469584.552958,240881.429,41790,7,MX,1,100,-58
1570469584.569735,240894.571,41790,7,MX,1,100,-56
1570469584.586512,240907.714,41790,7,MX,1,100,-56
1570469584.603288,240920.857,41790,7,MX,1,100,-57
1570469584.620065,240934.000,41790,7,MX,1,100,-57
1570469584.636500,240946.875,41808,8,MX,1,100,-57
1570469584.652935,240959.750,41808,8,MX,1,100,-57
1570469584.669370,240972.625,41808,8,MX,1,100,-57
1570469584.685805,240985.500,41808,8,MX,1,100,-57
1570469584.702240,240998.375,41808,8,MX,1,100,-57
1570469584.718675,241011.250,41808,8,MX,1,100,-57
1570469584.735110,241024.125,41808,8,MX,1,100,-57
1570469584.751545,241037.000,41808,8,MX,1,100,-57
1570469584.768139,241050.000,41827,8,MX,1,100,-57
1570469584.784734,241063.000,41827,8,MX,1,100,-57
1570469584.801328,241076.000,41827,8,MX,1,100,-57
1570469584.817923,241089.000,41827,8,MX,1,100,-57
1570469584.834517,241102.000,41827,8,MX,1,100,-57
1570469584.851112,241115.000,41827,8,MX,1,100,-56
1570469584.867706,241128.000,41827,8,MX,1,100,-56
1570469584.884301,241141.000,41827,8,MX,1,100,-57
1570469584.900713,241153.857,41845,7,MX,1,100,-57
1570469584.917125,241166.714,41845,7,MX,1,100,-57
1570469584.933537,241179.571,41845,7,MX,1,100,-57
1570469584.949949,241192.429,41845,7,MX,1,100,-57
1570469584.966362,241205.286,41845,7,MX,1,100,-58
1570469584.982774,241218.143,41845,7,MX,1,100,-58
1570469584.999186,241231.000,41845,7,MX,1,100,-57
1570469585.015940,241244.125,41863,8,MX,1,100,-57
1570469585.032694,241257.250,41863,8,MX,1,100,-57
1570469585.049448,241270.375,41863,8,MX,1,100,-58
1570469585.066202,241283.500,41863,8,MX,1,100,-58
1570469585.082956,241296.625,41863,8,MX,1,100,-57
1570469585.099710,241309.750,41863,8,MX,1,100,-57
1570469585.116464,241322.875,41863,8,MX,1,100,-57
1570469585.133218,241336.000,41863,8,MX,1,100,-57
1570469585.149653,241348.875,41880,8,MX,1,100,-57
1570469585.166088,241361.750,41880,8,MX,1,100,-56
1570469585.182523,241374.625,41880,8,MX,1,100,-56
1570469585.198958,241387.500,41880,8,MX,1,100,-56
1570469585.215393,241400.375,41880,8,MX,1,100,-56
1570469585.231828,241413.250,41880,8,MX,1,100,-56
1570469585.248263,241426.125,41880,8,MX,1,100,-58
1570469585.264698,241439.000,41880,8,MX,1,100,-58
1570469585.281611,241452.250,41897,8,MX,1,100,-56
1570469585.298525,241465.500,41897,8,MX,1,100,-56
1570469585.315439,241478.750,41897,8,MX,1,100,-56
1570469585.332352,241492.000,41897,8,MX,1,100,-57
1570469585.349266,241505.250,41897,8,MX,1,100,-57
1570469585.366179,241518.500,41897,8,MX,1,100,-56
1570469585.383093,241531.750,41897,8,MX,1,100,-56
1570469585.400007,241545.000,41897,8,MX,1,100,-56
1570469585.416966,241558.286,41915,7,MX,1,100,-57
1570469585.433925,241571.571,41915,7,MX,1,100,-57
1570469585.450884,241584.857,41915,7,MX,1,100,-57
1570469585.467844,241598.143,41915,7,MX,1,100,-57
1570469585.484803,241611.429,41915,7,MX,1,100,-57
1570469585.501762,241624.714,41915,7,MX,1,100,-57
1570469585.518721,241638.000,41915,7,MX,1,100,-57
1570469585.535156,241650.875,41933,8,MX,1,100,-57
1570469585.551591,241663.750,41933,8,MX,1,100,-57
1570469585.568026,241676.625,41933,8,MX,1,100,-57
1570469585.584461,241689.500,41933,8,MX,1,100,-57
1570469585.600896,241702.375,41933,8,MX,1,100,-57
1570469585.617331,241715.250,41933,8,MX,1,100,-57
1570469585.633766,241728.125,41933,8,MX,1,100,-57
1570469585.650201,241741.000,41933,8,MX,1,100,-57
1570469585.666795,241754.000,41951,8,MX,1,100,-57
1570469585.683389,241767.000,41951,8,MX,1,100,-57
1570469585.699984,241780.000,41951,8,MX,1,100,-58
1570469585.716578,241793.000,41951,8,MX,1,100,-58
1570469585.733173,241806.000,41951,8,MX,1,100,-57
1570469585.749768,241819.000,41951,8,MX,1,100,-57
1570469585.766362,241832.000,41951,8,MX,1,100,-57
1570469585.782957,241845.000,41951,8,MX,1,100,-57
1570469585.799711,241858.125,41970,8,MX,1,100,-57
1570469585.816465,241871.250,41970,8,MX,1,100,-58
1570469585.833219,241884.375,41970,8,MX,1,100,-58
1570469585.849973,241897.500,41970,8,MX,1,100,-58
1570469585.866727,241910.625,41970,8,MX,1,100,-58
1570469585.883481,241923.750,41970,8,MX,1,100,-58
1570469585.900235,241936.875,41970,8,MX,1,100,-57
1570469585.916989,241950.000,41970,8,MX,1,100,-57
1570469585.933583,241963.000,41988,7,MX,1,100,-57
1570469585.950178,241976.000,41988,7,MX,1,100,-57
1570469585.966773,241989.000,41988,7,MX,1,100,-57
1570469585.983367,242002.000,41988,7,MX,1,100,-57
1570469585.999961,242015.000,41988,7,MX,1,100,-57
1570469586.016556,242028.000,41988,7,MX,1,100,-56
1570469586.033150,242041.000,41988,7,MX,1,100,-56
1570469586.049905,242054.125,42006,8,MX,1,100,-56
1570469586.066658,242067.250,42006,8,MX,1,100,-56
1570469586.083413,242080.375,42006,8,MX,1,100,-56
1570469586.100167,242093.500,42006,8,MX,1,100,-58
1570469586.116921,242106.625,42006,8,MX,1,100,-58
1570469586.133675,242119.750,42006,8,MX,1,100,-57
1570469586.150429,242132.875,42006,8,MX,1,100,-57
1570469586.167183,242146.000,42006,8,MX,1,100,-57
1570469586.183937,242159.125,42024,8,MX,1,100,-57
1570469586.200691,242172.250,42024,8,MX,1,100,-57
1570469586.217445,242185.375,42024,8,MX,1,100,-56
1570469586.234199,242198.500,42024,8,MX,1,100,-56
1570469586.250953,242211.625,42024,8,MX,1,100,-56
1570469586.267707,242224.750,42024,8,MX,1,100,-57
1570469586.284461,242237.875,42024,8,MX,1,100,-57
1570469586.301215,242251.000,42024,8,MX,1,100,-56
1570469586.318357,242264.429,42042,7,MX,1,100,-56
1570469586.335499,242277.857,42042,7,MX,1,100,-56
1570469586.352640,242291.286,42042,7,MX,1,100,-56
1570469586.369782,242304.714,42042,7,MX,1,100,-56
1570469586.386923,242318.143,42042,7,MX,1,100,-56
1570469586.404065,242331.571,42042,7,MX,1,100,-56
1570469586.421206,242345.000,42042,7,MX,1,100,-58
1570469586.437641,242357.875,42060,8,MX,1,100,-58
1570469586.454076,242370.750,42060,8,MX,1,100,-58
1570469586.470511,242383.625,42060,8,MX,1,100,-56
1570469586.486946,242396.500,42060,8,MX,1,100,-56
1570469586.503381,242409.375,42060,8,MX,1,100,-58
1570469586.519816,242422.250,42060,8,MX,1,100,-58
1570469586.536251,242435.125,42060,8,MX,1,100,-58
1570469586.552686,242448.000,42060,8,MX,1,100,-57
1570469586.569440,242461.125,42078,8,MX,1,100,-57
1570469586.586194,242474.250,42078,8,MX,1,100,-57
1570469586.602948,242487.375,42078,8,MX,1,100,-57
1570469586.619702,242500.500,42078,8,MX,1,100,-58
1570469586.636456,242513.625,42078,8,MX,1,100,-58
1570469586.653210,242526.750,42078,8,MX,1,100,-58
1570469586.669964,242539.875,42078,8,MX,1,100,-56
1570469586.686718,242553.000,42078,8,MX,1,100,-56
1570469586.703313,242566.000,42096,8,MX,1,100,-57
1570469586.719907,242579.000,42096,8,MX,1,100,-57
1570469586.736502,242592.000,42096,8,MX,1,100,-57
1570469586.753096,242605.000,42096,8,MX,1,100,-57
1570469586.769691,242618.000,42096,8,MX,1,100,-57
1570469586.786285,242631.000,42096,8,MX,1,100,-57
1570469586.802880,242644.000,42096,8,MX,1,100,-57
1570469586.819474,242657.000,42096,8,MX,1,100,-57
1570469586.835886,242669.857,42115,7,MX,1,100,-57
1570469586.852298,242682.714,42115,7,MX,1,100,-57
1570469586.868711,242695.571,42115,7,MX,1,100,-57
1570469586.885123,242708.429,42115,7,MX,1,100,-57
1570469586.901535,242721.286,42115,7,MX,1,100,-57
1570469586.917947,242734.143,42115,7,MX,1,100,-57
1570469586.934359,242747.000,42115,7,MX,1,100,-57
1570469586.950954,242760.000,42133,8,MX,1,100,-57
1570469586.967548,242773.000,42133,8,MX,1,100,-57
1570469586.984143,242786.000,42133,8,MX,1,100,-57
1570469587.000737,242799.000,42133,8,MX,1,100,-57
1570469587.017332,242812.000,42133,8,MX,1,100,-57
1570469587.033926,242825.000,42133,8,MX,1,100,-58
1570469587.050521,242838.000,42133,8,MX,1,100,-58
1570469587.067115,242851.000,42133,8,MX,1,100,-57
1570469587.084029,242864.250,42151,8,MX,1,100,-57
1570469587.100942,242877.500,42151,8,MX,1,100,-57
1570469587.117856,242890.750,42151,8,MX,1,100,-57
1570469587.134770,242904.000,42151,8,MX,1,100,-57
1570469587.151683,242917.250,42151,8,MX,1,100,-56
1570469587.168597,242930.500,42151,8,MX,1,100,-56
1570469587.185510,242943.750,42151,8,MX,1,100,-58
1570469587.202424,242957.000,42151,8,MX,1,100,-58
1570469587.219201,242970.143,42169,7,MX,1,100,-58
1570469587.235978,242983.286,42169,7,MX,1,100,-57
1570469587.252755,242996.429,42169,7,MX,1,100,-57
1570469587.269531,243009.571,42169,7,MX,1,100,-57
1570469587.286308,243022.714,42169,7,MX,1,100,-57
1570469587.303085,243035.857,42169,7,MX,1,100,-57
1570469587.319862,243049.000,42169,7,MX,1,100,-56
1570469587.336935,243062.375,42187,8,MX,1,100,-56
1570469587.354008,243075.750,42187,8,MX,1,100,-57
1570469587.371082,243089.125,42187,8,MX,1,100,-57
1570469587.388155,243102.500,42187,8,MX,1,100,-57
1570469587.405228,243115.875,42187,8,MX,1,100,-57
1570469587.422301,243129.250,42187,8,MX,1,100,-57
1570469587.439374,243142.625,42187,8,MX,1,100,-57
1570469587.456448,243156.000,42187,8,MX,1,100,-57
1570469587.472883,243168.875,42205,8,MX,1,100,-57
1570469587.489317,243181.750,42205,8,MX,1,100,-57
1570469587.505752,243194.625,42205,8,MX,1,100,-57
1570469587.522187,243207.500,42205,8,MX,1,100,-56
1570469587.538622,243220.375,42205,8,MX,1,100,-56
1570469587.555057,243233.250,42205,8,MX,1,100,-57
1570469587.571492,243246.125,42205,8,MX,1,100,-57
1570469587.587927,243259.000,42205,8,MX,1,100,-57
1570469587.604362,243271.875,42223,8,MX,1,100,-57
1570469587.620797,243284.750,42223,8,MX,1,100,-57
1570469587.637232,243297.625,42223,8,MX,1,100,-57
1570469587.653667,243310.500,42223,8,MX,1,100,-57
1570469587.670102,243323.375,42223,8,MX,1,100,-57
1570469587.686537,243336.250,42223,8,MX,1,100,-57
1570469587.702971,243349.125,42223,8,MX,1,100,-57
1570469587.719406,243362.000,42223,8,MX,1,100,-57
1570469587.735819,243374.857,42241,7,MX,1,100,-57
1570469587.752231,243387.714,42241,7,MX,1,100,-56
1570469587.768643,243400.571,42241,7,MX,1,100,-56
1570469587.785055,243413.429,42241,7,MX,1,100,-56
1570469587.801467,243426.286,42241,7,MX,1,100,-59
1570469587.817879,243439.143,42241,7,MX,1,100,-59
1570469587.834291,243452.000,42241,7,MX,1,100,-57
1570469587.850886,243465.000,42260,8,MX,1,100,-57
1570469587.867481,243478.000,42260,8,MX,1,100,-57
1570469587.884075,243491.000,42260,8,MX,1,100,-57
1570469587.900669,243504.000,42260,8,MX,1,100,-57
1570469587.917264,243517.000,42260,8,MX,1,100,-58
1570469587.933858,243530.000,42260,8,MX,1,100,-58
1570469587.950453,243543.000,42260,8,MX,1,100,-57
1570469587.967047,243556.000,42260,8,MX,1,100,-57
1570469587.983482,243568.875,42278,8,MX,1,100,-57
1570469587.999917,243581.750,42278,8,MX,1,100,-57
1570469588.016352,243594.625,42278,8,MX,1,100,-57
1570469588.032787,243607.500,42278,8,MX,1,100,-57
1570469588.049222,243620.375,42278,8,MX,1,100,-57
1570469588.065657,243633.250,42278,8,MX,1,100,-57
1570469588.082092,243646.125,42278,8,MX,1,100,-56
1570469588.098527,243659.000,42278,8,MX,1,100,-56
1570469588.115281,243672.125,42295,8,MX,1,100,-56
1570469588.132035,243685.250,42295,8,MX,1,100,-56
1570469588.148789,243698.375,42295,8,MX,1,100,-56
1570469588.165543,243711.500,42295,8,MX,1,100,-56
1570469588.182297,243724.625,42295,8,MX,1,100,-56
1570469588.199051,243737.750,42295,8,MX,1,100,-56
1570469588.215805,243750.875,42295,8,MX,1,100,-56
1570469588.232559,243764.000,42295,8,MX,1,100,-56
1570469588.249313,243777.125,42313,8,MX,1,100,-58
1570469588.266068,243790.250,42313,8,MX,1,100,-58
1570469588.282821,243803.375,42313,8,MX,1,100,-58
1570469588.299576,243816.500,42313,8,MX,1,100,-58
1570469588.316330,243829.625,42313,8,MX,1,100,-58
1570469588.333084,243842.750,42313,8,MX,1,100,-58
1570469588.349838,243855.875,42313,8,MX,1,100,-58
1570469588.366592,243869.000,42313,8,MX,1,100,-56
1570469588.383369,243882.143,42331,7,MX,1,100,-56
1570469588.400146,243895.286,42331,7,MX,1,100,-57
1570469588.416922,243908.429,42331,7,MX,1,100,-57
1570469588.433699,243921.571,42331,7,MX,1,100,-57
1570469588.450476,243934.714,42331,7,MX,1,100,-58
1570469588.467253,243947.857,42331,7,MX,1,100,-58
1570469588.484030,243961.000,42331,7,MX,1,100,-57
1570469588.500784,243974.125,42349,8,MX,1,100,-57
1570469588.517538,243987.250,42349,8,MX,1,100,-58
1570469588.534292,244000.375,42349,8,MX,1,100,-58
1570469588.551046,244013.500,42349,8,MX,1,100,-58
1570469588.567800,244026.625,42349,8,MX,1,100,-58
1570469588.584554,244039.750,42349,8,MX,1,100,-58
1570469588.601308,244052.875,42349,8,MX,1,100,-57
1570469588.618062,244066.000,42349,8,MX,1,100,-57
1570469588.634497,244078.875,42367,8,MX,1,100,-57
1570469588.650932,244091.750,42367,8,MX,1,100,-57
1570469588.667367,244104.625,42367,8,MX,1,100,-57
1570469588.683802,244117.500,42367,8,MX,1,100,-57
1570469588.700237,244130.375,42367,8,MX,1,100,-57
1570469588.716672,244143.250,42367,8,MX,1,100,-57
1570469588.733107,244156.125,42367,8,MX,1,100,-57
1570469588.749542,244169.000,42367,8,MX,1,100,-57
1570469588.766136,244182.000,42385,8,MX,1,100,-57
1570469588.782731,244195.000,42385,8,MX,1,100,-57
1570469588.799325,244208.000,42385,8,MX,1,100,-57
1570469588.815920,244221.000,42385,8,MX,1,100,-57
1570469588.832514,244234.000,42385,8,MX,1,100,-57
1570469588.849109,244247.000,42385,8,MX,1,100,-57
1570469588.865703,244260.000,42385,8,MX,1,100,-57
1570469588.882298,244273.000,42385,8,MX,1,100,-57
1570469588.898710,244285.857,42404,7,MX,1,100,-57
1570469588.915122,244298.714,42404,7,MX,1,100,-57
1570469588.931534,244311.571,42404,7,MX,1,100,-58
1570469588.947946,244324.429,42404,7,MX,1,100,-58
1570469588.964358,244337.286,42404,7,MX,1,100,-58
1570469588.980771,244350.143,42404,7,MX,1,100,-58
1570469588.997183,244363.000,42404,7,MX,1,100,-58
1570469589.013937,244376.125,42422,8,MX,1,100,-58
1570469589.030691,244389.250,42422,8,MX,1,100,-58
1570469589.047445,244402.375,42422,8,MX,1,100,-57
1570469589.064199,244415.500,42422,8,MX,1,100,-57
1570469589.080953,244428.625,42422,8,MX,1,100,-58
1570469589.097707,244441.750,42422,8,MX,1,100,-58
1570469589.114461,244454.875,42422,8,MX,1,100,-58
1570469589.131215,244468.000,42422,8,MX,1,100,-58
1570469589.147969,244481.125,42438,8,MX,1,100,-58
1570469589.164723,244494.250,42438,8,MX,1,100,-57
1570469589.181477,244507.375,42438,8,MX,1,100,-57
1570469589.198231,244520.500,42438,8,MX,1,100,-57
1570469589.214985,244533.625,42438,8,MX,1,100,-57
1570469589.231740,244546.750,42438,8,MX,1,100,-57
1570469589.248493,244559.875,42438,8,MX,1,100,-58
1570469589.265248,244573.000,42438,8,MX,1,100,-58
1570469589.282002,244586.125,42456,8,MX,1,100,-58
1570469589.298756,244599.250,42456,8,MX,1,100,-58
1570469589.315510,244612.375,42456,8,MX,1,100,-58
1570469589.332264,244625.500,42456,8,MX,1,100,-57
1570469589.349018,244638.625,42456,8,MX,1,100,-57
1570469589.365772,244651.750,42456,8,MX,1,100,-57
1570469589.382526,244664.875,42456,8,MX,1,100,-57
1570469589.399280,244678.000,42456,8,MX,1,100,-57
1570469589.416422,244691.429,42474,7,MX,1,100,-57
1570469589.433563,244704.857,42474,7,MX,1,100,-57
1570469589.450705,244718.286,42474,7,MX,1,100,-57
1570469589.467846,244731.714,42474,7,MX,1,100,-57
1570469589.484988,244745.143,42474,7,MX,1,100,-57
1570469589.502130,244758.571,42474,7,MX,1,100,-58
1570469589.519271,244772.000,42474,7,MX,1,100,-58
1570469589.536185,244785.250,42492,8,MX,1,100,-58
1570469589.553098,244798.500,42492,8,MX,1,100,-58
1570469589.570012,244811.750,42492,8,MX,1,100,-58
1570469589.586926,244825.000,42492,8,MX,1,100,-57
1570469589.603839,244838.250,42492,8,MX,1,100,-57
1570469589.620753,244851.500,42492,8,MX,1,100,-57
1570469589.637666,244864.750,42492,8,MX,1,100,-57
1570469589.654580,244878.000,42492,8,MX,1,100,-56
1570469589.670855,244890.750,42510,8,MX,1,100,-56
1570469589.687131,244903.500,42510,8,MX,1,100,-56
1570469589.703406,244916.250,42510,8,MX,1,100,-58
1570469589.719682,244929.000,42510,8,MX,1,100,-58
1570469589.735957,244941.750,42510,8,MX,1,100,-56
1570469589.752232,244954.500,42510,8,MX,1,100,-56
1570469589.768507,244967.250,42510,8,MX,1,100,-56
1570469589.784783,244980.000,42510,8,MX,1,100,-57
1570469589.801378,244993.000,42528,7,MX,1,100,-57
1570469589.817972,245006.000,42528,7,MX,1,100,-57
1570469589.834566,245019.000,42528,7,MX,1,100,-57
1570469589.851161,245032.000,42528,7,MX,1,100,-58
1570469589.867755,245045.000,42528,7,MX,1,100,-58
1570469589.884350,245058.000,42528,7,MX,1,100,-58
1570469589.900944,245071.000,42528,7,MX,1,100,-58
1570469589.917539,245084.000,42547,8,MX,1,100,-58
1570469589.934133,245097.000,42547,8,MX,1,100,-57
1570469589.950728,245110.000,42547,8,MX,1,100,-57
1570469589.967322,245123.000,42547,8,MX,1,100,-57
1570469589.983917,245136.000,42547,8,MX,1,100,-57
1570469590.000511,245149.000,42547,8,MX,1,100,-57
1570469590.017106,245162.000,42547,8,MX,1,100,-56
1570469590.033700,245175.000,42547,8,MX,1,100,-56
1570469590.050454,245188.125,42565,8,MX,1,100,-56
1570469590.067209,245201.250,42565,8,MX,1,100,-57
1570469590.083962,245214.375,42565,8,MX,1,100,-57
1570469590.100717,245227.500,42565,8,MX,1,100,-57
1570469590.117471,245240.625,42565,8,MX,1,100,-57
1570469590.134225,245253.750,42565,8,MX,1,100,-57
1570469590.150979,245266.875,42565,8,MX,1,100,-58
1570469590.167733,245280.000,42565,8,MX,1,100,-58
1570469590.184327,245293.000,42583,8,MX,1,100,-56
1570469590.200922,245306.000,42583,8,MX,1,100,-56
1570469590.217516,245319.000,42583,8,MX,1,100,-58
1570469590.234111,245332.000,42583,8,MX,1,100,-58
1570469590.250705,245345.000,42583,8,MX,1,100,-58
1570469590.267300,245358.000,42583,8,MX,1,100,-58
1570469590.283894,245371.000,42583,8,MX,1,100,-58
1570469590.300489,245384.000,42583,8,MX,1,100,-57
1570469590.317630,245397.429,42601,7,MX,1,100,-57
1570469590.334772,245410.857,42601,7,MX,1,100,-57
1570469590.351913,245424.286,42601,7,MX,1,100,-56
1570469590.369055,245437.714,42601,7,MX,1,100,-56
1570469590.386197,245451.143,42601,7,MX,1,100,-58
1570469590.403338,245464.571,42601,7,MX,1,100,-58
1570469590.420480,245478.000,42601,7,MX,1,100,-57
1570469590.437234,245491.125,42619,8,MX,1,100,-57
1570469590.453988,245504.250,42619,8,MX,1,100,-57
1570469590.470742,245517.375,42619,8,MX,1,100,-56
1570469590.487496,245530.500,42619,8,MX,1,100,-56
1570469590.504250,245543.625,42619,8,MX,1,100,-56
1570469590.521004,245556.750,42619,8,MX,1,100,-56
1570469590.537758,245569.875,42619,8,MX,1,100,-56
1570469590.554512,245583.000,42619,8,MX,1,100,-57
1570469590.571426,245596.250,42637,8,MX,1,100,-57
1570469590.588340,245609.500,42637,8,MX,1,100,-57
1570469590.605253,245622.750,42637,8,MX,1,100,-57
1570469590.622167,245636.000,42637,8,MX,1,100,-57
1570469590.639080,245649.250,42637,8,MX,1,100,-57
1570469590.655994,245662.500,42637,8,MX,1,100,-57
1570469590.672908,245675.750,42637,8,MX,1,100,-58
1570469590.689821,245689.000,42637,8,MX,1,100,-58
1570469590.706051,245701.714,42655,7,MX,1,100,-57
1570469590.722281,245714.429,42655,7,MX,1,100,-57
1570469590.738511,245727.143,42655,7,MX,1,100,-57
1570469590.754740,245739.857,42655,7,MX,1,100,-57
1570469590.770970,245752.571,42655,7,MX,1,100,-57
1570469590.787200,245765.286,42655,7,MX,1,100,-57
1570469590.803430,245778.000,42655,7,MX,1,100,-57
1570469590.820024,245791.000,42676,13,MX,1,100,-57
1570469590.836619,245804.000,42676,13,MX,1,100,-57
1570469590.853213,245817.000,42676,13,MX,1,100,-57
1570469590.869808,245830.000,42676,13,MX,1,100,-57
1570469590.886402,245843.000,42676,13,MX,1,100,-57
1570469590.902997,245856.000,42676,13,MX,1,100,-57
1570469590.919591,245869.000,42676,13,MX,1,100,-56
1570469590.936186,245882.000,42676,13,MX,1,100,-56
1570469590.952780,245895.000,42676,13,MX,1,100,-57
1570469590.969375,245908.000,42676,13,MX,1,100,-57
1570469590.985969,245921.000,42676,13,MX,1,100,-58
1570469591.002564,245934.000,42676,13,MX,1,100,-58
1570469591.019158,245947.000,42676,13,MX,1,100,-58
1570469591.035570,245959.857,42697,7,MX,1,100,-56
1570469591.051982,245972.714,42697,7,MX,1,100,-56
1570469591.068394,245985.571,42697,7,MX,1,100,-57
1570469591.084807,245998.429,42697,7,MX,1,100,-57
1570469591.101219,246011.286,42697,7,MX,1,100,-57
1570469591.117631,246024.143,42697,7,MX,1,100,-57
1570469591.134043,246037.000,42697,7,MX,1,100,-57
1570469591.150318,246049.750,42715,8,MX,1,100,-57
1570469591.166594,246062.500,42715,8,MX,1,100,-57
1570469591.182869,246075.250,42715,8,MX,1,100,-57
1570469591.199145,246088.000,42715,8,MX,1,100,-57
1570469591.215420,246100.750,42715,8,MX,1,100,-57
1570469591.231695,246113.500,42715,8,MX,1,100,-57
1570469591.247971,246126.250,42715,8,MX,1,100,-57
1570469591.264246,246139.000,42715,8,MX,1,100,-57
1570469591.281160,246152.250,42732,8,MX,1,100,-57
1570469591.298073,246165.500,42732,8,MX,1,100,-57
1570469591.314987,246178.750,42732,8,MX,1,100,-57
1570469591.331901,246192.000,42732,8,MX,1,100,-57
1570469591.348814,246205.250,42732,8,MX,1,100,-57
1570469591.365728,246218.500,42732,8,MX,1,100,-57
1570469591.382641,246231.750,42732,8,MX,1,100,-57
1570469591.399555,246245.000,42732,8,MX,1,100,-57
1570469591.416332,246258.143,42749,7,MX,1,100,-57
1570469591.433109,246271.286,42749,7,MX,1,100,-57
1570469591.449886,246284.429,42749,7,MX,1,100,-57
1570469591.466662,246297.571,42749,7,MX,1,100,-57
1570469591.483439,246310.714,42749,7,MX,1,100,-58
1570469591.500216,246323.857,42749,7,MX,1,100,-58
1570469591.516993,246337.000,42749,7,MX,1,100,-57
1570469591.533747,246350.125,42767,8,MX,1,100,-57
1570469591.550501,246363.250,42767,8,MX,1,100,-57
1570469591.567255,246376.375,42767,8,MX,1,100,-57
1570469591.584009,246389.500,42767,8,MX,1,100,-57
1570469591.600763,246402.625,42767,8,MX,1,100,-57
1570469591.617517,246415.750,42767,8,MX,1,100,-57
1570469591.634271,246428.875,42767,8,MX,1,100,-57
