EpochTimestamp,EmotiBitTimestamp,PacketNumber,DataLength,TypeTag,ProtocolVersion,DataReliability,PG
1570470239.576895,50847.000,8224,4,PG,1,100,13049
1570470239.576895,50847.000,8224,4,PG,1,100,13119
1570470239.576895,50847.000,8224,4,PG,1,100,13143
1570470239.576895,50847.000,8224,4,PG,1,100,13146
1570470239.616462,50878.000,8242,3,PG,1,100,13148
1570470239.656030,50909.000,8242,3,PG,1,100,13207
1570470239.695598,50940.000,8242,3,PG,1,100,13159
1570470239.739846,50974.667,8260,3,PG,1,100,13170
1570470239.784094,51009.333,8260,3,PG,1,100,13124
1570470239.828342,51044.000,8260,3,PG,1,100,13095
1570470239.866633,51074.000,8278,3,PG,1,100,13138
1570470239.904925,51104.000,8278,3,PG,1,100,13094
1570470239.943216,51134.000,8278,3,PG,1,100,13091
1570470239.982784,51165.000,8296,3,PG,1,100,13111
1570470240.022352,51196.000,8296,3,PG,1,100,13106
1570470240.061920,51227.000,8296,3,PG,1,100,13128
1570470240.099786,51256.667,8314,3,PG,1,100,13128
1570470240.137652,51286.333,8314,3,PG,1,100,13118
1570470240.175518,51316.000,8314,3,PG,1,100,13161
1570470240.217319,51348.750,8332,4,PG,1,100,13166
1570470240.259121,51381.500,8332,4,PG,1,100,13193
1570470240.300922,51414.250,8332,4,PG,1,100,13198
1570470240.342724,51447.000,8332,4,PG,1,100,13196
1570470240.382717,51478.333,8351,3,PG,1,100,13223
1570470240.422710,51509.667,8351,3,PG,1,100,13209
1570470240.462703,51541.000,8351,3,PG,1,100,13239
1570470240.501420,51571.333,8369,3,PG,1,100,13240
1570470240.540137,51601.667,8369,3,PG,1,100,13243
1570470240.578854,51632.000,8369,3,PG,1,100,13276
1570470240.617997,51662.667,8387,3,PG,1,100,13269
1570470240.657139,51693.333,8387,3,PG,1,100,13269
1570470240.696281,51724.000,8387,3,PG,1,100,13246
1570470240.737764,51756.500,8405,4,PG,1,100,13199
1570470240.779246,51789.000,8405,4,PG,1,100,13169
1570470240.820729,51821.500,8405,4,PG,1,100,13139
1570470240.862211,51854.000,8405,4,PG,1,100,13117
1570470240.900502,51884.000,8423,3,PG,1,100,13118
1570470240.938794,51914.000,8423,3,PG,1,100,13141
1570470240.977085,51944.000,8423,3,PG,1,100,13118
1570470241.015802,51974.333,8441,3,PG,1,100,13114
1570470241.054519,52004.667,8441,3,PG,1,100,13099
1570470241.093236,52035.000,8441,3,PG,1,100,13096
1570470241.137058,52069.333,8459,3,PG,1,100,13120
1570470241.180881,52103.667,8459,3,PG,1,100,13116
1570470241.224703,52138.000,8459,3,PG,1,100,13135
1570470241.261718,52167.000,8477,4,PG,1,100,13121
1570470241.298733,52196.000,8477,4,PG,1,100,13144
1570470241.335748,52225.000,8477,4,PG,1,100,13160
1570470241.372764,52254.000,8477,4,PG,1,100,13149
1570470241.411906,52284.667,8496,3,PG,1,100,13179
1570470241.451048,52315.333,8496,3,PG,1,100,13174
1570470241.490191,52346.000,8496,3,PG,1,100,13200
1570470241.534864,52381.000,8514,3,PG,1,100,13212
1570470241.579537,52416.000,8514,3,PG,1,100,13208
1570470241.624211,52451.000,8514,3,PG,1,100,13235
1570470241.662928,52481.333,8532,3,PG,1,100,13220
1570470241.701645,52511.667,8532,3,PG,1,100,13162
1570470241.740361,52542.000,8532,3,PG,1,100,13122
1570470241.777696,52571.250,8550,4,PG,1,100,13080
1570470241.815030,52600.500,8550,4,PG,1,100,13076
1570470241.852364,52629.750,8550,4,PG,1,100,13061
1570470241.889698,52659.000,8550,4,PG,1,100,13047
1570470241.934371,52694.000,8568,3,PG,1,100,13030
1570470241.979045,52729.000,8568,3,PG,1,100,13029
1570470242.023718,52764.000,8568,3,PG,1,100,13015
1570470242.062010,52794.000,8586,3,PG,1,100,13012
1570470242.100301,52824.000,8586,3,PG,1,100,13010
1570470242.138592,52854.000,8586,3,PG,1,100,13011
1570470242.177309,52884.333,8604,3,PG,1,100,13035
1570470242.216026,52914.667,8604,3,PG,1,100,13038
1570470242.254743,52945.000,8604,3,PG,1,100,13047
1570470242.293460,52975.333,8622,3,PG,1,100,13044
1570470242.332177,53005.667,8622,3,PG,1,100,13046
1570470242.370894,53036.000,8622,3,PG,1,100,13083
1570470242.413014,53069.000,8640,4,PG,1,100,13065
1570470242.455135,53102.000,8640,4,PG,1,100,13085
1570470242.497256,53135.000,8640,4,PG,1,100,13081
1570470242.539376,53168.000,8640,4,PG,1,100,13090
1570470242.578944,53199.000,8658,3,PG,1,100,13129
1570470242.618512,53230.000,8658,3,PG,1,100,13098
1570470242.658080,53261.000,8658,3,PG,1,100,13053
1570470242.696797,53291.333,8676,3,PG,1,100,13012
1570470242.735514,53321.667,8676,3,PG,1,100,12978
1570470242.774230,53352.000,8676,3,PG,1,100,12991
1570470242.813798,53383.000,8694,3,PG,1,100,12984
1570470242.853366,53414.000,8694,3,PG,1,100,12973
1570470242.892934,53445.000,8694,3,PG,1,100,12975
1570470242.937182,53479.667,8712,3,PG,1,100,12958
1570470242.981430,53514.333,8712,3,PG,1,100,12961
1570470243.025678,53549.000,8712,3,PG,1,100,13066
1570470243.062693,53578.000,8729,4,PG,1,100,12967
1570470243.099708,53607.000,8729,4,PG,1,100,12996
1570470243.136723,53636.000,8729,4,PG,1,100,12988
1570470243.173738,53665.000,8729,4,PG,1,100,12973
1570470243.212880,53695.667,8747,3,PG,1,100,13037
1570470243.252023,53726.333,8747,3,PG,1,100,13176
1570470243.291165,53757.000,8747,3,PG,1,100,13281
1570470243.335413,53791.667,8765,3,PG,1,100,13315
1570470243.379661,53826.333,8765,3,PG,1,100,13287
1570470243.423909,53861.000,8765,3,PG,1,100,13311
1570470243.462626,53891.333,8783,3,PG,1,100,13287
1570470243.501343,53921.667,8783,3,PG,1,100,13311
1570470243.540059,53952.000,8783,3,PG,1,100,13477
1570470243.578032,53981.750,8801,4,PG,1,100,13488
1570470243.616004,54011.500,8801,4,PG,1,100,13446
1570470243.653976,54041.250,8801,4,PG,1,100,13403
1570470243.691949,54071.000,8801,4,PG,1,100,13350
1570470243.737048,54106.333,8819,3,PG,1,100,13321
1570470243.782146,54141.667,8819,3,PG,1,100,13280
1570470243.827245,54177.000,8819,3,PG,1,100,13238
1570470243.865962,54207.333,8837,3,PG,1,100,13197
1570470243.904679,54237.667,8837,3,PG,1,100,13164
1570470243.943396,54268.000,8837,3,PG,1,100,13121
1570470243.982113,54298.333,8855,3,PG,1,100,13098
1570470244.020830,54328.667,8855,3,PG,1,100,13079
1570470244.059547,54359.000,8855,3,PG,1,100,13089
1570470244.097838,54389.000,8873,3,PG,1,100,13105
1570470244.136130,54419.000,8873,3,PG,1,100,13075
1570470244.174421,54449.000,8873,3,PG,1,100,13078
1570470244.215584,54481.250,8891,4,PG,1,100,13094
1570470244.256748,54513.500,8891,4,PG,1,100,13110
1570470244.297911,54545.750,8891,4,PG,1,100,13129
1570470244.339074,54578.000,8891,4,PG,1,100,13126
1570470244.377791,54608.333,8910,3,PG,1,100,13121
1570470244.416508,54638.667,8910,3,PG,1,100,13141
1570470244.455225,54669.000,8910,3,PG,1,100,13152
1570470244.493942,54699.333,8928,3,PG,1,100,13143
1570470244.532659,54729.667,8928,3,PG,1,100,13028
1570470244.571376,54760.000,8928,3,PG,1,100,12944
1570470244.610518,54790.667,8946,3,PG,1,100,12873
1570470244.649660,54821.333,8946,3,PG,1,100,12821
1570470244.688803,54852.000,8946,3,PG,1,100,12789
1570470244.730604,54884.750,8964,4,PG,1,100,12746
1570470244.772406,54917.500,8964,4,PG,1,100,12706
1570470244.814207,54950.250,8964,4,PG,1,100,12693
1570470244.856009,54983.000,8964,4,PG,1,100,12650
1570470244.894726,55013.333,8982,3,PG,1,100,12653
1570470244.933443,55043.667,8982,3,PG,1,100,12658
1570470244.972159,55074.000,8982,3,PG,1,100,12641
1570470245.010876,55104.333,9000,3,PG,1,100,12660
1570470245.049593,55134.667,9000,3,PG,1,100,12645
1570470245.088310,55165.000,9000,3,PG,1,100,12665
1570470245.132983,55200.000,9018,3,PG,1,100,12670
1570470245.177657,55235.000,9018,3,PG,1,100,12671
1570470245.222330,55270.000,9018,3,PG,1,100,12705
1570470245.259345,55299.000,9036,4,PG,1,100,12700
1570470245.296360,55328.000,9036,4,PG,1,100,12718
1570470245.333375,55357.000,9036,4,PG,1,100,12742
1570470245.370390,55386.000,9036,4,PG,1,100,12746
1570470245.409958,55417.000,9055,3,PG,1,100,12780
1570470245.449526,55448.000,9055,3,PG,1,100,12791
1570470245.489094,55479.000,9055,3,PG,1,100,12802
1570470245.534193,55514.333,9073,3,PG,1,100,12785
1570470245.579292,55549.667,9073,3,PG,1,100,12721
1570470245.624390,55585.000,9073,3,PG,1,100,12678
1570470245.663107,55615.333,9091,3,PG,1,100,12632
1570470245.701824,55645.667,9091,3,PG,1,100,12585
1570470245.740541,55676.000,9091,3,PG,1,100,12595
1570470245.778513,55705.750,9109,4,PG,1,100,12558
1570470245.816486,55735.500,9109,4,PG,1,100,12560
1570470245.854458,55765.250,9109,4,PG,1,100,12558
1570470245.892431,55795.000,9109,4,PG,1,100,12526
1570470245.932509,55826.400,9130,5,PG,1,100,12536
1570470245.972587,55857.800,9130,5,PG,1,100,12547
1570470246.012666,55889.200,9130,5,PG,1,100,12559
1570470246.052744,55920.600,9130,5,PG,1,100,12571
1570470246.092823,55952.000,9130,5,PG,1,100,12562
1570470246.133667,55984.000,9150,2,PG,1,100,12588
1570470246.174511,56016.000,9150,2,PG,1,100,12599
1570470246.215993,56048.500,9168,4,PG,1,100,12620
1570470246.257476,56081.000,9168,4,PG,1,100,12638
1570470246.298958,56113.500,9168,4,PG,1,100,12652
1570470246.340441,56146.000,9168,4,PG,1,100,12656
1570470246.380008,56177.000,9187,3,PG,1,100,12678
1570470246.419576,56208.000,9187,3,PG,1,100,12682
1570470246.459144,56239.000,9187,3,PG,1,100,12722
1570470246.497861,56269.333,9205,3,PG,1,100,12737
1570470246.536578,56299.667,9205,3,PG,1,100,12746
1570470246.575295,56330.000,9205,3,PG,1,100,12737
1570470246.617096,56362.750,9223,4,PG,1,100,12677
1570470246.658898,56395.500,9223,4,PG,1,100,12670
1570470246.700699,56428.250,9223,4,PG,1,100,12659
1570470246.742501,56461.000,9223,4,PG,1,100,12627
1570470246.782494,56492.333,9241,3,PG,1,100,12638
1570470246.822487,56523.667,9241,3,PG,1,100,12618
1570470246.862480,56555.000,9241,3,PG,1,100,12636
1570470246.901197,56585.333,9259,3,PG,1,100,12646
1570470246.939914,56615.667,9259,3,PG,1,100,12633
1570470246.978631,56646.000,9259,3,PG,1,100,12654
1570470247.017348,56676.333,9277,3,PG,1,100,12639
1570470247.056065,56706.667,9277,3,PG,1,100,12664
1570470247.094782,56737.000,9277,3,PG,1,100,12700
1570470247.138604,56771.333,9295,3,PG,1,100,12691
1570470247.182427,56805.667,9295,3,PG,1,100,12723
1570470247.226249,56840.000,9295,3,PG,1,100,12715
1570470247.263264,56869.000,9313,4,PG,1,100,12739
1570470247.300279,56898.000,9313,4,PG,1,100,12766
1570470247.337294,56927.000,9313,4,PG,1,100,12758
1570470247.374310,56956.000,9313,4,PG,1,100,12809
1570470247.413026,56986.333,9332,3,PG,1,100,12799
1570470247.451743,57016.667,9332,3,PG,1,100,12812
1570470247.490460,57047.000,9332,3,PG,1,100,12830
1570470247.534708,57081.667,9350,3,PG,1,100,12845
1570470247.578956,57116.333,9350,3,PG,1,100,12897
1570470247.623204,57151.000,9350,3,PG,1,100,12891
1570470247.660538,57180.250,9368,4,PG,1,100,12886
1570470247.697872,57209.500,9368,4,PG,1,100,12892
1570470247.735206,57238.750,9368,4,PG,1,100,12867
1570470247.772541,57268.000,9368,4,PG,1,100,12884
1570470247.811683,57298.667,9386,3,PG,1,100,12892
1570470247.850825,57329.333,9386,3,PG,1,100,12875
1570470247.889968,57360.000,9386,3,PG,1,100,12889
1570470247.934641,57395.000,9404,3,PG,1,100,12875
1570470247.979314,57430.000,9404,3,PG,1,100,12889
1570470248.023988,57465.000,9404,3,PG,1,100,12896
1570470248.062705,57495.333,9422,3,PG,1,100,12886
1570470248.101422,57525.667,9422,3,PG,1,100,12907
1570470248.140138,57556.000,9422,3,PG,1,100,12911
1570470248.177473,57585.250,9440,4,PG,1,100,12925
1570470248.214807,57614.500,9440,4,PG,1,100,12952
1570470248.252141,57643.750,9440,4,PG,1,100,12938
1570470248.289475,57673.000,9440,4,PG,1,100,12970
1570470248.330957,57705.500,9458,2,PG,1,100,12962
1570470248.372440,57738.000,9458,2,PG,1,100,12979
1570470248.413922,57770.500,9476,4,PG,1,100,12989
1570470248.455405,57803.000,9476,4,PG,1,100,12990
1570470248.496887,57835.500,9476,4,PG,1,100,13011
1570470248.538369,57868.000,9476,4,PG,1,100,13013
1570470248.577937,57899.000,9494,3,PG,1,100,13033
1570470248.617505,57930.000,9494,3,PG,1,100,13050
1570470248.657073,57961.000,9494,3,PG,1,100,13047
1570470248.695790,57991.333,9512,3,PG,1,100,13043
1570470248.734507,58021.667,9512,3,PG,1,100,13044
1570470248.773224,58052.000,9512,3,PG,1,100,13042
1570470248.812792,58083.000,9530,3,PG,1,100,13047
1570470248.852359,58114.000,9530,3,PG,1,100,13050
1570470248.891927,58145.000,9530,3,PG,1,100,13059
1570470248.934048,58178.000,9548,4,PG,1,100,13075
1570470248.976168,58211.000,9548,4,PG,1,100,13096
1570470249.018289,58244.000,9548,4,PG,1,100,13075
1570470249.060410,58277.000,9548,4,PG,1,100,13099
1570470249.098701,58307.000,9566,3,PG,1,100,13089
1570470249.136992,58337.000,9566,3,PG,1,100,13120
1570470249.175284,58367.000,9566,3,PG,1,100,13147
1570470249.214426,58397.667,9584,3,PG,1,100,13131
1570470249.253569,58428.333,9584,3,PG,1,100,13159
1570470249.292711,58459.000,9584,3,PG,1,100,13150
1570470249.336959,58493.667,9600,3,PG,1,100,13186
1570470249.381207,58528.333,9600,3,PG,1,100,13222
1570470249.425455,58563.000,9600,3,PG,1,100,13184
1570470249.462789,58592.250,9619,4,PG,1,100,13215
1570470249.500123,58621.500,9619,4,PG,1,100,13215
1570470249.537457,58650.750,9619,4,PG,1,100,13245
1570470249.574791,58680.000,9619,4,PG,1,100,13305
1570470249.613934,58710.667,9637,3,PG,1,100,13264
1570470249.653076,58741.333,9637,3,PG,1,100,13285
1570470249.692218,58772.000,9637,3,PG,1,100,13277
1570470249.737317,58807.333,9655,3,PG,1,100,13273
1570470249.782416,58842.667,9655,3,PG,1,100,13293
1570470249.827515,58878.000,9655,3,PG,1,100,13271
1570470249.866232,58908.333,9673,3,PG,1,100,13279
1570470249.904949,58938.667,9673,3,PG,1,100,13305
1570470249.943666,58969.000,9673,3,PG,1,100,13302
1570470249.983659,59000.333,9691,3,PG,1,100,13319
1570470250.023652,59031.667,9691,3,PG,1,100,13311
1570470250.063645,59063.000,9691,3,PG,1,100,13314
1570470250.101937,59093.000,9709,3,PG,1,100,13345
1570470250.140228,59123.000,9709,3,PG,1,100,13344
1570470250.178520,59153.000,9709,3,PG,1,100,13332
1570470250.219683,59185.250,9727,4,PG,1,100,13363
1570470250.260846,59217.500,9727,4,PG,1,100,13355
1570470250.302010,59249.750,9727,4,PG,1,100,13385
1570470250.343173,59282.000,9727,4,PG,1,100,13391
1570470250.381890,59312.333,9745,3,PG,1,100,13376
1570470250.420607,59342.667,9745,3,PG,1,100,13408
1570470250.459324,59373.000,9745,3,PG,1,100,13411
1570470250.497615,59403.000,9764,3,PG,1,100,13430
1570470250.535907,59433.000,9764,3,PG,1,100,13444
1570470250.574198,59463.000,9764,3,PG,1,100,13424
1570470250.612915,59493.333,9782,3,PG,1,100,13457
1570470250.651632,59523.667,9782,3,PG,1,100,13471
1570470250.690349,59554.000,9782,3,PG,1,100,13457
1570470250.732150,59586.750,9800,4,PG,1,100,13469
1570470250.773952,59619.500,9800,4,PG,1,100,13438
1570470250.815753,59652.250,9800,4,PG,1,100,13464
1570470250.857555,59685.000,9800,4,PG,1,100,13476
1570470250.896272,59715.333,9818,3,PG,1,100,13478
1570470250.934988,59745.667,9818,3,PG,1,100,13503
1570470250.973706,59776.000,9818,3,PG,1,100,13484
1570470251.012848,59806.667,9836,3,PG,1,100,13493
1570470251.051990,59837.333,9836,3,PG,1,100,13509
1570470251.091132,59868.000,9836,3,PG,1,100,13499
1570470251.135806,59903.000,9854,3,PG,1,100,13529
1570470251.180479,59938.000,9854,3,PG,1,100,13516
1570470251.225152,59973.000,9854,3,PG,1,100,13515
1570470251.262168,60002.000,9872,4,PG,1,100,13559
1570470251.299183,60031.000,9872,4,PG,1,100,13521
1570470251.336198,60060.000,9872,4,PG,1,100,13559
1570470251.373213,60089.000,9872,4,PG,1,100,13554
1570470251.411930,60119.333,9890,3,PG,1,100,13557
1570470251.450647,60149.667,9890,3,PG,1,100,13595
1570470251.489364,60180.000,9890,3,PG,1,100,13559
1570470251.534037,60215.000,9909,3,PG,1,100,13592
1570470251.578710,60250.000,9909,3,PG,1,100,13594
1570470251.623384,60285.000,9909,3,PG,1,100,13560
1570470251.661675,60315.000,9927,3,PG,1,100,13596
1570470251.699966,60345.000,9927,3,PG,1,100,13545
1570470251.738258,60375.000,9927,3,PG,1,100,13552
1570470251.776230,60404.750,9945,4,PG,1,100,13553
1570470251.814203,60434.500,9945,4,PG,1,100,13551
1570470251.852175,60464.250,9945,4,PG,1,100,13590
1570470251.890147,60494.000,9945,4,PG,1,100,13556
1570470251.935246,60529.333,9963,3,PG,1,100,13542
1570470251.980345,60564.667,9963,3,PG,1,100,13559
1570470252.025444,60600.000,9963,3,PG,1,100,13556
1570470252.064161,60630.333,9981,3,PG,1,100,13593
1570470252.102878,60660.667,9981,3,PG,1,100,13583
1570470252.141594,60691.000,9981,3,PG,1,100,13573
1570470252.181162,60722.000,9999,3,PG,1,100,13597
1570470252.220730,60753.000,9999,3,PG,1,100,13588
1570470252.260298,60784.000,9999,3,PG,1,100,13606
1570470252.298164,60813.667,10016,3,PG,1,100,13608
1570470252.336030,60843.333,10016,3,PG,1,100,13607
1570470252.373896,60873.000,10016,3,PG,1,100,13622
1570470252.413719,60904.200,10037,5,PG,1,100,13617
1570470252.453542,60935.400,10037,5,PG,1,100,13635
1570470252.493365,60966.600,10037,5,PG,1,100,13592
1570470252.533188,60997.800,10037,5,PG,1,100,13553
1570470252.573011,61029.000,10037,5,PG,1,100,13550
1570470252.614813,61061.750,10058,4,PG,1,100,13529
1570470252.656615,61094.500,10058,4,PG,1,100,13523
1570470252.698416,61127.250,10058,4,PG,1,100,13517
1570470252.740217,61160.000,10058,4,PG,1,100,13505
1570470252.779785,61191.000,10076,3,PG,1,100,13494
1570470252.819353,61222.000,10076,3,PG,1,100,13484
1570470252.858921,61253.000,10076,3,PG,1,100,13476
1570470252.897638,61283.333,10094,3,PG,1,100,13473
1570470252.936355,61313.667,10094,3,PG,1,100,13496
1570470252.975072,61344.000,10094,3,PG,1,100,13478
1570470253.014214,61374.667,10112,3,PG,1,100,13486
1570470253.053356,61405.333,10112,3,PG,1,100,13484
1570470253.092499,61436.000,10112,3,PG,1,100,13479
1570470253.134619,61469.000,10130,4,PG,1,100,13505
1570470253.176740,61502.000,10130,4,PG,1,100,13487
1570470253.218861,61535.000,10130,4,PG,1,100,13509
1570470253.260981,61568.000,10130,4,PG,1,100,13488
1570470253.299273,61598.000,10148,3,PG,1,100,13505
1570470253.337564,61628.000,10148,3,PG,1,100,13527
1570470253.375855,61658.000,10148,3,PG,1,100,13491
1570470253.414572,61688.333,10166,3,PG,1,100,13476
1570470253.453289,61718.667,10166,3,PG,1,100,13413
1570470253.492006,61749.000,10166,3,PG,1,100,13379
1570470253.535829,61783.333,10185,3,PG,1,100,13353
1570470253.579651,61817.667,10185,3,PG,1,100,13302
1570470253.623473,61852.000,10185,3,PG,1,100,13300
1570470253.660489,61881.000,10203,4,PG,1,100,13274
1570470253.697504,61910.000,10203,4,PG,1,100,13258
1570470253.734519,61939.000,10203,4,PG,1,100,13248
1570470253.771534,61968.000,10203,4,PG,1,100,13216
1570470253.810251,61998.333,10221,3,PG,1,100,13224
1570470253.848968,62028.667,10221,3,PG,1,100,13227
1570470253.887684,62059.000,10221,3,PG,1,100,13210
1570470253.932358,62094.000,10239,3,PG,1,100,13209
1570470253.977031,62129.000,10239,3,PG,1,100,13220
1570470254.021704,62164.000,10239,3,PG,1,100,13218
1570470254.060421,62194.333,10257,3,PG,1,100,13229
1570470254.099138,62224.667,10257,3,PG,1,100,13212
1570470254.137855,62255.000,10257,3,PG,1,100,13214
1570470254.175508,62284.500,10275,4,PG,1,100,13234
1570470254.213162,62314.000,10275,4,PG,1,100,13236
1570470254.250815,62343.500,10275,4,PG,1,100,13265
1570470254.288468,62373.000,10275,4,PG,1,100,13246
1570470254.326760,62403.000,10293,3,PG,1,100,13246
1570470254.365051,62433.000,10293,3,PG,1,100,13254
1570470254.403342,62463.000,10293,3,PG,1,100,13157
1570470254.448016,62498.000,10311,3,PG,1,100,13105
1570470254.492689,62533.000,10311,3,PG,1,100,13066
1570470254.537363,62568.000,10311,3,PG,1,100,13015
1570470254.576080,62598.333,10330,3,PG,1,100,13008
1570470254.614796,62628.667,10330,3,PG,1,100,12974
1570470254.653513,62659.000,10330,3,PG,1,100,12961
1570470254.690528,62688.000,10347,4,PG,1,100,12933
1570470254.727544,62717.000,10347,4,PG,1,100,12899
1570470254.764559,62746.000,10347,4,PG,1,100,12915
1570470254.801574,62775.000,10347,4,PG,1,100,12906
1570470254.846247,62810.000,10365,3,PG,1,100,12889
1570470254.890920,62845.000,10365,3,PG,1,100,12904
1570470254.935594,62880.000,10365,3,PG,1,100,12890
1570470254.975162,62911.000,10383,3,PG,1,100,12916
1570470255.014729,62942.000,10383,3,PG,1,100,12923
1570470255.054297,62973.000,10383,3,PG,1,100,12893
1570470255.093014,63003.333,10401,3,PG,1,100,12923
1570470255.131731,63033.667,10401,3,PG,1,100,12928
1570470255.170448,63064.000,10401,3,PG,1,100,12918
1570470255.210016,63095.000,10419,3,PG,1,100,12960
1570470255.249583,63126.000,10419,3,PG,1,100,12929
1570470255.289151,63157.000,10419,3,PG,1,100,12969
1570470255.327868,63187.333,10437,3,PG,1,100,12959
1570470255.366585,63217.667,10437,3,PG,1,100,12890
1570470255.405302,63248.000,10437,3,PG,1,100,12866
1570470255.446784,63280.500,10455,4,PG,1,100,12775
1570470255.488267,63313.000,10455,4,PG,1,100,12770
1570470255.529749,63345.500,10455,4,PG,1,100,12766
1570470255.571232,63378.000,10455,4,PG,1,100,12707
1570470255.610374,63408.667,10473,3,PG,1,100,12734
1570470255.649516,63439.333,10473,3,PG,1,100,12664
1570470255.688659,63470.000,10473,3,PG,1,100,12678
1570470255.726950,63500.000,10490,3,PG,1,100,12689
1570470255.765242,63530.000,10490,3,PG,1,100,12667
1570470255.803533,63560.000,10490,3,PG,1,100,12693
1570470255.848207,63595.000,10508,3,PG,1,100,12661
1570470255.892880,63630.000,10508,3,PG,1,100,12678
1570470255.937553,63665.000,10508,3,PG,1,100,12688
1570470255.975526,63694.750,10526,4,PG,1,100,12706
1570470256.013498,63724.500,10526,4,PG,1,100,12714
1570470256.051470,63754.250,10526,4,PG,1,100,12699
1570470256.089442,63784.000,10526,4,PG,1,100,12721
1570470256.128585,63814.667,10544,3,PG,1,100,12745
1570470256.167727,63845.333,10544,3,PG,1,100,12754
1570470256.206870,63876.000,10544,3,PG,1,100,12766
1570470256.251543,63911.000,10562,3,PG,1,100,12760
1570470256.296216,63946.000,10562,3,PG,1,100,12787
1570470256.340890,63981.000,10562,3,PG,1,100,12802
1570470256.380032,64011.667,10580,3,PG,1,100,12754
1570470256.419174,64042.333,10580,3,PG,1,100,12690
1570470256.458317,64073.000,10580,3,PG,1,100,12660
1570470256.495013,64101.750,10598,4,PG,1,100,12616
1570470256.531709,64130.500,10598,4,PG,1,100,12612
1570470256.568405,64159.250,10598,4,PG,1,100,12578
1570470256.605101,64188.000,10598,4,PG,1,100,12548
1570470256.649348,64222.667,10617,3,PG,1,100,12558
1570470256.693597,64257.333,10617,3,PG,1,100,12541
1570470256.737844,64292.000,10617,3,PG,1,100,12536
1570470256.776561,64322.333,10635,3,PG,1,100,12534
1570470256.815278,64352.667,10635,3,PG,1,100,12519
1570470256.853995,64383.000,10635,3,PG,1,100,12554
1570470256.892712,64413.333,10653,3,PG,1,100,12559
1570470256.931429,64443.667,10653,3,PG,1,100,12561
1570470256.970146,64474.000,10653,3,PG,1,100,12565
1570470257.009288,64504.667,10671,3,PG,1,100,12571
1570470257.048431,64535.333,10671,3,PG,1,100,12596
1570470257.087573,64566.000,10671,3,PG,1,100,12609
1570470257.129375,64598.750,10689,4,PG,1,100,12625
1570470257.171176,64631.500,10689,4,PG,1,100,12627
1570470257.212977,64664.250,10689,4,PG,1,100,12646
1570470257.254779,64697.000,10689,4,PG,1,100,12670
1570470257.293496,64727.333,10707,3,PG,1,100,12681
1570470257.332213,64757.667,10707,3,PG,1,100,12690
1570470257.370930,64788.000,10707,3,PG,1,100,12704
1570470257.409647,64818.333,10725,3,PG,1,100,12724
1570470257.448364,64848.667,10725,3,PG,1,100,12717
1570470257.487080,64879.000,10725,3,PG,1,100,12669
1570470257.525372,64909.000,10743,3,PG,1,100,12639
1570470257.563663,64939.000,10743,3,PG,1,100,12621
1570470257.601955,64969.000,10743,3,PG,1,100,12618
1570470257.643756,65001.750,10762,4,PG,1,100,12596
1570470257.685558,65034.500,10762,4,PG,1,100,12603
1570470257.727359,65067.250,10762,4,PG,1,100,12582
1570470257.769161,65100.000,10762,4,PG,1,100,12590
1570470257.807878,65130.333,10780,3,PG,1,100,12604
1570470257.846595,65160.667,10780,3,PG,1,100,12591
1570470257.885311,65191.000,10780,3,PG,1,100,12610
1570470257.924028,65221.333,10798,3,PG,1,100,12624
1570470257.962745,65251.667,10798,3,PG,1,100,12629
1570470258.001462,65282.000,10798,3,PG,1,100,12644
1570470258.046561,65317.333,10816,3,PG,1,100,12645
1570470258.091660,65352.667,10816,3,PG,1,100,12664
1570470258.136759,65388.000,10816,3,PG,1,100,12681
1570470258.174731,65417.750,10834,4,PG,1,100,12692
1570470258.212703,65447.500,10834,4,PG,1,100,12734
1570470258.250676,65477.250,10834,4,PG,1,100,12710
1570470258.288648,65507.000,10834,4,PG,1,100,12734
1570470258.327365,65537.333,10852,3,PG,1,100,12748
1570470258.366082,65567.667,10852,3,PG,1,100,12758
1570470258.404799,65598.000,10852,3,PG,1,100,12782
1570470258.449047,65632.667,10870,3,PG,1,100,12791
1570470258.493294,65667.333,10870,3,PG,1,100,12802
1570470258.537542,65702.000,10870,3,PG,1,100,12828
1570470258.577110,65733.000,10888,3,PG,1,100,12813
1570470258.616678,65764.000,10888,3,PG,1,100,12812
1570470258.656246,65795.000,10888,3,PG,1,100,12797
1570470258.692942,65823.750,10906,4,PG,1,100,12772
1570470258.729638,65852.500,10906,4,PG,1,100,12776
1570470258.766334,65881.250,10906,4,PG,1,100,12769
1570470258.803030,65910.000,10906,4,PG,1,100,12785
1570470258.845150,65943.000,10924,2,PG,1,100,12779
1570470258.887271,65976.000,10924,2,PG,1,100,12776
1570470258.928753,66008.500,10945,6,PG,1,100,12766
1570470258.970236,66041.000,10945,6,PG,1,100,12784
1570470259.011718,66073.500,10945,6,PG,1,100,12788
1570470259.053200,66106.000,10945,6,PG,1,100,12811
1570470259.094683,66138.500,10945,6,PG,1,100,12825
1570470259.136165,66171.000,10945,6,PG,1,100,12820
1570470259.176159,66202.333,10965,3,PG,1,100,12833
1570470259.216152,66233.667,10965,3,PG,1,100,12826
1570470259.256145,66265.000,10965,3,PG,1,100,12851
1570470259.294862,66295.333,10983,3,PG,1,100,12881
1570470259.333579,66325.667,10983,3,PG,1,100,12860
1570470259.372296,66356.000,10983,3,PG,1,100,12893
1570470259.411438,66386.667,11001,3,PG,1,100,12879
1570470259.450581,66417.333,11001,3,PG,1,100,12910
1570470259.489723,66448.000,11001,3,PG,1,100,12941
1570470259.530886,66480.250,11019,4,PG,1,100,12918
1570470259.572050,66512.500,11019,4,PG,1,100,12956
1570470259.613213,66544.750,11019,4,PG,1,100,12937
1570470259.654376,66577.000,11019,4,PG,1,100,12954
1570470259.692668,66607.000,11038,3,PG,1,100,12995
1570470259.730959,66637.000,11038,3,PG,1,100,12946
1570470259.769251,66667.000,11038,3,PG,1,100,12951
1570470259.807967,66697.333,11056,3,PG,1,100,12930
1570470259.846684,66727.667,11056,3,PG,1,100,12927
1570470259.885401,66758.000,11056,3,PG,1,100,12973
1570470259.923267,66787.667,11074,3,PG,1,100,12942
1570470259.961133,66817.333,11074,3,PG,1,100,12975
1570470259.998999,66847.000,11074,3,PG,1,100,12954
1570470260.040801,66879.750,11092,4,PG,1,100,12961
1570470260.082602,66912.500,11092,4,PG,1,100,12982
1570470260.124404,66945.250,11092,4,PG,1,100,12979
1570470260.166205,66978.000,11092,4,PG,1,100,13006
1570470260.205348,67008.667,11110,3,PG,1,100,13014
1570470260.244490,67039.333,11110,3,PG,1,100,13006
1570470260.283632,67070.000,11110,3,PG,1,100,13040
1570470260.322349,67100.333,11128,3,PG,1,100,13025
1570470260.361066,67130.667,11128,3,PG,1,100,13058
1570470260.399783,67161.000,11128,3,PG,1,100,13055
1570470260.444456,67196.000,11146,3,PG,1,100,13056
1570470260.489130,67231.000,11146,3,PG,1,100,13086
1570470260.533803,67266.000,11146,3,PG,1,100,13079
1570470260.571137,67295.250,11164,4,PG,1,100,13100
1570470260.608471,67324.500,11164,4,PG,1,100,13115
1570470260.645806,67353.750,11164,4,PG,1,100,13114
1570470260.683140,67383.000,11164,4,PG,1,100,13144
1570470260.721431,67413.000,11183,3,PG,1,100,13131
1570470260.759722,67443.000,11183,3,PG,1,100,13136
1570470260.798014,67473.000,11183,3,PG,1,100,13122
1570470260.842687,67508.000,11201,3,PG,1,100,13090
1570470260.887361,67543.000,11201,3,PG,1,100,13122
1570470260.932034,67578.000,11201,3,PG,1,100,13098
1570470260.971176,67608.667,11218,3,PG,1,100,13109
1570470261.010319,67639.333,11218,3,PG,1,100,13136
1570470261.049461,67670.000,11218,3,PG,1,100,13115
1570470261.086795,67699.250,11236,4,PG,1,100,13138
1570470261.124130,67728.500,11236,4,PG,1,100,13129
1570470261.161464,67757.750,11236,4,PG,1,100,13147
1570470261.198798,67787.000,11236,4,PG,1,100,13159
1570470261.241557,67820.500,11254,2,PG,1,100,13155
1570470261.284315,67854.000,11254,2,PG,1,100,13169
1570470261.326436,67887.000,11272,4,PG,1,100,13167
1570470261.368556,67920.000,11272,4,PG,1,100,13187
1570470261.410677,67953.000,11272,4,PG,1,100,13179
1570470261.452798,67986.000,11272,4,PG,1,100,13195
1570470261.491940,68016.667,11290,3,PG,1,100,13213
1570470261.531082,68047.333,11290,3,PG,1,100,13218
1570470261.570225,68078.000,11290,3,PG,1,100,13230
1570470261.609367,68108.667,11309,3,PG,1,100,13235
1570470261.648510,68139.333,11309,3,PG,1,100,13247
1570470261.687652,68170.000,11309,3,PG,1,100,13255
1570470261.725943,68200.000,11325,3,PG,1,100,13263
1570470261.764235,68230.000,11325,3,PG,1,100,13274
1570470261.802526,68260.000,11325,3,PG,1,100,13231
1570470261.844009,68292.500,11343,4,PG,1,100,13226
1570470261.885491,68325.000,11343,4,PG,1,100,13212
1570470261.926974,68357.500,11343,4,PG,1,100,13218
1570470261.968456,68390.000,11343,4,PG,1,100,13233
1570470262.007598,68420.667,11361,3,PG,1,100,13209
1570470262.046741,68451.333,11361,3,PG,1,100,13223
1570470262.085883,68482.000,11361,3,PG,1,100,13215
1570470262.124600,68512.333,11379,3,PG,1,100,13234
1570470262.163317,68542.667,11379,3,PG,1,100,13258
1570470262.202034,68573.000,11379,3,PG,1,100,13218
1570470262.246707,68608.000,11397,3,PG,1,100,13248
1570470262.291380,68643.000,11397,3,PG,1,100,13248
1570470262.336054,68678.000,11397,3,PG,1,100,13261
1570470262.374026,68707.750,11415,4,PG,1,100,13300
1570470262.411999,68737.500,11415,4,PG,1,100,13266
1570470262.449971,68767.250,11415,4,PG,1,100,13290
1570470262.487943,68797.000,11415,4,PG,1,100,13294
1570470262.526660,68827.333,11433,3,PG,1,100,13306
1570470262.565377,68857.667,11433,3,PG,1,100,13331
1570470262.604094,68888.000,11433,3,PG,1,100,13316
1570470262.642811,68918.333,11452,3,PG,1,100,13333
1570470262.681528,68948.667,11452,3,PG,1,100,13359
1570470262.720245,68979.000,11452,3,PG,1,100,13353
1570470262.764493,69013.667,11470,3,PG,1,100,13353
1570470262.808740,69048.333,11470,3,PG,1,100,13309
1570470262.852988,69083.000,11470,3,PG,1,100,13295
1570470262.889684,69111.750,11488,4,PG,1,100,13290
1570470262.926380,69140.500,11488,4,PG,1,100,13285
1570470262.963076,69169.250,11488,4,PG,1,100,13297
1570470262.999772,69198.000,11488,4,PG,1,100,13278
1570470263.038489,69228.333,11506,3,PG,1,100,13276
1570470263.077206,69258.667,11506,3,PG,1,100,13293
1570470263.115923,69289.000,11506,3,PG,1,100,13278
1570470263.160596,69324.000,11524,3,PG,1,100,13276
1570470263.205270,69359.000,11524,3,PG,1,100,13291
1570470263.249943,69394.000,11524,3,PG,1,100,13280
1570470263.288660,69424.333,11542,3,PG,1,100,13309
1570470263.327377,69454.667,11542,3,PG,1,100,13305
1570470263.366094,69485.000,11542,3,PG,1,100,13274
1570470263.403747,69514.500,11560,4,PG,1,100,13327
1570470263.441400,69544.000,11560,4,PG,1,100,13315
1570470263.479053,69573.500,11560,4,PG,1,100,13346
1570470263.516707,69603.000,11560,4,PG,1,100,13359
1570470263.558189,69635.500,11578,2,PG,1,100,13329
1570470263.599671,69668.000,11578,2,PG,1,100,13359
1570470263.641154,69700.500,11597,4,PG,1,100,13369
1570470263.682636,69733.000,11597,4,PG,1,100,13381
1570470263.724119,69765.500,11597,4,PG,1,100,13375
1570470263.765601,69798.000,11597,4,PG,1,100,13309
1570470263.804318,69828.333,11615,3,PG,1,100,13284
1570470263.843035,69858.667,11615,3,PG,1,100,13268
1570470263.881752,69889.000,11615,3,PG,1,100,13257
1570470263.920043,69919.000,11633,3,PG,1,100,13254
1570470263.958335,69949.000,11633,3,PG,1,100,13199
1570470263.996626,69979.000,11633,3,PG,1,100,13221
1570470264.038428,70011.750,11651,4,PG,1,100,13212
1570470264.080229,70044.500,11651,4,PG,1,100,13188
1570470264.122031,70077.250,11651,4,PG,1,100,13210
1570470264.163832,70110.000,11651,4,PG,1,100,13189
1570470264.203400,70141.000,11669,3,PG,1,100,13198
1570470264.242968,70172.000,11669,3,PG,1,100,13206
1570470264.282536,70203.000,11669,3,PG,1,100,13171
1570470264.321253,70233.333,11687,3,PG,1,100,13212
1570470264.359969,70263.667,11687,3,PG,1,100,13205
1570470264.398686,70294.000,11687,3,PG,1,100,13215
1570470264.438680,70325.333,11705,3,PG,1,100,13230
1570470264.478673,70356.667,11705,3,PG,1,100,13195
1570470264.518666,70388.000,11705,3,PG,1,100,13247
1570470264.563339,70423.000,11723,3,PG,1,100,13241
1570470264.608013,70458.000,11723,3,PG,1,100,13244
1570470264.652686,70493.000,11723,3,PG,1,100,13266
1570470264.690020,70522.250,11741,4,PG,1,100,13165
1570470264.727355,70551.500,11741,4,PG,1,100,13148
1570470264.764689,70580.750,11741,4,PG,1,100,13084
1570470264.802023,70610.000,11741,4,PG,1,100,13032
1570470264.841165,70640.667,11759,3,PG,1,100,13051
1570470264.880308,70671.333,11759,3,PG,1,100,12954
1570470264.919450,70702.000,11759,3,PG,1,100,12964
1570470264.964549,70737.333,11777,3,PG,1,100,12935
1570470265.009648,70772.667,11777,3,PG,1,100,12915
1570470265.054746,70808.000,11777,3,PG,1,100,12934
1570470265.093038,70838.000,11795,3,PG,1,100,12880
1570470265.131329,70868.000,11795,3,PG,1,100,12890
1570470265.169621,70898.000,11795,3,PG,1,100,12883
1570470265.207274,70927.500,11813,4,PG,1,100,12893
1570470265.244927,70957.000,11813,4,PG,1,100,12932
1570470265.282581,70986.500,11813,4,PG,1,100,12905
1570470265.320234,71016.000,11813,4,PG,1,100,12905
1570470265.365333,71051.333,11831,3,PG,1,100,12915
1570470265.410431,71086.667,11831,3,PG,1,100,12916
1570470265.455530,71122.000,11831,3,PG,1,100,12956
1570470265.495609,71153.400,11852,5,PG,1,100,12948
1570470265.535687,71184.800,11852,5,PG,1,100,12953
1570470265.575765,71216.200,11852,5,PG,1,100,12971
1570470265.615844,71247.600,11852,5,PG,1,100,12978
1570470265.655922,71279.000,11852,5,PG,1,100,12998
1570470265.693788,71308.667,11873,3,PG,1,100,12942
1570470265.731654,71338.333,11873,3,PG,1,100,12855
1570470265.769520,71368.000,11873,3,PG,1,100,12810
1570470265.808237,71398.333,11891,3,PG,1,100,12762
1570470265.846954,71428.667,11891,3,PG,1,100,12736
1570470265.885671,71459.000,11891,3,PG,1,100,12712
1570470265.923537,71488.667,11909,3,PG,1,100,12667
1570470265.961403,71518.333,11909,3,PG,1,100,12675
1570470265.999269,71548.000,11909,3,PG,1,100,12629
1570470266.040751,71580.500,11927,4,PG,1,100,12609
1570470266.082234,71613.000,11927,4,PG,1,100,12630
1570470266.123716,71645.500,11927,4,PG,1,100,12611
1570470266.165198,71678.000,11927,4,PG,1,100,12624
1570470266.203915,71708.333,11945,3,PG,1,100,12617
1570470266.242632,71738.667,11945,3,PG,1,100,12607
1570470266.281349,71769.000,11945,3,PG,1,100,12636
1570470266.319640,71799.000,11963,3,PG,1,100,12637
1570470266.357932,71829.000,11963,3,PG,1,100,12650
1570470266.396223,71859.000,11963,3,PG,1,100,12666
1570470266.435366,71889.667,11981,3,PG,1,100,12662
1570470266.474508,71920.333,11981,3,PG,1,100,12694
1570470266.513650,71951.000,11981,3,PG,1,100,12698
1570470266.555452,71983.750,11999,4,PG,1,100,12716
1570470266.597254,72016.500,11999,4,PG,1,100,12736
1570470266.639055,72049.250,11999,4,PG,1,100,12743
1570470266.680856,72082.000,11999,4,PG,1,100,12739
1570470266.719573,72112.333,12018,3,PG,1,100,12699
1570470266.758290,72142.667,12018,3,PG,1,100,12601
1570470266.797007,72173.000,12018,3,PG,1,100,12564
1570470266.836575,72204.000,12036,3,PG,1,100,12539
1570470266.876143,72235.000,12036,3,PG,1,100,12466
1570470266.915711,72266.000,12036,3,PG,1,100,12445
1570470266.959533,72300.333,12054,3,PG,1,100,12413
1570470267.003356,72334.667,12054,3,PG,1,100,12420
1570470267.047178,72369.000,12054,3,PG,1,100,12427
1570470267.084193,72398.000,12071,4,PG,1,100,12373
1570470267.121208,72427.000,12071,4,PG,1,100,12397
1570470267.158223,72456.000,12071,4,PG,1,100,12373
1570470267.195238,72485.000,12071,4,PG,1,100,12392
1570470267.234806,72516.000,12089,3,PG,1,100,12400
1570470267.274374,72547.000,12089,3,PG,1,100,12368
1570470267.313942,72578.000,12089,3,PG,1,100,12393
1570470267.358615,72613.000,12107,3,PG,1,100,12384
1570470267.403288,72648.000,12107,3,PG,1,100,12436
1570470267.447962,72683.000,12107,3,PG,1,100,12459
1570470267.486679,72713.333,12125,3,PG,1,100,12454
1570470267.525396,72743.667,12125,3,PG,1,100,12477
1570470267.564112,72774.000,12125,3,PG,1,100,12488
1570470267.602404,72804.000,12143,4,PG,1,100,12511
1570470267.640695,72834.000,12143,4,PG,1,100,12517
1570470267.678987,72864.000,12143,4,PG,1,100,12544
1570470267.717278,72894.000,12143,4,PG,1,100,12564
1570470267.758122,72926.000,12162,2,PG,1,100,12587
1570470267.798967,72958.000,12162,2,PG,1,100,12619
1570470267.841087,72991.000,12178,4,PG,1,100,12590
1570470267.883208,73024.000,12178,4,PG,1,100,12528
1570470267.925328,73057.000,12178,4,PG,1,100,12457
1570470267.967449,73090.000,12178,4,PG,1,100,12470
1570470268.006591,73120.667,12196,3,PG,1,100,12428
1570470268.045734,73151.333,12196,3,PG,1,100,12386
1570470268.084876,73182.000,12196,3,PG,1,100,12400
1570470268.123593,73212.333,12214,3,PG,1,100,12375
1570470268.162310,73242.667,12214,3,PG,1,100,12391
1570470268.201027,73273.000,12214,3,PG,1,100,12400
1570470268.240169,73303.667,12232,3,PG,1,100,12358
1570470268.279312,73334.333,12232,3,PG,1,100,12388
1570470268.318454,73365.000,12232,3,PG,1,100,12381
1570470268.360255,73397.750,12250,4,PG,1,100,12407
1570470268.402057,73430.500,12250,4,PG,1,100,12442
1570470268.443858,73463.250,12250,4,PG,1,100,12422
1570470268.485660,73496.000,12250,4,PG,1,100,12455
1570470268.524377,73526.333,12268,3,PG,1,100,12451
1570470268.563094,73556.667,12268,3,PG,1,100,12475
1570470268.601811,73587.000,12268,3,PG,1,100,12510
1570470268.640953,73617.667,12286,3,PG,1,100,12499
1570470268.680095,73648.333,12286,3,PG,1,100,12535
1570470268.719238,73679.000,12286,3,PG,1,100,12556
1570470268.764337,73714.333,12305,3,PG,1,100,12552
1570470268.809435,73749.667,12305,3,PG,1,100,12598
1570470268.854534,73785.000,12305,3,PG,1,100,12594
1570470268.890911,73813.500,12323,4,PG,1,100,12590
1570470268.927288,73842.000,12323,4,PG,1,100,12556
1570470268.963665,73870.500,12323,4,PG,1,100,12495
1570470269.000042,73899.000,12323,4,PG,1,100,12469
1570470269.038759,73929.333,12341,3,PG,1,100,12449
1570470269.077476,73959.667,12341,3,PG,1,100,12452
1570470269.116192,73990.000,12341,3,PG,1,100,12467
1570470269.160440,74024.667,12359,3,PG,1,100,12461
1570470269.204688,74059.333,12359,3,PG,1,100,12430
1570470269.248936,74094.000,12359,3,PG,1,100,12444
1570470269.285632,74122.750,12377,4,PG,1,100,12450
1570470269.322328,74151.500,12377,4,PG,1,100,12476
1570470269.359024,74180.250,12377,4,PG,1,100,12494
1570470269.395720,74209.000,12377,4,PG,1,100,12481
1570470269.434862,74239.667,12395,3,PG,1,100,12508
1570470269.474005,74270.333,12395,3,PG,1,100,12520
1570470269.513147,74301.000,12395,3,PG,1,100,12547
1570470269.557821,74336.000,12413,3,PG,1,100,12562
1570470269.602494,74371.000,12413,3,PG,1,100,12564
1570470269.647167,74406.000,12413,3,PG,1,100,12601
1570470269.685884,74436.333,12431,3,PG,1,100,12599
1570470269.724601,74466.667,12431,3,PG,1,100,12633
1570470269.763318,74497.000,12431,3,PG,1,100,12646
1570470269.802460,74527.667,12450,3,PG,1,100,12653
1570470269.841603,74558.333,12450,3,PG,1,100,12683
1570470269.880745,74589.000,12450,3,PG,1,100,12688
1570470269.918611,74618.667,12468,3,PG,1,100,12712
1570470269.956477,74648.333,12468,3,PG,1,100,12686
1570470269.994343,74678.000,12468,3,PG,1,100,12654
1570470270.036144,74710.750,12486,4,PG,1,100,12629
1570470270.077946,74743.500,12486,4,PG,1,100,12606
1570470270.119747,74776.250,12486,4,PG,1,100,12599
1570470270.161549,74809.000,12486,4,PG,1,100,12590
1570470270.200266,74839.333,12504,3,PG,1,100,12590
1570470270.238983,74869.667,12504,3,PG,1,100,12607
1570470270.277700,74900.000,12504,3,PG,1,100,12609
1570470270.315991,74930.000,12522,3,PG,1,100,12602
1570470270.354283,74960.000,12522,3,PG,1,100,12616
1570470270.392574,74990.000,12522,3,PG,1,100,12619
1570470270.432142,75021.000,12540,3,PG,1,100,12630
1570470270.471710,75052.000,12540,3,PG,1,100,12654
1570470270.511277,75083.000,12540,3,PG,1,100,12674
1570470270.553079,75115.750,12558,4,PG,1,100,12684
1570470270.594880,75148.500,12558,4,PG,1,100,12712
1570470270.636682,75181.250,12558,4,PG,1,100,12709
1570470270.678483,75214.000,12558,4,PG,1,100,12735
1570470270.717200,75244.333,12576,3,PG,1,100,12754
1570470270.755917,75274.667,12576,3,PG,1,100,12771
1570470270.794634,75305.000,12576,3,PG,1,100,12790
1570470270.834627,75336.333,12595,3,PG,1,100,12794
1570470270.874621,75367.667,12595,3,PG,1,100,12821
1570470270.914614,75399.000,12595,3,PG,1,100,12837
1570470270.959287,75434.000,12612,3,PG,1,100,12846
1570470271.003961,75469.000,12612,3,PG,1,100,12867
1570470271.048634,75504.000,12612,3,PG,1,100,12835
1570470271.085649,75533.000,12630,4,PG,1,100,12781
1570470271.122664,75562.000,12630,4,PG,1,100,12777
1570470271.159679,75591.000,12630,4,PG,1,100,12767
1570470271.196694,75620.000,12630,4,PG,1,100,12780
1570470271.235837,75650.667,12648,3,PG,1,100,12786
1570470271.274979,75681.333,12648,3,PG,1,100,12777
1570470271.314121,75712.000,12648,3,PG,1,100,12787
1570470271.359220,75747.333,12666,3,PG,1,100,12780
1570470271.404319,75782.667,12666,3,PG,1,100,12787
1570470271.449418,75818.000,12666,3,PG,1,100,12803
1570470271.487709,75848.000,12684,3,PG,1,100,12819
1570470271.526001,75878.000,12684,3,PG,1,100,12823
1570470271.564292,75908.000,12684,3,PG,1,100,12840
1570470271.601945,75937.500,12702,4,PG,1,100,12840
1570470271.639599,75967.000,12702,4,PG,1,100,12867
1570470271.677252,75996.500,12702,4,PG,1,100,12885
1570470271.714905,76026.000,12702,4,PG,1,100,12885
1570470271.756388,76058.500,12720,2,PG,1,100,12905
1570470271.797870,76091.000,12720,2,PG,1,100,12897
1570470271.839672,76123.750,12737,4,PG,1,100,12934
1570470271.881473,76156.500,12737,4,PG,1,100,12968
1570470271.923275,76189.250,12737,4,PG,1,100,12959
1570470271.965076,76222.000,12737,4,PG,1,100,12982
1570470272.004644,76253.000,12758,5,PG,1,100,12970
1570470272.044212,76284.000,12758,5,PG,1,100,12955
1570470272.083780,76315.000,12758,5,PG,1,100,12940
1570470272.123347,76346.000,12758,5,PG,1,100,12881
1570470272.162915,76377.000,12758,5,PG,1,100,12891
1570470272.201632,76407.333,12778,3,PG,1,100,12899
1570470272.240349,76437.667,12778,3,PG,1,100,12881
1570470272.279066,76468.000,12778,3,PG,1,100,12917
1570470272.316932,76497.667,12796,3,PG,1,100,12880
1570470272.354798,76527.333,12796,3,PG,1,100,12899
1570470272.392664,76557.000,12796,3,PG,1,100,12901
1570470272.434146,76589.500,12814,4,PG,1,100,12894
1570470272.475629,76622.000,12814,4,PG,1,100,12936
1570470272.517111,76654.500,12814,4,PG,1,100,12915
1570470272.558594,76687.000,12814,4,PG,1,100,12936
1570470272.597736,76717.667,12832,3,PG,1,100,12971
1570470272.636878,76748.333,12832,3,PG,1,100,12954
1570470272.676021,76779.000,12832,3,PG,1,100,12974
1570470272.714737,76809.333,12850,3,PG,1,100,12978
1570470272.753454,76839.667,12850,3,PG,1,100,13001
1570470272.792171,76870.000,12850,3,PG,1,100,13021
1570470272.831314,76900.667,12869,3,PG,1,100,13017
1570470272.870456,76931.333,12869,3,PG,1,100,13049
1570470272.909598,76962.000,12869,3,PG,1,100,13044
1570470272.951400,76994.750,12887,4,PG,1,100,13079
1570470272.993201,77027.500,12887,4,PG,1,100,13094
1570470273.035003,77060.250,12887,4,PG,1,100,13063
1570470273.076804,77093.000,12887,4,PG,1,100,13044
1570470273.115096,77123.000,12905,3,PG,1,100,12978
1570470273.153387,77153.000,12905,3,PG,1,100,12978
1570470273.191679,77183.000,12905,3,PG,1,100,12983
1570470273.231246,77214.000,12923,3,PG,1,100,12947
1570470273.270814,77245.000,12923,3,PG,1,100,12973
1570470273.310382,77276.000,12923,3,PG,1,100,12945
1570470273.354205,77310.333,12940,3,PG,1,100,12964
1570470273.398027,77344.667,12940,3,PG,1,100,12936
1570470273.441849,77379.000,12940,3,PG,1,100,12936
1570470273.478864,77408.000,12958,4,PG,1,100,12952
1570470273.515880,77437.000,12958,4,PG,1,100,12953
1570470273.552895,77466.000,12958,4,PG,1,100,12979
1570470273.589910,77495.000,12958,4,PG,1,100,12961
1570470273.629903,77526.333,12976,3,PG,1,100,12979
1570470273.669896,77557.667,12976,3,PG,1,100,12991
1570470273.709890,77589.000,12976,3,PG,1,100,13000
1570470273.754563,77624.000,12994,3,PG,1,100,13033
1570470273.799236,77659.000,12994,3,PG,1,100,13016
1570470273.843910,77694.000,12994,3,PG,1,100,13042
1570470273.882627,77724.333,13013,3,PG,1,100,13053
1570470273.921343,77754.667,13013,3,PG,1,100,13064
1570470273.960060,77785.000,13013,3,PG,1,100,13095
1570470273.999628,77816.000,13031,3,PG,1,100,13083
1570470274.039196,77847.000,13031,3,PG,1,100,13085
1570470274.078764,77878.000,13031,3,PG,1,100,13038
1570470274.117481,77908.333,13049,3,PG,1,100,12987
1570470274.156198,77938.667,13049,3,PG,1,100,12983
1570470274.194915,77969.000,13049,3,PG,1,100,12915
1570470274.236716,78001.750,13065,4,PG,1,100,12927
1570470274.278517,78034.500,13065,4,PG,1,100,12909
1570470274.320319,78067.250,13065,4,PG,1,100,12914
1570470274.362121,78100.000,13065,4,PG,1,100,12920
1570470274.401263,78130.667,13083,3,PG,1,100,12873
1570470274.440405,78161.333,13083,3,PG,1,100,12891
1570470274.479548,78192.000,13083,3,PG,1,100,12869
1570470274.518265,78222.333,13101,3,PG,1,100,12902
1570470274.556981,78252.667,13101,3,PG,1,100,12912
1570470274.595698,78283.000,13101,3,PG,1,100,12908
1570470274.634841,78313.667,13119,3,PG,1,100,12918
1570470274.673983,78344.333,13119,3,PG,1,100,12914
1570470274.713125,78375.000,13119,3,PG,1,100,12933
1570470274.754927,78407.750,13137,4,PG,1,100,12946
1570470274.796728,78440.500,13137,4,PG,1,100,12954
1570470274.838530,78473.250,13137,4,PG,1,100,12971
1570470274.880332,78506.000,13137,4,PG,1,100,12973
1570470274.919048,78536.333,13156,3,PG,1,100,12989
1570470274.957765,78566.667,13156,3,PG,1,100,13021
1570470274.996482,78597.000,13156,3,PG,1,100,13020
1570470275.035625,78627.667,13174,3,PG,1,100,13018
1570470275.074767,78658.333,13174,3,PG,1,100,12958
1570470275.113909,78689.000,13174,3,PG,1,100,12893
1570470275.158157,78723.667,13192,3,PG,1,100,12845
1570470275.202405,78758.333,13192,3,PG,1,100,12816
1570470275.246653,78793.000,13192,3,PG,1,100,12780
1570470275.283349,78821.750,13210,4,PG,1,100,12759
1570470275.320045,78850.500,13210,4,PG,1,100,12752
1570470275.356741,78879.250,13210,4,PG,1,100,12732
1570470275.393437,78908.000,13210,4,PG,1,100,12710
1570470275.432154,78938.333,13228,3,PG,1,100,12704
1570470275.470870,78968.667,13228,3,PG,1,100,12734
1570470275.509588,78999.000,13228,3,PG,1,100,12710
1570470275.553835,79033.667,13246,3,PG,1,100,12702
1570470275.598083,79068.333,13246,3,PG,1,100,12736
1570470275.642331,79103.000,13246,3,PG,1,100,12724
1570470275.681048,79133.333,13264,3,PG,1,100,12755
1570470275.719765,79163.667,13264,3,PG,1,100,12755
1570470275.758482,79194.000,13264,3,PG,1,100,12741
1570470275.796135,79223.500,13282,4,PG,1,100,12771
1570470275.833788,79253.000,13282,4,PG,1,100,12775
1570470275.871442,79282.500,13282,4,PG,1,100,12808
1570470275.909095,79312.000,13282,4,PG,1,100,12824
1570470275.953768,79347.000,13301,3,PG,1,100,12809
1570470275.998442,79382.000,13301,3,PG,1,100,12831
1570470276.043115,79417.000,13301,3,PG,1,100,12847
1570470276.081832,79447.333,13319,3,PG,1,100,12861
1570470276.120549,79477.667,13319,3,PG,1,100,12792
1570470276.159266,79508.000,13319,3,PG,1,100,12686
1570470276.197983,79538.333,13337,3,PG,1,100,12634
1570470276.236700,79568.667,13337,3,PG,1,100,12617
1570470276.275416,79599.000,13337,3,PG,1,100,12575
1570470276.313708,79629.000,13355,3,PG,1,100,12572
1570470276.351999,79659.000,13355,3,PG,1,100,12534
1570470276.390291,79689.000,13355,3,PG,1,100,12512
1570470276.432092,79721.750,13373,4,PG,1,100,12513
1570470276.473894,79754.500,13373,4,PG,1,100,12477
1570470276.515695,79787.250,13373,4,PG,1,100,12518
1570470276.557497,79820.000,13373,4,PG,1,100,12504
1570470276.596214,79850.333,13391,3,PG,1,100,12491
1570470276.634931,79880.667,13391,3,PG,1,100,12525
1570470276.673647,79911.000,13391,3,PG,1,100,12494
1570470276.712364,79941.333,13409,3,PG,1,100,12534
1570470276.751081,79971.667,13409,3,PG,1,100,12533
1570470276.789798,80002.000,13409,3,PG,1,100,12529
1570470276.829792,80033.333,13427,3,PG,1,100,12584
1570470276.869785,80064.667,13427,3,PG,1,100,12547
1570470276.909778,80096.000,13427,3,PG,1,100,12600
1570470276.954451,80131.000,13446,3,PG,1,100,12606
1570470276.999125,80166.000,13446,3,PG,1,100,12612
1570470277.043798,80201.000,13446,3,PG,1,100,12661
1570470277.081132,80230.250,13464,4,PG,1,100,12624
1570470277.118466,80259.500,13464,4,PG,1,100,12682
1570470277.155801,80288.750,13464,4,PG,1,100,12677
1570470277.193135,80318.000,13464,4,PG,1,100,12593
1570470277.232277,80348.667,13481,3,PG,1,100,12567
1570470277.271420,80379.333,13481,3,PG,1,100,12432
1570470277.310562,80410.000,13481,3,PG,1,100,12448
1570470277.355661,80445.333,13499,3,PG,1,100,12421
1570470277.400759,80480.667,13499,3,PG,1,100,12385
1570470277.445858,80516.000,13499,3,PG,1,100,12420
1570470277.484150,80546.000,13517,3,PG,1,100,12350
1570470277.522441,80576.000,13517,3,PG,1,100,12346
1570470277.560733,80606.000,13517,3,PG,1,100,12354
1570470277.598386,80635.500,13535,4,PG,1,100,12344
1570470277.636039,80665.000,13535,4,PG,1,100,12387
1570470277.673692,80694.500,13535,4,PG,1,100,12363
1570470277.711346,80724.000,13535,4,PG,1,100,12366
1570470277.756444,80759.333,13553,3,PG,1,100,12397
1570470277.801543,80794.667,13553,3,PG,1,100,12397
1570470277.846642,80830.000,13553,3,PG,1,100,12437
1570470277.884933,80860.000,13572,3,PG,1,100,12434
1570470277.923225,80890.000,13572,3,PG,1,100,12440
1570470277.961516,80920.000,13572,3,PG,1,100,12474
1570470278.000659,80950.667,13590,3,PG,1,100,12471
1570470278.039801,80981.333,13590,3,PG,1,100,12505
1570470278.078943,81012.000,13590,3,PG,1,100,12533
1570470278.117661,81042.333,13606,3,PG,1,100,12522
1570470278.156377,81072.667,13606,3,PG,1,100,12569
1570470278.195094,81103.000,13606,3,PG,1,100,12569
1570470278.236577,81135.500,13624,4,PG,1,100,12573
1570470278.278059,81168.000,13624,4,PG,1,100,12504
1570470278.319541,81200.500,13624,4,PG,1,100,12405
1570470278.361024,81233.000,13624,4,PG,1,100,12380
1570470278.399741,81263.333,13642,3,PG,1,100,12325
1570470278.438458,81293.667,13642,3,PG,1,100,12275
1570470278.477175,81324.000,13642,3,PG,1,100,12298
1570470278.516742,81355.000,13663,5,PG,1,100,12268
1570470278.556310,81386.000,13663,5,PG,1,100,12261
1570470278.595878,81417.000,13663,5,PG,1,100,12245
1570470278.635446,81448.000,13663,5,PG,1,100,12227
1570470278.675014,81479.000,13663,5,PG,1,100,12255
1570470278.712880,81508.667,13683,3,PG,1,100,12262
1570470278.750746,81538.333,13683,3,PG,1,100,12279
1570470278.788612,81568.000,13683,3,PG,1,100,12283
1570470278.827754,81598.667,13701,3,PG,1,100,12269
1570470278.866896,81629.333,13701,3,PG,1,100,12305
1570470278.906039,81660.000,13701,3,PG,1,100,12337
1570470278.947840,81692.750,13720,4,PG,1,100,12349
1570470278.989642,81725.500,13720,4,PG,1,100,12371
1570470279.031443,81758.250,13720,4,PG,1,100,12368
1570470279.073245,81791.000,13720,4,PG,1,100,12401
1570470279.111962,81821.333,13738,3,PG,1,100,12434
1570470279.150679,81851.667,13738,3,PG,1,100,12435
1570470279.189395,81882.000,13738,3,PG,1,100,12470
1570470279.229389,81913.333,13756,3,PG,1,100,12492
1570470279.269382,81944.667,13756,3,PG,1,100,12506
1570470279.309375,81976.000,13756,3,PG,1,100,12512
1570470279.353198,82010.333,13774,3,PG,1,100,12412
1570470279.397020,82044.667,13774,3,PG,1,100,12366
1570470279.440843,82079.000,13774,3,PG,1,100,12325
1570470279.477858,82108.000,13791,4,PG,1,100,12282
1570470279.514873,82137.000,13791,4,PG,1,100,12294
1570470279.551888,82166.000,13791,4,PG,1,100,12265
1570470279.588903,82195.000,13791,4,PG,1,100,12282
1570470279.628471,82226.000,13809,3,PG,1,100,12305
1570470279.668039,82257.000,13809,3,PG,1,100,12239
1570470279.707606,82288.000,13809,3,PG,1,100,12264
1570470279.751854,82322.667,13827,3,PG,1,100,12252
1570470279.796102,82357.333,13827,3,PG,1,100,12282
1570470279.840350,82392.000,13827,3,PG,1,100,12304
1570470279.879067,82422.333,13845,3,PG,1,100,12295
1570470279.917784,82452.667,13845,3,PG,1,100,12335
1570470279.956501,82483.000,13845,3,PG,1,100,12326
1570470279.994792,82513.000,13864,4,PG,1,100,12359
1570470280.033084,82543.000,13864,4,PG,1,100,12386
1570470280.071375,82573.000,13864,4,PG,1,100,12383
1570470280.109667,82603.000,13864,4,PG,1,100,12424
1570470280.154340,82638.000,13882,3,PG,1,100,12425
1570470280.199013,82673.000,13882,3,PG,1,100,12462
1570470280.243687,82708.000,13882,3,PG,1,100,12485
1570470280.282829,82738.667,13900,3,PG,1,100,12483
1570470280.321971,82769.333,13900,3,PG,1,100,12504
1570470280.361114,82800.000,13900,3,PG,1,100,12465
1570470280.400256,82830.667,13916,3,PG,1,100,12391
1570470280.439399,82861.333,13916,3,PG,1,100,12344
1570470280.478541,82892.000,13916,3,PG,1,100,12308
1570470280.517258,82922.333,13934,3,PG,1,100,12302
1570470280.555975,82952.667,13934,3,PG,1,100,12292
1570470280.594692,82983.000,13934,3,PG,1,100,12303
1570470280.633834,83013.667,13952,3,PG,1,100,12300
1570470280.672976,83044.333,13952,3,PG,1,100,12273
1570470280.712119,83075.000,13952,3,PG,1,100,12278
1570470280.753920,83107.750,13970,4,PG,1,100,12302
1570470280.795722,83140.500,13970,4,PG,1,100,12314
1570470280.837523,83173.250,13970,4,PG,1,100,12315
1570470280.879325,83206.000,13970,4,PG,1,100,12332
1570470280.918041,83236.333,13988,3,PG,1,100,12337
1570470280.956758,83266.667,13988,3,PG,1,100,12372
1570470280.995475,83297.000,13988,3,PG,1,100,12380
1570470281.034618,83327.667,14007,3,PG,1,100,12374
1570470281.073760,83358.333,14007,3,PG,1,100,12393
1570470281.112902,83389.000,14007,3,PG,1,100,12388
1570470281.158001,83424.333,14025,3,PG,1,100,12451
1570470281.203100,83459.667,14025,3,PG,1,100,12475
1570470281.248199,83495.000,14025,3,PG,1,100,12478
1570470281.284895,83523.750,14043,4,PG,1,100,12519
1570470281.321591,83552.500,14043,4,PG,1,100,12515
1570470281.358287,83581.250,14043,4,PG,1,100,12538
1570470281.394983,83610.000,14043,4,PG,1,100,12466
1570470281.433700,83640.333,14061,3,PG,1,100,12378
1570470281.472417,83670.667,14061,3,PG,1,100,12348
1570470281.511133,83701.000,14061,3,PG,1,100,12310
1570470281.555381,83735.667,14079,3,PG,1,100,12320
1570470281.599629,83770.333,14079,3,PG,1,100,12322
1570470281.643877,83805.000,14079,3,PG,1,100,12285
1570470281.680573,83833.750,14097,4,PG,1,100,12285
1570470281.717269,83862.500,14097,4,PG,1,100,12258
1570470281.753965,83891.250,14097,4,PG,1,100,12278
1570470281.790661,83920.000,14097,4,PG,1,100,12292
1570470281.829378,83950.333,14115,3,PG,1,100,12282
1570470281.868095,83980.667,14115,3,PG,1,100,12297
1570470281.906812,84011.000,14115,3,PG,1,100,12296
1570470281.951485,84046.000,14134,3,PG,1,100,12321
1570470281.996158,84081.000,14134,3,PG,1,100,12363
1570470282.040832,84116.000,14134,3,PG,1,100,12337
1570470282.079549,84146.333,14152,3,PG,1,100,12371
1570470282.118266,84176.667,14152,3,PG,1,100,12372
1570470282.156982,84207.000,14152,3,PG,1,100,12401
1570470282.196125,84237.667,14170,3,PG,1,100,12434
1570470282.235267,84268.333,14170,3,PG,1,100,12426
1570470282.274410,84299.000,14170,3,PG,1,100,12452
1570470282.313127,84329.333,14188,3,PG,1,100,12461
1570470282.351843,84359.667,14188,3,PG,1,100,12413
1570470282.390560,84390.000,14188,3,PG,1,100,12369
1570470282.432362,84422.750,14206,4,PG,1,100,12275
1570470282.474163,84455.500,14206,4,PG,1,100,12245
1570470282.515965,84488.250,14206,4,PG,1,100,12222
1570470282.557766,84521.000,14206,4,PG,1,100,12196
1570470282.596483,84551.333,14224,3,PG,1,100,12212
1570470282.635200,84581.667,14224,3,PG,1,100,12173
1570470282.673917,84612.000,14224,3,PG,1,100,12155
1570470282.712209,84642.000,14242,3,PG,1,100,12174
1570470282.750500,84672.000,14242,3,PG,1,100,12148
1570470282.788791,84702.000,14242,3,PG,1,100,12192
1570470282.828359,84733.000,14260,3,PG,1,100,12169
1570470282.867927,84764.000,14260,3,PG,1,100,12191
1570470282.907495,84795.000,14260,3,PG,1,100,12220
1570470282.949296,84827.750,14279,4,PG,1,100,12216
1570470282.991098,84860.500,14279,4,PG,1,100,12238
1570470283.032899,84893.250,14279,4,PG,1,100,12247
1570470283.074701,84926.000,14279,4,PG,1,100,12270
1570470283.113418,84956.333,14297,3,PG,1,100,12300
1570470283.152135,84986.667,14297,3,PG,1,100,12299
1570470283.190851,85017.000,14297,3,PG,1,100,12329
1570470283.230845,85048.333,14315,3,PG,1,100,12344
1570470283.270838,85079.667,14315,3,PG,1,100,12368
1570470283.310831,85111.000,14315,3,PG,1,100,12354
1570470283.355505,85146.000,14332,3,PG,1,100,12255
1570470283.400178,85181.000,14332,3,PG,1,100,12166
1570470283.444851,85216.000,14332,3,PG,1,100,12129
1570470283.481867,85245.000,14350,4,PG,1,100,12096
1570470283.518882,85274.000,14350,4,PG,1,100,12078
1570470283.555897,85303.000,14350,4,PG,1,100,12070
1570470283.592912,85332.000,14350,4,PG,1,100,12042
1570470283.632054,85362.667,14368,3,PG,1,100,12039
1570470283.671196,85393.333,14368,3,PG,1,100,12026
1570470283.710339,85424.000,14368,3,PG,1,100,12033
1570470283.755438,85459.333,14386,3,PG,1,100,12019
1570470283.800536,85494.667,14386,3,PG,1,100,12001
1570470283.845635,85530.000,14386,3,PG,1,100,12019
1570470283.883927,85560.000,14404,3,PG,1,100,12019
1570470283.922218,85590.000,14404,3,PG,1,100,12049
1570470283.960510,85620.000,14404,3,PG,1,100,12049
1570470283.998163,85649.500,14423,4,PG,1,100,12061
1570470284.035816,85679.000,14423,4,PG,1,100,12105
1570470284.073469,85708.500,14423,4,PG,1,100,12113
1570470284.111123,85738.000,14423,4,PG,1,100,12149
1570470284.152605,85770.500,14441,2,PG,1,100,12162
1570470284.194088,85803.000,14441,2,PG,1,100,12182
1570470284.235889,85835.750,14457,4,PG,1,100,12214
1570470284.277690,85868.500,14457,4,PG,1,100,12219
1570470284.319492,85901.250,14457,4,PG,1,100,12216
1570470284.361293,85934.000,14457,4,PG,1,100,12145
1570470284.400436,85964.667,14475,3,PG,1,100,12057
1570470284.439578,85995.333,14475,3,PG,1,100,12017
1570470284.478720,86026.000,14475,3,PG,1,100,11978
1570470284.516161,86055.333,14493,3,PG,1,100,11943
1570470284.553602,86084.667,14493,3,PG,1,100,11919
1570470284.591042,86114.000,14493,3,PG,1,100,11929
1570470284.629759,86144.333,14511,3,PG,1,100,11920
1570470284.668476,86174.667,14511,3,PG,1,100,11909
1570470284.707193,86205.000,14511,3,PG,1,100,11907
1570470284.748675,86237.500,14529,4,PG,1,100,11909
1570470284.790158,86270.000,14529,4,PG,1,100,11925
1570470284.831640,86302.500,14529,4,PG,1,100,11942
1570470284.873122,86335.000,14529,4,PG,1,100,11957
1570470284.910988,86364.667,14547,3,PG,1,100,11964
1570470284.948854,86394.333,14547,3,PG,1,100,11973
1570470284.986720,86424.000,14547,3,PG,1,100,11991
1570470285.026799,86455.400,14569,5,PG,1,100,12011
1570470285.066877,86486.800,14569,5,PG,1,100,12033
1570470285.106956,86518.200,14569,5,PG,1,100,12055
1570470285.147034,86549.600,14569,5,PG,1,100,12063
1570470285.187112,86581.000,14569,5,PG,1,100,12093
1570470285.226255,86611.667,14589,3,PG,1,100,12103
1570470285.265397,86642.333,14589,3,PG,1,100,12132
1570470285.304539,86673.000,14589,3,PG,1,100,12093
1570470285.346341,86705.750,14607,4,PG,1,100,12025
1570470285.388142,86738.500,14607,4,PG,1,100,11964
1570470285.429944,86771.250,14607,4,PG,1,100,11920
1570470285.471745,86804.000,14607,4,PG,1,100,11903
1570470285.510037,86834.000,14625,3,PG,1,100,11878
1570470285.548328,86864.000,14625,3,PG,1,100,11856
1570470285.586620,86894.000,14625,3,PG,1,100,11858
1570470285.626188,86925.000,14643,3,PG,1,100,11845
1570470285.665755,86956.000,14643,3,PG,1,100,11854
1570470285.705323,86987.000,14643,3,PG,1,100,11853
1570470285.749146,87021.333,14660,3,PG,1,100,11865
1570470285.792968,87055.667,14660,3,PG,1,100,11906
1570470285.836791,87090.000,14660,3,PG,1,100,11895
1570470285.873806,87119.000,14678,4,PG,1,100,11923
1570470285.910820,87148.000,14678,4,PG,1,100,11947
1570470285.947836,87177.000,14678,4,PG,1,100,11957
1570470285.984851,87206.000,14678,4,PG,1,100,11987
1570470286.024419,87237.000,14697,3,PG,1,100,11995
1570470286.063986,87268.000,14697,3,PG,1,100,12025
1570470286.103554,87299.000,14697,3,PG,1,100,12051
1570470286.148227,87334.000,14715,3,PG,1,100,12075
1570470286.192901,87369.000,14715,3,PG,1,100,12110
1570470286.237574,87404.000,14715,3,PG,1,100,12112
1570470286.276291,87434.333,14733,3,PG,1,100,12141
1570470286.315008,87464.667,14733,3,PG,1,100,12159
1570470286.353725,87495.000,14733,3,PG,1,100,12127
1570470286.392016,87525.000,14751,4,PG,1,100,12083
1570470286.430308,87555.000,14751,4,PG,1,100,12026
1570470286.468599,87585.000,14751,4,PG,1,100,12009
1570470286.506891,87615.000,14751,4,PG,1,100,12009
1570470286.547735,87647.000,14769,2,PG,1,100,11991
1570470286.588579,87679.000,14769,2,PG,1,100,12006
1570470286.630381,87711.750,14785,4,PG,1,100,11999
1570470286.672182,87744.500,14785,4,PG,1,100,12006
1570470286.713984,87777.250,14785,4,PG,1,100,12018
1570470286.755785,87810.000,14785,4,PG,1,100,12018
1570470286.794928,87840.667,14803,3,PG,1,100,12049
1570470286.834070,87871.333,14803,3,PG,1,100,12046
1570470286.873212,87902.000,14803,3,PG,1,100,12070
1570470286.911929,87932.333,14821,3,PG,1,100,12092
1570470286.950646,87962.667,14821,3,PG,1,100,12095
1570470286.989363,87993.000,14821,3,PG,1,100,12129
1570470287.028505,88023.667,14840,3,PG,1,100,12153
1570470287.067648,88054.333,14840,3,PG,1,100,12162
1570470287.106790,88085.000,14840,3,PG,1,100,12189
1570470287.148592,88117.750,14858,4,PG,1,100,12207
1570470287.190393,88150.500,14858,4,PG,1,100,12238
1570470287.232195,88183.250,14858,4,PG,1,100,12270
1570470287.273996,88216.000,14858,4,PG,1,100,12270
1570470287.312713,88246.333,14876,3,PG,1,100,12317
1570470287.351430,88276.667,14876,3,PG,1,100,12299
1570470287.390147,88307.000,14876,3,PG,1,100,12259
1570470287.429289,88337.667,14894,3,PG,1,100,12235
1570470287.468431,88368.333,14894,3,PG,1,100,12203
1570470287.507574,88399.000,14894,3,PG,1,100,12194
1570470287.552247,88434.000,14912,3,PG,1,100,12195
1570470287.596920,88469.000,14912,3,PG,1,100,12188
1570470287.641594,88504.000,14912,3,PG,1,100,12206
1570470287.678290,88532.750,14930,4,PG,1,100,12203
1570470287.714986,88561.500,14930,4,PG,1,100,12203
1570470287.751682,88590.250,14930,4,PG,1,100,12219
1570470287.788378,88619.000,14930,4,PG,1,100,12213
1570470287.827095,88649.333,14948,3,PG,1,100,12251
1570470287.865812,88679.667,14948,3,PG,1,100,12272
1570470287.904529,88710.000,14948,3,PG,1,100,12284
1570470287.948776,88744.667,14966,3,PG,1,100,12304
1570470287.993024,88779.333,14966,3,PG,1,100,12301
1570470288.037272,88814.000,14966,3,PG,1,100,12349
1570470288.075564,88844.000,14985,3,PG,1,100,12369
1570470288.113855,88874.000,14985,3,PG,1,100,12374
1570470288.152147,88904.000,14985,3,PG,1,100,12406
1570470288.189800,88933.500,15003,4,PG,1,100,12406
1570470288.227453,88963.000,15003,4,PG,1,100,12443
1570470288.265106,88992.500,15003,4,PG,1,100,12482
1570470288.302760,89022.000,15003,4,PG,1,100,12474
1570470288.347433,89057.000,15021,3,PG,1,100,12505
1570470288.392106,89092.000,15021,3,PG,1,100,12502
1570470288.436779,89127.000,15021,3,PG,1,100,12486
1570470288.475497,89157.333,15039,3,PG,1,100,12491
1570470288.514213,89187.667,15039,3,PG,1,100,12446
1570470288.552930,89218.000,15039,3,PG,1,100,12465
1570470288.592073,89248.667,15057,3,PG,1,100,12471
1570470288.631215,89279.333,15057,3,PG,1,100,12477
1570470288.670357,89310.000,15057,3,PG,1,100,12515
1570470288.708649,89340.000,15075,3,PG,1,100,12498
1570470288.746940,89370.000,15075,3,PG,1,100,12511
1570470288.785232,89400.000,15075,3,PG,1,100,12517
1570470288.827033,89432.750,15093,4,PG,1,100,12529
1570470288.868835,89465.500,15093,4,PG,1,100,12574
1570470288.910636,89498.250,15093,4,PG,1,100,12558
1570470288.952438,89531.000,15093,4,PG,1,100,12596
1570470288.991155,89561.333,15111,3,PG,1,100,12628
1570470289.029871,89591.667,15111,3,PG,1,100,12615
1570470289.068588,89622.000,15111,3,PG,1,100,12665
1570470289.106880,89652.000,15130,3,PG,1,100,12647
1570470289.145171,89682.000,15130,3,PG,1,100,12672
1570470289.183463,89712.000,15130,3,PG,1,100,12701
1570470289.223456,89743.333,15148,3,PG,1,100,12699
1570470289.263449,89774.667,15148,3,PG,1,100,12744
1570470289.303443,89806.000,15148,3,PG,1,100,12732
1570470289.345244,89838.750,15166,4,PG,1,100,12753
1570470289.387046,89871.500,15166,4,PG,1,100,12772
1570470289.428847,89904.250,15166,4,PG,1,100,12734
1570470289.470649,89937.000,15166,4,PG,1,100,12744
1570470289.509366,89967.333,15184,3,PG,1,100,12720
1570470289.548082,89997.667,15184,3,PG,1,100,12736
1570470289.586799,90028.000,15184,3,PG,1,100,12775
1570470289.626367,90059.000,15202,3,PG,1,100,12752
1570470289.665935,90090.000,15202,3,PG,1,100,12778
1570470289.705503,90121.000,15202,3,PG,1,100,12762
1570470289.750602,90156.333,15219,3,PG,1,100,12781
1570470289.795701,90191.667,15219,3,PG,1,100,12806
1570470289.840799,90227.000,15219,3,PG,1,100,12798
1570470289.879091,90257.000,15237,3,PG,1,100,12843
1570470289.917382,90287.000,15237,3,PG,1,100,12828
1570470289.955674,90317.000,15237,3,PG,1,100,12851
1570470289.993327,90346.500,15255,4,PG,1,100,12882
1570470290.030980,90376.000,15255,4,PG,1,100,12866
1570470290.068633,90405.500,15255,4,PG,1,100,12891
1570470290.106287,90435.000,15255,4,PG,1,100,12892
1570470290.151386,90470.333,15274,3,PG,1,100,12923
1570470290.196484,90505.667,15274,3,PG,1,100,12947
1570470290.241583,90541.000,15274,3,PG,1,100,12937
1570470290.279875,90571.000,15292,3,PG,1,100,12971
1570470290.318166,90601.000,15292,3,PG,1,100,12961
1570470290.356457,90631.000,15292,3,PG,1,100,12981
1570470290.395600,90661.667,15310,3,PG,1,100,12970
1570470290.434742,90692.333,15310,3,PG,1,100,12935
1570470290.473885,90723.000,15310,3,PG,1,100,12931
1570470290.512601,90753.333,15326,3,PG,1,100,12937
1570470290.551318,90783.667,15326,3,PG,1,100,12964
1570470290.590035,90814.000,15326,3,PG,1,100,12965
1570470290.631837,90846.750,15344,4,PG,1,100,12967
1570470290.673638,90879.500,15344,4,PG,1,100,12967
1570470290.715440,90912.250,15344,4,PG,1,100,12978
1570470290.757241,90945.000,15344,4,PG,1,100,13000
1570470290.795958,90975.333,15362,3,PG,1,100,13006
1570470290.834675,91005.667,15362,3,PG,1,100,13012
1570470290.873392,91036.000,15362,3,PG,1,100,13027
1570470290.911258,91065.667,15380,3,PG,1,100,13029
1570470290.949124,91095.333,15380,3,PG,1,100,13057
1570470290.986990,91125.000,15380,3,PG,1,100,13034
1570470291.025707,91155.333,15398,3,PG,1,100,13058
1570470291.064424,91185.667,15398,3,PG,1,100,13084
1570470291.103141,91216.000,15398,3,PG,1,100,13086
1570470291.144623,91248.500,15417,4,PG,1,100,13112
1570470291.186105,91281.000,15417,4,PG,1,100,13089
1570470291.227588,91313.500,15417,4,PG,1,100,13103
1570470291.269070,91346.000,15417,4,PG,1,100,13078
1570470291.307787,91376.333,15435,3,PG,1,100,13067
1570470291.346504,91406.667,15435,3,PG,1,100,13090
1570470291.385221,91437.000,15435,3,PG,1,100,13060
1570470291.424363,91467.667,15453,3,PG,1,100,13074
1570470291.463506,91498.333,15453,3,PG,1,100,13069
1570470291.502648,91529.000,15453,3,PG,1,100,13087
1570470291.542727,91560.400,15474,5,PG,1,100,13112
1570470291.582805,91591.800,15474,5,PG,1,100,13082
1570470291.622883,91623.200,15474,5,PG,1,100,13103
1570470291.662961,91654.600,15474,5,PG,1,100,13112
1570470291.703040,91686.000,15474,5,PG,1,100,13120
1570470291.747713,91721.000,15494,3,PG,1,100,13141
1570470291.792387,91756.000,15494,3,PG,1,100,13127
1570470291.837060,91791.000,15494,3,PG,1,100,13143
1570470291.873756,91819.750,15511,4,PG,1,100,13141
1570470291.910452,91848.500,15511,4,PG,1,100,13162
1570470291.947148,91877.250,15511,4,PG,1,100,13182
1570470291.983844,91906.000,15511,4,PG,1,100,13176
1570470292.023412,91937.000,15529,3,PG,1,100,13186
1570470292.062979,91968.000,15529,3,PG,1,100,13176
1570470292.102547,91999.000,15529,3,PG,1,100,13153
1570470292.146370,92033.333,15548,3,PG,1,100,13141
1570470292.190192,92067.667,15548,3,PG,1,100,13113
1570470292.234015,92102.000,15548,3,PG,1,100,13108
1570470292.272732,92132.333,15566,3,PG,1,100,13095
1570470292.311449,92162.667,15566,3,PG,1,100,13101
1570470292.350165,92193.000,15566,3,PG,1,100,13111
1570470292.388457,92223.000,15584,4,PG,1,100,13096
1570470292.426748,92253.000,15584,4,PG,1,100,13102
1570470292.465040,92283.000,15584,4,PG,1,100,13113
1570470292.503331,92313.000,15584,4,PG,1,100,13108
1570470292.548005,92348.000,15602,3,PG,1,100,13118
1570470292.592678,92383.000,15602,3,PG,1,100,13118
1570470292.637351,92418.000,15602,3,PG,1,100,13129
1570470292.676068,92448.333,15620,3,PG,1,100,13139
1570470292.714785,92478.667,15620,3,PG,1,100,13147
1570470292.753502,92509.000,15620,3,PG,1,100,13142
1570470292.793070,92540.000,15638,3,PG,1,100,13144
1570470292.832638,92571.000,15638,3,PG,1,100,13154
1570470292.872205,92602.000,15638,3,PG,1,100,13170
1570470292.910922,92632.333,15654,3,PG,1,100,13173
1570470292.949639,92662.667,15654,3,PG,1,100,13146
1570470292.988356,92693.000,15654,3,PG,1,100,13101
1570470293.030158,92725.750,15672,4,PG,1,100,13067
1570470293.071959,92758.500,15672,4,PG,1,100,13068
1570470293.113761,92791.250,15672,4,PG,1,100,13050
1570470293.155562,92824.000,15672,4,PG,1,100,13033
1570470293.194705,92854.667,15691,3,PG,1,100,13006
1570470293.233847,92885.333,15691,3,PG,1,100,13003
1570470293.272989,92916.000,15691,3,PG,1,100,12999
1570470293.311706,92946.333,15709,3,PG,1,100,12991
1570470293.350423,92976.667,15709,3,PG,1,100,12991
1570470293.389140,93007.000,15709,3,PG,1,100,12994
1570470293.428282,93037.667,15727,3,PG,1,100,12990
1570470293.467425,93068.333,15727,3,PG,1,100,13020
1570470293.506567,93099.000,15727,3,PG,1,100,13016
1570470293.545284,93129.333,15745,3,PG,1,100,12999
1570470293.584001,93159.667,15745,3,PG,1,100,13026
1570470293.622718,93190.000,15745,3,PG,1,100,13009
1570470293.664519,93222.750,15763,4,PG,1,100,13042
1570470293.706321,93255.500,15763,4,PG,1,100,13023
1570470293.748122,93288.250,15763,4,PG,1,100,13030
1570470293.789924,93321.000,15763,4,PG,1,100,13049
1570470293.829066,93351.667,15781,3,PG,1,100,13045
1570470293.868208,93382.333,15781,3,PG,1,100,13049
1570470293.907351,93413.000,15781,3,PG,1,100,12961
1570470293.945642,93443.000,15799,3,PG,1,100,12910
1570470293.983934,93473.000,15799,3,PG,1,100,12901
1570470294.022225,93503.000,15799,3,PG,1,100,12879
1570470294.063389,93535.250,15817,4,PG,1,100,12889
1570470294.104552,93567.500,15817,4,PG,1,100,12855
1570470294.145715,93599.750,15817,4,PG,1,100,12833
1570470294.186878,93632.000,15817,4,PG,1,100,12825
1570470294.225595,93662.333,15836,3,PG,1,100,12828
1570470294.264312,93692.667,15836,3,PG,1,100,12826
1570470294.303029,93723.000,15836,3,PG,1,100,12822
1570470294.341321,93753.000,15854,3,PG,1,100,12818
1570470294.379612,93783.000,15854,3,PG,1,100,12821
1570470294.417903,93813.000,15854,3,PG,1,100,12848
1570470294.463002,93848.333,15872,3,PG,1,100,12836
1570470294.508101,93883.667,15872,3,PG,1,100,12850
1570470294.553200,93919.000,15872,3,PG,1,100,12861
1570470294.592768,93950.000,15890,3,PG,1,100,12866
1570470294.632336,93981.000,15890,3,PG,1,100,12890
1570470294.671903,94012.000,15890,3,PG,1,100,12862
1570470294.709238,94041.250,15908,4,PG,1,100,12896
1570470294.746572,94070.500,15908,4,PG,1,100,12901
1570470294.783906,94099.750,15908,4,PG,1,100,12909
1570470294.821240,94129.000,15908,4,PG,1,100,12947
1570470294.865913,94164.000,15926,3,PG,1,100,12887
1570470294.910587,94199.000,15926,3,PG,1,100,12873
1570470294.955260,94234.000,15926,3,PG,1,100,12837
1570470294.993977,94264.333,15944,3,PG,1,100,12787
1570470295.032694,94294.667,15944,3,PG,1,100,12798
1570470295.071411,94325.000,15944,3,PG,1,100,12732
1570470295.109702,94355.000,15962,3,PG,1,100,12766
1570470295.147994,94385.000,15962,3,PG,1,100,12764
1570470295.186285,94415.000,15962,3,PG,1,100,12726
1570470295.225853,94446.000,15981,3,PG,1,100,12770
1570470295.265421,94477.000,15981,3,PG,1,100,12702
1570470295.304989,94508.000,15981,3,PG,1,100,12735
1570470295.346471,94540.500,15999,4,PG,1,100,12747
1570470295.387954,94573.000,15999,4,PG,1,100,12732
1570470295.429436,94605.500,15999,4,PG,1,100,12781
1570470295.470918,94638.000,15999,4,PG,1,100,12736
1570470295.509635,94668.333,16017,3,PG,1,100,12761
1570470295.548352,94698.667,16017,3,PG,1,100,12777
1570470295.587069,94729.000,16017,3,PG,1,100,12767
1570470295.627062,94760.333,16035,3,PG,1,100,12818
1570470295.667056,94791.667,16035,3,PG,1,100,12799
1570470295.707049,94823.000,16035,3,PG,1,100,12811
1570470295.745766,94853.333,16052,3,PG,1,100,12830
1570470295.784483,94883.667,16052,3,PG,1,100,12824
1570470295.823200,94914.000,16052,3,PG,1,100,12862
1570470295.865001,94946.750,16070,4,PG,1,100,12841
1570470295.906802,94979.500,16070,4,PG,1,100,12801
1570470295.948604,95012.250,16070,4,PG,1,100,12768
1570470295.990406,95045.000,16070,4,PG,1,100,12717
1570470296.029122,95075.333,16088,3,PG,1,100,12715
1570470296.067839,95105.667,16088,3,PG,1,100,12693
1570470296.106556,95136.000,16088,3,PG,1,100,12675
1570470296.145273,95166.333,16106,3,PG,1,100,12685
1570470296.183990,95196.667,16106,3,PG,1,100,12658
1570470296.222707,95227.000,16106,3,PG,1,100,12664
1570470296.266955,95261.667,16125,3,PG,1,100,12672
1570470296.311203,95296.333,16125,3,PG,1,100,12659
1570470296.355451,95331.000,16125,3,PG,1,100,12685
1570470296.392785,95360.250,16143,4,PG,1,100,12662
1570470296.430119,95389.500,16143,4,PG,1,100,12661
1570470296.467453,95418.750,16143,4,PG,1,100,12699
1570470296.504787,95448.000,16143,4,PG,1,100,12694
1570470296.543504,95478.333,16161,3,PG,1,100,12719
1570470296.582221,95508.667,16161,3,PG,1,100,12718
1570470296.620938,95539.000,16161,3,PG,1,100,12703
1570470296.665611,95574.000,16179,3,PG,1,100,12753
1570470296.710285,95609.000,16179,3,PG,1,100,12754
1570470296.754958,95644.000,16179,3,PG,1,100,12764
1570470296.794100,95674.667,16195,3,PG,1,100,12785
1570470296.833243,95705.333,16195,3,PG,1,100,12771
1570470296.872385,95736.000,16195,3,PG,1,100,12791
1570470296.909400,95765.000,16213,4,PG,1,100,12742
1570470296.946415,95794.000,16213,4,PG,1,100,12699
1570470296.983430,95823.000,16213,4,PG,1,100,12668
1570470297.020445,95852.000,16213,4,PG,1,100,12634
1570470297.061928,95884.500,16231,2,PG,1,100,12644
1570470297.103410,95917.000,16231,2,PG,1,100,12638
1570470297.144893,95949.500,16249,4,PG,1,100,12622
1570470297.186375,95982.000,16249,4,PG,1,100,12632
1570470297.227857,96014.500,16249,4,PG,1,100,12630
1570470297.269340,96047.000,16249,4,PG,1,100,12620
1570470297.307206,96076.667,16268,3,PG,1,100,12638
1570470297.345072,96106.333,16268,3,PG,1,100,12631
1570470297.382938,96136.000,16268,3,PG,1,100,12664
1570470297.421655,96166.333,16286,3,PG,1,100,12672
1570470297.460371,96196.667,16286,3,PG,1,100,12657
1570470297.499089,96227.000,16286,3,PG,1,100,12695
1570470297.541209,96260.000,16304,4,PG,1,100,12683
1570470297.583330,96293.000,16304,4,PG,1,100,12716
1570470297.625450,96326.000,16304,4,PG,1,100,12758
1570470297.667571,96359.000,16304,4,PG,1,100,12724
1570470297.706288,96389.333,16322,3,PG,1,100,12760
1570470297.745005,96419.667,16322,3,PG,1,100,12749
1570470297.783721,96450.000,16322,3,PG,1,100,12786
1570470297.823289,96481.000,16340,3,PG,1,100,12805
1570470297.862857,96512.000,16340,3,PG,1,100,12739
1570470297.902425,96543.000,16340,3,PG,1,100,12717
1570470297.941142,96573.333,16358,3,PG,1,100,12683
1570470297.979859,96603.667,16358,3,PG,1,100,12683
1570470298.018576,96634.000,16358,3,PG,1,100,12681
1570470298.058399,96665.200,16379,5,PG,1,100,12662
1570470298.098222,96696.400,16379,5,PG,1,100,12674
1570470298.138045,96727.600,16379,5,PG,1,100,12656
1570470298.177868,96758.800,16379,5,PG,1,100,12683
1570470298.217691,96790.000,16379,5,PG,1,100,12675
1570470298.259174,96822.500,16400,4,PG,1,100,12669
1570470298.300656,96855.000,16400,4,PG,1,100,12687
1570470298.342139,96887.500,16400,4,PG,1,100,12700
1570470298.383621,96920.000,16400,4,PG,1,100,12717
1570470298.423189,96951.000,16418,3,PG,1,100,12729
1570470298.462756,96982.000,16418,3,PG,1,100,12726
1570470298.502324,97013.000,16418,3,PG,1,100,12749
1570470298.541041,97043.333,16436,3,PG,1,100,12771
1570470298.579758,97073.667,16436,3,PG,1,100,12781
1570470298.618475,97104.000,16436,3,PG,1,100,12789
1570470298.663148,97139.000,16454,3,PG,1,100,12791
1570470298.707822,97174.000,16454,3,PG,1,100,12819
1570470298.752495,97209.000,16454,3,PG,1,100,12844
1570470298.792063,97240.000,16472,3,PG,1,100,12841
1570470298.831631,97271.000,16472,3,PG,1,100,12787
1570470298.871199,97302.000,16472,3,PG,1,100,12765
1570470298.908852,97331.500,16490,4,PG,1,100,12749
1570470298.946505,97361.000,16490,4,PG,1,100,12761
1570470298.984158,97390.500,16490,4,PG,1,100,12748
1570470299.021812,97420.000,16490,4,PG,1,100,12736
1570470299.066485,97455.000,16506,3,PG,1,100,12749
1570470299.111158,97490.000,16506,3,PG,1,100,12734
1570470299.155832,97525.000,16506,3,PG,1,100,12759
1570470299.194549,97555.333,16524,3,PG,1,100,12756
1570470299.233265,97585.667,16524,3,PG,1,100,12744
1570470299.271982,97616.000,16524,3,PG,1,100,12775
1570470299.310699,97646.333,16543,3,PG,1,100,12776
1570470299.349416,97676.667,16543,3,PG,1,100,12798
1570470299.388133,97707.000,16543,3,PG,1,100,12818
1570470299.426850,97737.333,16561,3,PG,1,100,12803
1570470299.465567,97767.667,16561,3,PG,1,100,12826
1570470299.504284,97798.000,16561,3,PG,1,100,12839
1570470299.546085,97830.750,16579,4,PG,1,100,12848
1570470299.587887,97863.500,16579,4,PG,1,100,12889
1570470299.629688,97896.250,16579,4,PG,1,100,12854
1570470299.671490,97929.000,16579,4,PG,1,100,12897
1570470299.710207,97959.333,16597,3,PG,1,100,12916
1570470299.748924,97989.667,16597,3,PG,1,100,12895
1570470299.787641,98020.000,16597,3,PG,1,100,12883
1570470299.826783,98050.667,16615,3,PG,1,100,12837
1570470299.865925,98081.333,16615,3,PG,1,100,12844
1570470299.905068,98112.000,16615,3,PG,1,100,12862
1570470299.943784,98142.333,16633,3,PG,1,100,12833
1570470299.982502,98172.667,16633,3,PG,1,100,12867
1570470300.021218,98203.000,16633,3,PG,1,100,12850
1570470300.062382,98235.250,16651,4,PG,1,100,12854
1570470300.103545,98267.500,16651,4,PG,1,100,12890
1570470300.144708,98299.750,16651,4,PG,1,100,12854
1570470300.185872,98332.000,16651,4,PG,1,100,12885
1570470300.224588,98362.333,16669,3,PG,1,100,12887
1570470300.263305,98392.667,16669,3,PG,1,100,12904
1570470300.302022,98423.000,16669,3,PG,1,100,12964
1570470300.340314,98453.000,16688,3,PG,1,100,12918
1570470300.378605,98483.000,16688,3,PG,1,100,12964
1570470300.416897,98513.000,16688,3,PG,1,100,12945
1570470300.461144,98547.667,16706,3,PG,1,100,12960
1570470300.505392,98582.333,16706,3,PG,1,100,13018
1570470300.549640,98617.000,16706,3,PG,1,100,12995
1570470300.586974,98646.250,16724,4,PG,1,100,13000
1570470300.624309,98675.500,16724,4,PG,1,100,12991
1570470300.661643,98704.750,16724,4,PG,1,100,12970
1570470300.698977,98734.000,16724,4,PG,1,100,12983
1570470300.737694,98764.333,16742,3,PG,1,100,12968
1570470300.776411,98794.667,16742,3,PG,1,100,12943
1570470300.815128,98825.000,16742,3,PG,1,100,12959
1570470300.860226,98860.333,16760,3,PG,1,100,12965
1570470300.905325,98895.667,16760,3,PG,1,100,12992
1570470300.950424,98931.000,16760,3,PG,1,100,12981
1570470300.989992,98962.000,16778,3,PG,1,100,12977
1570470301.029560,98993.000,16778,3,PG,1,100,12985
1570470301.069128,99024.000,16778,3,PG,1,100,12987
1570470301.106143,99053.000,16796,4,PG,1,100,13024
1570470301.143158,99082.000,16796,4,PG,1,100,13018
1570470301.180173,99111.000,16796,4,PG,1,100,13028
1570470301.217188,99140.000,16796,4,PG,1,100,13051
1570470301.261861,99175.000,16815,3,PG,1,100,13044
1570470301.306535,99210.000,16815,3,PG,1,100,13061
1570470301.351208,99245.000,16815,3,PG,1,100,13063
1570470301.389925,99275.333,16833,3,PG,1,100,13072
1570470301.428642,99305.667,16833,3,PG,1,100,13090
1570470301.467359,99336.000,16833,3,PG,1,100,13058
1570470301.505650,99366.000,16851,3,PG,1,100,13024
1570470301.543941,99396.000,16851,3,PG,1,100,13016
1570470301.582233,99426.000,16851,3,PG,1,100,13004
1570470301.621801,99457.000,16869,3,PG,1,100,13021
1570470301.661369,99488.000,16869,3,PG,1,100,13020
1570470301.700937,99519.000,16869,3,PG,1,100,13020
1570470301.739653,99549.333,16887,3,PG,1,100,13007
1570470301.778370,99579.667,16887,3,PG,1,100,13012
1570470301.817087,99610.000,16887,3,PG,1,100,13023
1570470301.858889,99642.750,16905,4,PG,1,100,13033
1570470301.900690,99675.500,16905,4,PG,1,100,13040
1570470301.942492,99708.250,16905,4,PG,1,100,13042
1570470301.984293,99741.000,16905,4,PG,1,100,13051
1570470302.024287,99772.333,16922,3,PG,1,100,13055
1570470302.064280,99803.667,16922,3,PG,1,100,13074
1570470302.104273,99835.000,16922,3,PG,1,100,13085
1570470302.142565,99865.000,16940,3,PG,1,100,13089
1570470302.180856,99895.000,16940,3,PG,1,100,13118
1570470302.219147,99925.000,16940,3,PG,1,100,13109
1570470302.263395,99959.667,16959,3,PG,1,100,13114
1570470302.307643,99994.333,16959,3,PG,1,100,13092
1570470302.351891,100029.000,16959,3,PG,1,100,13048
1570470302.389225,100058.250,16977,4,PG,1,100,13052
1570470302.426559,100087.500,16977,4,PG,1,100,13012
1570470302.463893,100116.750,16977,4,PG,1,100,13014
1570470302.501228,100146.000,16977,4,PG,1,100,13007
1570470302.539945,100176.333,16995,3,PG,1,100,12995
1570470302.578661,100206.667,16995,3,PG,1,100,13012
1570470302.617378,100237.000,16995,3,PG,1,100,13005
1570470302.661626,100271.667,17013,3,PG,1,100,12992
1570470302.705874,100306.333,17013,3,PG,1,100,13004
1570470302.750122,100341.000,17013,3,PG,1,100,13000
1570470302.789264,100371.667,17031,3,PG,1,100,13021
1570470302.828407,100402.333,17031,3,PG,1,100,13028
1570470302.867549,100433.000,17031,3,PG,1,100,13024
1570470302.904883,100462.250,17049,4,PG,1,100,13046
1570470302.942218,100491.500,17049,4,PG,1,100,13038
1570470302.979552,100520.750,17049,4,PG,1,100,13046
1570470303.016886,100550.000,17049,4,PG,1,100,13070
1570470303.061559,100585.000,17065,3,PG,1,100,13072
1570470303.106232,100620.000,17065,3,PG,1,100,13079
1570470303.150906,100655.000,17065,3,PG,1,100,13086
1570470303.190048,100685.667,17083,3,PG,1,100,13048
1570470303.229191,100716.333,17083,3,PG,1,100,13015
1570470303.268333,100747.000,17083,3,PG,1,100,12982
1570470303.305029,100775.750,17102,4,PG,1,100,12955
1570470303.341725,100804.500,17102,4,PG,1,100,12944
1570470303.378421,100833.250,17102,4,PG,1,100,12913
1570470303.415117,100862.000,17102,4,PG,1,100,12918
1570470303.456599,100894.500,17120,2,PG,1,100,12922
1570470303.498082,100927.000,17120,2,PG,1,100,12896
1570470303.539564,100959.500,17138,4,PG,1,100,12895
1570470303.581046,100992.000,17138,4,PG,1,100,12883
1570470303.622529,101024.500,17138,4,PG,1,100,12897
1570470303.664011,101057.000,17138,4,PG,1,100,12918
1570470303.701877,101086.667,17156,3,PG,1,100,12880
1570470303.739743,101116.333,17156,3,PG,1,100,12918
1570470303.777609,101146.000,17156,3,PG,1,100,12924
1570470303.817177,101177.000,17174,3,PG,1,100,12914
1570470303.856745,101208.000,17174,3,PG,1,100,12955
1570470303.896313,101239.000,17174,3,PG,1,100,12917
1570470303.935030,101269.333,17192,3,PG,1,100,12960
1570470303.973747,101299.667,17192,3,PG,1,100,12970
1570470304.012463,101330.000,17192,3,PG,1,100,12970
1570470304.054584,101363.000,17210,4,PG,1,100,13009
1570470304.096704,101396.000,17210,4,PG,1,100,12979
1570470304.138825,101429.000,17210,4,PG,1,100,12996
1570470304.180946,101462.000,17210,4,PG,1,100,12962
1570470304.220939,101493.333,17228,3,PG,1,100,12893
1570470304.260932,101524.667,17228,3,PG,1,100,12888
1570470304.300926,101556.000,17228,3,PG,1,100,12820
1570470304.338792,101585.667,17247,3,PG,1,100,12822
1570470304.376657,101615.333,17247,3,PG,1,100,12824
1570470304.414524,101645.000,17247,3,PG,1,100,12794
1570470304.459197,101680.000,17265,3,PG,1,100,12818
1570470304.503870,101715.000,17265,3,PG,1,100,12758
1570470304.548544,101750.000,17265,3,PG,1,100,12776
1570470304.587048,101780.167,17286,6,PG,1,100,12796
1570470304.625552,101810.333,17286,6,PG,1,100,12779
1570470304.664056,101840.500,17286,6,PG,1,100,12813
1570470304.702560,101870.667,17286,6,PG,1,100,12785
1570470304.741065,101900.833,17286,6,PG,1,100,12807
1570470304.779569,101931.000,17286,6,PG,1,100,12830
1570470304.819137,101962.000,17306,3,PG,1,100,12821
1570470304.858704,101993.000,17306,3,PG,1,100,12840
1570470304.898272,102024.000,17306,3,PG,1,100,12826
1570470304.936989,102054.333,17324,3,PG,1,100,12855
1570470304.975706,102084.667,17324,3,PG,1,100,12891
1570470305.014423,102115.000,17324,3,PG,1,100,12868
1570470305.053565,102145.667,17342,3,PG,1,100,12903
1570470305.092708,102176.333,17342,3,PG,1,100,12885
1570470305.131850,102207.000,17342,3,PG,1,100,12875
1570470305.176949,102242.333,17360,3,PG,1,100,12843
1570470305.222048,102277.667,17360,3,PG,1,100,12764
1570470305.267146,102313.000,17360,3,PG,1,100,12754
1570470305.304162,102342.000,17377,4,PG,1,100,12698
1570470305.341177,102371.000,17377,4,PG,1,100,12687
1570470305.378192,102400.000,17377,4,PG,1,100,12692
1570470305.415207,102429.000,17377,4,PG,1,100,12659
1570470305.453924,102459.333,17395,3,PG,1,100,12662
1570470305.492640,102489.667,17395,3,PG,1,100,12636
1570470305.531358,102520.000,17395,3,PG,1,100,12646
1570470305.575180,102554.333,17413,3,PG,1,100,12673
1570470305.619002,102588.667,17413,3,PG,1,100,12653
1570470305.662825,102623.000,17413,3,PG,1,100,12669
1570470305.701116,102653.000,17431,3,PG,1,100,12673
1570470305.739408,102683.000,17431,3,PG,1,100,12687
1570470305.777699,102713.000,17431,3,PG,1,100,12704
1570470305.815033,102742.250,17449,4,PG,1,100,12697
1570470305.852367,102771.500,17449,4,PG,1,100,12709
1570470305.889702,102800.750,17449,4,PG,1,100,12734
1570470305.927036,102830.000,17449,4,PG,1,100,12745
1570470305.971709,102865.000,17467,3,PG,1,100,12772
1570470306.016382,102900.000,17467,3,PG,1,100,12762
1570470306.061056,102935.000,17467,3,PG,1,100,12790
1570470306.099773,102965.333,17485,3,PG,1,100,12796
1570470306.138489,102995.667,17485,3,PG,1,100,12794
1570470306.177207,103026.000,17485,3,PG,1,100,12742
1570470306.216349,103056.667,17503,3,PG,1,100,12675
1570470306.255491,103087.333,17503,3,PG,1,100,12640
1570470306.294634,103118.000,17503,3,PG,1,100,12638
1570470306.333776,103148.667,17522,3,PG,1,100,12624
1570470306.372918,103179.333,17522,3,PG,1,100,12613
1570470306.412061,103210.000,17522,3,PG,1,100,12595
1570470306.453543,103242.500,17540,4,PG,1,100,12577
1570470306.495025,103275.000,17540,4,PG,1,100,12593
1570470306.536508,103307.500,17540,4,PG,1,100,12609
1570470306.577990,103340.000,17540,4,PG,1,100,12584
1570470306.616707,103370.333,17558,3,PG,1,100,12598
1570470306.655424,103400.667,17558,3,PG,1,100,12587
1570470306.694141,103431.000,17558,3,PG,1,100,12625
1570470306.732858,103461.333,17576,3,PG,1,100,12648
1570470306.771575,103491.667,17576,3,PG,1,100,12633
1570470306.810292,103522.000,17576,3,PG,1,100,12651
1570470306.849859,103553.000,17594,3,PG,1,100,12654
1570470306.889427,103584.000,17594,3,PG,1,100,12690
1570470306.928995,103615.000,17594,3,PG,1,100,12718
1570470306.971116,103648.000,17612,4,PG,1,100,12702
1570470307.013236,103681.000,17612,4,PG,1,100,12729
1570470307.055357,103714.000,17612,4,PG,1,100,12734
1570470307.097477,103747.000,17612,4,PG,1,100,12760
1570470307.136194,103777.333,17630,3,PG,1,100,12790
1570470307.174911,103807.667,17630,3,PG,1,100,12742
1570470307.213628,103838.000,17630,3,PG,1,100,12705
1570470307.253196,103869.000,17648,3,PG,1,100,12644
1570470307.292764,103900.000,17648,3,PG,1,100,12623
1570470307.332332,103931.000,17648,3,PG,1,100,12628
1570470307.377005,103966.000,17667,3,PG,1,100,12590
1570470307.421679,104001.000,17667,3,PG,1,100,12591
1570470307.466352,104036.000,17667,3,PG,1,100,12574
1570470307.503367,104065.000,17685,4,PG,1,100,12570
1570470307.540382,104094.000,17685,4,PG,1,100,12593
1570470307.577397,104123.000,17685,4,PG,1,100,12551
1570470307.614412,104152.000,17685,4,PG,1,100,12573
1570470307.653554,104182.667,17703,3,PG,1,100,12593
1570470307.692697,104213.333,17703,3,PG,1,100,12588
1570470307.731839,104244.000,17703,3,PG,1,100,12632
1570470307.776087,104278.667,17721,3,PG,1,100,12603
1570470307.820335,104313.333,17721,3,PG,1,100,12635
1570470307.864583,104348.000,17721,3,PG,1,100,12649
1570470307.903300,104378.333,17739,3,PG,1,100,12658
1570470307.942017,104408.667,17739,3,PG,1,100,12697
1570470307.980734,104439.000,17739,3,PG,1,100,12672
1570470308.020727,104470.333,17757,3,PG,1,100,12705
1570470308.060720,104501.667,17757,3,PG,1,100,12731
1570470308.100713,104533.000,17757,3,PG,1,100,12725
1570470308.139430,104563.333,17775,3,PG,1,100,12765
1570470308.178147,104593.667,17775,3,PG,1,100,12757
1570470308.216864,104624.000,17775,3,PG,1,100,12734
1570470308.258666,104656.750,17792,4,PG,1,100,12680
1570470308.300467,104689.500,17792,4,PG,1,100,12623
1570470308.342269,104722.250,17792,4,PG,1,100,12631
1570470308.384070,104755.000,17792,4,PG,1,100,12592
1570470308.423213,104785.667,17811,3,PG,1,100,12588
1570470308.462355,104816.333,17811,3,PG,1,100,12597
1570470308.501497,104847.000,17811,3,PG,1,100,12574
1570470308.539789,104877.000,17829,3,PG,1,100,12584
1570470308.578080,104907.000,17829,3,PG,1,100,12566
1570470308.616372,104937.000,17829,3,PG,1,100,12573
1570470308.655088,104967.333,17847,3,PG,1,100,12583
1570470308.693805,104997.667,17847,3,PG,1,100,12586
1570470308.732522,105028.000,17847,3,PG,1,100,12595
1570470308.773686,105060.250,17865,4,PG,1,100,12617
1570470308.814849,105092.500,17865,4,PG,1,100,12625
1570470308.856012,105124.750,17865,4,PG,1,100,12661
1570470308.897176,105157.000,17865,4,PG,1,100,12648
1570470308.935467,105187.000,17883,3,PG,1,100,12658
1570470308.973758,105217.000,17883,3,PG,1,100,12678
1570470309.012050,105247.000,17883,3,PG,1,100,12690
1570470309.051192,105277.667,17901,3,PG,1,100,12730
1570470309.090335,105308.333,17901,3,PG,1,100,12729
1570470309.129477,105339.000,17901,3,PG,1,100,12752
1570470309.174150,105374.000,17919,3,PG,1,100,12752
1570470309.218824,105409.000,17919,3,PG,1,100,12729
1570470309.263497,105444.000,17919,3,PG,1,100,12682
1570470309.300831,105473.250,17935,4,PG,1,100,12626
1570470309.338165,105502.500,17935,4,PG,1,100,12593
1570470309.375499,105531.750,17935,4,PG,1,100,12597
1570470309.412834,105561.000,17935,4,PG,1,100,12579
1570470309.451550,105591.333,17954,3,PG,1,100,12591
1570470309.490268,105621.667,17954,3,PG,1,100,12576
1570470309.528984,105652.000,17954,3,PG,1,100,12539
1570470309.573658,105687.000,17972,3,PG,1,100,12565
1570470309.618331,105722.000,17972,3,PG,1,100,12555
1570470309.663004,105757.000,17972,3,PG,1,100,12577
1570470309.701296,105787.000,17990,3,PG,1,100,12580
1570470309.739587,105817.000,17990,3,PG,1,100,12567
1570470309.777879,105847.000,17990,3,PG,1,100,12597
1570470309.815213,105876.250,18008,4,PG,1,100,12603
1570470309.852547,105905.500,18008,4,PG,1,100,12631
1570470309.889881,105934.750,18008,4,PG,1,100,12638
1570470309.927215,105964.000,18008,4,PG,1,100,12634
1570470309.972314,105999.333,18026,3,PG,1,100,12661
1570470310.017413,106034.667,18026,3,PG,1,100,12674
1570470310.062512,106070.000,18026,3,PG,1,100,12704
1570470310.101229,106100.333,18044,3,PG,1,100,12717
1570470310.139946,106130.667,18044,3,PG,1,100,12712
1570470310.178663,106161.000,18044,3,PG,1,100,12715
1570470310.218230,106192.000,18062,3,PG,1,100,12677
1570470310.257798,106223.000,18062,3,PG,1,100,12627
1570470310.297366,106254.000,18062,3,PG,1,100,12607
1570470310.336083,106284.333,18080,3,PG,1,100,12582
1570470310.374800,106314.667,18080,3,PG,1,100,12569
1570470310.413517,106345.000,18080,3,PG,1,100,12573
1570470310.453084,106376.000,18099,3,PG,1,100,12572
1570470310.492652,106407.000,18099,3,PG,1,100,12574
1570470310.532220,106438.000,18099,3,PG,1,100,12550
1570470310.574022,106470.750,18117,4,PG,1,100,12564
1570470310.615823,106503.500,18117,4,PG,1,100,12574
1570470310.657625,106536.250,18117,4,PG,1,100,12566
1570470310.699426,106569.000,18117,4,PG,1,100,12601
1570470310.737292,106598.667,18135,3,PG,1,100,12603
1570470310.775158,106628.333,18135,3,PG,1,100,12613
1570470310.813024,106658.000,18135,3,PG,1,100,12627
1570470310.852167,106688.667,18153,3,PG,1,100,12625
1570470310.891309,106719.333,18153,3,PG,1,100,12656
1570470310.930451,106750.000,18153,3,PG,1,100,12668
1570470310.975125,106785.000,18171,3,PG,1,100,12666
1570470311.019798,106820.000,18171,3,PG,1,100,12698
1570470311.064471,106855.000,18171,3,PG,1,100,12699
1570470311.103827,106885.833,18192,6,PG,1,100,12718
1570470311.143182,106916.667,18192,6,PG,1,100,12708
1570470311.182537,106947.500,18192,6,PG,1,100,12661
1570470311.221892,106978.333,18192,6,PG,1,100,12630
1570470311.261247,107009.167,18192,6,PG,1,100,12593
1570470311.300602,107040.000,18192,6,PG,1,100,12605
1570470311.339319,107070.333,18212,3,PG,1,100,12611
1570470311.378036,107100.667,18212,3,PG,1,100,12585
1570470311.416753,107131.000,18212,3,PG,1,100,12596
1570470311.455895,107161.667,18229,3,PG,1,100,12568
1570470311.495037,107192.333,18229,3,PG,1,100,12584
1570470311.534180,107223.000,18229,3,PG,1,100,12605
1570470311.578428,107257.667,18247,3,PG,1,100,12591
1570470311.622675,107292.333,18247,3,PG,1,100,12639
1570470311.666924,107327.000,18247,3,PG,1,100,12612
1570470311.703938,107356.000,18265,4,PG,1,100,12635
1570470311.740953,107385.000,18265,4,PG,1,100,12649
1570470311.777969,107414.000,18265,4,PG,1,100,12648
1570470311.814984,107443.000,18265,4,PG,1,100,12687
1570470311.853701,107473.333,18283,3,PG,1,100,12674
1570470311.892417,107503.667,18283,3,PG,1,100,12698
1570470311.931134,107534.000,18283,3,PG,1,100,12716
1570470311.974957,107568.333,18301,3,PG,1,100,12723
1570470312.018779,107602.667,18301,3,PG,1,100,12765
1570470312.062602,107637.000,18301,3,PG,1,100,12736
1570470312.101319,107667.333,18319,3,PG,1,100,12697
1570470312.140035,107697.667,18319,3,PG,1,100,12654
1570470312.178752,107728.000,18319,3,PG,1,100,12631
1570470312.216406,107757.500,18337,4,PG,1,100,12640
1570470312.254059,107787.000,18337,4,PG,1,100,12616
1570470312.291712,107816.500,18337,4,PG,1,100,12603
1570470312.329365,107846.000,18337,4,PG,1,100,12606
1570470312.370848,107878.500,18355,2,PG,1,100,12586
1570470312.412330,107911.000,18355,2,PG,1,100,12599
1570470312.454132,107943.750,18374,4,PG,1,100,12606
1570470312.495933,107976.500,18374,4,PG,1,100,12591
1570470312.537735,108009.250,18374,4,PG,1,100,12600
1570470312.579536,108042.000,18374,4,PG,1,100,12598
1570470312.618253,108072.333,18392,3,PG,1,100,12631
1570470312.656970,108102.667,18392,3,PG,1,100,12638
1570470312.695687,108133.000,18392,3,PG,1,100,12636
1570470312.734404,108163.333,18410,3,PG,1,100,12657
1570470312.773121,108193.667,18410,3,PG,1,100,12649
1570470312.811838,108224.000,18410,3,PG,1,100,12686
1570470312.850554,108254.333,18428,3,PG,1,100,12690
1570470312.889271,108284.667,18428,3,PG,1,100,12698
1570470312.927988,108315.000,18428,3,PG,1,100,12725
1570470312.969471,108347.500,18446,4,PG,1,100,12725
1570470313.010953,108380.000,18446,4,PG,1,100,12750
1570470313.052436,108412.500,18446,4,PG,1,100,12735
1570470313.093918,108445.000,18446,4,PG,1,100,12676
1570470313.132635,108475.333,18464,3,PG,1,100,12657
1570470313.171352,108505.667,18464,3,PG,1,100,12637
1570470313.210069,108536.000,18464,3,PG,1,100,12622
1570470313.249636,108567.000,18482,3,PG,1,100,12639
1570470313.289204,108598.000,18482,3,PG,1,100,12610
1570470313.328772,108629.000,18482,3,PG,1,100,12627
1570470313.373871,108664.333,18500,3,PG,1,100,12605
1570470313.418970,108699.667,18500,3,PG,1,100,12619
1570470313.464069,108735.000,18500,3,PG,1,100,12631
1570470313.501403,108764.250,18519,4,PG,1,100,12621
1570470313.538737,108793.500,18519,4,PG,1,100,12651
1570470313.576071,108822.750,18519,4,PG,1,100,12634
1570470313.613405,108852.000,18519,4,PG,1,100,12653
1570470313.652548,108882.667,18537,3,PG,1,100,12671
1570470313.691690,108913.333,18537,3,PG,1,100,12665
1570470313.730832,108944.000,18537,3,PG,1,100,12689
1570470313.775080,108978.667,18555,3,PG,1,100,12693
1570470313.819328,109013.333,18555,3,PG,1,100,12721
1570470313.863576,109048.000,18555,3,PG,1,100,12737
1570470313.901867,109078.000,18573,3,PG,1,100,12737
1570470313.940159,109108.000,18573,3,PG,1,100,12756
1570470313.978450,109138.000,18573,3,PG,1,100,12766
1570470314.016104,109167.500,18591,4,PG,1,100,12784
1570470314.053757,109197.000,18591,4,PG,1,100,12780
1570470314.091410,109226.500,18591,4,PG,1,100,12750
1570470314.129063,109256.000,18591,4,PG,1,100,12716
1570470314.171184,109289.000,18609,2,PG,1,100,12699
1570470314.213305,109322.000,18609,2,PG,1,100,12700
1570470314.255106,109354.750,18627,4,PG,1,100,12686
1570470314.296908,109387.500,18627,4,PG,1,100,12689
1570470314.338709,109420.250,18627,4,PG,1,100,12675
1570470314.380511,109453.000,18627,4,PG,1,100,12689
1570470314.420504,109484.333,18645,3,PG,1,100,12703
1570470314.460497,109515.667,18645,3,PG,1,100,12687
1570470314.500490,109547.000,18645,3,PG,1,100,12700
1570470314.539207,109577.333,18663,3,PG,1,100,12689
1570470314.577924,109607.667,18663,3,PG,1,100,12716
1570470314.616641,109638.000,18663,3,PG,1,100,12742
1570470314.655783,109668.667,18681,3,PG,1,100,12725
1570470314.694926,109699.333,18681,3,PG,1,100,12755
1570470314.734068,109730.000,18681,3,PG,1,100,12746
1570470314.775232,109762.250,18699,4,PG,1,100,12775
1570470314.816395,109794.500,18699,4,PG,1,100,12818
1570470314.857558,109826.750,18699,4,PG,1,100,12784
1570470314.898721,109859.000,18699,4,PG,1,100,12812
1570470314.937013,109889.000,18717,3,PG,1,100,12814
1570470314.975304,109919.000,18717,3,PG,1,100,12849
1570470315.013596,109949.000,18717,3,PG,1,100,12882
1570470315.052313,109979.333,18735,3,PG,1,100,12855
1570470315.091030,110009.667,18735,3,PG,1,100,12839
1570470315.129746,110040.000,18735,3,PG,1,100,12807
1570470315.170910,110072.250,18753,4,PG,1,100,12793
1570470315.212073,110104.500,18753,4,PG,1,100,12809
1570470315.253236,110136.750,18753,4,PG,1,100,12777
1570470315.294400,110169.000,18753,4,PG,1,100,12789
1570470315.333117,110199.333,18771,3,PG,1,100,12787
1570470315.371834,110229.667,18771,3,PG,1,100,12795
1570470315.410550,110260.000,18771,3,PG,1,100,12797
1570470315.449693,110290.667,18789,3,PG,1,100,12780
1570470315.488835,110321.333,18789,3,PG,1,100,12802
1570470315.527977,110352.000,18789,3,PG,1,100,12820
1570470315.572651,110387.000,18806,3,PG,1,100,12835
1570470315.617324,110422.000,18806,3,PG,1,100,12823
1570470315.661998,110457.000,18806,3,PG,1,100,12845
1570470315.699013,110486.000,18824,4,PG,1,100,12851
1570470315.736028,110515.000,18824,4,PG,1,100,12878
1570470315.773043,110544.000,18824,4,PG,1,100,12893
1570470315.810058,110573.000,18824,4,PG,1,100,12880
1570470315.848775,110603.333,18842,3,PG,1,100,12914
1570470315.887492,110633.667,18842,3,PG,1,100,12917
1570470315.926208,110664.000,18842,3,PG,1,100,12942
1570470315.970882,110699.000,18860,3,PG,1,100,12958
1570470316.015555,110734.000,18860,3,PG,1,100,12927
1570470316.060229,110769.000,18860,3,PG,1,100,12957
1570470316.098520,110799.000,18878,3,PG,1,100,12954
1570470316.136811,110829.000,18878,3,PG,1,100,12940
1570470316.175103,110859.000,18878,3,PG,1,100,12922
1570470316.212756,110888.500,18896,4,PG,1,100,12872
1570470316.250409,110918.000,18896,4,PG,1,100,12883
1570470316.288063,110947.500,18896,4,PG,1,100,12880
1570470316.325716,110977.000,18896,4,PG,1,100,12871
1570470316.367198,111009.500,18914,2,PG,1,100,12892
1570470316.408681,111042.000,18914,2,PG,1,100,12854
1570470316.450801,111075.000,18932,4,PG,1,100,12878
1570470316.492922,111108.000,18932,4,PG,1,100,12884
1570470316.535043,111141.000,18932,4,PG,1,100,12882
1570470316.577163,111174.000,18932,4,PG,1,100,12911
1570470316.616731,111205.000,18951,3,PG,1,100,12908
1570470316.656299,111236.000,18951,3,PG,1,100,12931
1570470316.695867,111267.000,18951,3,PG,1,100,12953
1570470316.734584,111297.333,18969,3,PG,1,100,12942
1570470316.773300,111327.667,18969,3,PG,1,100,12984
1570470316.812017,111358.000,18969,3,PG,1,100,12961
1570470316.851160,111388.667,18987,3,PG,1,100,12979
1570470316.890302,111419.333,18987,3,PG,1,100,13013
1570470316.929445,111450.000,18987,3,PG,1,100,12997
1570470316.971246,111482.750,19005,4,PG,1,100,13035
1570470317.013047,111515.500,19005,4,PG,1,100,13029
1570470317.054849,111548.250,19005,4,PG,1,100,13046
1570470317.096650,111581.000,19005,4,PG,1,100,13094
1570470317.134516,111610.667,19023,3,PG,1,100,13038
1570470317.172382,111640.333,19023,3,PG,1,100,13049
1570470317.210248,111670.000,19023,3,PG,1,100,13011
1570470317.249391,111700.667,19041,3,PG,1,100,12977
1570470317.288533,111731.333,19041,3,PG,1,100,13001
1570470317.327676,111762.000,19041,3,PG,1,100,12969
1570470317.372774,111797.333,19059,3,PG,1,100,12986
1570470317.417873,111832.667,19059,3,PG,1,100,12998
1570470317.462972,111868.000,19059,3,PG,1,100,12977
1570470317.500625,111897.500,19078,4,PG,1,100,13025
1570470317.538278,111927.000,19078,4,PG,1,100,12978
1570470317.575932,111956.500,19078,4,PG,1,100,13003
1570470317.613585,111986.000,19078,4,PG,1,100,13006
1570470317.653919,112017.600,19099,5,PG,1,100,13013
1570470317.694252,112049.200,19099,5,PG,1,100,13077
1570470317.734586,112080.800,19099,5,PG,1,100,13039
1570470317.774920,112112.400,19099,5,PG,1,100,13047
1570470317.815253,112144.000,19099,5,PG,1,100,13064
1570470317.853970,112174.333,19119,3,PG,1,100,13070
1570470317.892687,112204.667,19119,3,PG,1,100,13116
1570470317.931404,112235.000,19119,3,PG,1,100,13105
1570470317.975226,112269.333,19137,3,PG,1,100,13120
1570470318.019049,112303.667,19137,3,PG,1,100,13133
1570470318.062871,112338.000,19137,3,PG,1,100,13145
1570470318.101163,112368.000,19155,3,PG,1,100,13184
1570470318.139454,112398.000,19155,3,PG,1,100,13152
1570470318.177746,112428.000,19155,3,PG,1,100,13096
1570470318.215080,112457.250,19173,4,PG,1,100,13097
1570470318.252414,112486.500,19173,4,PG,1,100,13070
1570470318.289748,112515.750,19173,4,PG,1,100,13076
1570470318.327082,112545.000,19173,4,PG,1,100,13070
1570470318.371756,112580.000,19191,3,PG,1,100,13057
1570470318.416429,112615.000,19191,3,PG,1,100,13066
1570470318.461102,112650.000,19191,3,PG,1,100,13054
1570470318.499819,112680.333,19209,3,PG,1,100,13085
1570470318.538536,112710.667,19209,3,PG,1,100,13063
1570470318.577253,112741.000,19209,3,PG,1,100,13048
1570470318.616395,112771.667,19228,3,PG,1,100,13065
1570470318.655538,112802.333,19228,3,PG,1,100,13078
1570470318.694680,112833.000,19228,3,PG,1,100,13099
1570470318.733397,112863.333,19246,3,PG,1,100,13105
1570470318.772114,112893.667,19246,3,PG,1,100,13103
1570470318.810831,112924.000,19246,3,PG,1,100,13132
1570470318.852313,112956.500,19264,4,PG,1,100,13125
1570470318.893796,112989.000,19264,4,PG,1,100,13162
1570470318.935278,113021.500,19264,4,PG,1,100,13152
1570470318.976760,113054.000,19264,4,PG,1,100,13172
1570470319.015477,113084.333,19282,3,PG,1,100,13192
1570470319.054194,113114.667,19282,3,PG,1,100,13168
1570470319.092911,113145.000,19282,3,PG,1,100,13122
1570470319.131628,113175.333,19300,3,PG,1,100,13085
1570470319.170345,113205.667,19300,3,PG,1,100,13073
1570470319.209062,113236.000,19300,3,PG,1,100,13058
1570470319.247779,113266.333,19318,3,PG,1,100,13045
1570470319.286496,113296.667,19318,3,PG,1,100,13028
1570470319.325212,113327.000,19318,3,PG,1,100,13021
1570470319.367333,113360.000,19336,4,PG,1,100,13022
1570470319.409454,113393.000,19336,4,PG,1,100,12999
1570470319.451574,113426.000,19336,4,PG,1,100,13009
1570470319.493695,113459.000,19336,4,PG,1,100,13000
1570470319.532412,113489.333,19354,3,PG,1,100,13001
1570470319.571129,113519.667,19354,3,PG,1,100,13032
1570470319.609846,113550.000,19354,3,PG,1,100,13012
1570470319.649414,113581.000,19373,3,PG,1,100,13039
1570470319.688981,113612.000,19373,3,PG,1,100,13022
1570470319.728549,113643.000,19373,3,PG,1,100,13038
1570470319.773648,113678.333,19391,3,PG,1,100,13052
1570470319.818747,113713.667,19391,3,PG,1,100,13043
1570470319.863846,113749.000,19391,3,PG,1,100,13075
1570470319.900542,113777.750,19409,4,PG,1,100,13076
1570470319.937238,113806.500,19409,4,PG,1,100,13077
1570470319.973933,113835.250,19409,4,PG,1,100,13025
1570470320.010629,113864.000,19409,4,PG,1,100,12965
1570470320.049772,113894.667,19427,3,PG,1,100,12950
1570470320.088914,113925.333,19427,3,PG,1,100,12918
1570470320.128057,113956.000,19427,3,PG,1,100,12904
1570470320.172304,113990.667,19445,3,PG,1,100,12900
1570470320.216552,114025.333,19445,3,PG,1,100,12881
1570470320.260800,114060.000,19445,3,PG,1,100,12875
1570470320.299092,114090.000,19463,3,PG,1,100,12866
1570470320.337383,114120.000,19463,3,PG,1,100,12864
1570470320.375674,114150.000,19463,3,PG,1,100,12881
1570470320.413328,114179.500,19481,4,PG,1,100,12862
1570470320.450981,114209.000,19481,4,PG,1,100,12886
1570470320.488634,114238.500,19481,4,PG,1,100,12897
1570470320.526288,114268.000,19481,4,PG,1,100,12893
1570470320.568408,114301.000,19500,2,PG,1,100,12901
1570470320.610529,114334.000,19500,2,PG,1,100,12922
1570470320.652330,114366.750,19517,4,PG,1,100,12920
1570470320.694132,114399.500,19517,4,PG,1,100,12928
1570470320.735933,114432.250,19517,4,PG,1,100,12934
1570470320.777735,114465.000,19517,4,PG,1,100,12942
1570470320.817728,114496.333,19535,3,PG,1,100,12971
1570470320.857721,114527.667,19535,3,PG,1,100,12952
1570470320.897715,114559.000,19535,3,PG,1,100,12917
1570470320.935580,114588.667,19553,3,PG,1,100,12849
1570470320.973447,114618.333,19553,3,PG,1,100,12807
1570470321.011312,114648.000,19553,3,PG,1,100,12805
1570470321.050030,114678.333,19571,3,PG,1,100,12768
1570470321.088746,114708.667,19571,3,PG,1,100,12769
1570470321.127463,114739.000,19571,3,PG,1,100,12745
1570470321.168627,114771.250,19589,4,PG,1,100,12719
1570470321.209790,114803.500,19589,4,PG,1,100,12740
1570470321.250953,114835.750,19589,4,PG,1,100,12722
1570470321.292116,114868.000,19589,4,PG,1,100,12720
1570470321.330408,114898.000,19607,3,PG,1,100,12725
1570470321.368699,114928.000,19607,3,PG,1,100,12718
1570470321.406991,114958.000,19607,3,PG,1,100,12764
1570470321.445708,114988.333,19625,3,PG,1,100,12760
1570470321.484425,115018.667,19625,3,PG,1,100,12757
1570470321.523142,115049.000,19625,3,PG,1,100,12776
1570470321.567815,115084.000,19644,3,PG,1,100,12769
1570470321.612488,115119.000,19644,3,PG,1,100,12802
1570470321.657162,115154.000,19644,3,PG,1,100,12829
1570470321.694496,115183.250,19662,4,PG,1,100,12809
1570470321.731830,115212.500,19662,4,PG,1,100,12839
1570470321.769164,115241.750,19662,4,PG,1,100,12843
1570470321.806498,115271.000,19662,4,PG,1,100,12867
1570470321.845641,115301.667,19678,3,PG,1,100,12890
1570470321.884783,115332.333,19678,3,PG,1,100,12845
1570470321.923925,115363.000,19678,3,PG,1,100,12812
1570470321.968173,115397.667,19696,3,PG,1,100,12752
1570470322.012421,115432.333,19696,3,PG,1,100,12718
1570470322.056669,115467.000,19696,3,PG,1,100,12724
1570470322.093684,115496.000,19714,4,PG,1,100,12670
1570470322.130699,115525.000,19714,4,PG,1,100,12685
1570470322.167714,115554.000,19714,4,PG,1,100,12673
1570470322.204729,115583.000,19714,4,PG,1,100,12632
1570470322.243446,115613.333,19732,3,PG,1,100,12665
1570470322.282163,115643.667,19732,3,PG,1,100,12615
1570470322.320880,115674.000,19732,3,PG,1,100,12637
1570470322.365979,115709.333,19750,3,PG,1,100,12649
1570470322.411078,115744.667,19750,3,PG,1,100,12632
1570470322.456177,115780.000,19750,3,PG,1,100,12683
1570470322.494468,115810.000,19768,3,PG,1,100,12644
1570470322.532759,115840.000,19768,3,PG,1,100,12685
1570470322.571051,115870.000,19768,3,PG,1,100,12714
1570470322.610619,115901.000,19787,3,PG,1,100,12700
1570470322.650187,115932.000,19787,3,PG,1,100,12743
1570470322.689754,115963.000,19787,3,PG,1,100,12715
1570470322.728471,115993.333,19805,3,PG,1,100,12760
1570470322.767188,116023.667,19805,3,PG,1,100,12786
1570470322.805905,116054.000,19805,3,PG,1,100,12775
1570470322.848026,116087.000,19823,4,PG,1,100,12829
1570470322.890146,116120.000,19823,4,PG,1,100,12798
1570470322.932267,116153.000,19823,4,PG,1,100,12822
1570470322.974387,116186.000,19823,4,PG,1,100,12790
1570470323.014381,116217.333,19841,3,PG,1,100,12746
1570470323.054374,116248.667,19841,3,PG,1,100,12717
1570470323.094367,116280.000,19841,3,PG,1,100,12678
1570470323.132233,116309.667,19859,3,PG,1,100,12672
1570470323.170099,116339.333,19859,3,PG,1,100,12669
1570470323.207965,116369.000,19859,3,PG,1,100,12666
1570470323.247108,116399.667,19877,3,PG,1,100,12651
1570470323.286250,116430.333,19877,3,PG,1,100,12637
1570470323.325392,116461.000,19877,3,PG,1,100,12650
1570470323.367194,116493.750,19895,4,PG,1,100,12659
1570470323.408995,116526.500,19895,4,PG,1,100,12664
1570470323.450797,116559.250,19895,4,PG,1,100,12675
1570470323.492598,116592.000,19895,4,PG,1,100,12702
1570470323.530890,116622.000,19913,3,PG,1,100,12710
1570470323.569181,116652.000,19913,3,PG,1,100,12724
1570470323.607473,116682.000,19913,3,PG,1,100,12728
1570470323.646615,116712.667,19932,3,PG,1,100,12744
1570470323.685757,116743.333,19932,3,PG,1,100,12762
1570470323.724900,116774.000,19932,3,PG,1,100,12775
1570470323.769999,116809.333,19950,3,PG,1,100,12786
1570470323.815097,116844.667,19950,3,PG,1,100,12791
1570470323.860196,116880.000,19950,3,PG,1,100,12805
1570470323.898913,116910.333,19968,3,PG,1,100,12839
1570470323.937630,116940.667,19968,3,PG,1,100,12853
1570470323.976347,116971.000,19968,3,PG,1,100,12830
1570470324.014319,117000.750,19986,4,PG,1,100,12788
1570470324.052292,117030.500,19986,4,PG,1,100,12737
1570470324.090264,117060.250,19986,4,PG,1,100,12731
1570470324.128236,117090.000,19986,4,PG,1,100,12713
1570470324.167804,117121.000,20007,5,PG,1,100,12689
1570470324.207372,117152.000,20007,5,PG,1,100,12667
1570470324.246940,117183.000,20007,5,PG,1,100,12659
1570470324.286508,117214.000,20007,5,PG,1,100,12660
1570470324.326075,117245.000,20007,5,PG,1,100,12672
1570470324.369898,117279.333,20027,3,PG,1,100,12650
1570470324.413720,117313.667,20027,3,PG,1,100,12653
1570470324.457543,117348.000,20027,3,PG,1,100,12665
1570470324.495834,117378.000,20045,3,PG,1,100,12663
1570470324.534126,117408.000,20045,3,PG,1,100,12706
1570470324.572417,117438.000,20045,3,PG,1,100,12697
1570470324.610070,117467.500,20064,4,PG,1,100,12701
1570470324.647723,117497.000,20064,4,PG,1,100,12722
1570470324.685377,117526.500,20064,4,PG,1,100,12720
1570470324.723030,117556.000,20064,4,PG,1,100,12750
1570470324.767703,117591.000,20082,3,PG,1,100,12763
1570470324.812377,117626.000,20082,3,PG,1,100,12760
1570470324.857050,117661.000,20082,3,PG,1,100,12775
1570470324.895767,117691.333,20100,3,PG,1,100,12787
1570470324.934484,117721.667,20100,3,PG,1,100,12827
1570470324.973201,117752.000,20100,3,PG,1,100,12818
1570470325.012343,117782.667,20118,3,PG,1,100,12782
1570470325.051486,117813.333,20118,3,PG,1,100,12758
1570470325.090628,117844.000,20118,3,PG,1,100,12705
1570470325.129345,117874.333,20136,3,PG,1,100,12687
1570470325.168062,117904.667,20136,3,PG,1,100,12662
1570470325.206779,117935.000,20136,3,PG,1,100,12645
1570470325.248261,117967.500,20154,4,PG,1,100,12646
1570470325.289743,118000.000,20154,4,PG,1,100,12619
1570470325.331226,118032.500,20154,4,PG,1,100,12608
1570470325.372708,118065.000,20154,4,PG,1,100,12612
1570470325.411425,118095.333,20172,3,PG,1,100,12597
1570470325.450142,118125.667,20172,3,PG,1,100,12624
1570470325.488859,118156.000,20172,3,PG,1,100,12608
1570470325.527576,118186.333,20190,3,PG,1,100,12610
1570470325.566293,118216.667,20190,3,PG,1,100,12630
1570470325.605010,118247.000,20190,3,PG,1,100,12622
1570470325.644578,118278.000,20209,3,PG,1,100,12638
1570470325.684145,118309.000,20209,3,PG,1,100,12650
1570470325.723713,118340.000,20209,3,PG,1,100,12647
1570470325.768812,118375.333,20227,3,PG,1,100,12671
1570470325.813911,118410.667,20227,3,PG,1,100,12666
1570470325.859010,118446.000,20227,3,PG,1,100,12699
1570470325.896344,118475.250,20245,4,PG,1,100,12702
1570470325.933678,118504.500,20245,4,PG,1,100,12685
1570470325.971012,118533.750,20245,4,PG,1,100,12678
1570470326.008346,118563.000,20245,4,PG,1,100,12616
1570470326.047914,118594.000,20263,3,PG,1,100,12583
1570470326.087482,118625.000,20263,3,PG,1,100,12559
1570470326.127050,118656.000,20263,3,PG,1,100,12526
1570470326.171298,118690.667,20281,3,PG,1,100,12522
1570470326.215545,118725.333,20281,3,PG,1,100,12519
1570470326.259794,118760.000,20281,3,PG,1,100,12505
1570470326.298085,118790.000,20299,3,PG,1,100,12508
1570470326.336376,118820.000,20299,3,PG,1,100,12506
1570470326.374668,118850.000,20299,3,PG,1,100,12502
1570470326.412321,118879.500,20317,4,PG,1,100,12521
1570470326.449974,118909.000,20317,4,PG,1,100,12517
1570470326.487628,118938.500,20317,4,PG,1,100,12547
1570470326.525281,118968.000,20317,4,PG,1,100,12535
1570470326.569529,119002.667,20335,3,PG,1,100,12550
1570470326.613776,119037.333,20335,3,PG,1,100,12563
1570470326.658025,119072.000,20335,3,PG,1,100,12539
1570470326.696741,119102.333,20354,3,PG,1,100,12573
1570470326.735458,119132.667,20354,3,PG,1,100,12589
1570470326.774175,119163.000,20354,3,PG,1,100,12591
1570470326.814168,119194.333,20372,3,PG,1,100,12616
1570470326.854162,119225.667,20372,3,PG,1,100,12577
1570470326.894155,119257.000,20372,3,PG,1,100,12537
1570470326.932872,119287.333,20389,3,PG,1,100,12482
1570470326.971589,119317.667,20389,3,PG,1,100,12447
1570470327.010306,119348.000,20389,3,PG,1,100,12422
1570470327.052107,119380.750,20407,4,PG,1,100,12370
1570470327.093909,119413.500,20407,4,PG,1,100,12366
1570470327.135710,119446.250,20407,4,PG,1,100,12360
1570470327.177512,119479.000,20407,4,PG,1,100,12337
1570470327.216229,119509.333,20425,3,PG,1,100,12358
1570470327.254946,119539.667,20425,3,PG,1,100,12308
1570470327.293663,119570.000,20425,3,PG,1,100,12321
1570470327.331954,119600.000,20443,3,PG,1,100,12326
1570470327.370245,119630.000,20443,3,PG,1,100,12326
1570470327.408537,119660.000,20443,3,PG,1,100,12356
1570470327.447254,119690.333,20461,3,PG,1,100,12337
1570470327.485970,119720.667,20461,3,PG,1,100,12349
1570470327.524688,119751.000,20461,3,PG,1,100,12360
1570470327.565851,119783.250,20479,4,PG,1,100,12367
1570470327.607014,119815.500,20479,4,PG,1,100,12400
1570470327.648177,119847.750,20479,4,PG,1,100,12400
1570470327.689341,119880.000,20479,4,PG,1,100,12402
1570470327.728058,119910.333,20498,3,PG,1,100,12427
1570470327.766774,119940.667,20498,3,PG,1,100,12403
1570470327.805491,119971.000,20498,3,PG,1,100,12373
1570470327.844634,120001.667,20516,3,PG,1,100,12291
1570470327.883776,120032.333,20516,3,PG,1,100,12239
1570470327.922919,120063.000,20516,3,PG,1,100,12203
1570470327.967592,120098.000,20533,3,PG,1,100,12157
1570470328.012265,120133.000,20533,3,PG,1,100,12134
1570470328.056939,120168.000,20533,3,PG,1,100,12110
1570470328.094273,120197.250,20550,4,PG,1,100,12080
1570470328.131607,120226.500,20550,4,PG,1,100,12077
1570470328.168941,120255.750,20550,4,PG,1,100,12054
1570470328.206275,120285.000,20550,4,PG,1,100,12067
1570470328.244992,120315.333,20568,3,PG,1,100,12076
1570470328.283709,120345.667,20568,3,PG,1,100,12055
1570470328.322426,120376.000,20568,3,PG,1,100,12067
1570470328.367099,120411.000,20586,3,PG,1,100,12069
1570470328.411773,120446.000,20586,3,PG,1,100,12081
1570470328.456446,120481.000,20586,3,PG,1,100,12101
1570470328.494737,120511.000,20604,3,PG,1,100,12106
1570470328.533029,120541.000,20604,3,PG,1,100,12124
1570470328.571320,120571.000,20604,3,PG,1,100,12122
1570470328.608654,120600.250,20622,4,PG,1,100,12166
1570470328.645989,120629.500,20622,4,PG,1,100,12178
1570470328.683323,120658.750,20622,4,PG,1,100,12160
1570470328.720657,120688.000,20622,4,PG,1,100,12200
1570470328.762139,120720.500,20641,2,PG,1,100,12193
1570470328.803622,120753.000,20641,2,PG,1,100,12201
1570470328.845742,120786.000,20659,4,PG,1,100,12160
1570470328.887863,120819.000,20659,4,PG,1,100,12078
1570470328.929984,120852.000,20659,4,PG,1,100,12047
1570470328.972104,120885.000,20659,4,PG,1,100,11999
1570470329.011672,120916.000,20677,3,PG,1,100,11974
1570470329.051240,120947.000,20677,3,PG,1,100,11957
1570470329.090808,120978.000,20677,3,PG,1,100,11932
1570470329.129524,121008.333,20695,3,PG,1,100,11926
1570470329.168242,121038.667,20695,3,PG,1,100,11910
1570470329.206958,121069.000,20695,3,PG,1,100,11909
1570470329.246526,121100.000,20713,3,PG,1,100,11913
1570470329.286094,121131.000,20713,3,PG,1,100,11918
1570470329.325662,121162.000,20713,3,PG,1,100,11925
1570470329.367463,121194.750,20731,4,PG,1,100,11933
1570470329.409265,121227.500,20731,4,PG,1,100,11954
1570470329.451066,121260.250,20731,4,PG,1,100,11959
1570470329.492868,121293.000,20731,4,PG,1,100,11970
1570470329.530734,121322.667,20749,3,PG,1,100,11976
1570470329.568600,121352.333,20749,3,PG,1,100,11998
1570470329.606466,121382.000,20749,3,PG,1,100,12021
1570470329.645608,121412.667,20767,3,PG,1,100,12025
1570470329.684751,121443.333,20767,3,PG,1,100,12047
1570470329.723893,121474.000,20767,3,PG,1,100,12057
1570470329.768566,121509.000,20786,3,PG,1,100,12087
1570470329.813240,121544.000,20786,3,PG,1,100,12111
1570470329.857913,121579.000,20786,3,PG,1,100,12083
1570470329.895566,121608.500,20804,4,PG,1,100,12060
1570470329.933219,121638.000,20804,4,PG,1,100,12007
1570470329.970873,121667.500,20804,4,PG,1,100,11998
1570470330.008526,121697.000,20804,4,PG,1,100,12002
1570470330.047668,121727.667,20822,3,PG,1,100,11955
1570470330.086811,121758.333,20822,3,PG,1,100,11956
1570470330.125953,121789.000,20822,3,PG,1,100,11934
1570470330.171052,121824.333,20840,3,PG,1,100,11944
1570470330.216151,121859.667,20840,3,PG,1,100,11951
1570470330.261250,121895.000,20840,3,PG,1,100,11931
1570470330.299966,121925.333,20858,3,PG,1,100,11950
1570470330.338683,121955.667,20858,3,PG,1,100,11945
1570470330.377400,121986.000,20858,3,PG,1,100,11971
1570470330.414734,122015.250,20876,4,PG,1,100,12011
1570470330.452069,122044.500,20876,4,PG,1,100,11990
1570470330.489403,122073.750,20876,4,PG,1,100,12015
1570470330.526737,122103.000,20876,4,PG,1,100,12008
1570470330.570559,122137.333,20894,3,PG,1,100,12054
1570470330.614382,122171.667,20894,3,PG,1,100,12084
1570470330.658204,122206.000,20894,3,PG,1,100,12075
1570470330.697772,122237.000,20915,5,PG,1,100,12115
1570470330.737340,122268.000,20915,5,PG,1,100,12122
1570470330.776908,122299.000,20915,5,PG,1,100,12164
1570470330.816475,122330.000,20915,5,PG,1,100,12202
1570470330.856043,122361.000,20915,5,PG,1,100,12179
1570470330.894760,122391.333,20936,3,PG,1,100,12181
1570470330.933477,122421.667,20936,3,PG,1,100,12147
1570470330.972194,122452.000,20936,3,PG,1,100,12149
1570470331.011336,122482.667,20954,3,PG,1,100,12168
1570470331.050479,122513.333,20954,3,PG,1,100,12124
1570470331.089621,122544.000,20954,3,PG,1,100,12141
1570470331.128338,122574.333,20972,3,PG,1,100,12137
1570470331.167055,122604.667,20972,3,PG,1,100,12142
1570470331.205772,122635.000,20972,3,PG,1,100,12160
1570470331.247573,122667.750,20990,4,PG,1,100,12142
1570470331.289375,122700.500,20990,4,PG,1,100,12155
1570470331.331176,122733.250,20990,4,PG,1,100,12164
1570470331.372978,122766.000,20990,4,PG,1,100,12188
1570470331.411695,122796.333,21008,3,PG,1,100,12204
1570470331.450412,122826.667,21008,3,PG,1,100,12198
1570470331.489129,122857.000,21008,3,PG,1,100,12219
1570470331.527845,122887.333,21026,3,PG,1,100,12239
1570470331.566562,122917.667,21026,3,PG,1,100,12239
1570470331.605279,122948.000,21026,3,PG,1,100,12264
1570470331.643996,122978.333,21044,3,PG,1,100,12255
1570470331.682713,123008.667,21044,3,PG,1,100,12280
1570470331.721430,123039.000,21044,3,PG,1,100,12298
1570470331.762912,123071.500,21063,4,PG,1,100,12333
1570470331.804395,123104.000,21063,4,PG,1,100,12329
1570470331.845877,123136.500,21063,4,PG,1,100,12345
1570470331.887360,123169.000,21063,4,PG,1,100,12362
1570470331.926076,123199.333,21081,3,PG,1,100,12384
1570470331.964793,123229.667,21081,3,PG,1,100,12365
1570470332.003510,123260.000,21081,3,PG,1,100,12334
1570470332.043078,123291.000,21099,3,PG,1,100,12365
1570470332.082646,123322.000,21099,3,PG,1,100,12356
1570470332.122214,123353.000,21099,3,PG,1,100,12391
1570470332.167313,123388.333,21117,3,PG,1,100,12385
1570470332.212411,123423.667,21117,3,PG,1,100,12362
1570470332.257510,123459.000,21117,3,PG,1,100,12394
1570470332.294844,123488.250,21135,4,PG,1,100,12389
1570470332.332179,123517.500,21135,4,PG,1,100,12413
1570470332.369513,123546.750,21135,4,PG,1,100,12429
1570470332.406847,123576.000,21135,4,PG,1,100,12385
1570470332.445989,123606.667,21153,3,PG,1,100,12439
1570470332.485132,123637.333,21153,3,PG,1,100,12439
1570470332.524274,123668.000,21153,3,PG,1,100,12459
1570470332.568522,123702.667,21171,3,PG,1,100,12481
1570470332.612770,123737.333,21171,3,PG,1,100,12451
1570470332.657018,123772.000,21171,3,PG,1,100,12485
1570470332.695309,123802.000,21189,3,PG,1,100,12494
1570470332.733601,123832.000,21189,3,PG,1,100,12520
1570470332.771892,123862.000,21189,3,PG,1,100,12534
1570470332.809545,123891.500,21208,4,PG,1,100,12510
1570470332.847198,123921.000,21208,4,PG,1,100,12544
1570470332.884852,123950.500,21208,4,PG,1,100,12559
1570470332.922505,123980.000,21208,4,PG,1,100,12562
1570470332.964626,124013.000,21226,2,PG,1,100,12570
1570470333.006746,124046.000,21226,2,PG,1,100,12534
1570470333.048548,124078.750,21243,4,PG,1,100,12552
