EpochTimestamp,EmotiBitTimestamp,PacketNumber,DataLength,TypeTag,ProtocolVersion,DataReliability,T0
1570475223.882377,206260.000,35829,2,T0,1,100,26.349
1570475223.882377,206260.000,35829,2,T0,1,100,26.354
1570475224.016394,206365.000,35847,1,T0,1,100,26.311
1570475224.150411,206470.000,35864,1,T0,1,100,26.365
1570475224.283152,206574.000,35882,1,T0,1,100,26.360
1570475224.419722,206681.000,35900,1,T0,1,100,26.349
1570475224.553739,206786.000,35918,1,T0,1,100,26.370
1570475224.683927,206888.000,35937,1,T0,1,100,26.322
1570475224.817944,206993.000,35955,1,T0,1,100,26.354
1570475224.951961,207098.000,35989,1,T0,1,100,26.370
1570475225.084702,207202.000,36007,1,T0,1,100,26.386
1570475225.218719,207307.000,36025,1,T0,1,100,26.386
1570475225.355289,207414.000,36043,1,T0,1,100,26.338
1570475225.488029,207518.000,36061,1,T0,1,100,26.360
1570475225.619494,207621.000,36080,1,T0,1,100,26.349
1570475225.752235,207725.000,36098,1,T0,1,100,26.419
1570475225.883699,207828.000,36116,1,T0,1,100,26.376
1570475226.015164,207931.000,36134,1,T0,1,100,26.402
1570475226.147904,208035.000,36152,1,T0,1,100,26.381
1570475226.281921,208140.000,36170,1,T0,1,100,26.327
1570475226.414662,208244.000,36188,1,T0,1,100,26.365
1570475226.548679,208349.000,36206,1,T0,1,100,26.392
1570475226.680144,208452.000,36225,1,T0,1,100,26.386
1570475226.814161,208557.000,36243,1,T0,1,100,26.386
1570475226.945625,208660.000,36261,1,T0,1,100,26.386
1570475227.078366,208764.000,36279,1,T0,1,100,26.402
1570475227.213660,208870.000,36297,1,T0,1,100,26.381
1570475227.347677,208975.000,36315,1,T0,1,100,26.397
1570475227.480417,209079.000,36333,1,T0,1,100,26.440
1570475227.616987,209186.000,36351,1,T0,1,100,26.349
1570475227.751004,209291.000,36370,1,T0,1,100,26.397
1570475227.881192,209393.000,36388,1,T0,1,100,26.440
1570475228.015209,209498.000,36405,1,T0,1,100,26.402
1570475228.149226,209603.000,36423,1,T0,1,100,26.419
1570475228.281967,209707.000,36441,1,T0,1,100,26.413
1570475228.415984,209812.000,36459,1,T0,1,100,26.397
1570475228.552554,209919.000,36477,1,T0,1,100,26.424
1570475228.685295,210023.000,36495,1,T0,1,100,26.402
1570475228.818036,210127.000,36530,1,T0,1,100,26.397
1570475228.950777,210231.000,36548,1,T0,1,100,26.397
1570475229.083517,210335.000,36566,1,T0,1,100,26.419
1570475229.216258,210439.000,36584,1,T0,1,100,26.429
1570475229.350275,210544.000,36602,1,T0,1,100,26.413
1570475229.484292,210649.000,36621,1,T0,1,100,26.402
1570475229.617033,210753.000,36639,1,T0,1,100,26.413
1570475229.751050,210858.000,36658,1,T0,1,100,26.376
1570475229.881238,210960.000,36677,1,T0,1,100,26.402
1570475230.013979,211064.000,36695,1,T0,1,100,26.435
1570475230.145443,211167.000,36713,1,T0,1,100,26.386
1570475230.279460,211272.000,36734,2,T0,1,100,26.392
1570475230.413477,211377.000,36734,2,T0,1,100,26.402
1570475230.547495,211482.000,36754,1,T0,1,100,26.424
1570475230.680235,211586.000,36771,1,T0,1,100,26.429
1570475230.814252,211691.000,36790,1,T0,1,100,26.386
1570475230.948270,211796.000,36808,1,T0,1,100,26.397
1570475231.078458,211898.000,36826,1,T0,1,100,26.381
1570475231.212475,212003.000,36844,1,T0,1,100,26.386
1570475231.346492,212108.000,36862,1,T0,1,100,26.413
1570475231.479233,212212.000,36880,1,T0,1,100,26.408
1570475231.613250,212317.000,36914,1,T0,1,100,26.397
1570475231.749820,212424.000,36933,1,T0,1,100,26.408
1570475231.881284,212527.000,36951,1,T0,1,100,26.435
1570475232.014025,212631.000,36969,1,T0,1,100,26.413
1570475232.146765,212735.000,36987,1,T0,1,100,26.413
1570475232.279506,212839.000,37005,1,T0,1,100,26.429
1570475232.412247,212943.000,37023,1,T0,1,100,26.424
1570475232.546264,213048.000,37041,1,T0,1,100,26.424
1570475232.680281,213153.000,37059,1,T0,1,100,26.451
1570475232.813022,213257.000,37078,1,T0,1,100,26.445
1570475232.944486,213360.000,37096,1,T0,1,100,26.440
1570475233.075951,213463.000,37114,1,T0,1,100,26.451
1570475233.208692,213567.000,37132,1,T0,1,100,26.402
1570475233.341432,213671.000,37150,1,T0,1,100,26.424
1570475233.474173,213775.000,37168,1,T0,1,100,26.477
1570475233.610743,213882.000,37186,1,T0,1,100,26.445
1570475233.744760,213987.000,37205,1,T0,1,100,26.419
1570475233.878777,214092.000,37223,1,T0,1,100,26.472
1570475234.012794,214197.000,37241,1,T0,1,100,26.445
1570475234.146811,214302.000,37259,1,T0,1,100,26.440
1570475234.276999,214404.000,37277,1,T0,1,100,26.461
1570475234.411016,214509.000,37295,1,T0,1,100,26.445
1570475234.546310,214615.000,37313,1,T0,1,100,26.456
1570475234.679051,214719.000,37330,1,T0,1,100,26.445
1570475234.813068,214824.000,37349,1,T0,1,100,26.456
1570475234.948361,214930.000,37367,1,T0,1,100,26.494
1570475235.081102,215034.000,37385,1,T0,1,100,26.456
1570475235.213843,215138.000,37403,1,T0,1,100,26.451
1570475235.346584,215242.000,37421,1,T0,1,100,26.429
1570475235.480601,215347.000,37456,1,T0,1,100,26.451
1570475235.613341,215451.000,37473,1,T0,1,100,26.477
1570475235.747359,215556.000,37492,1,T0,1,100,26.456
1570475235.881376,215661.000,37510,1,T0,1,100,26.451
1570475236.014116,215765.000,37528,1,T0,1,100,26.467
1570475236.145581,215868.000,37546,1,T0,1,100,26.477
1570475236.277045,215971.000,37564,1,T0,1,100,26.472
1570475236.409786,216075.000,37582,1,T0,1,100,26.445
1570475236.543803,216180.000,37600,1,T0,1,100,26.515
1570475236.676544,216284.000,37618,1,T0,1,100,26.451
1570475236.811837,216390.000,37640,2,T0,1,100,26.477
1570475236.947131,216496.000,37640,2,T0,1,100,26.483
1570475237.078595,216599.000,37660,1,T0,1,100,26.499
1570475237.212612,216704.000,37677,1,T0,1,100,26.472
1570475237.346629,216809.000,37695,1,T0,1,100,26.488
1570475237.476817,216911.000,37713,1,T0,1,100,26.499
1570475237.610835,217016.000,37731,1,T0,1,100,26.461
1570475237.747404,217123.000,37749,1,T0,1,100,26.504
1570475237.880145,217227.000,37768,1,T0,1,100,26.504
1570475238.014162,217332.000,37786,1,T0,1,100,26.494
1570475238.146903,217436.000,37820,1,T0,1,100,26.510
1570475238.279644,217540.000,37838,1,T0,1,100,26.542
1570475238.412385,217644.000,37856,1,T0,1,100,26.472
1570475238.545125,217748.000,37874,1,T0,1,100,26.483
1570475238.679142,217853.000,37892,1,T0,1,100,26.483
1570475238.811883,217957.000,37911,1,T0,1,100,26.504
1570475238.945900,218062.000,37929,1,T0,1,100,26.488
1570475239.078641,218166.000,37947,1,T0,1,100,26.504
1570475239.211382,218270.000,37965,1,T0,1,100,26.499
1570475239.342846,218373.000,37983,1,T0,1,100,26.526
1570475239.474311,218476.000,38001,1,T0,1,100,26.520
1570475239.607051,218580.000,38019,1,T0,1,100,26.515
1570475239.741068,218685.000,38037,1,T0,1,100,26.504
1570475239.873809,218789.000,38056,1,T0,1,100,26.483
1570475240.010379,218896.000,38074,1,T0,1,100,26.520
1570475240.145673,219002.000,38092,1,T0,1,100,26.526
1570475240.275861,219104.000,38110,1,T0,1,100,26.542
1570475240.409878,219209.000,38128,1,T0,1,100,26.504
1570475240.543895,219314.000,38146,1,T0,1,100,26.526
1570475240.675359,219417.000,38164,1,T0,1,100,26.515
1570475240.809376,219522.000,38182,1,T0,1,100,26.504
1570475240.944670,219628.000,38201,1,T0,1,100,26.531
1570475241.077410,219732.000,38219,1,T0,1,100,26.531
1570475241.212704,219838.000,38236,1,T0,1,100,26.553
1570475241.345445,219942.000,38254,1,T0,1,100,26.504
1570475241.478185,220046.000,38272,1,T0,1,100,26.531
1570475241.610926,220150.000,38290,1,T0,1,100,26.531
1570475241.743667,220254.000,38308,1,T0,1,100,26.531
1570475241.877684,220359.000,38326,1,T0,1,100,26.563
1570475242.010425,220463.000,38345,1,T0,1,100,26.510
1570475242.144442,220568.000,38379,1,T0,1,100,26.547
1570475242.275906,220671.000,38397,1,T0,1,100,26.515
1570475242.408647,220775.000,38415,1,T0,1,100,26.542
1570475242.540112,220878.000,38433,1,T0,1,100,26.547
1570475242.671576,220981.000,38451,1,T0,1,100,26.553
1570475242.805593,221086.000,38469,1,T0,1,100,26.574
1570475242.939610,221191.000,38488,1,T0,1,100,26.558
1570475243.072351,221295.000,38506,1,T0,1,100,26.553
1570475243.208921,221402.000,38524,1,T0,1,100,26.558
1570475243.341023,221505.500,38545,2,T0,1,100,26.563
1570475243.473126,221609.000,38545,2,T0,1,100,26.536
1570475243.607143,221714.000,38565,1,T0,1,100,26.585
1570475243.741160,221819.000,38582,1,T0,1,100,26.569
1570475243.873901,221923.000,38600,1,T0,1,100,26.531
1570475244.007918,222028.000,38619,1,T0,1,100,26.558
1570475244.144488,222135.000,38637,1,T0,1,100,26.574
1570475244.277229,222239.000,38655,1,T0,1,100,26.601
1570475244.409969,222343.000,38689,1,T0,1,100,26.579
1570475244.542710,222447.000,38707,1,T0,1,100,26.553
1570475244.678004,222553.000,38725,1,T0,1,100,26.601
1570475244.809468,222656.000,38743,1,T0,1,100,26.574
1570475244.943485,222761.000,38762,1,T0,1,100,26.579
1570475245.078779,222867.000,38780,1,T0,1,100,26.574
1570475245.210243,222970.000,38798,1,T0,1,100,26.590
1570475245.342984,223074.000,38816,1,T0,1,100,26.569
1570475245.474448,223177.000,38834,1,T0,1,100,26.574
1570475245.605912,223280.000,38852,1,T0,1,100,26.553
1570475245.737377,223383.000,38870,1,T0,1,100,26.558
1570475245.870118,223487.000,38888,1,T0,1,100,26.585
1570475246.004135,223592.000,38907,1,T0,1,100,26.590
1570475246.136876,223696.000,38925,1,T0,1,100,26.569
1570475246.270893,223801.000,38943,1,T0,1,100,26.601
1570475246.403633,223905.000,38961,1,T0,1,100,26.601
1570475246.537651,224010.000,38979,1,T0,1,100,26.579
1570475246.669115,224113.000,38997,1,T0,1,100,26.579
1570475246.801856,224217.000,39015,1,T0,1,100,26.574
1570475246.935873,224322.000,39033,1,T0,1,100,26.579
1570475247.069890,224427.000,39052,1,T0,1,100,26.622
1570475247.202631,224531.000,39070,1,T0,1,100,26.601
1570475247.339200,224638.000,39088,1,T0,1,100,26.633
1570475247.473217,224743.000,39106,1,T0,1,100,26.612
1570475247.604682,224846.000,39123,1,T0,1,100,26.654
1570475247.738699,224951.000,39141,1,T0,1,100,26.595
1570475247.873993,225057.000,39159,1,T0,1,100,26.633
1570475248.005457,225160.000,39177,1,T0,1,100,26.595
1570475248.139474,225265.000,39196,1,T0,1,100,26.612
1570475248.274768,225371.000,39214,1,T0,1,100,26.622
1570475248.406232,225474.000,39232,1,T0,1,100,26.622
1570475248.538973,225578.000,39266,1,T0,1,100,26.665
1570475248.671714,225682.000,39284,1,T0,1,100,26.644
1570475248.803178,225785.000,39302,1,T0,1,100,26.654
1570475248.934642,225888.000,39321,1,T0,1,100,26.644
1570475249.068659,225993.000,39339,1,T0,1,100,26.622
1570475249.202677,226098.000,39357,1,T0,1,100,26.633
1570475249.335417,226202.000,39375,1,T0,1,100,26.654
1570475249.469434,226307.000,39393,1,T0,1,100,26.649
1570475249.600899,226410.000,39411,1,T0,1,100,26.649
1570475249.734916,226515.000,39429,1,T0,1,100,26.644
1570475249.867018,226618.500,39450,2,T0,1,100,26.638
1570475249.999121,226722.000,39450,2,T0,1,100,26.612
1570475250.133138,226827.000,39471,1,T0,1,100,26.649
1570475250.267155,226932.000,39489,1,T0,1,100,26.633
1570475250.399896,227036.000,39506,1,T0,1,100,26.638
1570475250.535189,227142.000,39524,1,T0,1,100,26.665
1570475250.670483,227248.000,39542,1,T0,1,100,26.649
1570475250.801947,227351.000,39560,1,T0,1,100,26.644
1570475250.935965,227456.000,39578,1,T0,1,100,26.692
1570475251.071258,227562.000,39613,1,T0,1,100,26.654
1570475251.202722,227665.000,39631,1,T0,1,100,26.644
1570475251.336740,227770.000,39648,1,T0,1,100,26.665
1570475251.472033,227876.000,39666,1,T0,1,100,26.660
1570475251.603497,227979.000,39684,1,T0,1,100,26.654
1570475251.734962,228082.000,39702,1,T0,1,100,26.665
1570475251.867702,228186.000,39720,1,T0,1,100,26.681
1570475251.999167,228289.000,39739,1,T0,1,100,26.681
1570475252.131908,228393.000,39757,1,T0,1,100,26.671
1570475252.265925,228498.000,39775,1,T0,1,100,26.644
1570475252.399942,228603.000,39793,1,T0,1,100,26.660
1570475252.532683,228707.000,39811,1,T0,1,100,26.676
1570475252.666700,228812.000,39829,1,T0,1,100,26.638
1570475252.798164,228915.000,39847,1,T0,1,100,26.681
1570475252.932181,229020.000,39865,1,T0,1,100,26.687
1570475253.063646,229123.000,39884,1,T0,1,100,26.665
1570475253.196386,229227.000,39902,1,T0,1,100,26.676
1570475253.332956,229334.000,39920,1,T0,1,100,26.687
1570475253.466973,229439.000,39938,1,T0,1,100,26.676
1570475253.599714,229543.000,39956,1,T0,1,100,26.703
1570475253.735008,229649.000,39974,1,T0,1,100,26.697
1570475253.870301,229755.000,39992,1,T0,1,100,26.660
1570475254.001765,229858.000,40010,1,T0,1,100,26.671
1570475254.135782,229963.000,40029,1,T0,1,100,26.735
1570475254.271076,230069.000,40046,1,T0,1,100,26.719
1570475254.402540,230172.000,40064,1,T0,1,100,26.692
1570475254.536557,230277.000,40082,1,T0,1,100,26.703
1570475254.671851,230383.000,40100,1,T0,1,100,26.692
1570475254.803315,230486.000,40118,1,T0,1,100,26.697
1570475254.934780,230589.000,40136,1,T0,1,100,26.676
1570475255.067521,230693.000,40171,1,T0,1,100,26.735
1570475255.198985,230796.000,40189,1,T0,1,100,26.730
1570475255.331726,230900.000,40206,1,T0,1,100,26.730
1570475255.465743,231005.000,40224,1,T0,1,100,26.692
1570475255.599760,231110.000,40242,1,T0,1,100,26.687
1570475255.732501,231214.000,40260,1,T0,1,100,26.697
1570475255.863965,231317.000,40278,1,T0,1,100,26.713
1570475255.996706,231421.000,40296,1,T0,1,100,26.660
1570475256.130723,231526.000,40315,1,T0,1,100,26.730
1570475256.263464,231630.000,40333,1,T0,1,100,26.730
1570475256.398119,231735.500,40354,2,T0,1,100,26.730
1570475256.532774,231841.000,40354,2,T0,1,100,26.703
1570475256.666791,231946.000,40374,1,T0,1,100,26.703
1570475256.799532,232050.000,40391,1,T0,1,100,26.735
1570475256.933549,232155.000,40409,1,T0,1,100,26.713
1570475257.068843,232261.000,40427,1,T0,1,100,26.719
1570475257.200307,232364.000,40446,1,T0,1,100,26.730
1570475257.334324,232469.000,40464,1,T0,1,100,26.676
1570475257.469618,232575.000,40498,1,T0,1,100,26.724
1570475257.601082,232678.000,40516,1,T0,1,100,26.713
1570475257.735099,232783.000,40534,1,T0,1,100,26.746
1570475257.867840,232887.000,40552,1,T0,1,100,26.730
1570475257.999305,232990.000,40570,1,T0,1,100,26.724
1570475258.130769,233093.000,40589,1,T0,1,100,26.724
1570475258.263510,233197.000,40607,1,T0,1,100,26.719
1570475258.396250,233301.000,40625,1,T0,1,100,26.740
1570475258.528991,233405.000,40643,1,T0,1,100,26.735
1570475258.663008,233510.000,40661,1,T0,1,100,26.724
1570475258.797025,233615.000,40679,1,T0,1,100,26.746
1570475258.931042,233720.000,40697,1,T0,1,100,26.756
1570475259.062507,233823.000,40715,1,T0,1,100,26.746
1570475259.195248,233927.000,40734,1,T0,1,100,26.730
1570475259.329265,234032.000,40752,1,T0,1,100,26.767
1570475259.463282,234137.000,40770,1,T0,1,100,26.762
1570475259.596023,234241.000,40788,1,T0,1,100,26.762
1570475259.732592,234348.000,40806,1,T0,1,100,26.767
1570475259.866610,234453.000,40824,1,T0,1,100,26.751
1570475259.999350,234557.000,40842,1,T0,1,100,26.751
1570475260.133367,234662.000,40860,1,T0,1,100,26.762
1570475260.268661,234768.000,40879,1,T0,1,100,26.778
1570475260.400125,234871.000,40897,1,T0,1,100,26.762
1570475260.534142,234976.000,40914,1,T0,1,100,26.719
1570475260.669436,235082.000,40932,1,T0,1,100,26.789
1570475260.800900,235185.000,40950,1,T0,1,100,26.751
1570475260.934917,235290.000,40968,1,T0,1,100,26.762
1570475261.066382,235393.000,40986,1,T0,1,100,26.783
1570475261.197846,235496.000,41004,1,T0,1,100,26.772
1570475261.329311,235599.000,41023,1,T0,1,100,26.767
1570475261.462051,235703.000,41057,1,T0,1,100,26.794
1570475261.596068,235808.000,41075,1,T0,1,100,26.751
1570475261.728809,235912.000,41093,1,T0,1,100,26.751
1570475261.862826,236017.000,41111,1,T0,1,100,26.805
1570475261.995567,236121.000,41129,1,T0,1,100,26.805
1570475262.129584,236226.000,41147,1,T0,1,100,26.778
1570475262.261049,236329.000,41166,1,T0,1,100,26.778
1570475262.393789,236433.000,41184,1,T0,1,100,26.810
1570475262.527807,236538.000,41202,1,T0,1,100,26.751
1570475262.661824,236643.000,41220,1,T0,1,100,26.762
1570475262.794564,236747.000,41238,1,T0,1,100,26.789
1570475262.929858,236853.000,41259,2,T0,1,100,26.767
1570475263.065151,236959.000,41259,2,T0,1,100,26.762
1570475263.196616,237062.000,41279,1,T0,1,100,26.815
1570475263.330633,237167.000,41298,1,T0,1,100,26.815
1570475263.465926,237273.000,41316,1,T0,1,100,26.810
1570475263.597391,237376.000,41334,1,T0,1,100,26.794
1570475263.731408,237481.000,41352,1,T0,1,100,26.794
1570475263.866701,237587.000,41386,1,T0,1,100,26.789
1570475263.998166,237690.000,41404,1,T0,1,100,26.778
1570475264.130906,237794.000,41422,1,T0,1,100,26.762
1570475264.263647,237898.000,41441,1,T0,1,100,26.783
1570475264.395112,238001.000,41459,1,T0,1,100,26.767
1570475264.526576,238104.000,41477,1,T0,1,100,26.794
1570475264.659317,238208.000,41495,1,T0,1,100,26.815
1570475264.793334,238313.000,41513,1,T0,1,100,26.831
1570475264.926075,238417.000,41531,1,T0,1,100,26.762
1570475265.060092,238522.000,41549,1,T0,1,100,26.805
1570475265.192832,238626.000,41567,1,T0,1,100,26.810
1570475265.326849,238731.000,41586,1,T0,1,100,26.799
1570475265.458314,238834.000,41604,1,T0,1,100,26.799
1570475265.591055,238938.000,41622,1,T0,1,100,26.767
1570475265.725072,239043.000,41640,1,T0,1,100,26.826
1570475265.859089,239148.000,41658,1,T0,1,100,26.794
1570475265.991830,239252.000,41676,1,T0,1,100,26.794
1570475266.128399,239359.000,41694,1,T0,1,100,26.799
1570475266.263693,239465.000,41713,1,T0,1,100,26.842
1570475266.395157,239568.000,41731,1,T0,1,100,26.794
1570475266.529175,239673.000,41749,1,T0,1,100,26.810
1570475266.664468,239779.000,41767,1,T0,1,100,26.794
1570475266.795932,239882.000,41785,1,T0,1,100,26.837
1570475266.929950,239987.000,41803,1,T0,1,100,26.821
1570475267.065243,240093.000,41820,1,T0,1,100,26.810
1570475267.197984,240197.000,41838,1,T0,1,100,26.848
1570475267.329448,240300.000,41857,1,T0,1,100,26.805
1570475267.462189,240404.000,41875,1,T0,1,100,26.842
1570475267.593653,240507.000,41893,1,T0,1,100,26.805
1570475267.726394,240611.000,41911,1,T0,1,100,26.831
1570475267.860411,240716.000,41945,1,T0,1,100,26.837
1570475267.994428,240821.000,41963,1,T0,1,100,26.837
1570475268.127169,240925.000,41981,1,T0,1,100,26.842
1570475268.261186,241030.000,42000,1,T0,1,100,26.848
1570475268.392650,241133.000,42018,1,T0,1,100,26.842
1570475268.526668,241238.000,42036,1,T0,1,100,26.783
1570475268.658132,241341.000,42054,1,T0,1,100,26.848
1570475268.790873,241445.000,42072,1,T0,1,100,26.885
1570475268.927443,241552.000,42090,1,T0,1,100,26.864
1570475269.061460,241657.000,42108,1,T0,1,100,26.826
1570475269.194201,241761.000,42126,1,T0,1,100,26.831
1570475269.328218,241866.000,42145,1,T0,1,100,26.831
1570475269.461596,241970.500,42166,2,T0,1,100,26.821
1570475269.594975,242075.000,42166,2,T0,1,100,26.805
1570475269.728992,242180.000,42186,1,T0,1,100,26.826
1570475269.864286,242286.000,42204,1,T0,1,100,26.853
1570475269.995750,242389.000,42222,1,T0,1,100,26.858
1570475270.129767,242494.000,42240,1,T0,1,100,26.890
1570475270.265061,242600.000,42275,1,T0,1,100,26.864
1570475270.395249,242702.000,42293,1,T0,1,100,26.837
1570475270.526713,242805.000,42311,1,T0,1,100,26.837
1570475270.659454,242909.000,42329,1,T0,1,100,26.901
1570475270.790919,243012.000,42347,1,T0,1,100,26.858
1570475270.923659,243116.000,42365,1,T0,1,100,26.848
1570475271.057677,243221.000,42383,1,T0,1,100,26.858
1570475271.191694,243326.000,42401,1,T0,1,100,26.880
1570475271.324434,243430.000,42420,1,T0,1,100,26.869
1570475271.457175,243534.000,42438,1,T0,1,100,26.858
1570475271.589916,243638.000,42456,1,T0,1,100,26.880
1570475271.723933,243743.000,42474,1,T0,1,100,26.885
1570475271.856674,243847.000,42492,1,T0,1,100,26.880
1570475271.989414,243951.000,42510,1,T0,1,100,26.864
1570475272.125984,244058.000,42528,1,T0,1,100,26.858
1570475272.260001,244163.000,42546,1,T0,1,100,26.874
1570475272.394018,244268.000,42565,1,T0,1,100,26.842
1570475272.528036,244373.000,42583,1,T0,1,100,26.885
1570475272.663329,244479.000,42601,1,T0,1,100,26.890
1570475272.794794,244582.000,42619,1,T0,1,100,26.869
1570475272.928811,244687.000,42637,1,T0,1,100,26.869
1570475273.064104,244793.000,42655,1,T0,1,100,26.874
1570475273.195569,244896.000,42673,1,T0,1,100,26.864
1570475273.329586,245001.000,42690,1,T0,1,100,26.890
1570475273.463603,245106.000,42709,1,T0,1,100,26.901
1570475273.595067,245209.000,42727,1,T0,1,100,26.874
1570475273.726532,245312.000,42745,1,T0,1,100,26.880
1570475273.859272,245416.000,42763,1,T0,1,100,26.885
1570475273.992013,245520.000,42781,1,T0,1,100,26.885
1570475274.124754,245624.000,42799,1,T0,1,100,26.874
1570475274.258771,245729.000,42833,1,T0,1,100,26.848
1570475274.392788,245834.000,42852,1,T0,1,100,26.890
1570475274.526805,245939.000,42870,1,T0,1,100,26.885
1570475274.658269,246042.000,42888,1,T0,1,100,26.901
1570475274.791010,246146.000,42906,1,T0,1,100,26.869
1570475274.925027,246251.000,42924,1,T0,1,100,26.885
1570475275.057768,246355.000,42942,1,T0,1,100,26.901
1570475275.190509,246459.000,42960,1,T0,1,100,26.826
1570475275.327079,246566.000,42978,1,T0,1,100,26.906
1570475275.461096,246671.000,42997,1,T0,1,100,26.896
1570475275.593837,246775.000,43015,1,T0,1,100,26.885
1570475275.727854,246880.000,43033,1,T0,1,100,26.890
1570475275.863147,246986.000,43051,1,T0,1,100,26.928
1570475275.995888,247090.000,43072,2,T0,1,100,26.901
1570475276.128629,247194.000,43072,2,T0,1,100,26.869
1570475276.263922,247300.000,43092,1,T0,1,100,26.896
1570475276.395386,247403.000,43110,1,T0,1,100,26.906
1570475276.529404,247508.000,43129,1,T0,1,100,26.890
1570475276.660868,247611.000,43163,1,T0,1,100,26.928
1570475276.792332,247714.000,43181,1,T0,1,100,26.939
1570475276.923797,247817.000,43198,1,T0,1,100,26.885
1570475277.056538,247921.000,43216,1,T0,1,100,26.874
1570475277.189278,248025.000,43234,1,T0,1,100,26.896
1570475277.322019,248129.000,43252,1,T0,1,100,26.928
1570475277.456036,248234.000,43271,1,T0,1,100,26.880
1570475277.590053,248339.000,43289,1,T0,1,100,26.923
1570475277.724071,248444.000,43307,1,T0,1,100,26.928
1570475277.855535,248547.000,43325,1,T0,1,100,26.923
1570475277.988276,248651.000,43343,1,T0,1,100,26.912
1570475278.122293,248756.000,43361,1,T0,1,100,26.880
1570475278.256310,248861.000,43379,1,T0,1,100,26.906
1570475278.389051,248965.000,43397,1,T0,1,100,26.944
1570475278.525620,249072.000,43416,1,T0,1,100,26.949
1570475278.660914,249178.000,43434,1,T0,1,100,26.906
1570475278.792378,249281.000,43452,1,T0,1,100,26.928
1570475278.926395,249386.000,43470,1,T0,1,100,26.939
1570475279.061689,249492.000,43488,1,T0,1,100,26.917
1570475279.193153,249595.000,43506,1,T0,1,100,26.960
1570475279.327170,249700.000,43524,1,T0,1,100,26.971
1570475279.462464,249806.000,43542,1,T0,1,100,26.890
1570475279.593928,249909.000,43561,1,T0,1,100,26.912
1570475279.727945,250014.000,43579,1,T0,1,100,26.912
1570475279.860686,250118.000,43596,1,T0,1,100,26.965
1570475279.992151,250221.000,43614,1,T0,1,100,26.912
1570475280.123615,250324.000,43632,1,T0,1,100,26.944
1570475280.256356,250428.000,43650,1,T0,1,100,26.965
1570475280.390373,250533.000,43668,1,T0,1,100,26.960
1570475280.523113,250637.000,43686,1,T0,1,100,26.933
1570475280.657131,250742.000,43721,1,T0,1,100,26.923
1570475280.788595,250845.000,43739,1,T0,1,100,26.923
1570475280.922612,250950.000,43757,1,T0,1,100,26.982
1570475281.054077,251053.000,43775,1,T0,1,100,26.976
1570475281.186817,251157.000,43793,1,T0,1,100,26.960
1570475281.320834,251262.000,43811,1,T0,1,100,26.982
1570475281.454852,251367.000,43830,1,T0,1,100,26.965
1570475281.587592,251471.000,43848,1,T0,1,100,26.949
1570475281.724162,251578.000,43866,1,T0,1,100,26.976
1570475281.858179,251683.000,43884,1,T0,1,100,26.982
1570475281.989644,251786.000,43902,1,T0,1,100,26.917
1570475282.123661,251891.000,43920,1,T0,1,100,26.933
1570475282.258954,251997.000,43938,1,T0,1,100,26.965
1570475282.390419,252100.000,43956,1,T0,1,100,26.960
1570475282.525074,252205.500,43978,2,T0,1,100,26.987
1570475282.659729,252311.000,43978,2,T0,1,100,26.976
1570475282.791194,252414.000,43998,1,T0,1,100,26.949
1570475282.922658,252517.000,44032,1,T0,1,100,26.960
1570475283.055399,252621.000,44050,1,T0,1,100,27.008
1570475283.186863,252724.000,44068,1,T0,1,100,26.955
1570475283.318328,252827.000,44086,1,T0,1,100,26.982
1570475283.452345,252932.000,44104,1,T0,1,100,26.971
1570475283.585085,253036.000,44123,1,T0,1,100,26.982
1570475283.717826,253140.000,44141,1,T0,1,100,26.960
1570475283.853120,253246.000,44159,1,T0,1,100,26.982
1570475283.984584,253349.000,44177,1,T0,1,100,26.971
1570475284.118601,253454.000,44195,1,T0,1,100,26.987
1570475284.250066,253557.000,44213,1,T0,1,100,27.014
1570475284.382806,253661.000,44231,1,T0,1,100,26.982
1570475284.518100,253767.000,44250,1,T0,1,100,26.998
1570475284.652117,253872.000,44268,1,T0,1,100,26.992
1570475284.784858,253976.000,44286,1,T0,1,100,26.976
1570475284.920151,254082.000,44304,1,T0,1,100,26.982
1570475285.055445,254188.000,44322,1,T0,1,100,27.019
1570475285.186909,254291.000,44340,1,T0,1,100,27.008
1570475285.320926,254396.000,44358,1,T0,1,100,27.030
1570475285.456220,254502.000,44376,1,T0,1,100,27.024
1570475285.587684,254605.000,44395,1,T0,1,100,27.024
1570475285.721701,254710.000,44413,1,T0,1,100,27.008
1570475285.856995,254816.000,44431,1,T0,1,100,27.008
1570475285.988459,254919.000,44448,1,T0,1,100,26.982
1570475286.119923,255022.000,44466,1,T0,1,100,26.982
1570475286.252664,255126.000,44484,1,T0,1,100,26.998
1570475286.384129,255229.000,44502,1,T0,1,100,26.998
1570475286.516869,255333.000,44520,1,T0,1,100,26.998
1570475286.650887,255438.000,44539,1,T0,1,100,26.987
1570475286.784904,255543.000,44557,1,T0,1,100,26.965
1570475286.917644,255647.000,44575,1,T0,1,100,26.965
1570475287.050385,255751.000,44609,1,T0,1,100,27.019
1570475287.183126,255855.000,44627,1,T0,1,100,27.008
1570475287.317143,255960.000,44645,1,T0,1,100,27.014
1570475287.448607,256063.000,44663,1,T0,1,100,27.003
1570475287.581348,256167.000,44682,1,T0,1,100,27.014
1570475287.717918,256274.000,44700,1,T0,1,100,27.014
1570475287.851935,256379.000,44718,1,T0,1,100,27.014
1570475287.984676,256483.000,44736,1,T0,1,100,27.041
1570475288.118693,256588.000,44754,1,T0,1,100,27.041
1570475288.253986,256694.000,44772,1,T0,1,100,26.998
1570475288.385451,256797.000,44790,1,T0,1,100,27.014
1570475288.519468,256902.000,44808,1,T0,1,100,26.982
1570475288.654761,257008.000,44827,1,T0,1,100,27.008
1570475288.786226,257111.000,44845,1,T0,1,100,27.003
1570475288.920243,257216.000,44863,1,T0,1,100,27.008
1570475289.052984,257320.000,44884,2,T0,1,100,27.003
1570475289.185724,257424.000,44884,2,T0,1,100,27.014
1570475289.317189,257527.000,44904,1,T0,1,100,27.019
1570475289.449291,257630.500,44938,2,T0,1,100,27.030
1570475289.581394,257734.000,44938,2,T0,1,100,27.057
1570475289.714135,257838.000,44973,1,T0,1,100,27.019
1570475289.848152,257943.000,44991,1,T0,1,100,27.041
1570475289.982169,258048.000,45009,1,T0,1,100,27.051
1570475290.117462,258154.000,45027,1,T0,1,100,27.003
1570475290.248927,258257.000,45045,1,T0,1,100,27.024
1570475290.381668,258361.000,45063,1,T0,1,100,27.062
1570475290.515685,258466.000,45081,1,T0,1,100,27.062
1570475290.648425,258570.000,45100,1,T0,1,100,27.008
1570475290.781166,258674.000,45118,1,T0,1,100,27.019
1570475290.917736,258781.000,45136,1,T0,1,100,27.046
1570475291.051753,258886.000,45154,1,T0,1,100,27.008
1570475291.185770,258991.000,45172,1,T0,1,100,27.035
1570475291.319787,259096.000,45190,1,T0,1,100,27.019
1570475291.455081,259202.000,45208,1,T0,1,100,27.057
1570475291.586545,259305.000,45226,1,T0,1,100,27.062
1570475291.720562,259410.000,45245,1,T0,1,100,27.046
1570475291.855856,259516.000,45263,1,T0,1,100,27.062
1570475291.987320,259619.000,45281,1,T0,1,100,27.019
1570475292.121337,259724.000,45299,1,T0,1,100,27.057
1570475292.254078,259828.000,45317,1,T0,1,100,27.051
1570475292.385542,259931.000,45335,1,T0,1,100,27.094
1570475292.517007,260034.000,45353,1,T0,1,100,27.024
1570475292.649748,260138.000,45370,1,T0,1,100,27.046
1570475292.782488,260242.000,45389,1,T0,1,100,27.057
1570475292.915229,260346.000,45407,1,T0,1,100,27.046
1570475293.049246,260451.000,45425,1,T0,1,100,27.057
1570475293.183263,260556.000,45443,1,T0,1,100,27.078
1570475293.317281,260661.000,45461,1,T0,1,100,27.035
1570475293.448745,260764.000,45479,1,T0,1,100,27.051
1570475293.581486,260868.000,45513,1,T0,1,100,27.067
1570475293.715503,260973.000,45532,1,T0,1,100,27.094
1570475293.849520,261078.000,45550,1,T0,1,100,27.067
1570475293.982261,261182.000,45568,1,T0,1,100,27.057
1570475294.118830,261289.000,45586,1,T0,1,100,27.041
1570475294.252847,261394.000,45604,1,T0,1,100,27.051
1570475294.383036,261496.000,45622,1,T0,1,100,27.057
1570475294.517053,261601.000,45640,1,T0,1,100,27.094
1570475294.651070,261706.000,45658,1,T0,1,100,27.062
1570475294.782534,261809.000,45677,1,T0,1,100,27.062
1570475294.916551,261914.000,45695,1,T0,1,100,27.094
1570475295.053121,262021.000,45713,1,T0,1,100,27.073
1570475295.185862,262125.000,45731,1,T0,1,100,27.116
1570475295.318603,262229.000,45749,1,T0,1,100,27.110
1570475295.451344,262333.000,45767,1,T0,1,100,27.078
1570475295.582808,262436.000,45788,2,T0,1,100,27.094
1570475295.714272,262539.000,45788,2,T0,1,100,27.105
1570475295.847013,262643.000,45809,1,T0,1,100,27.083
1570475295.981030,262748.000,45844,1,T0,1,100,27.078
1570475296.113771,262852.000,45861,1,T0,1,100,27.089
1570475296.247788,262957.000,45879,1,T0,1,100,27.110
1570475296.380529,263061.000,45897,1,T0,1,100,27.073
1570475296.514546,263166.000,45915,1,T0,1,100,27.110
1570475296.646010,263269.000,45933,1,T0,1,100,27.132
1570475296.778751,263373.000,45952,1,T0,1,100,27.073
1570475296.912768,263478.000,45970,1,T0,1,100,27.159
1570475297.046785,263583.000,45988,1,T0,1,100,27.132
1570475297.179526,263687.000,46006,1,T0,1,100,27.142
1570475297.316096,263794.000,46024,1,T0,1,100,27.132
1570475297.450113,263899.000,46042,1,T0,1,100,27.089
1570475297.580301,264001.000,46060,1,T0,1,100,27.126
1570475297.714318,264106.000,46078,1,T0,1,100,27.121
1570475297.848335,264211.000,46097,1,T0,1,100,27.073
1570475297.981076,264315.000,46115,1,T0,1,100,27.121
1570475298.115093,264420.000,46133,1,T0,1,100,27.078
1570475298.251663,264527.000,46151,1,T0,1,100,27.089
1570475298.384404,264631.000,46169,1,T0,1,100,27.126
1570475298.517144,264735.000,46187,1,T0,1,100,27.126
1570475298.649885,264839.000,46205,1,T0,1,100,27.132
1570475298.781350,264942.000,46223,1,T0,1,100,27.126
1570475298.912814,265045.000,46242,1,T0,1,100,27.148
1570475299.046831,265150.000,46260,1,T0,1,100,27.121
1570475299.180848,265255.000,46277,1,T0,1,100,27.116
1570475299.313589,265359.000,46295,1,T0,1,100,27.089
1570475299.448882,265465.000,46313,1,T0,1,100,27.105
1570475299.580347,265568.000,46331,1,T0,1,100,27.116
1570475299.714364,265673.000,46349,1,T0,1,100,27.116
1570475299.845828,265776.000,46368,1,T0,1,100,27.142
1570475299.978569,265880.000,46402,1,T0,1,100,27.126
1570475300.112586,265985.000,46420,1,T0,1,100,27.137
1570475300.246603,266090.000,46438,1,T0,1,100,27.100
1570475300.379344,266194.000,46456,1,T0,1,100,27.094
1570475300.514637,266300.000,46474,1,T0,1,100,27.126
1570475300.648655,266405.000,46492,1,T0,1,100,27.148
1570475300.778843,266507.000,46511,1,T0,1,100,27.126
1570475300.912860,266612.000,46529,1,T0,1,100,27.153
1570475301.046877,266717.000,46547,1,T0,1,100,27.169
1570475301.179618,266821.000,46565,1,T0,1,100,27.116
1570475301.313635,266926.000,46583,1,T0,1,100,27.105
1570475301.450205,267033.000,46601,1,T0,1,100,27.153
1570475301.581669,267136.000,46619,1,T0,1,100,27.153
1570475301.713133,267239.000,46637,1,T0,1,100,27.132
1570475301.845874,267343.000,46656,1,T0,1,100,27.164
1570475301.977339,267446.000,46674,1,T0,1,100,27.153
1570475302.110718,267550.500,46695,2,T0,1,100,27.142
1570475302.244097,267655.000,46695,2,T0,1,100,27.110
1570475302.378114,267760.000,46731,1,T0,1,100,27.121
1570475302.510854,267864.000,46749,1,T0,1,100,27.126
1570475302.644871,267969.000,46767,1,T0,1,100,27.180
1570475302.776336,268072.000,46786,1,T0,1,100,27.110
1570475302.910353,268177.000,46804,1,T0,1,100,27.159
1570475303.041817,268280.000,46822,1,T0,1,100,27.132
1570475303.174558,268384.000,46840,1,T0,1,100,27.191
1570475303.311128,268491.000,46858,1,T0,1,100,27.137
1570475303.445145,268596.000,46876,1,T0,1,100,27.153
1570475303.577886,268700.000,46894,1,T0,1,100,27.175
1570475303.713179,268806.000,46912,1,T0,1,100,27.169
1570475303.847196,268911.000,46931,1,T0,1,100,27.164
1570475303.977384,269013.000,46949,1,T0,1,100,27.164
1570475304.111402,269118.000,46967,1,T0,1,100,27.153
1570475304.245419,269223.000,46985,1,T0,1,100,27.153
1570475304.378159,269327.000,47003,1,T0,1,100,27.153
1570475304.512177,269432.000,47021,1,T0,1,100,27.159
1570475304.648746,269539.000,47039,1,T0,1,100,27.196
1570475304.780211,269642.000,47057,1,T0,1,100,27.159
1570475304.911675,269745.000,47076,1,T0,1,100,27.196
1570475305.044416,269849.000,47094,1,T0,1,100,27.191
1570475305.175880,269952.000,47112,1,T0,1,100,27.159
1570475305.308621,270056.000,47130,1,T0,1,100,27.196
1570475305.442638,270161.000,47147,1,T0,1,100,27.191
1570475305.576655,270266.000,47165,1,T0,1,100,27.180
1570475305.709396,270370.000,47183,1,T0,1,100,27.142
1570475305.840860,270473.000,47201,1,T0,1,100,27.164
1570475305.972325,270576.000,47220,1,T0,1,100,27.212
1570475306.106342,270681.000,47238,1,T0,1,100,27.180
1570475306.240359,270786.000,47256,1,T0,1,100,27.201
1570475306.373100,270890.000,47290,1,T0,1,100,27.196
1570475306.509670,270997.000,47308,1,T0,1,100,27.196
1570475306.643687,271102.000,47326,1,T0,1,100,27.175
1570475306.776428,271206.000,47344,1,T0,1,100,27.196
1570475306.910444,271311.000,47363,1,T0,1,100,27.175
1570475307.044462,271416.000,47381,1,T0,1,100,27.164
1570475307.174650,271518.000,47399,1,T0,1,100,27.185
1570475307.308667,271623.000,47417,1,T0,1,100,27.239
1570475307.443960,271729.000,47435,1,T0,1,100,27.218
1570475307.576701,271833.000,47453,1,T0,1,100,27.207
1570475307.710718,271938.000,47471,1,T0,1,100,27.234
1570475307.844735,272043.000,47489,1,T0,1,100,27.196
1570475307.976200,272146.000,47508,1,T0,1,100,27.218
1570475308.107664,272249.000,47526,1,T0,1,100,27.201
1570475308.240405,272353.000,47544,1,T0,1,100,27.223
1570475308.373146,272457.000,47562,1,T0,1,100,27.191
1570475308.505886,272561.000,47580,1,T0,1,100,27.196
1570475308.639904,272666.000,47601,2,T0,1,100,27.212
1570475308.773921,272771.000,47601,2,T0,1,100,27.175
1570475308.906662,272875.000,47638,1,T0,1,100,27.223
1570475309.038126,272978.000,47656,1,T0,1,100,27.196
1570475309.170866,273082.000,47674,1,T0,1,100,27.201
1570475309.304884,273187.000,47692,1,T0,1,100,27.201
1570475309.438901,273292.000,47710,1,T0,1,100,27.212
1570475309.571641,273396.000,47728,1,T0,1,100,27.185
1570475309.708211,273503.000,47746,1,T0,1,100,27.212
1570475309.842228,273608.000,47764,1,T0,1,100,27.207
1570475309.973693,273711.000,47783,1,T0,1,100,27.191
1570475310.107710,273816.000,47801,1,T0,1,100,27.228
1570475310.241727,273921.000,47819,1,T0,1,100,27.223
1570475310.373192,274024.000,47837,1,T0,1,100,27.228
1570475310.507209,274129.000,47855,1,T0,1,100,27.244
1570475310.643778,274236.000,47873,1,T0,1,100,27.266
1570475310.776519,274340.000,47891,1,T0,1,100,27.223
1570475310.910536,274445.000,47909,1,T0,1,100,27.218
1570475311.043277,274549.000,47928,1,T0,1,100,27.228
1570475311.174742,274652.000,47946,1,T0,1,100,27.250
1570475311.306206,274755.000,47964,1,T0,1,100,27.266
1570475311.438947,274859.000,47982,1,T0,1,100,27.228
1570475311.572964,274964.000,48000,1,T0,1,100,27.234
1570475311.705704,275068.000,48018,1,T0,1,100,27.244
1570475311.839722,275173.000,48036,1,T0,1,100,27.207
1570475311.972462,275277.000,48053,1,T0,1,100,27.239
1570475312.106479,275382.000,48072,1,T0,1,100,27.255
1570475312.237944,275485.000,48090,1,T0,1,100,27.239
1570475312.370685,275589.000,48108,1,T0,1,100,27.239
1570475312.504702,275694.000,48126,1,T0,1,100,27.239
1570475312.638719,275799.000,48144,1,T0,1,100,27.239
1570475312.771460,275903.000,48162,1,T0,1,100,27.239
1570475312.908029,276010.000,48196,1,T0,1,100,27.266
1570475313.042047,276115.000,48215,1,T0,1,100,27.234
1570475313.172235,276217.000,48233,1,T0,1,100,27.239
1570475313.306252,276322.000,48251,1,T0,1,100,27.287
1570475313.440269,276427.000,48269,1,T0,1,100,27.244
1570475313.571733,276530.000,48287,1,T0,1,100,27.260
1570475313.705750,276635.000,48305,1,T0,1,100,27.234
1570475313.842320,276742.000,48323,1,T0,1,100,27.255
1570475313.975061,276846.000,48341,1,T0,1,100,27.244
1570475314.107802,276950.000,48360,1,T0,1,100,27.277
1570475314.240542,277054.000,48378,1,T0,1,100,27.239
1570475314.372007,277157.000,48396,1,T0,1,100,27.260
1570475314.503471,277260.000,48414,1,T0,1,100,27.266
1570475314.636212,277364.000,48432,1,T0,1,100,27.271
1570475314.770229,277469.000,48450,1,T0,1,100,27.271
1570475314.902970,277573.000,48468,1,T0,1,100,27.277
1570475315.036987,277678.000,48487,1,T0,1,100,27.277
1570475315.170366,277782.500,48508,2,T0,1,100,27.282
1570475315.303745,277887.000,48508,2,T0,1,100,27.260
1570475315.435209,277990.000,48544,1,T0,1,100,27.314
1570475315.567950,278094.000,48562,1,T0,1,100,27.266
1570475315.701967,278199.000,48580,1,T0,1,100,27.277
1570475315.835984,278304.000,48598,1,T0,1,100,27.266
1570475315.968725,278408.000,48616,1,T0,1,100,27.287
1570475316.105295,278515.000,48635,1,T0,1,100,27.303
1570475316.239312,278620.000,48653,1,T0,1,100,27.260
1570475316.369500,278722.000,48671,1,T0,1,100,27.314
1570475316.503517,278827.000,48689,1,T0,1,100,27.277
1570475316.637534,278932.000,48707,1,T0,1,100,27.298
1570475316.770275,279036.000,48725,1,T0,1,100,27.255
1570475316.904292,279141.000,48743,1,T0,1,100,27.287
1570475317.040862,279248.000,48761,1,T0,1,100,27.271
1570475317.173603,279352.000,48780,1,T0,1,100,27.341
1570475317.305067,279455.000,48798,1,T0,1,100,27.282
1570475317.437808,279559.000,48816,1,T0,1,100,27.298
1570475317.569272,279662.000,48834,1,T0,1,100,27.298
1570475317.702013,279766.000,48852,1,T0,1,100,27.303
1570475317.836030,279871.000,48870,1,T0,1,100,27.303
1570475317.970047,279976.000,48888,1,T0,1,100,27.335
1570475318.102788,280080.000,48907,1,T0,1,100,27.282
1570475318.235529,280184.000,48925,1,T0,1,100,27.309
1570475318.366993,280287.000,48942,1,T0,1,100,27.325
1570475318.501010,280392.000,48960,1,T0,1,100,27.352
1570475318.632475,280495.000,48978,1,T0,1,100,27.346
1570475318.765215,280599.000,48996,1,T0,1,100,27.314
1570475318.901785,280706.000,49014,1,T0,1,100,27.309
1570475319.035802,280811.000,49032,1,T0,1,100,27.336
1570475319.168543,280915.000,49051,1,T0,1,100,27.309
1570475319.302560,281020.000,49085,1,T0,1,100,27.378
1570475319.436577,281125.000,49103,1,T0,1,100,27.352
1570475319.566765,281227.000,49121,1,T0,1,100,27.330
1570475319.700783,281332.000,49139,1,T0,1,100,27.336
1570475319.834800,281437.000,49157,1,T0,1,100,27.346
1570475319.967540,281541.000,49175,1,T0,1,100,27.346
1570475320.101557,281646.000,49194,1,T0,1,100,27.368
1570475320.238127,281753.000,49212,1,T0,1,100,27.352
1570475320.368315,281855.000,49230,1,T0,1,100,27.346
1570475320.499780,281958.000,49248,1,T0,1,100,27.314
1570475320.632520,282062.000,49266,1,T0,1,100,27.335
1570475320.763985,282165.000,49284,1,T0,1,100,27.341
1570475320.896726,282269.000,49302,1,T0,1,100,27.357
1570475321.030743,282374.000,49320,1,T0,1,100,27.336
1570475321.164760,282479.000,49339,1,T0,1,100,27.346
1570475321.297501,282583.000,49357,1,T0,1,100,27.362
1570475321.430241,282687.000,49375,1,T0,1,100,27.373
1570475321.562982,282791.000,49393,1,T0,1,100,27.368
1570475321.696361,282895.500,49414,2,T0,1,100,27.352
1570475321.829740,283000.000,49414,2,T0,1,100,27.368
1570475321.962481,283104.000,49450,1,T0,1,100,27.384
1570475322.099051,283211.000,49469,1,T0,1,100,27.400
1570475322.233068,283316.000,49487,1,T0,1,100,27.378
1570475322.367085,283421.000,49505,1,T0,1,100,27.394
1570475322.501102,283526.000,49523,1,T0,1,100,27.384
1570475322.635119,283631.000,49541,1,T0,1,100,27.389
1570475322.765307,283733.000,49559,1,T0,1,100,27.373
1570475322.899324,283838.000,49577,1,T0,1,100,27.378
1570475323.034618,283944.000,49595,1,T0,1,100,27.432
1570475323.167358,284048.000,49614,1,T0,1,100,27.373
1570475323.301375,284153.000,49632,1,T0,1,100,27.405
1570475323.436669,284259.000,49650,1,T0,1,100,27.384
1570475323.568133,284362.000,49668,1,T0,1,100,27.421
1570475323.699598,284465.000,49686,1,T0,1,100,27.405
1570475323.832339,284569.000,49704,1,T0,1,100,27.416
1570475323.965079,284673.000,49722,1,T0,1,100,27.405
1570475324.097820,284777.000,49740,1,T0,1,100,27.405
1570475324.231837,284882.000,49759,1,T0,1,100,27.432
1570475324.365854,284987.000,49777,1,T0,1,100,27.411
1570475324.498595,285091.000,49795,1,T0,1,100,27.400
1570475324.630059,285194.000,49813,1,T0,1,100,27.432
1570475324.761524,285297.000,49831,1,T0,1,100,27.486
1570475324.894265,285401.000,49849,1,T0,1,100,27.421
1570475325.028282,285506.000,49867,1,T0,1,100,27.405
1570475325.161022,285610.000,49884,1,T0,1,100,27.405
1570475325.297592,285717.000,49903,1,T0,1,100,27.416
1570475325.431609,285822.000,49921,1,T0,1,100,27.405
1570475325.563074,285925.000,49939,1,T0,1,100,27.432
1570475325.697091,286030.000,49957,1,T0,1,100,27.405
1570475325.831108,286135.000,49991,1,T0,1,100,27.448
1570475325.961296,286237.000,50009,1,T0,1,100,27.411
1570475326.095313,286342.000,50027,1,T0,1,100,27.394
1570475326.231883,286449.000,50046,1,T0,1,100,27.427
1570475326.364624,286553.000,50064,1,T0,1,100,27.421
1570475326.498641,286658.000,50082,1,T0,1,100,27.448
1570475326.631382,286762.000,50100,1,T0,1,100,27.427
1570475326.764122,286866.000,50118,1,T0,1,100,27.491
1570475326.896863,286970.000,50136,1,T0,1,100,27.459
1570475327.029604,287074.000,50154,1,T0,1,100,27.491
1570475327.163621,287179.000,50172,1,T0,1,100,27.459
1570475327.296362,287283.000,50191,1,T0,1,100,27.470
1570475327.430379,287388.000,50209,1,T0,1,100,27.453
1570475327.564396,287493.000,50227,1,T0,1,100,27.432
1570475327.697137,287597.000,50245,1,T0,1,100,27.453
1570475327.828601,287700.000,50263,1,T0,1,100,27.480
1570475327.960066,287803.000,50281,1,T0,1,100,27.496
1570475328.092806,287907.000,50299,1,T0,1,100,27.480
1570475328.225547,288011.000,50320,2,T0,1,100,27.459
1570475328.358288,288115.000,50320,2,T0,1,100,27.453
1570475328.494858,288222.000,50357,1,T0,1,100,27.486
1570475328.630151,288328.000,50375,1,T0,1,100,27.432
1570475328.760339,288430.000,50393,1,T0,1,100,27.491
1570475328.894356,288535.000,50411,1,T0,1,100,27.486
1570475329.028373,288640.000,50429,1,T0,1,100,27.448
1570475329.159838,288743.000,50447,1,T0,1,100,27.475
1570475329.293855,288848.000,50466,1,T0,1,100,27.523
1570475329.430425,288955.000,50484,1,T0,1,100,27.443
1570475329.563165,289059.000,50502,1,T0,1,100,27.507
1570475329.698459,289165.000,50520,1,T0,1,100,27.512
1570475329.831200,289269.000,50538,1,T0,1,100,27.486
1570475329.963940,289373.000,50556,1,T0,1,100,27.502
1570475330.096681,289477.000,50574,1,T0,1,100,27.502
1570475330.229422,289581.000,50592,1,T0,1,100,27.470
1570475330.363439,289686.000,50611,1,T0,1,100,27.486
1570475330.496180,289790.000,50629,1,T0,1,100,27.496
1570475330.630197,289895.000,50647,1,T0,1,100,27.523
1570475330.761661,289998.000,50665,1,T0,1,100,27.507
1570475330.894402,290102.000,50683,1,T0,1,100,27.529
1570475331.025867,290205.000,50701,1,T0,1,100,27.545
1570475331.157331,290308.000,50719,1,T0,1,100,27.507
1570475331.291348,290413.000,50737,1,T0,1,100,27.539
1570475331.425365,290518.000,50755,1,T0,1,100,27.529
1570475331.558106,290622.000,50773,1,T0,1,100,27.529
1570475331.694676,290729.000,50791,1,T0,1,100,27.529
1570475331.828693,290834.000,50809,1,T0,1,100,27.523
1570475331.958881,290936.000,50827,1,T0,1,100,27.529
1570475332.092898,291041.000,50845,1,T0,1,100,27.529
1570475332.226915,291146.000,50879,1,T0,1,100,27.550
1570475332.359656,291250.000,50898,1,T0,1,100,27.529
1570475332.493673,291355.000,50916,1,T0,1,100,27.550
1570475332.630243,291462.000,50934,1,T0,1,100,27.539
1570475332.764260,291567.000,50952,1,T0,1,100,27.529
1570475332.895724,291670.000,50970,1,T0,1,100,27.523
1570475333.029742,291775.000,50988,1,T0,1,100,27.523
1570475333.165035,291881.000,51006,1,T0,1,100,27.523
1570475333.296499,291984.000,51025,1,T0,1,100,27.523
1570475333.430516,292089.000,51043,1,T0,1,100,27.550
1570475333.565810,292195.000,51061,1,T0,1,100,27.555
1570475333.697274,292298.000,51079,1,T0,1,100,27.539
1570475333.831291,292403.000,51097,1,T0,1,100,27.582
1570475333.962756,292506.000,51115,1,T0,1,100,27.550
1570475334.094220,292609.000,51133,1,T0,1,100,27.566
1570475334.225685,292712.000,51151,1,T0,1,100,27.550
1570475334.358425,292816.000,51170,1,T0,1,100,27.571
1570475334.492442,292921.000,51188,1,T0,1,100,27.566
1570475334.625183,293025.000,51206,1,T0,1,100,27.555
1570475334.759200,293130.000,51227,1,T0,1,100,27.555
1570475334.891941,293234.000,51247,1,T0,1,100,27.539
1570475335.025958,293339.000,51265,1,T0,1,100,27.588
1570475335.157423,293442.000,51283,1,T0,1,100,27.571
1570475335.290163,293546.000,51301,1,T0,1,100,27.582
1570475335.424181,293651.000,51320,1,T0,1,100,27.561
1570475335.558197,293756.000,51338,1,T0,1,100,27.588
1570475335.690938,293860.000,51356,1,T0,1,100,27.582
1570475335.827508,293967.000,51374,1,T0,1,100,27.566
1570475335.961525,294072.000,51392,1,T0,1,100,27.577
1570475336.092990,294175.000,51410,1,T0,1,100,27.577
1570475336.227007,294280.000,51428,1,T0,1,100,27.577
1570475336.362300,294386.000,51447,1,T0,1,100,27.577
1570475336.493765,294489.000,51465,1,T0,1,100,27.620
1570475336.627782,294594.000,51483,1,T0,1,100,27.614
1570475336.763075,294700.000,51501,1,T0,1,100,27.609
1570475336.894540,294803.000,51519,1,T0,1,100,27.636
1570475337.027280,294907.000,51537,1,T0,1,100,27.604
1570475337.160021,295011.000,51555,1,T0,1,100,27.577
1570475337.291486,295114.000,51573,1,T0,1,100,27.609
1570475337.422950,295217.000,51592,1,T0,1,100,27.598
1570475337.555691,295321.000,51610,1,T0,1,100,27.641
1570475337.689708,295426.000,51628,1,T0,1,100,27.620
1570475337.822448,295530.000,51646,1,T0,1,100,27.630
1570475337.956466,295635.000,51663,1,T0,1,100,27.625
1570475338.087930,295738.000,51681,1,T0,1,100,27.625
1570475338.221947,295843.000,51699,1,T0,1,100,27.620
1570475338.353412,295946.000,51717,1,T0,1,100,27.636
1570475338.486152,296050.000,51736,1,T0,1,100,27.641
1570475338.620169,296155.000,51754,1,T0,1,100,27.652
1570475338.754187,296260.000,51788,1,T0,1,100,27.598
1570475338.886927,296364.000,51806,1,T0,1,100,27.614
1570475339.022221,296470.000,51824,1,T0,1,100,27.588
1570475339.157514,296576.000,51842,1,T0,1,100,27.657
1570475339.288979,296679.000,51860,1,T0,1,100,27.641
1570475339.422996,296784.000,51879,1,T0,1,100,27.641
1570475339.558289,296890.000,51897,1,T0,1,100,27.663
1570475339.689754,296993.000,51915,1,T0,1,100,27.657
1570475339.823771,297098.000,51933,1,T0,1,100,27.668
1570475339.959064,297204.000,51951,1,T0,1,100,27.652
1570475340.091805,297308.000,51969,1,T0,1,100,27.657
1570475340.223269,297411.000,51987,1,T0,1,100,27.636
1570475340.356010,297515.000,52005,1,T0,1,100,27.657
1570475340.487475,297618.000,52024,1,T0,1,100,27.625
1570475340.620215,297722.000,52042,1,T0,1,100,27.652
1570475340.754232,297827.000,52060,1,T0,1,100,27.663
1570475340.888250,297932.000,52078,1,T0,1,100,27.668
1570475341.020990,298036.000,52096,1,T0,1,100,27.668
1570475341.155007,298141.000,52114,1,T0,1,100,27.630
1570475341.287748,298245.000,52135,2,T0,1,100,27.641
1570475341.420489,298349.000,52135,2,T0,1,100,27.663
1570475341.551953,298452.000,52173,1,T0,1,100,27.652
1570475341.684694,298556.000,52190,1,T0,1,100,27.679
1570475341.821264,298663.000,52208,1,T0,1,100,27.663
1570475341.955281,298768.000,52226,1,T0,1,100,27.689
1570475342.088022,298872.000,52244,1,T0,1,100,27.689
1570475342.223315,298978.000,52262,1,T0,1,100,27.641
1570475342.358609,299084.000,52280,1,T0,1,100,27.630
1570475342.490073,299187.000,52299,1,T0,1,100,27.689
1570475342.624090,299292.000,52317,1,T0,1,100,27.706
1570475342.759384,299398.000,52335,1,T0,1,100,27.695
1570475342.890848,299501.000,52353,1,T0,1,100,27.673
1570475343.024865,299606.000,52371,1,T0,1,100,27.716
1570475343.160159,299712.000,52389,1,T0,1,100,27.689
1570475343.290347,299814.000,52407,1,T0,1,100,27.679
1570475343.421811,299917.000,52425,1,T0,1,100,27.673
1570475343.554552,300021.000,52444,1,T0,1,100,27.706
1570475343.686016,300124.000,52462,1,T0,1,100,27.684
1570475343.818757,300228.000,52480,1,T0,1,100,27.711
1570475343.952774,300333.000,52498,1,T0,1,100,27.673
1570475344.086791,300438.000,52516,1,T0,1,100,27.684
1570475344.219532,300542.000,52534,1,T0,1,100,27.668
1570475344.350996,300645.000,52552,1,T0,1,100,27.722
1570475344.483737,300749.000,52570,1,T0,1,100,27.711
1570475344.617754,300854.000,52589,1,T0,1,100,27.711
1570475344.750495,300958.000,52606,1,T0,1,100,27.711
1570475344.883236,301062.000,52624,1,T0,1,100,27.716
1570475345.019806,301169.000,52642,1,T0,1,100,27.695
1570475345.153823,301274.000,52660,1,T0,1,100,27.716
1570475345.286563,301378.000,52678,1,T0,1,100,27.684
1570475345.420581,301483.000,52712,1,T0,1,100,27.754
1570475345.555874,301589.000,52731,1,T0,1,100,27.759
1570475345.687339,301692.000,52749,1,T0,1,100,27.743
1570475345.821356,301797.000,52767,1,T0,1,100,27.716
1570475345.956649,301903.000,52785,1,T0,1,100,27.711
1570475346.088114,302006.000,52803,1,T0,1,100,27.706
1570475346.222131,302111.000,52821,1,T0,1,100,27.716
1570475346.356148,302216.000,52839,1,T0,1,100,27.748
1570475346.487612,302319.000,52857,1,T0,1,100,27.706
1570475346.619076,302422.000,52876,1,T0,1,100,27.695
1570475346.751817,302526.000,52894,1,T0,1,100,27.716
1570475346.884558,302630.000,52912,1,T0,1,100,27.706
1570475347.017299,302734.000,52930,1,T0,1,100,27.727
1570475347.151316,302839.000,52948,1,T0,1,100,27.727
1570475347.285333,302944.000,52966,1,T0,1,100,27.716
1570475347.419350,303049.000,52984,1,T0,1,100,27.727
1570475347.550815,303152.000,53003,1,T0,1,100,27.716
1570475347.683555,303256.000,53021,1,T0,1,100,27.759
1570475347.817572,303361.000,53042,1,T0,1,100,27.754
1570475347.951590,303466.000,53062,1,T0,1,100,27.748
1570475348.084330,303570.000,53080,1,T0,1,100,27.716
1570475348.220900,303677.000,53098,1,T0,1,100,27.743
1570475348.354917,303782.000,53116,1,T0,1,100,27.754
1570475348.487658,303886.000,53134,1,T0,1,100,27.775
1570475348.621675,303991.000,53153,1,T0,1,100,27.781
1570475348.756968,304097.000,53171,1,T0,1,100,27.732
1570475348.888433,304200.000,53189,1,T0,1,100,27.743
1570475349.022450,304305.000,53207,1,T0,1,100,27.738
1570475349.157743,304411.000,53225,1,T0,1,100,27.791
1570475349.289208,304514.000,53243,1,T0,1,100,27.802
1570475349.423225,304619.000,53261,1,T0,1,100,27.807
1570475349.554689,304722.000,53279,1,T0,1,100,27.781
1570475349.686154,304825.000,53298,1,T0,1,100,27.786
1570475349.817618,304928.000,53316,1,T0,1,100,27.781
1570475349.950359,305032.000,53334,1,T0,1,100,27.775
1570475350.084376,305137.000,53352,1,T0,1,100,27.797
1570475350.217117,305241.000,53370,1,T0,1,100,27.743
1570475350.351134,305346.000,53388,1,T0,1,100,27.781
1570475350.483875,305450.000,53406,1,T0,1,100,27.797
1570475350.616616,305554.000,53425,1,T0,1,100,27.797
1570475350.748080,305657.000,53443,1,T0,1,100,27.818
1570475350.880821,305761.000,53461,1,T0,1,100,27.823
1570475351.014838,305866.000,53478,1,T0,1,100,27.802
1570475351.148855,305971.000,53496,1,T0,1,100,27.829
1570475351.281596,306075.000,53514,1,T0,1,100,27.802
1570475351.418165,306182.000,53532,1,T0,1,100,27.856
1570475351.552182,306287.000,53550,1,T0,1,100,27.791
1570475351.683647,306390.000,53569,1,T0,1,100,27.797
1570475351.817664,306495.000,53603,1,T0,1,100,27.813
1570475351.952958,306601.000,53621,1,T0,1,100,27.797
1570475352.084422,306704.000,53639,1,T0,1,100,27.791
1570475352.218439,306809.000,53657,1,T0,1,100,27.797
1570475352.353733,306915.000,53675,1,T0,1,100,27.850
1570475352.485197,307018.000,53693,1,T0,1,100,27.813
1570475352.619214,307123.000,53712,1,T0,1,100,27.861
1570475352.750679,307226.000,53730,1,T0,1,100,27.818
1570475352.882143,307329.000,53748,1,T0,1,100,27.807
1570475353.013607,307432.000,53766,1,T0,1,100,27.840
1570475353.146348,307536.000,53784,1,T0,1,100,27.861
1570475353.280365,307641.000,53802,1,T0,1,100,27.840
1570475353.413106,307745.000,53820,1,T0,1,100,27.845
1570475353.547123,307850.000,53838,1,T0,1,100,27.823
1570475353.678587,307953.000,53857,1,T0,1,100,27.872
1570475353.812604,308058.000,53875,1,T0,1,100,27.818
1570475353.944069,308161.000,53893,1,T0,1,100,27.829
1570475354.076810,308265.000,53911,1,T0,1,100,27.861
1570475354.210827,308370.000,53929,1,T0,1,100,27.845
1570475354.344206,308474.500,53950,2,T0,1,100,27.893
1570475354.477585,308579.000,53950,2,T0,1,100,27.877
1570475354.614154,308686.000,53987,1,T0,1,100,27.834
1570475354.749448,308792.000,54005,1,T0,1,100,27.866
1570475354.880912,308895.000,54023,1,T0,1,100,27.861
1570475355.014930,309000.000,54041,1,T0,1,100,27.834
1570475355.150223,309106.000,54059,1,T0,1,100,27.850
1570475355.281687,309209.000,54077,1,T0,1,100,27.850
1570475355.415704,309314.000,54095,1,T0,1,100,27.861
1570475355.550998,309420.000,54113,1,T0,1,100,27.915
1570475355.682462,309523.000,54132,1,T0,1,100,27.866
1570475355.813927,309626.000,54150,1,T0,1,100,27.861
1570475355.946667,309730.000,54168,1,T0,1,100,27.845
1570475356.078132,309833.000,54186,1,T0,1,100,27.899
1570475356.210873,309937.000,54204,1,T0,1,100,27.899
1570475356.344890,310042.000,54222,1,T0,1,100,27.861
1570475356.478907,310147.000,54240,1,T0,1,100,27.882
1570475356.611648,310251.000,54258,1,T0,1,100,27.877
1570475356.745665,310356.000,54277,1,T0,1,100,27.893
1570475356.877129,310459.000,54295,1,T0,1,100,27.882
1570475357.011146,310564.000,54313,1,T0,1,100,27.850
1570475357.142611,310667.000,54331,1,T0,1,100,27.882
1570475357.275351,310771.000,54349,1,T0,1,100,27.866
1570475357.410645,310877.000,54367,1,T0,1,100,27.882
1570475357.544662,310982.000,54385,1,T0,1,100,27.856
1570475357.677403,311086.000,54402,1,T0,1,100,27.893
1570475357.811420,311191.000,54421,1,T0,1,100,27.877
1570475357.945437,311296.000,54439,1,T0,1,100,27.893
1570475358.075625,311398.000,54457,1,T0,1,100,27.888
1570475358.209642,311503.000,54475,1,T0,1,100,27.888
1570475358.343659,311608.000,54493,1,T0,1,100,27.899
1570475358.476400,311712.000,54528,1,T0,1,100,27.909
1570475358.610417,311817.000,54545,1,T0,1,100,27.866
1570475358.746987,311924.000,54564,1,T0,1,100,27.909
1570475358.878451,312027.000,54582,1,T0,1,100,27.936
1570475359.009916,312130.000,54600,1,T0,1,100,27.861
1570475359.142657,312234.000,54618,1,T0,1,100,27.904
1570475359.274121,312337.000,54636,1,T0,1,100,27.915
1570475359.406862,312441.000,54654,1,T0,1,100,27.909
1570475359.540879,312546.000,54672,1,T0,1,100,27.931
1570475359.674896,312651.000,54690,1,T0,1,100,27.904
1570475359.807636,312755.000,54709,1,T0,1,100,27.920
1570475359.940377,312859.000,54727,1,T0,1,100,27.936
1570475360.073118,312963.000,54745,1,T0,1,100,27.904
1570475360.207135,313068.000,54763,1,T0,1,100,27.941
1570475360.339876,313172.000,54781,1,T0,1,100,27.915
1570475360.472617,313276.000,54799,1,T0,1,100,27.947
1570475360.609187,313383.000,54817,1,T0,1,100,27.920
1570475360.743204,313488.000,54835,1,T0,1,100,27.925
1570475360.877221,313593.000,54857,1,T0,1,100,27.936
1570475361.011238,313698.000,54877,1,T0,1,100,27.882
1570475361.145255,313803.000,54894,1,T0,1,100,27.963
1570475361.275443,313905.000,54912,1,T0,1,100,27.952
1570475361.409460,314010.000,54930,1,T0,1,100,27.909
1570475361.544754,314116.000,54948,1,T0,1,100,27.904
1570475361.677494,314220.000,54966,1,T0,1,100,27.941
1570475361.811512,314325.000,54985,1,T0,1,100,27.963
1570475361.946805,314431.000,55003,1,T0,1,100,27.963
1570475362.078269,314534.000,55021,1,T0,1,100,27.931
1570475362.209734,314637.000,55039,1,T0,1,100,27.947
1570475362.342474,314741.000,55057,1,T0,1,100,27.925
1570475362.475215,314845.000,55075,1,T0,1,100,27.968
1570475362.607956,314949.000,55093,1,T0,1,100,27.952
1570475362.741973,315054.000,55111,1,T0,1,100,27.984
1570475362.875990,315159.000,55130,1,T0,1,100,27.974
1570475363.010007,315264.000,55148,1,T0,1,100,27.963
1570475363.141472,315367.000,55166,1,T0,1,100,27.984
1570475363.274213,315471.000,55184,1,T0,1,100,27.958
1570475363.408230,315576.000,55202,1,T0,1,100,27.941
1570475363.542247,315681.000,55220,1,T0,1,100,27.984
1570475363.674988,315785.000,55238,1,T0,1,100,27.979
1570475363.811557,315892.000,55256,1,T0,1,100,27.958
1570475363.945575,315997.000,55275,1,T0,1,100,27.947
1570475364.077039,316100.000,55292,1,T0,1,100,27.990
1570475364.211056,316205.000,55310,1,T0,1,100,27.963
1570475364.345073,316310.000,55328,1,T0,1,100,27.990
1570475364.475261,316412.000,55346,1,T0,1,100,27.984
1570475364.609278,316517.000,55364,1,T0,1,100,27.984
1570475364.745848,316624.000,55382,1,T0,1,100,28.000
1570475364.878589,316728.000,55418,1,T0,1,100,27.952
1570475365.012606,316833.000,55435,1,T0,1,100,27.963
1570475365.146623,316938.000,55453,1,T0,1,100,28.017
1570475365.278087,317041.000,55471,1,T0,1,100,27.979
1570475365.409552,317144.000,55489,1,T0,1,100,28.027
1570475365.542293,317248.000,55507,1,T0,1,100,28.022
1570475365.675033,317352.000,55525,1,T0,1,100,27.974
1570475365.807774,317456.000,55544,1,T0,1,100,28.006
1570475365.941791,317561.000,55562,1,T0,1,100,27.995
1570475366.075808,317666.000,55580,1,T0,1,100,27.979
1570475366.209826,317771.000,55598,1,T0,1,100,27.995
1570475366.341290,317874.000,55616,1,T0,1,100,27.995
1570475366.474031,317978.000,55634,1,T0,1,100,28.000
1570475366.608048,318083.000,55652,1,T0,1,100,28.017
1570475366.742065,318188.000,55670,1,T0,1,100,28.006
1570475366.874806,318292.000,55689,1,T0,1,100,27.990
1570475367.011375,318399.000,55707,1,T0,1,100,28.027
1570475367.145392,318504.000,55725,1,T0,1,100,28.038
1570475367.275581,318606.000,55743,1,T0,1,100,28.011
1570475367.409598,318711.000,55764,2,T0,1,100,28.000
1570475367.543615,318816.000,55764,2,T0,1,100,28.022
1570475367.675079,318919.000,55800,1,T0,1,100,28.006
1570475367.809096,319024.000,55819,1,T0,1,100,28.033
1570475367.944390,319130.000,55837,1,T0,1,100,28.059
1570475368.077131,319234.000,55855,1,T0,1,100,28.022
1570475368.211148,319339.000,55873,1,T0,1,100,28.011
1570475368.343889,319443.000,55891,1,T0,1,100,28.027
1570475368.475353,319546.000,55909,1,T0,1,100,28.027
1570475368.606817,319649.000,55927,1,T0,1,100,28.006
1570475368.739558,319753.000,55945,1,T0,1,100,28.011
1570475368.873575,319858.000,55964,1,T0,1,100,28.043
1570475369.006316,319962.000,55982,1,T0,1,100,28.027
1570475369.140333,320067.000,56000,1,T0,1,100,28.006
1570475369.271797,320170.000,56018,1,T0,1,100,28.011
1570475369.405814,320275.000,56036,1,T0,1,100,28.076
1570475369.537279,320378.000,56054,1,T0,1,100,28.054
1570475369.670020,320482.000,56072,1,T0,1,100,28.076
1570475369.804037,320587.000,56090,1,T0,1,100,28.054
1570475369.938054,320692.000,56109,1,T0,1,100,28.059
1570475370.070795,320796.000,56127,1,T0,1,100,28.065
1570475370.207364,320903.000,56145,1,T0,1,100,28.033
1570475370.340105,321007.000,56163,1,T0,1,100,28.049
1570475370.470293,321109.000,56181,1,T0,1,100,28.086
1570475370.604310,321214.000,56199,1,T0,1,100,28.059
1570475370.738328,321319.000,56217,1,T0,1,100,28.054
1570475370.871068,321423.000,56234,1,T0,1,100,28.076
1570475371.005085,321528.000,56253,1,T0,1,100,28.022
1570475371.141655,321635.000,56271,1,T0,1,100,28.070
1570475371.274396,321739.000,56289,1,T0,1,100,28.076
1570475371.407137,321843.000,56307,1,T0,1,100,28.049
1570475371.539877,321947.000,56341,1,T0,1,100,28.070
1570475371.671342,322050.000,56359,1,T0,1,100,28.054
1570475371.802806,322153.000,56377,1,T0,1,100,28.086
1570475371.936823,322258.000,56396,1,T0,1,100,28.059
1570475372.070840,322363.000,56414,1,T0,1,100,28.065
1570475372.203581,322467.000,56432,1,T0,1,100,28.086
1570475372.337598,322572.000,56450,1,T0,1,100,28.086
1570475372.469063,322675.000,56468,1,T0,1,100,28.086
1570475372.603080,322780.000,56486,1,T0,1,100,28.081
1570475372.734544,322883.000,56504,1,T0,1,100,28.108
1570475372.867285,322987.000,56522,1,T0,1,100,28.086
1570475373.001302,323092.000,56541,1,T0,1,100,28.027
1570475373.135319,323197.000,56559,1,T0,1,100,28.102
1570475373.268060,323301.000,56577,1,T0,1,100,28.092
1570475373.403353,323407.000,56595,1,T0,1,100,28.059
1570475373.537371,323512.000,56613,1,T0,1,100,28.086
1570475373.667559,323614.000,56631,1,T0,1,100,28.059
1570475373.801576,323719.000,56649,1,T0,1,100,28.086
1570475373.934955,323823.500,56670,2,T0,1,100,28.092
1570475374.068334,323928.000,56670,2,T0,1,100,28.097
1570475374.202351,324033.000,56691,1,T0,1,100,28.118
1570475374.338921,324140.000,56725,1,T0,1,100,28.102
1570475374.470385,324243.000,56743,1,T0,1,100,28.070
1570475374.601849,324346.000,56761,1,T0,1,100,28.086
1570475374.734590,324450.000,56779,1,T0,1,100,28.086
1570475374.866055,324553.000,56797,1,T0,1,100,28.129
1570475374.998795,324657.000,56816,1,T0,1,100,28.081
1570475375.132812,324762.000,56834,1,T0,1,100,28.102
1570475375.266829,324867.000,56852,1,T0,1,100,28.129
1570475375.399570,324971.000,56870,1,T0,1,100,28.118
1570475375.532311,325075.000,56888,1,T0,1,100,28.108
1570475375.665052,325179.000,56906,1,T0,1,100,28.108
1570475375.799069,325284.000,56924,1,T0,1,100,28.129
1570475375.930533,325387.000,56942,1,T0,1,100,28.102
1570475376.063274,325491.000,56961,1,T0,1,100,28.113
1570475376.199844,325598.000,56979,1,T0,1,100,28.092
1570475376.333861,325703.000,56997,1,T0,1,100,28.108
1570475376.466602,325807.000,57015,1,T0,1,100,28.097
1570475376.600619,325912.000,57033,1,T0,1,100,28.086
1570475376.734636,326017.000,57051,1,T0,1,100,28.081
1570475376.864824,326119.000,57069,1,T0,1,100,28.113
1570475376.998841,326224.000,57087,1,T0,1,100,28.145
1570475377.132858,326329.000,57106,1,T0,1,100,28.086
1570475377.265599,326433.000,57124,1,T0,1,100,28.113
1570475377.399616,326538.000,57141,1,T0,1,100,28.135
1570475377.536186,326645.000,57159,1,T0,1,100,28.124
1570475377.668927,326749.000,57177,1,T0,1,100,28.161
1570475377.801667,326853.000,57195,1,T0,1,100,28.172
1570475377.934408,326957.000,57213,1,T0,1,100,28.124
1570475378.067149,327061.000,57231,1,T0,1,100,28.140
1570475378.199890,327165.000,57267,1,T0,1,100,28.135
1570475378.333907,327270.000,57284,1,T0,1,100,28.118
1570475378.467924,327375.000,57302,1,T0,1,100,28.156
1570475378.601941,327480.000,57320,1,T0,1,100,28.151
1570475378.733405,327583.000,57338,1,T0,1,100,28.145
1570475378.864870,327686.000,57356,1,T0,1,100,28.151
1570475378.997611,327790.000,57375,1,T0,1,100,28.129
1570475379.131628,327895.000,57393,1,T0,1,100,28.145
1570475379.264369,327999.000,57411,1,T0,1,100,28.167
1570475379.400938,328106.000,57429,1,T0,1,100,28.161
1570475379.534956,328211.000,57447,1,T0,1,100,28.161
1570475379.667696,328315.000,57465,1,T0,1,100,28.172
1570475379.801713,328420.000,57483,1,T0,1,100,28.161
1570475379.935730,328525.000,57501,1,T0,1,100,28.172
1570475380.065918,328627.000,57520,1,T0,1,100,28.177
1570475380.199935,328732.000,57538,1,T0,1,100,28.151
1570475380.336505,328839.000,57556,1,T0,1,100,28.140
1570475380.469884,328943.500,57577,2,T0,1,100,28.156
1570475380.603263,329048.000,57577,2,T0,1,100,28.145
1570475380.737280,329153.000,57613,1,T0,1,100,28.172
1570475380.870021,329257.000,57631,1,T0,1,100,28.172
1570475381.002762,329361.000,57649,1,T0,1,100,28.140
1570475381.135503,329465.000,57668,1,T0,1,100,28.172
1570475381.269520,329570.000,57686,1,T0,1,100,28.161
1570475381.402261,329674.000,57704,1,T0,1,100,28.188
1570475381.536278,329779.000,57722,1,T0,1,100,28.188
1570475381.670295,329884.000,57740,1,T0,1,100,28.177
1570475381.801759,329987.000,57758,1,T0,1,100,28.167
1570475381.933223,330090.000,57776,1,T0,1,100,28.156
1570475382.064688,330193.000,57795,1,T0,1,100,28.194
1570475382.197429,330297.000,57813,1,T0,1,100,28.226
1570475382.331446,330402.000,57831,1,T0,1,100,28.194
1570475382.464186,330506.000,57849,1,T0,1,100,28.199
1570475382.600756,330613.000,57867,1,T0,1,100,28.215
1570475382.734773,330718.000,57885,1,T0,1,100,28.194
1570475382.864962,330820.000,57903,1,T0,1,100,28.194
1570475382.998979,330925.000,57921,1,T0,1,100,28.199
1570475383.132996,331030.000,57940,1,T0,1,100,28.167
1570475383.264460,331133.000,57958,1,T0,1,100,28.167
1570475383.398477,331238.000,57976,1,T0,1,100,28.226
1570475383.535047,331345.000,57994,1,T0,1,100,28.204
1570475383.667788,331449.000,58012,1,T0,1,100,28.199
1570475383.803081,331555.000,58029,1,T0,1,100,28.220
1570475383.937099,331660.000,58047,1,T0,1,100,28.199
1570475384.072392,331766.000,58065,1,T0,1,100,28.226
1570475384.203856,331869.000,58084,1,T0,1,100,28.172
1570475384.337873,331974.000,58102,1,T0,1,100,28.242
1570475384.473167,332080.000,58136,1,T0,1,100,28.242
1570475384.604631,332183.000,58154,1,T0,1,100,28.215
1570475384.738648,332288.000,58172,1,T0,1,100,28.210
1570475384.872665,332393.000,58190,1,T0,1,100,28.236
1570475385.004130,332496.000,58208,1,T0,1,100,28.220
1570475385.135594,332599.000,58227,1,T0,1,100,28.210
1570475385.268335,332703.000,58245,1,T0,1,100,28.231
1570475385.401076,332807.000,58263,1,T0,1,100,28.172
1570475385.533817,332911.000,58281,1,T0,1,100,28.188
1570475385.667834,333016.000,58299,1,T0,1,100,28.231
1570475385.801851,333121.000,58317,1,T0,1,100,28.194
1570475385.935868,333226.000,58335,1,T0,1,100,28.247
1570475386.067332,333329.000,58353,1,T0,1,100,28.194
1570475386.200073,333433.000,58372,1,T0,1,100,28.220
1570475386.334090,333538.000,58390,1,T0,1,100,28.236
1570475386.468107,333643.000,58408,1,T0,1,100,28.231
1570475386.600848,333747.000,58426,1,T0,1,100,28.220
1570475386.737418,333854.000,58444,1,T0,1,100,28.252
1570475386.871435,333959.000,58462,1,T0,1,100,28.231
1570475387.004814,334063.500,58483,2,T0,1,100,28.263
1570475387.138193,334168.000,58483,2,T0,1,100,28.263
1570475387.273486,334274.000,58520,1,T0,1,100,28.258
1570475387.404951,334377.000,58538,1,T0,1,100,28.236
1570475387.538968,334482.000,58556,1,T0,1,100,28.263
1570475387.674261,334588.000,58574,1,T0,1,100,28.236
1570475387.805726,334691.000,58592,1,T0,1,100,28.269
1570475387.939743,334796.000,58610,1,T0,1,100,28.274
1570475388.071207,334899.000,58628,1,T0,1,100,28.258
1570475388.202672,335002.000,58647,1,T0,1,100,28.269
1570475388.334136,335105.000,58665,1,T0,1,100,28.247
1570475388.466877,335209.000,58683,1,T0,1,100,28.311
1570475388.600894,335314.000,58701,1,T0,1,100,28.295
1570475388.733635,335418.000,58719,1,T0,1,100,28.279
1570475388.867652,335523.000,58737,1,T0,1,100,28.285
1570475389.000392,335627.000,58755,1,T0,1,100,28.263
1570475389.134410,335732.000,58773,1,T0,1,100,28.279
1570475389.265874,335835.000,58792,1,T0,1,100,28.279
1570475389.398615,335939.000,58810,1,T0,1,100,28.247
1570475389.532632,336044.000,58828,1,T0,1,100,28.290
1570475389.666649,336149.000,58846,1,T0,1,100,28.322
1570475389.799390,336253.000,58864,1,T0,1,100,28.295
1570475389.935960,336360.000,58882,1,T0,1,100,28.301
1570475390.071253,336466.000,58900,1,T0,1,100,28.295
1570475390.202718,336569.000,58917,1,T0,1,100,28.285
1570475390.336735,336674.000,58936,1,T0,1,100,28.317
1570475390.472028,336780.000,58954,1,T0,1,100,28.279
1570475390.603492,336883.000,58972,1,T0,1,100,28.285
1570475390.737509,336988.000,58990,1,T0,1,100,28.322
1570475390.872803,337094.000,59008,1,T0,1,100,28.322
1570475391.004267,337197.000,59026,1,T0,1,100,28.285
1570475391.138284,337302.000,59060,1,T0,1,100,28.295
1570475391.269749,337405.000,59079,1,T0,1,100,28.317
1570475391.401213,337508.000,59097,1,T0,1,100,28.311
1570475391.532678,337611.000,59115,1,T0,1,100,28.274
1570475391.665418,337715.000,59133,1,T0,1,100,28.301
1570475391.799436,337820.000,59151,1,T0,1,100,28.285
1570475391.932176,337924.000,59169,1,T0,1,100,28.322
1570475392.066194,338029.000,59187,1,T0,1,100,28.344
1570475392.198934,338133.000,59205,1,T0,1,100,28.333
1570475392.332951,338238.000,59224,1,T0,1,100,28.311
1570475392.464416,338341.000,59242,1,T0,1,100,28.344
1570475392.597157,338445.000,59260,1,T0,1,100,28.349
1570475392.731174,338550.000,59278,1,T0,1,100,28.295
1570475392.865191,338655.000,59296,1,T0,1,100,28.344
1570475392.997931,338759.000,59314,1,T0,1,100,28.311
1570475393.134501,338866.000,59332,1,T0,1,100,28.301
1570475393.268518,338971.000,59350,1,T0,1,100,28.311
1570475393.399983,339074.000,59369,1,T0,1,100,28.269
1570475393.534000,339179.000,59390,1,T0,1,100,28.328
1570475393.669293,339285.000,59410,1,T0,1,100,28.317
1570475393.800758,339388.000,59427,1,T0,1,100,28.344
1570475393.934775,339493.000,59445,1,T0,1,100,28.333
1570475394.070068,339599.000,59463,1,T0,1,100,28.349
1570475394.201533,339702.000,59481,1,T0,1,100,28.354
1570475394.332997,339805.000,59500,1,T0,1,100,28.376
1570475394.465738,339909.000,59518,1,T0,1,100,28.360
1570475394.597202,340012.000,59536,1,T0,1,100,28.387
1570475394.728667,340115.000,59554,1,T0,1,100,28.354
1570475394.862684,340220.000,59572,1,T0,1,100,28.370
1570475394.996701,340325.000,59590,1,T0,1,100,28.397
1570475395.129442,340429.000,59608,1,T0,1,100,28.354
1570475395.263459,340534.000,59626,1,T0,1,100,28.354
1570475395.394923,340637.000,59645,1,T0,1,100,28.344
1570475395.528940,340742.000,59663,1,T0,1,100,28.338
1570475395.660405,340845.000,59681,1,T0,1,100,28.360
1570475395.793145,340949.000,59699,1,T0,1,100,28.354
1570475395.929715,341056.000,59717,1,T0,1,100,28.365
1570475396.063732,341161.000,59735,1,T0,1,100,28.387
1570475396.196473,341265.000,59753,1,T0,1,100,28.354
1570475396.331767,341371.000,59771,1,T0,1,100,28.360
1570475396.467060,341477.000,59790,1,T0,1,100,28.354
1570475396.598525,341580.000,59808,1,T0,1,100,28.403
1570475396.732542,341685.000,59825,1,T0,1,100,28.392
1570475396.867835,341791.000,59843,1,T0,1,100,28.365
1570475396.999300,341894.000,59861,1,T0,1,100,28.387
1570475397.133317,341999.000,59879,1,T0,1,100,28.360
1570475397.268610,342105.000,59897,1,T0,1,100,28.376
1570475397.400074,342208.000,59916,1,T0,1,100,28.387
1570475397.531539,342311.000,59951,1,T0,1,100,28.381
1570475397.664280,342415.000,59968,1,T0,1,100,28.435
1570475397.795744,342518.000,59986,1,T0,1,100,28.403
1570475397.928485,342622.000,60004,1,T0,1,100,28.397
1570475398.062502,342727.000,60022,1,T0,1,100,28.381
1570475398.196519,342832.000,60040,1,T0,1,100,28.408
1570475398.329260,342936.000,60059,1,T0,1,100,28.424
1570475398.462001,343040.000,60077,1,T0,1,100,28.403
1570475398.594741,343144.000,60095,1,T0,1,100,28.397
1570475398.728758,343249.000,60113,1,T0,1,100,28.413
1570475398.860223,343352.000,60131,1,T0,1,100,28.440
1570475398.992964,343456.000,60149,1,T0,1,100,28.387
1570475399.129533,343563.000,60167,1,T0,1,100,28.370
1570475399.263551,343668.000,60185,1,T0,1,100,28.397
1570475399.396291,343772.000,60204,1,T0,1,100,28.424
1570475399.530308,343877.000,60222,1,T0,1,100,28.381
1570475399.664325,343982.000,60240,1,T0,1,100,28.376
1570475399.794513,344084.000,60258,1,T0,1,100,28.397
1570475399.928531,344189.000,60276,1,T0,1,100,28.419
1570475400.061910,344293.500,60297,2,T0,1,100,28.408
1570475400.195288,344398.000,60297,2,T0,1,100,28.424
1570475400.329306,344503.000,60334,1,T0,1,100,28.392
1570475400.464599,344609.000,60352,1,T0,1,100,28.413
1570475400.596064,344712.000,60370,1,T0,1,100,28.429
1570475400.727528,344815.000,60388,1,T0,1,100,28.381
1570475400.860269,344919.000,60406,1,T0,1,100,28.413
1570475400.991733,345022.000,60424,1,T0,1,100,28.408
1570475401.124474,345126.000,60442,1,T0,1,100,28.440
1570475401.258491,345231.000,60460,1,T0,1,100,28.424
1570475401.392508,345336.000,60479,1,T0,1,100,28.435
1570475401.526525,345441.000,60497,1,T0,1,100,28.403
1570475401.657990,345544.000,60515,1,T0,1,100,28.456
1570475401.790730,345648.000,60533,1,T0,1,100,28.440
1570475401.924747,345753.000,60551,1,T0,1,100,28.446
1570475402.057488,345857.000,60569,1,T0,1,100,28.408
1570475402.190229,345961.000,60587,1,T0,1,100,28.435
1570475402.326799,346068.000,60605,1,T0,1,100,28.397
1570475402.460816,346173.000,60624,1,T0,1,100,28.456
1570475402.593557,346277.000,60642,1,T0,1,100,28.435
1570475402.727574,346382.000,60660,1,T0,1,100,28.446
1570475402.861591,346487.000,60678,1,T0,1,100,28.440
1570475402.991779,346589.000,60696,1,T0,1,100,28.424
1570475403.125796,346694.000,60714,1,T0,1,100,28.483
1570475403.262366,346801.000,60732,1,T0,1,100,28.440
1570475403.395107,346905.000,60749,1,T0,1,100,28.483
1570475403.529124,347010.000,60768,1,T0,1,100,28.467
1570475403.663141,347115.000,60786,1,T0,1,100,28.413
1570475403.794605,347218.000,60804,1,T0,1,100,28.435
1570475403.926070,347321.000,60822,1,T0,1,100,28.440
1570475404.058810,347425.000,60840,1,T0,1,100,28.472
1570475404.191551,347529.000,60858,1,T0,1,100,28.440
1570475404.324292,347633.000,60892,1,T0,1,100,28.467
1570475404.458309,347738.000,60911,1,T0,1,100,28.451
1570475404.592326,347843.000,60929,1,T0,1,100,28.456
1570475404.726343,347948.000,60947,1,T0,1,100,28.440
1570475404.857808,348051.000,60965,1,T0,1,100,28.446
1570475404.990548,348155.000,60983,1,T0,1,100,28.446
1570475405.124566,348260.000,61001,1,T0,1,100,28.446
1570475405.258583,348365.000,61019,1,T0,1,100,28.429
1570475405.391323,348469.000,61037,1,T0,1,100,28.467
1570475405.527893,348576.000,61056,1,T0,1,100,28.494
1570475405.661910,348681.000,61074,1,T0,1,100,28.446
1570475405.792098,348783.000,61092,1,T0,1,100,28.456
1570475405.926116,348888.000,61110,1,T0,1,100,28.440
1570475406.060133,348993.000,61128,1,T0,1,100,28.499
1570475406.191597,349096.000,61146,1,T0,1,100,28.446
1570475406.325614,349201.000,61164,1,T0,1,100,28.494
1570475406.462184,349308.000,61182,1,T0,1,100,28.424
1570475406.594925,349412.000,61204,2,T0,1,100,28.467
1570475406.727665,349516.000,61204,2,T0,1,100,28.510
1570475406.860406,349620.000,61240,1,T0,1,100,28.510
1570475406.991871,349723.000,61258,1,T0,1,100,28.472
1570475407.123335,349826.000,61276,1,T0,1,100,28.483
1570475407.256076,349930.000,61294,1,T0,1,100,28.456
1570475407.390093,350035.000,61312,1,T0,1,100,28.478
1570475407.522834,350139.000,61331,1,T0,1,100,28.494
1570475407.656851,350244.000,61349,1,T0,1,100,28.462
1570475407.788315,350347.000,61367,1,T0,1,100,28.499
1570475407.922332,350452.000,61385,1,T0,1,100,28.472
1570475408.053797,350555.000,61403,1,T0,1,100,28.478
1570475408.186538,350659.000,61421,1,T0,1,100,28.472
1570475408.320554,350764.000,61439,1,T0,1,100,28.446
1570475408.454572,350869.000,61457,1,T0,1,100,28.472
1570475408.587312,350973.000,61476,1,T0,1,100,28.510
1570475408.723882,351080.000,61494,1,T0,1,100,28.483
1570475408.857899,351185.000,61512,1,T0,1,100,28.478
1570475408.988087,351287.000,61530,1,T0,1,100,28.483
1570475409.122104,351392.000,61548,1,T0,1,100,28.488
1570475409.256122,351497.000,61566,1,T0,1,100,28.505
1570475409.388862,351601.000,61584,1,T0,1,100,28.494
1570475409.522879,351706.000,61602,1,T0,1,100,28.494
1570475409.659449,351813.000,61621,1,T0,1,100,28.531
1570475409.792190,351917.000,61639,1,T0,1,100,28.499
1570475409.924931,352021.000,61656,1,T0,1,100,28.494
1570475410.057672,352125.000,61674,1,T0,1,100,28.531
1570475410.189136,352228.000,61692,1,T0,1,100,28.521
1570475410.320600,352331.000,61710,1,T0,1,100,28.467
1570475410.454618,352436.000,61728,1,T0,1,100,28.499
1570475410.588634,352541.000,61746,1,T0,1,100,28.499
1570475410.721375,352645.000,61765,1,T0,1,100,28.521
1570475410.855392,352750.000,61800,1,T0,1,100,28.483
1570475410.986857,352853.000,61817,1,T0,1,100,28.515
1570475411.120874,352958.000,61835,1,T0,1,100,28.499
1570475411.252338,353061.000,61853,1,T0,1,100,28.494
1570475411.385079,353165.000,61871,1,T0,1,100,28.494
1570475411.520373,353271.000,61890,1,T0,1,100,28.531
1570475411.654390,353376.000,61908,1,T0,1,100,28.515
1570475411.787130,353480.000,61926,1,T0,1,100,28.499
1570475411.922424,353586.000,61944,1,T0,1,100,28.505
1570475412.056441,353691.000,61962,1,T0,1,100,28.505
1570475412.186629,353793.000,61980,1,T0,1,100,28.505
1570475412.320646,353898.000,61998,1,T0,1,100,28.467
1570475412.454663,354003.000,62016,1,T0,1,100,28.553
1570475412.586128,354106.000,62035,1,T0,1,100,28.526
1570475412.720145,354211.000,62053,1,T0,1,100,28.547
1570475412.856715,354318.000,62071,1,T0,1,100,28.553
1570475412.988179,354421.000,62089,1,T0,1,100,28.494
1570475413.120282,354524.500,62110,2,T0,1,100,28.526
1570475413.252384,354628.000,62110,2,T0,1,100,28.558
1570475413.383849,354731.000,62130,1,T0,1,100,28.505
1570475413.516589,354835.000,62164,1,T0,1,100,28.531
1570475413.650606,354940.000,62183,1,T0,1,100,28.521
1570475413.784624,355045.000,62201,1,T0,1,100,28.483
1570475413.917364,355149.000,62219,1,T0,1,100,28.526
1570475414.050105,355253.000,62237,1,T0,1,100,28.553
1570475414.182846,355357.000,62255,1,T0,1,100,28.542
1570475414.316863,355462.000,62273,1,T0,1,100,28.531
1570475414.448327,355565.000,62291,1,T0,1,100,28.472
1570475414.581068,355669.000,62310,1,T0,1,100,28.547
1570475414.717638,355776.000,62328,1,T0,1,100,28.483
1570475414.851655,355881.000,62346,1,T0,1,100,28.574
1570475414.984396,355985.000,62364,1,T0,1,100,28.542
1570475415.119689,356091.000,62382,1,T0,1,100,28.515
1570475415.253706,356196.000,62400,1,T0,1,100,28.521
1570475415.383894,356298.000,62418,1,T0,1,100,28.558
1570475415.517912,356403.000,62436,1,T0,1,100,28.558
1570475415.651929,356508.000,62455,1,T0,1,100,28.531
1570475415.784669,356612.000,62473,1,T0,1,100,28.510
1570475415.918687,356717.000,62491,1,T0,1,100,28.574
1570475416.055256,356824.000,62509,1,T0,1,100,28.526
1570475416.187997,356928.000,62527,1,T0,1,100,28.526
1570475416.320738,357032.000,62545,1,T0,1,100,28.590
1570475416.453479,357136.000,62562,1,T0,1,100,28.537
1570475416.586219,357240.000,62580,1,T0,1,100,28.564
1570475416.718960,357344.000,62599,1,T0,1,100,28.521
1570475416.852977,357449.000,62617,1,T0,1,100,28.547
1570475416.986995,357554.000,62635,1,T0,1,100,28.537
1570475417.121011,357659.000,62653,1,T0,1,100,28.510
1570475417.252476,357762.000,62671,1,T0,1,100,28.553
1570475417.383940,357865.000,62706,1,T0,1,100,28.558
1570475417.516681,357969.000,62723,1,T0,1,100,28.558
1570475417.649422,358073.000,62742,1,T0,1,100,28.553
1570475417.782163,358177.000,62760,1,T0,1,100,28.574
1570475417.918732,358284.000,62778,1,T0,1,100,28.564
1570475418.052749,358389.000,62796,1,T0,1,100,28.580
1570475418.185490,358493.000,62814,1,T0,1,100,28.553
1570475418.319507,358598.000,62832,1,T0,1,100,28.574
1570475418.453525,358703.000,62850,1,T0,1,100,28.547
1570475418.583713,358805.000,62868,1,T0,1,100,28.564
1570475418.717730,358910.000,62887,1,T0,1,100,28.564
1570475418.854300,359017.000,62905,1,T0,1,100,28.580
1570475418.987040,359121.000,62923,1,T0,1,100,28.553
1570475419.121057,359226.000,62941,1,T0,1,100,28.569
1570475419.255075,359331.000,62959,1,T0,1,100,28.580
1570475419.387815,359435.000,62977,1,T0,1,100,28.569
1570475419.520556,359539.000,62995,1,T0,1,100,28.606
1570475419.653935,359643.500,63016,2,T0,1,100,28.585
1570475419.787314,359748.000,63016,2,T0,1,100,28.580
1570475419.920055,359852.000,63053,1,T0,1,100,28.590
1570475420.054072,359957.000,63071,1,T0,1,100,28.596
1570475420.188089,360062.000,63089,1,T0,1,100,28.585
1570475420.319553,360165.000,63107,1,T0,1,100,28.596
1570475420.451018,360268.000,63125,1,T0,1,100,28.585
1570475420.582482,360371.000,63143,1,T0,1,100,28.590
1570475420.715223,360475.000,63162,1,T0,1,100,28.596
1570475420.849240,360580.000,63180,1,T0,1,100,28.596
1570475420.981981,360684.000,63198,1,T0,1,100,28.612
1570475421.118551,360791.000,63216,1,T0,1,100,28.601
1570475421.251291,360895.000,63234,1,T0,1,100,28.596
1570475421.384032,360999.000,63252,1,T0,1,100,28.601
1570475421.516773,361103.000,63270,1,T0,1,100,28.617
1570475421.650790,361208.000,63288,1,T0,1,100,28.612
1570475421.783531,361312.000,63307,1,T0,1,100,28.585
1570475421.916271,361416.000,63325,1,T0,1,100,28.596
1570475422.052841,361523.000,63343,1,T0,1,100,28.590
1570475422.186858,361628.000,63361,1,T0,1,100,28.569
1570475422.320875,361733.000,63379,1,T0,1,100,28.590
1570475422.454893,361838.000,63397,1,T0,1,100,28.596
1570475422.590186,361944.000,63415,1,T0,1,100,28.623
1570475422.721650,362047.000,63433,1,T0,1,100,28.574
1570475422.855668,362152.000,63452,1,T0,1,100,28.617
1570475422.990961,362258.000,63469,1,T0,1,100,28.601
1570475423.122425,362361.000,63487,1,T0,1,100,28.606
1570475423.256443,362466.000,63505,1,T0,1,100,28.639
1570475423.390460,362571.000,63523,1,T0,1,100,28.606
1570475423.521924,362674.000,63541,1,T0,1,100,28.628
1570475423.653389,362777.000,63559,1,T0,1,100,28.639
1570475423.786129,362881.000,63594,1,T0,1,100,28.633
1570475423.918870,362985.000,63612,1,T0,1,100,28.617
1570475424.051611,363089.000,63630,1,T0,1,100,28.628
1570475424.185628,363194.000,63648,1,T0,1,100,28.644
1570475424.319645,363299.000,63666,1,T0,1,100,28.623
1570475424.453662,363404.000,63684,1,T0,1,100,28.623
1570475424.585126,363507.000,63702,1,T0,1,100,28.649
1570475424.717867,363611.000,63720,1,T0,1,100,28.617
1570475424.851884,363716.000,63739,1,T0,1,100,28.633
1570475424.984625,363820.000,63757,1,T0,1,100,28.660
1570475425.117366,363924.000,63775,1,T0,1,100,28.644
1570475425.253936,364031.000,63793,1,T0,1,100,28.606
1570475425.387953,364136.000,63811,1,T0,1,100,28.628
1570475425.520694,364240.000,63829,1,T0,1,100,28.633
1570475425.654711,364345.000,63847,1,T0,1,100,28.633
1570475425.790004,364451.000,63865,1,T0,1,100,28.623
1570475425.921468,364554.000,63884,1,T0,1,100,28.644
1570475426.055485,364659.000,63902,1,T0,1,100,28.628
1570475426.188864,364763.500,63923,2,T0,1,100,28.644
1570475426.322243,364868.000,63923,2,T0,1,100,28.655
1570475426.456261,364973.000,63959,1,T0,1,100,28.633
1570475426.587725,365076.000,63977,1,T0,1,100,28.633
1570475426.719189,365179.000,63995,1,T0,1,100,28.623
1570475426.850654,365282.000,64014,1,T0,1,100,28.671
1570475426.983395,365386.000,64032,1,T0,1,100,28.649
1570475427.116135,365490.000,64050,1,T0,1,100,28.660
1570475427.248876,365594.000,64068,1,T0,1,100,28.596
1570475427.382893,365699.000,64086,1,T0,1,100,28.682
1570475427.516910,365804.000,64104,1,T0,1,100,28.649
1570475427.650927,365909.000,64122,1,T0,1,100,28.676
1570475427.782392,366012.000,64140,1,T0,1,100,28.687
1570475427.915133,366116.000,64159,1,T0,1,100,28.676
1570475428.049150,366221.000,64177,1,T0,1,100,28.692
1570475428.183167,366326.000,64195,1,T0,1,100,28.681
1570475428.315907,366430.000,64213,1,T0,1,100,28.671
1570475428.452477,366537.000,64231,1,T0,1,100,28.676
1570475428.587771,366643.000,64249,1,T0,1,100,28.665
1570475428.719235,366746.000,64267,1,T0,1,100,28.671
1570475428.853252,366851.000,64286,1,T0,1,100,28.682
1570475428.988546,366957.000,64304,1,T0,1,100,28.692
1570475429.120010,367060.000,64322,1,T0,1,100,28.703
1570475429.254027,367165.000,64340,1,T0,1,100,28.649
1570475429.389321,367271.000,64358,1,T0,1,100,28.687
1570475429.520785,367374.000,64375,1,T0,1,100,28.708
1570475429.654802,367479.000,64393,1,T0,1,100,28.671
1570475429.786267,367582.000,64411,1,T0,1,100,28.730
1570475429.917731,367685.000,64430,1,T0,1,100,28.703
1570475430.049196,367788.000,64448,1,T0,1,100,28.681
1570475430.181936,367892.000,64466,1,T0,1,100,28.724
1570475430.315953,367997.000,64484,1,T0,1,100,28.730
1570475430.448694,368101.000,64502,1,T0,1,100,28.676
1570475430.582711,368206.000,64536,1,T0,1,100,28.708
1570475430.714176,368309.000,64554,1,T0,1,100,28.703
1570475430.848193,368414.000,64573,1,T0,1,100,28.703
1570475430.979657,368517.000,64591,1,T0,1,100,28.740
1570475431.112398,368621.000,64609,1,T0,1,100,28.724
1570475431.246415,368726.000,64627,1,T0,1,100,28.708
1570475431.380432,368831.000,64645,1,T0,1,100,28.708
1570475431.513173,368935.000,64663,1,T0,1,100,28.692
1570475431.649743,369042.000,64681,1,T0,1,100,28.724
1570475431.783760,369147.000,64699,1,T0,1,100,28.692
1570475431.915224,369250.000,64718,1,T0,1,100,28.692
1570475432.049241,369355.000,64736,1,T0,1,100,28.751
1570475432.184535,369461.000,64754,1,T0,1,100,28.692
1570475432.315999,369564.000,64772,1,T0,1,100,28.708
1570475432.450016,369669.000,64790,1,T0,1,100,28.751
1570475432.585310,369775.000,64808,1,T0,1,100,28.735
1570475432.716774,369878.000,64829,2,T0,1,100,28.714
1570475432.848239,369981.000,64829,2,T0,1,100,28.735
1570475432.980979,370085.000,64866,1,T0,1,100,28.773
1570475433.112444,370188.000,64884,1,T0,1,100,28.740
1570475433.243908,370291.000,64902,1,T0,1,100,28.740
1570475433.377925,370396.000,64920,1,T0,1,100,28.757
1570475433.511942,370501.000,64938,1,T0,1,100,28.767
1570475433.644683,370605.000,64956,1,T0,1,100,28.783
1570475433.779977,370711.000,64974,1,T0,1,100,28.703
1570475433.911441,370814.000,64993,1,T0,1,100,28.724
1570475434.045458,370919.000,65011,1,T0,1,100,28.762
1570475434.176923,371022.000,65029,1,T0,1,100,28.751
1570475434.309663,371126.000,65047,1,T0,1,100,28.719
1570475434.444957,371232.000,65065,1,T0,1,100,28.751
1570475434.578974,371337.000,65083,1,T0,1,100,28.767
1570475434.711715,371441.000,65101,1,T0,1,100,28.757
1570475434.847008,371547.000,65119,1,T0,1,100,28.773
1570475434.982301,371653.000,65138,1,T0,1,100,28.773
1570475435.113766,371756.000,65156,1,T0,1,100,28.789
1570475435.247783,371861.000,65174,1,T0,1,100,28.789
1570475435.383076,371967.000,65192,1,T0,1,100,28.762
1570475435.515817,372071.000,65210,1,T0,1,100,28.810
1570475435.649834,372176.000,65228,1,T0,1,100,28.778
1570475435.786404,372283.000,65246,1,T0,1,100,28.762
1570475435.917869,372386.000,65263,1,T0,1,100,28.789
1570475436.049333,372489.000,65282,1,T0,1,100,28.757
1570475436.182074,372593.000,65300,1,T0,1,100,28.799
1570475436.313538,372696.000,65318,1,T0,1,100,28.757
1570475436.446279,372800.000,65336,1,T0,1,100,28.805
1570475436.580296,372905.000,65354,1,T0,1,100,28.789
1570475436.714313,373010.000,65372,1,T0,1,100,28.805
1570475436.847054,373114.000,65390,1,T0,1,100,28.816
1570475436.979795,373218.000,65425,1,T0,1,100,28.757
1570475437.112535,373322.000,65443,1,T0,1,100,28.783
1570475437.246552,373427.000,65461,1,T0,1,100,28.789
1570475437.378017,373530.000,65479,1,T0,1,100,28.848
1570475437.510758,373634.000,65497,1,T0,1,100,28.789
1570475437.647327,373741.000,65515,1,T0,1,100,28.773
1570475437.781345,373846.000,65533,1,T0,1,100,28.778
1570475437.914085,373950.000,15,1,T0,1,100,28.799
1570475438.048103,374055.000,34,1,T0,1,100,28.757
1570475438.182120,374160.000,52,1,T0,1,100,28.773
1570475438.312308,374262.000,70,1,T0,1,100,28.794
1570475438.446325,374367.000,88,1,T0,1,100,28.778
1570475438.580342,374472.000,106,1,T0,1,100,28.821
1570475438.713083,374576.000,124,1,T0,1,100,28.778
1570475438.847100,374681.000,142,1,T0,1,100,28.794
1570475438.982393,374787.000,160,1,T0,1,100,28.810
1570475439.113858,374890.000,179,1,T0,1,100,28.794
1570475439.245960,374993.500,200,2,T0,1,100,28.783
1570475439.378063,375097.000,200,2,T0,1,100,28.810
1570475439.509527,375200.000,236,1,T0,1,100,28.794
1570475439.642268,375304.000,254,1,T0,1,100,28.832
1570475439.776285,375409.000,272,1,T0,1,100,28.773
1570475439.910302,375514.000,290,1,T0,1,100,28.842
1570475440.044319,375619.000,309,1,T0,1,100,28.821
1570475440.175784,375722.000,327,1,T0,1,100,28.767
1570475440.308524,375826.000,345,1,T0,1,100,28.816
1570475440.442542,375931.000,363,1,T0,1,100,28.837
1570475440.576559,376036.000,381,1,T0,1,100,28.816
1570475440.709299,376140.000,399,1,T0,1,100,28.816
1570475440.845869,376247.000,417,1,T0,1,100,28.821
1570475440.979886,376352.000,435,1,T0,1,100,28.826
1570475441.112627,376456.000,454,1,T0,1,100,28.794
1570475441.246644,376561.000,472,1,T0,1,100,28.826
1570475441.380661,376666.000,490,1,T0,1,100,28.826
1570475441.510849,376768.000,508,1,T0,1,100,28.858
1570475441.644866,376873.000,526,1,T0,1,100,28.816
1570475441.781436,376980.000,544,1,T0,1,100,28.832
1570475441.914177,377084.000,562,1,T0,1,100,28.864
1570475442.048194,377189.000,580,1,T0,1,100,28.842
1570475442.182211,377294.000,599,1,T0,1,100,28.853
1570475442.313676,377397.000,616,1,T0,1,100,28.848
1570475442.445140,377500.000,634,1,T0,1,100,28.858
1570475442.577881,377604.000,652,1,T0,1,100,28.848
1570475442.710622,377708.000,670,1,T0,1,100,28.837
1570475442.843362,377812.000,688,1,T0,1,100,28.816
1570475442.977380,377917.000,706,1,T0,1,100,28.832
1570475443.111397,378022.000,724,1,T0,1,100,28.848
1570475443.244137,378126.000,743,1,T0,1,100,28.848
1570475443.375602,378229.000,777,1,T0,1,100,28.864
1570475443.508343,378333.000,795,1,T0,1,100,28.875
1570475443.642360,378438.000,813,1,T0,1,100,28.875
1570475443.776377,378543.000,831,1,T0,1,100,28.821
1570475443.909117,378647.000,849,1,T0,1,100,28.799
1570475444.045687,378754.000,868,1,T0,1,100,28.875
1570475444.179704,378859.000,886,1,T0,1,100,28.864
1570475444.309892,378961.000,904,1,T0,1,100,28.805
1570475444.443910,379066.000,922,1,T0,1,100,28.858
1570475444.577076,379170.333,940,3,T0,1,100,28.880
1570475444.710242,379274.667,940,3,T0,1,100,28.875
1570475444.843408,379379.000,940,3,T0,1,100,28.842
