EpochTimestamp,EmotiBitTimestamp,PacketNumber,DataLength,TypeTag,ProtocolVersion,DataReliability,EL
1558722341.838264,275034.000,48085,5,EL,1,100,1.053204
1558722341.838264,275034.000,48085,5,EL,1,100,1.053204
1558722341.838264,275034.000,48085,5,EL,1,100,1.053607
1558722341.838264,275034.000,48085,5,EL,1,100,1.052197
1558722341.838264,275034.000,48085,5,EL,1,100,1.051190
1558722341.905006,275083.000,48103,3,EL,1,100,1.051190
1558722341.971748,275132.000,48103,3,EL,1,100,1.051190
1558722342.038490,275181.000,48103,3,EL,1,100,1.049982
1558722342.104551,275229.500,48121,2,EL,1,100,1.049579
1558722342.170612,275278.000,48121,2,EL,1,100,1.048572
1558722342.237354,275327.000,48139,2,EL,1,100,1.047968
1558722342.304096,275376.000,48139,2,EL,1,100,1.046356
1558722342.370157,275424.500,48157,2,EL,1,100,1.045550
1558722342.436218,275473.000,48157,2,EL,1,100,1.046558
1558722342.502959,275522.000,48176,2,EL,1,100,1.043738
1558722342.569701,275571.000,48176,2,EL,1,100,1.043536
1558722342.637124,275620.500,48194,2,EL,1,100,1.041925
1558722342.704547,275670.000,48194,2,EL,1,100,1.041321
1558722342.771970,275719.500,48212,2,EL,1,100,1.040314
1558722342.839393,275769.000,48212,2,EL,1,100,1.039911
1558722342.905454,275817.500,48230,2,EL,1,100,1.038501
1558722342.971515,275866.000,48230,2,EL,1,100,1.036688
1558722343.037576,275914.500,48248,2,EL,1,100,1.037897
1558722343.103637,275963.000,48248,2,EL,1,100,1.035883
1558722343.169357,276011.250,48269,4,EL,1,100,1.036285
1558722343.235077,276059.500,48269,4,EL,1,100,1.035077
1558722343.300798,276107.750,48269,4,EL,1,100,1.034876
1558722343.366518,276156.000,48269,4,EL,1,100,1.034070
1558722343.433260,276205.000,48289,2,EL,1,100,1.032458
1558722343.500002,276254.000,48289,2,EL,1,100,1.031653
1558722343.566063,276302.500,48308,2,EL,1,100,1.033264
1558722343.632124,276351.000,48308,2,EL,1,100,1.031451
1558722343.699547,276400.500,48326,2,EL,1,100,1.031250
1558722343.766970,276450.000,48326,2,EL,1,100,1.031250
1558722343.834393,276499.500,48344,2,EL,1,100,1.028027
1558722343.901815,276549.000,48344,2,EL,1,100,1.028833
1558722343.967876,276597.500,48362,2,EL,1,100,1.029639
1558722344.033937,276646.000,48362,2,EL,1,100,1.027020
1558722344.100679,276695.000,48380,2,EL,1,100,1.029437
1558722344.167421,276744.000,48380,2,EL,1,100,1.029034
1558722344.234163,276793.000,48398,2,EL,1,100,1.029639
1558722344.300905,276842.000,48398,2,EL,1,100,1.027826
1558722344.367193,276890.667,48416,3,EL,1,100,1.028632
1558722344.433481,276939.333,48416,3,EL,1,100,1.025812
1558722344.499768,276988.000,48416,3,EL,1,100,1.027826
1558722344.565830,277036.500,48435,2,EL,1,100,1.028430
1558722344.631890,277085.000,48435,2,EL,1,100,1.026013
1558722344.699994,277135.000,48453,2,EL,1,100,1.027020
1558722344.768098,277185.000,48453,2,EL,1,100,1.024805
1558722344.835521,277234.500,48471,2,EL,1,100,1.029236
1558722344.902944,277284.000,48471,2,EL,1,100,1.027423
1558722344.969686,277333.000,48489,2,EL,1,100,1.025208
1558722345.036428,277382.000,48489,2,EL,1,100,1.028632
1558722345.102489,277430.500,48507,2,EL,1,100,1.025812
1558722345.168550,277479.000,48507,2,EL,1,100,1.028632
1558722345.235292,277528.000,48525,2,EL,1,100,1.025409
1558722345.302034,277577.000,48525,2,EL,1,100,1.027423
1558722345.368094,277625.500,48543,2,EL,1,100,1.025610
1558722345.434155,277674.000,48543,2,EL,1,100,1.028229
1558722345.500897,277723.000,48562,2,EL,1,100,1.026617
1558722345.567639,277772.000,48562,2,EL,1,100,1.027624
1558722345.635743,277822.000,48580,2,EL,1,100,1.026819
1558722345.703847,277872.000,48580,2,EL,1,100,1.026416
1558722345.771270,277921.500,48598,2,EL,1,100,1.027423
1558722345.838693,277971.000,48598,2,EL,1,100,1.028430
1558722345.906116,278020.500,48616,2,EL,1,100,1.027222
1558722345.973539,278070.000,48616,2,EL,1,100,1.028833
1558722346.040962,278119.500,48634,2,EL,1,100,1.025812
1558722346.108385,278169.000,48634,2,EL,1,100,1.028027
1558722346.173765,278217.000,48652,2,EL,1,100,1.027423
1558722346.239145,278265.000,48652,2,EL,1,100,1.025409
1558722346.305205,278313.500,48670,2,EL,1,100,1.026617
1558722346.371266,278362.000,48670,2,EL,1,100,1.026215
1558722346.437327,278410.500,48689,2,EL,1,100,1.028833
1558722346.503388,278459.000,48689,2,EL,1,100,1.027222
1558722346.569449,278507.500,48707,2,EL,1,100,1.026819
1558722346.635510,278556.000,48707,2,EL,1,100,1.028027
1558722346.702252,278605.000,48725,3,EL,1,100,1.026617
1558722346.768994,278654.000,48725,3,EL,1,100,1.026013
1558722346.835736,278703.000,48725,3,EL,1,100,1.026617
1558722346.903158,278752.500,48743,2,EL,1,100,1.026013
1558722346.970582,278802.000,48743,2,EL,1,100,1.026215
1558722347.037323,278851.000,48761,2,EL,1,100,1.027222
1558722347.104065,278900.000,48761,2,EL,1,100,1.029034
1558722347.169445,278948.000,48779,2,EL,1,100,1.027020
1558722347.234825,278996.000,48779,2,EL,1,100,1.027423
1558722347.300886,279044.500,48797,2,EL,1,100,1.026819
1558722347.366947,279093.000,48797,2,EL,1,100,1.027222
1558722347.433008,279141.500,48815,2,EL,1,100,1.025409
1558722347.499068,279190.000,48815,2,EL,1,100,1.026416
1558722347.564448,279238.000,48834,2,EL,1,100,1.024603
1558722347.629828,279286.000,48834,2,EL,1,100,1.026617
1558722347.697932,279336.000,48852,2,EL,1,100,1.025812
1558722347.766036,279386.000,48852,2,EL,1,100,1.026617
1558722347.833323,279435.400,48870,5,EL,1,100,1.025812
1558722347.900610,279484.800,48870,5,EL,1,100,1.024603
1558722347.967896,279534.200,48870,5,EL,1,100,1.025208
1558722348.035183,279583.600,48870,5,EL,1,100,1.024805
1558722348.102470,279633.000,48870,5,EL,1,100,1.024200
1558722348.168667,279681.600,48888,5,EL,1,100,1.025812
1558722348.234864,279730.200,48888,5,EL,1,100,1.024402
1558722348.301061,279778.800,48888,5,EL,1,100,1.024603
1558722348.367258,279827.400,48888,5,EL,1,100,1.022388
1558722348.433455,279876.000,48888,5,EL,1,100,1.023596
1558722348.499516,279924.500,48907,2,EL,1,100,1.025409
1558722348.565577,279973.000,48907,2,EL,1,100,1.024805
1558722348.633000,280022.500,48925,2,EL,1,100,1.023798
1558722348.700423,280072.000,48925,2,EL,1,100,1.022186
1558722348.767846,280121.500,48943,2,EL,1,100,1.024603
1558722348.835269,280171.000,48943,2,EL,1,100,1.023999
1558722348.902919,280220.667,48961,3,EL,1,100,1.025208
1558722348.970569,280270.333,48961,3,EL,1,100,1.024805
1558722349.038219,280320.000,48961,3,EL,1,100,1.023596
1558722349.105642,280369.500,48979,2,EL,1,100,1.022589
1558722349.173065,280419.000,48979,2,EL,1,100,1.023999
1558722349.239125,280467.500,48997,2,EL,1,100,1.023596
1558722349.305187,280516.000,48997,2,EL,1,100,1.024402
1558722349.370566,280564.000,49015,2,EL,1,100,1.023193
1558722349.435946,280612.000,49015,2,EL,1,100,1.023193
1558722349.502007,280660.500,49033,2,EL,1,100,1.023395
1558722349.568068,280709.000,49033,2,EL,1,100,1.022589
1558722349.634810,280758.000,49052,2,EL,1,100,1.022589
1558722349.701552,280807.000,49052,2,EL,1,100,1.023395
1558722349.767612,280855.500,49070,2,EL,1,100,1.021582
1558722349.833673,280904.000,49070,2,EL,1,100,1.022791
1558722349.901096,280953.500,49088,2,EL,1,100,1.022186
1558722349.968519,281003.000,49088,2,EL,1,100,1.021381
1558722350.035261,281052.000,49106,2,EL,1,100,1.021381
1558722350.102003,281101.000,49106,2,EL,1,100,1.021582
1558722350.168291,281149.667,49127,3,EL,1,100,1.020776
1558722350.234579,281198.333,49127,3,EL,1,100,1.021985
1558722350.300867,281247.000,49127,3,EL,1,100,1.021179
1558722350.366247,281295.000,49147,2,EL,1,100,1.020978
1558722350.431627,281343.000,49147,2,EL,1,100,1.020575
1558722350.497460,281391.333,49166,3,EL,1,100,1.020575
1558722350.563294,281439.667,49166,3,EL,1,100,1.020776
1558722350.629128,281488.000,49166,3,EL,1,100,1.020172
1558722350.696551,281537.500,49184,2,EL,1,100,1.021179
1558722350.763974,281587.000,49184,2,EL,1,100,1.020776
1558722350.831397,281636.500,49202,2,EL,1,100,1.019971
1558722350.898820,281686.000,49202,2,EL,1,100,1.021985
1558722350.964881,281734.500,49220,2,EL,1,100,1.020776
1558722351.030942,281783.000,49220,2,EL,1,100,1.021179
1558722351.099046,281833.000,49238,2,EL,1,100,1.020978
1558722351.167150,281883.000,49238,2,EL,1,100,1.020575
1558722351.234573,281932.500,49256,2,EL,1,100,1.021179
1558722351.301996,281982.000,49256,2,EL,1,100,1.020575
1558722351.368057,282030.500,49274,2,EL,1,100,1.022186
1558722351.434117,282079.000,49274,2,EL,1,100,1.021783
1558722351.500178,282127.500,49292,2,EL,1,100,1.021179
1558722351.566239,282176.000,49292,2,EL,1,100,1.020978
1558722351.632981,282225.000,49311,2,EL,1,100,1.020978
1558722351.699723,282274.000,49311,2,EL,1,100,1.021582
1558722351.767146,282323.500,49329,2,EL,1,100,1.021381
1558722351.834569,282373.000,49329,2,EL,1,100,1.021783
1558722351.901992,282422.500,49347,2,EL,1,100,1.021985
1558722351.969415,282472.000,49347,2,EL,1,100,1.022589
1558722352.037519,282522.000,49365,2,EL,1,100,1.020978
1558722352.105623,282572.000,49365,2,EL,1,100,1.023193
1558722352.173046,282621.500,49383,2,EL,1,100,1.019971
1558722352.240469,282671.000,49383,2,EL,1,100,1.019366
1558722352.307210,282720.000,49401,2,EL,1,100,1.021179
1558722352.373952,282769.000,49401,2,EL,1,100,1.019769
1558722352.440013,282817.500,49419,2,EL,1,100,1.021381
1558722352.506074,282866.000,49419,2,EL,1,100,1.020575
1558722352.571454,282914.000,49438,2,EL,1,100,1.020172
1558722352.636834,282962.000,49438,2,EL,1,100,1.021179
1558722352.702668,283010.333,49456,3,EL,1,100,1.020172
1558722352.768502,283058.667,49456,3,EL,1,100,1.019769
1558722352.834336,283107.000,49456,3,EL,1,100,1.019971
1558722352.901758,283156.500,49474,2,EL,1,100,1.019769
1558722352.969181,283206.000,49474,2,EL,1,100,1.019971
1558722353.035923,283255.000,49492,2,EL,1,100,1.019971
1558722353.102665,283304.000,49492,2,EL,1,100,1.020575
1558722353.168726,283352.500,49510,2,EL,1,100,1.018561
1558722353.234787,283401.000,49510,2,EL,1,100,1.019165
1558722353.301529,283450.000,49528,2,EL,1,100,1.019165
1558722353.368271,283499.000,49528,2,EL,1,100,1.019971
1558722353.434332,283547.500,49546,2,EL,1,100,1.019971
1558722353.500392,283596.000,49546,2,EL,1,100,1.019165
1558722353.565772,283644.000,49564,2,EL,1,100,1.019971
1558722353.631152,283692.000,49564,2,EL,1,100,1.019568
1558722353.697213,283740.500,49583,2,EL,1,100,1.020776
1558722353.763274,283789.000,49583,2,EL,1,100,1.019971
1558722353.830697,283838.500,49601,2,EL,1,100,1.021179
1558722353.898120,283888.000,49601,2,EL,1,100,1.021582
1558722353.964181,283936.500,49619,2,EL,1,100,1.020776
1558722354.030241,283985.000,49619,2,EL,1,100,1.020776
1558722354.098346,284035.000,49637,2,EL,1,100,1.020978
1558722354.166450,284085.000,49637,2,EL,1,100,1.019971
1558722354.233873,284134.500,49655,2,EL,1,100,1.022186
1558722354.301296,284184.000,49655,2,EL,1,100,1.021381
1558722354.368037,284233.000,49673,2,EL,1,100,1.021381
1558722354.434779,284282.000,49673,2,EL,1,100,1.022388
1558722354.500840,284330.500,49691,2,EL,1,100,1.021179
1558722354.566901,284379.000,49691,2,EL,1,100,1.020373
1558722354.633643,284428.000,49710,2,EL,1,100,1.021179
1558722354.700385,284477.000,49710,2,EL,1,100,1.021582
1558722354.766446,284525.500,49728,2,EL,1,100,1.021582
1558722354.832507,284574.000,49728,2,EL,1,100,1.021783
1558722354.899249,284623.000,49746,3,EL,1,100,1.022388
1558722354.965991,284672.000,49746,3,EL,1,100,1.022992
1558722355.032732,284721.000,49746,3,EL,1,100,1.022791
1558722355.099474,284770.000,49764,2,EL,1,100,1.022589
1558722355.166216,284819.000,49764,2,EL,1,100,1.022791
1558722355.234320,284869.000,49782,2,EL,1,100,1.021381
1558722355.302424,284919.000,49782,2,EL,1,100,1.022388
1558722355.369166,284968.000,49800,2,EL,1,100,1.022186
1558722355.435908,285017.000,49800,2,EL,1,100,1.021985
1558722355.502650,285066.000,49818,2,EL,1,100,1.022589
1558722355.569392,285115.000,49818,2,EL,1,100,1.023596
1558722355.635453,285163.500,49837,2,EL,1,100,1.023999
1558722355.701514,285212.000,49837,2,EL,1,100,1.023193
1558722355.768255,285261.000,49855,2,EL,1,100,1.023193
1558722355.834997,285310.000,49855,2,EL,1,100,1.023798
1558722355.901058,285358.500,49873,2,EL,1,100,1.024402
1558722355.967119,285407.000,49873,2,EL,1,100,1.023798
1558722356.033861,285456.000,49891,2,EL,1,100,1.024200
1558722356.100603,285505.000,49891,2,EL,1,100,1.023596
1558722356.167345,285554.000,49909,2,EL,1,100,1.023193
1558722356.234087,285603.000,49909,2,EL,1,100,1.022992
1558722356.300829,285652.000,49927,2,EL,1,100,1.023395
1558722356.367571,285701.000,49927,2,EL,1,100,1.022791
1558722356.434313,285750.000,49945,2,EL,1,100,1.023999
1558722356.501055,285799.000,49945,2,EL,1,100,1.024402
1558722356.567115,285847.500,49963,2,EL,1,100,1.023395
1558722356.633176,285896.000,49963,2,EL,1,100,1.023596
1558722356.698556,285944.000,49982,2,EL,1,100,1.023395
1558722356.763936,285992.000,49982,2,EL,1,100,1.023596
1558722356.829770,286040.333,50000,3,EL,1,100,1.025610
1558722356.895604,286088.667,50000,3,EL,1,100,1.023193
1558722356.961437,286137.000,50000,3,EL,1,100,1.024603
1558722357.028861,286186.500,50018,2,EL,1,100,1.024402
1558722357.096283,286236.000,50018,2,EL,1,100,1.025208
1558722357.163479,286285.333,50039,3,EL,1,100,1.023193
1558722357.230675,286334.667,50039,3,EL,1,100,1.024603
1558722357.297871,286384.000,50039,3,EL,1,100,1.024805
1558722357.365294,286433.500,50059,2,EL,1,100,1.022791
1558722357.432717,286483.000,50059,2,EL,1,100,1.022791
1558722357.498778,286531.500,50077,2,EL,1,100,1.022589
1558722357.564839,286580.000,50077,2,EL,1,100,1.022186
1558722357.631581,286629.000,50095,2,EL,1,100,1.022186
1558722357.698323,286678.000,50095,2,EL,1,100,1.022186
1558722357.765065,286727.000,50114,2,EL,1,100,1.021783
1558722357.831807,286776.000,50114,2,EL,1,100,1.022589
1558722357.897187,286824.000,50132,2,EL,1,100,1.023596
1558722357.962566,286872.000,50132,2,EL,1,100,1.020978
1558722358.029989,286921.500,50150,2,EL,1,100,1.022186
1558722358.097412,286971.000,50150,2,EL,1,100,1.021985
1558722358.164835,287020.500,50168,2,EL,1,100,1.021381
1558722358.232258,287070.000,50168,2,EL,1,100,1.020373
1558722358.298319,287118.500,50186,2,EL,1,100,1.021582
1558722358.364380,287167.000,50186,2,EL,1,100,1.020776
1558722358.432484,287217.000,50204,2,EL,1,100,1.021582
1558722358.500588,287267.000,50204,2,EL,1,100,1.020776
1558722358.568011,287316.500,50222,2,EL,1,100,1.020575
1558722358.635434,287366.000,50222,2,EL,1,100,1.019769
1558722358.701495,287414.500,50241,2,EL,1,100,1.019568
1558722358.767555,287463.000,50241,2,EL,1,100,1.020373
1558722358.833843,287511.667,50259,3,EL,1,100,1.019971
1558722358.900131,287560.333,50259,3,EL,1,100,1.019971
1558722358.966419,287609.000,50259,3,EL,1,100,1.019769
1558722359.033161,287658.000,50277,2,EL,1,100,1.018762
1558722359.099903,287707.000,50277,2,EL,1,100,1.017956
1558722359.166645,287756.000,50295,2,EL,1,100,1.019769
1558722359.233387,287805.000,50295,2,EL,1,100,1.019366
1558722359.300129,287854.000,50313,2,EL,1,100,1.019165
1558722359.366871,287903.000,50313,2,EL,1,100,1.020172
1558722359.433613,287952.000,50331,2,EL,1,100,1.019971
1558722359.500355,288001.000,50331,2,EL,1,100,1.019366
1558722359.567096,288050.000,50349,2,EL,1,100,1.020575
1558722359.633838,288099.000,50349,2,EL,1,100,1.017755
1558722359.699218,288147.000,50368,2,EL,1,100,1.019568
1558722359.764598,288195.000,50368,2,EL,1,100,1.020172
1558722359.830659,288243.500,50386,2,EL,1,100,1.019165
1558722359.896720,288292.000,50386,2,EL,1,100,1.018964
1558722359.962781,288340.500,50404,2,EL,1,100,1.018964
1558722360.028841,288389.000,50404,2,EL,1,100,1.018561
1558722360.094902,288437.500,50422,2,EL,1,100,1.018158
1558722360.160963,288486.000,50422,2,EL,1,100,1.019568
1558722360.228386,288535.500,50440,2,EL,1,100,1.019769
1558722360.295809,288585.000,50440,2,EL,1,100,1.017352
1558722360.363232,288634.500,50458,2,EL,1,100,1.017755
1558722360.430655,288684.000,50458,2,EL,1,100,1.019165
1558722360.497397,288733.000,50476,2,EL,1,100,1.018964
1558722360.564139,288782.000,50476,2,EL,1,100,1.017956
1558722360.630881,288831.000,50494,2,EL,1,100,1.019165
1558722360.697623,288880.000,50494,2,EL,1,100,1.018561
1558722360.764365,288929.000,50513,2,EL,1,100,1.018762
1558722360.831106,288978.000,50513,2,EL,1,100,1.019568
1558722360.897394,289026.667,50531,3,EL,1,100,1.018561
1558722360.963682,289075.333,50531,3,EL,1,100,1.019366
1558722361.029970,289124.000,50531,3,EL,1,100,1.017956
1558722361.095350,289172.000,50549,2,EL,1,100,1.017956
1558722361.160730,289220.000,50549,2,EL,1,100,1.019165
1558722361.228834,289270.000,50567,2,EL,1,100,1.018561
1558722361.296938,289320.000,50567,2,EL,1,100,1.020172
1558722361.364361,289369.500,50585,2,EL,1,100,1.019568
1558722361.431784,289419.000,50585,2,EL,1,100,1.018964
1558722361.497845,289467.500,50603,2,EL,1,100,1.019971
1558722361.563905,289516.000,50603,2,EL,1,100,1.018561
1558722361.631329,289565.500,50621,2,EL,1,100,1.019165
1558722361.698751,289615.000,50621,2,EL,1,100,1.019165
1558722361.765493,289664.000,50640,2,EL,1,100,1.019165
1558722361.832235,289713.000,50640,2,EL,1,100,1.018561
1558722361.898296,289761.500,50658,2,EL,1,100,1.017956
1558722361.964357,289810.000,50658,2,EL,1,100,1.019165
1558722362.030418,289858.500,50676,2,EL,1,100,1.019366
1558722362.096479,289907.000,50676,2,EL,1,100,1.018359
1558722362.163221,289956.000,50694,2,EL,1,100,1.019366
1558722362.229963,290005.000,50694,2,EL,1,100,1.018359
1558722362.296705,290054.000,50712,2,EL,1,100,1.019568
1558722362.363446,290103.000,50712,2,EL,1,100,1.019366
1558722362.430188,290152.000,50730,2,EL,1,100,1.019165
1558722362.496930,290201.000,50730,2,EL,1,100,1.018561
1558722362.563672,290250.000,50748,2,EL,1,100,1.019165
1558722362.630414,290299.000,50748,2,EL,1,100,1.018964
1558722362.697156,290348.000,50766,2,EL,1,100,1.018964
1558722362.763898,290397.000,50766,2,EL,1,100,1.017554
1558722362.829959,290445.500,50785,2,EL,1,100,1.019165
1558722362.896020,290494.000,50785,2,EL,1,100,1.018561
1558722362.961854,290542.333,50803,3,EL,1,100,1.019366
1558722363.027687,290590.667,50803,3,EL,1,100,1.019165
1558722363.093521,290639.000,50803,3,EL,1,100,1.018964
1558722363.160263,290688.000,50821,2,EL,1,100,1.018561
1558722363.227005,290737.000,50821,2,EL,1,100,1.019165
1558722363.292385,290785.000,50839,2,EL,1,100,1.019568
1558722363.357765,290833.000,50839,2,EL,1,100,1.019769
1558722363.425188,290882.500,50857,2,EL,1,100,1.019568
1558722363.492611,290932.000,50857,2,EL,1,100,1.019165
1558722363.559353,290981.000,50875,2,EL,1,100,1.019971
1558722363.626095,291030.000,50875,2,EL,1,100,1.018359
1558722363.692155,291078.500,50893,2,EL,1,100,1.019366
1558722363.758216,291127.000,50893,2,EL,1,100,1.019769
1558722363.824958,291176.000,50912,2,EL,1,100,1.018359
1558722363.891700,291225.000,50912,2,EL,1,100,1.018359
1558722363.958442,291274.000,50930,2,EL,1,100,1.018964
1558722364.025184,291323.000,50930,2,EL,1,100,1.016547
1558722364.091472,291371.667,50951,3,EL,1,100,1.019769
1558722364.157760,291420.333,50951,3,EL,1,100,1.016748
1558722364.224048,291469.000,50951,3,EL,1,100,1.018158
1558722364.290108,291517.500,50971,2,EL,1,100,1.018561
1558722364.356169,291566.000,50971,2,EL,1,100,1.017352
1558722364.424273,291616.000,50989,2,EL,1,100,1.017554
1558722364.492377,291666.000,50989,2,EL,1,100,1.018762
1558722364.559800,291715.500,51007,2,EL,1,100,1.018359
1558722364.627223,291765.000,51007,2,EL,1,100,1.018561
1558722364.693284,291813.500,51025,2,EL,1,100,1.017755
1558722364.759345,291862.000,51025,2,EL,1,100,1.018561
1558722364.826087,291911.000,51044,3,EL,1,100,1.019366
1558722364.892829,291960.000,51044,3,EL,1,100,1.019165
1558722364.959571,292009.000,51044,3,EL,1,100,1.017554
1558722365.025632,292057.500,51062,2,EL,1,100,1.017956
1558722365.091692,292106.000,51062,2,EL,1,100,1.017554
1558722365.158434,292155.000,51080,2,EL,1,100,1.018561
1558722365.225176,292204.000,51080,2,EL,1,100,1.019165
1558722365.292599,292253.500,51098,2,EL,1,100,1.019366
1558722365.360022,292303.000,51098,2,EL,1,100,1.017755
1558722365.426764,292352.000,51116,2,EL,1,100,1.018561
1558722365.493506,292401.000,51116,2,EL,1,100,1.019769
1558722365.560929,292450.500,51134,2,EL,1,100,1.018762
1558722365.628352,292500.000,51134,2,EL,1,100,1.019568
1558722365.695775,292549.500,51152,2,EL,1,100,1.020373
1558722365.763198,292599.000,51152,2,EL,1,100,1.017151
1558722365.829940,292648.000,51171,2,EL,1,100,1.020172
1558722365.896682,292697.000,51171,2,EL,1,100,1.017956
1558722365.962743,292745.500,51189,2,EL,1,100,1.020172
1558722366.028803,292794.000,51189,2,EL,1,100,1.019165
1558722366.094183,292842.000,51207,2,EL,1,100,1.018762
1558722366.159563,292890.000,51207,2,EL,1,100,1.019366
1558722366.226305,292939.000,51225,2,EL,1,100,1.020978
1558722366.293047,292988.000,51225,2,EL,1,100,1.020172
1558722366.359789,293037.000,51243,2,EL,1,100,1.019568
1558722366.426531,293086.000,51243,2,EL,1,100,1.019366
1558722366.492592,293134.500,51261,2,EL,1,100,1.020776
1558722366.558652,293183.000,51261,2,EL,1,100,1.018964
1558722366.626076,293232.500,51279,2,EL,1,100,1.019971
1558722366.693498,293282.000,51279,2,EL,1,100,1.020978
1558722366.760240,293331.000,51298,2,EL,1,100,1.021582
1558722366.826982,293380.000,51298,2,EL,1,100,1.019366
1558722366.893270,293428.667,51316,3,EL,1,100,1.020172
1558722366.959558,293477.333,51316,3,EL,1,100,1.020172
1558722367.025846,293526.000,51316,3,EL,1,100,1.020373
1558722367.091226,293574.000,51334,2,EL,1,100,1.021179
1558722367.156605,293622.000,51334,2,EL,1,100,1.019366
1558722367.222667,293670.500,51352,2,EL,1,100,1.020776
1558722367.288727,293719.000,51352,2,EL,1,100,1.021179
1558722367.355469,293768.000,51370,2,EL,1,100,1.021179
1558722367.422211,293817.000,51370,2,EL,1,100,1.021783
1558722367.488272,293865.500,51388,2,EL,1,100,1.020776
1558722367.554333,293914.000,51388,2,EL,1,100,1.018762
1558722367.622437,293964.000,51406,2,EL,1,100,1.019971
1558722367.690541,294014.000,51406,2,EL,1,100,1.020575
1558722367.757964,294063.500,51424,2,EL,1,100,1.019366
1558722367.825387,294113.000,51424,2,EL,1,100,1.019366
1558722367.892129,294162.000,51443,2,EL,1,100,1.020978
1558722367.958871,294211.000,51443,2,EL,1,100,1.018964
1558722368.024931,294259.500,51461,2,EL,1,100,1.019769
1558722368.090992,294308.000,51461,2,EL,1,100,1.019971
1558722368.157734,294357.000,51479,2,EL,1,100,1.021179
1558722368.224476,294406.000,51479,2,EL,1,100,1.020575
1558722368.290537,294454.500,51497,2,EL,1,100,1.021179
1558722368.356598,294503.000,51497,2,EL,1,100,1.019971
1558722368.423340,294552.000,51515,2,EL,1,100,1.020776
1558722368.490082,294601.000,51515,2,EL,1,100,1.021179
1558722368.558186,294651.000,51533,2,EL,1,100,1.020373
1558722368.626290,294701.000,51533,2,EL,1,100,1.020373
1558722368.693713,294750.500,51551,2,EL,1,100,1.021582
1558722368.761136,294800.000,51551,2,EL,1,100,1.019971
1558722368.828559,294849.500,51570,2,EL,1,100,1.020776
1558722368.895982,294899.000,51570,2,EL,1,100,1.020172
1558722368.963405,294948.500,51588,2,EL,1,100,1.020776
1558722369.030828,294998.000,51588,2,EL,1,100,1.020373
1558722369.096661,295046.333,51606,3,EL,1,100,1.019971
1558722369.162495,295094.667,51606,3,EL,1,100,1.020373
1558722369.228329,295143.000,51606,3,EL,1,100,1.021179
1558722369.293709,295191.000,51624,2,EL,1,100,1.020373
1558722369.359089,295239.000,51624,2,EL,1,100,1.019971
1558722369.425831,295288.000,51642,2,EL,1,100,1.020172
1558722369.492573,295337.000,51642,2,EL,1,100,1.018964
1558722369.559314,295386.000,51660,2,EL,1,100,1.020172
1558722369.626056,295435.000,51660,2,EL,1,100,1.020575
1558722369.692117,295483.500,51678,2,EL,1,100,1.018964
1558722369.758178,295532.000,51678,2,EL,1,100,1.020373
1558722369.825601,295581.500,51696,2,EL,1,100,1.021381
1558722369.893024,295631.000,51696,2,EL,1,100,1.020575
1558722369.959766,295680.000,51715,2,EL,1,100,1.020172
1558722370.026508,295729.000,51715,2,EL,1,100,1.019366
1558722370.091888,295777.000,51733,2,EL,1,100,1.019769
1558722370.157268,295825.000,51733,2,EL,1,100,1.020575
1558722370.223328,295873.500,51751,2,EL,1,100,1.020172
1558722370.289389,295922.000,51751,2,EL,1,100,1.019769
1558722370.355450,295970.500,51769,2,EL,1,100,1.020776
1558722370.421511,296019.000,51769,2,EL,1,100,1.019568
1558722370.486891,296067.000,51787,2,EL,1,100,1.020776
1558722370.552271,296115.000,51787,2,EL,1,100,1.020373
1558722370.620375,296165.000,51805,2,EL,1,100,1.019971
1558722370.688479,296215.000,51805,2,EL,1,100,1.020172
1558722370.755902,296264.500,51823,2,EL,1,100,1.021582
1558722370.823325,296314.000,51823,2,EL,1,100,1.021985
1558722370.890067,296363.000,51842,2,EL,1,100,1.019971
1558722370.956809,296412.000,51842,2,EL,1,100,1.021179
1558722371.023891,296461.250,51863,4,EL,1,100,1.021783
1558722371.090973,296510.500,51863,4,EL,1,100,1.021783
1558722371.158056,296559.750,51863,4,EL,1,100,1.021179
1558722371.225138,296609.000,51863,4,EL,1,100,1.021985
1558722371.291199,296657.500,51883,2,EL,1,100,1.021179
1558722371.357260,296706.000,51883,2,EL,1,100,1.021582
1558722371.423321,296754.500,51901,2,EL,1,100,1.022186
1558722371.489382,296803.000,51901,2,EL,1,100,1.021783
1558722371.557486,296853.000,51919,2,EL,1,100,1.022388
1558722371.625590,296903.000,51919,2,EL,1,100,1.020575
1558722371.693013,296952.500,51937,2,EL,1,100,1.021985
1558722371.760436,297002.000,51937,2,EL,1,100,1.023193
1558722371.827859,297051.500,51955,2,EL,1,100,1.021582
1558722371.895282,297101.000,51955,2,EL,1,100,1.023395
1558722371.963386,297151.000,51974,2,EL,1,100,1.023193
1558722372.031490,297201.000,51974,2,EL,1,100,1.022388
1558722372.097550,297249.500,51992,2,EL,1,100,1.021985
1558722372.163611,297298.000,51992,2,EL,1,100,1.022791
1558722372.229672,297346.500,52010,2,EL,1,100,1.022992
1558722372.295733,297395.000,52010,2,EL,1,100,1.022388
1558722372.361794,297443.500,52028,2,EL,1,100,1.022791
1558722372.427855,297492.000,52028,2,EL,1,100,1.022992
1558722372.493235,297540.000,52046,2,EL,1,100,1.022388
1558722372.558614,297588.000,52046,2,EL,1,100,1.021783
1558722372.626037,297637.500,52064,2,EL,1,100,1.022791
1558722372.693460,297687.000,52064,2,EL,1,100,1.023193
1558722372.760202,297736.000,52082,2,EL,1,100,1.022992
1558722372.826944,297785.000,52082,2,EL,1,100,1.021381
1558722372.893005,297833.500,52101,2,EL,1,100,1.022388
1558722372.959066,297882.000,52101,2,EL,1,100,1.022388
1558722373.025808,297931.000,52119,3,EL,1,100,1.022388
1558722373.092550,297980.000,52119,3,EL,1,100,1.021179
1558722373.159292,298029.000,52119,3,EL,1,100,1.023193
1558722373.225353,298077.500,52137,2,EL,1,100,1.022186
1558722373.291414,298126.000,52137,2,EL,1,100,1.021985
1558722373.357474,298174.500,52155,2,EL,1,100,1.022186
1558722373.423535,298223.000,52155,2,EL,1,100,1.019971
1558722373.488915,298271.000,52173,2,EL,1,100,1.022388
1558722373.554295,298319.000,52173,2,EL,1,100,1.022186
1558722373.621718,298368.500,52191,2,EL,1,100,1.021783
1558722373.689141,298418.000,52191,2,EL,1,100,1.020575
1558722373.756564,298467.500,52209,2,EL,1,100,1.020575
1558722373.823987,298517.000,52209,2,EL,1,100,1.019568
1558722373.890048,298565.500,52227,2,EL,1,100,1.021783
1558722373.956108,298614.000,52227,2,EL,1,100,1.020373
1558722374.024212,298664.000,52246,2,EL,1,100,1.020575
1558722374.092316,298714.000,52246,2,EL,1,100,1.020575
1558722374.159058,298763.000,52264,2,EL,1,100,1.020172
1558722374.225800,298812.000,52264,2,EL,1,100,1.019366
1558722374.291861,298860.500,52282,2,EL,1,100,1.020373
1558722374.357922,298909.000,52282,2,EL,1,100,1.019568
1558722374.423983,298957.500,52300,2,EL,1,100,1.019568
1558722374.490044,299006.000,52300,2,EL,1,100,1.020575
1558722374.556786,299055.000,52318,2,EL,1,100,1.020978
1558722374.623528,299104.000,52318,2,EL,1,100,1.021582
1558722374.690269,299153.000,52336,2,EL,1,100,1.023395
1558722374.757011,299202.000,52336,2,EL,1,100,1.023596
1558722374.823753,299251.000,52354,2,EL,1,100,1.025610
1558722374.890495,299300.000,52354,2,EL,1,100,1.027020
1558722374.958599,299350.000,52373,2,EL,1,100,1.025409
1558722375.026703,299400.000,52373,2,EL,1,100,1.027423
1558722375.093445,299449.000,52391,2,EL,1,100,1.026819
1558722375.160187,299498.000,52391,2,EL,1,100,1.025208
1558722375.226929,299547.000,52409,3,EL,1,100,1.024200
1558722375.293671,299596.000,52409,3,EL,1,100,1.023395
1558722375.360413,299645.000,52409,3,EL,1,100,1.021783
1558722375.427155,299694.000,52427,2,EL,1,100,1.022186
1558722375.493897,299743.000,52427,2,EL,1,100,1.022589
1558722375.559958,299791.500,52445,2,EL,1,100,1.022791
1558722375.626018,299840.000,52445,2,EL,1,100,1.022992
1558722375.692760,299889.000,52463,2,EL,1,100,1.025208
1558722375.759502,299938.000,52463,2,EL,1,100,1.024805
1558722375.826244,299987.000,52481,2,EL,1,100,1.024603
1558722375.892986,300036.000,52481,2,EL,1,100,1.026416
1558722375.959728,300085.000,52500,2,EL,1,100,1.024200
1558722376.026470,300134.000,52500,2,EL,1,100,1.025006
1558722376.093212,300183.000,52518,2,EL,1,100,1.023193
1558722376.159954,300232.000,52518,2,EL,1,100,1.019769
1558722376.226015,300280.500,52536,2,EL,1,100,1.021179
1558722376.292075,300329.000,52536,2,EL,1,100,1.018762
1558722376.358136,300377.500,52554,2,EL,1,100,1.017956
1558722376.424197,300426.000,52554,2,EL,1,100,1.015540
1558722376.490258,300474.500,52572,2,EL,1,100,1.016547
1558722376.556319,300523.000,52572,2,EL,1,100,1.015338
1558722376.621699,300571.000,52590,2,EL,1,100,1.016748
1558722376.687079,300619.000,52590,2,EL,1,100,1.015942
1558722376.754502,300668.500,52608,2,EL,1,100,1.016547
1558722376.821924,300718.000,52608,2,EL,1,100,1.015942
1558722376.889348,300767.500,52626,2,EL,1,100,1.017755
1558722376.956770,300817.000,52626,2,EL,1,100,1.017554
1558722377.023512,300866.000,52645,2,EL,1,100,1.015540
1558722377.090254,300915.000,52645,2,EL,1,100,1.014331
1558722377.157677,300964.500,52663,2,EL,1,100,1.012518
1558722377.225100,301014.000,52663,2,EL,1,100,1.010303
1558722377.291842,301063.000,52681,3,EL,1,100,1.010303
1558722377.358584,301112.000,52681,3,EL,1,100,1.008289
1558722377.425326,301161.000,52681,3,EL,1,100,1.009497
1558722377.492068,301210.000,52699,2,EL,1,100,1.008087
1558722377.558810,301259.000,52699,2,EL,1,100,1.008087
1558722377.624190,301307.000,52717,2,EL,1,100,1.006274
1558722377.689569,301355.000,52717,2,EL,1,100,1.009094
1558722377.756992,301404.500,52735,2,EL,1,100,1.009296
1558722377.824415,301454.000,52735,2,EL,1,100,1.009296
1558722377.891838,301503.500,52753,2,EL,1,100,1.007684
1558722377.959261,301553.000,52753,2,EL,1,100,1.007080
1558722378.026457,301602.333,52775,3,EL,1,100,1.009094
1558722378.093653,301651.667,52775,3,EL,1,100,1.007281
1558722378.160849,301701.000,52775,3,EL,1,100,1.006879
1558722378.227591,301750.000,52795,2,EL,1,100,1.005872
1558722378.294333,301799.000,52795,2,EL,1,100,1.007281
1558722378.361075,301848.000,52813,2,EL,1,100,1.007281
1558722378.427817,301897.000,52813,2,EL,1,100,1.005267
1558722378.494559,301946.000,52831,2,EL,1,100,1.005872
1558722378.561301,301995.000,52831,2,EL,1,100,1.004260
1558722378.627362,302043.500,52849,2,EL,1,100,1.004260
1558722378.693422,302092.000,52849,2,EL,1,100,1.003253
1558722378.759483,302140.500,52867,2,EL,1,100,1.003253
1558722378.825544,302189.000,52867,2,EL,1,100,1.002246
1558722378.892286,302238.000,52885,2,EL,1,100,1.001642
1558722378.959028,302287.000,52885,2,EL,1,100,1.000433
1558722379.025770,302336.000,52904,2,EL,1,100,1.001440
1558722379.092512,302385.000,52904,2,EL,1,100,1.001843
1558722379.159254,302434.000,52922,3,EL,1,100,1.000433
1558722379.225996,302483.000,52922,3,EL,1,100,1.000635
1558722379.292737,302532.000,52922,3,EL,1,100,0.999426
1558722379.358798,302580.500,52940,2,EL,1,100,1.000433
1558722379.424859,302629.000,52940,2,EL,1,100,1.000031
1558722379.490920,302677.500,52958,2,EL,1,100,0.999023
1558722379.556981,302726.000,52958,2,EL,1,100,1.000635
1558722379.622361,302774.000,52976,2,EL,1,100,1.000433
1558722379.687741,302822.000,52976,2,EL,1,100,0.998822
1558722379.753802,302870.500,52994,2,EL,1,100,1.000433
1558722379.819862,302919.000,52994,2,EL,1,100,0.998822
1558722379.886604,302968.000,53012,2,EL,1,100,0.999225
1558722379.953346,303017.000,53012,2,EL,1,100,0.997211
1558722380.020088,303066.000,53031,2,EL,1,100,0.998822
1558722380.086830,303115.000,53031,2,EL,1,100,0.998822
1558722380.154253,303164.500,53049,2,EL,1,100,1.000031
1558722380.221676,303214.000,53049,2,EL,1,100,1.000635
1558722380.289099,303263.500,53067,2,EL,1,100,0.999426
1558722380.356522,303313.000,53067,2,EL,1,100,0.998419
1558722380.421902,303361.000,53085,2,EL,1,100,0.998621
1558722380.487282,303409.000,53085,2,EL,1,100,0.999829
1558722380.554024,303458.000,53103,2,EL,1,100,1.000031
1558722380.620765,303507.000,53103,2,EL,1,100,0.998822
1558722380.687507,303556.000,53121,2,EL,1,100,0.999426
1558722380.754249,303605.000,53121,2,EL,1,100,0.999829
1558722380.819629,303653.000,53139,2,EL,1,100,1.000433
1558722380.885009,303701.000,53139,2,EL,1,100,0.999628
1558722380.952432,303750.500,53157,2,EL,1,100,0.998016
1558722381.019855,303800.000,53157,2,EL,1,100,1.000635
1558722381.087278,303849.500,53176,2,EL,1,100,1.000232
1558722381.154701,303899.000,53176,2,EL,1,100,1.001038
1558722381.221897,303948.333,53194,3,EL,1,100,1.002246
1558722381.289093,303997.667,53194,3,EL,1,100,1.001440
1558722381.356288,304047.000,53194,3,EL,1,100,1.002447
1558722381.423712,304096.500,53212,2,EL,1,100,1.002045
1558722381.491134,304146.000,53212,2,EL,1,100,1.002447
1558722381.557195,304194.500,53230,2,EL,1,100,1.002045
1558722381.623256,304243.000,53230,2,EL,1,100,1.000836
1558722381.689998,304292.000,53248,2,EL,1,100,1.003052
1558722381.756740,304341.000,53248,2,EL,1,100,1.001440
1558722381.822801,304389.500,53266,2,EL,1,100,1.002045
1558722381.888862,304438.000,53266,2,EL,1,100,1.002447
1558722381.955604,304487.000,53284,2,EL,1,100,1.003052
1558722382.022346,304536.000,53284,2,EL,1,100,1.003253
1558722382.089087,304585.000,53303,2,EL,1,100,1.002447
1558722382.155829,304634.000,53303,2,EL,1,100,1.002246
1558722382.222571,304683.000,53321,2,EL,1,100,1.003253
1558722382.289313,304732.000,53321,2,EL,1,100,1.002246
1558722382.356055,304781.000,53339,2,EL,1,100,1.003656
1558722382.422797,304830.000,53339,2,EL,1,100,1.004260
1558722382.490220,304879.500,53357,2,EL,1,100,1.003656
1558722382.557643,304929.000,53357,2,EL,1,100,1.003455
1558722382.623023,304977.000,53375,2,EL,1,100,1.004260
1558722382.688403,305025.000,53375,2,EL,1,100,1.004864
1558722382.754463,305073.500,53393,2,EL,1,100,1.004059
1558722382.820524,305122.000,53393,2,EL,1,100,1.004864
1558722382.886721,305170.600,53411,5,EL,1,100,1.004260
1558722382.952919,305219.200,53411,5,EL,1,100,1.004260
1558722383.019116,305267.800,53411,5,EL,1,100,1.004260
1558722383.085313,305316.400,53411,5,EL,1,100,1.003857
1558722383.151510,305365.000,53411,5,EL,1,100,1.003253
1558722383.217571,305413.500,53430,2,EL,1,100,1.004059
1558722383.283632,305462.000,53430,2,EL,1,100,1.004462
1558722383.351054,305511.500,53448,2,EL,1,100,1.004663
1558722383.418478,305561.000,53448,2,EL,1,100,1.004260
1558722383.485219,305610.000,53466,2,EL,1,100,1.005469
1558722383.551961,305659.000,53466,2,EL,1,100,1.004059
1558722383.617341,305707.000,53484,2,EL,1,100,1.004864
1558722383.682721,305755.000,53484,2,EL,1,100,1.005066
1558722383.749463,305804.000,53502,2,EL,1,100,1.004864
1558722383.816205,305853.000,53502,2,EL,1,100,1.005066
1558722383.882947,305902.000,53520,2,EL,1,100,1.005469
1558722383.949689,305951.000,53520,2,EL,1,100,1.005267
1558722384.015069,305999.000,53538,2,EL,1,100,1.006073
1558722384.080448,306047.000,53538,2,EL,1,100,1.005670
1558722384.147644,306096.333,53557,3,EL,1,100,1.006073
1558722384.214840,306145.667,53557,3,EL,1,100,1.004864
1558722384.282036,306195.000,53557,3,EL,1,100,1.004864
1558722384.350140,306245.000,53575,2,EL,1,100,1.005066
1558722384.418244,306295.000,53575,2,EL,1,100,1.005469
1558722384.485667,306344.500,53593,2,EL,1,100,1.005670
1558722384.553090,306394.000,53593,2,EL,1,100,1.005872
1558722384.619151,306442.500,53611,2,EL,1,100,1.006073
1558722384.685212,306491.000,53611,2,EL,1,100,1.004260
1558722384.751273,306539.500,53629,2,EL,1,100,1.004663
1558722384.817333,306588.000,53629,2,EL,1,100,1.005872
1558722384.884075,306637.000,53647,2,EL,1,100,1.006274
1558722384.950817,306686.000,53647,2,EL,1,100,1.005670
1558722385.017105,306734.667,53668,3,EL,1,100,1.005066
1558722385.083393,306783.333,53668,3,EL,1,100,1.004864
1558722385.149681,306832.000,53668,3,EL,1,100,1.004663
1558722385.217104,306881.500,53689,2,EL,1,100,1.006073
1558722385.284527,306931.000,53689,2,EL,1,100,1.005066
1558722385.351269,306980.000,53707,2,EL,1,100,1.006677
1558722385.418011,307029.000,53707,2,EL,1,100,1.004663
1558722385.485434,307078.500,53725,2,EL,1,100,1.004059
1558722385.552857,307128.000,53725,2,EL,1,100,1.005267
1558722385.618917,307176.500,53743,2,EL,1,100,1.005469
1558722385.684978,307225.000,53743,2,EL,1,100,1.005267
1558722385.751039,307273.500,53761,2,EL,1,100,1.004663
1558722385.817100,307322.000,53761,2,EL,1,100,1.003656
1558722385.883161,307370.500,53779,2,EL,1,100,1.005469
1558722385.949222,307419.000,53779,2,EL,1,100,1.004663
1558722386.014602,307467.000,53797,2,EL,1,100,1.004864
1558722386.079982,307515.000,53797,2,EL,1,100,1.005066
1558722386.146724,307564.000,53816,3,EL,1,100,1.005670
1558722386.213465,307613.000,53816,3,EL,1,100,1.005469
1558722386.280207,307662.000,53816,3,EL,1,100,1.006476
1558722386.347630,307711.500,53834,2,EL,1,100,1.004864
1558722386.415053,307761.000,53834,2,EL,1,100,1.006274
1558722386.481795,307810.000,53852,2,EL,1,100,1.005670
1558722386.548537,307859.000,53852,2,EL,1,100,1.006476
1558722386.613917,307907.000,53870,2,EL,1,100,1.005469
1558722386.679297,307955.000,53870,2,EL,1,100,1.006476
1558722386.745358,308003.500,53888,2,EL,1,100,1.007281
1558722386.811419,308052.000,53888,2,EL,1,100,1.007281
1558722386.877479,308100.500,53906,2,EL,1,100,1.006476
1558722386.943540,308149.000,53906,2,EL,1,100,1.005872
1558722387.008920,308197.000,53924,2,EL,1,100,1.006677
1558722387.074300,308245.000,53924,2,EL,1,100,1.006879
1558722387.141042,308294.000,53943,2,EL,1,100,1.007281
1558722387.207784,308343.000,53943,2,EL,1,100,1.008691
1558722387.275207,308392.500,53961,2,EL,1,100,1.008087
1558722387.342630,308442.000,53961,2,EL,1,100,1.008691
1558722387.408690,308490.500,53979,2,EL,1,100,1.008087
1558722387.474751,308539.000,53979,2,EL,1,100,1.008691
1558722387.542856,308589.000,53997,2,EL,1,100,1.008893
1558722387.610959,308639.000,53997,2,EL,1,100,1.009094
1558722387.677701,308688.000,54015,2,EL,1,100,1.008490
1558722387.744443,308737.000,54015,2,EL,1,100,1.007886
1558722387.810504,308785.500,54033,2,EL,1,100,1.009900
1558722387.876565,308834.000,54033,2,EL,1,100,1.008691
1558722387.942626,308882.500,54051,2,EL,1,100,1.010706
1558722388.008687,308931.000,54051,2,EL,1,100,1.010303
1558722388.075429,308980.000,54069,2,EL,1,100,1.008691
1558722388.142171,309029.000,54069,2,EL,1,100,1.008289
1558722388.209821,309078.667,54088,3,EL,1,100,1.011310
1558722388.277471,309128.333,54088,3,EL,1,100,1.010504
1558722388.345120,309178.000,54088,3,EL,1,100,1.011511
1558722388.412544,309227.500,54106,2,EL,1,100,1.011108
1558722388.479966,309277.000,54106,2,EL,1,100,1.009699
1558722388.547389,309326.500,54124,2,EL,1,100,1.011310
1558722388.614812,309376.000,54124,2,EL,1,100,1.010706
1558722388.682916,309426.000,54142,2,EL,1,100,1.012115
1558722388.751020,309476.000,54142,2,EL,1,100,1.011511
1558722388.816400,309524.000,54160,2,EL,1,100,1.010706
1558722388.881780,309572.000,54160,2,EL,1,100,1.011511
1558722388.947841,309620.500,54178,2,EL,1,100,1.010907
1558722389.013902,309669.000,54178,2,EL,1,100,1.011108
1558722389.079962,309717.500,54196,2,EL,1,100,1.012115
1558722389.146024,309766.000,54196,2,EL,1,100,1.011713
1558722389.212084,309814.500,54215,2,EL,1,100,1.011914
1558722389.278145,309863.000,54215,2,EL,1,100,1.010504
1558722389.345568,309912.500,54233,2,EL,1,100,1.011914
1558722389.412991,309962.000,54233,2,EL,1,100,1.013123
1558722389.479733,310011.000,54251,2,EL,1,100,1.010101
1558722389.546475,310060.000,54251,2,EL,1,100,1.011713
1558722389.612536,310108.500,54269,2,EL,1,100,1.011914
1558722389.678597,310157.000,54269,2,EL,1,100,1.011914
1558722389.746020,310206.500,54287,2,EL,1,100,1.012720
1558722389.813443,310256.000,54287,2,EL,1,100,1.012720
1558722389.879503,310304.500,54305,2,EL,1,100,1.013324
1558722389.945564,310353.000,54305,2,EL,1,100,1.013123
1558722390.010944,310401.000,54323,2,EL,1,100,1.011108
1558722390.076324,310449.000,54323,2,EL,1,100,1.012115
1558722390.142385,310497.500,54342,2,EL,1,100,1.012115
1558722390.208446,310546.000,54342,2,EL,1,100,1.011914
1558722390.275188,310595.000,54360,3,EL,1,100,1.011511
1558722390.341930,310644.000,54360,3,EL,1,100,1.011108
1558722390.408672,310693.000,54360,3,EL,1,100,1.011713
1558722390.476094,310742.500,54378,2,EL,1,100,1.012115
1558722390.543517,310792.000,54378,2,EL,1,100,1.011713
1558722390.609578,310840.500,54396,2,EL,1,100,1.011713
1558722390.675639,310889.000,54396,2,EL,1,100,1.011310
1558722390.743743,310939.000,54414,2,EL,1,100,1.012317
1558722390.811847,310989.000,54414,2,EL,1,100,1.010706
1558722390.878589,311038.000,54432,2,EL,1,100,1.011108
1558722390.945331,311087.000,54432,2,EL,1,100,1.012921
1558722391.011392,311135.500,54450,2,EL,1,100,1.011914
1558722391.077453,311184.000,54450,2,EL,1,100,1.010907
1558722391.143514,311232.500,54468,2,EL,1,100,1.012720
1558722391.209574,311281.000,54468,2,EL,1,100,1.011713
1558722391.276316,311330.000,54487,2,EL,1,100,1.011511
1558722391.343058,311379.000,54487,2,EL,1,100,1.011713
1558722391.410481,311428.500,54505,2,EL,1,100,1.011511
1558722391.477904,311478.000,54505,2,EL,1,100,1.010101
1558722391.545327,311527.500,54523,2,EL,1,100,1.011713
1558722391.612750,311577.000,54523,2,EL,1,100,1.009900
1558722391.680854,311627.000,54541,2,EL,1,100,1.011108
1558722391.748958,311677.000,54541,2,EL,1,100,1.010907
1558722391.815700,311726.000,54559,2,EL,1,100,1.012115
1558722391.882442,311775.000,54559,2,EL,1,100,1.011511
1558722391.948276,311823.333,54580,3,EL,1,100,1.011310
1558722392.014110,311871.667,54580,3,EL,1,100,1.011310
1558722392.079944,311920.000,54580,3,EL,1,100,1.012518
1558722392.146004,311968.500,54601,2,EL,1,100,1.011914
1558722392.212065,312017.000,54601,2,EL,1,100,1.013123
1558722392.278353,312065.667,54619,3,EL,1,100,1.013727
1558722392.344641,312114.333,54619,3,EL,1,100,1.013727
1558722392.410929,312163.000,54619,3,EL,1,100,1.012518
1558722392.477671,312212.000,54637,2,EL,1,100,1.013324
1558722392.544413,312261.000,54637,2,EL,1,100,1.013324
1558722392.610474,312309.500,54655,2,EL,1,100,1.012317
1558722392.676535,312358.000,54655,2,EL,1,100,1.012720
1558722392.743958,312407.500,54673,2,EL,1,100,1.011914
1558722392.811380,312457.000,54673,2,EL,1,100,1.012921
1558722392.877441,312505.500,54691,2,EL,1,100,1.013123
1558722392.943502,312554.000,54691,2,EL,1,100,1.012518
1558722393.008882,312602.000,54709,2,EL,1,100,1.012921
1558722393.074262,312650.000,54709,2,EL,1,100,1.012720
1558722393.140323,312698.500,54727,2,EL,1,100,1.013324
1558722393.206384,312747.000,54727,2,EL,1,100,1.013727
1558722393.272444,312795.500,54746,2,EL,1,100,1.013727
1558722393.338505,312844.000,54746,2,EL,1,100,1.013525
1558722393.403885,312892.000,54764,2,EL,1,100,1.013324
1558722393.469265,312940.000,54764,2,EL,1,100,1.014935
1558722393.537369,312990.000,54782,2,EL,1,100,1.014532
1558722393.605473,313040.000,54782,2,EL,1,100,1.014532
1558722393.672896,313089.500,54800,2,EL,1,100,1.014532
1558722393.740319,313139.000,54800,2,EL,1,100,1.013123
1558722393.807061,313188.000,54818,2,EL,1,100,1.014331
1558722393.873803,313237.000,54818,2,EL,1,100,1.013525
1558722393.941226,313286.500,54836,2,EL,1,100,1.013928
1558722394.008649,313336.000,54836,2,EL,1,100,1.013123
1558722394.075391,313385.000,54854,2,EL,1,100,1.013324
1558722394.142133,313434.000,54854,2,EL,1,100,1.014331
1558722394.208193,313482.500,54873,2,EL,1,100,1.014532
1558722394.274254,313531.000,54873,2,EL,1,100,1.014734
1558722394.340996,313580.000,54891,3,EL,1,100,1.013928
1558722394.407738,313629.000,54891,3,EL,1,100,1.014734
1558722394.474480,313678.000,54891,3,EL,1,100,1.014935
1558722394.541222,313727.000,54909,2,EL,1,100,1.015540
1558722394.607964,313776.000,54909,2,EL,1,100,1.015137
1558722394.676068,313826.000,54927,2,EL,1,100,1.014935
1558722394.744172,313876.000,54927,2,EL,1,100,1.014130
1558722394.810914,313925.000,54945,2,EL,1,100,1.014130
1558722394.877656,313974.000,54945,2,EL,1,100,1.014935
1558722394.945079,314023.500,54963,2,EL,1,100,1.015137
1558722395.012501,314073.000,54963,2,EL,1,100,1.014532
1558722395.078562,314121.500,54981,2,EL,1,100,1.015338
1558722395.144623,314170.000,54981,2,EL,1,100,1.015540
1558722395.210684,314218.500,54999,2,EL,1,100,1.017151
1558722395.276745,314267.000,54999,2,EL,1,100,1.015540
1558722395.343487,314316.000,55018,2,EL,1,100,1.016949
1558722395.410229,314365.000,55018,2,EL,1,100,1.014734
1558722395.476971,314414.000,55036,2,EL,1,100,1.016144
1558722395.543713,314463.000,55036,2,EL,1,100,1.016144
1558722395.609774,314511.500,55054,2,EL,1,100,1.015338
1558722395.675834,314560.000,55054,2,EL,1,100,1.014734
1558722395.743258,314609.500,55072,2,EL,1,100,1.016144
1558722395.810680,314659.000,55072,2,EL,1,100,1.018359
1558722395.877422,314708.000,55090,2,EL,1,100,1.016748
1558722395.944164,314757.000,55090,2,EL,1,100,1.018359
1558722396.010906,314806.000,55108,2,EL,1,100,1.016547
1558722396.077648,314855.000,55108,2,EL,1,100,1.016748
1558722396.143028,314903.000,55126,2,EL,1,100,1.019165
1558722396.208408,314951.000,55126,2,EL,1,100,1.017956
1558722396.274469,314999.500,55145,2,EL,1,100,1.017956
1558722396.340529,315048.000,55145,2,EL,1,100,1.018561
1558722396.406817,315096.667,55163,3,EL,1,100,1.017956
1558722396.473105,315145.333,55163,3,EL,1,100,1.016949
1558722396.539393,315194.000,55163,3,EL,1,100,1.017755
1558722396.606816,315243.500,55181,2,EL,1,100,1.017956
1558722396.674239,315293.000,55181,2,EL,1,100,1.017352
1558722396.740981,315342.000,55199,2,EL,1,100,1.019165
1558722396.807723,315391.000,55199,2,EL,1,100,1.018158
1558722396.875146,315440.500,55217,2,EL,1,100,1.018359
1558722396.942569,315490.000,55217,2,EL,1,100,1.018762
1558722397.010673,315540.000,55235,2,EL,1,100,1.019769
1558722397.078777,315590.000,55235,2,EL,1,100,1.017554
1558722397.144157,315638.000,55253,2,EL,1,100,1.019971
1558722397.209537,315686.000,55253,2,EL,1,100,1.019769
1558722397.276278,315735.000,55271,2,EL,1,100,1.019769
1558722397.343020,315784.000,55271,2,EL,1,100,1.018561
1558722397.409762,315833.000,55290,2,EL,1,100,1.019769
1558722397.476504,315882.000,55290,2,EL,1,100,1.020373
1558722397.541884,315930.000,55308,2,EL,1,100,1.020978
1558722397.607264,315978.000,55308,2,EL,1,100,1.019769
1558722397.675368,316028.000,55326,2,EL,1,100,1.020373
1558722397.743472,316078.000,55326,2,EL,1,100,1.020575
1558722397.810895,316127.500,55344,2,EL,1,100,1.020172
1558722397.878318,316177.000,55344,2,EL,1,100,1.020978
1558722397.944379,316225.500,55362,2,EL,1,100,1.021582
1558722398.010439,316274.000,55362,2,EL,1,100,1.021985
1558722398.077862,316323.500,55380,2,EL,1,100,1.022186
1558722398.145285,316373.000,55380,2,EL,1,100,1.022388
1558722398.212027,316422.000,55398,2,EL,1,100,1.022589
1558722398.278769,316471.000,55398,2,EL,1,100,1.022589
1558722398.344830,316519.500,55417,2,EL,1,100,1.022186
1558722398.410891,316568.000,55417,2,EL,1,100,1.021783
1558722398.476952,316616.500,55435,2,EL,1,100,1.022992
1558722398.543013,316665.000,55435,2,EL,1,100,1.022186
1558722398.609755,316714.000,55453,2,EL,1,100,1.021985
1558722398.676497,316763.000,55453,2,EL,1,100,1.022186
1558722398.743238,316812.000,55471,3,EL,1,100,1.022186
1558722398.809980,316861.000,55471,3,EL,1,100,1.023596
1558722398.876722,316910.000,55471,3,EL,1,100,1.022589
1558722398.943464,316959.000,55492,3,EL,1,100,1.021783
1558722399.010206,317008.000,55492,3,EL,1,100,1.022992
1558722399.076948,317057.000,55492,3,EL,1,100,1.022388
1558722399.143009,317105.500,55512,2,EL,1,100,1.021985
1558722399.209070,317154.000,55512,2,EL,1,100,1.021582
1558722399.275131,317202.500,55530,2,EL,1,100,1.022589
1558722399.341192,317251.000,55530,2,EL,1,100,1.021582
1558722399.407252,317299.500,55549,2,EL,1,100,1.022992
1558722399.473313,317348.000,55549,2,EL,1,100,1.022791
1558722399.538693,317396.000,55567,2,EL,1,100,1.022186
1558722399.604073,317444.000,55567,2,EL,1,100,1.022992
1558722399.671496,317493.500,55585,2,EL,1,100,1.022992
1558722399.738919,317543.000,55585,2,EL,1,100,1.025610
1558722399.806342,317592.500,55603,2,EL,1,100,1.024200
1558722399.873765,317642.000,55603,2,EL,1,100,1.023798
1558722399.940507,317691.000,55621,2,EL,1,100,1.024402
1558722400.007249,317740.000,55621,2,EL,1,100,1.023596
1558722400.074672,317789.500,55639,2,EL,1,100,1.022992
1558722400.142094,317839.000,55639,2,EL,1,100,1.023798
1558722400.209517,317888.500,55657,2,EL,1,100,1.023596
1558722400.276940,317938.000,55657,2,EL,1,100,1.023193
1558722400.342320,317986.000,55676,2,EL,1,100,1.024200
1558722400.407700,318034.000,55676,2,EL,1,100,1.023193
1558722400.473988,318082.667,55694,3,EL,1,100,1.025006
1558722400.540276,318131.333,55694,3,EL,1,100,1.022791
1558722400.606564,318180.000,55694,3,EL,1,100,1.024402
1558722400.673987,318229.500,55712,2,EL,1,100,1.024402
1558722400.741410,318279.000,55712,2,EL,1,100,1.025006
1558722400.808833,318328.500,55730,2,EL,1,100,1.025208
1558722400.876256,318378.000,55730,2,EL,1,100,1.024805
1558722400.942316,318426.500,55748,2,EL,1,100,1.025006
1558722401.008377,318475.000,55748,2,EL,1,100,1.025610
1558722401.076481,318525.000,55766,2,EL,1,100,1.024200
1558722401.144585,318575.000,55766,2,EL,1,100,1.023999
1558722401.212008,318624.500,55784,2,EL,1,100,1.025006
1558722401.279431,318674.000,55784,2,EL,1,100,1.025610
1558722401.345492,318722.500,55802,2,EL,1,100,1.025409
1558722401.411553,318771.000,55802,2,EL,1,100,1.024603
1558722401.477614,318819.500,55821,2,EL,1,100,1.026013
1558722401.543675,318868.000,55821,2,EL,1,100,1.024603
1558722401.610417,318917.000,55839,2,EL,1,100,1.025610
1558722401.677159,318966.000,55839,2,EL,1,100,1.026416
1558722401.743900,319015.000,55857,2,EL,1,100,1.027826
1558722401.810642,319064.000,55857,2,EL,1,100,1.026416
1558722401.877384,319113.000,55875,2,EL,1,100,1.025610
1558722401.944126,319162.000,55875,2,EL,1,100,1.027423
1558722402.010868,319211.000,55893,2,EL,1,100,1.028027
1558722402.077610,319260.000,55893,2,EL,1,100,1.027222
1558722402.144352,319309.000,55911,2,EL,1,100,1.027624
1558722402.211094,319358.000,55911,2,EL,1,100,1.026215
1558722402.277155,319406.500,55929,2,EL,1,100,1.028027
1558722402.343215,319455.000,55929,2,EL,1,100,1.025812
1558722402.409276,319503.500,55948,2,EL,1,100,1.026617
1558722402.475337,319552.000,55948,2,EL,1,100,1.026819
1558722402.541171,319600.333,55966,3,EL,1,100,1.026819
1558722402.607005,319648.667,55966,3,EL,1,100,1.026013
1558722402.672839,319697.000,55966,3,EL,1,100,1.028027
1558722402.738219,319745.000,55984,2,EL,1,100,1.027222
1558722402.803599,319793.000,55984,2,EL,1,100,1.025812
1558722402.871022,319842.500,56002,2,EL,1,100,1.027222
1558722402.938444,319892.000,56002,2,EL,1,100,1.028632
1558722403.005186,319941.000,56020,2,EL,1,100,1.028229
1558722403.071928,319990.000,56020,2,EL,1,100,1.026416
1558722403.137989,320038.500,56038,2,EL,1,100,1.028632
1558722403.204050,320087.000,56038,2,EL,1,100,1.028229
1558722403.270792,320136.000,56056,2,EL,1,100,1.029034
1558722403.337534,320185.000,56056,2,EL,1,100,1.027826
1558722403.404276,320234.000,56075,2,EL,1,100,1.028632
1558722403.471018,320283.000,56075,2,EL,1,100,1.031250
1558722403.536397,320331.000,56093,2,EL,1,100,1.029840
1558722403.601777,320379.000,56093,2,EL,1,100,1.030646
1558722403.668519,320428.000,56111,2,EL,1,100,1.029840
1558722403.735261,320477.000,56111,2,EL,1,100,1.030243
1558722403.802684,320526.500,56129,2,EL,1,100,1.029840
1558722403.870107,320576.000,56129,2,EL,1,100,1.029437
1558722403.936168,320624.500,56147,2,EL,1,100,1.029437
1558722404.002229,320673.000,56147,2,EL,1,100,1.030041
1558722404.070333,320723.000,56165,2,EL,1,100,1.030646
1558722404.138437,320773.000,56165,2,EL,1,100,1.029639
1558722404.205860,320822.500,56183,2,EL,1,100,1.029639
1558722404.273283,320872.000,56183,2,EL,1,100,1.029840
1558722404.339344,320920.500,56201,2,EL,1,100,1.030243
1558722404.405405,320969.000,56201,2,EL,1,100,1.029639
1558722404.471465,321017.500,56220,2,EL,1,100,1.030646
1558722404.537526,321066.000,56220,2,EL,1,100,1.030646
1558722404.603814,321114.667,56238,3,EL,1,100,1.032257
1558722404.670102,321163.333,56238,3,EL,1,100,1.030444
1558722404.736390,321212.000,56238,3,EL,1,100,1.032056
1558722404.803132,321261.000,56256,2,EL,1,100,1.032458
1558722404.869874,321310.000,56256,2,EL,1,100,1.030444
1558722404.937297,321359.500,56274,2,EL,1,100,1.032458
1558722405.004720,321409.000,56274,2,EL,1,100,1.031250
1558722405.071462,321458.000,56292,2,EL,1,100,1.032056
1558722405.138204,321507.000,56292,2,EL,1,100,1.031854
1558722405.205626,321556.500,56310,2,EL,1,100,1.032861
1558722405.273049,321606.000,56310,2,EL,1,100,1.031653
1558722405.339791,321655.000,56328,2,EL,1,100,1.033264
1558722405.406533,321704.000,56328,2,EL,1,100,1.031451
1558722405.472594,321752.500,56347,2,EL,1,100,1.032257
1558722405.538655,321801.000,56347,2,EL,1,100,1.031854
1558722405.604716,321849.500,56365,2,EL,1,100,1.033264
1558722405.670777,321898.000,56365,2,EL,1,100,1.033667
1558722405.736157,321946.000,56383,2,EL,1,100,1.033264
1558722405.801536,321994.000,56383,2,EL,1,100,1.032861
1558722405.867370,322042.333,56404,3,EL,1,100,1.033466
1558722405.933204,322090.667,56404,3,EL,1,100,1.032861
1558722405.999038,322139.000,56404,3,EL,1,100,1.033063
1558722406.066461,322188.500,56424,2,EL,1,100,1.033264
1558722406.133884,322238.000,56424,2,EL,1,100,1.034271
1558722406.200626,322287.000,56442,2,EL,1,100,1.035278
1558722406.267368,322336.000,56442,2,EL,1,100,1.033264
1558722406.334110,322385.000,56460,3,EL,1,100,1.033264
1558722406.400851,322434.000,56460,3,EL,1,100,1.035480
1558722406.467593,322483.000,56460,3,EL,1,100,1.034271
1558722406.532973,322531.000,56479,2,EL,1,100,1.035681
1558722406.598353,322579.000,56479,2,EL,1,100,1.033667
1558722406.664414,322627.500,56497,2,EL,1,100,1.035681
1558722406.730475,322676.000,56497,2,EL,1,100,1.034876
1558722406.796536,322724.500,56515,2,EL,1,100,1.034674
1558722406.862597,322773.000,56515,2,EL,1,100,1.034473
1558722406.927977,322821.000,56533,2,EL,1,100,1.034271
1558722406.993356,322869.000,56533,2,EL,1,100,1.034876
1558722407.061460,322919.000,56551,2,EL,1,100,1.035480
1558722407.129564,322969.000,56551,2,EL,1,100,1.034271
1558722407.196987,323018.500,56569,2,EL,1,100,1.034876
1558722407.264410,323068.000,56569,2,EL,1,100,1.034674
1558722407.330471,323116.500,56587,2,EL,1,100,1.035077
1558722407.396532,323165.000,56587,2,EL,1,100,1.035480
1558722407.463955,323214.500,56606,2,EL,1,100,1.034876
1558722407.531378,323264.000,56606,2,EL,1,100,1.034876
1558722407.598120,323313.000,56624,2,EL,1,100,1.035278
1558722407.664862,323362.000,56624,2,EL,1,100,1.035278
1558722407.730923,323410.500,56642,2,EL,1,100,1.034674
1558722407.796983,323459.000,56642,2,EL,1,100,1.034070
1558722407.863044,323507.500,56660,2,EL,1,100,1.035883
1558722407.929105,323556.000,56660,2,EL,1,100,1.035278
1558722407.996528,323605.500,56678,2,EL,1,100,1.034271
1558722408.063951,323655.000,56678,2,EL,1,100,1.034473
1558722408.131374,323704.500,56696,2,EL,1,100,1.036285
1558722408.198797,323754.000,56696,2,EL,1,100,1.033667
1558722408.266220,323803.500,56714,2,EL,1,100,1.034674
1558722408.333643,323853.000,56714,2,EL,1,100,1.034876
1558722408.401747,323903.000,56732,2,EL,1,100,1.034876
1558722408.469851,323953.000,56732,2,EL,1,100,1.035681
1558722408.536139,324001.667,56751,3,EL,1,100,1.035278
1558722408.602427,324050.333,56751,3,EL,1,100,1.035077
1558722408.668715,324099.000,56751,3,EL,1,100,1.035883
1558722408.734094,324147.000,56769,2,EL,1,100,1.034271
1558722408.799474,324195.000,56769,2,EL,1,100,1.035681
1558722408.865535,324243.500,56787,2,EL,1,100,1.035077
1558722408.931596,324292.000,56787,2,EL,1,100,1.035681
1558722408.998338,324341.000,56805,2,EL,1,100,1.035077
1558722409.065080,324390.000,56805,2,EL,1,100,1.035883
1558722409.131141,324438.500,56823,2,EL,1,100,1.035480
1558722409.197202,324487.000,56823,2,EL,1,100,1.034876
1558722409.264625,324536.500,56841,2,EL,1,100,1.035681
1558722409.332047,324586.000,56841,2,EL,1,100,1.034876
1558722409.398789,324635.000,56859,2,EL,1,100,1.036487
1558722409.465531,324684.000,56859,2,EL,1,100,1.036285
1558722409.531592,324732.500,56878,2,EL,1,100,1.035883
1558722409.597653,324781.000,56878,2,EL,1,100,1.035681
1558722409.663714,324829.500,56896,2,EL,1,100,1.035883
1558722409.729775,324878.000,56896,2,EL,1,100,1.035480
1558722409.795836,324926.500,56914,2,EL,1,100,1.036688
1558722409.861897,324975.000,56914,2,EL,1,100,1.035278
1558722409.927276,325023.000,56932,2,EL,1,100,1.035278
1558722409.992656,325071.000,56932,2,EL,1,100,1.036487
1558722410.060079,325120.500,56950,2,EL,1,100,1.035883
1558722410.127502,325170.000,56950,2,EL,1,100,1.035681
1558722410.194925,325219.500,56968,2,EL,1,100,1.035278
1558722410.262348,325269.000,56968,2,EL,1,100,1.035278
1558722410.328409,325317.500,56986,2,EL,1,100,1.036890
1558722410.394470,325366.000,56986,2,EL,1,100,1.037091
1558722410.462574,325416.000,57005,2,EL,1,100,1.036487
1558722410.530678,325466.000,57005,2,EL,1,100,1.037091
1558722410.596966,325514.667,57023,3,EL,1,100,1.036084
1558722410.663254,325563.333,57023,3,EL,1,100,1.036285
1558722410.729542,325612.000,57023,3,EL,1,100,1.038300
1558722410.796283,325661.000,57041,2,EL,1,100,1.037494
1558722410.863025,325710.000,57041,2,EL,1,100,1.036285
1558722410.929086,325758.500,57059,2,EL,1,100,1.035077
1558722410.995147,325807.000,57059,2,EL,1,100,1.037494
1558722411.061889,325856.000,57077,2,EL,1,100,1.038098
1558722411.128631,325905.000,57077,2,EL,1,100,1.037494
1558722411.196735,325955.000,57095,2,EL,1,100,1.036487
1558722411.264839,326005.000,57095,2,EL,1,100,1.037695
1558722411.332262,326054.500,57113,2,EL,1,100,1.038098
1558722411.399685,326104.000,57113,2,EL,1,100,1.038501
1558722411.467108,326153.500,57131,2,EL,1,100,1.039105
1558722411.534531,326203.000,57131,2,EL,1,100,1.037292
1558722411.601954,326252.500,57150,2,EL,1,100,1.038300
1558722411.669377,326302.000,57150,2,EL,1,100,1.037897
1558722411.734756,326350.000,57168,2,EL,1,100,1.037897
1558722411.800136,326398.000,57168,2,EL,1,100,1.039307
1558722411.866197,326446.500,57186,2,EL,1,100,1.037494
1558722411.932258,326495.000,57186,2,EL,1,100,1.037494
1558722411.998319,326543.500,57204,2,EL,1,100,1.038501
1558722412.064380,326592.000,57204,2,EL,1,100,1.039307
1558722412.130441,326640.500,57222,2,EL,1,100,1.038098
1558722412.196501,326689.000,57222,2,EL,1,100,1.037897
1558722412.263925,326738.500,57240,2,EL,1,100,1.039709
1558722412.331347,326788.000,57240,2,EL,1,100,1.039508
1558722412.398089,326837.000,57258,2,EL,1,100,1.038501
1558722412.464831,326886.000,57258,2,EL,1,100,1.038300
1558722412.530892,326934.500,57277,2,EL,1,100,1.038501
1558722412.596953,326983.000,57277,2,EL,1,100,1.039911
1558722412.664376,327032.500,57295,2,EL,1,100,1.039105
1558722412.731799,327082.000,57295,2,EL,1,100,1.038904
1558722412.797519,327130.250,57316,4,EL,1,100,1.039911
1558722412.863240,327178.500,57316,4,EL,1,100,1.038702
1558722412.928960,327226.750,57316,4,EL,1,100,1.039709
1558722412.994680,327275.000,57316,4,EL,1,100,1.040515
1558722413.060741,327323.500,57336,2,EL,1,100,1.040112
1558722413.126802,327372.000,57336,2,EL,1,100,1.039709
1558722413.193544,327421.000,57354,2,EL,1,100,1.040515
1558722413.260286,327470.000,57354,2,EL,1,100,1.039307
1558722413.326347,327518.500,57372,2,EL,1,100,1.040112
1558722413.392408,327567.000,57372,2,EL,1,100,1.040112
1558722413.460512,327617.000,57390,2,EL,1,100,1.038501
1558722413.528616,327667.000,57390,2,EL,1,100,1.040515
1558722413.596039,327716.500,57409,2,EL,1,100,1.040112
1558722413.663462,327766.000,57409,2,EL,1,100,1.039709
1558722413.730204,327815.000,57427,2,EL,1,100,1.041724
1558722413.796945,327864.000,57427,2,EL,1,100,1.039911
1558722413.863006,327912.500,57445,2,EL,1,100,1.040918
1558722413.929067,327961.000,57445,2,EL,1,100,1.040717
1558722413.995809,328010.000,57463,2,EL,1,100,1.040717
1558722414.062551,328059.000,57463,2,EL,1,100,1.039508
1558722414.128612,328107.500,57481,2,EL,1,100,1.040112
1558722414.194673,328156.000,57481,2,EL,1,100,1.040918
1558722414.261415,328205.000,57499,2,EL,1,100,1.042328
1558722414.328157,328254.000,57499,2,EL,1,100,1.040112
1558722414.395353,328303.333,57517,3,EL,1,100,1.040717
1558722414.462548,328352.667,57517,3,EL,1,100,1.041724
1558722414.529744,328402.000,57517,3,EL,1,100,1.041522
1558722414.597848,328452.000,57536,2,EL,1,100,1.041119
1558722414.665952,328502.000,57536,2,EL,1,100,1.040314
1558722414.732013,328550.500,57554,2,EL,1,100,1.041522
1558722414.798074,328599.000,57554,2,EL,1,100,1.041119
1558722414.864816,328648.000,57572,2,EL,1,100,1.042126
1558722414.931558,328697.000,57572,2,EL,1,100,1.041522
1558722414.997619,328745.500,57590,2,EL,1,100,1.041321
1558722415.063680,328794.000,57590,2,EL,1,100,1.042731
1558722415.129741,328842.500,57608,2,EL,1,100,1.040515
1558722415.195801,328891.000,57608,2,EL,1,100,1.041925
1558722415.263224,328940.500,57626,2,EL,1,100,1.042529
1558722415.330647,328990.000,57626,2,EL,1,100,1.041925
1558722415.397389,329039.000,57644,2,EL,1,100,1.042126
1558722415.464131,329088.000,57644,2,EL,1,100,1.041119
1558722415.530873,329137.000,57662,2,EL,1,100,1.041724
1558722415.597615,329186.000,57662,2,EL,1,100,1.040515
1558722415.664357,329235.000,57681,2,EL,1,100,1.041119
1558722415.731099,329284.000,57681,2,EL,1,100,1.041321
1558722415.797160,329332.500,57699,2,EL,1,100,1.041119
1558722415.863221,329381.000,57699,2,EL,1,100,1.041321
1558722415.929281,329429.500,57717,2,EL,1,100,1.042529
1558722415.995342,329478.000,57717,2,EL,1,100,1.040717
1558722416.060722,329526.000,57735,2,EL,1,100,1.041925
1558722416.126102,329574.000,57735,2,EL,1,100,1.041925
1558722416.192844,329623.000,57753,2,EL,1,100,1.041522
1558722416.259586,329672.000,57753,2,EL,1,100,1.041321
1558722416.326328,329721.000,57771,2,EL,1,100,1.041119
1558722416.393070,329770.000,57771,2,EL,1,100,1.040515
1558722416.460266,329819.333,57789,3,EL,1,100,1.042529
1558722416.527462,329868.667,57789,3,EL,1,100,1.041925
1558722416.594658,329918.000,57789,3,EL,1,100,1.041119
1558722416.661399,329967.000,57808,2,EL,1,100,1.043536
1558722416.728141,330016.000,57808,2,EL,1,100,1.043738
1558722416.796245,330066.000,57826,2,EL,1,100,1.042529
1558722416.864349,330116.000,57826,2,EL,1,100,1.042328
1558722416.931091,330165.000,57844,2,EL,1,100,1.042529
1558722416.997833,330214.000,57844,2,EL,1,100,1.041925
1558722417.063213,330262.000,57862,2,EL,1,100,1.043133
1558722417.128593,330310.000,57862,2,EL,1,100,1.044141
1558722417.195335,330359.000,57880,2,EL,1,100,1.042529
1558722417.262077,330408.000,57880,2,EL,1,100,1.042529
1558722417.329500,330457.500,57898,2,EL,1,100,1.043133
1558722417.396923,330507.000,57898,2,EL,1,100,1.042126
1558722417.462983,330555.500,57916,2,EL,1,100,1.042328
1558722417.529044,330604.000,57916,2,EL,1,100,1.043133
1558722417.597148,330654.000,57935,2,EL,1,100,1.042328
1558722417.665252,330704.000,57935,2,EL,1,100,1.042328
1558722417.732675,330753.500,57953,2,EL,1,100,1.042731
1558722417.800098,330803.000,57953,2,EL,1,100,1.043536
1558722417.866500,330851.750,57971,4,EL,1,100,1.041925
1558722417.932901,330900.500,57971,4,EL,1,100,1.042932
1558722417.999302,330949.250,57971,4,EL,1,100,1.043133
1558722418.065704,330998.000,57971,4,EL,1,100,1.042932
1558722418.131992,331046.667,57989,3,EL,1,100,1.041925
1558722418.198280,331095.333,57989,3,EL,1,100,1.043133
1558722418.264568,331144.000,57989,3,EL,1,100,1.043133
1558722418.331309,331193.000,58007,2,EL,1,100,1.042932
1558722418.398051,331242.000,58007,2,EL,1,100,1.043133
1558722418.464793,331291.000,58025,2,EL,1,100,1.043939
1558722418.531535,331340.000,58025,2,EL,1,100,1.043335
1558722418.598277,331389.000,58043,2,EL,1,100,1.043335
1558722418.665019,331438.000,58043,2,EL,1,100,1.042328
1558722418.731761,331487.000,58062,2,EL,1,100,1.044946
1558722418.798503,331536.000,58062,2,EL,1,100,1.043738
1558722418.864564,331584.500,58080,2,EL,1,100,1.043939
1558722418.930624,331633.000,58080,2,EL,1,100,1.043939
1558722418.997366,331682.000,58098,2,EL,1,100,1.045148
1558722419.064108,331731.000,58098,2,EL,1,100,1.045752
1558722419.130169,331779.500,58116,2,EL,1,100,1.044342
1558722419.196230,331828.000,58116,2,EL,1,100,1.043536
1558722419.261610,331876.000,58134,2,EL,1,100,1.043536
1558722419.326990,331924.000,58134,2,EL,1,100,1.044543
1558722419.393732,331973.000,58152,2,EL,1,100,1.043738
1558722419.460474,332022.000,58152,2,EL,1,100,1.043738
1558722419.527897,332071.500,58170,2,EL,1,100,1.043939
1558722419.595320,332121.000,58170,2,EL,1,100,1.044141
1558722419.661381,332169.500,58189,2,EL,1,100,1.044342
1558722419.727441,332218.000,58189,2,EL,1,100,1.043738
1558722419.794637,332267.333,58210,3,EL,1,100,1.044946
1558722419.861833,332316.667,58210,3,EL,1,100,1.044745
1558722419.929029,332366.000,58210,3,EL,1,100,1.043939
1558722419.995771,332415.000,58230,3,EL,1,100,1.044745
1558722420.062513,332464.000,58230,3,EL,1,100,1.045148
1558722420.129255,332513.000,58230,3,EL,1,100,1.045349
1558722420.195997,332562.000,58248,2,EL,1,100,1.045148
1558722420.262739,332611.000,58248,2,EL,1,100,1.044745
1558722420.329481,332660.000,58266,2,EL,1,100,1.044543
1558722420.396223,332709.000,58266,2,EL,1,100,1.044141
1558722420.461602,332757.000,58284,2,EL,1,100,1.046759
1558722420.526982,332805.000,58284,2,EL,1,100,1.043939
1558722420.595086,332855.000,58302,2,EL,1,100,1.044543
1558722420.663190,332905.000,58302,2,EL,1,100,1.044342
1558722420.730613,332954.500,58321,2,EL,1,100,1.045148
1558722420.798036,333004.000,58321,2,EL,1,100,1.043536
1558722420.864778,333053.000,58339,2,EL,1,100,1.044342
1558722420.931520,333102.000,58339,2,EL,1,100,1.044745
1558722420.998943,333151.500,58357,2,EL,1,100,1.044342
1558722421.066366,333201.000,58357,2,EL,1,100,1.043939
1558722421.133108,333250.000,58375,2,EL,1,100,1.043536
1558722421.199850,333299.000,58375,2,EL,1,100,1.044946
1558722421.265911,333347.500,58393,2,EL,1,100,1.044141
1558722421.331971,333396.000,58393,2,EL,1,100,1.044745
1558722421.398032,333444.500,58411,2,EL,1,100,1.044946
1558722421.464093,333493.000,58411,2,EL,1,100,1.044342
1558722421.530835,333542.000,58429,2,EL,1,100,1.044543
1558722421.597577,333591.000,58429,2,EL,1,100,1.044745
1558722421.664319,333640.000,58448,2,EL,1,100,1.044342
1558722421.731061,333689.000,58448,2,EL,1,100,1.043536
1558722421.797803,333738.000,58466,2,EL,1,100,1.044141
1558722421.864545,333787.000,58466,2,EL,1,100,1.042328
1558722421.931287,333836.000,58484,2,EL,1,100,1.044946
1558722421.998029,333885.000,58484,2,EL,1,100,1.042731
1558722422.064089,333933.500,58502,2,EL,1,100,1.044141
1558722422.130150,333982.000,58502,2,EL,1,100,1.045148
1558722422.195984,334030.333,58520,3,EL,1,100,1.044745
1558722422.261818,334078.667,58520,3,EL,1,100,1.043335
1558722422.327652,334127.000,58520,3,EL,1,100,1.044745
1558722422.393713,334175.500,58538,2,EL,1,100,1.043738
1558722422.459774,334224.000,58538,2,EL,1,100,1.044946
1558722422.526515,334273.000,58556,2,EL,1,100,1.044141
1558722422.593257,334322.000,58556,2,EL,1,100,1.042932
1558722422.659318,334370.500,58574,2,EL,1,100,1.044543
1558722422.725379,334419.000,58574,2,EL,1,100,1.044141
1558722422.792802,334468.500,58593,2,EL,1,100,1.042932
1558722422.860225,334518.000,58593,2,EL,1,100,1.043536
1558722422.926967,334567.000,58611,2,EL,1,100,1.043738
1558722422.993709,334616.000,58611,2,EL,1,100,1.043536
1558722423.059770,334664.500,58629,2,EL,1,100,1.043536
1558722423.125831,334713.000,58629,2,EL,1,100,1.043133
1558722423.192573,334762.000,58647,2,EL,1,100,1.044745
1558722423.259315,334811.000,58647,2,EL,1,100,1.043738
1558722423.326056,334860.000,58665,2,EL,1,100,1.044745
1558722423.392798,334909.000,58665,2,EL,1,100,1.042731
1558722423.458178,334957.000,58683,2,EL,1,100,1.044342
1558722423.523558,335005.000,58683,2,EL,1,100,1.043738
1558722423.590981,335054.500,58701,2,EL,1,100,1.044543
1558722423.658404,335104.000,58701,2,EL,1,100,1.043536
1558722423.725827,335153.500,58720,2,EL,1,100,1.045550
1558722423.793250,335203.000,58720,2,EL,1,100,1.042529
1558722423.859311,335251.500,58738,2,EL,1,100,1.045349
1558722423.925372,335300.000,58738,2,EL,1,100,1.043133
1558722423.993475,335350.000,58756,2,EL,1,100,1.044342
1558722424.061579,335400.000,58756,2,EL,1,100,1.044342
1558722424.128321,335449.000,58774,2,EL,1,100,1.044342
1558722424.195063,335498.000,58774,2,EL,1,100,1.043738
1558722424.261351,335546.667,58792,3,EL,1,100,1.044745
1558722424.327639,335595.333,58792,3,EL,1,100,1.043536
1558722424.393927,335644.000,58792,3,EL,1,100,1.044342
1558722424.459988,335692.500,58810,2,EL,1,100,1.043335
1558722424.526049,335741.000,58810,2,EL,1,100,1.044946
1558722424.592791,335790.000,58828,2,EL,1,100,1.044141
1558722424.659533,335839.000,58828,2,EL,1,100,1.044543
1558722424.726956,335888.500,58847,2,EL,1,100,1.043133
1558722424.794379,335938.000,58847,2,EL,1,100,1.044543
1558722424.861801,335987.500,58865,2,EL,1,100,1.043939
1558722424.929224,336037.000,58865,2,EL,1,100,1.043738
1558722424.995966,336086.000,58883,2,EL,1,100,1.043738
1558722425.062708,336135.000,58883,2,EL,1,100,1.043738
1558722425.130812,336185.000,58901,2,EL,1,100,1.044745
1558722425.198916,336235.000,58901,2,EL,1,100,1.043738
1558722425.264296,336283.000,58919,2,EL,1,100,1.045550
1558722425.329676,336331.000,58919,2,EL,1,100,1.044543
1558722425.395737,336379.500,58937,2,EL,1,100,1.043939
1558722425.461798,336428.000,58937,2,EL,1,100,1.043939
1558722425.527858,336476.500,58955,2,EL,1,100,1.045349
1558722425.593920,336525.000,58955,2,EL,1,100,1.045550
1558722425.659299,336573.000,58973,2,EL,1,100,1.044543
1558722425.724679,336621.000,58973,2,EL,1,100,1.044342
1558722425.792102,336670.500,58992,2,EL,1,100,1.044141
1558722425.859525,336720.000,58992,2,EL,1,100,1.045148
1558722425.926267,336769.000,59010,2,EL,1,100,1.044342
1558722425.993009,336818.000,59010,2,EL,1,100,1.044946
1558722426.059070,336866.500,59028,2,EL,1,100,1.044946
1558722426.125131,336915.000,59028,2,EL,1,100,1.044141
1558722426.191873,336964.000,59046,2,EL,1,100,1.045148
1558722426.258614,337013.000,59046,2,EL,1,100,1.044543
1558722426.324448,337061.333,59064,3,EL,1,100,1.046155
1558722426.390282,337109.667,59064,3,EL,1,100,1.045953
1558722426.456116,337158.000,59064,3,EL,1,100,1.044543
1558722426.522177,337206.500,59082,2,EL,1,100,1.045752
1558722426.588238,337255.000,59082,2,EL,1,100,1.044745
1558722426.653618,337303.000,59100,2,EL,1,100,1.045752
1558722426.718997,337351.000,59100,2,EL,1,100,1.046155
1558722426.786193,337400.333,59122,3,EL,1,100,1.045953
1558722426.853389,337449.667,59122,3,EL,1,100,1.044946
1558722426.920585,337499.000,59122,3,EL,1,100,1.045349
1558722426.988689,337549.000,59142,2,EL,1,100,1.045752
1558722427.056793,337599.000,59142,2,EL,1,100,1.045550
1558722427.124216,337648.500,59160,2,EL,1,100,1.046558
1558722427.191639,337698.000,59160,2,EL,1,100,1.045349
1558722427.258381,337747.000,59178,2,EL,1,100,1.046155
1558722427.325123,337796.000,59178,2,EL,1,100,1.046356
1558722427.391184,337844.500,59196,2,EL,1,100,1.045349
1558722427.457245,337893.000,59196,2,EL,1,100,1.044342
1558722427.523987,337942.000,59214,2,EL,1,100,1.046759
1558722427.590729,337991.000,59214,2,EL,1,100,1.046558
1558722427.656790,338039.500,59232,2,EL,1,100,1.047565
1558722427.722850,338088.000,59232,2,EL,1,100,1.046558
1558722427.790273,338137.500,59251,2,EL,1,100,1.046558
1558722427.857696,338187.000,59251,2,EL,1,100,1.047363
1558722427.925800,338237.000,59269,2,EL,1,100,1.047565
1558722427.993904,338287.000,59269,2,EL,1,100,1.047565
1558722428.061327,338336.500,59287,2,EL,1,100,1.047363
1558722428.128750,338386.000,59287,2,EL,1,100,1.047363
1558722428.196173,338435.500,59305,2,EL,1,100,1.047766
1558722428.263596,338485.000,59305,2,EL,1,100,1.046356
1558722428.329884,338533.667,59323,3,EL,1,100,1.046558
1558722428.396172,338582.333,59323,3,EL,1,100,1.046960
1558722428.462460,338631.000,59323,3,EL,1,100,1.047766
1558722428.528521,338679.500,59341,2,EL,1,100,1.048169
1558722428.594581,338728.000,59341,2,EL,1,100,1.046960
1558722428.659961,338776.000,59359,2,EL,1,100,1.047766
1558722428.725341,338824.000,59359,2,EL,1,100,1.047162
1558722428.791402,338872.500,59378,2,EL,1,100,1.047162
1558722428.857463,338921.000,59378,2,EL,1,100,1.046759
1558722428.924205,338970.000,59396,2,EL,1,100,1.048169
1558722428.990947,339019.000,59396,2,EL,1,100,1.048169
1558722429.057008,339067.500,59414,2,EL,1,100,1.047968
1558722429.123068,339116.000,59414,2,EL,1,100,1.047968
1558722429.190491,339165.500,59432,2,EL,1,100,1.047968
1558722429.257914,339215.000,59432,2,EL,1,100,1.047565
1558722429.323975,339263.500,59450,2,EL,1,100,1.047162
1558722429.390036,339312.000,59450,2,EL,1,100,1.048572
1558722429.455416,339360.000,59468,2,EL,1,100,1.047363
1558722429.520796,339408.000,59468,2,EL,1,100,1.047162
1558722429.586857,339456.500,59486,2,EL,1,100,1.047766
1558722429.652918,339505.000,59486,2,EL,1,100,1.046960
1558722429.718978,339553.500,59504,2,EL,1,100,1.048169
1558722429.785039,339602.000,59504,2,EL,1,100,1.046155
1558722429.850419,339650.000,59523,2,EL,1,100,1.046155
1558722429.915799,339698.000,59523,2,EL,1,100,1.047766
1558722429.982995,339747.333,59541,3,EL,1,100,1.048572
1558722430.050191,339796.667,59541,3,EL,1,100,1.047766
1558722430.117387,339846.000,59541,3,EL,1,100,1.047363
1558722430.185491,339896.000,59559,2,EL,1,100,1.046759
1558722430.253595,339946.000,59559,2,EL,1,100,1.047162
1558722430.320337,339995.000,59577,2,EL,1,100,1.047363
1558722430.387079,340044.000,59577,2,EL,1,100,1.047363
1558722430.453140,340092.500,59595,2,EL,1,100,1.047968
1558722430.519200,340141.000,59595,2,EL,1,100,1.047162
1558722430.585261,340189.500,59613,2,EL,1,100,1.048370
1558722430.651322,340238.000,59613,2,EL,1,100,1.047363
1558722430.718064,340287.000,59631,2,EL,1,100,1.048370
1558722430.784806,340336.000,59631,2,EL,1,100,1.048370
1558722430.850867,340384.500,59650,2,EL,1,100,1.048773
1558722430.916928,340433.000,59650,2,EL,1,100,1.047565
1558722430.984351,340482.500,59668,2,EL,1,100,1.047968
1558722431.051774,340532.000,59668,2,EL,1,100,1.046759
1558722431.119878,340582.000,59686,2,EL,1,100,1.047766
1558722431.187982,340632.000,59686,2,EL,1,100,1.046558
1558722431.255404,340681.500,59704,2,EL,1,100,1.048169
1558722431.322828,340731.000,59704,2,EL,1,100,1.046759
1558722431.390250,340780.500,59722,2,EL,1,100,1.047363
1558722431.457673,340830.000,59722,2,EL,1,100,1.045953
1558722431.523734,340878.500,59740,2,EL,1,100,1.045550
1558722431.589795,340927.000,59740,2,EL,1,100,1.045953
1558722431.655175,340975.000,59758,2,EL,1,100,1.046155
1558722431.720555,341023.000,59758,2,EL,1,100,1.046356
1558722431.786616,341071.500,59776,2,EL,1,100,1.046759
1558722431.852677,341120.000,59776,2,EL,1,100,1.044543
1558722431.919419,341169.000,59795,2,EL,1,100,1.045550
1558722431.986160,341218.000,59795,2,EL,1,100,1.044342
1558722432.052221,341266.500,59813,2,EL,1,100,1.044543
1558722432.118282,341315.000,59813,2,EL,1,100,1.043939
1558722432.185024,341364.000,59831,3,EL,1,100,1.044342
1558722432.251766,341413.000,59831,3,EL,1,100,1.044141
1558722432.318508,341462.000,59831,3,EL,1,100,1.043536
1558722432.385931,341511.500,59849,2,EL,1,100,1.042328
1558722432.453354,341561.000,59849,2,EL,1,100,1.044342
1558722432.519415,341609.500,59867,2,EL,1,100,1.042328
1558722432.585475,341658.000,59867,2,EL,1,100,1.043335
1558722432.650855,341706.000,59885,2,EL,1,100,1.043939
1558722432.716235,341754.000,59885,2,EL,1,100,1.043335
1558722432.782296,341802.500,59903,2,EL,1,100,1.043939
1558722432.848357,341851.000,59903,2,EL,1,100,1.043335
1558722432.915099,341900.000,59922,2,EL,1,100,1.043335
1558722432.981841,341949.000,59922,2,EL,1,100,1.042328
1558722433.047902,341997.500,59940,2,EL,1,100,1.042126
1558722433.113963,342046.000,59940,2,EL,1,100,1.042529
1558722433.182066,342096.000,59958,2,EL,1,100,1.042932
1558722433.250170,342146.000,59958,2,EL,1,100,1.042126
1558722433.317594,342195.500,59976,2,EL,1,100,1.043738
1558722433.385016,342245.000,59976,2,EL,1,100,1.042126
1558722433.451758,342294.000,59994,2,EL,1,100,1.042529
1558722433.518500,342343.000,59994,2,EL,1,100,1.041119
1558722433.584561,342391.500,60012,2,EL,1,100,1.041925
1558722433.650622,342440.000,60012,2,EL,1,100,1.042932
1558722433.716910,342488.667,60033,3,EL,1,100,1.041925
1558722433.783198,342537.333,60033,3,EL,1,100,1.039911
1558722433.849486,342586.000,60033,3,EL,1,100,1.042731
1558722433.915774,342634.667,60054,3,EL,1,100,1.041119
1558722433.982061,342683.333,60054,3,EL,1,100,1.041119
1558722434.048349,342732.000,60054,3,EL,1,100,1.041522
1558722434.116453,342782.000,60072,2,EL,1,100,1.041724
1558722434.184557,342832.000,60072,2,EL,1,100,1.040717
1558722434.251299,342881.000,60090,2,EL,1,100,1.041724
1558722434.318041,342930.000,60090,2,EL,1,100,1.041119
1558722434.384783,342979.000,60108,2,EL,1,100,1.040112
1558722434.451525,343028.000,60108,2,EL,1,100,1.041724
1558722434.518948,343077.500,60126,2,EL,1,100,1.040515
1558722434.586371,343127.000,60126,2,EL,1,100,1.040112
1558722434.652432,343175.500,60144,2,EL,1,100,1.039911
1558722434.718493,343224.000,60144,2,EL,1,100,1.038702
1558722434.785235,343273.000,60162,2,EL,1,100,1.040112
1558722434.851976,343322.000,60162,2,EL,1,100,1.040112
1558722434.918037,343370.500,60181,2,EL,1,100,1.039307
1558722434.984098,343419.000,60181,2,EL,1,100,1.039911
1558722435.050159,343467.500,60199,2,EL,1,100,1.038702
1558722435.116220,343516.000,60199,2,EL,1,100,1.039709
1558722435.183643,343565.500,60217,2,EL,1,100,1.040515
1558722435.251066,343615.000,60217,2,EL,1,100,1.037897
1558722435.317808,343664.000,60235,2,EL,1,100,1.038702
1558722435.384550,343713.000,60235,2,EL,1,100,1.038501
1558722435.450611,343761.500,60253,2,EL,1,100,1.039307
1558722435.516671,343810.000,60253,2,EL,1,100,1.039307
1558722435.583413,343859.000,60271,2,EL,1,100,1.037695
1558722435.650155,343908.000,60271,2,EL,1,100,1.039307
1558722435.716216,343956.500,60289,2,EL,1,100,1.039508
1558722435.782277,344005.000,60289,2,EL,1,100,1.038501
1558722435.848338,344053.500,60308,2,EL,1,100,1.038904
1558722435.914399,344102.000,60308,2,EL,1,100,1.038904
1558722435.980687,344150.667,60326,3,EL,1,100,1.038501
1558722436.046975,344199.333,60326,3,EL,1,100,1.038904
1558722436.113262,344248.000,60326,3,EL,1,100,1.037897
1558722436.180004,344297.000,60344,2,EL,1,100,1.038501
1558722436.246746,344346.000,60344,2,EL,1,100,1.037494
1558722436.314169,344395.500,60362,2,EL,1,100,1.038904
1558722436.381592,344445.000,60362,2,EL,1,100,1.037292
1558722436.449015,344494.500,60380,2,EL,1,100,1.037292
1558722436.516438,344544.000,60380,2,EL,1,100,1.037695
1558722436.582499,344592.500,60398,2,EL,1,100,1.037695
1558722436.648560,344641.000,60398,2,EL,1,100,1.037897
1558722436.715302,344690.000,60416,2,EL,1,100,1.036688
1558722436.782044,344739.000,60416,2,EL,1,100,1.037091
1558722436.848786,344788.000,60434,2,EL,1,100,1.037292
1558722436.915528,344837.000,60434,2,EL,1,100,1.036890
1558722436.980907,344885.000,60453,2,EL,1,100,1.037091
1558722437.046287,344933.000,60453,2,EL,1,100,1.037494
1558722437.113710,344982.500,60471,2,EL,1,100,1.038098
1558722437.181133,345032.000,60471,2,EL,1,100,1.036285
1558722437.248556,345081.500,60489,2,EL,1,100,1.037091
1558722437.315979,345131.000,60489,2,EL,1,100,1.038904
1558722437.382040,345179.500,60507,2,EL,1,100,1.038300
1558722437.448101,345228.000,60507,2,EL,1,100,1.036890
1558722437.516205,345278.000,60525,2,EL,1,100,1.036487
1558722437.584309,345328.000,60525,2,EL,1,100,1.037695
1558722437.651051,345377.000,60543,2,EL,1,100,1.036285
1558722437.717793,345426.000,60543,2,EL,1,100,1.037695
1558722437.783854,345474.500,60561,2,EL,1,100,1.036688
1558722437.849914,345523.000,60561,2,EL,1,100,1.036487
1558722437.915975,345571.500,60580,2,EL,1,100,1.036890
1558722437.982036,345620.000,60580,2,EL,1,100,1.037897
1558722438.048778,345669.000,60598,2,EL,1,100,1.036890
1558722438.115520,345718.000,60598,2,EL,1,100,1.036890
1558722438.182262,345767.000,60616,3,EL,1,100,1.038098
1558722438.249004,345816.000,60616,3,EL,1,100,1.036890
1558722438.315746,345865.000,60616,3,EL,1,100,1.037695
1558722438.382488,345914.000,60634,2,EL,1,100,1.037695
1558722438.449229,345963.000,60634,2,EL,1,100,1.038501
1558722438.515971,346012.000,60652,2,EL,1,100,1.037292
1558722438.582713,346061.000,60652,2,EL,1,100,1.036890
1558722438.649455,346110.000,60670,2,EL,1,100,1.037292
1558722438.716197,346159.000,60670,2,EL,1,100,1.036890
1558722438.781577,346207.000,60688,2,EL,1,100,1.036688
1558722438.846957,346255.000,60688,2,EL,1,100,1.036285
1558722438.913018,346303.500,60706,2,EL,1,100,1.036084
1558722438.979079,346352.000,60706,2,EL,1,100,1.036285
1558722439.045140,346400.500,60725,2,EL,1,100,1.037897
1558722439.111200,346449.000,60725,2,EL,1,100,1.036890
1558722439.177942,346498.000,60743,2,EL,1,100,1.037494
1558722439.244684,346547.000,60743,2,EL,1,100,1.037292
1558722439.312107,346596.500,60761,2,EL,1,100,1.036890
1558722439.379530,346646.000,60761,2,EL,1,100,1.036285
1558722439.446953,346695.500,60779,2,EL,1,100,1.037494
1558722439.514376,346745.000,60779,2,EL,1,100,1.036688
1558722439.581118,346794.000,60797,2,EL,1,100,1.038098
1558722439.647860,346843.000,60797,2,EL,1,100,1.037695
1558722439.715964,346893.000,60815,2,EL,1,100,1.037091
1558722439.784068,346943.000,60815,2,EL,1,100,1.036688
1558722439.850810,346992.000,60833,2,EL,1,100,1.038501
1558722439.917552,347041.000,60833,2,EL,1,100,1.035681
1558722439.982931,347089.000,60852,2,EL,1,100,1.035883
1558722440.048311,347137.000,60852,2,EL,1,100,1.036487
1558722440.115053,347186.000,60870,2,EL,1,100,1.037494
1558722440.181795,347235.000,60870,2,EL,1,100,1.038300
1558722440.249218,347284.500,60888,2,EL,1,100,1.035681
1558722440.316641,347334.000,60888,2,EL,1,100,1.036487
1558722440.382702,347382.500,60906,2,EL,1,100,1.036285
1558722440.448763,347431.000,60906,2,EL,1,100,1.037897
1558722440.515959,347480.333,60924,3,EL,1,100,1.036487
1558722440.583155,347529.667,60924,3,EL,1,100,1.035883
1558722440.650351,347579.000,60924,3,EL,1,100,1.036688
1558722440.718001,347628.667,60945,3,EL,1,100,1.037494
1558722440.785650,347678.333,60945,3,EL,1,100,1.035883
1558722440.853301,347728.000,60945,3,EL,1,100,1.037695
1558722440.919361,347776.500,60965,2,EL,1,100,1.037897
1558722440.985422,347825.000,60965,2,EL,1,100,1.037091
1558722441.052164,347874.000,60984,2,EL,1,100,1.037091
1558722441.118906,347923.000,60984,2,EL,1,100,1.036285
1558722441.184967,347971.500,61002,2,EL,1,100,1.036688
1558722441.251028,348020.000,61002,2,EL,1,100,1.036084
1558722441.317770,348069.000,61020,2,EL,1,100,1.036487
1558722441.384512,348118.000,61020,2,EL,1,100,1.037494
1558722441.451254,348167.000,61038,2,EL,1,100,1.036487
1558722441.517996,348216.000,61038,2,EL,1,100,1.035681
1558722441.584738,348265.000,61056,2,EL,1,100,1.036890
1558722441.651479,348314.000,61056,2,EL,1,100,1.036084
1558722441.718221,348363.000,61074,2,EL,1,100,1.037897
1558722441.784963,348412.000,61074,2,EL,1,100,1.034876
1558722441.851024,348460.500,61092,2,EL,1,100,1.036890
1558722441.917085,348509.000,61092,2,EL,1,100,1.037494
1558722441.982465,348557.000,61111,2,EL,1,100,1.037494
1558722442.047845,348605.000,61111,2,EL,1,100,1.035077
1558722442.113678,348653.333,61129,3,EL,1,100,1.036688
1558722442.179512,348701.667,61129,3,EL,1,100,1.036688
1558722442.245346,348750.000,61129,3,EL,1,100,1.035883
1558722442.312088,348799.000,61147,2,EL,1,100,1.035077
1558722442.378830,348848.000,61147,2,EL,1,100,1.034876
1558722442.446253,348897.500,61165,2,EL,1,100,1.037695
1558722442.513676,348947.000,61165,2,EL,1,100,1.035278
1558722442.580418,348996.000,61183,2,EL,1,100,1.037494
1558722442.647160,349045.000,61183,2,EL,1,100,1.036688
1558722442.714583,349094.500,61201,2,EL,1,100,1.036487
1558722442.782006,349144.000,61201,2,EL,1,100,1.036890
1558722442.849429,349193.500,61219,2,EL,1,100,1.035278
1558722442.916852,349243.000,61219,2,EL,1,100,1.036688
1558722442.981550,349290.500,61237,2,EL,1,100,1.036487
1558722443.046249,349338.000,61237,2,EL,1,100,1.037091
1558722443.112991,349387.000,61256,2,EL,1,100,1.036084
1558722443.179733,349436.000,61256,2,EL,1,100,1.037292
1558722443.246475,349485.000,61274,2,EL,1,100,1.036285
1558722443.313217,349534.000,61274,2,EL,1,100,1.036285
1558722443.378597,349582.000,61292,2,EL,1,100,1.036688
1558722443.443976,349630.000,61292,2,EL,1,100,1.036688
1558722443.512080,349680.000,61310,2,EL,1,100,1.037494
1558722443.580184,349730.000,61310,2,EL,1,100,1.036285
1558722443.647607,349779.500,61328,2,EL,1,100,1.036285
1558722443.715030,349829.000,61328,2,EL,1,100,1.037091
1558722443.781772,349878.000,61346,2,EL,1,100,1.036487
1558722443.848514,349927.000,61346,2,EL,1,100,1.037494
1558722443.915937,349976.500,61364,2,EL,1,100,1.037091
1558722443.983360,350026.000,61364,2,EL,1,100,1.036688
1558722444.049421,350074.500,61383,2,EL,1,100,1.036688
1558722444.115482,350123.000,61383,2,EL,1,100,1.037091
1558722444.181543,350171.500,61401,2,EL,1,100,1.037695
1558722444.247604,350220.000,61401,2,EL,1,100,1.036084
1558722444.314346,350269.000,61419,3,EL,1,100,1.036487
1558722444.381088,350318.000,61419,3,EL,1,100,1.037695
1558722444.447829,350367.000,61419,3,EL,1,100,1.037897
1558722444.514571,350416.000,61437,2,EL,1,100,1.037494
1558722444.581313,350465.000,61437,2,EL,1,100,1.036688
1558722444.648736,350514.500,61455,2,EL,1,100,1.036084
1558722444.716159,350564.000,61455,2,EL,1,100,1.037494
1558722444.783582,350613.500,61473,2,EL,1,100,1.035278
1558722444.851005,350663.000,61473,2,EL,1,100,1.037494
1558722444.917747,350712.000,61491,2,EL,1,100,1.036890
1558722444.984489,350761.000,61491,2,EL,1,100,1.038300
1558722445.050550,350809.500,61510,2,EL,1,100,1.037091
1558722445.116611,350858.000,61510,2,EL,1,100,1.037091
1558722445.181990,350906.000,61528,2,EL,1,100,1.036084
1558722445.247370,350954.000,61528,2,EL,1,100,1.036487
1558722445.313431,351002.500,61546,2,EL,1,100,1.036890
1558722445.379492,351051.000,61546,2,EL,1,100,1.035883
1558722445.446234,351100.000,61564,2,EL,1,100,1.037292
1558722445.512976,351149.000,61564,2,EL,1,100,1.036084
1558722445.579037,351197.500,61582,2,EL,1,100,1.036890
1558722445.645097,351246.000,61582,2,EL,1,100,1.035077
1558722445.712521,351295.500,61600,2,EL,1,100,1.036285
1558722445.779943,351345.000,61600,2,EL,1,100,1.034271
1558722445.846685,351394.000,61618,2,EL,1,100,1.036688
1558722445.913427,351443.000,61618,2,EL,1,100,1.036285
1558722445.979488,351491.500,61636,2,EL,1,100,1.036487
1558722446.045549,351540.000,61636,2,EL,1,100,1.035480
1558722446.112291,351589.000,61655,2,EL,1,100,1.036688
1558722446.179033,351638.000,61655,2,EL,1,100,1.036285
1558722446.245094,351686.500,61673,2,EL,1,100,1.038098
1558722446.311155,351735.000,61673,2,EL,1,100,1.036688
1558722446.377443,351783.667,61691,3,EL,1,100,1.037091
1558722446.443730,351832.333,61691,3,EL,1,100,1.035077
1558722446.510018,351881.000,61691,3,EL,1,100,1.036084
1558722446.576079,351929.500,61709,2,EL,1,100,1.035480
1558722446.642140,351978.000,61709,2,EL,1,100,1.037091
1558722446.710244,352028.000,61727,2,EL,1,100,1.035681
1558722446.778348,352078.000,61727,2,EL,1,100,1.038098
1558722446.845771,352127.500,61745,2,EL,1,100,1.036890
1558722446.913194,352177.000,61745,2,EL,1,100,1.036084
1558722446.980617,352226.500,61763,2,EL,1,100,1.036487
1558722447.048040,352276.000,61763,2,EL,1,100,1.036285
1558722447.114101,352324.500,61782,2,EL,1,100,1.036688
1558722447.180162,352373.000,61782,2,EL,1,100,1.035883
1558722447.246904,352422.000,61800,2,EL,1,100,1.036890
1558722447.313645,352471.000,61800,2,EL,1,100,1.037091
1558722447.379706,352519.500,61818,2,EL,1,100,1.036285
1558722447.445767,352568.000,61818,2,EL,1,100,1.034674
1558722447.512509,352617.000,61836,2,EL,1,100,1.036285
1558722447.579251,352666.000,61836,2,EL,1,100,1.035681
1558722447.646901,352715.667,61857,3,EL,1,100,1.036890
1558722447.714551,352765.333,61857,3,EL,1,100,1.036285
1558722447.782201,352815.000,61857,3,EL,1,100,1.036487
1558722447.850305,352865.000,61877,2,EL,1,100,1.037494
1558722447.918409,352915.000,61877,2,EL,1,100,1.036688
1558722447.985832,352964.500,61895,2,EL,1,100,1.037695
1558722448.053255,353014.000,61895,2,EL,1,100,1.037695
1558722448.119316,353062.500,61914,2,EL,1,100,1.036487
1558722448.185377,353111.000,61914,2,EL,1,100,1.036084
1558722448.251437,353159.500,61932,2,EL,1,100,1.037897
1558722448.317498,353208.000,61932,2,EL,1,100,1.038300
1558722448.383332,353256.333,61950,3,EL,1,100,1.037695
1558722448.449166,353304.667,61950,3,EL,1,100,1.038300
1558722448.515000,353353.000,61950,3,EL,1,100,1.036487
1558722448.580380,353401.000,61968,2,EL,1,100,1.034876
1558722448.645760,353449.000,61968,2,EL,1,100,1.036285
1558722448.713183,353498.500,61986,2,EL,1,100,1.037091
1558722448.780606,353548.000,61986,2,EL,1,100,1.037695
1558722448.847347,353597.000,62004,2,EL,1,100,1.036285
1558722448.914089,353646.000,62004,2,EL,1,100,1.036890
1558722448.980150,353694.500,62022,2,EL,1,100,1.037695
1558722449.046211,353743.000,62022,2,EL,1,100,1.038098
1558722449.112953,353792.000,62041,2,EL,1,100,1.036487
1558722449.179695,353841.000,62041,2,EL,1,100,1.036688
1558722449.245756,353889.500,62059,2,EL,1,100,1.037494
1558722449.311817,353938.000,62059,2,EL,1,100,1.036890
1558722449.377197,353986.000,62077,2,EL,1,100,1.037292
1558722449.442576,354034.000,62077,2,EL,1,100,1.037292
1558722449.508637,354082.500,62095,2,EL,1,100,1.036688
1558722449.574698,354131.000,62095,2,EL,1,100,1.036890
1558722449.642121,354180.500,62113,2,EL,1,100,1.038098
1558722449.709544,354230.000,62113,2,EL,1,100,1.037897
1558722449.775605,354278.500,62131,2,EL,1,100,1.038501
1558722449.841666,354327.000,62131,2,EL,1,100,1.037292
1558722449.909770,354377.000,62149,2,EL,1,100,1.037897
1558722449.977874,354427.000,62149,2,EL,1,100,1.037897
1558722450.045297,354476.500,62167,2,EL,1,100,1.037494
1558722450.112720,354526.000,62167,2,EL,1,100,1.037695
1558722450.179461,354575.000,62186,2,EL,1,100,1.037494
1558722450.246203,354624.000,62186,2,EL,1,100,1.037091
1558722450.312264,354672.500,62204,2,EL,1,100,1.037091
1558722450.378325,354721.000,62204,2,EL,1,100,1.038501
1558722450.444613,354769.667,62222,3,EL,1,100,1.037897
1558722450.510901,354818.333,62222,3,EL,1,100,1.036688
1558722450.577189,354867.000,62222,3,EL,1,100,1.037091
1558722450.644612,354916.500,62240,2,EL,1,100,1.038098
1558722450.712035,354966.000,62240,2,EL,1,100,1.037695
1558722450.779458,355015.500,62258,2,EL,1,100,1.037695
1558722450.846881,355065.000,62258,2,EL,1,100,1.038098
1558722450.914304,355114.500,62276,2,EL,1,100,1.038702
1558722450.981727,355164.000,62276,2,EL,1,100,1.038098
1558722451.049831,355214.000,62294,2,EL,1,100,1.037292
1558722451.117935,355264.000,62294,2,EL,1,100,1.037091
1558722451.184677,355313.000,62313,2,EL,1,100,1.038300
1558722451.251418,355362.000,62313,2,EL,1,100,1.037494
1558722451.317479,355410.500,62331,2,EL,1,100,1.038300
1558722451.383540,355459.000,62331,2,EL,1,100,1.038702
1558722451.449601,355507.500,62349,2,EL,1,100,1.035883
1558722451.515662,355556.000,62349,2,EL,1,100,1.037897
1558722451.581042,355604.000,62367,2,EL,1,100,1.037494
1558722451.646422,355652.000,62367,2,EL,1,100,1.036890
1558722451.713164,355701.000,62385,2,EL,1,100,1.038098
1558722451.779906,355750.000,62385,2,EL,1,100,1.037292
1558722451.846647,355799.000,62403,2,EL,1,100,1.037695
1558722451.913389,355848.000,62403,2,EL,1,100,1.037695
1558722451.979450,355896.500,62421,2,EL,1,100,1.038098
1558722452.045511,355945.000,62421,2,EL,1,100,1.036487
1558722452.112934,355994.500,62439,2,EL,1,100,1.038098
1558722452.180357,356044.000,62439,2,EL,1,100,1.036890
1558722452.246418,356092.500,62458,2,EL,1,100,1.037897
1558722452.312479,356141.000,62458,2,EL,1,100,1.037897
1558722452.377859,356189.000,62476,2,EL,1,100,1.038702
1558722452.443238,356237.000,62476,2,EL,1,100,1.036487
1558722452.509072,356285.333,62494,3,EL,1,100,1.037292
1558722452.574906,356333.667,62494,3,EL,1,100,1.038300
1558722452.640740,356382.000,62494,3,EL,1,100,1.037091
1558722452.707482,356431.000,62512,2,EL,1,100,1.037897
1558722452.774224,356480.000,62512,2,EL,1,100,1.037695
1558722452.841647,356529.500,62530,2,EL,1,100,1.036890
1558722452.909070,356579.000,62530,2,EL,1,100,1.036890
1558722452.975131,356627.500,62548,2,EL,1,100,1.037695
1558722453.041191,356676.000,62548,2,EL,1,100,1.036890
1558722453.108614,356725.500,62566,4,EL,1,100,1.036890
1558722453.176037,356775.000,62566,4,EL,1,100,1.035077
1558722453.243460,356824.500,62566,4,EL,1,100,1.036285
1558722453.310883,356874.000,62566,4,EL,1,100,1.036487
1558722453.376944,356922.500,62585,2,EL,1,100,1.036688
1558722453.443005,356971.000,62585,2,EL,1,100,1.037292
1558722453.509066,357019.500,62603,2,EL,1,100,1.035883
1558722453.575127,357068.000,62603,2,EL,1,100,1.036487
1558722453.641869,357117.000,62621,2,EL,1,100,1.036084
1558722453.708611,357166.000,62621,2,EL,1,100,1.035883
1558722453.775352,357215.000,62639,2,EL,1,100,1.035883
1558722453.842094,357264.000,62639,2,EL,1,100,1.034876
1558722453.909517,357313.500,62657,2,EL,1,100,1.036688
1558722453.976940,357363.000,62657,2,EL,1,100,1.036890
1558722454.045044,357413.000,62675,2,EL,1,100,1.035681
1558722454.113148,357463.000,62675,2,EL,1,100,1.035480
1558722454.179890,357512.000,62694,2,EL,1,100,1.035480
1558722454.246632,357561.000,62694,2,EL,1,100,1.034876
1558722454.314055,357610.500,62712,2,EL,1,100,1.036688
1558722454.381478,357660.000,62712,2,EL,1,100,1.035681
1558722454.447539,357708.500,62730,2,EL,1,100,1.034876
1558722454.513600,357757.000,62730,2,EL,1,100,1.034070
1558722454.580001,357805.750,62751,4,EL,1,100,1.034473
1558722454.646403,357854.500,62751,4,EL,1,100,1.034674
1558722454.712804,357903.250,62751,4,EL,1,100,1.035480
1558722454.779205,357952.000,62751,4,EL,1,100,1.034473
1558722454.845947,358001.000,62771,2,EL,1,100,1.034876
1558722454.912689,358050.000,62771,2,EL,1,100,1.034070
1558722454.978750,358098.500,62789,2,EL,1,100,1.036487
1558722455.044811,358147.000,62789,2,EL,1,100,1.033868
1558722455.112234,358196.500,62807,2,EL,1,100,1.035681
1558722455.179657,358246.000,62807,2,EL,1,100,1.035681
1558722455.246399,358295.000,62826,2,EL,1,100,1.035278
1558722455.313141,358344.000,62826,2,EL,1,100,1.034271
1558722455.379202,358392.500,62844,2,EL,1,100,1.035883
1558722455.445262,358441.000,62844,2,EL,1,100,1.035883
1558722455.511323,358489.500,62862,2,EL,1,100,1.035480
1558722455.577384,358538.000,62862,2,EL,1,100,1.034876
1558722455.643445,358586.500,62880,2,EL,1,100,1.035278
1558722455.709506,358635.000,62880,2,EL,1,100,1.034674
1558722455.774886,358683.000,62898,2,EL,1,100,1.035883
1558722455.840266,358731.000,62898,2,EL,1,100,1.034271
1558722455.907689,358780.500,62916,2,EL,1,100,1.035077
1558722455.975111,358830.000,62916,2,EL,1,100,1.034876
1558722456.042535,358879.500,62934,2,EL,1,100,1.036084
1558722456.109957,358929.000,62934,2,EL,1,100,1.033264
1558722456.176018,358977.500,62952,2,EL,1,100,1.035480
1558722456.242079,359026.000,62952,2,EL,1,100,1.034674
1558722456.310183,359076.000,62971,2,EL,1,100,1.034674
1558722456.378287,359126.000,62971,2,EL,1,100,1.036285
1558722456.445029,359175.000,62989,2,EL,1,100,1.035883
1558722456.511771,359224.000,62989,2,EL,1,100,1.036890
1558722456.578059,359272.667,63007,3,EL,1,100,1.036285
1558722456.644347,359321.333,63007,3,EL,1,100,1.035480
1558722456.710635,359370.000,63007,3,EL,1,100,1.035278
1558722456.777377,359419.000,63025,2,EL,1,100,1.036285
1558722456.844119,359468.000,63025,2,EL,1,100,1.035883
1558722456.909498,359516.000,63043,2,EL,1,100,1.036084
1558722456.974878,359564.000,63043,2,EL,1,100,1.035480
1558722457.042982,359614.000,63061,2,EL,1,100,1.036890
1558722457.111086,359664.000,63061,2,EL,1,100,1.035077
1558722457.178509,359713.500,63079,2,EL,1,100,1.036890
1558722457.245932,359763.000,63079,2,EL,1,100,1.035278
1558722457.311993,359811.500,63098,2,EL,1,100,1.036285
1558722457.378054,359860.000,63098,2,EL,1,100,1.036487
1558722457.445477,359909.500,63116,2,EL,1,100,1.035077
1558722457.512900,359959.000,63116,2,EL,1,100,1.035681
1558722457.579642,360008.000,63134,2,EL,1,100,1.036084
1558722457.646384,360057.000,63134,2,EL,1,100,1.035077
1558722457.712445,360105.500,63152,2,EL,1,100,1.036487
1558722457.778505,360154.000,63152,2,EL,1,100,1.034876
1558722457.844566,360202.500,63170,2,EL,1,100,1.036285
1558722457.910627,360251.000,63170,2,EL,1,100,1.035883
1558722457.977369,360300.000,63188,2,EL,1,100,1.035278
1558722458.044111,360349.000,63188,2,EL,1,100,1.034070
1558722458.110853,360398.000,63206,2,EL,1,100,1.035681
1558722458.177595,360447.000,63206,2,EL,1,100,1.034070
1558722458.244337,360496.000,63225,2,EL,1,100,1.034473
1558722458.311079,360545.000,63225,2,EL,1,100,1.033868
1558722458.377820,360594.000,63243,2,EL,1,100,1.034070
1558722458.444562,360643.000,63243,2,EL,1,100,1.034271
1558722458.510623,360691.500,63261,2,EL,1,100,1.034473
1558722458.576684,360740.000,63261,2,EL,1,100,1.033063
1558722458.642518,360788.333,63279,3,EL,1,100,1.033868
1558722458.708352,360836.667,63279,3,EL,1,100,1.033667
1558722458.774186,360885.000,63279,3,EL,1,100,1.033466
1558722458.840247,360933.500,63297,2,EL,1,100,1.031250
1558722458.906307,360982.000,63297,2,EL,1,100,1.032257
1558722458.973049,361031.000,63315,2,EL,1,100,1.033868
1558722459.039791,361080.000,63315,2,EL,1,100,1.031854
1558722459.106533,361129.000,63333,2,EL,1,100,1.031854
1558722459.173275,361178.000,63333,2,EL,1,100,1.032257
1558722459.240698,361227.500,63351,2,EL,1,100,1.031854
1558722459.308121,361277.000,63351,2,EL,1,100,1.031049
1558722459.375544,361326.500,63370,2,EL,1,100,1.031250
1558722459.442967,361376.000,63370,2,EL,1,100,1.031250
1558722459.509028,361424.500,63388,2,EL,1,100,1.030646
1558722459.575089,361473.000,63388,2,EL,1,100,1.030041
1558722459.641831,361522.000,63406,2,EL,1,100,1.031854
1558722459.708573,361571.000,63406,2,EL,1,100,1.031451
1558722459.775315,361620.000,63424,2,EL,1,100,1.031049
1558722459.842056,361669.000,63424,2,EL,1,100,1.031250
1558722459.907436,361717.000,63442,2,EL,1,100,1.031250
1558722459.972816,361765.000,63442,2,EL,1,100,1.029236
1558722460.040920,361815.000,63460,2,EL,1,100,1.031653
1558722460.109024,361865.000,63460,2,EL,1,100,1.030444
1558722460.176447,361914.500,63478,2,EL,1,100,1.031451
1558722460.243870,361964.000,63478,2,EL,1,100,1.030847
1558722460.309931,362012.500,63497,2,EL,1,100,1.030847
1558722460.375992,362061.000,63497,2,EL,1,100,1.031451
1558722460.444096,362111.000,63515,2,EL,1,100,1.031653
1558722460.512200,362161.000,63515,2,EL,1,100,1.030847
1558722460.578942,362210.000,63533,2,EL,1,100,1.030646
1558722460.645684,362259.000,63533,2,EL,1,100,1.030847
1558722460.711744,362307.500,63551,2,EL,1,100,1.031653
1558722460.777805,362356.000,63551,2,EL,1,100,1.031854
1558722460.844093,362404.667,63569,3,EL,1,100,1.032458
1558722460.910381,362453.333,63569,3,EL,1,100,1.031854
1558722460.976669,362502.000,63569,3,EL,1,100,1.029840
1558722461.043411,362551.000,63587,2,EL,1,100,1.032257
1558722461.110153,362600.000,63587,2,EL,1,100,1.031250
1558722461.176895,362649.000,63605,2,EL,1,100,1.031049
1558722461.243637,362698.000,63605,2,EL,1,100,1.030847
1558722461.310379,362747.000,63624,2,EL,1,100,1.030847
1558722461.377120,362796.000,63624,2,EL,1,100,1.032660
1558722461.443862,362845.000,63642,2,EL,1,100,1.033063
1558722461.510604,362894.000,63642,2,EL,1,100,1.031250
1558722461.576438,362942.333,63663,3,EL,1,100,1.030847
1558722461.642272,362990.667,63663,3,EL,1,100,1.030847
1558722461.708106,363039.000,63663,3,EL,1,100,1.032458
1558722461.774167,363087.500,63683,2,EL,1,100,1.031653
1558722461.840228,363136.000,63683,2,EL,1,100,1.031653
1558722461.905607,363184.000,63701,2,EL,1,100,1.031854
1558722461.970987,363232.000,63701,2,EL,1,100,1.032861
1558722462.037729,363281.000,63719,2,EL,1,100,1.032257
1558722462.104471,363330.000,63719,2,EL,1,100,1.031653
1558722462.171894,363379.500,63737,2,EL,1,100,1.032056
1558722462.239317,363429.000,63737,2,EL,1,100,1.031049
1558722462.306059,363478.000,63756,2,EL,1,100,1.032257
1558722462.372801,363527.000,63756,2,EL,1,100,1.031854
1558722462.440224,363576.500,63774,2,EL,1,100,1.032056
1558722462.507647,363626.000,63774,2,EL,1,100,1.032660
1558722462.575751,363676.000,63792,2,EL,1,100,1.032660
1558722462.643855,363726.000,63792,2,EL,1,100,1.032458
1558722462.710597,363775.000,63810,3,EL,1,100,1.032458
1558722462.777339,363824.000,63810,3,EL,1,100,1.033063
1558722462.844080,363873.000,63810,3,EL,1,100,1.032458
1558722462.909460,363921.000,63828,2,EL,1,100,1.032257
1558722462.974840,363969.000,63828,2,EL,1,100,1.033667
1558722463.041582,364018.000,63846,2,EL,1,100,1.033063
1558722463.108324,364067.000,63846,2,EL,1,100,1.033264
1558722463.175747,364116.500,63864,2,EL,1,100,1.033264
1558722463.243170,364166.000,63864,2,EL,1,100,1.031854
1558722463.309231,364214.500,63882,2,EL,1,100,1.031854
1558722463.375292,364263.000,63882,2,EL,1,100,1.031451
1558722463.443396,364313.000,63901,2,EL,1,100,1.032257
1558722463.511500,364363.000,63901,2,EL,1,100,1.031854
1558722463.578923,364412.500,63919,2,EL,1,100,1.033466
1558722463.646346,364462.000,63919,2,EL,1,100,1.032056
1558722463.713088,364511.000,63937,2,EL,1,100,1.032458
1558722463.779829,364560.000,63937,2,EL,1,100,1.031854
1558722463.845890,364608.500,63955,2,EL,1,100,1.031250
1558722463.911951,364657.000,63955,2,EL,1,100,1.032458
1558722463.978693,364706.000,63973,2,EL,1,100,1.031049
1558722464.045435,364755.000,63973,2,EL,1,100,1.031653
1558722464.111496,364803.500,63991,2,EL,1,100,1.032257
1558722464.177557,364852.000,63991,2,EL,1,100,1.033063
1558722464.244299,364901.000,64009,2,EL,1,100,1.031451
1558722464.311040,364950.000,64009,2,EL,1,100,1.030646
1558722464.378464,364999.500,64028,2,EL,1,100,1.032056
1558722464.445886,365049.000,64028,2,EL,1,100,1.031451
1558722464.513309,365098.500,64046,2,EL,1,100,1.031854
1558722464.580732,365148.000,64046,2,EL,1,100,1.031451
1558722464.647474,365197.000,64064,2,EL,1,100,1.031854
1558722464.714216,365246.000,64064,2,EL,1,100,1.031451
1558722464.780958,365295.000,64082,2,EL,1,100,1.030444
1558722464.847700,365344.000,64082,2,EL,1,100,1.030847
1558722464.913534,365392.333,64100,3,EL,1,100,1.030646
1558722464.979368,365440.667,64100,3,EL,1,100,1.027624
1558722465.045202,365489.000,64100,3,EL,1,100,1.031049
1558722465.110581,365537.000,64118,2,EL,1,100,1.031250
1558722465.175961,365585.000,64118,2,EL,1,100,1.027826
1558722465.243384,365634.500,64136,2,EL,1,100,1.030041
1558722465.310807,365684.000,64136,2,EL,1,100,1.029236
1558722465.377549,365733.000,64155,2,EL,1,100,1.029236
1558722465.444291,365782.000,64155,2,EL,1,100,1.030041
1558722465.510352,365830.500,64173,2,EL,1,100,1.029034
1558722465.576413,365879.000,64173,2,EL,1,100,1.029437
1558722465.643836,365928.500,64191,2,EL,1,100,1.029034
1558722465.711259,365978.000,64191,2,EL,1,100,1.027222
1558722465.778001,366027.000,64209,2,EL,1,100,1.029034
1558722465.844743,366076.000,64209,2,EL,1,100,1.027826
1558722465.910122,366124.000,64227,2,EL,1,100,1.027423
1558722465.975502,366172.000,64227,2,EL,1,100,1.027222
1558722466.042244,366221.000,64245,2,EL,1,100,1.029437
1558722466.108986,366270.000,64245,2,EL,1,100,1.025812
1558722466.175728,366319.000,64263,2,EL,1,100,1.026819
1558722466.242470,366368.000,64263,2,EL,1,100,1.026013
1558722466.307850,366416.000,64281,2,EL,1,100,1.028430
1558722466.373230,366464.000,64281,2,EL,1,100,1.029034
1558722466.440652,366513.500,64300,2,EL,1,100,1.026013
1558722466.508075,366563.000,64300,2,EL,1,100,1.026215
1558722466.575498,366612.500,64318,2,EL,1,100,1.025812
1558722466.642921,366662.000,64318,2,EL,1,100,1.026617
1558722466.709663,366711.000,64336,2,EL,1,100,1.025610
1558722466.776405,366760.000,64336,2,EL,1,100,1.026013
1558722466.843147,366809.000,64354,2,EL,1,100,1.025610
1558722466.909889,366858.000,64354,2,EL,1,100,1.024805
1558722466.976177,366906.667,64372,3,EL,1,100,1.025208
1558722467.042465,366955.333,64372,3,EL,1,100,1.026013
1558722467.108753,367004.000,64372,3,EL,1,100,1.025812
1558722467.175494,367053.000,64390,2,EL,1,100,1.025812
1558722467.242236,367102.000,64390,2,EL,1,100,1.027222
1558722467.308978,367151.000,64408,2,EL,1,100,1.025208
1558722467.375720,367200.000,64408,2,EL,1,100,1.024402
1558722467.442462,367249.000,64427,2,EL,1,100,1.029034
1558722467.509204,367298.000,64427,2,EL,1,100,1.025610
1558722467.577308,367348.000,64445,2,EL,1,100,1.025409
1558722467.645412,367398.000,64445,2,EL,1,100,1.025208
1558722467.712835,367447.500,64463,2,EL,1,100,1.024603
1558722467.780258,367497.000,64463,2,EL,1,100,1.026215
1558722467.847000,367546.000,64481,2,EL,1,100,1.025812
1558722467.913742,367595.000,64481,2,EL,1,100,1.024402
1558722467.979803,367643.500,64499,2,EL,1,100,1.023999
1558722468.045864,367692.000,64499,2,EL,1,100,1.025409
1558722468.111243,367740.000,64517,2,EL,1,100,1.026215
1558722468.176623,367788.000,64517,2,EL,1,100,1.023999
1558722468.242684,367836.500,64535,2,EL,1,100,1.023596
1558722468.308745,367885.000,64535,2,EL,1,100,1.024603
1558722468.375487,367934.000,64553,2,EL,1,100,1.025610
1558722468.442229,367983.000,64553,2,EL,1,100,1.025208
1558722468.508971,368032.000,64575,3,EL,1,100,1.023999
1558722468.575713,368081.000,64575,3,EL,1,100,1.026013
1558722468.642455,368130.000,64575,3,EL,1,100,1.024805
1558722468.708515,368178.500,64595,2,EL,1,100,1.025610
1558722468.774576,368227.000,64595,2,EL,1,100,1.023596
1558722468.841318,368276.000,64613,3,EL,1,100,1.025610
1558722468.908060,368325.000,64613,3,EL,1,100,1.024402
1558722468.974802,368374.000,64613,3,EL,1,100,1.024805
1558722469.040863,368422.500,64631,2,EL,1,100,1.025409
1558722469.106924,368471.000,64631,2,EL,1,100,1.025409
1558722469.172985,368519.500,64649,2,EL,1,100,1.024200
1558722469.239046,368568.000,64649,2,EL,1,100,1.024402
1558722469.304425,368616.000,64667,2,EL,1,100,1.025208
1558722469.369805,368664.000,64667,2,EL,1,100,1.024200
1558722469.437228,368713.500,64686,2,EL,1,100,1.024603
1558722469.504651,368763.000,64686,2,EL,1,100,1.026215
1558722469.572074,368812.500,64704,2,EL,1,100,1.024200
1558722469.639497,368862.000,64704,2,EL,1,100,1.025812
1558722469.705558,368910.500,64722,2,EL,1,100,1.025208
1558722469.771619,368959.000,64722,2,EL,1,100,1.027222
1558722469.839723,369009.000,64740,2,EL,1,100,1.025208
1558722469.907827,369059.000,64740,2,EL,1,100,1.025610
1558722469.975250,369108.500,64758,2,EL,1,100,1.025610
1558722470.042673,369158.000,64758,2,EL,1,100,1.025812
1558722470.108734,369206.500,64776,2,EL,1,100,1.025208
1558722470.174794,369255.000,64776,2,EL,1,100,1.024402
1558722470.240855,369303.500,64794,2,EL,1,100,1.025208
1558722470.306916,369352.000,64794,2,EL,1,100,1.023798
1558722470.373658,369401.000,64812,2,EL,1,100,1.025006
1558722470.440400,369450.000,64812,2,EL,1,100,1.025208
1558722470.507823,369499.500,64831,2,EL,1,100,1.024603
1558722470.575246,369549.000,64831,2,EL,1,100,1.024805
1558722470.642669,369598.500,64849,2,EL,1,100,1.025409
1558722470.710092,369648.000,64849,2,EL,1,100,1.027624
1558722470.778196,369698.000,64867,2,EL,1,100,1.025610
1558722470.846300,369748.000,64867,2,EL,1,100,1.024603
1558722470.913723,369797.500,64885,2,EL,1,100,1.026819
1558722470.981146,369847.000,64885,2,EL,1,100,1.026617
1558722471.046980,369895.333,64903,3,EL,1,100,1.025610
1558722471.112813,369943.667,64903,3,EL,1,100,1.027222
1558722471.178647,369992.000,64903,3,EL,1,100,1.025006
1558722471.244708,370040.500,64921,2,EL,1,100,1.025208
1558722471.310769,370089.000,64921,2,EL,1,100,1.023999
1558722471.376830,370137.500,64939,2,EL,1,100,1.025610
1558722471.442891,370186.000,64939,2,EL,1,100,1.025006
1558722471.508271,370234.000,64958,2,EL,1,100,1.024402
1558722471.573651,370282.000,64958,2,EL,1,100,1.025208
1558722471.641073,370331.500,64976,2,EL,1,100,1.025208
1558722471.708496,370381.000,64976,2,EL,1,100,1.024200
1558722471.775238,370430.000,64994,2,EL,1,100,1.024603
1558722471.841980,370479.000,64994,2,EL,1,100,1.023999
1558722471.908041,370527.500,65012,2,EL,1,100,1.023999
1558722471.974102,370576.000,65012,2,EL,1,100,1.024805
1558722472.040844,370625.000,65030,2,EL,1,100,1.024402
1558722472.107586,370674.000,65030,2,EL,1,100,1.024200
1558722472.173647,370722.500,65048,2,EL,1,100,1.024200
1558722472.239708,370771.000,65048,2,EL,1,100,1.025610
1558722472.305087,370819.000,65066,2,EL,1,100,1.024805
1558722472.370467,370867.000,65066,2,EL,1,100,1.024402
1558722472.436528,370915.500,65084,2,EL,1,100,1.024200
1558722472.502589,370964.000,65084,2,EL,1,100,1.022388
1558722472.570012,371013.500,65103,2,EL,1,100,1.023395
1558722472.637435,371063.000,65103,2,EL,1,100,1.023193
1558722472.703496,371111.500,65121,2,EL,1,100,1.023395
1558722472.769557,371160.000,65121,2,EL,1,100,1.023596
1558722472.837661,371210.000,65139,2,EL,1,100,1.023596
1558722472.905765,371260.000,65139,2,EL,1,100,1.023395
1558722472.972507,371309.000,65157,3,EL,1,100,1.024402
1558722473.039248,371358.000,65157,3,EL,1,100,1.022388
1558722473.105990,371407.000,65157,3,EL,1,100,1.022791
1558722473.172732,371456.000,65175,2,EL,1,100,1.023395
1558722473.239474,371505.000,65175,2,EL,1,100,1.023798
1558722473.305535,371553.500,65193,2,EL,1,100,1.024200
1558722473.371596,371602.000,65193,2,EL,1,100,1.021985
1558722473.437657,371650.500,65211,2,EL,1,100,1.024200
1558722473.503718,371699.000,65211,2,EL,1,100,1.022791
1558722473.571141,371748.500,65230,2,EL,1,100,1.022791
1558722473.638564,371798.000,65230,2,EL,1,100,1.021179
1558722473.705986,371847.500,65248,2,EL,1,100,1.022589
1558722473.773410,371897.000,65248,2,EL,1,100,1.021985
1558722473.840832,371946.500,65266,2,EL,1,100,1.022791
1558722473.908256,371996.000,65266,2,EL,1,100,1.022186
1558722473.976359,372046.000,65284,2,EL,1,100,1.021985
1558722474.044463,372096.000,65284,2,EL,1,100,1.024603
1558722474.110524,372144.500,65302,2,EL,1,100,1.022589
1558722474.176585,372193.000,65302,2,EL,1,100,1.022791
1558722474.242646,372241.500,65320,2,EL,1,100,1.022992
1558722474.308707,372290.000,65320,2,EL,1,100,1.021582
1558722474.374768,372338.500,65338,2,EL,1,100,1.022992
1558722474.440829,372387.000,65338,2,EL,1,100,1.022791
1558722474.506209,372435.000,65357,2,EL,1,100,1.023193
1558722474.571588,372483.000,65357,2,EL,1,100,1.022992
1558722474.639011,372532.500,65375,2,EL,1,100,1.022589
1558722474.706434,372582.000,65375,2,EL,1,100,1.021381
1558722474.773176,372631.000,65393,2,EL,1,100,1.022992
1558722474.839918,372680.000,65393,2,EL,1,100,1.021783
1558722474.905979,372728.500,65411,2,EL,1,100,1.023193
1558722474.972040,372777.000,65411,2,EL,1,100,1.021179
1558722475.039463,372826.500,65429,2,EL,1,100,1.023193
1558722475.106886,372876.000,65429,2,EL,1,100,1.021783
1558722475.172720,372924.333,65447,3,EL,1,100,1.022589
1558722475.238554,372972.667,65447,3,EL,1,100,1.021582
1558722475.304387,373021.000,65447,3,EL,1,100,1.022186
1558722475.370448,373069.500,65465,2,EL,1,100,1.022186
1558722475.436509,373118.000,65465,2,EL,1,100,1.023395
1558722475.502343,373166.333,65486,3,EL,1,100,1.022388
1558722475.568177,373214.667,65486,3,EL,1,100,1.023193
1558722475.634011,373263.000,65486,3,EL,1,100,1.022791
1558722475.700072,373311.500,65507,2,EL,1,100,1.023596
1558722475.766132,373360.000,65507,2,EL,1,100,1.021985
1558722475.834236,373410.000,65525,2,EL,1,100,1.022992
1558722475.902340,373460.000,65525,2,EL,1,100,1.021582
1558722475.969764,373509.500,7,2,EL,1,100,1.022388
1558722476.037186,373559.000,7,2,EL,1,100,1.023193
1558722476.103247,373607.500,25,2,EL,1,100,1.023193
1558722476.169308,373656.000,25,2,EL,1,100,1.022388
1558722476.236050,373705.000,43,2,EL,1,100,1.021783
1558722476.302792,373754.000,43,2,EL,1,100,1.022388
1558722476.369534,373803.000,61,2,EL,1,100,1.022589
1558722476.436276,373852.000,61,2,EL,1,100,1.022589
1558722476.503018,373901.000,79,2,EL,1,100,1.022589
1558722476.569760,373950.000,79,2,EL,1,100,1.022589
1558722476.635139,373998.000,98,2,EL,1,100,1.022992
1558722476.700519,374046.000,98,2,EL,1,100,1.021985
1558722476.767715,374095.333,116,3,EL,1,100,1.023193
1558722476.834911,374144.667,116,3,EL,1,100,1.022992
1558722476.902107,374194.000,116,3,EL,1,100,1.022992
1558722476.970211,374244.000,134,2,EL,1,100,1.023596
1558722477.038315,374294.000,134,2,EL,1,100,1.022388
1558722477.105738,374343.500,152,2,EL,1,100,1.023999
1558722477.173161,374393.000,152,2,EL,1,100,1.023193
1558722477.239903,374442.000,170,2,EL,1,100,1.023395
1558722477.306645,374491.000,170,2,EL,1,100,1.023999
1558722477.372706,374539.500,188,2,EL,1,100,1.022589
1558722477.438766,374588.000,188,2,EL,1,100,1.023999
1558722477.505508,374637.000,206,2,EL,1,100,1.023395
1558722477.572250,374686.000,206,2,EL,1,100,1.023596
1558722477.638311,374734.500,225,2,EL,1,100,1.022992
1558722477.704372,374783.000,225,2,EL,1,100,1.024200
1558722477.771114,374832.000,243,2,EL,1,100,1.023999
1558722477.837856,374881.000,243,2,EL,1,100,1.022992
1558722477.904598,374930.000,261,2,EL,1,100,1.023596
1558722477.971340,374979.000,261,2,EL,1,100,1.023193
1558722478.038082,375028.000,279,2,EL,1,100,1.025208
1558722478.104824,375077.000,279,2,EL,1,100,1.022791
1558722478.171566,375126.000,297,2,EL,1,100,1.022791
1558722478.238307,375175.000,297,2,EL,1,100,1.022992
1558722478.305049,375224.000,315,2,EL,1,100,1.023798
1558722478.371791,375273.000,315,2,EL,1,100,1.023193
1558722478.437171,375321.000,333,2,EL,1,100,1.023596
1558722478.502551,375369.000,333,2,EL,1,100,1.022791
1558722478.568612,375417.500,352,2,EL,1,100,1.023193
1558722478.634673,375466.000,352,2,EL,1,100,1.022388
1558722478.700734,375514.500,370,2,EL,1,100,1.023596
1558722478.766794,375563.000,370,2,EL,1,100,1.023596
1558722478.832855,375611.500,388,2,EL,1,100,1.022589
1558722478.898916,375660.000,388,2,EL,1,100,1.024603
1558722478.966112,375709.333,406,3,EL,1,100,1.022992
1558722479.033308,375758.667,406,3,EL,1,100,1.024402
1558722479.100504,375808.000,406,3,EL,1,100,1.024603
1558722479.167927,375857.500,424,2,EL,1,100,1.023798
1558722479.235350,375907.000,424,2,EL,1,100,1.023395
1558722479.302773,375956.500,442,2,EL,1,100,1.024200
1558722479.370196,376006.000,442,2,EL,1,100,1.024402
1558722479.435576,376054.000,460,2,EL,1,100,1.023193
1558722479.500956,376102.000,460,2,EL,1,100,1.022992
1558722479.567698,376151.000,478,2,EL,1,100,1.023999
1558722479.634439,376200.000,478,2,EL,1,100,1.023193
1558722479.701181,376249.000,497,2,EL,1,100,1.022992
1558722479.767923,376298.000,497,2,EL,1,100,1.022589
1558722479.833303,376346.000,515,2,EL,1,100,1.023596
1558722479.898683,376394.000,515,2,EL,1,100,1.025006
1558722479.966787,376444.000,533,2,EL,1,100,1.025208
1558722480.034891,376494.000,533,2,EL,1,100,1.022388
1558722480.102314,376543.500,551,2,EL,1,100,1.023798
1558722480.169737,376593.000,551,2,EL,1,100,1.025006
1558722480.235798,376641.500,569,2,EL,1,100,1.023798
1558722480.301858,376690.000,569,2,EL,1,100,1.022388
1558722480.368600,376739.000,587,2,EL,1,100,1.024805
1558722480.435342,376788.000,587,2,EL,1,100,1.023596
1558722480.502084,376837.000,605,2,EL,1,100,1.024603
1558722480.568826,376886.000,605,2,EL,1,100,1.023798
1558722480.634887,376934.500,624,2,EL,1,100,1.023999
1558722480.700948,376983.000,624,2,EL,1,100,1.022589
1558722480.767009,377031.500,642,2,EL,1,100,1.024603
1558722480.833070,377080.000,642,2,EL,1,100,1.023596
1558722480.899812,377129.000,660,2,EL,1,100,1.024200
1558722480.966553,377178.000,660,2,EL,1,100,1.023798
1558722481.033295,377227.000,678,3,EL,1,100,1.023999
1558722481.100037,377276.000,678,3,EL,1,100,1.024805
1558722481.166779,377325.000,678,3,EL,1,100,1.024603
1558722481.233521,377374.000,696,2,EL,1,100,1.024805
1558722481.300263,377423.000,696,2,EL,1,100,1.023395
1558722481.367005,377472.000,714,2,EL,1,100,1.024805
1558722481.433747,377521.000,714,2,EL,1,100,1.024200
1558722481.499808,377569.500,732,2,EL,1,100,1.023395
1558722481.565869,377618.000,732,2,EL,1,100,1.022791
1558722481.631248,377666.000,751,2,EL,1,100,1.024200
1558722481.696628,377714.000,751,2,EL,1,100,1.022992
1558722481.762689,377762.500,769,2,EL,1,100,1.024805
1558722481.828750,377811.000,769,2,EL,1,100,1.024805
1558722481.895492,377860.000,787,2,EL,1,100,1.022992
1558722481.962234,377909.000,787,2,EL,1,100,1.025409
1558722482.028976,377958.000,805,2,EL,1,100,1.025812
1558722482.095718,378007.000,805,2,EL,1,100,1.024200
1558722482.163141,378056.500,823,2,EL,1,100,1.023193
1558722482.230564,378106.000,823,2,EL,1,100,1.024402
1558722482.298668,378156.000,841,2,EL,1,100,1.025610
1558722482.366772,378206.000,841,2,EL,1,100,1.023999
1558722482.433514,378255.000,862,3,EL,1,100,1.024603
1558722482.500256,378304.000,862,3,EL,1,100,1.024805
1558722482.566997,378353.000,862,3,EL,1,100,1.025812
1558722482.632377,378401.000,883,2,EL,1,100,1.025006
1558722482.697757,378449.000,883,2,EL,1,100,1.025006
1558722482.764499,378498.000,901,2,EL,1,100,1.026416
1558722482.831241,378547.000,901,2,EL,1,100,1.025006
1558722482.898437,378596.333,919,3,EL,1,100,1.026215
1558722482.965633,378645.667,919,3,EL,1,100,1.026013
1558722483.032829,378695.000,919,3,EL,1,100,1.026416
1558722483.100252,378744.500,937,2,EL,1,100,1.025006
1558722483.167675,378794.000,937,2,EL,1,100,1.025208
1558722483.233736,378842.500,955,2,EL,1,100,1.026617
1558722483.299796,378891.000,955,2,EL,1,100,1.025006
1558722483.367900,378941.000,973,2,EL,1,100,1.026819
1558722483.436004,378991.000,973,2,EL,1,100,1.025006
1558722483.502746,379040.000,991,2,EL,1,100,1.028027
1558722483.569488,379089.000,991,2,EL,1,100,1.025006
1558722483.635549,379137.500,1009,2,EL,1,100,1.028027
1558722483.701610,379186.000,1009,2,EL,1,100,1.025006
1558722483.767671,379234.500,1028,2,EL,1,100,1.025610
1558722483.833732,379283.000,1028,2,EL,1,100,1.027020
1558722483.900474,379332.000,1046,2,EL,1,100,1.026416
1558722483.967216,379381.000,1046,2,EL,1,100,1.025812
1558722484.034638,379430.500,1064,2,EL,1,100,1.027020
1558722484.102062,379480.000,1064,2,EL,1,100,1.026819
1558722484.168803,379529.000,1082,2,EL,1,100,1.025208
1558722484.235545,379578.000,1082,2,EL,1,100,1.026013
1558722484.302968,379627.500,1100,2,EL,1,100,1.026819
1558722484.370391,379677.000,1100,2,EL,1,100,1.026416
1558722484.437814,379726.500,1118,2,EL,1,100,1.026416
1558722484.505237,379776.000,1118,2,EL,1,100,1.026617
1558722484.571298,379824.500,1136,2,EL,1,100,1.026215
1558722484.637359,379873.000,1136,2,EL,1,100,1.025208
1558722484.703420,379921.500,1155,2,EL,1,100,1.025006
1558722484.769480,379970.000,1155,2,EL,1,100,1.025610
1558722484.834860,380018.000,1173,2,EL,1,100,1.025409
1558722484.900240,380066.000,1173,2,EL,1,100,1.026617
1558722484.966982,380115.000,1191,2,EL,1,100,1.025006
1558722485.033724,380164.000,1191,2,EL,1,100,1.026416
1558722485.100466,380213.000,1209,3,EL,1,100,1.024805
1558722485.167208,380262.000,1209,3,EL,1,100,1.023193
1558722485.233950,380311.000,1209,3,EL,1,100,1.023798
1558722485.300692,380360.000,1227,2,EL,1,100,1.024402
1558722485.367434,380409.000,1227,2,EL,1,100,1.025208
1558722485.433495,380457.500,1245,2,EL,1,100,1.023999
1558722485.499555,380506.000,1245,2,EL,1,100,1.023596
1558722485.566978,380555.500,1263,2,EL,1,100,1.022589
1558722485.634401,380605.000,1263,2,EL,1,100,1.022992
1558722485.700462,380653.500,1282,2,EL,1,100,1.022992
1558722485.766523,380702.000,1282,2,EL,1,100,1.022589
1558722485.831903,380750.000,1300,2,EL,1,100,1.022791
1558722485.897283,380798.000,1300,2,EL,1,100,1.021783
1558722485.963344,380846.500,1318,2,EL,1,100,1.021381
1558722486.029404,380895.000,1318,2,EL,1,100,1.021381
1558722486.096828,380944.500,1336,2,EL,1,100,1.021179
1558722486.164250,380994.000,1336,2,EL,1,100,1.018964
1558722486.230311,381042.500,1354,2,EL,1,100,1.019568
1558722486.296372,381091.000,1354,2,EL,1,100,1.019769
1558722486.364476,381141.000,1372,2,EL,1,100,1.019769
1558722486.432580,381191.000,1372,2,EL,1,100,1.017755
1558722486.500003,381240.500,1390,2,EL,1,100,1.018561
1558722486.567426,381290.000,1390,2,EL,1,100,1.017755
1558722486.633487,381338.500,1408,2,EL,1,100,1.015942
1558722486.699548,381387.000,1408,2,EL,1,100,1.018359
1558722486.765609,381435.500,1427,2,EL,1,100,1.016144
1558722486.831670,381484.000,1427,2,EL,1,100,1.015540
1558722486.898412,381533.000,1445,2,EL,1,100,1.016345
1558722486.965153,381582.000,1445,2,EL,1,100,1.015540
1558722487.031214,381630.500,1463,2,EL,1,100,1.014734
1558722487.097275,381679.000,1463,2,EL,1,100,1.016144
