EpochTimestamp,EmotiBitTimestamp,PacketNumber,DataLength,TypeTag,ProtocolVersion,DataReliability,GX
1558723109.071197,33972.000,5113,36,GX,1,100,-0.443
1558723109.071197,33972.000,5113,36,GX,1,100,-0.305
1558723109.071197,33972.000,5113,36,GX,1,100,-0.565
1558723109.071197,33972.000,5113,36,GX,1,100,-0.748
1558723109.071197,33972.000,5113,36,GX,1,100,-0.397
1558723109.071197,33972.000,5113,36,GX,1,100,-0.137
1558723109.071197,33972.000,5113,36,GX,1,100,0.198
1558723109.071197,33972.000,5113,36,GX,1,100,0.000
1558723109.071197,33972.000,5113,36,GX,1,100,0.061
1558723109.071197,33972.000,5113,36,GX,1,100,-0.137
1558723109.071197,33972.000,5113,36,GX,1,100,-1.236
1558723109.071197,33972.000,5113,36,GX,1,100,-0.519
1558723109.071197,33972.000,5113,36,GX,1,100,-0.565
1558723109.071197,33972.000,5113,36,GX,1,100,0.229
1558723109.071197,33972.000,5113,36,GX,1,100,-0.763
1558723109.071197,33972.000,5113,36,GX,1,100,-0.931
1558723109.071197,33972.000,5113,36,GX,1,100,-0.732
1558723109.071197,33972.000,5113,36,GX,1,100,-0.412
1558723109.071197,33972.000,5113,36,GX,1,100,0.305
1558723109.071197,33972.000,5113,36,GX,1,100,0.565
1558723109.071197,33972.000,5113,36,GX,1,100,0.397
1558723109.071197,33972.000,5113,36,GX,1,100,0.427
1558723109.071197,33972.000,5113,36,GX,1,100,-0.244
1558723109.071197,33972.000,5113,36,GX,1,100,-0.229
1558723109.071197,33972.000,5113,36,GX,1,100,-0.412
1558723109.071197,33972.000,5113,36,GX,1,100,-0.336
1558723109.071197,33972.000,5113,36,GX,1,100,-0.534
1558723109.071197,33972.000,5113,36,GX,1,100,0.076
1558723109.071197,33972.000,5113,36,GX,1,100,-0.702
1558723109.071197,33972.000,5113,36,GX,1,100,-0.397
1558723109.071197,33972.000,5113,36,GX,1,100,-0.183
1558723109.071197,33972.000,5113,36,GX,1,100,-0.473
1558723109.071197,33972.000,5113,36,GX,1,100,-0.122
1558723109.071197,33972.000,5113,36,GX,1,100,-0.351
1558723109.071197,33972.000,5113,36,GX,1,100,-0.092
1558723109.071197,33972.000,5113,36,GX,1,100,0.473
1558723109.088054,33984.375,5131,16,GX,1,100,-0.885
1558723109.104911,33996.750,5131,16,GX,1,100,-0.397
1558723109.121768,34009.125,5131,16,GX,1,100,-0.519
1558723109.138625,34021.500,5131,16,GX,1,100,-0.244
1558723109.155482,34033.875,5131,16,GX,1,100,-0.336
1558723109.172339,34046.250,5131,16,GX,1,100,0.168
1558723109.189196,34058.625,5131,16,GX,1,100,0.107
1558723109.206053,34071.000,5131,16,GX,1,100,0.183
1558723109.222910,34083.375,5131,16,GX,1,100,-0.824
1558723109.239767,34095.750,5131,16,GX,1,100,-0.443
1558723109.256624,34108.125,5131,16,GX,1,100,-0.397
1558723109.273481,34120.500,5131,16,GX,1,100,-0.290
1558723109.290338,34132.875,5131,16,GX,1,100,-0.717
1558723109.307195,34145.250,5131,16,GX,1,100,-0.275
1558723109.324052,34157.625,5131,16,GX,1,100,-0.046
1558723109.340909,34170.000,5131,16,GX,1,100,-0.305
1558723109.357645,34182.286,5150,7,GX,1,100,-0.443
1558723109.374380,34194.571,5150,7,GX,1,100,-0.732
1558723109.391115,34206.857,5150,7,GX,1,100,-0.534
1558723109.407851,34219.143,5150,7,GX,1,100,-0.244
1558723109.424586,34231.429,5150,7,GX,1,100,0.320
1558723109.441322,34243.714,5150,7,GX,1,100,0.244
1558723109.458057,34256.000,5150,7,GX,1,100,-0.626
1558723109.475084,34268.500,5168,8,GX,1,100,-0.366
1558723109.492111,34281.000,5168,8,GX,1,100,-0.458
1558723109.509139,34293.500,5168,8,GX,1,100,0.122
1558723109.526166,34306.000,5168,8,GX,1,100,-0.504
1558723109.543193,34318.500,5168,8,GX,1,100,-0.290
1558723109.560221,34331.000,5168,8,GX,1,100,-0.610
1558723109.577248,34343.500,5168,8,GX,1,100,-0.015
1558723109.594275,34356.000,5168,8,GX,1,100,-0.183
1558723109.611132,34368.375,5186,8,GX,1,100,-0.320
1558723109.627989,34380.750,5186,8,GX,1,100,-0.473
1558723109.644846,34393.125,5186,8,GX,1,100,-0.397
1558723109.661703,34405.500,5186,8,GX,1,100,-0.397
1558723109.678560,34417.875,5186,8,GX,1,100,-0.504
1558723109.695417,34430.250,5186,8,GX,1,100,0.031
1558723109.712275,34442.625,5186,8,GX,1,100,-0.580
1558723109.729131,34455.000,5186,8,GX,1,100,0.290
1558723109.745478,34467.000,5204,8,GX,1,100,-0.168
1558723109.761824,34479.000,5204,8,GX,1,100,-0.961
1558723109.778170,34491.000,5204,8,GX,1,100,-0.671
1558723109.794516,34503.000,5204,8,GX,1,100,-0.870
1558723109.810863,34515.000,5204,8,GX,1,100,-0.626
1558723109.827209,34527.000,5204,8,GX,1,100,0.412
1558723109.843555,34539.000,5204,8,GX,1,100,0.443
1558723109.859901,34551.000,5204,8,GX,1,100,-0.275
1558723109.876399,34563.111,5222,9,GX,1,100,-0.580
1558723109.892896,34575.222,5222,9,GX,1,100,-0.626
1558723109.909394,34587.333,5222,9,GX,1,100,0.137
1558723109.925891,34599.444,5222,9,GX,1,100,0.107
1558723109.942389,34611.556,5222,9,GX,1,100,0.687
1558723109.958887,34623.667,5222,9,GX,1,100,-0.366
1558723109.975384,34635.778,5222,9,GX,1,100,0.198
1558723109.991882,34647.889,5222,9,GX,1,100,-0.366
1558723110.008379,34660.000,5222,9,GX,1,100,-0.610
1558723110.024896,34672.125,5240,8,GX,1,100,-0.198
1558723110.041412,34684.250,5240,8,GX,1,100,-0.458
1558723110.057929,34696.375,5240,8,GX,1,100,-0.397
1558723110.074445,34708.500,5240,8,GX,1,100,-0.275
1558723110.090962,34720.625,5240,8,GX,1,100,-0.443
1558723110.107478,34732.750,5240,8,GX,1,100,-0.671
1558723110.123995,34744.875,5240,8,GX,1,100,-0.610
1558723110.140511,34757.000,5240,8,GX,1,100,-0.320
1558723110.157198,34769.250,5258,8,GX,1,100,-0.351
1558723110.173885,34781.500,5258,8,GX,1,100,-0.198
1558723110.190571,34793.750,5258,8,GX,1,100,-0.427
1558723110.207258,34806.000,5258,8,GX,1,100,-0.412
1558723110.223945,34818.250,5258,8,GX,1,100,-0.290
1558723110.240632,34830.500,5258,8,GX,1,100,0.000
1558723110.257318,34842.750,5258,8,GX,1,100,-0.107
1558723110.274005,34855.000,5258,8,GX,1,100,-0.183
1558723110.290692,34867.250,5277,8,GX,1,100,-0.366
1558723110.307379,34879.500,5277,8,GX,1,100,-0.320
1558723110.324065,34891.750,5277,8,GX,1,100,-0.748
1558723110.340752,34904.000,5277,8,GX,1,100,-0.229
1558723110.357439,34916.250,5277,8,GX,1,100,-0.320
1558723110.374126,34928.500,5277,8,GX,1,100,0.198
1558723110.390812,34940.750,5277,8,GX,1,100,-0.153
1558723110.407499,34953.000,5277,8,GX,1,100,-0.473
1558723110.424299,34965.333,5295,9,GX,1,100,0.183
1558723110.441100,34977.667,5295,9,GX,1,100,-0.229
1558723110.457900,34990.000,5295,9,GX,1,100,-0.534
1558723110.474700,35002.333,5295,9,GX,1,100,-0.793
1558723110.491500,35014.667,5295,9,GX,1,100,-0.107
1558723110.508301,35027.000,5295,9,GX,1,100,-0.183
1558723110.525101,35039.333,5295,9,GX,1,100,0.153
1558723110.541901,35051.667,5295,9,GX,1,100,-0.443
1558723110.558702,35064.000,5295,9,GX,1,100,-0.214
1558723110.575388,35076.250,5313,8,GX,1,100,-0.854
1558723110.592075,35088.500,5313,8,GX,1,100,-0.107
1558723110.608762,35100.750,5313,8,GX,1,100,-0.076
1558723110.625448,35113.000,5313,8,GX,1,100,0.244
1558723110.642135,35125.250,5313,8,GX,1,100,-0.305
1558723110.658822,35137.500,5313,8,GX,1,100,-0.595
1558723110.675509,35149.750,5313,8,GX,1,100,-0.320
1558723110.692196,35162.000,5313,8,GX,1,100,-0.122
1558723110.708542,35174.000,5331,8,GX,1,100,-0.137
1558723110.724888,35186.000,5331,8,GX,1,100,-0.320
1558723110.741234,35198.000,5331,8,GX,1,100,-0.824
1558723110.757580,35210.000,5331,8,GX,1,100,-0.290
1558723110.773926,35222.000,5331,8,GX,1,100,0.061
1558723110.790273,35234.000,5331,8,GX,1,100,-0.137
1558723110.806619,35246.000,5331,8,GX,1,100,-0.687
1558723110.822965,35258.000,5331,8,GX,1,100,-1.251
1558723110.839311,35270.000,5349,9,GX,1,100,-0.671
1558723110.855658,35282.000,5349,9,GX,1,100,-0.183
1558723110.872004,35294.000,5349,9,GX,1,100,0.290
1558723110.888350,35306.000,5349,9,GX,1,100,-1.160
1558723110.904696,35318.000,5349,9,GX,1,100,-0.900
1558723110.921042,35330.000,5349,9,GX,1,100,-0.549
1558723110.937389,35342.000,5349,9,GX,1,100,-0.519
1558723110.953735,35354.000,5349,9,GX,1,100,-0.504
1558723110.970081,35366.000,5349,9,GX,1,100,-0.732
1558723110.986598,35378.125,5367,8,GX,1,100,-0.153
1558723111.003114,35390.250,5367,8,GX,1,100,-1.465
1558723111.019630,35402.375,5367,8,GX,1,100,-0.732
1558723111.036147,35414.500,5367,8,GX,1,100,-1.205
1558723111.052664,35426.625,5367,8,GX,1,100,-0.580
1558723111.069180,35438.750,5367,8,GX,1,100,-0.229
1558723111.085696,35450.875,5367,8,GX,1,100,0.336
1558723111.102213,35463.000,5367,8,GX,1,100,-0.092
1558723111.118729,35475.125,5385,8,GX,1,100,-0.061
1558723111.135246,35487.250,5385,8,GX,1,100,0.595
1558723111.151762,35499.375,5385,8,GX,1,100,0.458
1558723111.168279,35511.500,5385,8,GX,1,100,-0.046
1558723111.184795,35523.625,5385,8,GX,1,100,0.351
1558723111.201312,35535.750,5385,8,GX,1,100,1.282
1558723111.217828,35547.875,5385,8,GX,1,100,0.259
1558723111.234345,35560.000,5385,8,GX,1,100,-0.473
1558723111.251236,35572.400,5407,15,GX,1,100,-0.748
1558723111.268127,35584.800,5407,15,GX,1,100,-0.748
1558723111.285018,35597.200,5407,15,GX,1,100,0.366
1558723111.301909,35609.600,5407,15,GX,1,100,1.572
1558723111.318800,35622.000,5407,15,GX,1,100,0.305
1558723111.335691,35634.400,5407,15,GX,1,100,0.107
1558723111.352582,35646.800,5407,15,GX,1,100,2.914
1558723111.369473,35659.200,5407,15,GX,1,100,0.961
1558723111.386364,35671.600,5407,15,GX,1,100,5.661
1558723111.403255,35684.000,5407,15,GX,1,100,3.189
1558723111.420147,35696.400,5407,15,GX,1,100,4.013
1558723111.437038,35708.800,5407,15,GX,1,100,3.738
1558723111.453929,35721.200,5407,15,GX,1,100,0.992
1558723111.470820,35733.600,5407,15,GX,1,100,3.342
1558723111.487711,35746.000,5407,15,GX,1,100,1.663
1558723111.504446,35758.286,5427,7,GX,1,100,2.396
1558723111.521182,35770.571,5427,7,GX,1,100,1.678
1558723111.537917,35782.857,5427,7,GX,1,100,1.785
1558723111.554652,35795.143,5427,7,GX,1,100,2.487
1558723111.571388,35807.429,5427,7,GX,1,100,1.907
1558723111.588123,35819.714,5427,7,GX,1,100,-0.076
1558723111.604859,35832.000,5427,7,GX,1,100,-0.443
1558723111.621375,35844.125,5445,8,GX,1,100,5.447
1558723111.637892,35856.250,5445,8,GX,1,100,3.967
1558723111.654408,35868.375,5445,8,GX,1,100,2.014
1558723111.670925,35880.500,5445,8,GX,1,100,-0.809
1558723111.687441,35892.625,5445,8,GX,1,100,-0.504
1558723111.703958,35904.750,5445,8,GX,1,100,-0.229
1558723111.720474,35916.875,5445,8,GX,1,100,0.580
1558723111.736991,35929.000,5445,8,GX,1,100,-0.259
1558723111.753507,35941.125,5463,8,GX,1,100,-0.168
1558723111.770024,35953.250,5463,8,GX,1,100,-0.183
1558723111.786540,35965.375,5463,8,GX,1,100,-0.198
1558723111.803056,35977.500,5463,8,GX,1,100,-0.763
1558723111.819573,35989.625,5463,8,GX,1,100,0.534
1558723111.836089,36001.750,5463,8,GX,1,100,0.092
1558723111.852606,36013.875,5463,8,GX,1,100,-0.641
1558723111.869123,36026.000,5463,8,GX,1,100,-1.068
1558723111.885771,36038.222,5481,9,GX,1,100,-0.595
1558723111.902420,36050.444,5481,9,GX,1,100,0.290
1558723111.919069,36062.667,5481,9,GX,1,100,-0.275
1558723111.935718,36074.889,5481,9,GX,1,100,-0.397
1558723111.952367,36087.111,5481,9,GX,1,100,-1.129
1558723111.969016,36099.333,5481,9,GX,1,100,-0.671
1558723111.985665,36111.556,5481,9,GX,1,100,0.702
1558723112.002314,36123.778,5481,9,GX,1,100,0.351
1558723112.018963,36136.000,5481,9,GX,1,100,0.885
1558723112.035649,36148.250,5499,8,GX,1,100,0.458
1558723112.052336,36160.500,5499,8,GX,1,100,-0.290
1558723112.069023,36172.750,5499,8,GX,1,100,-0.931
1558723112.085710,36185.000,5499,8,GX,1,100,-0.031
1558723112.102396,36197.250,5499,8,GX,1,100,0.534
1558723112.119083,36209.500,5499,8,GX,1,100,-0.168
1558723112.135770,36221.750,5499,8,GX,1,100,-0.397
1558723112.152457,36234.000,5499,8,GX,1,100,-0.565
1558723112.168954,36246.111,5517,9,GX,1,100,-0.702
1558723112.185452,36258.222,5517,9,GX,1,100,-0.092
1558723112.201949,36270.333,5517,9,GX,1,100,-0.198
1558723112.218447,36282.444,5517,9,GX,1,100,-0.595
1558723112.234945,36294.556,5517,9,GX,1,100,0.137
1558723112.251442,36306.667,5517,9,GX,1,100,-0.748
1558723112.267940,36318.778,5517,9,GX,1,100,0.656
1558723112.284437,36330.889,5517,9,GX,1,100,0.153
1558723112.300935,36343.000,5517,9,GX,1,100,0.488
1558723112.317792,36355.375,5536,8,GX,1,100,-0.549
1558723112.334649,36367.750,5536,8,GX,1,100,-1.114
1558723112.351506,36380.125,5536,8,GX,1,100,-0.427
1558723112.368363,36392.500,5536,8,GX,1,100,0.168
1558723112.385220,36404.875,5536,8,GX,1,100,0.427
1558723112.402077,36417.250,5536,8,GX,1,100,0.137
1558723112.418934,36429.625,5536,8,GX,1,100,-1.099
1558723112.435791,36442.000,5536,8,GX,1,100,-0.687
1558723112.452648,36454.375,5554,8,GX,1,100,-0.946
1558723112.469505,36466.750,5554,8,GX,1,100,-0.320
1558723112.486362,36479.125,5554,8,GX,1,100,0.793
1558723112.503219,36491.500,5554,8,GX,1,100,-0.626
1558723112.520076,36503.875,5554,8,GX,1,100,-0.717
1558723112.536933,36516.250,5554,8,GX,1,100,-1.266
1558723112.553790,36528.625,5554,8,GX,1,100,-0.183
1558723112.570647,36541.000,5554,8,GX,1,100,-0.687
1558723112.587334,36553.250,5572,8,GX,1,100,-0.015
1558723112.604021,36565.500,5572,8,GX,1,100,-0.885
1558723112.620707,36577.750,5572,8,GX,1,100,-0.595
1558723112.637394,36590.000,5572,8,GX,1,100,-0.122
1558723112.654081,36602.250,5572,8,GX,1,100,-0.626
1558723112.670768,36614.500,5572,8,GX,1,100,-0.366
1558723112.687454,36626.750,5572,8,GX,1,100,-0.671
1558723112.704141,36639.000,5572,8,GX,1,100,-0.336
1558723112.721169,36651.500,5590,8,GX,1,100,-0.977
1558723112.738196,36664.000,5590,8,GX,1,100,0.519
1558723112.755223,36676.500,5590,8,GX,1,100,0.153
1558723112.772250,36689.000,5590,8,GX,1,100,0.168
1558723112.789278,36701.500,5590,8,GX,1,100,-0.214
1558723112.806305,36714.000,5590,8,GX,1,100,0.046
1558723112.823332,36726.500,5590,8,GX,1,100,-0.534
1558723112.840359,36739.000,5590,8,GX,1,100,-0.961
1558723112.856857,36751.111,5608,9,GX,1,100,-1.221
1558723112.873355,36763.222,5608,9,GX,1,100,-0.748
1558723112.889852,36775.333,5608,9,GX,1,100,0.519
1558723112.906350,36787.444,5608,9,GX,1,100,0.595
1558723112.922847,36799.556,5608,9,GX,1,100,0.320
1558723112.939345,36811.667,5608,9,GX,1,100,-0.427
1558723112.955842,36823.778,5608,9,GX,1,100,-1.099
1558723112.972340,36835.889,5608,9,GX,1,100,-0.763
1558723112.988837,36848.000,5608,9,GX,1,100,-0.107
1558723113.005695,36860.375,5626,8,GX,1,100,-0.549
1558723113.022552,36872.750,5626,8,GX,1,100,0.305
1558723113.039409,36885.125,5626,8,GX,1,100,-0.183
1558723113.056266,36897.500,5626,8,GX,1,100,-0.610
1558723113.073123,36909.875,5626,8,GX,1,100,-0.687
1558723113.089980,36922.250,5626,8,GX,1,100,0.397
1558723113.106837,36934.625,5626,8,GX,1,100,0.183
1558723113.123694,36947.000,5626,8,GX,1,100,2.014
1558723113.140040,36959.000,5644,8,GX,1,100,1.602
1558723113.156386,36971.000,5644,8,GX,1,100,1.465
1558723113.172732,36983.000,5644,8,GX,1,100,0.366
1558723113.189079,36995.000,5644,8,GX,1,100,0.351
1558723113.205425,37007.000,5644,8,GX,1,100,-0.916
1558723113.221771,37019.000,5644,8,GX,1,100,-0.397
1558723113.238117,37031.000,5644,8,GX,1,100,-0.412
1558723113.254463,37043.000,5644,8,GX,1,100,-0.809
1558723113.271320,37055.375,5663,8,GX,1,100,-0.977
1558723113.288177,37067.750,5663,8,GX,1,100,-0.671
1558723113.305034,37080.125,5663,8,GX,1,100,-1.297
1558723113.321892,37092.500,5663,8,GX,1,100,-0.931
1558723113.338748,37104.875,5663,8,GX,1,100,-0.793
1558723113.355606,37117.250,5663,8,GX,1,100,-0.854
1558723113.372463,37129.625,5663,8,GX,1,100,-0.717
1558723113.389320,37142.000,5663,8,GX,1,100,-0.900
1558723113.405817,37154.111,5681,9,GX,1,100,-1.999
1558723113.422315,37166.222,5681,9,GX,1,100,-1.404
1558723113.438812,37178.333,5681,9,GX,1,100,-1.053
1558723113.455310,37190.444,5681,9,GX,1,100,-0.763
1558723113.471807,37202.556,5681,9,GX,1,100,-0.900
1558723113.488305,37214.667,5681,9,GX,1,100,-1.068
1558723113.504802,37226.778,5681,9,GX,1,100,-0.977
1558723113.521300,37238.889,5681,9,GX,1,100,-1.465
1558723113.537798,37251.000,5681,9,GX,1,100,-1.129
1558723113.554995,37263.625,5699,8,GX,1,100,-1.541
1558723113.572193,37276.250,5699,8,GX,1,100,-1.251
1558723113.589390,37288.875,5699,8,GX,1,100,-0.336
1558723113.606588,37301.500,5699,8,GX,1,100,-0.778
1558723113.623785,37314.125,5699,8,GX,1,100,-0.290
1558723113.640983,37326.750,5699,8,GX,1,100,-0.671
1558723113.658181,37339.375,5699,8,GX,1,100,-1.007
1558723113.675378,37352.000,5699,8,GX,1,100,-1.709
1558723113.692235,37364.375,5717,8,GX,1,100,0.000
1558723113.709092,37376.750,5717,8,GX,1,100,0.519
1558723113.725949,37389.125,5717,8,GX,1,100,0.610
1558723113.742806,37401.500,5717,8,GX,1,100,0.122
1558723113.759663,37413.875,5717,8,GX,1,100,0.595
1558723113.776520,37426.250,5717,8,GX,1,100,0.793
1558723113.793377,37438.625,5717,8,GX,1,100,1.465
1558723113.810235,37451.000,5717,8,GX,1,100,0.504
1558723113.826581,37463.000,5735,8,GX,1,100,0.168
1558723113.842927,37475.000,5735,8,GX,1,100,-0.351
1558723113.859273,37487.000,5735,8,GX,1,100,-0.046
1558723113.875619,37499.000,5735,8,GX,1,100,-0.153
1558723113.891965,37511.000,5735,8,GX,1,100,0.473
1558723113.908312,37523.000,5735,8,GX,1,100,-0.336
1558723113.924658,37535.000,5735,8,GX,1,100,0.610
1558723113.941004,37547.000,5735,8,GX,1,100,-0.076
1558723113.957691,37559.250,5753,8,GX,1,100,-0.244
1558723113.974378,37571.500,5753,8,GX,1,100,-0.214
1558723113.991064,37583.750,5753,8,GX,1,100,-0.153
1558723114.007751,37596.000,5753,8,GX,1,100,-0.427
1558723114.024438,37608.250,5753,8,GX,1,100,0.366
1558723114.041125,37620.500,5753,8,GX,1,100,-0.626
1558723114.057811,37632.750,5753,8,GX,1,100,-0.595
1558723114.074498,37645.000,5753,8,GX,1,100,-0.885
1558723114.090996,37657.111,5771,9,GX,1,100,-0.366
1558723114.107493,37669.222,5771,9,GX,1,100,-0.061
1558723114.123991,37681.333,5771,9,GX,1,100,-0.793
1558723114.140488,37693.444,5771,9,GX,1,100,-0.381
1558723114.156986,37705.556,5771,9,GX,1,100,-0.122
1558723114.173484,37717.667,5771,9,GX,1,100,0.397
1558723114.189981,37729.778,5771,9,GX,1,100,-0.244
1558723114.206479,37741.889,5771,9,GX,1,100,-1.022
1558723114.222976,37754.000,5771,9,GX,1,100,-0.168
1558723114.239493,37766.125,5789,8,GX,1,100,-0.778
1558723114.256009,37778.250,5789,8,GX,1,100,0.320
1558723114.272526,37790.375,5789,8,GX,1,100,-0.183
1558723114.289042,37802.500,5789,8,GX,1,100,-0.107
1558723114.305559,37814.625,5789,8,GX,1,100,-0.870
1558723114.322075,37826.750,5789,8,GX,1,100,-0.351
1558723114.338592,37838.875,5789,8,GX,1,100,-0.641
1558723114.355108,37851.000,5789,8,GX,1,100,-0.824
1558723114.371795,37863.250,5808,8,GX,1,100,0.412
1558723114.388482,37875.500,5808,8,GX,1,100,0.214
1558723114.405168,37887.750,5808,8,GX,1,100,-0.565
1558723114.421855,37900.000,5808,8,GX,1,100,-0.183
1558723114.438542,37912.250,5808,8,GX,1,100,0.320
1558723114.455229,37924.500,5808,8,GX,1,100,-0.122
1558723114.471915,37936.750,5808,8,GX,1,100,-0.107
1558723114.488602,37949.000,5808,8,GX,1,100,-0.092
1558723114.505100,37961.111,5826,9,GX,1,100,-0.702
1558723114.521597,37973.222,5826,9,GX,1,100,-0.519
1558723114.538095,37985.333,5826,9,GX,1,100,-0.259
1558723114.554592,37997.444,5826,9,GX,1,100,-0.595
1558723114.571090,38009.556,5826,9,GX,1,100,-0.290
1558723114.587587,38021.667,5826,9,GX,1,100,-0.229
1558723114.604085,38033.778,5826,9,GX,1,100,-0.107
1558723114.620583,38045.889,5826,9,GX,1,100,-0.412
1558723114.637080,38058.000,5826,9,GX,1,100,0.244
1558723114.653937,38070.375,5844,8,GX,1,100,-0.610
1558723114.670794,38082.750,5844,8,GX,1,100,-0.793
1558723114.687651,38095.125,5844,8,GX,1,100,-0.717
1558723114.704508,38107.500,5844,8,GX,1,100,-0.854
1558723114.721365,38119.875,5844,8,GX,1,100,-0.443
1558723114.738222,38132.250,5844,8,GX,1,100,-0.488
1558723114.755079,38144.625,5844,8,GX,1,100,-0.656
1558723114.771936,38157.000,5844,8,GX,1,100,-0.305
1558723114.788453,38169.125,5862,8,GX,1,100,-0.198
1558723114.804969,38181.250,5862,8,GX,1,100,-1.663
1558723114.821486,38193.375,5862,8,GX,1,100,-0.824
1558723114.838002,38205.500,5862,8,GX,1,100,-0.900
1558723114.854519,38217.625,5862,8,GX,1,100,-0.351
1558723114.871035,38229.750,5862,8,GX,1,100,0.122
1558723114.887552,38241.875,5862,8,GX,1,100,-0.137
1558723114.904068,38254.000,5862,8,GX,1,100,-0.443
1558723114.920585,38266.125,5880,8,GX,1,100,-0.351
1558723114.937101,38278.250,5880,8,GX,1,100,-0.229
1558723114.953618,38290.375,5880,8,GX,1,100,0.290
1558723114.970134,38302.500,5880,8,GX,1,100,-0.153
1558723114.986650,38314.625,5880,8,GX,1,100,-0.076
1558723115.003167,38326.750,5880,8,GX,1,100,0.000
1558723115.019683,38338.875,5880,8,GX,1,100,-0.122
1558723115.036200,38351.000,5880,8,GX,1,100,0.809
1558723115.052849,38363.222,5898,9,GX,1,100,-0.046
1558723115.069498,38375.444,5898,9,GX,1,100,-0.183
1558723115.086147,38387.667,5898,9,GX,1,100,-0.793
1558723115.102796,38399.889,5898,9,GX,1,100,-0.275
1558723115.119445,38412.111,5898,9,GX,1,100,0.000
1558723115.136093,38424.333,5898,9,GX,1,100,-0.443
1558723115.152742,38436.556,5898,9,GX,1,100,-0.336
1558723115.169391,38448.778,5898,9,GX,1,100,0.168
1558723115.186040,38461.000,5898,9,GX,1,100,0.198
1558723115.202386,38473.000,5916,8,GX,1,100,0.839
1558723115.218733,38485.000,5916,8,GX,1,100,0.565
1558723115.235079,38497.000,5916,8,GX,1,100,0.504
1558723115.251425,38509.000,5916,8,GX,1,100,0.153
1558723115.267771,38521.000,5916,8,GX,1,100,0.320
1558723115.284117,38533.000,5916,8,GX,1,100,1.556
1558723115.300464,38545.000,5916,8,GX,1,100,1.480
1558723115.316810,38557.000,5916,8,GX,1,100,1.450
1558723115.333308,38569.111,5935,9,GX,1,100,1.465
1558723115.349805,38581.222,5935,9,GX,1,100,0.183
1558723115.366302,38593.333,5935,9,GX,1,100,0.046
1558723115.382800,38605.444,5935,9,GX,1,100,-0.320
1558723115.399298,38617.556,5935,9,GX,1,100,-0.458
1558723115.415795,38629.667,5935,9,GX,1,100,0.320
1558723115.432293,38641.778,5935,9,GX,1,100,0.854
1558723115.448790,38653.889,5935,9,GX,1,100,-0.381
1558723115.465288,38666.000,5935,9,GX,1,100,-1.129
1558723115.482145,38678.375,5953,8,GX,1,100,-0.946
1558723115.499002,38690.750,5953,8,GX,1,100,-0.626
1558723115.515859,38703.125,5953,8,GX,1,100,-0.626
1558723115.532716,38715.500,5953,8,GX,1,100,0.763
1558723115.549573,38727.875,5953,8,GX,1,100,-0.748
1558723115.566430,38740.250,5953,8,GX,1,100,-0.534
1558723115.583287,38752.625,5953,8,GX,1,100,-0.595
1558723115.600144,38765.000,5953,8,GX,1,100,-0.534
1558723115.617001,38777.375,5971,8,GX,1,100,-0.732
1558723115.633858,38789.750,5971,8,GX,1,100,-1.068
1558723115.650715,38802.125,5971,8,GX,1,100,-0.793
1558723115.667572,38814.500,5971,8,GX,1,100,-0.275
1558723115.684429,38826.875,5971,8,GX,1,100,-0.580
1558723115.701286,38839.250,5971,8,GX,1,100,-0.656
1558723115.718143,38851.625,5971,8,GX,1,100,-1.053
1558723115.735000,38864.000,5971,8,GX,1,100,-1.419
1558723115.751687,38876.250,5989,8,GX,1,100,-0.931
1558723115.768374,38888.500,5989,8,GX,1,100,-0.977
1558723115.785061,38900.750,5989,8,GX,1,100,-0.809
1558723115.801747,38913.000,5989,8,GX,1,100,-1.343
1558723115.818434,38925.250,5989,8,GX,1,100,-0.397
1558723115.835121,38937.500,5989,8,GX,1,100,-1.541
1558723115.851808,38949.750,5989,8,GX,1,100,-1.678
1558723115.868494,38962.000,5989,8,GX,1,100,-0.626
1558723115.885181,38974.250,6007,8,GX,1,100,-1.923
1558723115.901868,38986.500,6007,8,GX,1,100,-1.663
1558723115.918555,38998.750,6007,8,GX,1,100,-0.763
1558723115.935241,39011.000,6007,8,GX,1,100,-0.870
1558723115.951928,39023.250,6007,8,GX,1,100,-0.717
1558723115.968615,39035.500,6007,8,GX,1,100,-0.504
1558723115.985301,39047.750,6007,8,GX,1,100,-1.511
1558723116.001988,39060.000,6007,8,GX,1,100,-1.160
1558723116.018637,39072.222,6025,9,GX,1,100,-1.358
1558723116.035286,39084.444,6025,9,GX,1,100,-1.038
1558723116.051935,39096.667,6025,9,GX,1,100,-0.046
1558723116.068584,39108.889,6025,9,GX,1,100,-0.031
1558723116.085233,39121.111,6025,9,GX,1,100,-0.122
1558723116.101882,39133.333,6025,9,GX,1,100,-0.305
1558723116.118531,39145.556,6025,9,GX,1,100,-0.320
1558723116.135180,39157.778,6025,9,GX,1,100,-0.671
1558723116.151829,39170.000,6025,9,GX,1,100,0.717
1558723116.168515,39182.250,6043,8,GX,1,100,0.870
1558723116.185202,39194.500,6043,8,GX,1,100,0.443
1558723116.201889,39206.750,6043,8,GX,1,100,-0.717
1558723116.218575,39219.000,6043,8,GX,1,100,-0.473
1558723116.235262,39231.250,6043,8,GX,1,100,-0.687
1558723116.251949,39243.500,6043,8,GX,1,100,0.565
1558723116.268636,39255.750,6043,8,GX,1,100,0.076
1558723116.285323,39268.000,6043,8,GX,1,100,1.083
1558723116.301839,39280.125,6061,8,GX,1,100,-0.641
1558723116.318356,39292.250,6061,8,GX,1,100,-0.763
1558723116.334872,39304.375,6061,8,GX,1,100,-0.671
1558723116.351388,39316.500,6061,8,GX,1,100,0.229
1558723116.367905,39328.625,6061,8,GX,1,100,0.824
1558723116.384421,39340.750,6061,8,GX,1,100,1.297
1558723116.400938,39352.875,6061,8,GX,1,100,1.495
1558723116.417454,39365.000,6061,8,GX,1,100,1.190
1558723116.434311,39377.375,6080,8,GX,1,100,0.702
1558723116.451169,39389.750,6080,8,GX,1,100,0.702
1558723116.468025,39402.125,6080,8,GX,1,100,0.961
1558723116.484883,39414.500,6080,8,GX,1,100,-0.381
1558723116.501740,39426.875,6080,8,GX,1,100,-0.626
1558723116.518597,39439.250,6080,8,GX,1,100,-0.031
1558723116.535454,39451.625,6080,8,GX,1,100,-0.641
1558723116.552311,39464.000,6080,8,GX,1,100,0.259
1558723116.569338,39476.500,6098,8,GX,1,100,0.412
1558723116.586365,39489.000,6098,8,GX,1,100,-0.702
1558723116.603393,39501.500,6098,8,GX,1,100,-0.244
1558723116.620420,39514.000,6098,8,GX,1,100,-0.748
1558723116.637447,39526.500,6098,8,GX,1,100,-0.809
1558723116.654474,39539.000,6098,8,GX,1,100,-0.565
1558723116.671502,39551.500,6098,8,GX,1,100,-0.977
1558723116.688529,39564.000,6098,8,GX,1,100,-1.404
1558723116.705329,39576.333,6116,9,GX,1,100,-0.824
1558723116.722130,39588.667,6116,9,GX,1,100,-0.183
1558723116.738930,39601.000,6116,9,GX,1,100,0.320
1558723116.755730,39613.333,6116,9,GX,1,100,0.153
1558723116.772530,39625.667,6116,9,GX,1,100,-0.778
1558723116.789331,39638.000,6116,9,GX,1,100,0.183
1558723116.806131,39650.333,6116,9,GX,1,100,-0.153
1558723116.822931,39662.667,6116,9,GX,1,100,0.763
1558723116.839731,39675.000,6116,9,GX,1,100,0.015
1558723116.856588,39687.375,6134,8,GX,1,100,0.153
1558723116.873446,39699.750,6134,8,GX,1,100,-0.641
1558723116.890302,39712.125,6134,8,GX,1,100,-0.427
1558723116.907160,39724.500,6134,8,GX,1,100,-0.977
1558723116.924016,39736.875,6134,8,GX,1,100,-0.717
1558723116.940874,39749.250,6134,8,GX,1,100,-0.565
1558723116.957731,39761.625,6134,8,GX,1,100,-0.732
1558723116.974588,39774.000,6134,8,GX,1,100,-1.312
1558723116.990934,39786.000,6152,8,GX,1,100,-0.580
1558723117.007280,39798.000,6152,8,GX,1,100,-1.038
1558723117.023626,39810.000,6152,8,GX,1,100,-0.534
1558723117.039973,39822.000,6152,8,GX,1,100,-1.328
1558723117.056319,39834.000,6152,8,GX,1,100,-0.656
1558723117.072665,39846.000,6152,8,GX,1,100,-0.839
1558723117.089011,39858.000,6152,8,GX,1,100,-0.443
1558723117.105357,39870.000,6152,8,GX,1,100,-0.900
1558723117.121874,39882.125,6170,8,GX,1,100,0.519
1558723117.138390,39894.250,6170,8,GX,1,100,-0.381
1558723117.154907,39906.375,6170,8,GX,1,100,-0.366
1558723117.171423,39918.500,6170,8,GX,1,100,-0.824
1558723117.187940,39930.625,6170,8,GX,1,100,-0.290
1558723117.204456,39942.750,6170,8,GX,1,100,-0.519
1558723117.220973,39954.875,6170,8,GX,1,100,-0.977
1558723117.237489,39967.000,6170,8,GX,1,100,-0.244
1558723117.253987,39979.111,6188,9,GX,1,100,-0.702
1558723117.270484,39991.222,6188,9,GX,1,100,-0.427
1558723117.286982,40003.333,6188,9,GX,1,100,-0.290
1558723117.303479,40015.444,6188,9,GX,1,100,-0.549
1558723117.319977,40027.556,6188,9,GX,1,100,-0.732
1558723117.336474,40039.667,6188,9,GX,1,100,-0.702
1558723117.352972,40051.778,6188,9,GX,1,100,0.031
1558723117.369470,40063.889,6188,9,GX,1,100,-0.412
1558723117.385967,40076.000,6188,9,GX,1,100,-0.397
1558723117.402654,40088.250,6207,8,GX,1,100,0.107
1558723117.419341,40100.500,6207,8,GX,1,100,-0.198
1558723117.436028,40112.750,6207,8,GX,1,100,-0.137
1558723117.452714,40125.000,6207,8,GX,1,100,0.458
1558723117.469401,40137.250,6207,8,GX,1,100,1.038
1558723117.486088,40149.500,6207,8,GX,1,100,1.419
1558723117.502774,40161.750,6207,8,GX,1,100,1.328
1558723117.519461,40174.000,6207,8,GX,1,100,1.083
1558723117.536318,40186.375,6225,8,GX,1,100,0.473
1558723117.553175,40198.750,6225,8,GX,1,100,1.083
1558723117.570032,40211.125,6225,8,GX,1,100,0.931
1558723117.586889,40223.500,6225,8,GX,1,100,0.488
1558723117.603746,40235.875,6225,8,GX,1,100,-0.259
1558723117.620603,40248.250,6225,8,GX,1,100,-1.556
1558723117.637460,40260.625,6225,8,GX,1,100,-1.251
1558723117.654317,40273.000,6225,8,GX,1,100,-0.900
1558723117.670815,40285.111,6243,9,GX,1,100,1.297
1558723117.687313,40297.222,6243,9,GX,1,100,-0.137
1558723117.703810,40309.333,6243,9,GX,1,100,0.305
1558723117.720308,40321.444,6243,9,GX,1,100,-1.022
1558723117.736805,40333.556,6243,9,GX,1,100,-0.443
1558723117.753303,40345.667,6243,9,GX,1,100,-0.168
1558723117.769800,40357.778,6243,9,GX,1,100,-0.534
1558723117.786298,40369.889,6243,9,GX,1,100,-0.168
1558723117.802795,40382.000,6243,9,GX,1,100,-1.114
1558723117.819312,40394.125,6261,8,GX,1,100,-1.205
1558723117.835828,40406.250,6261,8,GX,1,100,-0.885
1558723117.852345,40418.375,6261,8,GX,1,100,-0.519
1558723117.868861,40430.500,6261,8,GX,1,100,-0.320
1558723117.885378,40442.625,6261,8,GX,1,100,0.336
1558723117.901894,40454.750,6261,8,GX,1,100,-0.275
1558723117.918411,40466.875,6261,8,GX,1,100,-0.046
1558723117.934927,40479.000,6261,8,GX,1,100,-0.076
1558723117.951273,40491.000,6279,8,GX,1,100,0.397
1558723117.967620,40503.000,6279,8,GX,1,100,0.046
1558723117.983966,40515.000,6279,8,GX,1,100,0.473
1558723118.000312,40527.000,6279,8,GX,1,100,-0.565
1558723118.016658,40539.000,6279,8,GX,1,100,-0.275
1558723118.033005,40551.000,6279,8,GX,1,100,0.137
1558723118.049351,40563.000,6279,8,GX,1,100,0.504
1558723118.065697,40575.000,6279,8,GX,1,100,0.748
1558723118.082346,40587.222,6297,9,GX,1,100,-0.183
1558723118.098995,40599.444,6297,9,GX,1,100,-0.336
1558723118.115644,40611.667,6297,9,GX,1,100,-0.656
1558723118.132293,40623.889,6297,9,GX,1,100,-0.244
1558723118.148942,40636.111,6297,9,GX,1,100,0.488
1558723118.165590,40648.333,6297,9,GX,1,100,-0.229
1558723118.182239,40660.556,6297,9,GX,1,100,-0.839
1558723118.198888,40672.778,6297,9,GX,1,100,-0.809
1558723118.215537,40685.000,6297,9,GX,1,100,-0.839
1558723118.232078,40697.143,6318,14,GX,1,100,0.153
1558723118.248619,40709.286,6318,14,GX,1,100,0.641
1558723118.265160,40721.429,6318,14,GX,1,100,0.076
1558723118.281700,40733.571,6318,14,GX,1,100,-0.427
1558723118.298241,40745.714,6318,14,GX,1,100,-0.244
1558723118.314782,40757.857,6318,14,GX,1,100,-0.534
1558723118.331323,40770.000,6318,14,GX,1,100,-0.549
1558723118.347864,40782.143,6318,14,GX,1,100,-0.092
1558723118.364404,40794.286,6318,14,GX,1,100,0.031
1558723118.380945,40806.429,6318,14,GX,1,100,-0.565
1558723118.397486,40818.571,6318,14,GX,1,100,-0.488
1558723118.414027,40830.714,6318,14,GX,1,100,-1.266
1558723118.430568,40842.857,6318,14,GX,1,100,-0.122
1558723118.447109,40855.000,6318,14,GX,1,100,-0.763
1558723118.463649,40867.143,6339,7,GX,1,100,0.092
1558723118.480190,40879.286,6339,7,GX,1,100,-0.656
1558723118.496731,40891.429,6339,7,GX,1,100,-0.580
1558723118.513272,40903.571,6339,7,GX,1,100,0.015
1558723118.529812,40915.714,6339,7,GX,1,100,0.046
1558723118.546353,40927.857,6339,7,GX,1,100,-0.351
1558723118.562894,40940.000,6339,7,GX,1,100,-0.336
1558723118.579581,40952.250,6357,8,GX,1,100,-0.046
1558723118.596267,40964.500,6357,8,GX,1,100,-0.061
1558723118.612954,40976.750,6357,8,GX,1,100,-0.275
1558723118.629641,40989.000,6357,8,GX,1,100,0.153
1558723118.646328,41001.250,6357,8,GX,1,100,-0.229
1558723118.663015,41013.500,6357,8,GX,1,100,0.763
1558723118.679701,41025.750,6357,8,GX,1,100,1.266
1558723118.696388,41038.000,6357,8,GX,1,100,1.633
1558723118.713340,41050.444,6375,9,GX,1,100,-1.190
1558723118.730291,41062.889,6375,9,GX,1,100,-1.419
1558723118.747243,41075.333,6375,9,GX,1,100,-0.168
1558723118.764194,41087.778,6375,9,GX,1,100,0.397
1558723118.781146,41100.222,6375,9,GX,1,100,0.580
1558723118.798098,41112.667,6375,9,GX,1,100,-0.671
1558723118.815049,41125.111,6375,9,GX,1,100,-0.427
1558723118.832001,41137.556,6375,9,GX,1,100,-0.961
1558723118.848953,41150.000,6375,9,GX,1,100,-0.504
1558723118.865810,41162.375,6393,8,GX,1,100,-0.656
1558723118.882667,41174.750,6393,8,GX,1,100,-0.427
1558723118.899524,41187.125,6393,8,GX,1,100,-0.137
1558723118.916381,41199.500,6393,8,GX,1,100,-0.793
1558723118.933238,41211.875,6393,8,GX,1,100,-0.580
1558723118.950095,41224.250,6393,8,GX,1,100,-0.076
1558723118.966952,41236.625,6393,8,GX,1,100,0.061
1558723118.983809,41249.000,6393,8,GX,1,100,-0.275
1558723119.000496,41261.250,6411,8,GX,1,100,-0.015
1558723119.017182,41273.500,6411,8,GX,1,100,-0.046
1558723119.033869,41285.750,6411,8,GX,1,100,0.015
1558723119.050556,41298.000,6411,8,GX,1,100,0.092
1558723119.067243,41310.250,6411,8,GX,1,100,0.214
1558723119.083929,41322.500,6411,8,GX,1,100,-0.732
1558723119.100616,41334.750,6411,8,GX,1,100,-0.351
1558723119.117303,41347.000,6411,8,GX,1,100,-0.854
1558723119.133649,41359.000,6429,9,GX,1,100,-0.504
1558723119.149995,41371.000,6429,9,GX,1,100,-0.290
1558723119.166342,41383.000,6429,9,GX,1,100,-0.687
1558723119.182688,41395.000,6429,9,GX,1,100,-1.160
1558723119.199034,41407.000,6429,9,GX,1,100,-1.175
1558723119.215380,41419.000,6429,9,GX,1,100,-0.702
1558723119.231726,41431.000,6429,9,GX,1,100,-0.656
1558723119.248073,41443.000,6429,9,GX,1,100,-0.549
1558723119.264419,41455.000,6429,9,GX,1,100,-0.916
1558723119.280935,41467.125,6447,8,GX,1,100,0.015
1558723119.297452,41479.250,6447,8,GX,1,100,0.137
1558723119.313968,41491.375,6447,8,GX,1,100,-0.183
1558723119.330485,41503.500,6447,8,GX,1,100,-0.412
1558723119.347001,41515.625,6447,8,GX,1,100,-0.580
1558723119.363518,41527.750,6447,8,GX,1,100,-0.183
1558723119.380034,41539.875,6447,8,GX,1,100,0.565
1558723119.396551,41552.000,6447,8,GX,1,100,-0.488
1558723119.413237,41564.250,6466,8,GX,1,100,0.702
1558723119.429924,41576.500,6466,8,GX,1,100,0.137
1558723119.446611,41588.750,6466,8,GX,1,100,0.504
1558723119.463298,41601.000,6466,8,GX,1,100,0.076
1558723119.479984,41613.250,6466,8,GX,1,100,0.122
1558723119.496671,41625.500,6466,8,GX,1,100,-0.183
1558723119.513358,41637.750,6466,8,GX,1,100,-0.351
1558723119.530045,41650.000,6466,8,GX,1,100,0.122
1558723119.546902,41662.375,6484,8,GX,1,100,0.153
1558723119.563759,41674.750,6484,8,GX,1,100,-0.061
1558723119.580616,41687.125,6484,8,GX,1,100,-0.412
1558723119.597473,41699.500,6484,8,GX,1,100,-0.839
1558723119.614330,41711.875,6484,8,GX,1,100,-1.328
1558723119.631187,41724.250,6484,8,GX,1,100,-0.885
1558723119.648044,41736.625,6484,8,GX,1,100,-0.412
1558723119.664901,41749.000,6484,8,GX,1,100,-0.305
1558723119.681587,41761.250,6502,8,GX,1,100,0.397
1558723119.698274,41773.500,6502,8,GX,1,100,-0.565
1558723119.714961,41785.750,6502,8,GX,1,100,-0.732
1558723119.731648,41798.000,6502,8,GX,1,100,-0.336
1558723119.748335,41810.250,6502,8,GX,1,100,0.198
1558723119.765021,41822.500,6502,8,GX,1,100,0.381
1558723119.781708,41834.750,6502,8,GX,1,100,-0.015
1558723119.798395,41847.000,6502,8,GX,1,100,0.107
1558723119.815195,41859.333,6520,9,GX,1,100,-0.534
1558723119.831995,41871.667,6520,9,GX,1,100,0.183
1558723119.848796,41884.000,6520,9,GX,1,100,-0.214
1558723119.865596,41896.333,6520,9,GX,1,100,-0.198
1558723119.882396,41908.667,6520,9,GX,1,100,-0.473
1558723119.899196,41921.000,6520,9,GX,1,100,-0.427
1558723119.915997,41933.333,6520,9,GX,1,100,-0.427
1558723119.932797,41945.667,6520,9,GX,1,100,-0.702
1558723119.949597,41958.000,6520,9,GX,1,100,-0.214
1558723119.966624,41970.500,6538,8,GX,1,100,-1.007
1558723119.983652,41983.000,6538,8,GX,1,100,-0.305
1558723120.000679,41995.500,6538,8,GX,1,100,-0.046
1558723120.017706,42008.000,6538,8,GX,1,100,0.015
1558723120.034734,42020.500,6538,8,GX,1,100,-0.259
1558723120.051761,42033.000,6538,8,GX,1,100,-0.336
1558723120.068788,42045.500,6538,8,GX,1,100,-0.534
1558723120.085816,42058.000,6538,8,GX,1,100,-0.061
1558723120.102502,42070.250,6556,8,GX,1,100,-0.107
1558723120.119189,42082.500,6556,8,GX,1,100,0.107
1558723120.135876,42094.750,6556,8,GX,1,100,-0.351
1558723120.152563,42107.000,6556,8,GX,1,100,-0.534
1558723120.169249,42119.250,6556,8,GX,1,100,-0.626
1558723120.185936,42131.500,6556,8,GX,1,100,-0.061
1558723120.202623,42143.750,6556,8,GX,1,100,-0.122
1558723120.219310,42156.000,6556,8,GX,1,100,-0.320
1558723120.235807,42168.111,6574,9,GX,1,100,-0.381
1558723120.252305,42180.222,6574,9,GX,1,100,-0.198
1558723120.268802,42192.333,6574,9,GX,1,100,0.198
1558723120.285300,42204.444,6574,9,GX,1,100,-0.366
1558723120.301797,42216.556,6574,9,GX,1,100,-0.458
1558723120.318295,42228.667,6574,9,GX,1,100,-1.236
1558723120.334793,42240.778,6574,9,GX,1,100,-0.107
1558723120.351290,42252.889,6574,9,GX,1,100,-0.214
1558723120.367788,42265.000,6574,9,GX,1,100,0.381
1558723120.384134,42277.000,6593,8,GX,1,100,-0.565
1558723120.400480,42289.000,6593,8,GX,1,100,-0.061
1558723120.416826,42301.000,6593,8,GX,1,100,-0.809
1558723120.433172,42313.000,6593,8,GX,1,100,-0.122
1558723120.449519,42325.000,6593,8,GX,1,100,-0.137
1558723120.465865,42337.000,6593,8,GX,1,100,-0.458
1558723120.482211,42349.000,6593,8,GX,1,100,-0.092
1558723120.498557,42361.000,6593,8,GX,1,100,-0.519
1558723120.515244,42373.250,6611,8,GX,1,100,-0.259
1558723120.531931,42385.500,6611,8,GX,1,100,-0.107
1558723120.548618,42397.750,6611,8,GX,1,100,-1.053
1558723120.565304,42410.000,6611,8,GX,1,100,-0.046
1558723120.581991,42422.250,6611,8,GX,1,100,-0.076
1558723120.598678,42434.500,6611,8,GX,1,100,-0.076
1558723120.615365,42446.750,6611,8,GX,1,100,-0.793
1558723120.632051,42459.000,6611,8,GX,1,100,-0.351
1558723120.648908,42471.375,6629,8,GX,1,100,-0.137
1558723120.665766,42483.750,6629,8,GX,1,100,0.092
1558723120.682622,42496.125,6629,8,GX,1,100,-0.061
1558723120.699480,42508.500,6629,8,GX,1,100,-0.458
1558723120.716336,42520.875,6629,8,GX,1,100,-0.061
1558723120.733193,42533.250,6629,8,GX,1,100,0.137
1558723120.750051,42545.625,6629,8,GX,1,100,0.626
1558723120.766907,42558.000,6629,8,GX,1,100,-0.061
1558723120.783556,42570.222,6647,9,GX,1,100,-0.305
1558723120.800205,42582.444,6647,9,GX,1,100,-0.122
1558723120.816854,42594.667,6647,9,GX,1,100,-0.259
1558723120.833503,42606.889,6647,9,GX,1,100,-0.305
1558723120.850152,42619.111,6647,9,GX,1,100,-0.610
1558723120.866801,42631.333,6647,9,GX,1,100,-0.534
1558723120.883450,42643.556,6647,9,GX,1,100,-0.458
1558723120.900099,42655.778,6647,9,GX,1,100,0.031
1558723120.916748,42668.000,6647,9,GX,1,100,-0.473
1558723120.933605,42680.375,6665,8,GX,1,100,-0.381
1558723120.950462,42692.750,6665,8,GX,1,100,-0.687
1558723120.967319,42705.125,6665,8,GX,1,100,-0.504
1558723120.984176,42717.500,6665,8,GX,1,100,-0.412
1558723121.001033,42729.875,6665,8,GX,1,100,-0.580
1558723121.017890,42742.250,6665,8,GX,1,100,-0.351
1558723121.034747,42754.625,6665,8,GX,1,100,-0.488
1558723121.051604,42767.000,6665,8,GX,1,100,-0.122
1558723121.068291,42779.250,6683,8,GX,1,100,-0.031
1558723121.084977,42791.500,6683,8,GX,1,100,0.275
1558723121.101664,42803.750,6683,8,GX,1,100,0.000
1558723121.118351,42816.000,6683,8,GX,1,100,-0.412
1558723121.135038,42828.250,6683,8,GX,1,100,-0.656
1558723121.151725,42840.500,6683,8,GX,1,100,-0.519
1558723121.168411,42852.750,6683,8,GX,1,100,-0.610
1558723121.185098,42865.000,6683,8,GX,1,100,-0.229
1558723121.201444,42877.000,6701,8,GX,1,100,-0.336
1558723121.217790,42889.000,6701,8,GX,1,100,-0.519
1558723121.234137,42901.000,6701,8,GX,1,100,-0.046
1558723121.250483,42913.000,6701,8,GX,1,100,-0.549
1558723121.266829,42925.000,6701,8,GX,1,100,-0.595
1558723121.283175,42937.000,6701,8,GX,1,100,-0.473
1558723121.299521,42949.000,6701,8,GX,1,100,-0.595
1558723121.315868,42961.000,6701,8,GX,1,100,-0.290
1558723121.332062,42972.889,6719,9,GX,1,100,-0.916
1558723121.348257,42984.778,6719,9,GX,1,100,-0.626
1558723121.364452,42996.667,6719,9,GX,1,100,-0.198
1558723121.380647,43008.556,6719,9,GX,1,100,-0.488
1558723121.396842,43020.444,6719,9,GX,1,100,-0.412
1558723121.413037,43032.333,6719,9,GX,1,100,-0.107
1558723121.429232,43044.222,6719,9,GX,1,100,0.137
1558723121.445426,43056.111,6719,9,GX,1,100,-0.351
1558723121.461621,43068.000,6719,9,GX,1,100,-0.381
1558723121.478308,43080.250,6738,8,GX,1,100,-0.320
1558723121.494995,43092.500,6738,8,GX,1,100,0.259
1558723121.511682,43104.750,6738,8,GX,1,100,-0.275
1558723121.528368,43117.000,6738,8,GX,1,100,-0.626
1558723121.545055,43129.250,6738,8,GX,1,100,-0.961
1558723121.561742,43141.500,6738,8,GX,1,100,-0.183
1558723121.578429,43153.750,6738,8,GX,1,100,-0.122
1558723121.595115,43166.000,6738,8,GX,1,100,0.412
1558723121.611972,43178.375,6756,8,GX,1,100,-0.549
1558723121.628829,43190.750,6756,8,GX,1,100,-0.687
1558723121.645686,43203.125,6756,8,GX,1,100,-0.595
1558723121.662544,43215.500,6756,8,GX,1,100,-0.320
1558723121.679400,43227.875,6756,8,GX,1,100,-0.031
1558723121.696258,43240.250,6756,8,GX,1,100,-0.076
1558723121.713115,43252.625,6756,8,GX,1,100,-0.473
1558723121.729972,43265.000,6756,8,GX,1,100,-0.748
1558723121.746772,43277.333,6774,9,GX,1,100,-0.305
1558723121.763572,43289.667,6774,9,GX,1,100,-0.168
1558723121.780372,43302.000,6774,9,GX,1,100,-0.473
1558723121.797173,43314.333,6774,9,GX,1,100,-0.366
1558723121.813973,43326.667,6774,9,GX,1,100,-0.320
1558723121.830773,43339.000,6774,9,GX,1,100,-0.534
1558723121.847574,43351.333,6774,9,GX,1,100,-1.053
1558723121.864374,43363.667,6774,9,GX,1,100,-1.724
1558723121.881174,43376.000,6774,9,GX,1,100,-0.168
1558723121.898031,43388.375,6792,8,GX,1,100,-1.266
1558723121.914888,43400.750,6792,8,GX,1,100,-0.214
1558723121.931745,43413.125,6792,8,GX,1,100,0.290
1558723121.948602,43425.500,6792,8,GX,1,100,0.244
1558723121.965459,43437.875,6792,8,GX,1,100,0.717
1558723121.982316,43450.250,6792,8,GX,1,100,-0.046
1558723121.999173,43462.625,6792,8,GX,1,100,0.168
1558723122.016030,43475.000,6792,8,GX,1,100,0.916
1558723122.032717,43487.250,6810,8,GX,1,100,1.328
1558723122.049404,43499.500,6810,8,GX,1,100,-0.031
1558723122.066090,43511.750,6810,8,GX,1,100,-0.854
1558723122.082777,43524.000,6810,8,GX,1,100,-1.984
1558723122.099464,43536.250,6810,8,GX,1,100,-1.343
1558723122.116151,43548.500,6810,8,GX,1,100,0.198
1558723122.132838,43560.750,6810,8,GX,1,100,0.748
1558723122.149524,43573.000,6810,8,GX,1,100,0.351
1558723122.166211,43585.250,6828,8,GX,1,100,-0.778
1558723122.182898,43597.500,6828,8,GX,1,100,-0.992
1558723122.199584,43609.750,6828,8,GX,1,100,-1.755
1558723122.216271,43622.000,6828,8,GX,1,100,-0.931
1558723122.232958,43634.250,6828,8,GX,1,100,-0.397
1558723122.249645,43646.500,6828,8,GX,1,100,0.290
1558723122.266331,43658.750,6828,8,GX,1,100,0.778
1558723122.283018,43671.000,6828,8,GX,1,100,-0.275
1558723122.299705,43683.250,6846,8,GX,1,100,-0.778
1558723122.316392,43695.500,6846,8,GX,1,100,-1.328
1558723122.333078,43707.750,6846,8,GX,1,100,-1.205
1558723122.349765,43720.000,6846,8,GX,1,100,0.076
1558723122.366452,43732.250,6846,8,GX,1,100,1.343
1558723122.383139,43744.500,6846,8,GX,1,100,-0.290
1558723122.399826,43756.750,6846,8,GX,1,100,-0.198
1558723122.416512,43769.000,6846,8,GX,1,100,-0.946
1558723122.432858,43781.000,6865,9,GX,1,100,-1.404
1558723122.449205,43793.000,6865,9,GX,1,100,0.061
1558723122.465551,43805.000,6865,9,GX,1,100,-0.702
1558723122.481897,43817.000,6865,9,GX,1,100,-0.290
1558723122.498243,43829.000,6865,9,GX,1,100,-0.671
1558723122.514590,43841.000,6865,9,GX,1,100,-0.748
1558723122.530936,43853.000,6865,9,GX,1,100,-0.565
1558723122.547282,43865.000,6865,9,GX,1,100,-0.580
1558723122.563628,43877.000,6865,9,GX,1,100,-0.702
1558723122.580145,43889.125,6883,8,GX,1,100,-1.068
1558723122.596661,43901.250,6883,8,GX,1,100,0.366
1558723122.613178,43913.375,6883,8,GX,1,100,-0.061
1558723122.629694,43925.500,6883,8,GX,1,100,0.290
1558723122.646210,43937.625,6883,8,GX,1,100,-0.732
1558723122.662727,43949.750,6883,8,GX,1,100,-0.717
1558723122.679244,43961.875,6883,8,GX,1,100,-0.580
1558723122.695760,43974.000,6883,8,GX,1,100,-0.610
1558723122.712617,43986.375,6901,8,GX,1,100,0.061
1558723122.729474,43998.750,6901,8,GX,1,100,-0.320
1558723122.746331,44011.125,6901,8,GX,1,100,0.336
1558723122.763188,44023.500,6901,8,GX,1,100,-0.305
1558723122.780045,44035.875,6901,8,GX,1,100,-0.290
1558723122.796902,44048.250,6901,8,GX,1,100,-0.031
1558723122.813759,44060.625,6901,8,GX,1,100,-0.351
1558723122.830616,44073.000,6901,8,GX,1,100,-0.305
1558723122.847473,44085.375,6919,8,GX,1,100,-0.443
1558723122.864330,44097.750,6919,8,GX,1,100,-1.038
1558723122.881187,44110.125,6919,8,GX,1,100,-0.168
1558723122.898044,44122.500,6919,8,GX,1,100,-0.336
1558723122.914901,44134.875,6919,8,GX,1,100,0.549
1558723122.931758,44147.250,6919,8,GX,1,100,-0.183
1558723122.948615,44159.625,6919,8,GX,1,100,0.671
1558723122.965472,44172.000,6919,8,GX,1,100,0.015
1558723122.982424,44184.444,6937,9,GX,1,100,-0.198
1558723122.999376,44196.889,6937,9,GX,1,100,-0.748
1558723123.016327,44209.333,6937,9,GX,1,100,-0.473
1558723123.033279,44221.778,6937,9,GX,1,100,-0.610
1558723123.050231,44234.222,6937,9,GX,1,100,-0.092
1558723123.067182,44246.667,6937,9,GX,1,100,-0.031
1558723123.084134,44259.111,6937,9,GX,1,100,0.183
1558723123.101085,44271.556,6937,9,GX,1,100,-0.351
1558723123.118037,44284.000,6937,9,GX,1,100,-1.038
1558723123.134724,44296.250,6955,8,GX,1,100,-0.092
1558723123.151411,44308.500,6955,8,GX,1,100,-0.580
1558723123.168097,44320.750,6955,8,GX,1,100,-0.397
1558723123.184784,44333.000,6955,8,GX,1,100,-0.092
1558723123.201471,44345.250,6955,8,GX,1,100,-0.366
1558723123.218158,44357.500,6955,8,GX,1,100,-0.519
1558723123.234844,44369.750,6955,8,GX,1,100,-0.793
1558723123.251531,44382.000,6955,8,GX,1,100,-0.717
1558723123.267877,44394.000,6973,8,GX,1,100,0.320
1558723123.284223,44406.000,6973,8,GX,1,100,-0.626
1558723123.300570,44418.000,6973,8,GX,1,100,-0.031
1558723123.316916,44430.000,6973,8,GX,1,100,-0.671
1558723123.333262,44442.000,6973,8,GX,1,100,-0.366
1558723123.349608,44454.000,6973,8,GX,1,100,-0.824
1558723123.365954,44466.000,6973,8,GX,1,100,-0.092
1558723123.382301,44478.000,6973,8,GX,1,100,-0.137
1558723123.398798,44490.111,6991,9,GX,1,100,-0.076
1558723123.415296,44502.222,6991,9,GX,1,100,-0.412
1558723123.431793,44514.333,6991,9,GX,1,100,-0.900
1558723123.448291,44526.444,6991,9,GX,1,100,-0.519
1558723123.464788,44538.556,6991,9,GX,1,100,-0.702
1558723123.481286,44550.667,6991,9,GX,1,100,-0.076
1558723123.497784,44562.778,6991,9,GX,1,100,-0.656
1558723123.514281,44574.889,6991,9,GX,1,100,-0.107
1558723123.530779,44587.000,6991,9,GX,1,100,-0.565
1558723123.547295,44599.125,7010,8,GX,1,100,-0.366
1558723123.563812,44611.250,7010,8,GX,1,100,-0.336
1558723123.580328,44623.375,7010,8,GX,1,100,-0.244
1558723123.596845,44635.500,7010,8,GX,1,100,-0.259
1558723123.613361,44647.625,7010,8,GX,1,100,-0.671
1558723123.629878,44659.750,7010,8,GX,1,100,-0.656
1558723123.646394,44671.875,7010,8,GX,1,100,-0.320
1558723123.662910,44684.000,7010,8,GX,1,100,-0.244
1558723123.679597,44696.250,7028,8,GX,1,100,-0.137
1558723123.696284,44708.500,7028,8,GX,1,100,-0.336
1558723123.712971,44720.750,7028,8,GX,1,100,-0.305
1558723123.729657,44733.000,7028,8,GX,1,100,0.015
1558723123.746344,44745.250,7028,8,GX,1,100,-0.595
1558723123.763031,44757.500,7028,8,GX,1,100,-0.412
1558723123.779718,44769.750,7028,8,GX,1,100,-0.702
1558723123.796405,44782.000,7028,8,GX,1,100,-0.931
1558723123.813091,44794.250,7046,8,GX,1,100,-0.610
1558723123.829778,44806.500,7046,8,GX,1,100,0.305
1558723123.846465,44818.750,7046,8,GX,1,100,-0.198
1558723123.863152,44831.000,7046,8,GX,1,100,-0.229
1558723123.879838,44843.250,7046,8,GX,1,100,0.046
1558723123.896525,44855.500,7046,8,GX,1,100,-0.656
1558723123.913212,44867.750,7046,8,GX,1,100,-0.778
1558723123.929899,44880.000,7046,8,GX,1,100,-0.320
1558723123.946699,44892.333,7064,9,GX,1,100,0.351
1558723123.963499,44904.667,7064,9,GX,1,100,0.198
1558723123.980299,44917.000,7064,9,GX,1,100,-0.595
1558723123.997100,44929.333,7064,9,GX,1,100,0.061
1558723124.013900,44941.667,7064,9,GX,1,100,-0.473
1558723124.030700,44954.000,7064,9,GX,1,100,-0.275
1558723124.047500,44966.333,7064,9,GX,1,100,-0.504
1558723124.064301,44978.667,7064,9,GX,1,100,-0.458
1558723124.081101,44991.000,7064,9,GX,1,100,-0.137
1558723124.097788,45003.250,7082,8,GX,1,100,0.931
1558723124.114475,45015.500,7082,8,GX,1,100,0.198
1558723124.131161,45027.750,7082,8,GX,1,100,-0.275
1558723124.147848,45040.000,7082,8,GX,1,100,-0.580
1558723124.164535,45052.250,7082,8,GX,1,100,0.351
1558723124.181221,45064.500,7082,8,GX,1,100,0.031
1558723124.197908,45076.750,7082,8,GX,1,100,0.015
1558723124.214595,45089.000,7082,8,GX,1,100,-0.336
1558723124.230941,45101.000,7100,8,GX,1,100,-0.244
1558723124.247288,45113.000,7100,8,GX,1,100,-0.687
1558723124.263633,45125.000,7100,8,GX,1,100,-0.565
1558723124.279980,45137.000,7100,8,GX,1,100,-0.061
1558723124.296326,45149.000,7100,8,GX,1,100,-0.275
1558723124.312672,45161.000,7100,8,GX,1,100,-0.641
1558723124.329018,45173.000,7100,8,GX,1,100,-0.641
1558723124.345365,45185.000,7100,8,GX,1,100,-0.015
1558723124.361711,45197.000,7118,9,GX,1,100,-0.320
1558723124.378057,45209.000,7118,9,GX,1,100,0.061
1558723124.394403,45221.000,7118,9,GX,1,100,-0.351
1558723124.410749,45233.000,7118,9,GX,1,100,-0.549
1558723124.427096,45245.000,7118,9,GX,1,100,-0.381
1558723124.443442,45257.000,7118,9,GX,1,100,0.275
1558723124.459788,45269.000,7118,9,GX,1,100,-0.214
1558723124.476134,45281.000,7118,9,GX,1,100,0.137
1558723124.492481,45293.000,7118,9,GX,1,100,0.046
1558723124.508997,45305.125,7137,8,GX,1,100,-0.214
1558723124.525513,45317.250,7137,8,GX,1,100,0.351
1558723124.542030,45329.375,7137,8,GX,1,100,0.092
1558723124.558546,45341.500,7137,8,GX,1,100,0.732
1558723124.575063,45353.625,7137,8,GX,1,100,-0.183
1558723124.591579,45365.750,7137,8,GX,1,100,0.595
1558723124.608096,45377.875,7137,8,GX,1,100,-0.549
1558723124.624612,45390.000,7137,8,GX,1,100,-0.244
1558723124.641129,45402.125,7155,8,GX,1,100,-0.351
1558723124.657645,45414.250,7155,8,GX,1,100,-0.336
1558723124.674162,45426.375,7155,8,GX,1,100,1.129
1558723124.690678,45438.500,7155,8,GX,1,100,-0.320
1558723124.707195,45450.625,7155,8,GX,1,100,0.381
1558723124.723711,45462.750,7155,8,GX,1,100,-0.809
1558723124.740228,45474.875,7155,8,GX,1,100,-0.626
1558723124.756744,45487.000,7155,8,GX,1,100,0.290
1558723124.773431,45499.250,7173,8,GX,1,100,-0.443
1558723124.790118,45511.500,7173,8,GX,1,100,0.061
1558723124.806804,45523.750,7173,8,GX,1,100,-0.183
1558723124.823491,45536.000,7173,8,GX,1,100,0.565
1558723124.840178,45548.250,7173,8,GX,1,100,1.785
1558723124.856865,45560.500,7173,8,GX,1,100,-0.809
1558723124.873551,45572.750,7173,8,GX,1,100,-2.075
1558723124.890238,45585.000,7173,8,GX,1,100,-2.426
1558723124.907190,45597.444,7191,9,GX,1,100,0.183
1558723124.924141,45609.889,7191,9,GX,1,100,0.229
1558723124.941093,45622.333,7191,9,GX,1,100,-0.977
1558723124.958045,45634.778,7191,9,GX,1,100,-0.458
1558723124.974996,45647.222,7191,9,GX,1,100,3.067
1558723124.991948,45659.667,7191,9,GX,1,100,7.172
1558723125.008899,45672.111,7191,9,GX,1,100,12.070
1558723125.025851,45684.556,7191,9,GX,1,100,13.184
1558723125.042803,45697.000,7191,9,GX,1,100,12.634
1558723125.059489,45709.250,7209,8,GX,1,100,12.512
1558723125.076176,45721.500,7209,8,GX,1,100,16.251
1558723125.092863,45733.750,7209,8,GX,1,100,14.526
1558723125.109550,45746.000,7209,8,GX,1,100,12.848
1558723125.126236,45758.250,7209,8,GX,1,100,10.193
1558723125.142923,45770.500,7209,8,GX,1,100,6.119
1558723125.159610,45782.750,7209,8,GX,1,100,-1.617
1558723125.176297,45795.000,7209,8,GX,1,100,5.310
1558723125.193130,45807.357,7230,14,GX,1,100,4.654
1558723125.209962,45819.714,7230,14,GX,1,100,9.491
1558723125.226795,45832.071,7230,14,GX,1,100,10.468
1558723125.243628,45844.429,7230,14,GX,1,100,5.066
1558723125.260460,45856.786,7230,14,GX,1,100,7.767
1558723125.277293,45869.143,7230,14,GX,1,100,5.402
1558723125.294126,45881.500,7230,14,GX,1,100,10.208
1558723125.310958,45893.857,7230,14,GX,1,100,12.283
1558723125.327791,45906.214,7230,14,GX,1,100,12.466
1558723125.344624,45918.571,7230,14,GX,1,100,6.287
1558723125.361457,45930.929,7230,14,GX,1,100,4.440
1558723125.378289,45943.286,7230,14,GX,1,100,3.738
1558723125.395122,45955.643,7230,14,GX,1,100,5.051
1558723125.411955,45968.000,7230,14,GX,1,100,2.884
1558723125.428301,45980.000,7250,8,GX,1,100,8.133
1558723125.444647,45992.000,7250,8,GX,1,100,1.724
1558723125.460993,46004.000,7250,8,GX,1,100,1.968
1558723125.477340,46016.000,7250,8,GX,1,100,3.540
1558723125.493686,46028.000,7250,8,GX,1,100,0.977
1558723125.510032,46040.000,7250,8,GX,1,100,4.181
1558723125.526378,46052.000,7250,8,GX,1,100,4.715
1558723125.542724,46064.000,7250,8,GX,1,100,2.060
1558723125.559411,46076.250,7269,8,GX,1,100,0.931
1558723125.576098,46088.500,7269,8,GX,1,100,-2.533
1558723125.592785,46100.750,7269,8,GX,1,100,-1.968
1558723125.609471,46113.000,7269,8,GX,1,100,1.297
1558723125.626158,46125.250,7269,8,GX,1,100,5.035
1558723125.642845,46137.500,7269,8,GX,1,100,11.383
1558723125.659532,46149.750,7269,8,GX,1,100,5.661
1558723125.676218,46162.000,7269,8,GX,1,100,5.859
1558723125.692867,46174.222,7287,9,GX,1,100,3.632
1558723125.709516,46186.444,7287,9,GX,1,100,7.874
1558723125.726165,46198.667,7287,9,GX,1,100,2.045
1558723125.742814,46210.889,7287,9,GX,1,100,-0.031
1558723125.759463,46223.111,7287,9,GX,1,100,-0.580
1558723125.776112,46235.333,7287,9,GX,1,100,3.250
1558723125.792761,46247.556,7287,9,GX,1,100,0.244
1558723125.809410,46259.778,7287,9,GX,1,100,-0.580
1558723125.826059,46272.000,7287,9,GX,1,100,-6.149
1558723125.842916,46284.375,7305,8,GX,1,100,-5.417
1558723125.859773,46296.750,7305,8,GX,1,100,-8.453
1558723125.876630,46309.125,7305,8,GX,1,100,-14.511
1558723125.893487,46321.500,7305,8,GX,1,100,-17.029
1558723125.910344,46333.875,7305,8,GX,1,100,-12.543
1558723125.927201,46346.250,7305,8,GX,1,100,-14.221
1558723125.944058,46358.625,7305,8,GX,1,100,-13.321
1558723125.960915,46371.000,7305,8,GX,1,100,-10.574
1558723125.977772,46383.375,7323,8,GX,1,100,-14.542
1558723125.994629,46395.750,7323,8,GX,1,100,-15.823
1558723126.011486,46408.125,7323,8,GX,1,100,-21.667
1558723126.028343,46420.500,7323,8,GX,1,100,-23.727
1558723126.045200,46432.875,7323,8,GX,1,100,-24.811
1558723126.062057,46445.250,7323,8,GX,1,100,-21.866
1558723126.078914,46457.625,7323,8,GX,1,100,-21.408
1558723126.095771,46470.000,7323,8,GX,1,100,-22.522
1558723126.112458,46482.250,7341,8,GX,1,100,-33.997
1558723126.129144,46494.500,7341,8,GX,1,100,-39.093
1558723126.145831,46506.750,7341,8,GX,1,100,-41.245
1558723126.162518,46519.000,7341,8,GX,1,100,-31.418
1558723126.179205,46531.250,7341,8,GX,1,100,-28.946
1558723126.195891,46543.500,7341,8,GX,1,100,-26.428
1558723126.212578,46555.750,7341,8,GX,1,100,-32.761
1558723126.229265,46568.000,7341,8,GX,1,100,-32.562
1558723126.246122,46580.375,7359,8,GX,1,100,-39.520
1558723126.262979,46592.750,7359,8,GX,1,100,-21.500
1558723126.279836,46605.125,7359,8,GX,1,100,-21.576
1558723126.296693,46617.500,7359,8,GX,1,100,-19.318
1558723126.313550,46629.875,7359,8,GX,1,100,-16.495
1558723126.330407,46642.250,7359,8,GX,1,100,-17.838
1558723126.347264,46654.625,7359,8,GX,1,100,-13.153
1558723126.364121,46667.000,7359,8,GX,1,100,-16.815
1558723126.380619,46679.111,7377,9,GX,1,100,-24.124
1558723126.397116,46691.222,7377,9,GX,1,100,-33.981
1558723126.413614,46703.333,7377,9,GX,1,100,-32.669
1558723126.430111,46715.444,7377,9,GX,1,100,-35.736
1558723126.446609,46727.556,7377,9,GX,1,100,-28.015
1558723126.463107,46739.667,7377,9,GX,1,100,-23.422
1558723126.479604,46751.778,7377,9,GX,1,100,-7.034
1558723126.496102,46763.889,7377,9,GX,1,100,-2.274
1558723126.512599,46776.000,7377,9,GX,1,100,-4.166
1558723126.529456,46788.375,7396,8,GX,1,100,-2.396
1558723126.546313,46800.750,7396,8,GX,1,100,7.050
1558723126.563170,46813.125,7396,8,GX,1,100,7.767
1558723126.580027,46825.500,7396,8,GX,1,100,-0.977
1558723126.596884,46837.875,7396,8,GX,1,100,-19.165
1558723126.613741,46850.250,7396,8,GX,1,100,-21.469
1558723126.630598,46862.625,7396,8,GX,1,100,18.463
1558723126.647455,46875.000,7396,8,GX,1,100,-4.181
1558723126.663802,46887.000,7414,8,GX,1,100,-3.922
1558723126.680148,46899.000,7414,8,GX,1,100,-22.537
1558723126.696494,46911.000,7414,8,GX,1,100,-17.441
1558723126.712840,46923.000,7414,8,GX,1,100,-45.242
1558723126.729187,46935.000,7414,8,GX,1,100,-32.135
1558723126.745533,46947.000,7414,8,GX,1,100,-28.732
1558723126.761879,46959.000,7414,8,GX,1,100,-0.549
1558723126.778225,46971.000,7414,8,GX,1,100,-23.056
1558723126.795082,46983.375,7432,8,GX,1,100,-23.239
1558723126.811939,46995.750,7432,8,GX,1,100,-28.427
1558723126.828796,47008.125,7432,8,GX,1,100,-25.925
1558723126.845653,47020.500,7432,8,GX,1,100,-9.003
1558723126.862510,47032.875,7432,8,GX,1,100,-2.518
1558723126.879367,47045.250,7432,8,GX,1,100,-9.735
1558723126.896224,47057.625,7432,8,GX,1,100,-9.033
1558723126.913081,47070.000,7432,8,GX,1,100,-12.283
1558723126.929579,47082.111,7450,9,GX,1,100,-18.127
1558723126.946076,47094.222,7450,9,GX,1,100,-26.413
1558723126.962574,47106.333,7450,9,GX,1,100,9.781
1558723126.979072,47118.444,7450,9,GX,1,100,-4.089
1558723126.995569,47130.556,7450,9,GX,1,100,3.494
1558723127.012067,47142.667,7450,9,GX,1,100,11.917
1558723127.028564,47154.778,7450,9,GX,1,100,6.592
1558723127.045062,47166.889,7450,9,GX,1,100,1.541
1558723127.061559,47179.000,7450,9,GX,1,100,3.159
1558723127.078757,47191.625,7468,8,GX,1,100,12.558
1558723127.095954,47204.250,7468,8,GX,1,100,-11.887
1558723127.113152,47216.875,7468,8,GX,1,100,-11.475
1558723127.130350,47229.500,7468,8,GX,1,100,-18.280
1558723127.147547,47242.125,7468,8,GX,1,100,-37.476
1558723127.164745,47254.750,7468,8,GX,1,100,-47.607
1558723127.181942,47267.375,7468,8,GX,1,100,-29.541
1558723127.199140,47280.000,7468,8,GX,1,100,-12.085
1558723127.215997,47292.375,7486,8,GX,1,100,-23.315
1558723127.232854,47304.750,7486,8,GX,1,100,-21.942
1558723127.249711,47317.125,7486,8,GX,1,100,-28.381
1558723127.266568,47329.500,7486,8,GX,1,100,-32.791
1558723127.283425,47341.875,7486,8,GX,1,100,-34.363
1558723127.300282,47354.250,7486,8,GX,1,100,-13.626
1558723127.317139,47366.625,7486,8,GX,1,100,-17.151
1558723127.333996,47379.000,7486,8,GX,1,100,-7.935
1558723127.350342,47391.000,7504,8,GX,1,100,-9.949
1558723127.366688,47403.000,7504,8,GX,1,100,-10.391
1558723127.383035,47415.000,7504,8,GX,1,100,-18.967
1558723127.399381,47427.000,7504,8,GX,1,100,-15.732
1558723127.415727,47439.000,7504,8,GX,1,100,-15.747
1558723127.432073,47451.000,7504,8,GX,1,100,-13.947
1558723127.448420,47463.000,7504,8,GX,1,100,-4.929
1558723127.464766,47475.000,7504,8,GX,1,100,-1.923
1558723127.481452,47487.250,7523,8,GX,1,100,-7.843
1558723127.498139,47499.500,7523,8,GX,1,100,-7.278
1558723127.514826,47511.750,7523,8,GX,1,100,-2.792
1558723127.531513,47524.000,7523,8,GX,1,100,5.478
1558723127.548199,47536.250,7523,8,GX,1,100,1.358
1558723127.564886,47548.500,7523,8,GX,1,100,-3.937
1558723127.581573,47560.750,7523,8,GX,1,100,-7.446
1558723127.598260,47573.000,7523,8,GX,1,100,-3.601
1558723127.614757,47585.111,7541,9,GX,1,100,3.311
1558723127.631255,47597.222,7541,9,GX,1,100,10.284
1558723127.647753,47609.333,7541,9,GX,1,100,-0.580
1558723127.664250,47621.444,7541,9,GX,1,100,-4.639
1558723127.680748,47633.556,7541,9,GX,1,100,1.419
1558723127.697245,47645.667,7541,9,GX,1,100,1.663
1558723127.713743,47657.778,7541,9,GX,1,100,7.904
1558723127.730240,47669.889,7541,9,GX,1,100,8.102
1558723127.746738,47682.000,7541,9,GX,1,100,1.480
1558723127.763425,47694.250,7559,8,GX,1,100,-3.983
1558723127.780111,47706.500,7559,8,GX,1,100,-4.181
1558723127.796798,47718.750,7559,8,GX,1,100,-8.942
1558723127.813485,47731.000,7559,8,GX,1,100,-15.686
1558723127.830172,47743.250,7559,8,GX,1,100,-10.620
1558723127.846858,47755.500,7559,8,GX,1,100,-13.718
1558723127.863545,47767.750,7559,8,GX,1,100,13.947
1558723127.880232,47780.000,7559,8,GX,1,100,-3.601
1558723127.896919,47792.250,7577,8,GX,1,100,-1.526
1558723127.913605,47804.500,7577,8,GX,1,100,0.366
1558723127.930292,47816.750,7577,8,GX,1,100,-0.671
1558723127.946979,47829.000,7577,8,GX,1,100,-1.282
1558723127.963665,47841.250,7577,8,GX,1,100,0.656
1558723127.980352,47853.500,7577,8,GX,1,100,6.927
1558723127.997039,47865.750,7577,8,GX,1,100,5.142
1558723128.013726,47878.000,7577,8,GX,1,100,0.214
1558723128.030223,47890.111,7595,9,GX,1,100,0.641
1558723128.046721,47902.222,7595,9,GX,1,100,-7.935
1558723128.063219,47914.333,7595,9,GX,1,100,-6.927
1558723128.079716,47926.444,7595,9,GX,1,100,7.217
1558723128.096214,47938.556,7595,9,GX,1,100,-2.304
1558723128.112711,47950.667,7595,9,GX,1,100,-9.491
1558723128.129209,47962.778,7595,9,GX,1,100,-9.186
1558723128.145706,47974.889,7595,9,GX,1,100,-2.197
1558723128.162204,47987.000,7595,9,GX,1,100,0.412
1558723128.179061,47999.375,7613,8,GX,1,100,6.516
1558723128.195918,48011.750,7613,8,GX,1,100,9.003
1558723128.212775,48024.125,7613,8,GX,1,100,4.059
1558723128.229632,48036.500,7613,8,GX,1,100,3.967
1558723128.246489,48048.875,7613,8,GX,1,100,0.198
1558723128.263346,48061.250,7613,8,GX,1,100,-2.533
1558723128.280203,48073.625,7613,8,GX,1,100,-2.533
1558723128.297060,48086.000,7613,8,GX,1,100,-2.396
1558723128.313576,48098.125,7631,8,GX,1,100,-11.475
1558723128.330093,48110.250,7631,8,GX,1,100,-11.749
1558723128.346610,48122.375,7631,8,GX,1,100,-5.646
1558723128.363126,48134.500,7631,8,GX,1,100,-5.966
1558723128.379642,48146.625,7631,8,GX,1,100,-5.035
1558723128.396159,48158.750,7631,8,GX,1,100,-11.017
1558723128.412675,48170.875,7631,8,GX,1,100,-13.702
1558723128.429192,48183.000,7631,8,GX,1,100,-24.139
1558723128.445709,48195.125,7649,8,GX,1,100,-15.137
1558723128.462225,48207.250,7649,8,GX,1,100,-10.376
1558723128.478741,48219.375,7649,8,GX,1,100,-12.741
1558723128.495258,48231.500,7649,8,GX,1,100,-7.904
1558723128.511774,48243.625,7649,8,GX,1,100,-13.336
1558723128.528291,48255.750,7649,8,GX,1,100,-6.943
1558723128.544807,48267.875,7649,8,GX,1,100,8.331
1558723128.561324,48280.000,7649,8,GX,1,100,16.464
1558723128.577973,48292.222,7668,9,GX,1,100,6.989
1558723128.594622,48304.444,7668,9,GX,1,100,4.044
1558723128.611270,48316.667,7668,9,GX,1,100,1.587
1558723128.627919,48328.889,7668,9,GX,1,100,-3.769
1558723128.644568,48341.111,7668,9,GX,1,100,-11.780
1558723128.661217,48353.333,7668,9,GX,1,100,-39.291
1558723128.677866,48365.556,7668,9,GX,1,100,-53.558
1558723128.694515,48377.778,7668,9,GX,1,100,-45.380
1558723128.711164,48390.000,7668,9,GX,1,100,-29.449
1558723128.727510,48402.000,7686,8,GX,1,100,-20.996
1558723128.743856,48414.000,7686,8,GX,1,100,-29.800
1558723128.760203,48426.000,7686,8,GX,1,100,-41.107
1558723128.776549,48438.000,7686,8,GX,1,100,-33.203
1558723128.792895,48450.000,7686,8,GX,1,100,-25.040
1558723128.809241,48462.000,7686,8,GX,1,100,-11.597
1558723128.825588,48474.000,7686,8,GX,1,100,-11.658
1558723128.841934,48486.000,7686,8,GX,1,100,-18.784
1558723128.858431,48498.111,7704,9,GX,1,100,-22.995
1558723128.874929,48510.222,7704,9,GX,1,100,-7.462
1558723128.891426,48522.333,7704,9,GX,1,100,-1.587
1558723128.907924,48534.444,7704,9,GX,1,100,-6.470
1558723128.924422,48546.556,7704,9,GX,1,100,-9.064
1558723128.940919,48558.667,7704,9,GX,1,100,-13.397
1558723128.957417,48570.778,7704,9,GX,1,100,-7.904
1558723128.973914,48582.889,7704,9,GX,1,100,-2.930
1558723128.990412,48595.000,7704,9,GX,1,100,-11.398
1558723129.007269,48607.375,7722,8,GX,1,100,-11.032
1558723129.024126,48619.750,7722,8,GX,1,100,-15.030
1558723129.040983,48632.125,7722,8,GX,1,100,-7.187
1558723129.057840,48644.500,7722,8,GX,1,100,-17.166
1558723129.074697,48656.875,7722,8,GX,1,100,-22.964
1558723129.091554,48669.250,7722,8,GX,1,100,-25.711
1558723129.108411,48681.625,7722,8,GX,1,100,-30.853
1558723129.125268,48694.000,7722,8,GX,1,100,-21.317
1558723129.142125,48706.375,7740,8,GX,1,100,-14.847
1558723129.158982,48718.750,7740,8,GX,1,100,-15.762
1558723129.175839,48731.125,7740,8,GX,1,100,-11.993
1558723129.192696,48743.500,7740,8,GX,1,100,-5.142
1558723129.209553,48755.875,7740,8,GX,1,100,-0.992
1558723129.226410,48768.250,7740,8,GX,1,100,-7.568
1558723129.243267,48780.625,7740,8,GX,1,100,-5.981
1558723129.260124,48793.000,7740,8,GX,1,100,-4.349
1558723129.276811,48805.250,7758,8,GX,1,100,1.083
1558723129.293498,48817.500,7758,8,GX,1,100,-6.042
1558723129.310184,48829.750,7758,8,GX,1,100,-4.684
1558723129.326871,48842.000,7758,8,GX,1,100,-1.358
1558723129.343558,48854.250,7758,8,GX,1,100,2.838
1558723129.360245,48866.500,7758,8,GX,1,100,6.485
1558723129.376931,48878.750,7758,8,GX,1,100,0.671
1558723129.393618,48891.000,7758,8,GX,1,100,-2.548
1558723129.410305,48903.250,7776,8,GX,1,100,-7.385
1558723129.426992,48915.500,7776,8,GX,1,100,-3.784
1558723129.443678,48927.750,7776,8,GX,1,100,-0.656
1558723129.460365,48940.000,7776,8,GX,1,100,-1.877
1558723129.477052,48952.250,7776,8,GX,1,100,-1.846
1558723129.493739,48964.500,7776,8,GX,1,100,-4.166
1558723129.510425,48976.750,7776,8,GX,1,100,-0.824
1558723129.527112,48989.000,7776,8,GX,1,100,-10.117
1558723129.543610,49001.111,7795,9,GX,1,100,-14.206
1558723129.560107,49013.222,7795,9,GX,1,100,-21.896
1558723129.576605,49025.333,7795,9,GX,1,100,-41.183
1558723129.593102,49037.444,7795,9,GX,1,100,-47.028
1558723129.609600,49049.556,7795,9,GX,1,100,-42.145
1558723129.626097,49061.667,7795,9,GX,1,100,7.401
1558723129.642595,49073.778,7795,9,GX,1,100,25.528
1558723129.659093,49085.889,7795,9,GX,1,100,21.484
1558723129.675590,49098.000,7795,9,GX,1,100,10.880
1558723129.692277,49110.250,7813,8,GX,1,100,7.843
1558723129.708964,49122.500,7813,8,GX,1,100,-0.732
1558723129.725651,49134.750,7813,8,GX,1,100,-0.824
1558723129.742337,49147.000,7813,8,GX,1,100,2.182
1558723129.759024,49159.250,7813,8,GX,1,100,2.258
1558723129.775711,49171.500,7813,8,GX,1,100,2.411
1558723129.792397,49183.750,7813,8,GX,1,100,2.274
1558723129.809084,49196.000,7813,8,GX,1,100,-0.092
1558723129.825601,49208.125,7831,8,GX,1,100,0.290
1558723129.842117,49220.250,7831,8,GX,1,100,-3.723
1558723129.858634,49232.375,7831,8,GX,1,100,-5.753
1558723129.875150,49244.500,7831,8,GX,1,100,-6.195
1558723129.891667,49256.625,7831,8,GX,1,100,-8.194
1558723129.908183,49268.750,7831,8,GX,1,100,-9.552
1558723129.924700,49280.875,7831,8,GX,1,100,-8.713
1558723129.941216,49293.000,7831,8,GX,1,100,-6.683
1558723129.958073,49305.375,7849,8,GX,1,100,-7.050
1558723129.974930,49317.750,7849,8,GX,1,100,-6.699
1558723129.991787,49330.125,7849,8,GX,1,100,-3.082
1558723130.008644,49342.500,7849,8,GX,1,100,-3.540
1558723130.025501,49354.875,7849,8,GX,1,100,-3.632
1558723130.042358,49367.250,7849,8,GX,1,100,-4.044
1558723130.059215,49379.625,7849,8,GX,1,100,-3.723
1558723130.076072,49392.000,7849,8,GX,1,100,-1.450
1558723130.092873,49404.333,7867,9,GX,1,100,-3.754
1558723130.109673,49416.667,7867,9,GX,1,100,-5.905
1558723130.126473,49429.000,7867,9,GX,1,100,-8.347
1558723130.143273,49441.333,7867,9,GX,1,100,-10.880
1558723130.160074,49453.667,7867,9,GX,1,100,-16.891
1558723130.176874,49466.000,7867,9,GX,1,100,-12.924
1558723130.193674,49478.333,7867,9,GX,1,100,-5.600
1558723130.210474,49490.667,7867,9,GX,1,100,-0.412
1558723130.227275,49503.000,7867,9,GX,1,100,12.329
1558723130.244302,49515.500,7885,8,GX,1,100,34.225
1558723130.261329,49528.000,7885,8,GX,1,100,46.875
1558723130.278357,49540.500,7885,8,GX,1,100,37.216
1558723130.295384,49553.000,7885,8,GX,1,100,42.343
1558723130.312411,49565.500,7885,8,GX,1,100,43.198
1558723130.329438,49578.000,7885,8,GX,1,100,35.263
1558723130.346466,49590.500,7885,8,GX,1,100,6.805
1558723130.363493,49603.000,7885,8,GX,1,100,-4.486
1558723130.380350,49615.375,7903,8,GX,1,100,-26.520
1558723130.397207,49627.750,7903,8,GX,1,100,-21.561
1558723130.414064,49640.125,7903,8,GX,1,100,-5.447
1558723130.430921,49652.500,7903,8,GX,1,100,-1.541
1558723130.447778,49664.875,7903,8,GX,1,100,-2.563
1558723130.464635,49677.250,7903,8,GX,1,100,-3.036
1558723130.481492,49689.625,7903,8,GX,1,100,-0.305
1558723130.498349,49702.000,7903,8,GX,1,100,-10.101
1558723130.514695,49714.000,7921,8,GX,1,100,-9.766
1558723130.531042,49726.000,7921,8,GX,1,100,-0.061
1558723130.547388,49738.000,7921,8,GX,1,100,1.328
1558723130.563734,49750.000,7921,8,GX,1,100,1.831
1558723130.580080,49762.000,7921,8,GX,1,100,4.761
1558723130.596426,49774.000,7921,8,GX,1,100,4.532
1558723130.612773,49786.000,7921,8,GX,1,100,-1.572
1558723130.629119,49798.000,7921,8,GX,1,100,-4.578
1558723130.645635,49810.125,7940,8,GX,1,100,-22.110
1558723130.662152,49822.250,7940,8,GX,1,100,-75.745
1558723130.678668,49834.375,7940,8,GX,1,100,-39.703
1558723130.695185,49846.500,7940,8,GX,1,100,11.826
1558723130.711701,49858.625,7940,8,GX,1,100,14.328
1558723130.728218,49870.750,7940,8,GX,1,100,15.976
1558723130.744734,49882.875,7940,8,GX,1,100,13.077
1558723130.761251,49895.000,7940,8,GX,1,100,6.134
1558723130.777748,49907.111,7958,9,GX,1,100,-0.275
1558723130.794246,49919.222,7958,9,GX,1,100,-1.129
1558723130.810743,49931.333,7958,9,GX,1,100,-3.250
1558723130.827241,49943.444,7958,9,GX,1,100,-2.960
1558723130.843739,49955.556,7958,9,GX,1,100,-2.792
1558723130.860236,49967.667,7958,9,GX,1,100,-4.227
1558723130.876734,49979.778,7958,9,GX,1,100,-5.112
1558723130.893231,49991.889,7958,9,GX,1,100,-5.981
1558723130.909729,50004.000,7958,9,GX,1,100,-8.713
1558723130.926415,50016.250,7976,8,GX,1,100,-8.987
1558723130.943102,50028.500,7976,8,GX,1,100,-10.086
1558723130.959789,50040.750,7976,8,GX,1,100,-8.804
1558723130.976476,50053.000,7976,8,GX,1,100,-16.083
1558723130.993163,50065.250,7976,8,GX,1,100,-23.483
1558723131.009849,50077.500,7976,8,GX,1,100,-20.920
1558723131.026536,50089.750,7976,8,GX,1,100,-16.312
1558723131.043223,50102.000,7976,8,GX,1,100,-12.177
1558723131.060080,50114.375,7994,8,GX,1,100,-10.040
1558723131.076937,50126.750,7994,8,GX,1,100,-4.028
1558723131.093794,50139.125,7994,8,GX,1,100,1.816
1558723131.110651,50151.500,7994,8,GX,1,100,3.967
1558723131.127508,50163.875,7994,8,GX,1,100,3.464
1558723131.144365,50176.250,7994,8,GX,1,100,5.249
1558723131.161222,50188.625,7994,8,GX,1,100,5.417
1558723131.178079,50201.000,7994,8,GX,1,100,8.286
1558723131.194577,50213.111,8012,9,GX,1,100,7.935
1558723131.211074,50225.222,8012,9,GX,1,100,5.478
1558723131.227572,50237.333,8012,9,GX,1,100,-3.616
1558723131.244069,50249.444,8012,9,GX,1,100,-6.821
1558723131.260567,50261.556,8012,9,GX,1,100,-7.477
1558723131.277064,50273.667,8012,9,GX,1,100,-3.494
1558723131.293562,50285.778,8012,9,GX,1,100,-1.877
1558723131.310060,50297.889,8012,9,GX,1,100,3.815
1558723131.326557,50310.000,8012,9,GX,1,100,3.174
1558723131.343074,50322.125,8030,8,GX,1,100,-2.777
1558723131.359590,50334.250,8030,8,GX,1,100,-8.926
1558723131.376107,50346.375,8030,8,GX,1,100,-11.658
1558723131.392623,50358.500,8030,8,GX,1,100,-8.636
1558723131.409139,50370.625,8030,8,GX,1,100,-6.073
1558723131.425656,50382.750,8030,8,GX,1,100,-6.760
1558723131.442173,50394.875,8030,8,GX,1,100,6.027
1558723131.458689,50407.000,8030,8,GX,1,100,43.503
1558723131.475205,50419.125,8048,8,GX,1,100,34.927
1558723131.491722,50431.250,8048,8,GX,1,100,29.999
1558723131.508238,50443.375,8048,8,GX,1,100,-10.559
1558723131.524755,50455.500,8048,8,GX,1,100,-10.239
1558723131.541271,50467.625,8048,8,GX,1,100,-9.460
1558723131.557788,50479.750,8048,8,GX,1,100,-1.099
1558723131.574304,50491.875,8048,8,GX,1,100,2.121
1558723131.590821,50504.000,8048,8,GX,1,100,0.763
1558723131.607470,50516.222,8067,9,GX,1,100,5.524
1558723131.624119,50528.444,8067,9,GX,1,100,4.776
1558723131.640768,50540.667,8067,9,GX,1,100,2.487
1558723131.657416,50552.889,8067,9,GX,1,100,1.816
1558723131.674065,50565.111,8067,9,GX,1,100,2.518
1558723131.690714,50577.333,8067,9,GX,1,100,2.090
1558723131.707363,50589.556,8067,9,GX,1,100,2.975
1558723131.724012,50601.778,8067,9,GX,1,100,1.556
1558723131.740661,50614.000,8067,9,GX,1,100,4.517
1558723131.757177,50626.125,8085,8,GX,1,100,6.058
1558723131.773694,50638.250,8085,8,GX,1,100,2.335
1558723131.790210,50650.375,8085,8,GX,1,100,-29.251
1558723131.806727,50662.500,8085,8,GX,1,100,6.622
1558723131.823243,50674.625,8085,8,GX,1,100,7.935
1558723131.839760,50686.750,8085,8,GX,1,100,13.382
1558723131.856276,50698.875,8085,8,GX,1,100,13.901
1558723131.872793,50711.000,8085,8,GX,1,100,8.270
1558723131.889480,50723.250,8103,8,GX,1,100,17.487
1558723131.906166,50735.500,8103,8,GX,1,100,20.538
1558723131.922853,50747.750,8103,8,GX,1,100,21.042
1558723131.939540,50760.000,8103,8,GX,1,100,16.617
1558723131.956227,50772.250,8103,8,GX,1,100,11.993
1558723131.972913,50784.500,8103,8,GX,1,100,5.875
1558723131.989600,50796.750,8103,8,GX,1,100,2.274
1558723132.006287,50809.000,8103,8,GX,1,100,-0.687
1558723132.022936,50821.222,8121,9,GX,1,100,-4.288
1558723132.039585,50833.444,8121,9,GX,1,100,-3.830
1558723132.056234,50845.667,8121,9,GX,1,100,-3.494
1558723132.072882,50857.889,8121,9,GX,1,100,-1.053
1558723132.089531,50870.111,8121,9,GX,1,100,-4.807
1558723132.106180,50882.333,8121,9,GX,1,100,-5.035
1558723132.122829,50894.556,8121,9,GX,1,100,-4.318
1558723132.139478,50906.778,8121,9,GX,1,100,-5.829
1558723132.156127,50919.000,8121,9,GX,1,100,-7.324
1558723132.172863,50931.286,8142,14,GX,1,100,-8.408
1558723132.189598,50943.571,8142,14,GX,1,100,-8.865
1558723132.206333,50955.857,8142,14,GX,1,100,-5.005
1558723132.223069,50968.143,8142,14,GX,1,100,-3.464
1558723132.239804,50980.429,8142,14,GX,1,100,-1.648
1558723132.256539,50992.714,8142,14,GX,1,100,-1.038
1558723132.273275,51005.000,8142,14,GX,1,100,1.083
1558723132.290010,51017.286,8142,14,GX,1,100,0.702
1558723132.306746,51029.571,8142,14,GX,1,100,0.580
1558723132.323481,51041.857,8142,14,GX,1,100,-1.877
1558723132.340216,51054.143,8142,14,GX,1,100,-2.930
1558723132.356952,51066.429,8142,14,GX,1,100,-3.479
1558723132.373687,51078.714,8142,14,GX,1,100,-2.045
1558723132.390423,51091.000,8142,14,GX,1,100,-2.304
1558723132.407547,51103.571,8161,7,GX,1,100,0.519
1558723132.424672,51116.143,8161,7,GX,1,100,-2.121
1558723132.441797,51128.714,8161,7,GX,1,100,-2.792
1558723132.458921,51141.286,8161,7,GX,1,100,-8.789
1558723132.476046,51153.857,8161,7,GX,1,100,-16.632
1558723132.493170,51166.429,8161,7,GX,1,100,-19.775
1558723132.510295,51179.000,8161,7,GX,1,100,-14.435
1558723132.527152,51191.375,8180,8,GX,1,100,-1.205
1558723132.544009,51203.750,8180,8,GX,1,100,13.474
1558723132.560866,51216.125,8180,8,GX,1,100,42.908
1558723132.577723,51228.500,8180,8,GX,1,100,45.929
1558723132.594580,51240.875,8180,8,GX,1,100,40.573
1558723132.611437,51253.250,8180,8,GX,1,100,44.968
1558723132.628294,51265.625,8180,8,GX,1,100,34.500
1558723132.645151,51278.000,8180,8,GX,1,100,-17.166
1558723132.661497,51290.000,8199,9,GX,1,100,15.991
1558723132.677844,51302.000,8199,9,GX,1,100,26.611
1558723132.694190,51314.000,8199,9,GX,1,100,21.301
1558723132.710536,51326.000,8199,9,GX,1,100,13.657
1558723132.726882,51338.000,8199,9,GX,1,100,8.560
1558723132.743228,51350.000,8199,9,GX,1,100,14.297
1558723132.759574,51362.000,8199,9,GX,1,100,16.434
1558723132.775921,51374.000,8199,9,GX,1,100,19.730
1558723132.792267,51386.000,8199,9,GX,1,100,22.308
1558723132.808783,51398.125,8217,8,GX,1,100,28.030
1558723132.825300,51410.250,8217,8,GX,1,100,24.887
1558723132.841816,51422.375,8217,8,GX,1,100,14.008
1558723132.858333,51434.500,8217,8,GX,1,100,11.475
1558723132.874849,51446.625,8217,8,GX,1,100,7.858
1558723132.891366,51458.750,8217,8,GX,1,100,7.950
1558723132.907882,51470.875,8217,8,GX,1,100,9.064
1558723132.924399,51483.000,8217,8,GX,1,100,8.606
1558723132.941086,51495.250,8235,8,GX,1,100,11.520
1558723132.957772,51507.500,8235,8,GX,1,100,10.132
1558723132.974459,51519.750,8235,8,GX,1,100,12.344
1558723132.991146,51532.000,8235,8,GX,1,100,8.698
1558723133.007833,51544.250,8235,8,GX,1,100,7.828
1558723133.024519,51556.500,8235,8,GX,1,100,9.338
1558723133.041206,51568.750,8235,8,GX,1,100,14.099
1558723133.057893,51581.000,8235,8,GX,1,100,10.742
1558723133.074844,51593.444,8253,9,GX,1,100,6.622
1558723133.091796,51605.889,8253,9,GX,1,100,7.797
1558723133.108748,51618.333,8253,9,GX,1,100,3.967
1558723133.125699,51630.778,8253,9,GX,1,100,6.042
1558723133.142651,51643.222,8253,9,GX,1,100,4.242
1558723133.159602,51655.667,8253,9,GX,1,100,4.547
1558723133.176554,51668.111,8253,9,GX,1,100,1.297
1558723133.193506,51680.556,8253,9,GX,1,100,1.999
1558723133.210457,51693.000,8253,9,GX,1,100,-0.992
1558723133.227144,51705.250,8271,8,GX,1,100,4.868
1558723133.243831,51717.500,8271,8,GX,1,100,2.762
1558723133.260518,51729.750,8271,8,GX,1,100,3.326
1558723133.277204,51742.000,8271,8,GX,1,100,7.568
1558723133.293891,51754.250,8271,8,GX,1,100,6.409
1558723133.310578,51766.500,8271,8,GX,1,100,8.484
1558723133.327265,51778.750,8271,8,GX,1,100,8.316
1558723133.343951,51791.000,8271,8,GX,1,100,10.117
1558723133.360638,51803.250,8289,8,GX,1,100,11.826
1558723133.377325,51815.500,8289,8,GX,1,100,7.980
1558723133.394012,51827.750,8289,8,GX,1,100,3.769
1558723133.410698,51840.000,8289,8,GX,1,100,1.389
1558723133.427385,51852.250,8289,8,GX,1,100,3.525
1558723133.444072,51864.500,8289,8,GX,1,100,4.929
1558723133.460759,51876.750,8289,8,GX,1,100,5.142
1558723133.477445,51889.000,8289,8,GX,1,100,5.585
1558723133.494473,51901.500,8307,8,GX,1,100,4.517
1558723133.511500,51914.000,8307,8,GX,1,100,5.447
1558723133.528527,51926.500,8307,8,GX,1,100,6.363
1558723133.545555,51939.000,8307,8,GX,1,100,5.890
1558723133.562582,51951.500,8307,8,GX,1,100,9.018
1558723133.579609,51964.000,8307,8,GX,1,100,8.087
1558723133.596637,51976.500,8307,8,GX,1,100,6.866
1558723133.613664,51989.000,8307,8,GX,1,100,14.236
1558723133.630180,52001.125,8326,8,GX,1,100,19.348
1558723133.646697,52013.250,8326,8,GX,1,100,16.647
1558723133.663213,52025.375,8326,8,GX,1,100,8.392
1558723133.679730,52037.500,8326,8,GX,1,100,8.682
1558723133.696246,52049.625,8326,8,GX,1,100,11.276
1558723133.712763,52061.750,8326,8,GX,1,100,15.366
1558723133.729279,52073.875,8326,8,GX,1,100,16.754
1558723133.745796,52086.000,8326,8,GX,1,100,16.937
1558723133.762444,52098.222,8344,9,GX,1,100,12.924
1558723133.779094,52110.444,8344,9,GX,1,100,10.513
1558723133.795742,52122.667,8344,9,GX,1,100,11.322
1558723133.812391,52134.889,8344,9,GX,1,100,17.853
1558723133.829040,52147.111,8344,9,GX,1,100,21.866
1558723133.845689,52159.333,8344,9,GX,1,100,15.472
1558723133.862338,52171.556,8344,9,GX,1,100,15.717
1558723133.878987,52183.778,8344,9,GX,1,100,9.979
1558723133.895636,52196.000,8344,9,GX,1,100,6.210
1558723133.911982,52208.000,8362,8,GX,1,100,12.314
1558723133.928328,52220.000,8362,8,GX,1,100,21.652
1558723133.944674,52232.000,8362,8,GX,1,100,15.259
1558723133.961021,52244.000,8362,8,GX,1,100,11.444
1558723133.977367,52256.000,8362,8,GX,1,100,2.670
1558723133.993713,52268.000,8362,8,GX,1,100,6.592
1558723134.010059,52280.000,8362,8,GX,1,100,12.985
1558723134.026406,52292.000,8362,8,GX,1,100,16.113
1558723134.043092,52304.250,8380,8,GX,1,100,10.681
1558723134.059779,52316.500,8380,8,GX,1,100,8.011
1558723134.076466,52328.750,8380,8,GX,1,100,4.593
1558723134.093153,52341.000,8380,8,GX,1,100,7.431
1558723134.109839,52353.250,8380,8,GX,1,100,-6.683
1558723134.126526,52365.500,8380,8,GX,1,100,-18.661
1558723134.143213,52377.750,8380,8,GX,1,100,-28.442
1558723134.159899,52390.000,8380,8,GX,1,100,-26.260
1558723134.176757,52402.375,8398,8,GX,1,100,-21.301
1558723134.193614,52414.750,8398,8,GX,1,100,-2.426
1558723134.210471,52427.125,8398,8,GX,1,100,-12.772
1558723134.227328,52439.500,8398,8,GX,1,100,-21.576
1558723134.244185,52451.875,8398,8,GX,1,100,-29.861
1558723134.261042,52464.250,8398,8,GX,1,100,-18.494
1558723134.277899,52476.625,8398,8,GX,1,100,-0.320
1558723134.294756,52489.000,8398,8,GX,1,100,5.692
1558723134.311405,52501.222,8416,9,GX,1,100,-0.153
1558723134.328053,52513.444,8416,9,GX,1,100,-2.151
1558723134.344702,52525.667,8416,9,GX,1,100,-7.156
1558723134.361351,52537.889,8416,9,GX,1,100,-7.782
1558723134.378000,52550.111,8416,9,GX,1,100,-3.235
1558723134.394649,52562.333,8416,9,GX,1,100,-4.410
1558723134.411298,52574.556,8416,9,GX,1,100,0.839
1558723134.427947,52586.778,8416,9,GX,1,100,1.465
1558723134.444596,52599.000,8416,9,GX,1,100,-1.434
1558723134.461453,52611.375,8434,8,GX,1,100,-7.401
1558723134.478310,52623.750,8434,8,GX,1,100,-3.510
1558723134.495167,52636.125,8434,8,GX,1,100,-2.792
1558723134.512024,52648.500,8434,8,GX,1,100,-2.441
1558723134.528881,52660.875,8434,8,GX,1,100,-0.641
1558723134.545738,52673.250,8434,8,GX,1,100,-0.809
1558723134.562595,52685.625,8434,8,GX,1,100,1.358
1558723134.579452,52698.000,8434,8,GX,1,100,-0.046
1558723134.595969,52710.125,8452,8,GX,1,100,3.082
1558723134.612485,52722.250,8452,8,GX,1,100,2.304
1558723134.629002,52734.375,8452,8,GX,1,100,8.102
1558723134.645518,52746.500,8452,8,GX,1,100,1.968
1558723134.662035,52758.625,8452,8,GX,1,100,6.027
1558723134.678551,52770.750,8452,8,GX,1,100,-0.549
1558723134.695068,52782.875,8452,8,GX,1,100,-2.701
1558723134.711584,52795.000,8452,8,GX,1,100,-0.900
1558723134.727930,52807.000,8471,9,GX,1,100,-1.495
1558723134.744277,52819.000,8471,9,GX,1,100,-2.380
1558723134.760623,52831.000,8471,9,GX,1,100,-3.448
1558723134.776969,52843.000,8471,9,GX,1,100,1.999
1558723134.793315,52855.000,8471,9,GX,1,100,5.447
1558723134.809661,52867.000,8471,9,GX,1,100,8.911
1558723134.826007,52879.000,8471,9,GX,1,100,6.500
1558723134.842354,52891.000,8471,9,GX,1,100,4.089
1558723134.858700,52903.000,8471,9,GX,1,100,2.182
1558723134.874876,52914.875,8489,8,GX,1,100,-2.441
1558723134.891052,52926.750,8489,8,GX,1,100,-2.838
1558723134.907228,52938.625,8489,8,GX,1,100,-1.419
1558723134.923404,52950.500,8489,8,GX,1,100,1.419
1558723134.939579,52962.375,8489,8,GX,1,100,3.754
1558723134.955755,52974.250,8489,8,GX,1,100,2.914
1558723134.971931,52986.125,8489,8,GX,1,100,1.480
1558723134.988107,52998.000,8489,8,GX,1,100,-0.381
1558723135.004794,53010.250,8507,8,GX,1,100,-0.488
1558723135.021481,53022.500,8507,8,GX,1,100,-1.740
1558723135.038168,53034.750,8507,8,GX,1,100,-2.228
1558723135.054854,53047.000,8507,8,GX,1,100,-1.526
1558723135.071541,53059.250,8507,8,GX,1,100,1.144
1558723135.088228,53071.500,8507,8,GX,1,100,2.335
1558723135.104915,53083.750,8507,8,GX,1,100,-0.214
1558723135.121601,53096.000,8507,8,GX,1,100,-3.815
1558723135.138402,53108.333,8525,9,GX,1,100,-6.165
1558723135.155202,53120.667,8525,9,GX,1,100,-5.737
1558723135.172002,53133.000,8525,9,GX,1,100,-1.068
1558723135.188802,53145.333,8525,9,GX,1,100,0.656
1558723135.205603,53157.667,8525,9,GX,1,100,1.190
1558723135.222403,53170.000,8525,9,GX,1,100,1.740
1558723135.239203,53182.333,8525,9,GX,1,100,0.381
1558723135.256004,53194.667,8525,9,GX,1,100,-3.143
1558723135.272804,53207.000,8525,9,GX,1,100,-0.702
1558723135.289661,53219.375,8543,8,GX,1,100,-0.641
1558723135.306518,53231.750,8543,8,GX,1,100,0.107
1558723135.323375,53244.125,8543,8,GX,1,100,-1.450
1558723135.340232,53256.500,8543,8,GX,1,100,-0.473
1558723135.357089,53268.875,8543,8,GX,1,100,0.122
1558723135.373946,53281.250,8543,8,GX,1,100,1.709
1558723135.390803,53293.625,8543,8,GX,1,100,2.869
1558723135.407660,53306.000,8543,8,GX,1,100,0.839
1558723135.424517,53318.375,8561,8,GX,1,100,1.328
1558723135.441374,53330.750,8561,8,GX,1,100,0.931
1558723135.458231,53343.125,8561,8,GX,1,100,-0.107
1558723135.475088,53355.500,8561,8,GX,1,100,-0.610
1558723135.491945,53367.875,8561,8,GX,1,100,0.259
1558723135.508802,53380.250,8561,8,GX,1,100,-0.412
1558723135.525659,53392.625,8561,8,GX,1,100,-0.488
1558723135.542516,53405.000,8561,8,GX,1,100,-1.099
1558723135.559203,53417.250,8579,8,GX,1,100,-2.075
1558723135.575890,53429.500,8579,8,GX,1,100,-0.687
1558723135.592577,53441.750,8579,8,GX,1,100,0.122
1558723135.609263,53454.000,8579,8,GX,1,100,0.275
1558723135.625950,53466.250,8579,8,GX,1,100,-0.366
1558723135.642637,53478.500,8579,8,GX,1,100,-0.198
1558723135.659323,53490.750,8579,8,GX,1,100,-1.343
1558723135.676010,53503.000,8579,8,GX,1,100,-0.137
1558723135.692697,53515.250,8598,8,GX,1,100,0.870
1558723135.709384,53527.500,8598,8,GX,1,100,0.092
1558723135.726070,53539.750,8598,8,GX,1,100,-0.656
1558723135.742757,53552.000,8598,8,GX,1,100,1.480
1558723135.759444,53564.250,8598,8,GX,1,100,2.319
1558723135.776131,53576.500,8598,8,GX,1,100,0.198
1558723135.792818,53588.750,8598,8,GX,1,100,1.266
1558723135.809504,53601.000,8598,8,GX,1,100,-0.961
1558723135.826002,53613.111,8616,9,GX,1,100,2.701
1558723135.842499,53625.222,8616,9,GX,1,100,-1.144
1558723135.858997,53637.333,8616,9,GX,1,100,1.373
1558723135.875494,53649.444,8616,9,GX,1,100,-0.092
1558723135.891992,53661.556,8616,9,GX,1,100,-2.121
1558723135.908490,53673.667,8616,9,GX,1,100,-2.808
1558723135.924987,53685.778,8616,9,GX,1,100,-1.434
1558723135.941485,53697.889,8616,9,GX,1,100,-0.534
1558723135.957982,53710.000,8616,9,GX,1,100,-2.457
1558723135.974499,53722.125,8634,8,GX,1,100,-1.755
1558723135.991015,53734.250,8634,8,GX,1,100,-2.029
1558723136.007532,53746.375,8634,8,GX,1,100,0.824
1558723136.024048,53758.500,8634,8,GX,1,100,2.411
1558723136.040565,53770.625,8634,8,GX,1,100,-0.107
1558723136.057081,53782.750,8634,8,GX,1,100,2.991
1558723136.073598,53794.875,8634,8,GX,1,100,1.602
1558723136.090114,53807.000,8634,8,GX,1,100,1.114
1558723136.106631,53819.125,8652,8,GX,1,100,-2.518
1558723136.123147,53831.250,8652,8,GX,1,100,0.122
1558723136.139663,53843.375,8652,8,GX,1,100,-0.580
1558723136.156180,53855.500,8652,8,GX,1,100,-1.678
1558723136.172697,53867.625,8652,8,GX,1,100,-1.373
1558723136.189213,53879.750,8652,8,GX,1,100,-0.992
1558723136.205729,53891.875,8652,8,GX,1,100,-0.443
1558723136.222246,53904.000,8652,8,GX,1,100,-0.763
1558723136.239103,53916.375,8670,8,GX,1,100,-1.083
1558723136.255960,53928.750,8670,8,GX,1,100,-0.153
1558723136.272817,53941.125,8670,8,GX,1,100,0.732
1558723136.289674,53953.500,8670,8,GX,1,100,1.083
1558723136.306531,53965.875,8670,8,GX,1,100,1.373
1558723136.323388,53978.250,8670,8,GX,1,100,0.839
1558723136.340245,53990.625,8670,8,GX,1,100,-3.799
1558723136.357102,54003.000,8670,8,GX,1,100,-1.938
1558723136.373902,54015.333,8688,9,GX,1,100,-1.236
1558723136.390703,54027.667,8688,9,GX,1,100,4.898
1558723136.407503,54040.000,8688,9,GX,1,100,12.024
1558723136.424303,54052.333,8688,9,GX,1,100,7.660
1558723136.441103,54064.667,8688,9,GX,1,100,14.252
1558723136.457904,54077.000,8688,9,GX,1,100,23.682
1558723136.474704,54089.333,8688,9,GX,1,100,24.323
1558723136.491504,54101.667,8688,9,GX,1,100,21.561
1558723136.508305,54114.000,8688,9,GX,1,100,11.353
1558723136.525332,54126.500,8706,8,GX,1,100,11.612
1558723136.542359,54139.000,8706,8,GX,1,100,10.223
1558723136.559386,54151.500,8706,8,GX,1,100,12.131
1558723136.576414,54164.000,8706,8,GX,1,100,21.393
1558723136.593441,54176.500,8706,8,GX,1,100,26.428
1558723136.610468,54189.000,8706,8,GX,1,100,25.803
1558723136.627496,54201.500,8706,8,GX,1,100,22.293
1558723136.644523,54214.000,8706,8,GX,1,100,6.287
1558723136.661210,54226.250,8725,8,GX,1,100,2.182
1558723136.677896,54238.500,8725,8,GX,1,100,-6.989
1558723136.694583,54250.750,8725,8,GX,1,100,1.663
1558723136.711270,54263.000,8725,8,GX,1,100,-2.319
1558723136.727957,54275.250,8725,8,GX,1,100,-2.914
1558723136.744643,54287.500,8725,8,GX,1,100,0.793
1558723136.761330,54299.750,8725,8,GX,1,100,0.275
1558723136.778017,54312.000,8725,8,GX,1,100,-1.022
1558723136.794363,54324.000,8743,9,GX,1,100,-1.343
1558723136.810709,54336.000,8743,9,GX,1,100,-5.157
1558723136.827056,54348.000,8743,9,GX,1,100,-1.205
1558723136.843402,54360.000,8743,9,GX,1,100,3.647
1558723136.859748,54372.000,8743,9,GX,1,100,3.448
1558723136.876094,54384.000,8743,9,GX,1,100,2.808
1558723136.892440,54396.000,8743,9,GX,1,100,2.106
1558723136.908787,54408.000,8743,9,GX,1,100,7.935
1558723136.925133,54420.000,8743,9,GX,1,100,7.538
1558723136.941649,54432.125,8761,8,GX,1,100,4.181
1558723136.958166,54444.250,8761,8,GX,1,100,10.971
1558723136.974682,54456.375,8761,8,GX,1,100,6.027
1558723136.991199,54468.500,8761,8,GX,1,100,10.086
1558723137.007715,54480.625,8761,8,GX,1,100,7.462
1558723137.024232,54492.750,8761,8,GX,1,100,2.319
1558723137.040748,54504.875,8761,8,GX,1,100,2.487
1558723137.057265,54517.000,8761,8,GX,1,100,3.845
1558723137.073781,54529.125,8779,8,GX,1,100,1.907
1558723137.090298,54541.250,8779,8,GX,1,100,1.968
1558723137.106814,54553.375,8779,8,GX,1,100,-0.504
1558723137.123331,54565.500,8779,8,GX,1,100,-3.632
1558723137.139847,54577.625,8779,8,GX,1,100,-12.833
1558723137.156363,54589.750,8779,8,GX,1,100,-15.442
1558723137.172880,54601.875,8779,8,GX,1,100,-18.600
1558723137.189397,54614.000,8779,8,GX,1,100,-18.661
1558723137.206083,54626.250,8797,8,GX,1,100,-15.869
1558723137.222770,54638.500,8797,8,GX,1,100,-16.113
1558723137.239457,54650.750,8797,8,GX,1,100,-12.985
1558723137.256144,54663.000,8797,8,GX,1,100,-10.086
1558723137.272830,54675.250,8797,8,GX,1,100,-4.349
1558723137.289517,54687.500,8797,8,GX,1,100,-1.297
1558723137.306204,54699.750,8797,8,GX,1,100,3.143
1558723137.322891,54712.000,8797,8,GX,1,100,7.645
1558723137.339691,54724.333,8815,9,GX,1,100,8.881
1558723137.356491,54736.667,8815,9,GX,1,100,4.486
1558723137.373291,54749.000,8815,9,GX,1,100,1.785
1558723137.390092,54761.333,8815,9,GX,1,100,-1.709
1558723137.406892,54773.667,8815,9,GX,1,100,-3.937
1558723137.423692,54786.000,8815,9,GX,1,100,-4.211
1558723137.440492,54798.333,8815,9,GX,1,100,-6.256
1558723137.457293,54810.667,8815,9,GX,1,100,-6.393
1558723137.474093,54823.000,8815,9,GX,1,100,-6.851
1558723137.490780,54835.250,8833,8,GX,1,100,-8.987
1558723137.507467,54847.500,8833,8,GX,1,100,-10.239
1558723137.524153,54859.750,8833,8,GX,1,100,-9.903
1558723137.540840,54872.000,8833,8,GX,1,100,-11.963
1558723137.557527,54884.250,8833,8,GX,1,100,-12.009
1558723137.574214,54896.500,8833,8,GX,1,100,-9.109
1558723137.590900,54908.750,8833,8,GX,1,100,-6.577
1558723137.607587,54921.000,8833,8,GX,1,100,-5.630
1558723137.624274,54933.250,8851,8,GX,1,100,-3.586
1558723137.640960,54945.500,8851,8,GX,1,100,-0.397
1558723137.657647,54957.750,8851,8,GX,1,100,1.892
1558723137.674334,54970.000,8851,8,GX,1,100,5.005
1558723137.691021,54982.250,8851,8,GX,1,100,13.702
1558723137.707707,54994.500,8851,8,GX,1,100,18.250
1558723137.724394,55006.750,8851,8,GX,1,100,12.390
1558723137.741081,55019.000,8851,8,GX,1,100,-0.977
1558723137.757597,55031.125,8870,8,GX,1,100,-3.983
1558723137.774114,55043.250,8870,8,GX,1,100,-8.789
1558723137.790630,55055.375,8870,8,GX,1,100,-10.315
1558723137.807147,55067.500,8870,8,GX,1,100,-12.070
1558723137.823663,55079.625,8870,8,GX,1,100,-18.280
1558723137.840180,55091.750,8870,8,GX,1,100,0.015
1558723137.856696,55103.875,8870,8,GX,1,100,0.076
1558723137.873213,55116.000,8870,8,GX,1,100,-1.343
1558723137.889559,55128.000,8888,9,GX,1,100,-4.944
1558723137.905905,55140.000,8888,9,GX,1,100,-8.209
1558723137.922251,55152.000,8888,9,GX,1,100,-0.931
1558723137.938598,55164.000,8888,9,GX,1,100,2.167
1558723137.954944,55176.000,8888,9,GX,1,100,4.547
1558723137.971290,55188.000,8888,9,GX,1,100,1.984
1558723137.987636,55200.000,8888,9,GX,1,100,0.427
1558723138.003983,55212.000,8888,9,GX,1,100,-3.128
1558723138.020329,55224.000,8888,9,GX,1,100,-3.876
1558723138.036845,55236.125,8906,8,GX,1,100,-4.562
1558723138.053362,55248.250,8906,8,GX,1,100,-4.501
1558723138.069878,55260.375,8906,8,GX,1,100,-6.821
1558723138.086395,55272.500,8906,8,GX,1,100,-7.614
1558723138.102911,55284.625,8906,8,GX,1,100,-10.300
1558723138.119427,55296.750,8906,8,GX,1,100,-10.147
1558723138.135944,55308.875,8906,8,GX,1,100,-6.912
1558723138.152461,55321.000,8906,8,GX,1,100,-1.205
1558723138.168977,55333.125,8924,8,GX,1,100,1.663
1558723138.185493,55345.250,8924,8,GX,1,100,0.916
1558723138.202010,55357.375,8924,8,GX,1,100,-2.487
1558723138.218526,55369.500,8924,8,GX,1,100,-3.128
1558723138.235043,55381.625,8924,8,GX,1,100,6.958
1558723138.251559,55393.750,8924,8,GX,1,100,11.429
1558723138.268076,55405.875,8924,8,GX,1,100,9.232
1558723138.284592,55418.000,8924,8,GX,1,100,-0.076
1558723138.301544,55430.444,8942,9,GX,1,100,-5.142
1558723138.318496,55442.889,8942,9,GX,1,100,-6.866
1558723138.335447,55455.333,8942,9,GX,1,100,-11.673
1558723138.352399,55467.778,8942,9,GX,1,100,-15.091
1558723138.369350,55480.222,8942,9,GX,1,100,-18.860
1558723138.386302,55492.667,8942,9,GX,1,100,-10.757
1558723138.403254,55505.111,8942,9,GX,1,100,-3.433
1558723138.420205,55517.556,8942,9,GX,1,100,-1.236
1558723138.437157,55530.000,8942,9,GX,1,100,0.351
1558723138.453844,55542.250,8960,8,GX,1,100,1.694
1558723138.470531,55554.500,8960,8,GX,1,100,2.975
1558723138.487217,55566.750,8960,8,GX,1,100,1.831
1558723138.503904,55579.000,8960,8,GX,1,100,1.984
1558723138.520591,55591.250,8960,8,GX,1,100,-1.068
1558723138.537277,55603.500,8960,8,GX,1,100,-0.595
1558723138.553964,55615.750,8960,8,GX,1,100,-0.961
1558723138.570651,55628.000,8960,8,GX,1,100,-0.671
1558723138.587508,55640.375,8978,8,GX,1,100,-2.258
1558723138.604365,55652.750,8978,8,GX,1,100,-2.014
1558723138.621222,55665.125,8978,8,GX,1,100,-0.992
1558723138.638079,55677.500,8978,8,GX,1,100,-1.266
1558723138.654936,55689.875,8978,8,GX,1,100,-0.534
1558723138.671793,55702.250,8978,8,GX,1,100,0.183
1558723138.688650,55714.625,8978,8,GX,1,100,0.076
1558723138.705507,55727.000,8978,8,GX,1,100,-0.931
1558723138.722364,55739.375,8997,8,GX,1,100,-0.916
1558723138.739221,55751.750,8997,8,GX,1,100,-0.183
1558723138.756078,55764.125,8997,8,GX,1,100,-0.229
1558723138.772935,55776.500,8997,8,GX,1,100,-2.350
1558723138.789792,55788.875,8997,8,GX,1,100,-3.128
1558723138.806649,55801.250,8997,8,GX,1,100,-1.450
1558723138.823506,55813.625,8997,8,GX,1,100,-1.556
1558723138.840363,55826.000,8997,8,GX,1,100,-1.007
1558723138.856709,55838.000,9015,9,GX,1,100,-2.411
1558723138.873056,55850.000,9015,9,GX,1,100,-0.565
1558723138.889402,55862.000,9015,9,GX,1,100,0.748
1558723138.905748,55874.000,9015,9,GX,1,100,-0.977
1558723138.922094,55886.000,9015,9,GX,1,100,-0.900
1558723138.938441,55898.000,9015,9,GX,1,100,-0.580
1558723138.954787,55910.000,9015,9,GX,1,100,-0.793
1558723138.971133,55922.000,9015,9,GX,1,100,1.419
1558723138.987479,55934.000,9015,9,GX,1,100,0.137
1558723139.003996,55946.125,9033,8,GX,1,100,-2.716
1558723139.020512,55958.250,9033,8,GX,1,100,-2.625
1558723139.037029,55970.375,9033,8,GX,1,100,-3.281
1558723139.053545,55982.500,9033,8,GX,1,100,-1.099
1558723139.070062,55994.625,9033,8,GX,1,100,-0.549
1558723139.086578,56006.750,9033,8,GX,1,100,-0.900
1558723139.103095,56018.875,9033,8,GX,1,100,-0.381
1558723139.119611,56031.000,9033,8,GX,1,100,0.076
1558723139.136411,56043.333,9054,15,GX,1,100,-0.320
1558723139.153212,56055.667,9054,15,GX,1,100,-2.731
1558723139.170012,56068.000,9054,15,GX,1,100,-1.877
1558723139.186812,56080.333,9054,15,GX,1,100,-0.427
1558723139.203612,56092.667,9054,15,GX,1,100,-2.487
1558723139.220413,56105.000,9054,15,GX,1,100,-2.487
1558723139.237213,56117.333,9054,15,GX,1,100,-2.975
1558723139.254013,56129.667,9054,15,GX,1,100,-2.930
1558723139.270813,56142.000,9054,15,GX,1,100,-2.716
1558723139.287614,56154.333,9054,15,GX,1,100,-2.075
1558723139.304414,56166.667,9054,15,GX,1,100,-3.067
1558723139.321214,56179.000,9054,15,GX,1,100,-3.235
1558723139.338015,56191.333,9054,15,GX,1,100,-0.809
1558723139.354815,56203.667,9054,15,GX,1,100,-0.748
1558723139.371615,56216.000,9054,15,GX,1,100,-1.083
1558723139.388156,56228.143,9073,7,GX,1,100,-2.289
1558723139.404697,56240.286,9073,7,GX,1,100,-2.563
1558723139.421237,56252.429,9073,7,GX,1,100,0.473
1558723139.437778,56264.571,9073,7,GX,1,100,0.168
1558723139.454319,56276.714,9073,7,GX,1,100,-0.336
1558723139.470860,56288.857,9073,7,GX,1,100,-1.343
1558723139.487401,56301.000,9073,7,GX,1,100,0.305
1558723139.504087,56313.250,9092,8,GX,1,100,-0.305
1558723139.520774,56325.500,9092,8,GX,1,100,-2.228
1558723139.537461,56337.750,9092,8,GX,1,100,-2.335
1558723139.554148,56350.000,9092,8,GX,1,100,-3.494
1558723139.570834,56362.250,9092,8,GX,1,100,-2.274
1558723139.587521,56374.500,9092,8,GX,1,100,-1.343
1558723139.604208,56386.750,9092,8,GX,1,100,-2.594
1558723139.620895,56399.000,9092,8,GX,1,100,-2.930
1558723139.637752,56411.375,9110,8,GX,1,100,-2.869
1558723139.654609,56423.750,9110,8,GX,1,100,-2.533
1558723139.671466,56436.125,9110,8,GX,1,100,-0.366
1558723139.688323,56448.500,9110,8,GX,1,100,0.153
1558723139.705180,56460.875,9110,8,GX,1,100,0.519
1558723139.722037,56473.250,9110,8,GX,1,100,-0.092
1558723139.738894,56485.625,9110,8,GX,1,100,-0.351
1558723139.755751,56498.000,9110,8,GX,1,100,-1.343
1558723139.772702,56510.444,9129,9,GX,1,100,-0.320
1558723139.789654,56522.889,9129,9,GX,1,100,0.366
1558723139.806606,56535.333,9129,9,GX,1,100,-0.519
1558723139.823557,56547.778,9129,9,GX,1,100,-0.290
1558723139.840509,56560.222,9129,9,GX,1,100,-0.168
1558723139.857461,56572.667,9129,9,GX,1,100,-0.595
1558723139.874412,56585.111,9129,9,GX,1,100,-0.519
1558723139.891364,56597.556,9129,9,GX,1,100,-0.549
1558723139.908316,56610.000,9129,9,GX,1,100,-0.992
1558723139.924832,56622.125,9147,8,GX,1,100,-0.763
1558723139.941349,56634.250,9147,8,GX,1,100,0.198
1558723139.957865,56646.375,9147,8,GX,1,100,1.114
1558723139.974381,56658.500,9147,8,GX,1,100,0.168
1558723139.990898,56670.625,9147,8,GX,1,100,-0.488
1558723140.007414,56682.750,9147,8,GX,1,100,-1.511
1558723140.023931,56694.875,9147,8,GX,1,100,-2.304
1558723140.040447,56707.000,9147,8,GX,1,100,-0.961
1558723140.057304,56719.375,9165,8,GX,1,100,-1.801
1558723140.074162,56731.750,9165,8,GX,1,100,-1.602
1558723140.091018,56744.125,9165,8,GX,1,100,0.626
1558723140.107876,56756.500,9165,8,GX,1,100,0.366
1558723140.124732,56768.875,9165,8,GX,1,100,-1.694
1558723140.141590,56781.250,9165,8,GX,1,100,-0.961
1558723140.158447,56793.625,9165,8,GX,1,100,-1.770
1558723140.175304,56806.000,9165,8,GX,1,100,-0.824
1558723140.191650,56818.000,9183,9,GX,1,100,-1.373
1558723140.207996,56830.000,9183,9,GX,1,100,-1.068
1558723140.224342,56842.000,9183,9,GX,1,100,-1.328
1558723140.240688,56854.000,9183,9,GX,1,100,-0.931
1558723140.257035,56866.000,9183,9,GX,1,100,-1.007
1558723140.273381,56878.000,9183,9,GX,1,100,-1.663
1558723140.289727,56890.000,9183,9,GX,1,100,-0.488
1558723140.306073,56902.000,9183,9,GX,1,100,1.144
1558723140.322419,56914.000,9183,9,GX,1,100,0.687
1558723140.339106,56926.250,9201,8,GX,1,100,-0.641
1558723140.355793,56938.500,9201,8,GX,1,100,-1.343
1558723140.372480,56950.750,9201,8,GX,1,100,-0.809
1558723140.389166,56963.000,9201,8,GX,1,100,-1.373
1558723140.405853,56975.250,9201,8,GX,1,100,-1.617
1558723140.422540,56987.500,9201,8,GX,1,100,-2.960
1558723140.439227,56999.750,9201,8,GX,1,100,-1.755
1558723140.455914,57012.000,9201,8,GX,1,100,-1.602
1558723140.472430,57024.125,9219,8,GX,1,100,-2.365
1558723140.488946,57036.250,9219,8,GX,1,100,-1.663
1558723140.505463,57048.375,9219,8,GX,1,100,-0.671
1558723140.521979,57060.500,9219,8,GX,1,100,-0.504
1558723140.538496,57072.625,9219,8,GX,1,100,-0.381
1558723140.555012,57084.750,9219,8,GX,1,100,-0.473
1558723140.571529,57096.875,9219,8,GX,1,100,-0.717
1558723140.588045,57109.000,9219,8,GX,1,100,-1.297
1558723140.604902,57121.375,9237,8,GX,1,100,-2.716
1558723140.621759,57133.750,9237,8,GX,1,100,-2.029
1558723140.638616,57146.125,9237,8,GX,1,100,-1.221
1558723140.655473,57158.500,9237,8,GX,1,100,-0.214
1558723140.672330,57170.875,9237,8,GX,1,100,-1.022
1558723140.689188,57183.250,9237,8,GX,1,100,-1.038
1558723140.706044,57195.625,9237,8,GX,1,100,-0.610
1558723140.722902,57208.000,9237,8,GX,1,100,-1.038
1558723140.739758,57220.375,9256,8,GX,1,100,-1.251
1558723140.756616,57232.750,9256,8,GX,1,100,-0.336
1558723140.773473,57245.125,9256,8,GX,1,100,-1.572
1558723140.790330,57257.500,9256,8,GX,1,100,-1.541
1558723140.807187,57269.875,9256,8,GX,1,100,-0.931
1558723140.824044,57282.250,9256,8,GX,1,100,-0.946
1558723140.840901,57294.625,9256,8,GX,1,100,-0.732
1558723140.857758,57307.000,9256,8,GX,1,100,-0.427
1558723140.874407,57319.222,9274,9,GX,1,100,-0.900
1558723140.891056,57331.444,9274,9,GX,1,100,-0.809
1558723140.907704,57343.667,9274,9,GX,1,100,-2.457
1558723140.924353,57355.889,9274,9,GX,1,100,-2.838
1558723140.941002,57368.111,9274,9,GX,1,100,-1.511
1558723140.957651,57380.333,9274,9,GX,1,100,-1.740
1558723140.974300,57392.556,9274,9,GX,1,100,-1.907
1558723140.990949,57404.778,9274,9,GX,1,100,-0.916
1558723141.007598,57417.000,9274,9,GX,1,100,-1.312
1558723141.024114,57429.125,9292,8,GX,1,100,-1.648
1558723141.040631,57441.250,9292,8,GX,1,100,-1.984
1558723141.057147,57453.375,9292,8,GX,1,100,-2.045
1558723141.073664,57465.500,9292,8,GX,1,100,-1.312
1558723141.090180,57477.625,9292,8,GX,1,100,-0.717
1558723141.106697,57489.750,9292,8,GX,1,100,-0.671
1558723141.123213,57501.875,9292,8,GX,1,100,-0.824
1558723141.139730,57514.000,9292,8,GX,1,100,-0.610
1558723141.156076,57526.000,9310,9,GX,1,100,-1.099
1558723141.172422,57538.000,9310,9,GX,1,100,0.061
1558723141.188768,57550.000,9310,9,GX,1,100,0.092
1558723141.205115,57562.000,9310,9,GX,1,100,-0.336
1558723141.221461,57574.000,9310,9,GX,1,100,-0.565
1558723141.237807,57586.000,9310,9,GX,1,100,-1.144
1558723141.254153,57598.000,9310,9,GX,1,100,-1.434
1558723141.270499,57610.000,9310,9,GX,1,100,-1.923
1558723141.286846,57622.000,9310,9,GX,1,100,-0.488
1558723141.303362,57634.125,9328,8,GX,1,100,0.458
1558723141.319879,57646.250,9328,8,GX,1,100,-0.137
1558723141.336395,57658.375,9328,8,GX,1,100,-1.709
1558723141.352911,57670.500,9328,8,GX,1,100,-2.396
1558723141.369428,57682.625,9328,8,GX,1,100,-3.143
1558723141.385945,57694.750,9328,8,GX,1,100,-2.350
1558723141.402461,57706.875,9328,8,GX,1,100,-1.389
1558723141.418977,57719.000,9328,8,GX,1,100,0.946
1558723141.435494,57731.125,9346,8,GX,1,100,-0.092
1558723141.452010,57743.250,9346,8,GX,1,100,-0.824
1558723141.468527,57755.375,9346,8,GX,1,100,-1.602
1558723141.485043,57767.500,9346,8,GX,1,100,-1.633
1558723141.501560,57779.625,9346,8,GX,1,100,-0.992
1558723141.518076,57791.750,9346,8,GX,1,100,-1.114
1558723141.534593,57803.875,9346,8,GX,1,100,-2.060
1558723141.551109,57816.000,9346,8,GX,1,100,-2.182
1558723141.567796,57828.250,9364,8,GX,1,100,-2.548
1558723141.584483,57840.500,9364,8,GX,1,100,-2.579
1558723141.601170,57852.750,9364,8,GX,1,100,-3.036
1558723141.617856,57865.000,9364,8,GX,1,100,-2.304
1558723141.634543,57877.250,9364,8,GX,1,100,-0.641
1558723141.651230,57889.500,9364,8,GX,1,100,-1.404
1558723141.667917,57901.750,9364,8,GX,1,100,-0.458
1558723141.684603,57914.000,9364,8,GX,1,100,-0.061
1558723141.701460,57926.375,9383,8,GX,1,100,0.290
1558723141.718317,57938.750,9383,8,GX,1,100,0.183
1558723141.735174,57951.125,9383,8,GX,1,100,0.687
1558723141.752031,57963.500,9383,8,GX,1,100,1.495
1558723141.768888,57975.875,9383,8,GX,1,100,0.778
1558723141.785745,57988.250,9383,8,GX,1,100,-0.076
1558723141.802603,58000.625,9383,8,GX,1,100,-1.816
1558723141.819459,58013.000,9383,8,GX,1,100,-1.755
1558723141.836108,58025.222,9401,9,GX,1,100,-1.740
1558723141.852757,58037.444,9401,9,GX,1,100,-1.938
1558723141.869406,58049.667,9401,9,GX,1,100,-2.502
1558723141.886055,58061.889,9401,9,GX,1,100,-0.275
1558723141.902704,58074.111,9401,9,GX,1,100,-0.381
1558723141.919353,58086.333,9401,9,GX,1,100,-0.183
1558723141.936002,58098.556,9401,9,GX,1,100,-0.916
1558723141.952651,58110.778,9401,9,GX,1,100,-0.366
1558723141.969300,58123.000,9401,9,GX,1,100,-0.275
1558723141.985646,58135.000,9419,8,GX,1,100,-1.038
1558723142.001992,58147.000,9419,8,GX,1,100,0.641
1558723142.018338,58159.000,9419,8,GX,1,100,0.900
1558723142.034685,58171.000,9419,8,GX,1,100,-0.092
1558723142.051031,58183.000,9419,8,GX,1,100,-0.610
1558723142.067377,58195.000,9419,8,GX,1,100,0.992
1558723142.083723,58207.000,9419,8,GX,1,100,0.748
1558723142.100070,58219.000,9419,8,GX,1,100,-0.168
1558723142.116926,58231.375,9437,8,GX,1,100,-0.549
1558723142.133784,58243.750,9437,8,GX,1,100,-1.099
1558723142.150640,58256.125,9437,8,GX,1,100,-1.663
1558723142.167498,58268.500,9437,8,GX,1,100,-2.274
1558723142.184355,58280.875,9437,8,GX,1,100,-2.289
1558723142.201212,58293.250,9437,8,GX,1,100,-2.319
1558723142.218069,58305.625,9437,8,GX,1,100,-1.709
1558723142.234926,58318.000,9437,8,GX,1,100,-1.114
1558723142.251272,58330.000,9455,9,GX,1,100,-1.053
1558723142.267618,58342.000,9455,9,GX,1,100,-1.541
1558723142.283964,58354.000,9455,9,GX,1,100,-1.892
1558723142.300310,58366.000,9455,9,GX,1,100,-1.740
1558723142.316657,58378.000,9455,9,GX,1,100,-1.770
1558723142.333003,58390.000,9455,9,GX,1,100,-1.572
1558723142.349349,58402.000,9455,9,GX,1,100,-0.717
1558723142.365695,58414.000,9455,9,GX,1,100,-1.251
1558723142.382041,58426.000,9455,9,GX,1,100,-1.495
1558723142.398728,58438.250,9473,8,GX,1,100,-1.907
1558723142.415415,58450.500,9473,8,GX,1,100,-2.579
1558723142.432102,58462.750,9473,8,GX,1,100,-2.335
1558723142.448788,58475.000,9473,8,GX,1,100,-1.907
1558723142.465475,58487.250,9473,8,GX,1,100,-0.351
1558723142.482162,58499.500,9473,8,GX,1,100,-0.381
1558723142.498849,58511.750,9473,8,GX,1,100,-0.381
1558723142.515536,58524.000,9473,8,GX,1,100,-0.702
1558723142.532393,58536.375,9491,8,GX,1,100,-1.541
1558723142.549250,58548.750,9491,8,GX,1,100,-2.411
1558723142.566107,58561.125,9491,8,GX,1,100,-1.633
1558723142.582964,58573.500,9491,8,GX,1,100,-1.556
1558723142.599821,58585.875,9491,8,GX,1,100,-0.671
1558723142.616678,58598.250,9491,8,GX,1,100,-0.488
1558723142.633535,58610.625,9491,8,GX,1,100,-0.977
1558723142.650392,58623.000,9491,8,GX,1,100,-1.740
1558723142.667249,58635.375,9509,8,GX,1,100,-3.189
1558723142.684106,58647.750,9509,8,GX,1,100,-3.632
1558723142.700963,58660.125,9509,8,GX,1,100,-0.641
1558723142.717820,58672.500,9509,8,GX,1,100,0.229
1558723142.734677,58684.875,9509,8,GX,1,100,-0.595
1558723142.751534,58697.250,9509,8,GX,1,100,-1.297
1558723142.768391,58709.625,9509,8,GX,1,100,-2.441
1558723142.785248,58722.000,9509,8,GX,1,100,-2.533
1558723142.801935,58734.250,9528,8,GX,1,100,-1.175
1558723142.818621,58746.500,9528,8,GX,1,100,0.366
1558723142.835308,58758.750,9528,8,GX,1,100,0.549
1558723142.851995,58771.000,9528,8,GX,1,100,0.031
1558723142.868682,58783.250,9528,8,GX,1,100,-0.534
1558723142.885368,58795.500,9528,8,GX,1,100,-0.336
1558723142.902055,58807.750,9528,8,GX,1,100,-0.717
1558723142.918742,58820.000,9528,8,GX,1,100,-1.312
1558723142.935542,58832.333,9546,9,GX,1,100,-1.282
1558723142.952343,58844.667,9546,9,GX,1,100,-1.617
1558723142.969143,58857.000,9546,9,GX,1,100,-0.778
1558723142.985943,58869.333,9546,9,GX,1,100,-0.290
1558723143.002743,58881.667,9546,9,GX,1,100,-0.732
1558723143.019544,58894.000,9546,9,GX,1,100,-0.656
1558723143.036344,58906.333,9546,9,GX,1,100,-0.687
1558723143.053144,58918.667,9546,9,GX,1,100,-1.755
1558723143.069944,58931.000,9546,9,GX,1,100,-3.723
1558723143.086461,58943.125,9564,8,GX,1,100,-5.020
1558723143.102977,58955.250,9564,8,GX,1,100,-4.700
1558723143.119494,58967.375,9564,8,GX,1,100,-2.899
1558723143.136010,58979.500,9564,8,GX,1,100,-1.633
1558723143.152527,58991.625,9564,8,GX,1,100,-0.641
1558723143.169043,59003.750,9564,8,GX,1,100,-0.229
1558723143.185560,59015.875,9564,8,GX,1,100,-1.053
1558723143.202076,59028.000,9564,8,GX,1,100,-1.480
1558723143.218763,59040.250,9582,8,GX,1,100,-2.228
1558723143.235450,59052.500,9582,8,GX,1,100,-1.129
1558723143.252136,59064.750,9582,8,GX,1,100,-0.504
1558723143.268823,59077.000,9582,8,GX,1,100,-0.031
1558723143.285510,59089.250,9582,8,GX,1,100,-0.244
1558723143.302197,59101.500,9582,8,GX,1,100,-0.397
1558723143.318883,59113.750,9582,8,GX,1,100,-0.671
1558723143.335570,59126.000,9582,8,GX,1,100,-0.916
1558723143.352068,59138.111,9600,9,GX,1,100,-0.458
1558723143.368565,59150.222,9600,9,GX,1,100,-0.351
1558723143.385063,59162.333,9600,9,GX,1,100,-1.114
1558723143.401561,59174.444,9600,9,GX,1,100,-1.480
1558723143.418058,59186.556,9600,9,GX,1,100,-1.938
1558723143.434556,59198.667,9600,9,GX,1,100,-1.358
1558723143.451053,59210.778,9600,9,GX,1,100,-1.251
1558723143.467551,59222.889,9600,9,GX,1,100,-1.846
1558723143.484048,59235.000,9600,9,GX,1,100,-1.480
1558723143.501076,59247.500,9618,8,GX,1,100,-0.610
1558723143.518103,59260.000,9618,8,GX,1,100,-1.038
1558723143.535130,59272.500,9618,8,GX,1,100,-1.053
1558723143.552157,59285.000,9618,8,GX,1,100,-0.793
1558723143.569185,59297.500,9618,8,GX,1,100,-0.351
1558723143.586212,59310.000,9618,8,GX,1,100,0.107
1558723143.603239,59322.500,9618,8,GX,1,100,-0.076
1558723143.620267,59335.000,9618,8,GX,1,100,-0.778
1558723143.636953,59347.250,9636,8,GX,1,100,-0.305
1558723143.653640,59359.500,9636,8,GX,1,100,0.351
1558723143.670327,59371.750,9636,8,GX,1,100,-0.626
1558723143.687014,59384.000,9636,8,GX,1,100,-1.755
1558723143.703700,59396.250,9636,8,GX,1,100,-1.175
1558723143.720387,59408.500,9636,8,GX,1,100,-1.144
1558723143.737074,59420.750,9636,8,GX,1,100,-0.046
1558723143.753761,59433.000,9636,8,GX,1,100,-1.190
1558723143.770788,59445.500,9655,8,GX,1,100,-1.389
1558723143.787815,59458.000,9655,8,GX,1,100,-1.633
1558723143.804842,59470.500,9655,8,GX,1,100,-2.197
1558723143.821870,59483.000,9655,8,GX,1,100,-1.755
1558723143.838897,59495.500,9655,8,GX,1,100,-1.083
1558723143.855924,59508.000,9655,8,GX,1,100,-0.183
1558723143.872952,59520.500,9655,8,GX,1,100,-0.732
1558723143.889979,59533.000,9655,8,GX,1,100,-1.740
1558723143.907006,59545.500,9673,8,GX,1,100,-1.190
1558723143.924034,59558.000,9673,8,GX,1,100,-1.175
1558723143.941061,59570.500,9673,8,GX,1,100,-1.709
1558723143.958088,59583.000,9673,8,GX,1,100,-0.626
1558723143.975116,59595.500,9673,8,GX,1,100,-0.198
1558723143.992143,59608.000,9673,8,GX,1,100,-0.702
1558723144.009170,59620.500,9673,8,GX,1,100,-0.900
1558723144.026197,59633.000,9673,8,GX,1,100,-1.984
1558723144.042695,59645.111,9691,9,GX,1,100,-0.793
1558723144.059193,59657.222,9691,9,GX,1,100,-0.183
1558723144.075690,59669.333,9691,9,GX,1,100,0.046
1558723144.092188,59681.444,9691,9,GX,1,100,-0.336
1558723144.108685,59693.556,9691,9,GX,1,100,-0.671
1558723144.125183,59705.667,9691,9,GX,1,100,-0.961
1558723144.141680,59717.778,9691,9,GX,1,100,-0.961
1558723144.158178,59729.889,9691,9,GX,1,100,-1.312
1558723144.174675,59742.000,9691,9,GX,1,100,-1.968
1558723144.191362,59754.250,9709,8,GX,1,100,-2.075
1558723144.208049,59766.500,9709,8,GX,1,100,-2.472
1558723144.224736,59778.750,9709,8,GX,1,100,-3.998
1558723144.241422,59791.000,9709,8,GX,1,100,-4.379
1558723144.258109,59803.250,9709,8,GX,1,100,-4.059
1558723144.274796,59815.500,9709,8,GX,1,100,-10.223
1558723144.291483,59827.750,9709,8,GX,1,100,-12.054
1558723144.308170,59840.000,9709,8,GX,1,100,-14.023
1558723144.324345,59851.875,9727,8,GX,1,100,-13.016
1558723144.340521,59863.750,9727,8,GX,1,100,-10.773
1558723144.356697,59875.625,9727,8,GX,1,100,-8.896
1558723144.372873,59887.500,9727,8,GX,1,100,-2.716
1558723144.389049,59899.375,9727,8,GX,1,100,-0.870
1558723144.405225,59911.250,9727,8,GX,1,100,-0.488
1558723144.421401,59923.125,9727,8,GX,1,100,-0.641
1558723144.437577,59935.000,9727,8,GX,1,100,-0.168
1558723144.453923,59947.000,9745,9,GX,1,100,-0.244
1558723144.470269,59959.000,9745,9,GX,1,100,-0.748
1558723144.486616,59971.000,9745,9,GX,1,100,-0.763
1558723144.502962,59983.000,9745,9,GX,1,100,0.656
1558723144.519308,59995.000,9745,9,GX,1,100,2.029
1558723144.535654,60007.000,9745,9,GX,1,100,3.143
1558723144.552001,60019.000,9745,9,GX,1,100,4.211
1558723144.568347,60031.000,9745,9,GX,1,100,0.992
1558723144.584693,60043.000,9745,9,GX,1,100,0.443
1558723144.601380,60055.250,9763,8,GX,1,100,0.977
1558723144.618066,60067.500,9763,8,GX,1,100,1.968
1558723144.634753,60079.750,9763,8,GX,1,100,0.259
1558723144.651440,60092.000,9763,8,GX,1,100,-0.214
1558723144.668127,60104.250,9763,8,GX,1,100,0.366
1558723144.684813,60116.500,9763,8,GX,1,100,0.153
1558723144.701500,60128.750,9763,8,GX,1,100,0.107
1558723144.718187,60141.000,9763,8,GX,1,100,0.015
1558723144.735044,60153.375,9781,8,GX,1,100,1.328
1558723144.751901,60165.750,9781,8,GX,1,100,-0.122
1558723144.768758,60178.125,9781,8,GX,1,100,-0.732
1558723144.785615,60190.500,9781,8,GX,1,100,-1.007
1558723144.802472,60202.875,9781,8,GX,1,100,-2.121
1558723144.819329,60215.250,9781,8,GX,1,100,-2.213
1558723144.836186,60227.625,9781,8,GX,1,100,-1.068
1558723144.853043,60240.000,9781,8,GX,1,100,-1.389
1558723144.869560,60252.125,9800,8,GX,1,100,-2.487
1558723144.886076,60264.250,9800,8,GX,1,100,-0.763
1558723144.902592,60276.375,9800,8,GX,1,100,-0.198
1558723144.919109,60288.500,9800,8,GX,1,100,-0.092
1558723144.935626,60300.625,9800,8,GX,1,100,0.839
1558723144.952142,60312.750,9800,8,GX,1,100,0.992
1558723144.968658,60324.875,9800,8,GX,1,100,0.412
1558723144.985175,60337.000,9800,8,GX,1,100,-0.320
1558723145.001975,60349.333,9818,9,GX,1,100,-0.351
1558723145.018775,60361.667,9818,9,GX,1,100,-0.656
1558723145.035576,60374.000,9818,9,GX,1,100,-1.221
1558723145.052376,60386.333,9818,9,GX,1,100,-1.480
1558723145.069176,60398.667,9818,9,GX,1,100,-0.198
1558723145.085977,60411.000,9818,9,GX,1,100,-0.671
1558723145.102777,60423.333,9818,9,GX,1,100,-0.916
1558723145.119577,60435.667,9818,9,GX,1,100,-0.473
1558723145.136377,60448.000,9818,9,GX,1,100,-0.992
1558723145.152724,60460.000,9836,8,GX,1,100,-1.129
1558723145.169070,60472.000,9836,8,GX,1,100,-1.617
1558723145.185416,60484.000,9836,8,GX,1,100,-1.953
1558723145.201762,60496.000,9836,8,GX,1,100,-1.450
1558723145.218108,60508.000,9836,8,GX,1,100,1.938
1558723145.234455,60520.000,9836,8,GX,1,100,1.648
1558723145.250801,60532.000,9836,8,GX,1,100,1.526
1558723145.267147,60544.000,9836,8,GX,1,100,1.846
1558723145.283664,60556.125,9854,8,GX,1,100,1.358
1558723145.300180,60568.250,9854,8,GX,1,100,1.083
1558723145.316696,60580.375,9854,8,GX,1,100,2.075
1558723145.333213,60592.500,9854,8,GX,1,100,2.182
1558723145.349729,60604.625,9854,8,GX,1,100,2.365
1558723145.366246,60616.750,9854,8,GX,1,100,1.801
1558723145.382762,60628.875,9854,8,GX,1,100,1.694
1558723145.399279,60641.000,9854,8,GX,1,100,1.404
1558723145.415625,60653.000,9872,9,GX,1,100,0.824
1558723145.431971,60665.000,9872,9,GX,1,100,-0.076
1558723145.448318,60677.000,9872,9,GX,1,100,1.923
1558723145.464664,60689.000,9872,9,GX,1,100,4.715
1558723145.481010,60701.000,9872,9,GX,1,100,5.539
1558723145.497356,60713.000,9872,9,GX,1,100,5.295
1558723145.513702,60725.000,9872,9,GX,1,100,3.769
1558723145.530048,60737.000,9872,9,GX,1,100,3.662
1558723145.546395,60749.000,9872,9,GX,1,100,3.494
1558723145.563252,60761.375,9890,8,GX,1,100,4.684
1558723145.580109,60773.750,9890,8,GX,1,100,2.884
1558723145.596966,60786.125,9890,8,GX,1,100,1.083
1558723145.613823,60798.500,9890,8,GX,1,100,-0.320
1558723145.630680,60810.875,9890,8,GX,1,100,-0.290
1558723145.647537,60823.250,9890,8,GX,1,100,-2.609
1558723145.664394,60835.625,9890,8,GX,1,100,-4.135
1558723145.681251,60848.000,9890,8,GX,1,100,-3.281
1558723145.698108,60860.375,9908,8,GX,1,100,-4.883
1558723145.714965,60872.750,9908,8,GX,1,100,-4.303
1558723145.731822,60885.125,9908,8,GX,1,100,-4.166
1558723145.748679,60897.500,9908,8,GX,1,100,-4.501
1558723145.765536,60909.875,9908,8,GX,1,100,-3.067
1558723145.782393,60922.250,9908,8,GX,1,100,-2.930
1558723145.799250,60934.625,9908,8,GX,1,100,-3.067
1558723145.816107,60947.000,9908,8,GX,1,100,-3.311
1558723145.832794,60959.250,9927,8,GX,1,100,-2.411
1558723145.849481,60971.500,9927,8,GX,1,100,-1.419
1558723145.866167,60983.750,9927,8,GX,1,100,1.129
1558723145.882854,60996.000,9927,8,GX,1,100,0.656
1558723145.899541,61008.250,9927,8,GX,1,100,0.610
1558723145.916228,61020.500,9927,8,GX,1,100,0.687
1558723145.932914,61032.750,9927,8,GX,1,100,1.480
1558723145.949601,61045.000,9927,8,GX,1,100,1.648
1558723145.966458,61057.375,9945,8,GX,1,100,1.495
1558723145.983315,61069.750,9945,8,GX,1,100,1.160
1558723146.000172,61082.125,9945,8,GX,1,100,0.519
1558723146.017029,61094.500,9945,8,GX,1,100,0.153
1558723146.033886,61106.875,9945,8,GX,1,100,0.671
1558723146.050743,61119.250,9945,8,GX,1,100,0.839
1558723146.067600,61131.625,9945,8,GX,1,100,0.443
1558723146.084457,61144.000,9945,8,GX,1,100,-0.061
1558723146.101076,61156.200,9966,15,GX,1,100,-1.511
1558723146.117695,61168.400,9966,15,GX,1,100,-1.556
1558723146.134313,61180.600,9966,15,GX,1,100,-1.724
1558723146.150932,61192.800,9966,15,GX,1,100,-3.830
1558723146.167551,61205.000,9966,15,GX,1,100,-2.243
1558723146.184169,61217.200,9966,15,GX,1,100,-1.648
1558723146.200788,61229.400,9966,15,GX,1,100,-1.801
1558723146.217407,61241.600,9966,15,GX,1,100,-1.999
1558723146.234025,61253.800,9966,15,GX,1,100,-2.182
1558723146.250644,61266.000,9966,15,GX,1,100,-1.495
1558723146.267262,61278.200,9966,15,GX,1,100,0.702
1558723146.283881,61290.400,9966,15,GX,1,100,1.862
1558723146.300500,61302.600,9966,15,GX,1,100,2.518
1558723146.317118,61314.800,9966,15,GX,1,100,2.213
1558723146.333737,61327.000,9966,15,GX,1,100,1.343
1558723146.350083,61339.000,9986,7,GX,1,100,1.129
1558723146.366429,61351.000,9986,7,GX,1,100,0.290
1558723146.382776,61363.000,9986,7,GX,1,100,0.946
1558723146.399122,61375.000,9986,7,GX,1,100,0.198
1558723146.415468,61387.000,9986,7,GX,1,100,-0.061
1558723146.431814,61399.000,9986,7,GX,1,100,-1.236
1558723146.448160,61411.000,9986,7,GX,1,100,-0.839
1558723146.464677,61423.125,10004,8,GX,1,100,-0.168
1558723146.481193,61435.250,10004,8,GX,1,100,0.305
1558723146.497710,61447.375,10004,8,GX,1,100,1.190
1558723146.514226,61459.500,10004,8,GX,1,100,0.732
1558723146.530743,61471.625,10004,8,GX,1,100,-0.244
1558723146.547259,61483.750,10004,8,GX,1,100,-1.999
1558723146.563776,61495.875,10004,8,GX,1,100,-2.182
1558723146.580292,61508.000,10004,8,GX,1,100,-1.328
1558723146.597490,61520.625,10022,8,GX,1,100,-2.396
1558723146.614687,61533.250,10022,8,GX,1,100,-2.258
1558723146.631885,61545.875,10022,8,GX,1,100,-1.404
1558723146.649082,61558.500,10022,8,GX,1,100,-2.258
1558723146.666280,61571.125,10022,8,GX,1,100,-2.853
1558723146.683478,61583.750,10022,8,GX,1,100,-2.747
1558723146.700675,61596.375,10022,8,GX,1,100,-2.274
1558723146.717873,61609.000,10022,8,GX,1,100,-2.151
1558723146.734824,61621.444,10040,9,GX,1,100,-1.328
1558723146.751776,61633.889,10040,9,GX,1,100,-1.221
1558723146.768728,61646.333,10040,9,GX,1,100,-0.107
1558723146.785679,61658.778,10040,9,GX,1,100,-1.404
1558723146.802631,61671.222,10040,9,GX,1,100,-1.175
1558723146.819582,61683.667,10040,9,GX,1,100,-0.900
1558723146.836534,61696.111,10040,9,GX,1,100,-2.899
1558723146.853486,61708.556,10040,9,GX,1,100,-2.396
1558723146.870437,61721.000,10040,9,GX,1,100,-0.610
1558723146.887295,61733.375,10059,8,GX,1,100,-2.304
1558723146.904151,61745.750,10059,8,GX,1,100,-1.282
1558723146.921009,61758.125,10059,8,GX,1,100,-1.389
1558723146.937865,61770.500,10059,8,GX,1,100,-0.732
1558723146.954722,61782.875,10059,8,GX,1,100,0.580
1558723146.971580,61795.250,10059,8,GX,1,100,0.137
1558723146.988436,61807.625,10059,8,GX,1,100,0.443
1558723147.005294,61820.000,10059,8,GX,1,100,-0.153
1558723147.022321,61832.500,10077,8,GX,1,100,1.801
1558723147.039348,61845.000,10077,8,GX,1,100,-0.641
1558723147.056376,61857.500,10077,8,GX,1,100,-1.114
1558723147.073403,61870.000,10077,8,GX,1,100,-4.608
1558723147.090430,61882.500,10077,8,GX,1,100,-4.440
1558723147.107457,61895.000,10077,8,GX,1,100,-3.693
1558723147.124485,61907.500,10077,8,GX,1,100,-2.075
1558723147.141512,61920.000,10077,8,GX,1,100,-1.221
1558723147.157858,61932.000,10095,8,GX,1,100,0.412
1558723147.174204,61944.000,10095,8,GX,1,100,-1.877
1558723147.190551,61956.000,10095,8,GX,1,100,-2.823
1558723147.206897,61968.000,10095,8,GX,1,100,-2.686
1558723147.223243,61980.000,10095,8,GX,1,100,-0.366
1558723147.239589,61992.000,10095,8,GX,1,100,-3.052
1558723147.255935,62004.000,10095,8,GX,1,100,-4.730
1558723147.272282,62016.000,10095,8,GX,1,100,-0.214
1558723147.288779,62028.111,10113,9,GX,1,100,0.992
1558723147.305277,62040.222,10113,9,GX,1,100,-1.251
1558723147.321774,62052.333,10113,9,GX,1,100,-0.275
1558723147.338272,62064.444,10113,9,GX,1,100,3.128
1558723147.354769,62076.556,10113,9,GX,1,100,2.289
1558723147.371267,62088.667,10113,9,GX,1,100,3.708
1558723147.387764,62100.778,10113,9,GX,1,100,3.021
1558723147.404262,62112.889,10113,9,GX,1,100,2.151
1558723147.420760,62125.000,10113,9,GX,1,100,0.656
1558723147.437106,62137.000,10131,8,GX,1,100,0.168
1558723147.453452,62149.000,10131,8,GX,1,100,1.022
1558723147.469798,62161.000,10131,8,GX,1,100,1.022
1558723147.486145,62173.000,10131,8,GX,1,100,-0.763
1558723147.502491,62185.000,10131,8,GX,1,100,-0.748
1558723147.518837,62197.000,10131,8,GX,1,100,-1.175
1558723147.535183,62209.000,10131,8,GX,1,100,-0.153
1558723147.551529,62221.000,10131,8,GX,1,100,0.702
1558723147.568046,62233.125,10149,8,GX,1,100,-0.610
1558723147.584562,62245.250,10149,8,GX,1,100,-1.328
1558723147.601079,62257.375,10149,8,GX,1,100,-1.984
1558723147.617595,62269.500,10149,8,GX,1,100,-1.877
1558723147.634112,62281.625,10149,8,GX,1,100,-0.290
1558723147.650628,62293.750,10149,8,GX,1,100,-0.290
1558723147.667145,62305.875,10149,8,GX,1,100,-0.931
1558723147.683661,62318.000,10149,8,GX,1,100,-1.266
1558723147.700461,62330.333,10167,9,GX,1,100,-2.228
1558723147.717262,62342.667,10167,9,GX,1,100,-1.968
