EpochTimestamp,EmotiBitTimestamp,PacketNumber,DataLength,TypeTag,ProtocolVersion,DataReliability,H0
1558723108.990828,33913.000,5109,4,H0,1,100,113.026
1558723108.990828,33913.000,5109,4,H0,1,100,113.011
1558723108.990828,33913.000,5109,4,H0,1,100,113.011
1558723108.990828,33913.000,5109,4,H0,1,100,113.019
1558723109.123641,34010.500,5127,2,H0,1,100,113.015
1558723109.256454,34108.000,5127,2,H0,1,100,112.999
1558723109.392672,34208.000,5146,1,H0,1,100,113.015
1558723109.527528,34307.000,5164,1,H0,1,100,113.011
1558723109.661022,34405.000,5182,1,H0,1,100,113.022
1558723109.793154,34502.000,5200,1,H0,1,100,113.019
1558723109.928010,34601.000,5218,1,H0,1,100,113.015
1558723110.058780,34697.000,5236,1,H0,1,100,113.022
1558723110.190912,34794.000,5254,1,H0,1,100,113.026
1558723110.325768,34893.000,5273,1,H0,1,100,113.030
1558723110.457900,34990.000,5291,1,H0,1,100,113.015
1558723110.591394,35088.000,5309,1,H0,1,100,113.030
1558723110.724888,35186.000,5327,1,H0,1,100,113.026
1558723110.857020,35283.000,5345,1,H0,1,100,113.034
1558723110.987789,35379.000,5363,1,H0,1,100,113.045
1558723111.119921,35476.000,5381,1,H0,1,100,113.034
1558723111.253415,35574.000,5403,2,H0,1,100,113.038
1558723111.386909,35672.000,5403,2,H0,1,100,113.034
1558723111.520403,35770.000,5423,1,H0,1,100,113.041
1558723111.655260,35869.000,5441,1,H0,1,100,113.038
1558723111.788754,35967.000,5459,1,H0,1,100,113.030
1558723111.920885,36064.000,5477,1,H0,1,100,113.030
1558723112.051655,36160.000,5495,1,H0,1,100,113.026
1558723112.186511,36259.000,5513,1,H0,1,100,113.026
1558723112.320005,36357.000,5532,1,H0,1,100,113.038
1558723112.452137,36454.000,5550,1,H0,1,100,113.030
1558723112.588356,36554.000,5568,1,H0,1,100,113.034
1558723112.723212,36653.000,5586,1,H0,1,100,113.030
1558723112.856706,36751.000,5604,1,H0,1,100,113.045
1558723112.988837,36848.000,5622,1,H0,1,100,113.061
1558723113.123694,36947.000,5640,1,H0,1,100,113.049
1558723113.254463,37043.000,5659,1,H0,1,100,113.034
1558723113.389320,37142.000,5677,2,H0,1,100,113.038
1558723113.524176,37241.000,5677,2,H0,1,100,113.038
1558723113.660394,37341.000,5695,1,H0,1,100,113.022
1558723113.793888,37439.000,5713,1,H0,1,100,113.038
1558723113.927382,37537.000,5731,1,H0,1,100,113.019
1558723114.060876,37635.000,5749,1,H0,1,100,113.041
1558723114.190284,37730.000,5767,1,H0,1,100,113.041
1558723114.322416,37827.000,5785,1,H0,1,100,113.045
1558723114.455910,37925.000,5804,1,H0,1,100,113.057
1558723114.588042,38022.000,5822,1,H0,1,100,113.049
1558723114.721535,38120.000,5840,1,H0,1,100,113.061
1558723114.856392,38219.000,5858,1,H0,1,100,113.041
1558723114.988523,38316.000,5876,1,H0,1,100,113.072
1558723115.119293,38412.000,5894,1,H0,1,100,113.049
1558723115.251425,38509.000,5912,1,H0,1,100,113.038
1558723115.383557,38606.000,5931,1,H0,1,100,113.064
1558723115.518413,38705.000,5949,1,H0,1,100,113.049
1558723115.651907,38803.000,5967,1,H0,1,100,113.061
1558723115.786763,38902.000,5985,1,H0,1,100,113.057
1558723115.921619,39001.000,6003,1,H0,1,100,113.049
1558723116.053751,39098.000,6021,1,H0,1,100,113.057
1558723116.184521,39194.000,6039,1,H0,1,100,113.061
1558723116.319377,39293.000,6057,1,H0,1,100,113.053
1558723116.452871,39391.000,6076,1,H0,1,100,113.057
1558723116.586365,39489.000,6094,1,H0,1,100,113.064
1558723116.722584,39589.000,6112,1,H0,1,100,113.061
1558723116.858802,39689.000,6130,1,H0,1,100,113.057
1558723116.990934,39786.000,6148,1,H0,1,100,113.068
1558723117.123066,39883.000,6166,1,H0,1,100,113.061
1558723117.256560,39981.000,6184,1,H0,1,100,113.064
1558723117.385967,40076.000,6203,1,H0,1,100,113.061
1558723117.520142,40174.500,6221,2,H0,1,100,113.064
1558723117.654317,40273.000,6221,2,H0,1,100,113.061
1558723117.786449,40370.000,6239,1,H0,1,100,113.064
1558723117.919943,40468.000,6257,1,H0,1,100,113.076
1558723118.052075,40565.000,6275,1,H0,1,100,113.076
1558723118.184207,40662.000,6293,1,H0,1,100,113.087
1558723118.314976,40758.000,6314,1,H0,1,100,113.087
1558723118.447109,40855.000,6335,1,H0,1,100,113.095
1558723118.580602,40953.000,6353,1,H0,1,100,113.072
1558723118.715459,41052.000,6371,1,H0,1,100,113.083
1558723118.848953,41150.000,6389,1,H0,1,100,113.068
1558723118.983809,41249.000,6407,1,H0,1,100,113.072
1558723119.116622,41346.500,6425,2,H0,1,100,113.083
1558723119.249435,41444.000,6425,2,H0,1,100,113.080
1558723119.380204,41540.000,6443,1,H0,1,100,113.083
1558723119.515061,41639.000,6462,1,H0,1,100,113.091
1558723119.649917,41738.000,6480,1,H0,1,100,113.091
1558723119.782049,41835.000,6498,1,H0,1,100,113.095
1558723119.918267,41935.000,6516,1,H0,1,100,113.083
1558723120.053123,42034.000,6534,1,H0,1,100,113.091
1558723120.185255,42131.000,6552,1,H0,1,100,113.091
1558723120.317387,42228.000,6570,1,H0,1,100,113.095
1558723120.452243,42327.000,6589,1,H0,1,100,113.091
1558723120.583013,42423.000,6607,1,H0,1,100,113.099
1558723120.716507,42521.000,6625,1,H0,1,100,113.091
1558723120.851363,42620.000,6643,1,H0,1,100,113.099
1558723120.983495,42717.000,6661,1,H0,1,100,113.091
1558723121.118351,42816.000,6679,1,H0,1,100,113.110
1558723121.250483,42913.000,6697,1,H0,1,100,113.110
1558723121.382615,43010.000,6715,1,H0,1,100,113.095
1558723121.513384,43106.000,6734,1,H0,1,100,113.110
1558723121.646878,43204.000,6752,1,H0,1,100,113.110
1558723121.780372,43302.000,6770,1,H0,1,100,113.102
1558723121.915229,43401.000,6788,1,H0,1,100,113.122
1558723122.048723,43499.000,6806,1,H0,1,100,113.102
1558723122.182217,43597.000,6824,1,H0,1,100,113.099
1558723122.317073,43696.000,6842,1,H0,1,100,113.110
1558723122.449205,43793.000,6861,1,H0,1,100,113.106
1558723122.579974,43889.000,6879,1,H0,1,100,113.102
1558723122.714831,43988.000,6897,1,H0,1,100,113.102
1558723122.849687,44087.000,6915,1,H0,1,100,113.106
1558723122.981819,44184.000,6933,1,H0,1,100,113.102
1558723123.118037,44284.000,6951,1,H0,1,100,113.099
1558723123.251531,44382.000,6969,1,H0,1,100,113.110
1558723123.382982,44478.500,6987,2,H0,1,100,113.099
1558723123.514432,44575.000,6987,2,H0,1,100,113.102
1558723123.649289,44674.000,7006,1,H0,1,100,113.106
1558723123.780058,44770.000,7024,1,H0,1,100,113.106
1558723123.913552,44868.000,7042,1,H0,1,100,113.102
1558723124.048409,44967.000,7060,1,H0,1,100,113.114
1558723124.180540,45064.000,7078,1,H0,1,100,113.118
1558723124.312672,45161.000,7096,1,H0,1,100,113.110
1558723124.444804,45258.000,7114,1,H0,1,100,113.129
1558723124.576936,45355.000,7133,1,H0,1,100,113.137
1558723124.707705,45451.000,7151,1,H0,1,100,113.114
1558723124.841200,45549.000,7169,1,H0,1,100,113.125
1558723124.976056,45648.000,7187,1,H0,1,100,113.129
1558723125.109550,45746.000,7205,1,H0,1,100,113.122
1558723125.243044,45844.000,7226,2,H0,1,100,113.129
1558723125.376538,45942.000,7226,2,H0,1,100,113.118
1558723125.511394,46041.000,7246,1,H0,1,100,113.106
1558723125.643526,46138.000,7265,1,H0,1,100,113.118
1558723125.775658,46235.000,7283,1,H0,1,100,113.118
1558723125.911876,46335.000,7301,1,H0,1,100,113.102
1558723126.046732,46434.000,7319,1,H0,1,100,113.114
1558723126.178864,46531.000,7337,1,H0,1,100,113.129
1558723126.315083,46631.000,7355,1,H0,1,100,113.110
1558723126.448576,46729.000,7373,1,H0,1,100,113.114
1558723126.579346,46825.000,7392,1,H0,1,100,113.110
1558723126.711478,46922.000,7410,1,H0,1,100,113.106
1558723126.846334,47021.000,7428,1,H0,1,100,113.102
1558723126.979828,47119.000,7446,1,H0,1,100,113.068
1558723127.114685,47218.000,7464,1,H0,1,100,113.057
1558723127.250903,47318.000,7482,1,H0,1,100,113.022
1558723127.387121,47418.000,7500,1,H0,1,100,113.003
1558723127.516529,47513.000,7519,1,H0,1,100,113.003
1558723127.648661,47610.000,7537,1,H0,1,100,112.988
1558723127.782155,47708.000,7555,1,H0,1,100,112.977
1558723127.912924,47804.000,7573,1,H0,1,100,112.958
1558723128.046418,47902.000,7591,1,H0,1,100,112.954
1558723128.181274,48001.000,7609,1,H0,1,100,112.954
1558723128.313406,48098.000,7627,1,H0,1,100,112.927
1558723128.446900,48196.000,7645,1,H0,1,100,112.935
1558723128.579032,48293.000,7664,1,H0,1,100,112.931
1558723128.711164,48390.000,7682,1,H0,1,100,112.916
1558723128.843296,48487.000,7700,2,H0,1,100,112.912
1558723128.975428,48584.000,7700,2,H0,1,100,112.908
1558723129.110284,48683.000,7718,1,H0,1,100,112.877
1558723129.245140,48782.000,7736,1,H0,1,100,112.885
1558723129.378634,48880.000,7754,1,H0,1,100,112.851
1558723129.510766,48977.000,7772,1,H0,1,100,112.847
1558723129.644260,49075.000,7791,1,H0,1,100,112.843
1558723129.776392,49172.000,7809,1,H0,1,100,112.900
1558723129.907161,49268.000,7827,1,H0,1,100,112.958
1558723130.043380,49368.000,7845,1,H0,1,100,113.041
1558723130.179598,49468.000,7863,1,H0,1,100,113.102
1558723130.313092,49566.000,7881,1,H0,1,100,113.095
1558723130.449311,49666.000,7899,1,H0,1,100,113.114
1558723130.582805,49764.000,7917,1,H0,1,100,113.152
1558723130.712212,49859.000,7936,1,H0,1,100,113.171
1558723130.844344,49956.000,7954,1,H0,1,100,113.236
1558723130.977838,50054.000,7972,1,H0,1,100,113.312
1558723131.109970,50151.000,7990,1,H0,1,100,113.385
1558723131.243464,50249.000,8008,1,H0,1,100,113.473
1558723131.378320,50348.000,8026,1,H0,1,100,113.492
1558723131.510452,50445.000,8044,1,H0,1,100,113.411
1558723131.642584,50542.000,8063,1,H0,1,100,113.423
1558723131.774716,50639.000,8081,1,H0,1,100,113.423
1558723131.906847,50736.000,8099,1,H0,1,100,113.408
1558723132.040341,50834.000,8117,1,H0,1,100,113.442
1558723132.174516,50932.500,8138,2,H0,1,100,113.473
1558723132.308692,51031.000,8138,2,H0,1,100,113.526
1558723132.443548,51130.000,8157,1,H0,1,100,113.568
1558723132.578404,51229.000,8176,1,H0,1,100,113.545
1558723132.709174,51325.000,8195,1,H0,1,100,113.530
1558723132.844030,51424.000,8213,1,H0,1,100,113.514
1558723132.976162,51521.000,8231,1,H0,1,100,113.484
1558723133.108294,51618.000,8249,1,H0,1,100,113.465
1558723133.244512,51718.000,8267,1,H0,1,100,113.438
1558723133.379368,51817.000,8285,1,H0,1,100,113.400
1558723133.511500,51914.000,8303,1,H0,1,100,113.392
1558723133.646356,52013.000,8322,1,H0,1,100,113.366
1558723133.781212,52112.000,8340,1,H0,1,100,113.335
1558723133.911982,52208.000,8358,1,H0,1,100,113.324
1558723134.044114,52305.000,8376,1,H0,1,100,113.308
1558723134.178970,52404.000,8394,1,H0,1,100,113.282
1558723134.311102,52501.000,8412,1,H0,1,100,113.282
1558723134.444596,52599.000,8430,1,H0,1,100,113.267
1558723134.578090,52697.000,8448,2,H0,1,100,113.255
1558723134.711584,52795.000,8448,2,H0,1,100,113.255
1558723134.842354,52891.000,8467,1,H0,1,100,113.240
1558723134.974485,52988.000,8485,1,H0,1,100,113.251
1558723135.106617,53085.000,8503,1,H0,1,100,113.247
1558723135.240111,53183.000,8521,1,H0,1,100,113.240
1558723135.373605,53281.000,8539,1,H0,1,100,113.232
1558723135.508461,53380.000,8557,1,H0,1,100,113.232
1558723135.643318,53479.000,8575,1,H0,1,100,113.240
1558723135.776812,53577.000,8594,1,H0,1,100,113.217
1558723135.907582,53673.000,8612,1,H0,1,100,113.221
1558723136.042438,53772.000,8630,1,H0,1,100,113.225
1558723136.174570,53869.000,8648,1,H0,1,100,113.217
1558723136.306701,53966.000,8666,1,H0,1,100,113.217
1558723136.442920,54066.000,8684,1,H0,1,100,113.225
1558723136.577776,54165.000,8702,1,H0,1,100,113.221
1558723136.709908,54262.000,8721,1,H0,1,100,113.225
1558723136.842040,54359.000,8739,1,H0,1,100,113.209
1558723136.976896,54458.000,8757,1,H0,1,100,113.213
1558723137.107666,54554.000,8775,1,H0,1,100,113.221
1558723137.239797,54651.000,8793,1,H0,1,100,113.217
1558723137.374654,54750.000,8811,1,H0,1,100,113.228
1558723137.506785,54847.000,8829,1,H0,1,100,113.205
1558723137.640279,54945.000,8847,1,H0,1,100,113.221
1558723137.775136,55044.000,8866,1,H0,1,100,113.221
1558723137.907267,55141.000,8884,1,H0,1,100,113.228
1558723138.038037,55237.000,8902,1,H0,1,100,113.232
1558723138.170169,55334.000,8920,1,H0,1,100,113.228
1558723138.302301,55431.000,8938,1,H0,1,100,113.232
1558723138.437157,55530.000,8956,1,H0,1,100,113.228
1558723138.570651,55628.000,8974,1,H0,1,100,113.236
1558723138.705507,55727.000,8993,1,H0,1,100,113.240
1558723138.839001,55825.000,9011,2,H0,1,100,113.244
1558723138.972495,55923.000,9011,2,H0,1,100,113.236
1558723139.103265,56019.000,9029,1,H0,1,100,113.236
1558723139.238121,56118.000,9050,1,H0,1,100,113.247
1558723139.371615,56216.000,9069,1,H0,1,100,113.251
1558723139.503747,56313.000,9088,1,H0,1,100,113.236
1558723139.639965,56413.000,9106,1,H0,1,100,113.244
1558723139.774822,56512.000,9125,1,H0,1,100,113.236
1558723139.908316,56610.000,9143,1,H0,1,100,113.247
1558723140.040447,56707.000,9161,1,H0,1,100,113.259
1558723140.173260,56804.500,9179,2,H0,1,100,113.247
1558723140.306073,56902.000,9179,2,H0,1,100,113.240
1558723140.439567,57000.000,9197,1,H0,1,100,113.240
1558723140.574424,57099.000,9215,1,H0,1,100,113.244
1558723140.706555,57196.000,9233,1,H0,1,100,113.255
1558723140.841412,57295.000,9252,1,H0,1,100,113.259
1558723140.974905,57393.000,9270,1,H0,1,100,113.259
1558723141.107037,57490.000,9288,1,H0,1,100,113.251
1558723141.237807,57586.000,9306,1,H0,1,100,113.251
1558723141.369939,57683.000,9324,1,H0,1,100,113.251
1558723141.502071,57780.000,9342,1,H0,1,100,113.251
1558723141.635565,57878.000,9360,1,H0,1,100,113.267
1558723141.769059,57976.000,9379,1,H0,1,100,113.267
1558723141.902553,58074.000,9397,1,H0,1,100,113.251
1558723142.036047,58172.000,9415,1,H0,1,100,113.259
1558723142.168179,58269.000,9433,1,H0,1,100,113.267
1558723142.298948,58365.000,9451,1,H0,1,100,113.255
1558723142.433805,58464.000,9469,1,H0,1,100,113.259
1558723142.568661,58563.000,9487,1,H0,1,100,113.259
1558723142.700793,58660.000,9505,1,H0,1,100,113.278
1558723142.837011,58760.000,9524,1,H0,1,100,113.267
1558723142.971867,58859.000,9542,1,H0,1,100,113.267
1558723143.102637,58955.000,9560,1,H0,1,100,113.274
1558723143.234769,59052.000,9578,1,H0,1,100,113.278
1558723143.369625,59151.000,9596,1,H0,1,100,113.259
1558723143.503119,59249.000,9614,1,H0,1,100,113.270
1558723143.636613,59347.000,9632,1,H0,1,100,113.282
1558723143.772831,59447.000,9651,1,H0,1,100,113.274
1558723143.909050,59547.000,9669,1,H0,1,100,113.270
1558723144.042544,59645.000,9687,1,H0,1,100,113.267
1558723144.174675,59742.000,9705,1,H0,1,100,113.274
1558723144.306126,59838.500,9723,2,H0,1,100,113.286
1558723144.437577,59935.000,9723,2,H0,1,100,113.278
1558723144.571071,60033.000,9741,1,H0,1,100,113.274
1558723144.704565,60131.000,9759,1,H0,1,100,113.270
1558723144.836697,60228.000,9777,1,H0,1,100,113.301
1558723144.970191,60326.000,9796,1,H0,1,100,113.293
1558723145.103685,60424.000,9814,1,H0,1,100,113.274
1558723145.235817,60521.000,9832,1,H0,1,100,113.286
1558723145.366586,60617.000,9850,1,H0,1,100,113.305
1558723145.498718,60714.000,9868,1,H0,1,100,113.297
1558723145.632212,60812.000,9886,1,H0,1,100,113.289
1558723145.767068,60911.000,9904,1,H0,1,100,113.308
1558723145.900563,61009.000,9923,1,H0,1,100,113.286
1558723146.035419,61108.000,9941,1,H0,1,100,113.305
1558723146.168231,61205.500,9962,2,H0,1,100,113.297
1558723146.301044,61303.000,9962,2,H0,1,100,113.305
1558723146.431814,61399.000,9982,1,H0,1,100,113.286
1558723146.566670,61498.000,10000,1,H0,1,100,113.282
1558723146.702889,61598.000,10018,1,H0,1,100,113.286
1558723146.836383,61696.000,10036,1,H0,1,100,113.297
1558723146.972601,61796.000,10055,1,H0,1,100,113.301
1558723147.108819,61896.000,10073,1,H0,1,100,113.308
1558723147.239589,61992.000,10091,1,H0,1,100,113.289
1558723147.371721,62089.000,10109,1,H0,1,100,113.297
1558723147.505215,62187.000,10127,1,H0,1,100,113.305
1558723147.634623,62282.000,10145,1,H0,1,100,113.308
1558723147.768116,62380.000,10163,1,H0,1,100,113.301
1558723147.902973,62479.000,10182,1,H0,1,100,113.312
1558723148.035105,62576.000,10200,1,H0,1,100,113.297
1558723148.169961,62675.000,10218,1,H0,1,100,113.308
1558723148.302093,62772.000,10236,1,H0,1,100,113.316
1558723148.434225,62869.000,10254,1,H0,1,100,113.316
1558723148.564994,62965.000,10272,1,H0,1,100,113.305
1558723148.698488,63063.000,10290,1,H0,1,100,113.305
1558723148.831982,63161.000,10308,1,H0,1,100,113.297
1558723148.966838,63260.000,10327,1,H0,1,100,113.331
1558723149.100332,63358.000,10345,1,H0,1,100,113.312
1558723149.233826,63456.000,10363,1,H0,1,100,113.312
1558723149.367321,63554.000,10381,1,H0,1,100,113.308
1558723149.499452,63651.000,10399,1,H0,1,100,113.312
1558723149.630222,63747.000,10417,1,H0,1,100,113.320
1558723149.765078,63846.000,10435,1,H0,1,100,113.312
1558723149.901297,63946.000,10454,1,H0,1,100,113.320
1558723150.034791,64044.000,10472,1,H0,1,100,113.328
1558723150.171009,64144.000,10490,1,H0,1,100,113.320
1558723150.304503,64242.000,10508,2,H0,1,100,113.331
1558723150.437997,64340.000,10508,2,H0,1,100,113.320
1558723150.570129,64437.000,10526,1,H0,1,100,113.324
1558723150.704985,64536.000,10544,1,H0,1,100,113.331
1558723150.835755,64632.000,10562,1,H0,1,100,113.343
1558723150.969249,64730.000,10581,1,H0,1,100,113.331
1558723151.104105,64829.000,10599,1,H0,1,100,113.331
1558723151.236237,64926.000,10617,1,H0,1,100,113.343
1558723151.369731,65024.000,10635,1,H0,1,100,113.331
1558723151.501863,65121.000,10653,1,H0,1,100,113.328
1558723151.633994,65218.000,10671,1,H0,1,100,113.347
1558723151.764764,65314.000,10689,1,H0,1,100,113.343
1558723151.898258,65412.000,10707,1,H0,1,100,113.343
1558723152.033114,65511.000,10726,1,H0,1,100,113.350
1558723152.167970,65610.000,10744,1,H0,1,100,113.339
1558723152.301465,65708.000,10762,1,H0,1,100,113.347
1558723152.433596,65805.000,10780,1,H0,1,100,113.362
1558723152.568453,65904.000,10798,1,H0,1,100,113.354
1558723152.700584,66001.000,10816,1,H0,1,100,113.347
1558723152.832716,66098.000,10834,1,H0,1,100,113.350
1558723152.968935,66198.000,10853,1,H0,1,100,113.343
1558723153.102429,66296.000,10874,2,H0,1,100,113.354
1558723153.235923,66394.000,10874,2,H0,1,100,113.358
1558723153.372141,66494.000,10893,1,H0,1,100,113.350
1558723153.505635,66592.000,10912,1,H0,1,100,113.370
1558723153.636405,66688.000,10930,1,H0,1,100,113.358
1558723153.768537,66785.000,10948,1,H0,1,100,113.350
1558723153.903393,66884.000,10966,1,H0,1,100,113.350
1558723154.034163,66980.000,10985,1,H0,1,100,113.350
1558723154.167656,67078.000,11003,1,H0,1,100,113.362
1558723154.302513,67177.000,11021,1,H0,1,100,113.358
1558723154.434644,67274.000,11039,1,H0,1,100,113.362
1558723154.565414,67370.000,11057,1,H0,1,100,113.373
1558723154.697546,67467.000,11075,1,H0,1,100,113.354
1558723154.829678,67564.000,11093,1,H0,1,100,113.354
1558723154.963172,67662.000,11112,1,H0,1,100,113.385
1558723155.096666,67760.000,11130,1,H0,1,100,113.370
1558723155.231522,67859.000,11148,1,H0,1,100,113.366
1558723155.366378,67958.000,11166,1,H0,1,100,113.377
1558723155.501235,68057.000,11184,1,H0,1,100,113.377
1558723155.632004,68153.000,11202,1,H0,1,100,113.366
1558723155.766860,68252.000,11220,1,H0,1,100,113.370
1558723155.898992,68349.000,11238,1,H0,1,100,113.381
1558723156.033167,68447.500,11257,2,H0,1,100,113.370
1558723156.167342,68546.000,11257,2,H0,1,100,113.350
1558723156.302199,68645.000,11275,1,H0,1,100,113.358
1558723156.434330,68742.000,11293,1,H0,1,100,113.354
1558723156.569187,68841.000,11311,1,H0,1,100,113.362
1558723156.704043,68940.000,11329,1,H0,1,100,113.377
1558723156.834813,69036.000,11347,1,H0,1,100,113.370
1558723156.966944,69133.000,11365,1,H0,1,100,113.389
1558723157.101801,69232.000,11384,1,H0,1,100,113.385
1558723157.233932,69329.000,11402,1,H0,1,100,113.389
1558723157.367426,69427.000,11420,1,H0,1,100,113.385
1558723157.502283,69526.000,11438,1,H0,1,100,113.385
1558723157.635777,69624.000,11456,1,H0,1,100,113.389
1558723157.766546,69720.000,11474,1,H0,1,100,113.396
1558723157.898678,69817.000,11492,1,H0,1,100,113.400
1558723158.030810,69914.000,11511,1,H0,1,100,113.400
1558723158.164304,70012.000,11529,1,H0,1,100,113.389
1558723158.297798,70110.000,11547,1,H0,1,100,113.377
1558723158.431292,70208.000,11565,1,H0,1,100,113.381
1558723158.564786,70306.000,11583,1,H0,1,100,113.389
1558723158.698280,70404.000,11601,1,H0,1,100,113.392
1558723158.829050,70500.000,11619,1,H0,1,100,113.400
1558723158.963906,70599.000,11637,1,H0,1,100,113.404
1558723159.097400,70697.000,11656,1,H0,1,100,113.392
1558723159.229532,70794.000,11674,1,H0,1,100,113.381
1558723159.365750,70894.000,11692,1,H0,1,100,113.400
1558723159.500606,70993.000,11710,1,H0,1,100,113.400
1558723159.634100,71091.000,11728,1,H0,1,100,113.404
1558723159.766232,71188.000,11746,1,H0,1,100,113.400
1558723159.901088,71287.000,11764,1,H0,1,100,113.411
1558723160.033220,71384.000,11786,2,H0,1,100,113.392
1558723160.165352,71481.000,11786,2,H0,1,100,113.392
1558723160.301570,71581.000,11806,1,H0,1,100,113.389
1558723160.437789,71681.000,11824,1,H0,1,100,113.419
1558723160.571283,71779.000,11842,1,H0,1,100,113.408
1558723160.706139,71878.000,11860,1,H0,1,100,113.411
1558723160.839633,71976.000,11878,1,H0,1,100,113.423
1558723160.969041,72071.000,11896,1,H0,1,100,113.400
1558723161.101172,72168.000,11915,1,H0,1,100,113.404
1558723161.234667,72266.000,11933,1,H0,1,100,113.423
1558723161.366798,72363.000,11951,1,H0,1,100,113.415
1558723161.500292,72461.000,11969,1,H0,1,100,113.423
1558723161.635149,72560.000,11987,1,H0,1,100,113.427
1558723161.767280,72657.000,12005,1,H0,1,100,113.419
1558723161.898731,72753.500,12023,2,H0,1,100,113.415
1558723162.030182,72850.000,12023,2,H0,1,100,113.423
1558723162.162314,72947.000,12042,1,H0,1,100,113.431
1558723162.295808,73045.000,12060,1,H0,1,100,113.404
1558723162.429302,73143.000,12078,1,H0,1,100,113.423
1558723162.564158,73242.000,12096,1,H0,1,100,113.419
1558723162.699014,73341.000,12114,1,H0,1,100,113.411
1558723162.833870,73440.000,12132,1,H0,1,100,113.423
1558723162.964640,73536.000,12150,1,H0,1,100,113.423
1558723163.099496,73635.000,12168,1,H0,1,100,113.434
1558723163.231628,73732.000,12187,1,H0,1,100,113.396
1558723163.365122,73830.000,12205,1,H0,1,100,113.419
1558723163.501340,73930.000,12223,1,H0,1,100,113.404
1558723163.637559,74030.000,12241,1,H0,1,100,113.411
1558723163.771053,74128.000,12259,1,H0,1,100,113.415
1558723163.904547,74226.000,12277,1,H0,1,100,113.411
1558723164.038041,74324.000,12295,1,H0,1,100,113.427
1558723164.167448,74419.000,12314,1,H0,1,100,113.415
1558723164.299580,74516.000,12332,1,H0,1,100,113.411
1558723164.433074,74614.000,12350,1,H0,1,100,113.408
1558723164.565206,74711.000,12368,1,H0,1,100,113.411
1558723164.698700,74809.000,12386,1,H0,1,100,113.419
1558723164.833556,74908.000,12404,1,H0,1,100,113.419
1558723164.965688,75005.000,12422,1,H0,1,100,113.431
1558723165.096458,75101.000,12440,1,H0,1,100,113.431
1558723165.228590,75198.000,12459,1,H0,1,100,113.423
1558723165.360722,75295.000,12477,1,H0,1,100,113.415
1558723165.495578,75394.000,12495,1,H0,1,100,113.423
1558723165.629072,75492.000,12513,1,H0,1,100,113.434
1558723165.763928,75591.000,12531,1,H0,1,100,113.434
1558723165.898784,75690.000,12549,1,H0,1,100,113.434
1558723166.030916,75787.000,12567,1,H0,1,100,113.431
1558723166.163729,75884.500,12586,2,H0,1,100,113.434
1558723166.296542,75982.000,12586,2,H0,1,100,113.423
1558723166.430036,76080.000,12604,1,H0,1,100,113.434
1558723166.562168,76177.000,12622,1,H0,1,100,113.450
1558723166.698386,76277.000,12640,1,H0,1,100,113.442
1558723166.833242,76376.000,12658,1,H0,1,100,113.434
1558723166.965374,76473.000,12676,1,H0,1,100,113.431
1558723167.097506,76570.000,12697,1,H0,1,100,113.423
1558723167.232362,76669.000,12717,1,H0,1,100,113.442
1558723167.363132,76765.000,12736,1,H0,1,100,113.453
1558723167.496626,76863.000,12754,1,H0,1,100,113.446
1558723167.631482,76962.000,12772,1,H0,1,100,113.434
1558723167.763614,77059.000,12790,1,H0,1,100,113.442
1558723167.896427,77156.500,12808,2,H0,1,100,113.442
1558723168.029240,77254.000,12808,2,H0,1,100,113.442
1558723168.161371,77351.000,12826,1,H0,1,100,113.438
1558723168.292141,77447.000,12845,1,H0,1,100,113.434
1558723168.424273,77544.000,12863,1,H0,1,100,113.438
1558723168.557767,77642.000,12881,1,H0,1,100,113.450
1558723168.692623,77741.000,12899,1,H0,1,100,113.450
1558723168.826117,77839.000,12917,1,H0,1,100,113.446
1558723168.960974,77938.000,12935,1,H0,1,100,113.438
1558723169.094467,78036.000,12953,1,H0,1,100,113.450
1558723169.226599,78133.000,12972,1,H0,1,100,113.446
1558723169.357369,78229.000,12990,1,H0,1,100,113.446
1558723169.492225,78328.000,13008,1,H0,1,100,113.446
1558723169.627081,78427.000,13026,1,H0,1,100,113.461
1558723169.759213,78524.000,13044,1,H0,1,100,113.457
1558723169.895432,78624.000,13062,1,H0,1,100,113.442
1558723170.030288,78723.000,13080,1,H0,1,100,113.446
1558723170.162420,78820.000,13098,1,H0,1,100,113.450
1558723170.294552,78917.000,13117,1,H0,1,100,113.457
1558723170.429408,79016.000,13135,1,H0,1,100,113.457
1558723170.560177,79112.000,13153,1,H0,1,100,113.453
1558723170.693671,79210.000,13171,1,H0,1,100,113.461
1558723170.828528,79309.000,13189,1,H0,1,100,113.461
1558723170.960660,79406.000,13207,1,H0,1,100,113.465
1558723171.095516,79505.000,13225,1,H0,1,100,113.453
1558723171.227648,79602.000,13244,1,H0,1,100,113.453
1558723171.359779,79699.000,13262,1,H0,1,100,113.469
1558723171.490549,79795.000,13280,1,H0,1,100,113.465
1558723171.624043,79893.000,13298,1,H0,1,100,113.457
1558723171.757537,79991.000,13316,1,H0,1,100,113.473
1558723171.892393,80090.000,13334,1,H0,1,100,113.469
1558723172.025887,80188.000,13352,2,H0,1,100,113.465
1558723172.159381,80286.000,13352,2,H0,1,100,113.450
1558723172.294237,80385.000,13370,1,H0,1,100,113.461
1558723172.426369,80482.000,13389,1,H0,1,100,113.465
1558723172.557139,80578.000,13407,1,H0,1,100,113.469
1558723172.691995,80677.000,13425,1,H0,1,100,113.465
1558723172.826851,80776.000,13443,1,H0,1,100,113.473
1558723172.958983,80873.000,13461,1,H0,1,100,113.457
1558723173.095201,80973.000,13479,1,H0,1,100,113.476
1558723173.228696,81071.000,13497,1,H0,1,100,113.473
1558723173.359465,81167.000,13516,1,H0,1,100,113.480
1558723173.491597,81264.000,13534,1,H0,1,100,113.473
1558723173.626453,81363.000,13552,1,H0,1,100,113.488
1558723173.757223,81459.000,13570,1,H0,1,100,113.488
1558723173.892079,81558.000,13588,1,H0,1,100,113.476
1558723174.026254,81656.500,13609,2,H0,1,100,113.480
1558723174.160429,81755.000,13609,2,H0,1,100,113.465
1558723174.292561,81852.000,13630,1,H0,1,100,113.484
1558723174.424693,81949.000,13648,1,H0,1,100,113.495
1558723174.556825,82046.000,13666,1,H0,1,100,113.484
1558723174.687595,82142.000,13684,1,H0,1,100,113.484
1558723174.821089,82240.000,13702,1,H0,1,100,113.488
1558723174.954583,82338.000,13720,1,H0,1,100,113.495
1558723175.088077,82436.000,13738,1,H0,1,100,113.492
1558723175.222933,82535.000,13756,1,H0,1,100,113.495
1558723175.355065,82632.000,13775,1,H0,1,100,113.495
1558723175.489921,82731.000,13793,1,H0,1,100,113.495
1558723175.622053,82828.000,13811,1,H0,1,100,113.503
1558723175.754184,82925.000,13829,1,H0,1,100,113.495
1558723175.890403,83025.000,13847,1,H0,1,100,113.495
1558723176.025259,83124.000,13865,1,H0,1,100,113.484
1558723176.157391,83221.000,13883,1,H0,1,100,113.492
1558723176.293609,83321.000,13902,1,H0,1,100,113.492
1558723176.427103,83419.000,13920,1,H0,1,100,113.495
1558723176.559235,83516.000,13938,1,H0,1,100,113.495
1558723176.690005,83612.000,13956,1,H0,1,100,113.492
1558723176.824861,83711.000,13974,1,H0,1,100,113.499
1558723176.961079,83811.000,13992,1,H0,1,100,113.492
1558723177.094573,83909.000,14010,1,H0,1,100,113.507
1558723177.230792,84009.000,14028,1,H0,1,100,113.507
1558723177.367010,84109.000,14047,1,H0,1,100,113.503
1558723177.496418,84204.000,14065,1,H0,1,100,113.492
1558723177.628550,84301.000,14083,1,H0,1,100,113.507
1558723177.760681,84398.000,14101,2,H0,1,100,113.507
1558723177.892813,84495.000,14101,2,H0,1,100,113.507
1558723178.026307,84593.000,14119,1,H0,1,100,113.503
1558723178.161164,84692.000,14137,1,H0,1,100,113.514
1558723178.293295,84789.000,14155,1,H0,1,100,113.503
1558723178.426789,84887.000,14174,1,H0,1,100,113.511
1558723178.558921,84984.000,14192,1,H0,1,100,113.511
1558723178.691053,85081.000,14210,1,H0,1,100,113.514
1558723178.821823,85177.000,14228,1,H0,1,100,113.511
1558723178.955317,85275.000,14246,1,H0,1,100,113.507
1558723179.090173,85374.000,14264,1,H0,1,100,113.495
1558723179.225029,85473.000,14282,1,H0,1,100,113.499
1558723179.358523,85571.000,14300,1,H0,1,100,113.507
1558723179.490655,85668.000,14319,1,H0,1,100,113.499
1558723179.625511,85767.000,14337,1,H0,1,100,113.499
1558723179.757643,85864.000,14355,1,H0,1,100,113.495
1558723179.888413,85960.000,14373,1,H0,1,100,113.499
1558723180.024631,86060.000,14391,1,H0,1,100,113.503
1558723180.160849,86160.000,14409,1,H0,1,100,113.499
1558723180.294343,86258.000,14427,1,H0,1,100,113.511
1558723180.430562,86358.000,14446,1,H0,1,100,113.495
1558723180.564056,86456.000,14464,1,H0,1,100,113.503
1558723180.693463,86551.000,14482,1,H0,1,100,113.503
1558723180.825595,86648.000,14500,1,H0,1,100,113.499
1558723180.958408,86745.500,14521,2,H0,1,100,113.503
1558723181.091221,86843.000,14521,2,H0,1,100,113.518
1558723181.224715,86941.000,14540,1,H0,1,100,113.514
1558723181.359571,87040.000,14559,1,H0,1,100,113.503
1558723181.491703,87137.000,14578,1,H0,1,100,113.492
1558723181.623835,87234.000,14596,1,H0,1,100,113.503
1558723181.755967,87331.000,14614,1,H0,1,100,113.511
1558723181.888098,87428.000,14632,1,H0,1,100,113.514
1558723182.021593,87526.000,14650,1,H0,1,100,113.507
1558723182.155087,87624.000,14668,1,H0,1,100,113.511
1558723182.289943,87723.000,14686,1,H0,1,100,113.503
1558723182.424799,87822.000,14705,1,H0,1,100,113.511
1558723182.559655,87921.000,14723,1,H0,1,100,113.522
1558723182.690425,88017.000,14741,1,H0,1,100,113.499
1558723182.825281,88116.000,14759,1,H0,1,100,113.511
1558723182.957413,88213.000,14777,1,H0,1,100,113.511
1558723183.089545,88310.000,14795,1,H0,1,100,113.522
1558723183.225763,88410.000,14813,1,H0,1,100,113.526
1558723183.360619,88509.000,14831,1,H0,1,100,113.522
1558723183.492751,88606.000,14850,1,H0,1,100,113.514
1558723183.627607,88705.000,14868,2,H0,1,100,113.518
1558723183.762464,88804.000,14868,2,H0,1,100,113.514
1558723183.893233,88900.000,14886,1,H0,1,100,113.514
1558723184.025365,88997.000,14904,1,H0,1,100,113.514
1558723184.160221,89096.000,14922,1,H0,1,100,113.518
1558723184.292353,89193.000,14940,1,H0,1,100,113.518
1558723184.425847,89291.000,14958,1,H0,1,100,113.526
1558723184.560703,89390.000,14977,1,H0,1,100,113.518
1558723184.692835,89487.000,14995,1,H0,1,100,113.530
1558723184.823605,89583.000,15013,1,H0,1,100,113.537
1558723184.955737,89680.000,15031,1,H0,1,100,113.537
1558723185.087868,89777.000,15049,1,H0,1,100,113.518
1558723185.221363,89875.000,15067,1,H0,1,100,113.522
1558723185.354856,89973.000,15085,1,H0,1,100,113.537
1558723185.489713,90072.000,15104,1,H0,1,100,113.534
1558723185.624569,90171.000,15122,1,H0,1,100,113.530
1558723185.758063,90269.000,15140,1,H0,1,100,113.522
1558723185.888833,90365.000,15158,1,H0,1,100,113.530
1558723186.023689,90464.000,15176,1,H0,1,100,113.518
1558723186.155821,90561.000,15194,1,H0,1,100,113.541
1558723186.287952,90658.000,15212,1,H0,1,100,113.537
1558723186.424171,90758.000,15230,1,H0,1,100,113.541
1558723186.559027,90857.000,15249,1,H0,1,100,113.545
1558723186.692521,90955.000,15267,1,H0,1,100,113.530
1558723186.824653,91052.000,15285,1,H0,1,100,113.541
1558723186.959509,91151.000,15303,1,H0,1,100,113.530
1558723187.090279,91247.000,15321,1,H0,1,100,113.553
1558723187.222411,91344.000,15339,1,H0,1,100,113.553
1558723187.357267,91443.000,15357,1,H0,1,100,113.556
1558723187.489399,91540.000,15376,1,H0,1,100,113.549
1558723187.622893,91638.000,15394,1,H0,1,100,113.553
1558723187.756387,91736.000,15412,2,H0,1,100,113.545
1558723187.889881,91834.000,15412,2,H0,1,100,113.549
1558723188.020650,91930.000,15433,1,H0,1,100,113.553
1558723188.152782,92027.000,15453,1,H0,1,100,113.553
1558723188.284914,92124.000,15471,1,H0,1,100,113.553
1558723188.419770,92223.000,15489,1,H0,1,100,113.549
1558723188.553264,92321.000,15508,1,H0,1,100,113.545
1558723188.688121,92420.000,15526,1,H0,1,100,113.556
1558723188.822977,92519.000,15544,1,H0,1,100,113.564
1558723188.955109,92616.000,15562,1,H0,1,100,113.549
1558723189.087922,92713.500,15580,2,H0,1,100,113.560
1558723189.220734,92811.000,15580,2,H0,1,100,113.568
1558723189.354228,92909.000,15598,1,H0,1,100,113.560
1558723189.486360,93006.000,15616,1,H0,1,100,113.564
1558723189.622579,93106.000,15635,1,H0,1,100,113.564
1558723189.757435,93205.000,15653,1,H0,1,100,113.560
1558723189.890929,93303.000,15671,1,H0,1,100,113.560
1558723190.023061,93400.000,15689,1,H0,1,100,113.556
1558723190.157917,93499.000,15707,1,H0,1,100,113.560
1558723190.288687,93595.000,15725,1,H0,1,100,113.556
1558723190.423543,93694.000,15743,1,H0,1,100,113.556
1558723190.558399,93793.000,15761,1,H0,1,100,113.556
1558723190.691893,93891.000,15780,1,H0,1,100,113.556
1558723190.826749,93990.000,15798,1,H0,1,100,113.560
1558723190.960243,94088.000,15816,1,H0,1,100,113.572
1558723191.092375,94185.000,15834,1,H0,1,100,113.545
1558723191.223145,94281.000,15852,1,H0,1,100,113.553
1558723191.355277,94378.000,15870,1,H0,1,100,113.553
1558723191.487408,94475.000,15888,1,H0,1,100,113.568
1558723191.620903,94573.000,15907,1,H0,1,100,113.568
1558723191.754396,94671.000,15925,1,H0,1,100,113.553
1558723191.887891,94769.000,15943,1,H0,1,100,113.564
1558723192.021384,94867.000,15961,1,H0,1,100,113.560
1558723192.153516,94964.000,15979,1,H0,1,100,113.553
1558723192.285648,95061.000,15997,1,H0,1,100,113.560
1558723192.417780,95158.000,16015,1,H0,1,100,113.553
1558723192.551274,95256.000,16034,1,H0,1,100,113.560
1558723192.684768,95354.000,16052,1,H0,1,100,113.553
1558723192.819624,95453.000,16070,1,H0,1,100,113.560
1558723192.954480,95552.000,16088,1,H0,1,100,113.553
1558723193.086612,95649.000,16106,1,H0,1,100,113.560
1558723193.217382,95745.000,16124,1,H0,1,100,113.568
1558723193.352238,95844.000,16142,1,H0,1,100,113.568
1558723193.485732,95942.000,16160,2,H0,1,100,113.556
1558723193.619226,96040.000,16160,2,H0,1,100,113.553
1558723193.755445,96140.000,16179,1,H0,1,100,113.579
1558723193.891663,96240.000,16197,1,H0,1,100,113.572
1558723194.025157,96338.000,16215,1,H0,1,100,113.560
1558723194.157289,96435.000,16233,1,H0,1,100,113.572
1558723194.290783,96533.000,16251,1,H0,1,100,113.583
1558723194.420190,96628.000,16269,1,H0,1,100,113.576
1558723194.553684,96726.000,16287,1,H0,1,100,113.583
1558723194.687178,96824.000,16306,1,H0,1,100,113.576
1558723194.819310,96921.000,16324,1,H0,1,100,113.591
1558723194.952804,97019.000,16345,2,H0,1,100,113.579
1558723195.086298,97117.000,16345,2,H0,1,100,113.583
1558723195.218430,97214.000,16365,1,H0,1,100,113.576
1558723195.349200,97310.000,16383,1,H0,1,100,113.576
1558723195.481332,97407.000,16401,1,H0,1,100,113.579
1558723195.614825,97505.000,16419,1,H0,1,100,113.579
1558723195.749682,97604.000,16438,1,H0,1,100,113.583
1558723195.883176,97702.000,16456,1,H0,1,100,113.595
1558723196.018032,97801.000,16474,1,H0,1,100,113.579
1558723196.151526,97899.000,16492,1,H0,1,100,113.579
1558723196.283658,97996.000,16510,1,H0,1,100,113.583
1558723196.414428,98092.000,16528,1,H0,1,100,113.583
1558723196.549284,98191.000,16546,1,H0,1,100,113.576
1558723196.685502,98291.000,16565,1,H0,1,100,113.591
1558723196.818996,98389.000,16583,1,H0,1,100,113.583
1558723196.955215,98489.000,16601,1,H0,1,100,113.568
1558723197.091433,98589.000,16619,1,H0,1,100,113.583
1558723197.222203,98685.000,16637,1,H0,1,100,113.587
1558723197.354334,98782.000,16655,1,H0,1,100,113.576
1558723197.487828,98880.000,16673,1,H0,1,100,113.606
1558723197.617236,98975.000,16691,1,H0,1,100,113.591
1558723197.750730,99073.000,16710,1,H0,1,100,113.587
1558723197.885586,99172.000,16728,1,H0,1,100,113.587
1558723198.017718,99269.000,16746,1,H0,1,100,113.587
1558723198.152574,99368.000,16764,1,H0,1,100,113.583
1558723198.284706,99465.000,16782,1,H0,1,100,113.579
1558723198.416838,99562.000,16800,1,H0,1,100,113.587
1558723198.547607,99658.000,16818,1,H0,1,100,113.591
1558723198.681102,99756.000,16837,1,H0,1,100,113.579
1558723198.814595,99854.000,16855,1,H0,1,100,113.576
1558723198.949452,99953.000,16873,1,H0,1,100,113.598
1558723199.082946,100051.000,16891,2,H0,1,100,113.595
1558723199.216440,100149.000,16891,2,H0,1,100,113.595
1558723199.349934,100247.000,16909,1,H0,1,100,113.598
1558723199.482066,100344.000,16927,1,H0,1,100,113.579
1558723199.612835,100440.000,16945,1,H0,1,100,113.587
1558723199.747692,100539.000,16964,1,H0,1,100,113.591
1558723199.882548,100638.000,16982,1,H0,1,100,113.591
1558723200.014680,100735.000,17000,1,H0,1,100,113.595
1558723200.150898,100835.000,17018,1,H0,1,100,113.595
1558723200.285754,100934.000,17036,1,H0,1,100,113.583
1558723200.416524,101030.000,17054,1,H0,1,100,113.591
1558723200.548656,101127.000,17072,1,H0,1,100,113.591
1558723200.683512,101226.000,17090,1,H0,1,100,113.598
1558723200.814281,101322.000,17109,1,H0,1,100,113.591
1558723200.947776,101420.000,17127,1,H0,1,100,113.598
1558723201.082632,101519.000,17145,1,H0,1,100,113.598
1558723201.214764,101616.000,17163,1,H0,1,100,113.579
1558723201.348258,101714.000,17181,1,H0,1,100,113.583
1558723201.480389,101811.000,17199,1,H0,1,100,113.598
1558723201.612521,101908.000,17217,1,H0,1,100,113.614
1558723201.743291,102004.000,17236,1,H0,1,100,113.598
1558723201.877466,102102.500,17257,2,H0,1,100,113.610
1558723202.011641,102201.000,17257,2,H0,1,100,113.602
1558723202.146497,102300.000,17276,1,H0,1,100,113.602
1558723202.279991,102398.000,17295,1,H0,1,100,113.602
1558723202.412123,102495.000,17313,1,H0,1,100,113.606
1558723202.546979,102594.000,17331,1,H0,1,100,113.598
1558723202.679111,102691.000,17349,1,H0,1,100,113.606
1558723202.811243,102788.000,17368,1,H0,1,100,113.614
1558723202.947461,102888.000,17386,1,H0,1,100,113.598
1558723203.082318,102987.000,17404,1,H0,1,100,113.606
1558723203.214449,103084.000,17422,1,H0,1,100,113.595
1558723203.350668,103184.000,17440,1,H0,1,100,113.602
1558723203.484162,103282.000,17458,1,H0,1,100,113.602
1558723203.614932,103378.000,17476,1,H0,1,100,113.595
1558723203.747063,103475.000,17495,1,H0,1,100,113.598
1558723203.881920,103574.000,17513,1,H0,1,100,113.606
1558723204.014051,103671.000,17531,1,H0,1,100,113.610
1558723204.147546,103769.000,17549,1,H0,1,100,113.621
1558723204.282402,103868.000,17567,1,H0,1,100,113.602
1558723204.414534,103965.000,17585,1,H0,1,100,113.602
1558723204.545303,104061.000,17603,1,H0,1,100,113.617
1558723204.677435,104158.000,17621,1,H0,1,100,113.610
1558723204.809567,104255.000,17640,1,H0,1,100,113.614
1558723204.943061,104353.000,17658,2,H0,1,100,113.606
1558723205.076555,104451.000,17658,2,H0,1,100,113.621
1558723205.211411,104550.000,17676,1,H0,1,100,113.606
1558723205.346267,104649.000,17694,1,H0,1,100,113.637
1558723205.481123,104748.000,17712,1,H0,1,100,113.614
1558723205.611893,104844.000,17730,1,H0,1,100,113.629
1558723205.746749,104943.000,17748,1,H0,1,100,113.629
1558723205.878881,105040.000,17767,1,H0,1,100,113.625
1558723206.011013,105137.000,17785,1,H0,1,100,113.621
1558723206.147231,105237.000,17803,1,H0,1,100,113.614
1558723206.282088,105336.000,17821,1,H0,1,100,113.637
1558723206.414219,105433.000,17839,1,H0,1,100,113.621
1558723206.549076,105532.000,17857,1,H0,1,100,113.625
1558723206.683932,105631.000,17875,1,H0,1,100,113.625
1558723206.814702,105727.000,17894,1,H0,1,100,113.625
1558723206.946833,105824.000,17912,1,H0,1,100,113.614
1558723207.081690,105923.000,17930,1,H0,1,100,113.637
1558723207.215183,106021.000,17948,1,H0,1,100,113.633
1558723207.350040,106120.000,17966,1,H0,1,100,113.621
1558723207.484896,106219.000,17984,1,H0,1,100,113.629
1558723207.618390,106317.000,18002,1,H0,1,100,113.633
1558723207.749160,106413.000,18020,1,H0,1,100,113.621
1558723207.881291,106510.000,18039,1,H0,1,100,113.625
1558723208.013423,106607.000,18057,1,H0,1,100,113.637
1558723208.146917,106705.000,18075,1,H0,1,100,113.617
1558723208.280411,106803.000,18093,1,H0,1,100,113.637
1558723208.413905,106901.000,18111,1,H0,1,100,113.625
1558723208.547400,106999.000,18129,1,H0,1,100,113.648
1558723208.679531,107096.000,18147,1,H0,1,100,113.633
1558723208.811663,107193.000,18169,2,H0,1,100,113.637
1558723208.943795,107290.000,18169,2,H0,1,100,113.648
1558723209.077289,107388.000,18188,1,H0,1,100,113.625
1558723209.210783,107486.000,18207,1,H0,1,100,113.633
1558723209.345639,107585.000,18225,1,H0,1,100,113.640
1558723209.480495,107684.000,18243,1,H0,1,100,113.637
1558723209.615352,107783.000,18261,1,H0,1,100,113.633
1558723209.746121,107879.000,18279,1,H0,1,100,113.633
1558723209.880977,107978.000,18298,1,H0,1,100,113.644
1558723210.013109,108075.000,18316,1,H0,1,100,113.640
1558723210.145241,108172.000,18334,1,H0,1,100,113.637
1558723210.281460,108272.000,18352,1,H0,1,100,113.629
1558723210.417678,108372.000,18370,1,H0,1,100,113.629
1558723210.551172,108470.000,18388,1,H0,1,100,113.621
1558723210.686028,108569.000,18406,1,H0,1,100,113.640
1558723210.819522,108667.000,18425,1,H0,1,100,113.637
1558723210.950292,108763.000,18443,2,H0,1,100,113.637
1558723211.081061,108859.000,18443,2,H0,1,100,113.640
1558723211.214556,108957.000,18461,1,H0,1,100,113.644
1558723211.346687,109054.000,18479,1,H0,1,100,113.640
1558723211.480181,109152.000,18497,1,H0,1,100,113.633
1558723211.615037,109251.000,18515,1,H0,1,100,113.648
1558723211.747169,109348.000,18533,1,H0,1,100,113.637
1558723211.877939,109444.000,18551,1,H0,1,100,113.644
1558723212.010071,109541.000,18570,1,H0,1,100,113.652
1558723212.142203,109638.000,18588,1,H0,1,100,113.652
1558723212.275697,109736.000,18606,1,H0,1,100,113.644
1558723212.409191,109834.000,18624,1,H0,1,100,113.648
1558723212.544047,109933.000,18642,1,H0,1,100,113.656
1558723212.678903,110032.000,18660,1,H0,1,100,113.644
1558723212.813759,110131.000,18678,1,H0,1,100,113.640
1558723212.944529,110227.000,18697,1,H0,1,100,113.652
1558723213.079385,110326.000,18715,1,H0,1,100,113.659
1558723213.211517,110423.000,18733,1,H0,1,100,113.648
1558723213.345011,110521.000,18751,1,H0,1,100,113.659
1558723213.481230,110621.000,18769,1,H0,1,100,113.656
1558723213.617448,110721.000,18787,1,H0,1,100,113.652
1558723213.750942,110819.000,18805,1,H0,1,100,113.644
1558723213.884436,110917.000,18823,1,H0,1,100,113.659
1558723214.017930,111015.000,18842,1,H0,1,100,113.648
1558723214.147337,111110.000,18860,1,H0,1,100,113.663
1558723214.279469,111207.000,18878,1,H0,1,100,113.644
1558723214.412963,111305.000,18896,1,H0,1,100,113.663
1558723214.545095,111402.000,18914,1,H0,1,100,113.656
1558723214.678589,111500.000,18932,1,H0,1,100,113.652
1558723214.813445,111599.000,18950,1,H0,1,100,113.659
1558723214.945577,111696.000,18969,1,H0,1,100,113.648
1558723215.077028,111792.500,18987,2,H0,1,100,113.652
1558723215.208479,111889.000,18987,2,H0,1,100,113.671
1558723215.340611,111986.000,19005,1,H0,1,100,113.659
1558723215.475467,112085.000,19023,1,H0,1,100,113.652
1558723215.608961,112183.000,19041,1,H0,1,100,113.659
1558723215.743817,112282.000,19059,1,H0,1,100,113.659
1558723215.878673,112381.000,19080,1,H0,1,100,113.663
1558723216.010805,112478.000,19100,1,H0,1,100,113.659
1558723216.141575,112574.000,19119,1,H0,1,100,113.656
1558723216.276431,112673.000,19137,1,H0,1,100,113.663
1558723216.409925,112771.000,19155,1,H0,1,100,113.652
1558723216.542057,112868.000,19173,1,H0,1,100,113.648
1558723216.678275,112968.000,19191,1,H0,1,100,113.652
1558723216.811769,113066.000,19209,2,H0,1,100,113.656
1558723216.945263,113164.000,19209,2,H0,1,100,113.659
1558723217.077395,113261.000,19228,1,H0,1,100,113.656
1558723217.212251,113360.000,19246,1,H0,1,100,113.656
1558723217.343021,113456.000,19264,1,H0,1,100,113.663
1558723217.476515,113554.000,19282,1,H0,1,100,113.648
1558723217.611371,113653.000,19300,1,H0,1,100,113.656
1558723217.743503,113750.000,19318,1,H0,1,100,113.659
1558723217.876997,113848.000,19336,1,H0,1,100,113.663
1558723218.009129,113945.000,19355,1,H0,1,100,113.663
1558723218.141261,114042.000,19373,1,H0,1,100,113.667
1558723218.272030,114138.000,19391,1,H0,1,100,113.663
1558723218.404162,114235.000,19409,1,H0,1,100,113.656
1558723218.537656,114333.000,19427,1,H0,1,100,113.671
1558723218.672512,114432.000,19445,1,H0,1,100,113.675
1558723218.806006,114530.000,19463,1,H0,1,100,113.667
1558723218.940862,114629.000,19481,1,H0,1,100,113.675
1558723219.074357,114727.000,19500,1,H0,1,100,113.667
1558723219.206488,114824.000,19518,1,H0,1,100,113.682
1558723219.337258,114920.000,19536,1,H0,1,100,113.671
1558723219.472114,115019.000,19554,1,H0,1,100,113.671
1558723219.606970,115118.000,19572,1,H0,1,100,113.671
1558723219.739102,115215.000,19590,1,H0,1,100,113.659
1558723219.875321,115315.000,19608,1,H0,1,100,113.659
1558723220.010177,115414.000,19627,1,H0,1,100,113.671
1558723220.142309,115511.000,19645,1,H0,1,100,113.659
1558723220.274441,115608.000,19663,1,H0,1,100,113.656
1558723220.409297,115707.000,19681,1,H0,1,100,113.682
1558723220.540066,115803.000,19699,1,H0,1,100,113.663
1558723220.673560,115901.000,19717,1,H0,1,100,113.678
1558723220.807055,115999.000,19735,2,H0,1,100,113.667
1558723220.940548,116097.000,19735,2,H0,1,100,113.667
1558723221.075405,116196.000,19753,1,H0,1,100,113.686
1558723221.207536,116293.000,19772,1,H0,1,100,113.659
1558723221.339668,116390.000,19790,1,H0,1,100,113.671
1558723221.470438,116486.000,19808,1,H0,1,100,113.678
1558723221.603932,116584.000,19826,1,H0,1,100,113.667
1558723221.737426,116682.000,19844,1,H0,1,100,113.678
1558723221.872282,116781.000,19862,1,H0,1,100,113.671
1558723222.005776,116879.000,19880,1,H0,1,100,113.667
1558723222.139270,116977.000,19899,1,H0,1,100,113.678
1558723222.274127,117076.000,19917,1,H0,1,100,113.671
1558723222.406258,117173.000,19935,1,H0,1,100,113.678
1558723222.537028,117269.000,19953,1,H0,1,100,113.675
1558723222.671884,117368.000,19971,1,H0,1,100,113.675
1558723222.805378,117466.000,19992,2,H0,1,100,113.671
1558723222.938872,117564.000,19992,2,H0,1,100,113.667
1558723223.075091,117664.000,20013,1,H0,1,100,113.682
1558723223.208585,117762.000,20031,1,H0,1,100,113.682
1558723223.339354,117858.000,20049,1,H0,1,100,113.675
1558723223.471486,117955.000,20067,1,H0,1,100,113.675
1558723223.606342,118054.000,20085,1,H0,1,100,113.675
1558723223.737112,118150.000,20103,1,H0,1,100,113.678
1558723223.871968,118249.000,20121,1,H0,1,100,113.663
1558723224.006824,118348.000,20139,1,H0,1,100,113.659
1558723224.140318,118446.000,20158,1,H0,1,100,113.667
1558723224.272450,118543.000,20176,1,H0,1,100,113.671
1558723224.404582,118640.000,20194,1,H0,1,100,113.675
1558723224.538076,118738.000,20212,1,H0,1,100,113.656
1558723224.667484,118833.000,20230,1,H0,1,100,113.694
1558723224.800977,118931.000,20248,1,H0,1,100,113.682
1558723224.935834,119030.000,20266,1,H0,1,100,113.682
1558723225.067966,119127.000,20285,1,H0,1,100,113.678
1558723225.201460,119225.000,20303,1,H0,1,100,113.667
1558723225.334954,119323.000,20321,1,H0,1,100,113.678
1558723225.467086,119420.000,20339,1,H0,1,100,113.694
1558723225.597855,119516.000,20357,1,H0,1,100,113.686
1558723225.731349,119614.000,20375,1,H0,1,100,113.678
1558723225.864843,119712.000,20393,1,H0,1,100,113.690
1558723225.999699,119811.000,20411,1,H0,1,100,113.701
1558723226.133193,119909.000,20430,1,H0,1,100,113.671
1558723226.267369,120007.500,20448,2,H0,1,100,113.678
1558723226.401544,120106.000,20448,2,H0,1,100,113.682
1558723226.533675,120203.000,20466,1,H0,1,100,113.686
1558723226.664445,120299.000,20484,1,H0,1,100,113.694
1558723226.799301,120398.000,20502,1,H0,1,100,113.682
1558723226.935520,120498.000,20520,1,H0,1,100,113.678
1558723227.069014,120596.000,20538,1,H0,1,100,113.694
1558723227.205232,120696.000,20557,1,H0,1,100,113.690
1558723227.341450,120796.000,20575,1,H0,1,100,113.682
1558723227.470858,120891.000,20593,1,H0,1,100,113.694
1558723227.602990,120988.000,20611,1,H0,1,100,113.686
1558723227.736484,121086.000,20629,1,H0,1,100,113.690
1558723227.867254,121182.000,20647,1,H0,1,100,113.686
1558723228.000747,121280.000,20665,1,H0,1,100,113.690
1558723228.135604,121379.000,20683,1,H0,1,100,113.682
1558723228.267735,121476.000,20702,1,H0,1,100,113.690
1558723228.401230,121574.000,20720,1,H0,1,100,113.694
1558723228.533361,121671.000,20738,1,H0,1,100,113.686
1558723228.665493,121768.000,20756,1,H0,1,100,113.701
1558723228.796263,121864.000,20774,1,H0,1,100,113.682
1558723228.929757,121962.000,20792,1,H0,1,100,113.690
1558723229.064613,122061.000,20810,1,H0,1,100,113.686
1558723229.199469,122160.000,20829,1,H0,1,100,113.690
1558723229.332963,122258.000,20847,1,H0,1,100,113.694
1558723229.465095,122355.000,20865,1,H0,1,100,113.694
1558723229.599952,122454.000,20883,1,H0,1,100,113.682
1558723229.731402,122550.500,20904,2,H0,1,100,113.705
1558723229.862853,122647.000,20904,2,H0,1,100,113.686
1558723229.999071,122747.000,20923,1,H0,1,100,113.678
1558723230.135290,122847.000,20942,1,H0,1,100,113.678
1558723230.268784,122945.000,20961,1,H0,1,100,113.678
1558723230.405002,123045.000,20979,1,H0,1,100,113.690
1558723230.538496,123143.000,20997,1,H0,1,100,113.698
1558723230.667904,123238.000,21015,1,H0,1,100,113.690
1558723230.800035,123335.000,21033,1,H0,1,100,113.682
1558723230.934892,123434.000,21051,1,H0,1,100,113.686
1558723231.067024,123531.000,21069,1,H0,1,100,113.694
1558723231.200517,123629.000,21088,1,H0,1,100,113.694
1558723231.335374,123728.000,21106,1,H0,1,100,113.698
1558723231.467505,123825.000,21124,1,H0,1,100,113.690
1558723231.599637,123922.000,21142,1,H0,1,100,113.686
1558723231.731769,124019.000,21160,1,H0,1,100,113.698
1558723231.864582,124116.500,21178,2,H0,1,100,113.701
1558723231.997395,124214.000,21178,2,H0,1,100,113.690
1558723232.130889,124312.000,21196,1,H0,1,100,113.713
1558723232.265745,124411.000,21215,1,H0,1,100,113.701
1558723232.400601,124510.000,21233,1,H0,1,100,113.705
1558723232.536820,124610.000,21251,1,H0,1,100,113.709
1558723232.667589,124706.000,21269,1,H0,1,100,113.701
1558723232.802446,124805.000,21287,1,H0,1,100,113.694
1558723232.934577,124902.000,21305,1,H0,1,100,113.701
1558723233.066709,124999.000,21323,1,H0,1,100,113.698
1558723233.202928,125099.000,21341,1,H0,1,100,113.701
1558723233.337784,125198.000,21360,1,H0,1,100,113.701
1558723233.469916,125295.000,21378,1,H0,1,100,113.686
1558723233.604772,125394.000,21396,1,H0,1,100,113.701
1558723233.739628,125493.000,21414,1,H0,1,100,113.690
1558723233.870398,125589.000,21432,1,H0,1,100,113.701
1558723234.002530,125686.000,21450,1,H0,1,100,113.698
1558723234.137386,125785.000,21468,1,H0,1,100,113.705
1558723234.269518,125882.000,21487,1,H0,1,100,113.694
1558723234.403012,125980.000,21505,1,H0,1,100,113.701
1558723234.537868,126079.000,21523,1,H0,1,100,113.701
1558723234.670000,126176.000,21541,1,H0,1,100,113.686
1558723234.800770,126272.000,21559,1,H0,1,100,113.705
1558723234.932901,126369.000,21577,1,H0,1,100,113.686
1558723235.065033,126466.000,21595,1,H0,1,100,113.690
1558723235.198527,126564.000,21613,1,H0,1,100,113.690
1558723235.332021,126662.000,21632,1,H0,1,100,113.694
1558723235.466877,126761.000,21650,1,H0,1,100,113.698
1558723235.601734,126860.000,21668,1,H0,1,100,113.713
1558723235.735228,126958.000,21686,1,H0,1,100,113.694
1558723235.865997,127054.000,21704,1,H0,1,100,113.698
1558723236.000854,127153.000,21722,1,H0,1,100,113.698
1558723236.132304,127249.500,21740,2,H0,1,100,113.705
1558723236.263755,127346.000,21740,2,H0,1,100,113.698
1558723236.399973,127446.000,21759,1,H0,1,100,113.717
1558723236.534830,127545.000,21777,1,H0,1,100,113.709
1558723236.668324,127643.000,21795,1,H0,1,100,113.701
1558723236.800455,127740.000,21816,1,H0,1,100,113.686
1558723236.935312,127839.000,21836,1,H0,1,100,113.705
1558723237.066081,127935.000,21854,1,H0,1,100,113.701
1558723237.198213,128032.000,21872,1,H0,1,100,113.717
1558723237.333069,128131.000,21891,1,H0,1,100,113.717
1558723237.465201,128228.000,21909,1,H0,1,100,113.701
1558723237.599376,128326.500,21927,2,H0,1,100,113.705
1558723237.733552,128425.000,21927,2,H0,1,100,113.698
1558723237.865683,128522.000,21945,1,H0,1,100,113.701
1558723237.996453,128618.000,21963,1,H0,1,100,113.698
1558723238.128585,128715.000,21981,1,H0,1,100,113.701
1558723238.260716,128812.000,21999,1,H0,1,100,113.705
1558723238.394211,128910.000,22018,1,H0,1,100,113.698
1558723238.527704,129008.000,22036,1,H0,1,100,113.713
1558723238.661199,129106.000,22054,1,H0,1,100,113.694
1558723238.796055,129205.000,22072,1,H0,1,100,113.694
1558723238.928187,129302.000,22090,1,H0,1,100,113.724
1558723239.058956,129398.000,22108,1,H0,1,100,113.713
1558723239.193813,129497.000,22126,1,H0,1,100,113.720
1558723239.327307,129595.000,22145,1,H0,1,100,113.717
1558723239.459438,129692.000,22163,1,H0,1,100,113.701
1558723239.595657,129792.000,22181,1,H0,1,100,113.713
1558723239.730513,129891.000,22199,1,H0,1,100,113.709
1558723239.864007,129989.000,22217,1,H0,1,100,113.701
1558723239.996139,130086.000,22235,1,H0,1,100,113.698
1558723240.130995,130185.000,22253,1,H0,1,100,113.701
1558723240.261765,130281.000,22271,1,H0,1,100,113.705
1558723240.396621,130380.000,22290,1,H0,1,100,113.705
1558723240.532839,130480.000,22308,1,H0,1,100,113.701
1558723240.669058,130580.000,22326,1,H0,1,100,113.709
1558723240.802552,130678.000,22344,1,H0,1,100,113.713
1558723240.936046,130776.000,22362,1,H0,1,100,113.701
1558723241.069540,130874.000,22380,1,H0,1,100,113.709
1558723241.198947,130969.000,22398,1,H0,1,100,113.720
1558723241.331079,131066.000,22417,1,H0,1,100,113.705
1558723241.464573,131164.000,22435,1,H0,1,100,113.713
1558723241.596705,131261.000,22453,1,H0,1,100,113.701
1558723241.730199,131359.000,22471,1,H0,1,100,113.717
1558723241.863693,131457.000,22489,2,H0,1,100,113.720
1558723241.997187,131555.000,22489,2,H0,1,100,113.709
1558723242.127957,131651.000,22507,1,H0,1,100,113.713
1558723242.260088,131748.000,22525,1,H0,1,100,113.717
1558723242.392220,131845.000,22543,1,H0,1,100,113.709
1558723242.527076,131944.000,22562,1,H0,1,100,113.724
1558723242.660571,132042.000,22580,1,H0,1,100,113.713
1558723242.795427,132141.000,22598,1,H0,1,100,113.709
1558723242.930283,132240.000,22616,1,H0,1,100,113.713
1558723243.062415,132337.000,22634,1,H0,1,100,113.713
1558723243.193184,132433.000,22652,1,H0,1,100,113.709
1558723243.328041,132532.000,22670,1,H0,1,100,113.717
1558723243.461535,132630.000,22689,1,H0,1,100,113.705
1558723243.595029,132728.000,22707,1,H0,1,100,113.701
1558723243.731247,132828.000,22728,2,H0,1,100,113.709
1558723243.867465,132928.000,22728,2,H0,1,100,113.720
1558723244.000959,133026.000,22748,1,H0,1,100,113.713
1558723244.133091,133123.000,22766,1,H0,1,100,113.724
1558723244.266585,133221.000,22784,1,H0,1,100,113.713
1558723244.395993,133316.000,22802,1,H0,1,100,113.720
1558723244.529487,133414.000,22821,1,H0,1,100,113.713
1558723244.662981,133512.000,22839,1,H0,1,100,113.713
1558723244.795113,133609.000,22857,1,H0,1,100,113.701
1558723244.928607,133707.000,22875,1,H0,1,100,113.717
1558723245.062101,133805.000,22893,1,H0,1,100,113.705
1558723245.194232,133902.000,22911,1,H0,1,100,113.713
1558723245.325002,133998.000,22929,1,H0,1,100,113.705
1558723245.457134,134095.000,22948,1,H0,1,100,113.713
1558723245.590628,134193.000,22966,1,H0,1,100,113.713
1558723245.725484,134292.000,22984,1,H0,1,100,113.713
1558723245.858978,134390.000,23002,1,H0,1,100,113.709
1558723245.993834,134489.000,23020,1,H0,1,100,113.732
1558723246.127328,134587.000,23038,1,H0,1,100,113.709
1558723246.259460,134684.000,23056,1,H0,1,100,113.709
1558723246.390230,134780.000,23074,1,H0,1,100,113.709
1558723246.525086,134879.000,23093,1,H0,1,100,113.717
1558723246.659942,134978.000,23111,1,H0,1,100,113.713
1558723246.792074,135075.000,23129,1,H0,1,100,113.720
1558723246.928293,135175.000,23147,1,H0,1,100,113.705
1558723247.063149,135274.000,23165,1,H0,1,100,113.717
1558723247.195281,135371.000,23183,1,H0,1,100,113.728
1558723247.327413,135468.000,23201,1,H0,1,100,113.717
1558723247.462269,135567.000,23220,1,H0,1,100,113.728
1558723247.594401,135664.000,23238,2,H0,1,100,113.724
1558723247.726532,135761.000,23238,2,H0,1,100,113.717
1558723247.861389,135860.000,23256,1,H0,1,100,113.728
1558723247.993520,135957.000,23274,1,H0,1,100,113.705
1558723248.128377,136056.000,23292,1,H0,1,100,113.717
1558723248.260509,136153.000,23310,1,H0,1,100,113.713
1558723248.392640,136250.000,23328,1,H0,1,100,113.713
1558723248.523410,136346.000,23347,1,H0,1,100,113.717
1558723248.655542,136443.000,23365,1,H0,1,100,113.698
1558723248.789036,136541.000,23383,1,H0,1,100,113.720
1558723248.923892,136640.000,23401,1,H0,1,100,113.709
1558723249.057386,136738.000,23419,1,H0,1,100,113.713
1558723249.190880,136836.000,23437,1,H0,1,100,113.720
1558723249.324374,136934.000,23455,1,H0,1,100,113.732
1558723249.456506,137031.000,23473,1,H0,1,100,113.705
1558723249.587276,137127.000,23492,1,H0,1,100,113.720
1558723249.722132,137226.000,23510,1,H0,1,100,113.713
1558723249.856988,137325.000,23528,1,H0,1,100,113.709
1558723249.989120,137422.000,23546,1,H0,1,100,113.732
1558723250.125338,137522.000,23564,1,H0,1,100,113.713
1558723250.260194,137621.000,23582,1,H0,1,100,113.713
1558723250.390964,137717.000,23600,1,H0,1,100,113.728
1558723250.523096,137814.000,23619,1,H0,1,100,113.728
1558723250.655909,137911.500,23640,2,H0,1,100,113.717
1558723250.788722,138009.000,23640,2,H0,1,100,113.728
1558723250.922216,138107.000,23659,1,H0,1,100,113.720
1558723251.057072,138206.000,23678,1,H0,1,100,113.717
1558723251.189204,138303.000,23696,1,H0,1,100,113.709
1558723251.322698,138401.000,23714,1,H0,1,100,113.728
1558723251.454830,138498.000,23732,1,H0,1,100,113.717
1558723251.586962,138595.000,23751,1,H0,1,100,113.724
1558723251.717731,138691.000,23769,1,H0,1,100,113.713
1558723251.851225,138789.000,23787,1,H0,1,100,113.732
1558723251.986081,138888.000,23805,1,H0,1,100,113.720
1558723252.120938,138987.000,23823,1,H0,1,100,113.720
1558723252.254432,139085.000,23841,1,H0,1,100,113.724
1558723252.386564,139182.000,23859,1,H0,1,100,113.732
1558723252.521420,139281.000,23878,1,H0,1,100,113.743
1558723252.653552,139378.000,23896,1,H0,1,100,113.724
1558723252.785683,139475.000,23914,1,H0,1,100,113.717
1558723252.921902,139575.000,23932,1,H0,1,100,113.724
1558723253.056758,139674.000,23950,1,H0,1,100,113.732
1558723253.188890,139771.000,23968,1,H0,1,100,113.720
1558723253.325108,139871.000,23986,1,H0,1,100,113.717
1558723253.457240,139968.000,24004,2,H0,1,100,113.728
1558723253.589372,140065.000,24004,2,H0,1,100,113.717
1558723253.721504,140162.000,24023,1,H0,1,100,113.728
1558723253.856360,140261.000,24041,1,H0,1,100,113.736
1558723253.989854,140359.000,24059,1,H0,1,100,113.724
1558723254.124710,140458.000,24077,1,H0,1,100,113.736
1558723254.259566,140557.000,24095,1,H0,1,100,113.720
1558723254.393060,140655.000,24113,1,H0,1,100,113.728
1558723254.523830,140751.000,24131,1,H0,1,100,113.728
1558723254.655962,140848.000,24150,1,H0,1,100,113.717
1558723254.788094,140945.000,24168,1,H0,1,100,113.732
1558723254.920225,141042.000,24186,1,H0,1,100,113.732
1558723255.053720,141140.000,24204,1,H0,1,100,113.728
1558723255.187213,141238.000,24222,1,H0,1,100,113.740
1558723255.320708,141336.000,24240,1,H0,1,100,113.740
1558723255.455564,141435.000,24258,1,H0,1,100,113.743
1558723255.586334,141531.000,24277,1,H0,1,100,113.743
1558723255.721189,141630.000,24295,1,H0,1,100,113.720
1558723255.851959,141726.000,24313,1,H0,1,100,113.740
1558723255.985453,141824.000,24331,1,H0,1,100,113.732
1558723256.120310,141923.000,24349,1,H0,1,100,113.728
1558723256.255166,142022.000,24367,1,H0,1,100,113.740
1558723256.388660,142120.000,24385,1,H0,1,100,113.732
1558723256.522154,142218.000,24403,1,H0,1,100,113.743
1558723256.657010,142317.000,24422,1,H0,1,100,113.736
1558723256.789142,142414.000,24440,1,H0,1,100,113.732
1558723256.919911,142510.000,24458,1,H0,1,100,113.728
1558723257.056130,142610.000,24476,1,H0,1,100,113.724
1558723257.192348,142710.000,24494,1,H0,1,100,113.743
1558723257.325842,142808.000,24512,1,H0,1,100,113.751
1558723257.462061,142908.000,24530,1,H0,1,100,113.732
1558723257.594193,143005.000,24552,2,H0,1,100,113.743
1558723257.726324,143102.000,24552,2,H0,1,100,113.732
1558723257.858456,143199.000,24572,1,H0,1,100,113.747
1558723257.991950,143297.000,24590,1,H0,1,100,113.740
1558723258.124082,143394.000,24608,1,H0,1,100,113.751
1558723258.257576,143492.000,24626,1,H0,1,100,113.751
1558723258.392432,143591.000,24644,1,H0,1,100,113.740
1558723258.524564,143688.000,24662,1,H0,1,100,113.743
1558723258.656696,143785.000,24681,1,H0,1,100,113.743
1558723258.788828,143882.000,24699,1,H0,1,100,113.747
1558723258.920959,143979.000,24717,1,H0,1,100,113.724
1558723259.054454,144077.000,24735,1,H0,1,100,113.747
1558723259.187948,144175.000,24753,1,H0,1,100,113.751
1558723259.322804,144274.000,24771,1,H0,1,100,113.751
1558723259.457660,144373.000,24789,1,H0,1,100,113.732
1558723259.590473,144470.500,24808,2,H0,1,100,113.732
1558723259.723286,144568.000,24808,2,H0,1,100,113.740
1558723259.858142,144667.000,24826,1,H0,1,100,113.740
1558723259.990274,144764.000,24844,1,H0,1,100,113.732
1558723260.122406,144861.000,24862,1,H0,1,100,113.736
1558723260.258624,144961.000,24880,1,H0,1,100,113.751
1558723260.394843,145061.000,24898,1,H0,1,100,113.736
1558723260.528337,145159.000,24916,1,H0,1,100,113.747
1558723260.663193,145258.000,24934,1,H0,1,100,113.724
1558723260.796687,145356.000,24953,1,H0,1,100,113.724
1558723260.926094,145451.000,24971,1,H0,1,100,113.732
1558723261.058226,145548.000,24989,1,H0,1,100,113.728
1558723261.191720,145646.000,25007,1,H0,1,100,113.724
1558723261.323852,145743.000,25025,1,H0,1,100,113.736
1558723261.457346,145841.000,25043,1,H0,1,100,113.732
1558723261.592202,145940.000,25061,1,H0,1,100,113.724
1558723261.724334,146037.000,25080,1,H0,1,100,113.717
1558723261.855104,146133.000,25098,1,H0,1,100,113.732
1558723261.987236,146230.000,25116,1,H0,1,100,113.713
1558723262.119367,146327.000,25134,1,H0,1,100,113.736
1558723262.252861,146425.000,25152,1,H0,1,100,113.732
1558723262.386355,146523.000,25170,1,H0,1,100,113.717
1558723262.521212,146622.000,25188,1,H0,1,100,113.747
1558723262.656068,146721.000,25206,1,H0,1,100,113.728
1558723262.790924,146820.000,25225,1,H0,1,100,113.720
1558723262.921694,146916.000,25243,1,H0,1,100,113.740
1558723263.056550,147015.000,25261,1,H0,1,100,113.740
1558723263.188682,147112.000,25279,1,H0,1,100,113.740
1558723263.320813,147209.000,25297,1,H0,1,100,113.736
1558723263.457032,147309.000,25315,1,H0,1,100,113.740
1558723263.591888,147408.000,25333,1,H0,1,100,113.751
1558723263.725382,147506.000,25352,1,H0,1,100,113.740
1558723263.859557,147604.500,25370,2,H0,1,100,113.736
1558723263.993732,147703.000,25370,2,H0,1,100,113.743
1558723264.124502,147799.000,25388,1,H0,1,100,113.740
1558723264.256634,147896.000,25406,1,H0,1,100,113.747
1558723264.391490,147995.000,25424,1,H0,1,100,113.728
1558723264.523622,148092.000,25442,1,H0,1,100,113.743
1558723264.657116,148190.000,25463,1,H0,1,100,113.736
1558723264.791972,148289.000,25483,1,H0,1,100,113.736
1558723264.924104,148386.000,25502,1,H0,1,100,113.743
1558723265.054874,148482.000,25520,1,H0,1,100,113.740
1558723265.187006,148579.000,25538,1,H0,1,100,113.740
1558723265.319137,148676.000,25556,1,H0,1,100,113.736
1558723265.453312,148774.500,25574,2,H0,1,100,113.747
1558723265.587487,148873.000,25574,2,H0,1,100,113.736
1558723265.722344,148972.000,25592,1,H0,1,100,113.743
1558723265.857200,149071.000,25611,1,H0,1,100,113.755
1558723265.989332,149168.000,25629,1,H0,1,100,113.743
1558723266.120101,149264.000,25647,1,H0,1,100,113.732
1558723266.254958,149363.000,25665,1,H0,1,100,113.736
1558723266.388452,149461.000,25683,1,H0,1,100,113.732
1558723266.520583,149558.000,25701,1,H0,1,100,113.736
1558723266.656802,149658.000,25719,1,H0,1,100,113.751
1558723266.791658,149757.000,25738,1,H0,1,100,113.747
1558723266.923790,149854.000,25756,1,H0,1,100,113.736
1558723267.055922,149951.000,25774,1,H0,1,100,113.740
1558723267.190778,150050.000,25792,1,H0,1,100,113.736
1558723267.321548,150146.000,25810,1,H0,1,100,113.736
1558723267.455042,150244.000,25828,1,H0,1,100,113.736
1558723267.589898,150343.000,25846,1,H0,1,100,113.736
1558723267.722030,150440.000,25864,1,H0,1,100,113.732
1558723267.855524,150538.000,25883,1,H0,1,100,113.732
1558723267.987655,150635.000,25901,1,H0,1,100,113.732
1558723268.119787,150732.000,25919,1,H0,1,100,113.736
1558723268.250557,150828.000,25937,1,H0,1,100,113.724
1558723268.382689,150925.000,25955,1,H0,1,100,113.743
1558723268.516183,151023.000,25973,1,H0,1,100,113.732
1558723268.651039,151122.000,25991,1,H0,1,100,113.740
1558723268.784533,151220.000,26010,1,H0,1,100,113.747
1558723268.919389,151319.000,26028,1,H0,1,100,113.740
1558723269.052883,151417.000,26046,1,H0,1,100,113.736
1558723269.185015,151514.000,26064,1,H0,1,100,113.736
1558723269.315785,151610.000,26082,1,H0,1,100,113.728
1558723269.450641,151709.000,26100,1,H0,1,100,113.747
1558723269.584135,151807.000,26118,2,H0,1,100,113.743
1558723269.717629,151905.000,26118,2,H0,1,100,113.736
1558723269.853848,152005.000,26136,1,H0,1,100,113.743
1558723269.988704,152104.000,26155,1,H0,1,100,113.740
1558723270.120836,152201.000,26173,1,H0,1,100,113.743
1558723270.252967,152298.000,26191,1,H0,1,100,113.747
1558723270.387824,152397.000,26209,1,H0,1,100,113.736
1558723270.518593,152493.000,26227,1,H0,1,100,113.747
1558723270.653449,152592.000,26245,1,H0,1,100,113.740
1558723270.788306,152691.000,26263,1,H0,1,100,113.743
1558723270.921800,152789.000,26282,1,H0,1,100,113.747
1558723271.056656,152888.000,26300,1,H0,1,100,113.747
1558723271.188788,152985.000,26318,1,H0,1,100,113.736
1558723271.320920,153082.000,26336,1,H0,1,100,113.736
1558723271.451689,153178.000,26354,1,H0,1,100,113.736
1558723271.585183,153276.000,26375,2,H0,1,100,113.743
1558723271.718677,153374.000,26375,2,H0,1,100,113.751
1558723271.850809,153471.000,26396,1,H0,1,100,113.740
1558723271.984303,153569.000,26414,1,H0,1,100,113.743
1558723272.117797,153667.000,26432,1,H0,1,100,113.747
1558723272.249929,153764.000,26450,1,H0,1,100,113.740
1558723272.380698,153860.000,26468,1,H0,1,100,113.755
1558723272.512830,153957.000,26486,1,H0,1,100,113.743
1558723272.644962,154054.000,26504,1,H0,1,100,113.740
1558723272.779819,154153.000,26522,1,H0,1,100,113.732
1558723272.913312,154251.000,26541,1,H0,1,100,113.736
1558723273.048169,154350.000,26559,1,H0,1,100,113.759
1558723273.181663,154448.000,26577,1,H0,1,100,113.747
1558723273.313795,154545.000,26595,1,H0,1,100,113.740
1558723273.444564,154641.000,26613,1,H0,1,100,113.755
1558723273.579420,154740.000,26631,1,H0,1,100,113.755
1558723273.714277,154839.000,26649,1,H0,1,100,113.747
1558723273.847771,154937.000,26668,1,H0,1,100,113.751
1558723273.983989,155037.000,26686,1,H0,1,100,113.747
1558723274.120207,155137.000,26704,1,H0,1,100,113.747
1558723274.250977,155233.000,26722,1,H0,1,100,113.759
1558723274.383109,155330.000,26740,1,H0,1,100,113.740
1558723274.516603,155428.000,26758,1,H0,1,100,113.751
1558723274.646010,155523.000,26776,1,H0,1,100,113.743
1558723274.779504,155621.000,26794,1,H0,1,100,113.755
1558723274.914361,155720.000,26813,1,H0,1,100,113.740
1558723275.047174,155817.500,26831,2,H0,1,100,113.755
1558723275.179986,155915.000,26831,2,H0,1,100,113.751
1558723275.313480,156013.000,26849,1,H0,1,100,113.747
1558723275.445612,156110.000,26867,1,H0,1,100,113.762
1558723275.576382,156206.000,26885,1,H0,1,100,113.751
1558723275.709876,156304.000,26903,1,H0,1,100,113.747
1558723275.843370,156402.000,26921,1,H0,1,100,113.747
1558723275.978226,156501.000,26940,1,H0,1,100,113.740
1558723276.111720,156599.000,26958,1,H0,1,100,113.751
1558723276.246576,156698.000,26976,1,H0,1,100,113.751
1558723276.380070,156796.000,26994,1,H0,1,100,113.736
1558723276.512202,156893.000,27012,1,H0,1,100,113.751
1558723276.642972,156989.000,27030,1,H0,1,100,113.747
1558723276.777828,157088.000,27048,1,H0,1,100,113.740
1558723276.914047,157188.000,27066,1,H0,1,100,113.743
1558723277.047540,157286.000,27085,1,H0,1,100,113.759
1558723277.183759,157386.000,27103,1,H0,1,100,113.743
1558723277.319977,157486.000,27121,1,H0,1,100,113.747
1558723277.450747,157582.000,27139,1,H0,1,100,113.728
1558723277.582879,157679.000,27157,1,H0,1,100,113.751
1558723277.717735,157778.000,27175,1,H0,1,100,113.755
1558723277.848505,157874.000,27193,1,H0,1,100,113.747
1558723277.981999,157972.000,27212,1,H0,1,100,113.755
1558723278.116855,158071.000,27230,1,H0,1,100,113.751
1558723278.248987,158168.000,27248,1,H0,1,100,113.755
1558723278.382481,158266.000,27266,1,H0,1,100,113.740
1558723278.514613,158363.000,27287,2,H0,1,100,113.755
1558723278.646744,158460.000,27287,2,H0,1,100,113.759
1558723278.777514,158556.000,27306,1,H0,1,100,113.759
1558723278.911008,158654.000,27325,1,H0,1,100,113.759
1558723279.044502,158752.000,27344,1,H0,1,100,113.747
1558723279.179358,158851.000,27362,1,H0,1,100,113.747
1558723279.312852,158949.000,27380,1,H0,1,100,113.755
1558723279.444984,159046.000,27398,1,H0,1,100,113.751
1558723279.579840,159145.000,27416,1,H0,1,100,113.755
1558723279.711972,159242.000,27434,1,H0,1,100,113.743
1558723279.842742,159338.000,27452,1,H0,1,100,113.762
1558723279.978960,159438.000,27471,1,H0,1,100,113.743
1558723280.113816,159537.000,27489,1,H0,1,100,113.759
1558723280.245948,159634.000,27507,1,H0,1,100,113.762
1558723280.382167,159734.000,27525,1,H0,1,100,113.759
1558723280.514298,159831.000,27543,1,H0,1,100,113.766
1558723280.645068,159927.000,27561,1,H0,1,100,113.759
1558723280.778562,160025.000,27579,2,H0,1,100,113.755
1558723280.912056,160123.000,27579,2,H0,1,100,113.755
1558723281.044188,160220.000,27598,1,H0,1,100,113.770
1558723281.177682,160318.000,27616,1,H0,1,100,113.759
1558723281.312538,160417.000,27634,1,H0,1,100,113.766
1558723281.444670,160514.000,27652,1,H0,1,100,113.762
1558723281.576802,160611.000,27670,1,H0,1,100,113.755
1558723281.708934,160708.000,27688,1,H0,1,100,113.762
1558723281.841066,160805.000,27706,1,H0,1,100,113.770
1558723281.973197,160902.000,27724,1,H0,1,100,113.762
1558723282.106692,161000.000,27743,1,H0,1,100,113.755
1558723282.241548,161099.000,27761,1,H0,1,100,113.755
1558723282.376404,161198.000,27779,1,H0,1,100,113.762
1558723282.512622,161298.000,27797,1,H0,1,100,113.755
1558723282.643392,161394.000,27815,1,H0,1,100,113.747
1558723282.778248,161493.000,27833,1,H0,1,100,113.755
1558723282.910380,161590.000,27851,1,H0,1,100,113.759
1558723283.042512,161687.000,27870,1,H0,1,100,113.766
1558723283.178730,161787.000,27888,1,H0,1,100,113.759
1558723283.313586,161886.000,27906,1,H0,1,100,113.755
1558723283.445718,161983.000,27924,1,H0,1,100,113.762
1558723283.580575,162082.000,27942,1,H0,1,100,113.751
1558723283.715431,162181.000,27960,1,H0,1,100,113.755
1558723283.846200,162277.000,27978,1,H0,1,100,113.770
1558723283.978332,162374.000,27996,1,H0,1,100,113.762
1558723284.113188,162473.000,28015,1,H0,1,100,113.766
1558723284.246682,162571.000,28033,1,H0,1,100,113.759
1558723284.381539,162670.000,28051,1,H0,1,100,113.762
1558723284.516395,162769.000,28069,1,H0,1,100,113.759
1558723284.649889,162867.000,28087,1,H0,1,100,113.766
1558723284.780658,162963.000,28105,1,H0,1,100,113.759
1558723284.912790,163060.000,28123,2,H0,1,100,113.770
1558723285.044922,163157.000,28123,2,H0,1,100,113.762
1558723285.178416,163255.000,28142,1,H0,1,100,113.759
1558723285.311910,163353.000,28160,1,H0,1,100,113.766
1558723285.445404,163451.000,28178,1,H0,1,100,113.759
1558723285.578898,163549.000,28199,1,H0,1,100,113.766
1558723285.712392,163647.000,28219,1,H0,1,100,113.774
1558723285.843162,163743.000,28237,1,H0,1,100,113.751
1558723285.978018,163842.000,28255,1,H0,1,100,113.747
1558723286.110150,163939.000,28274,1,H0,1,100,113.762
1558723286.242282,164036.000,28292,1,H0,1,100,113.755
1558723286.378500,164136.000,28310,1,H0,1,100,113.766
1558723286.513356,164235.000,28328,1,H0,1,100,113.766
1558723286.646169,164332.500,28346,2,H0,1,100,113.755
1558723286.778982,164430.000,28346,2,H0,1,100,113.759
1558723286.913838,164529.000,28364,1,H0,1,100,113.755
1558723287.045970,164626.000,28382,1,H0,1,100,113.762
1558723287.178102,164723.000,28401,1,H0,1,100,113.762
1558723287.314321,164823.000,28419,1,H0,1,100,113.759
1558723287.450539,164923.000,28437,1,H0,1,100,113.762
1558723287.584033,165021.000,28455,1,H0,1,100,113.774
1558723287.720251,165121.000,28473,1,H0,1,100,113.762
1558723287.853745,165219.000,28491,1,H0,1,100,113.759
1558723287.983153,165314.000,28509,1,H0,1,100,113.766
1558723288.115285,165411.000,28527,1,H0,1,100,113.755
1558723288.248779,165509.000,28546,1,H0,1,100,113.751
1558723288.380910,165606.000,28564,1,H0,1,100,113.766
1558723288.514405,165704.000,28582,1,H0,1,100,113.766
1558723288.649261,165803.000,28600,1,H0,1,100,113.762
1558723288.782755,165901.000,28618,1,H0,1,100,113.759
1558723288.913524,165997.000,28636,1,H0,1,100,113.770
1558723289.045656,166094.000,28654,1,H0,1,100,113.774
1558723289.177788,166191.000,28673,1,H0,1,100,113.778
1558723289.311282,166289.000,28691,1,H0,1,100,113.766
1558723289.444776,166387.000,28709,1,H0,1,100,113.766
1558723289.579632,166486.000,28727,1,H0,1,100,113.759
1558723289.714489,166585.000,28745,1,H0,1,100,113.770
1558723289.849345,166684.000,28763,1,H0,1,100,113.778
1558723289.980114,166780.000,28781,1,H0,1,100,113.770
1558723290.114971,166879.000,28800,1,H0,1,100,113.781
1558723290.247102,166976.000,28818,1,H0,1,100,113.762
1558723290.380596,167074.000,28836,1,H0,1,100,113.770
1558723290.516815,167174.000,28854,1,H0,1,100,113.751
1558723290.653033,167274.000,28872,1,H0,1,100,113.759
1558723290.786527,167372.000,28890,1,H0,1,100,113.778
1558723290.920021,167470.000,28908,1,H0,1,100,113.766
1558723291.051472,167566.500,28926,2,H0,1,100,113.762
1558723291.182923,167663.000,28926,2,H0,1,100,113.770
1558723291.315055,167760.000,28945,1,H0,1,100,113.759
1558723291.448549,167858.000,28963,1,H0,1,100,113.762
1558723291.580680,167955.000,28981,1,H0,1,100,113.766
1558723291.714175,168053.000,28999,1,H0,1,100,113.766
1558723291.849031,168152.000,29017,1,H0,1,100,113.774
1558723291.981163,168249.000,29035,1,H0,1,100,113.770
1558723292.111932,168345.000,29053,1,H0,1,100,113.766
1558723292.244064,168442.000,29072,1,H0,1,100,113.762
1558723292.376196,168539.000,29090,1,H0,1,100,113.762
1558723292.510371,168637.500,29111,2,H0,1,100,113.755
1558723292.644546,168736.000,29111,2,H0,1,100,113.755
1558723292.779402,168835.000,29131,1,H0,1,100,113.766
1558723292.914258,168934.000,29149,1,H0,1,100,113.766
1558723293.046390,169031.000,29167,1,H0,1,100,113.759
1558723293.177160,169127.000,29185,1,H0,1,100,113.770
1558723293.312016,169226.000,29204,1,H0,1,100,113.762
1558723293.445510,169324.000,29222,1,H0,1,100,113.762
1558723293.577642,169421.000,29240,1,H0,1,100,113.766
1558723293.713861,169521.000,29258,1,H0,1,100,113.766
1558723293.848716,169620.000,29276,1,H0,1,100,113.762
1558723293.982211,169718.000,29294,1,H0,1,100,113.770
1558723294.114342,169815.000,29312,1,H0,1,100,113.774
1558723294.249199,169914.000,29331,1,H0,1,100,113.766
1558723294.379968,170010.000,29349,1,H0,1,100,113.762
1558723294.513462,170108.000,29367,1,H0,1,100,113.766
1558723294.648319,170207.000,29385,1,H0,1,100,113.755
1558723294.780450,170304.000,29403,1,H0,1,100,113.770
1558723294.913944,170402.000,29421,1,H0,1,100,113.762
1558723295.047438,170500.000,29439,1,H0,1,100,113.762
1558723295.179570,170597.000,29457,1,H0,1,100,113.759
1558723295.310340,170693.000,29476,1,H0,1,100,113.766
1558723295.442472,170790.000,29494,1,H0,1,100,113.766
1558723295.575966,170888.000,29512,1,H0,1,100,113.762
1558723295.710822,170987.000,29530,1,H0,1,100,113.759
1558723295.844316,171085.000,29548,1,H0,1,100,113.755
1558723295.979172,171184.000,29566,1,H0,1,100,113.770
1558723296.112666,171282.000,29584,1,H0,1,100,113.759
1558723296.244798,171379.000,29603,1,H0,1,100,113.755
1558723296.375568,171475.000,29621,1,H0,1,100,113.759
1558723296.510424,171574.000,29639,1,H0,1,100,113.751
1558723296.643918,171672.000,29657,2,H0,1,100,113.755
1558723296.777412,171770.000,29657,2,H0,1,100,113.755
1558723296.913630,171870.000,29675,1,H0,1,100,113.759
1558723297.048486,171969.000,29693,1,H0,1,100,113.755
1558723297.180618,172066.000,29711,1,H0,1,100,113.755
1558723297.312750,172163.000,29730,1,H0,1,100,113.759
1558723297.447606,172262.000,29748,1,H0,1,100,113.759
1558723297.578376,172358.000,29766,1,H0,1,100,113.766
1558723297.711870,172456.000,29784,1,H0,1,100,113.766
1558723297.846726,172555.000,29802,1,H0,1,100,113.762
1558723297.978858,172652.000,29820,1,H0,1,100,113.762
1558723298.113714,172751.000,29838,1,H0,1,100,113.770
1558723298.245846,172848.000,29856,1,H0,1,100,113.770
1558723298.377978,172945.000,29875,1,H0,1,100,113.759
1558723298.508748,173041.000,29893,1,H0,1,100,113.762
1558723298.640880,173138.000,29911,1,H0,1,100,113.759
1558723298.773011,173235.000,29929,1,H0,1,100,113.766
1558723298.906505,173333.000,29947,1,H0,1,100,113.759
1558723299.039999,173431.000,29965,1,H0,1,100,113.766
1558723299.172131,173528.000,29983,1,H0,1,100,113.759
1558723299.305625,173626.000,30002,1,H0,1,100,113.759
1558723299.437076,173722.500,30023,2,H0,1,100,113.759
1558723299.568527,173819.000,30023,2,H0,1,100,113.747
1558723299.703383,173918.000,30042,1,H0,1,100,113.762
1558723299.838239,174017.000,30061,1,H0,1,100,113.740
1558723299.970371,174114.000,30079,1,H0,1,100,113.762
1558723300.106589,174214.000,30097,1,H0,1,100,113.766
1558723300.241446,174313.000,30115,1,H0,1,100,113.766
1558723300.372215,174409.000,30134,1,H0,1,100,113.755
1558723300.504347,174506.000,30152,1,H0,1,100,113.755
1558723300.639203,174605.000,30170,1,H0,1,100,113.778
1558723300.769973,174701.000,30188,1,H0,1,100,113.762
1558723300.904829,174800.000,30206,1,H0,1,100,113.751
1558723301.041048,174900.000,30224,1,H0,1,100,113.751
1558723301.177266,175000.000,30242,1,H0,1,100,113.755
1558723301.309398,175097.000,30261,1,H0,1,100,113.759
1558723301.441530,175194.000,30279,1,H0,1,100,113.755
1558723301.575024,175292.000,30297,1,H0,1,100,113.762
1558723301.704431,175387.000,30315,1,H0,1,100,113.759
1558723301.837925,175485.000,30333,1,H0,1,100,113.766
1558723301.971419,175583.000,30351,2,H0,1,100,113.762
1558723302.104913,175681.000,30351,2,H0,1,100,113.766
1558723302.238407,175779.000,30369,1,H0,1,100,113.759
1558723302.370539,175876.000,30387,1,H0,1,100,113.770
1558723302.502671,175973.000,30406,1,H0,1,100,113.759
1558723302.633440,176069.000,30424,1,H0,1,100,113.759
1558723302.766934,176167.000,30442,1,H0,1,100,113.766
1558723302.900429,176265.000,30460,1,H0,1,100,113.766
1558723303.035285,176364.000,30478,1,H0,1,100,113.766
1558723303.168779,176462.000,30496,1,H0,1,100,113.778
1558723303.303635,176561.000,30514,1,H0,1,100,113.766
1558723303.437129,176659.000,30533,1,H0,1,100,113.762
1558723303.569261,176756.000,30551,1,H0,1,100,113.766
1558723303.700031,176852.000,30569,1,H0,1,100,113.751
1558723303.834887,176951.000,30587,1,H0,1,100,113.759
1558723303.971105,177051.000,30605,1,H0,1,100,113.762
1558723304.104599,177149.000,30623,1,H0,1,100,113.766
1558723304.240818,177249.000,30641,1,H0,1,100,113.759
1558723304.377036,177349.000,30660,1,H0,1,100,113.770
1558723304.506443,177444.000,30678,1,H0,1,100,113.751
1558723304.638575,177541.000,30696,1,H0,1,100,113.759
1558723304.772069,177639.000,30714,1,H0,1,100,113.762
1558723304.902839,177735.000,30732,1,H0,1,100,113.766
1558723305.036333,177833.000,30750,1,H0,1,100,113.770
1558723305.171189,177932.000,30768,1,H0,1,100,113.770
1558723305.303321,178029.000,30786,1,H0,1,100,113.755
1558723305.436815,178127.000,30805,1,H0,1,100,113.751
1558723305.568947,178224.000,30823,1,H0,1,100,113.743
1558723305.701079,178321.000,30841,1,H0,1,100,113.759
1558723305.831848,178417.000,30859,1,H0,1,100,113.755
1558723305.965342,178515.000,30877,1,H0,1,100,113.751
1558723306.100199,178614.000,30895,1,H0,1,100,113.762
1558723306.235055,178713.000,30913,1,H0,1,100,113.781
1558723306.368549,178811.000,30935,2,H0,1,100,113.762
1558723306.502043,178909.000,30935,2,H0,1,100,113.755
1558723306.636899,179008.000,30955,1,H0,1,100,113.770
1558723306.769031,179105.000,30973,1,H0,1,100,113.762
1558723306.899801,179201.000,30991,1,H0,1,100,113.751
1558723307.036019,179301.000,31009,1,H0,1,100,113.755
1558723307.170875,179400.000,31027,1,H0,1,100,113.755
1558723307.303007,179497.000,31045,1,H0,1,100,113.762
1558723307.439225,179597.000,31064,1,H0,1,100,113.751
1558723307.571357,179694.000,31082,2,H0,1,100,113.759
1558723307.703489,179791.000,31082,2,H0,1,100,113.755
1558723307.835621,179888.000,31100,1,H0,1,100,113.755
1558723307.970477,179987.000,31118,1,H0,1,100,113.747
1558723308.102609,180084.000,31136,1,H0,1,100,113.751
1558723308.236103,180182.000,31154,1,H0,1,100,113.770
1558723308.370959,180281.000,31172,1,H0,1,100,113.751
1558723308.503091,180378.000,31191,1,H0,1,100,113.770
1558723308.635223,180475.000,31209,1,H0,1,100,113.766
1558723308.767354,180572.000,31227,1,H0,1,100,113.778
1558723308.899486,180669.000,31245,1,H0,1,100,113.778
1558723309.032980,180767.000,31263,1,H0,1,100,113.762
1558723309.166474,180865.000,31281,1,H0,1,100,113.759
1558723309.301331,180964.000,31299,1,H0,1,100,113.759
1558723309.436187,181063.000,31317,1,H0,1,100,113.759
1558723309.572405,181163.000,31336,1,H0,1,100,113.751
1558723309.703175,181259.000,31354,1,H0,1,100,113.747
1558723309.838031,181358.000,31372,1,H0,1,100,113.762
1558723309.970163,181455.000,31390,1,H0,1,100,113.751
1558723310.102295,181552.000,31408,1,H0,1,100,113.759
1558723310.238513,181652.000,31426,1,H0,1,100,113.759
1558723310.373369,181751.000,31444,1,H0,1,100,113.743
1558723310.505501,181848.000,31463,1,H0,1,100,113.759
1558723310.640357,181947.000,31481,1,H0,1,100,113.755
1558723310.775213,182046.000,31499,1,H0,1,100,113.770
1558723310.905983,182142.000,31517,1,H0,1,100,113.766
1558723311.038115,182239.000,31535,1,H0,1,100,113.766
1558723311.172971,182338.000,31553,1,H0,1,100,113.766
1558723311.305103,182435.000,31571,1,H0,1,100,113.747
1558723311.438597,182533.000,31590,1,H0,1,100,113.759
1558723311.573453,182632.000,31608,1,H0,1,100,113.755
1558723311.705585,182729.000,31626,1,H0,1,100,113.747
1558723311.837036,182825.500,31644,2,H0,1,100,113.751
1558723311.968487,182922.000,31644,2,H0,1,100,113.747
1558723312.100619,183019.000,31662,1,H0,1,100,113.743
1558723312.234113,183117.000,31680,1,H0,1,100,113.751
1558723312.367607,183215.000,31698,1,H0,1,100,113.743
1558723312.502463,183314.000,31716,1,H0,1,100,113.751
1558723312.637319,183413.000,31735,1,H0,1,100,113.755
1558723312.772175,183512.000,31753,1,H0,1,100,113.747
1558723312.902945,183608.000,31771,1,H0,1,100,113.751
1558723313.037801,183707.000,31789,1,H0,1,100,113.762
1558723313.169933,183804.000,31807,1,H0,1,100,113.755
1558723313.302065,183901.000,31825,1,H0,1,100,113.759
1558723313.437602,184000.500,31846,2,H0,1,100,113.762
1558723313.573139,184100.000,31846,2,H0,1,100,113.755
1558723313.706633,184198.000,31866,1,H0,1,100,113.755
1558723313.840127,184296.000,31885,1,H0,1,100,113.751
1558723313.974983,184395.000,31903,1,H0,1,100,113.743
1558723314.105753,184491.000,31921,1,H0,1,100,113.762
1558723314.239247,184589.000,31939,1,H0,1,100,113.747
1558723314.374103,184688.000,31957,1,H0,1,100,113.759
1558723314.507597,184786.000,31975,1,H0,1,100,113.762
1558723314.642454,184885.000,31994,1,H0,1,100,113.743
1558723314.777310,184984.000,32012,1,H0,1,100,113.770
1558723314.909442,185081.000,32030,1,H0,1,100,113.751
1558723315.040211,185177.000,32048,1,H0,1,100,113.759
1558723315.172343,185274.000,32066,1,H0,1,100,113.759
1558723315.304475,185371.000,32084,1,H0,1,100,113.759
1558723315.437969,185469.000,32102,1,H0,1,100,113.743
1558723315.571463,185567.000,32121,1,H0,1,100,113.755
1558723315.704957,185665.000,32139,1,H0,1,100,113.755
1558723315.839813,185764.000,32157,1,H0,1,100,113.755
1558723315.970583,185860.000,32175,1,H0,1,100,113.755
1558723316.102715,185957.000,32193,1,H0,1,100,113.743
1558723316.234847,186054.000,32211,1,H0,1,100,113.755
1558723316.368341,186152.000,32229,1,H0,1,100,113.770
1558723316.501835,186250.000,32247,1,H0,1,100,113.740
1558723316.636691,186349.000,32266,1,H0,1,100,113.743
1558723316.771547,186448.000,32284,1,H0,1,100,113.743
1558723316.905041,186546.000,32302,1,H0,1,100,113.743
1558723317.035811,186642.000,32320,1,H0,1,100,113.743
1558723317.170667,186741.000,32338,1,H0,1,100,113.751
1558723317.302799,186838.000,32356,1,H0,1,100,113.751
1558723317.436293,186936.000,32374,1,H0,1,100,113.762
1558723317.572511,187036.000,32393,1,H0,1,100,113.751
1558723317.707367,187135.000,32411,2,H0,1,100,113.740
1558723317.842224,187234.000,32411,2,H0,1,100,113.755
1558723317.975718,187332.000,32429,1,H0,1,100,113.743
1558723318.109212,187430.000,32447,1,H0,1,100,113.751
1558723318.238619,187525.000,32465,1,H0,1,100,113.751
1558723318.370751,187622.000,32483,1,H0,1,100,113.766
1558723318.504245,187720.000,32501,1,H0,1,100,113.751
1558723318.636377,187817.000,32520,1,H0,1,100,113.751
1558723318.769871,187915.000,32538,1,H0,1,100,113.759
1558723318.904727,188014.000,32556,1,H0,1,100,113.747
1558723319.036859,188111.000,32574,1,H0,1,100,113.747
1558723319.167629,188207.000,32592,1,H0,1,100,113.755
1558723319.299760,188304.000,32610,1,H0,1,100,113.755
1558723319.431892,188401.000,32628,1,H0,1,100,113.759
1558723319.566748,188500.000,32646,1,H0,1,100,113.743
1558723319.700243,188598.000,32665,1,H0,1,100,113.755
1558723319.835099,188697.000,32683,1,H0,1,100,113.759
1558723319.969955,188796.000,32701,1,H0,1,100,113.751
1558723320.103449,188894.000,32719,1,H0,1,100,113.759
1558723320.234219,188990.000,32737,1,H0,1,100,113.747
1558723320.368394,189088.500,32758,2,H0,1,100,113.747
1558723320.502569,189187.000,32758,2,H0,1,100,113.755
1558723320.634701,189284.000,32778,1,H0,1,100,113.747
1558723320.770919,189384.000,32797,1,H0,1,100,113.755
1558723320.907137,189484.000,32815,1,H0,1,100,113.751
1558723321.040631,189582.000,32833,1,H0,1,100,113.740
1558723321.172763,189679.000,32851,1,H0,1,100,113.751
1558723321.306257,189777.000,32869,1,H0,1,100,113.747
1558723321.435665,189872.000,32887,1,H0,1,100,113.759
1558723321.569159,189970.000,32905,1,H0,1,100,113.755
1558723321.702653,190068.000,32924,1,H0,1,100,113.751
1558723321.834785,190165.000,32942,1,H0,1,100,113.751
1558723321.968279,190263.000,32960,1,H0,1,100,113.747
1558723322.101773,190361.000,32978,1,H0,1,100,113.755
1558723322.233904,190458.000,32996,1,H0,1,100,113.747
1558723322.364674,190554.000,33014,1,H0,1,100,113.759
1558723322.496806,190651.000,33032,1,H0,1,100,113.766
1558723322.628938,190748.000,33051,1,H0,1,100,113.755
1558723322.763794,190847.000,33069,1,H0,1,100,113.751
1558723322.897288,190945.000,33087,1,H0,1,100,113.759
1558723323.032144,191044.000,33105,1,H0,1,100,113.747
1558723323.165638,191142.000,33123,1,H0,1,100,113.747
1558723323.297089,191238.500,33141,2,H0,1,100,113.740
1558723323.428540,191335.000,33141,2,H0,1,100,113.747
1558723323.563396,191434.000,33159,1,H0,1,100,113.751
1558723323.698252,191533.000,33177,1,H0,1,100,113.740
1558723323.830384,191630.000,33196,1,H0,1,100,113.755
1558723323.966602,191730.000,33214,1,H0,1,100,113.751
1558723324.101459,191829.000,33232,1,H0,1,100,113.755
1558723324.233590,191926.000,33250,1,H0,1,100,113.740
1558723324.367085,192024.000,33268,2,H0,1,100,113.755
1558723324.500578,192122.000,33268,2,H0,1,100,113.751
1558723324.632710,192219.000,33287,2,H0,1,100,113.751
1558723324.764842,192316.000,33287,2,H0,1,100,113.759
1558723324.899698,192415.000,33305,1,H0,1,100,113.751
1558723325.031830,192512.000,33323,1,H0,1,100,113.751
1558723325.165324,192610.000,33341,1,H0,1,100,113.740
1558723325.298818,192708.000,33359,1,H0,1,100,113.743
1558723325.430950,192805.000,33377,1,H0,1,100,113.747
1558723325.561720,192901.000,33395,1,H0,1,100,113.743
1558723325.693851,192998.000,33413,1,H0,1,100,113.751
1558723325.827346,193096.000,33432,1,H0,1,100,113.751
1558723325.962202,193195.000,33450,1,H0,1,100,113.736
1558723326.095696,193293.000,33468,1,H0,1,100,113.759
1558723326.230552,193392.000,33486,1,H0,1,100,113.755
1558723326.364046,193490.000,33504,1,H0,1,100,113.740
1558723326.496178,193587.000,33522,1,H0,1,100,113.740
1558723326.626947,193683.000,33540,1,H0,1,100,113.751
1558723326.761804,193782.000,33559,1,H0,1,100,113.759
1558723326.896660,193881.000,33577,1,H0,1,100,113.743
1558723327.028792,193978.000,33595,1,H0,1,100,113.751
1558723327.165010,194078.000,33613,1,H0,1,100,113.755
1558723327.297823,194175.500,33634,2,H0,1,100,113.755
1558723327.430636,194273.000,33634,2,H0,1,100,113.762
1558723327.562768,194370.000,33653,1,H0,1,100,113.751
1558723327.697624,194469.000,33672,1,H0,1,100,113.751
1558723327.828394,194565.000,33691,1,H0,1,100,113.732
1558723327.961888,194663.000,33709,1,H0,1,100,113.759
1558723328.096744,194762.000,33727,1,H0,1,100,113.751
1558723328.228876,194859.000,33745,1,H0,1,100,113.751
1558723328.362370,194957.000,33763,1,H0,1,100,113.762
1558723328.494502,195054.000,33781,1,H0,1,100,113.755
1558723328.626633,195151.000,33799,1,H0,1,100,113.762
1558723328.757403,195247.000,33818,1,H0,1,100,113.759
1558723328.890897,195345.000,33836,1,H0,1,100,113.755
1558723329.024391,195443.000,33854,2,H0,1,100,113.766
1558723329.157885,195541.000,33854,2,H0,1,100,113.743
1558723329.291379,195639.000,33872,1,H0,1,100,113.747
1558723329.422149,195735.000,33890,1,H0,1,100,113.751
1558723329.557005,195834.000,33908,1,H0,1,100,113.747
1558723329.689137,195931.000,33926,1,H0,1,100,113.743
1558723329.819906,196027.000,33945,1,H0,1,100,113.759
1558723329.956125,196127.000,33963,1,H0,1,100,113.762
1558723330.090981,196226.000,33981,1,H0,1,100,113.747
1558723330.223113,196323.000,33999,1,H0,1,100,113.743
1558723330.359331,196423.000,34017,1,H0,1,100,113.759
1558723330.491463,196520.000,34035,1,H0,1,100,113.766
1558723330.622233,196616.000,34053,1,H0,1,100,113.759
1558723330.754365,196713.000,34071,1,H0,1,100,113.759
1558723330.889221,196812.000,34090,1,H0,1,100,113.755
1558723331.025439,196912.000,34108,1,H0,1,100,113.755
1558723331.158933,197010.000,34126,1,H0,1,100,113.762
1558723331.295152,197110.000,34144,1,H0,1,100,113.743
1558723331.431370,197210.000,34162,1,H0,1,100,113.747
1558723331.562140,197306.000,34180,1,H0,1,100,113.759
1558723331.694272,197403.000,34198,1,H0,1,100,113.762
1558723331.827765,197501.000,34217,1,H0,1,100,113.747
1558723331.958535,197597.000,34235,1,H0,1,100,113.751
1558723332.092029,197695.000,34253,1,H0,1,100,113.755
1558723332.226885,197794.000,34271,1,H0,1,100,113.751
1558723332.359017,197891.000,34289,1,H0,1,100,113.766
1558723332.493873,197990.000,34307,1,H0,1,100,113.759
1558723332.626005,198087.000,34325,1,H0,1,100,113.774
1558723332.758137,198184.000,34343,1,H0,1,100,113.751
1558723332.888907,198280.000,34362,1,H0,1,100,113.751
1558723333.022401,198378.000,34380,1,H0,1,100,113.766
1558723333.155895,198476.000,34398,1,H0,1,100,113.766
1558723333.290751,198575.000,34416,1,H0,1,100,113.770
1558723333.424245,198673.000,34434,2,H0,1,100,113.755
1558723333.557739,198771.000,34434,2,H0,1,100,113.759
1558723333.692595,198870.000,34452,1,H0,1,100,113.755
1558723333.824727,198967.000,34470,1,H0,1,100,113.751
1558723333.955497,199063.000,34489,1,H0,1,100,113.770
1558723334.091715,199163.000,34507,1,H0,1,100,113.766
1558723334.227934,199263.000,34525,1,H0,1,100,113.762
1558723334.361428,199361.000,34546,1,H0,1,100,113.751
1558723334.497646,199461.000,34566,1,H0,1,100,113.766
1558723334.632502,199560.000,34584,1,H0,1,100,113.755
1558723334.761910,199655.000,34602,1,H0,1,100,113.755
1558723334.894042,199752.000,34621,1,H0,1,100,113.774
1558723335.027535,199850.000,34639,1,H0,1,100,113.770
1558723335.159667,199947.000,34657,2,H0,1,100,113.755
1558723335.291799,200044.000,34657,2,H0,1,100,113.759
1558723335.426655,200143.000,34675,1,H0,1,100,113.755
1558723335.558787,200240.000,34693,1,H0,1,100,113.759
1558723335.690919,200337.000,34711,1,H0,1,100,113.762
1558723335.823051,200434.000,34729,1,H0,1,100,113.743
1558723335.955183,200531.000,34748,1,H0,1,100,113.751
1558723336.085952,200627.000,34766,1,H0,1,100,113.762
1558723336.219446,200725.000,34784,1,H0,1,100,113.762
1558723336.354303,200824.000,34802,1,H0,1,100,113.759
1558723336.489159,200923.000,34820,1,H0,1,100,113.759
1558723336.624015,201022.000,34838,1,H0,1,100,113.755
1558723336.754785,201118.000,34856,1,H0,1,100,113.762
1558723336.889641,201217.000,34875,1,H0,1,100,113.774
1558723337.021773,201314.000,34893,1,H0,1,100,113.762
1558723337.153904,201411.000,34911,1,H0,1,100,113.766
1558723337.290123,201511.000,34929,1,H0,1,100,113.755
1558723337.424979,201610.000,34947,1,H0,1,100,113.774
1558723337.557111,201707.000,34965,1,H0,1,100,113.762
1558723337.693329,201807.000,34983,1,H0,1,100,113.755
1558723337.826823,201905.000,35001,1,H0,1,100,113.759
1558723337.957593,202001.000,35020,1,H0,1,100,113.762
1558723338.089725,202098.000,35038,1,H0,1,100,113.751
1558723338.224581,202197.000,35056,1,H0,1,100,113.762
1558723338.356713,202294.000,35074,1,H0,1,100,113.747
1558723338.490207,202392.000,35092,1,H0,1,100,113.774
1558723338.625063,202491.000,35110,1,H0,1,100,113.751
1558723338.758557,202589.000,35128,1,H0,1,100,113.755
1558723338.889327,202685.000,35147,1,H0,1,100,113.770
1558723339.021459,202782.000,35165,1,H0,1,100,113.743
1558723339.153590,202879.000,35183,1,H0,1,100,113.751
1558723339.287085,202977.000,35201,2,H0,1,100,113.766
1558723339.420578,203075.000,35201,2,H0,1,100,113.759
1558723339.555435,203174.000,35219,1,H0,1,100,113.762
1558723339.690291,203273.000,35237,1,H0,1,100,113.755
1558723339.825147,203372.000,35255,1,H0,1,100,113.762
1558723339.955917,203468.000,35273,1,H0,1,100,113.751
1558723340.090773,203567.000,35292,1,H0,1,100,113.751
1558723340.222905,203664.000,35310,1,H0,1,100,113.751
1558723340.355037,203761.000,35328,1,H0,1,100,113.755
1558723340.491255,203861.000,35346,1,H0,1,100,113.766
1558723340.626111,203960.000,35364,1,H0,1,100,113.759
1558723340.758243,204057.000,35382,1,H0,1,100,113.751
1558723340.891737,204155.000,35400,1,H0,1,100,113.759
1558723341.025231,204253.000,35419,1,H0,1,100,113.759
1558723341.156001,204349.000,35437,1,H0,1,100,113.751
1558723341.289495,204447.000,35458,2,H0,1,100,113.740
1558723341.422989,204545.000,35458,2,H0,1,100,113.762
1558723341.555121,204642.000,35478,1,H0,1,100,113.755
1558723341.688615,204740.000,35496,1,H0,1,100,113.755
1558723341.823471,204839.000,35514,1,H0,1,100,113.759
1558723341.955603,204936.000,35532,1,H0,1,100,113.751
1558723342.086372,205032.000,35551,1,H0,1,100,113.766
1558723342.218504,205129.000,35569,1,H0,1,100,113.755
1558723342.350636,205226.000,35587,1,H0,1,100,113.751
1558723342.485492,205325.000,35605,1,H0,1,100,113.759
1558723342.618986,205423.000,35623,1,H0,1,100,113.755
1558723342.753843,205522.000,35641,1,H0,1,100,113.762
1558723342.888699,205621.000,35659,1,H0,1,100,113.759
1558723343.020831,205718.000,35678,1,H0,1,100,113.755
1558723343.151600,205814.000,35696,1,H0,1,100,113.747
1558723343.286456,205913.000,35714,1,H0,1,100,113.759
1558723343.419950,206011.000,35732,1,H0,1,100,113.747
1558723343.552082,206108.000,35750,1,H0,1,100,113.759
1558723343.688301,206208.000,35768,1,H0,1,100,113.747
1558723343.823157,206307.000,35786,1,H0,1,100,113.762
1558723343.956651,206405.000,35804,1,H0,1,100,113.762
1558723344.088783,206502.000,35823,1,H0,1,100,113.751
1558723344.223639,206601.000,35841,1,H0,1,100,113.751
1558723344.354409,206697.000,35859,1,H0,1,100,113.747
1558723344.489265,206796.000,35877,1,H0,1,100,113.751
1558723344.624121,206895.000,35895,1,H0,1,100,113.755
1558723344.757615,206993.000,35913,1,H0,1,100,113.755
1558723344.892471,207092.000,35931,1,H0,1,100,113.747
1558723345.025965,207190.000,35950,1,H0,1,100,113.743
1558723345.158097,207287.000,35968,1,H0,1,100,113.747
1558723345.289548,207383.500,35986,2,H0,1,100,113.751
1558723345.420999,207480.000,35986,2,H0,1,100,113.747
1558723345.553130,207577.000,36004,1,H0,1,100,113.743
1558723345.686625,207675.000,36022,1,H0,1,100,113.755
1558723345.820118,207773.000,36040,1,H0,1,100,113.751
1558723345.953613,207871.000,36058,1,H0,1,100,113.743
1558723346.087106,207969.000,36077,1,H0,1,100,113.766
1558723346.219238,208066.000,36095,1,H0,1,100,113.751
1558723346.350008,208162.000,36113,1,H0,1,100,113.751
1558723346.484864,208261.000,36131,1,H0,1,100,113.759
1558723346.619720,208360.000,36149,1,H0,1,100,113.751
1558723346.753214,208458.000,36167,1,H0,1,100,113.766
1558723346.888071,208557.000,36185,1,H0,1,100,113.755
1558723347.022927,208656.000,36203,1,H0,1,100,113.759
1558723347.156421,208754.000,36222,1,H0,1,100,113.755
1558723347.287190,208850.000,36240,1,H0,1,100,113.755
1558723347.422047,208949.000,36258,1,H0,1,100,113.751
1558723347.554178,209046.000,36276,1,H0,1,100,113.747
1558723347.687673,209144.000,36294,1,H0,1,100,113.759
1558723347.823891,209244.000,36312,1,H0,1,100,113.766
1558723347.960109,209344.000,36330,1,H0,1,100,113.751
1558723348.093603,209442.000,36349,1,H0,1,100,113.755
1558723348.226416,209539.500,36370,2,H0,1,100,113.762
1558723348.359229,209637.000,36370,2,H0,1,100,113.759
1558723348.488637,209732.000,36389,1,H0,1,100,113.747
1558723348.620769,209829.000,36408,1,H0,1,100,113.747
1558723348.754262,209927.000,36426,1,H0,1,100,113.762
1558723348.886394,210024.000,36444,1,H0,1,100,113.759
1558723349.019888,210122.000,36462,1,H0,1,100,113.743
1558723349.153382,210220.000,36481,1,H0,1,100,113.751
1558723349.285514,210317.000,36499,1,H0,1,100,113.759
1558723349.416284,210413.000,36517,1,H0,1,100,113.740
1558723349.548416,210510.000,36535,1,H0,1,100,113.751
1558723349.680547,210607.000,36553,1,H0,1,100,113.743
1558723349.815404,210706.000,36571,1,H0,1,100,113.766
1558723349.948898,210804.000,36589,1,H0,1,100,113.751
1558723350.083754,210903.000,36608,1,H0,1,100,113.759
1558723350.218610,211002.000,36626,1,H0,1,100,113.759
1558723350.350742,211099.000,36644,1,H0,1,100,113.762
1558723350.481512,211195.000,36662,1,H0,1,100,113.747
1558723350.616368,211294.000,36680,1,H0,1,100,113.759
1558723350.749862,211392.000,36698,2,H0,1,100,113.743
1558723350.883356,211490.000,36698,2,H0,1,100,113.766
1558723351.019574,211590.000,36716,1,H0,1,100,113.736
1558723351.155793,211690.000,36734,1,H0,1,100,113.755
1558723351.287925,211787.000,36753,1,H0,1,100,113.770
1558723351.420056,211884.000,36771,1,H0,1,100,113.743
1558723351.553550,211982.000,36789,1,H0,1,100,113.747
1558723351.682958,212077.000,36807,1,H0,1,100,113.743
1558723351.816452,212175.000,36825,1,H0,1,100,113.728
1558723351.951308,212274.000,36843,1,H0,1,100,113.736
1558723352.083440,212371.000,36861,1,H0,1,100,113.759
1558723352.216934,212469.000,36880,1,H0,1,100,113.759
1558723352.350428,212567.000,36898,1,H0,1,100,113.755
1558723352.482560,212664.000,36916,1,H0,1,100,113.755
1558723352.613329,212760.000,36934,1,H0,1,100,113.766
1558723352.746824,212858.000,36952,1,H0,1,100,113.762
1558723352.880317,212956.000,36970,1,H0,1,100,113.766
1558723353.015174,213055.000,36988,1,H0,1,100,113.751
1558723353.148668,213153.000,37007,1,H0,1,100,113.759
1558723353.283524,213252.000,37025,1,H0,1,100,113.755
1558723353.417018,213350.000,37043,1,H0,1,100,113.770
1558723353.549150,213447.000,37061,1,H0,1,100,113.762
1558723353.679919,213543.000,37079,1,H0,1,100,113.759
1558723353.814776,213642.000,37097,1,H0,1,100,113.762
1558723353.949632,213741.000,37115,1,H0,1,100,113.740
1558723354.081764,213838.000,37133,1,H0,1,100,113.751
1558723354.217982,213938.000,37152,1,H0,1,100,113.747
1558723354.352838,214037.000,37170,1,H0,1,100,113.759
1558723354.483608,214133.000,37188,1,H0,1,100,113.747
1558723354.615740,214230.000,37206,1,H0,1,100,113.747
1558723354.750596,214329.000,37224,1,H0,1,100,113.751
1558723354.881366,214425.000,37242,1,H0,1,100,113.759
1558723355.015541,214523.500,37260,2,H0,1,100,113.755
1558723355.149716,214622.000,37260,2,H0,1,100,113.755
1558723355.281848,214719.000,37282,1,H0,1,100,113.759
1558723355.415342,214817.000,37302,1,H0,1,100,113.759
1558723355.547474,214914.000,37320,1,H0,1,100,113.755
1558723355.679605,215011.000,37338,1,H0,1,100,113.755
1558723355.810375,215107.000,37356,1,H0,1,100,113.770
1558723355.943869,215205.000,37374,1,H0,1,100,113.743
1558723356.078725,215304.000,37392,1,H0,1,100,113.759
1558723356.213582,215403.000,37411,1,H0,1,100,113.751
1558723356.347075,215501.000,37429,1,H0,1,100,113.751
1558723356.481251,215599.500,37447,2,H0,1,100,113.736
1558723356.615426,215698.000,37447,2,H0,1,100,113.751
1558723356.747558,215795.000,37465,1,H0,1,100,113.762
1558723356.878327,215891.000,37483,1,H0,1,100,113.766
1558723357.014546,215991.000,37501,1,H0,1,100,113.747
1558723357.149402,216090.000,37519,1,H0,1,100,113.740
1558723357.281534,216187.000,37538,1,H0,1,100,113.759
1558723357.417752,216287.000,37556,1,H0,1,100,113.751
1558723357.551246,216385.000,37574,1,H0,1,100,113.751
1558723357.682016,216481.000,37592,1,H0,1,100,113.747
1558723357.814147,216578.000,37610,1,H0,1,100,113.759
1558723357.949004,216677.000,37628,1,H0,1,100,113.755
1558723358.081136,216774.000,37646,1,H0,1,100,113.743
1558723358.214630,216872.000,37664,1,H0,1,100,113.751
1558723358.349486,216971.000,37683,1,H0,1,100,113.747
1558723358.481618,217068.000,37701,1,H0,1,100,113.751
1558723358.613750,217165.000,37719,1,H0,1,100,113.755
1558723358.745881,217262.000,37737,1,H0,1,100,113.747
1558723358.878013,217359.000,37755,1,H0,1,100,113.743
1558723359.011507,217457.000,37773,1,H0,1,100,113.755
1558723359.145001,217555.000,37791,1,H0,1,100,113.747
1558723359.279857,217654.000,37810,1,H0,1,100,113.759
1558723359.413805,217752.333,37828,3,H0,1,100,113.751
1558723359.547754,217850.667,37828,3,H0,1,100,113.759
1558723359.681702,217949.000,37828,3,H0,1,100,113.759
1558723359.815741,218047.400,37846,5,H0,1,100,113.759
1558723359.949780,218145.800,37846,5,H0,1,100,113.751
1558723360.083818,218244.200,37846,5,H0,1,100,113.751
1558723360.217857,218342.600,37846,5,H0,1,100,113.762
1558723360.351896,218441.000,37846,5,H0,1,100,113.759
1558723360.485390,218539.000,37865,2,H0,1,100,113.755
1558723360.618884,218637.000,37865,2,H0,1,100,113.755
1558723360.753740,218736.000,37883,1,H0,1,100,113.759
1558723360.884510,218832.000,37901,1,H0,1,100,113.751
1558723361.016642,218929.000,37919,1,H0,1,100,113.747
1558723361.151498,219028.000,37937,1,H0,1,100,113.751
1558723361.284992,219126.000,37956,1,H0,1,100,113.766
1558723361.419848,219225.000,37974,1,H0,1,100,113.759
1558723361.554704,219324.000,37992,1,H0,1,100,113.770
1558723361.688199,219422.000,38010,1,H0,1,100,113.770
1558723361.819649,219518.500,38028,2,H0,1,100,113.755
1558723361.951100,219615.000,38028,2,H0,1,100,113.743
1558723362.084594,219713.000,38046,1,H0,1,100,113.759
1558723362.215364,219809.000,38067,1,H0,1,100,113.759
1558723362.348858,219907.000,38087,1,H0,1,100,113.755
1558723362.482352,220005.000,38106,2,H0,1,100,113.759
1558723362.615846,220103.000,38106,2,H0,1,100,113.766
1558723362.749340,220201.000,38124,1,H0,1,100,113.736
1558723362.881472,220298.000,38142,1,H0,1,100,113.755
1558723363.013603,220395.000,38160,1,H0,1,100,113.774
1558723363.144373,220491.000,38178,1,H0,1,100,113.755
1558723363.277867,220589.000,38196,1,H0,1,100,113.747
1558723363.412723,220688.000,38215,1,H0,1,100,113.759
1558723363.547580,220787.000,38233,1,H0,1,100,113.755
1558723363.682436,220886.000,38251,1,H0,1,100,113.759
1558723363.814568,220983.000,38269,1,H0,1,100,113.762
1558723363.949424,221082.000,38287,1,H0,1,100,113.766
1558723364.081556,221179.000,38305,1,H0,1,100,113.762
1558723364.213687,221276.000,38323,1,H0,1,100,113.759
1558723364.349906,221376.000,38342,1,H0,1,100,113.759
1558723364.486124,221476.000,38360,1,H0,1,100,113.751
1558723364.619618,221574.000,38378,1,H0,1,100,113.778
1558723364.755837,221674.000,38396,1,H0,1,100,113.762
1558723364.889331,221772.000,38414,1,H0,1,100,113.759
1558723365.018738,221867.000,38432,1,H0,1,100,113.766
1558723365.150870,221964.000,38450,1,H0,1,100,113.774
1558723365.284364,222062.000,38468,1,H0,1,100,113.759
1558723365.415134,222158.000,38487,1,H0,1,100,113.759
1558723365.548628,222256.000,38505,1,H0,1,100,113.751
1558723365.683484,222355.000,38523,1,H0,1,100,113.762
1558723365.816978,222453.000,38541,1,H0,1,100,113.774
1558723365.947747,222549.000,38559,1,H0,1,100,113.755
1558723366.079879,222646.000,38577,1,H0,1,100,113.774
1558723366.212011,222743.000,38595,1,H0,1,100,113.759
1558723366.345505,222841.000,38614,1,H0,1,100,113.766
1558723366.478999,222939.000,38632,1,H0,1,100,113.770
1558723366.613855,223038.000,38650,1,H0,1,100,113.759
1558723366.748712,223137.000,38668,1,H0,1,100,113.743
1558723366.880843,223234.000,38686,2,H0,1,100,113.747
1558723367.012975,223331.000,38686,2,H0,1,100,113.747
1558723367.147831,223430.000,38704,1,H0,1,100,113.762
1558723367.279963,223527.000,38722,1,H0,1,100,113.743
1558723367.413457,223625.000,38741,1,H0,1,100,113.755
1558723367.549676,223725.000,38759,1,H0,1,100,113.762
1558723367.685894,223825.000,38777,1,H0,1,100,113.747
1558723367.819388,223923.000,38795,1,H0,1,100,113.747
1558723367.952882,224021.000,38813,1,H0,1,100,113.755
1558723368.086376,224119.000,38831,1,H0,1,100,113.759
1558723368.217146,224215.000,38849,1,H0,1,100,113.759
1558723368.349278,224312.000,38867,1,H0,1,100,113.747
1558723368.484134,224411.000,38886,1,H0,1,100,113.751
1558723368.616266,224508.000,38904,1,H0,1,100,113.743
1558723368.749760,224606.000,38922,1,H0,1,100,113.759
1558723368.884616,224705.000,38940,1,H0,1,100,113.751
1558723369.018110,224803.000,38958,1,H0,1,100,113.759
1558723369.149561,224899.500,38979,2,H0,1,100,113.751
1558723369.281012,224996.000,38979,2,H0,1,100,113.747
1558723369.413143,225093.000,39000,1,H0,1,100,113.762
1558723369.548000,225192.000,39018,1,H0,1,100,113.751
1558723369.681494,225290.000,39036,1,H0,1,100,113.759
1558723369.816350,225389.000,39054,1,H0,1,100,113.751
1558723369.951206,225488.000,39072,1,H0,1,100,113.740
1558723370.084700,225586.000,39090,1,H0,1,100,113.766
1558723370.215470,225682.000,39108,1,H0,1,100,113.759
1558723370.350326,225781.000,39126,1,H0,1,100,113.762
1558723370.483820,225879.000,39145,1,H0,1,100,113.762
1558723370.615952,225976.000,39163,1,H0,1,100,113.751
1558723370.752170,226076.000,39181,1,H0,1,100,113.762
1558723370.887026,226175.000,39199,1,H0,1,100,113.755
1558723371.020520,226273.000,39217,1,H0,1,100,113.755
1558723371.152652,226370.000,39235,1,H0,1,100,113.743
1558723371.287508,226469.000,39253,1,H0,1,100,113.755
1558723371.418278,226565.000,39272,1,H0,1,100,113.759
1558723371.551772,226663.000,39290,1,H0,1,100,113.755
1558723371.686628,226762.000,39308,1,H0,1,100,113.740
1558723371.818760,226859.000,39326,1,H0,1,100,113.751
1558723371.952254,226957.000,39344,1,H0,1,100,113.751
1558723372.085748,227055.000,39362,1,H0,1,100,113.732
1558723372.217880,227152.000,39380,1,H0,1,100,113.736
1558723372.348650,227248.000,39398,1,H0,1,100,113.747
1558723372.480782,227345.000,39417,1,H0,1,100,113.755
1558723372.612913,227442.000,39435,1,H0,1,100,113.751
1558723372.747088,227540.500,39453,2,H0,1,100,113.762
1558723372.881263,227639.000,39453,2,H0,1,100,113.755
1558723373.016120,227738.000,39471,1,H0,1,100,113.751
1558723373.149614,227836.000,39489,1,H0,1,100,113.751
1558723373.281746,227933.000,39507,1,H0,1,100,113.747
1558723373.412515,228029.000,39525,1,H0,1,100,113.743
1558723373.547371,228128.000,39544,1,H0,1,100,113.747
1558723373.682228,228227.000,39562,1,H0,1,100,113.743
1558723373.814359,228324.000,39580,1,H0,1,100,113.743
1558723373.950578,228424.000,39598,1,H0,1,100,113.770
1558723374.085434,228523.000,39616,1,H0,1,100,113.736
1558723374.217566,228620.000,39634,1,H0,1,100,113.755
1558723374.349698,228717.000,39652,1,H0,1,100,113.743
1558723374.484554,228816.000,39670,1,H0,1,100,113.743
1558723374.615324,228912.000,39689,1,H0,1,100,113.732
1558723374.748818,229010.000,39707,1,H0,1,100,113.755
1558723374.883674,229109.000,39725,1,H0,1,100,113.751
1558723375.015806,229206.000,39743,1,H0,1,100,113.743
1558723375.149300,229304.000,39761,1,H0,1,100,113.747
1558723375.282794,229402.000,39779,1,H0,1,100,113.751
1558723375.414926,229499.000,39797,1,H0,1,100,113.751
1558723375.545695,229595.000,39816,1,H0,1,100,113.759
1558723375.677827,229692.000,39834,1,H0,1,100,113.755
1558723375.809959,229789.000,39852,1,H0,1,100,113.740
1558723375.943453,229887.000,39870,1,H0,1,100,113.740
1558723376.076947,229985.000,39891,2,H0,1,100,113.755
1558723376.210441,230083.000,39891,2,H0,1,100,113.740
1558723376.343935,230181.000,39910,1,H0,1,100,113.755
1558723376.476067,230278.000,39929,1,H0,1,100,113.736
1558723376.606837,230374.000,39948,1,H0,1,100,113.747
1558723376.741693,230473.000,39966,1,H0,1,100,113.740
1558723376.876549,230572.000,39984,1,H0,1,100,113.751
1558723377.008681,230669.000,40002,1,H0,1,100,113.759
1558723377.144899,230769.000,40020,1,H0,1,100,113.747
1558723377.279755,230868.000,40038,1,H0,1,100,113.759
1558723377.410525,230964.000,40056,1,H0,1,100,113.747
1558723377.542657,231061.000,40075,1,H0,1,100,113.743
1558723377.677513,231160.000,40093,1,H0,1,100,113.747
1558723377.811007,231258.000,40111,1,H0,1,100,113.747
1558723377.944501,231356.000,40129,1,H0,1,100,113.755
1558723378.080719,231456.000,40147,1,H0,1,100,113.747
1558723378.214895,231554.500,40165,2,H0,1,100,113.728
1558723378.349070,231653.000,40165,2,H0,1,100,113.740
1558723378.481201,231750.000,40183,1,H0,1,100,113.743
1558723378.614696,231848.000,40202,1,H0,1,100,113.751
1558723378.744103,231943.000,40220,1,H0,1,100,113.747
1558723378.877597,232041.000,40238,1,H0,1,100,113.740
1558723379.012453,232140.000,40256,1,H0,1,100,113.743
1558723379.144585,232237.000,40274,1,H0,1,100,113.747
1558723379.278079,232335.000,40292,1,H0,1,100,113.751
1558723379.410211,232432.000,40310,1,H0,1,100,113.759
1558723379.542343,232529.000,40328,1,H0,1,100,113.755
1558723379.673112,232625.000,40347,1,H0,1,100,113.762
1558723379.805244,232722.000,40365,1,H0,1,100,113.740
1558723379.938738,232820.000,40383,1,H0,1,100,113.743
1558723380.073595,232919.000,40401,1,H0,1,100,113.751
1558723380.207088,233017.000,40419,1,H0,1,100,113.762
1558723380.341945,233116.000,40437,1,H0,1,100,113.751
1558723380.474077,233213.000,40455,1,H0,1,100,113.743
1558723380.606208,233310.000,40474,1,H0,1,100,113.747
1558723380.736978,233406.000,40492,1,H0,1,100,113.751
1558723380.871834,233505.000,40510,1,H0,1,100,113.759
1558723381.008053,233605.000,40528,1,H0,1,100,113.743
1558723381.141547,233703.000,40546,1,H0,1,100,113.759
1558723381.277765,233803.000,40564,1,H0,1,100,113.743
1558723381.413983,233903.000,40582,1,H0,1,100,113.755
1558723381.544753,233999.000,40600,1,H0,1,100,113.747
1558723381.676885,234096.000,40619,1,H0,1,100,113.736
1558723381.810379,234194.000,40637,1,H0,1,100,113.755
1558723381.941149,234290.000,40655,1,H0,1,100,113.751
1558723382.074643,234388.000,40673,1,H0,1,100,113.747
1558723382.208137,234486.000,40691,2,H0,1,100,113.724
1558723382.341631,234584.000,40691,2,H0,1,100,113.759
1558723382.476487,234683.000,40709,1,H0,1,100,113.755
1558723382.608619,234780.000,40727,1,H0,1,100,113.740
1558723382.740751,234877.000,40746,1,H0,1,100,113.755
1558723382.871520,234973.000,40764,1,H0,1,100,113.743
1558723383.005014,235071.000,40782,1,H0,1,100,113.755
1558723383.138508,235169.000,40803,1,H0,1,100,113.755
1558723383.273364,235268.000,40823,1,H0,1,100,113.747
1558723383.406858,235366.000,40841,1,H0,1,100,113.762
1558723383.540352,235464.000,40859,1,H0,1,100,113.762
1558723383.675209,235563.000,40878,1,H0,1,100,113.747
1558723383.806659,235659.500,40896,2,H0,1,100,113.751
1558723383.938110,235756.000,40896,2,H0,1,100,113.740
1558723384.074328,235856.000,40914,1,H0,1,100,113.747
1558723384.209185,235955.000,40932,1,H0,1,100,113.732
1558723384.341316,236052.000,40950,1,H0,1,100,113.751
1558723384.477535,236152.000,40968,1,H0,1,100,113.755
1558723384.611029,236250.000,40986,1,H0,1,100,113.740
1558723384.741799,236346.000,41005,1,H0,1,100,113.762
1558723384.873930,236443.000,41023,1,H0,1,100,113.751
1558723385.008787,236542.000,41041,1,H0,1,100,113.751
1558723385.139556,236638.000,41059,1,H0,1,100,113.743
1558723385.273050,236736.000,41077,1,H0,1,100,113.740
1558723385.407907,236835.000,41095,1,H0,1,100,113.751
1558723385.540038,236932.000,41113,1,H0,1,100,113.755
1558723385.672170,237029.000,41132,1,H0,1,100,113.762
1558723385.804302,237126.000,41150,1,H0,1,100,113.755
1558723385.936434,237223.000,41168,1,H0,1,100,113.766
1558723386.067204,237319.000,41186,1,H0,1,100,113.755
1558723386.200698,237417.000,41204,1,H0,1,100,113.766
1558723386.335554,237516.000,41222,1,H0,1,100,113.743
1558723386.470410,237615.000,41240,1,H0,1,100,113.755
1558723386.605266,237714.000,41258,1,H0,1,100,113.755
1558723386.736036,237810.000,41277,1,H0,1,100,113.743
1558723386.870892,237909.000,41295,1,H0,1,100,113.778
1558723387.003024,238006.000,41313,1,H0,1,100,113.762
1558723387.135156,238103.000,41331,1,H0,1,100,113.762
1558723387.271374,238203.000,41349,1,H0,1,100,113.743
1558723387.406230,238302.000,41367,1,H0,1,100,113.743
1558723387.538362,238399.000,41385,1,H0,1,100,113.743
1558723387.674581,238499.000,41404,1,H0,1,100,113.762
1558723387.808074,238597.000,41422,1,H0,1,100,113.759
1558723387.938844,238693.000,41440,1,H0,1,100,113.755
1558723388.072338,238791.000,41458,2,H0,1,100,113.766
1558723388.205832,238889.000,41458,2,H0,1,100,113.759
1558723388.337964,238986.000,41476,1,H0,1,100,113.747
1558723388.471458,239084.000,41494,1,H0,1,100,113.743
1558723388.606314,239183.000,41512,1,H0,1,100,113.751
1558723388.739808,239281.000,41530,1,H0,1,100,113.751
1558723388.870578,239377.000,41549,1,H0,1,100,113.762
1558723389.002710,239474.000,41567,1,H0,1,100,113.740
1558723389.134842,239571.000,41585,1,H0,1,100,113.755
1558723389.268336,239669.000,41603,1,H0,1,100,113.751
1558723389.401830,239767.000,41621,1,H0,1,100,113.751
1558723389.536686,239866.000,41639,1,H0,1,100,113.751
1558723389.671542,239965.000,41657,1,H0,1,100,113.747
1558723389.806398,240064.000,41676,1,H0,1,100,113.751
1558723389.937168,240160.000,41694,1,H0,1,100,113.759
1558723390.070662,240258.000,41715,2,H0,1,100,113.751
1558723390.204156,240356.000,41715,2,H0,1,100,113.751
1558723390.336288,240453.000,41735,1,H0,1,100,113.762
1558723390.472506,240553.000,41753,1,H0,1,100,113.751
1558723390.607363,240652.000,41771,1,H0,1,100,113.747
1558723390.739494,240749.000,41789,1,H0,1,100,113.743
1558723390.872988,240847.000,41808,1,H0,1,100,113.743
1558723391.007844,240946.000,41826,1,H0,1,100,113.736
1558723391.138614,241042.000,41844,1,H0,1,100,113.743
1558723391.270746,241139.000,41862,1,H0,1,100,113.743
1558723391.405602,241238.000,41880,1,H0,1,100,113.751
1558723391.539096,241336.000,41898,1,H0,1,100,113.747
1558723391.673952,241435.000,41916,1,H0,1,100,113.747
1558723391.808809,241534.000,41935,1,H0,1,100,113.747
1558723391.940940,241631.000,41953,1,H0,1,100,113.736
1558723392.071710,241727.000,41971,1,H0,1,100,113.759
1558723392.203842,241824.000,41989,1,H0,1,100,113.736
1558723392.335974,241921.000,42007,1,H0,1,100,113.743
1558723392.469468,242019.000,42025,1,H0,1,100,113.751
1558723392.602962,242117.000,42043,1,H0,1,100,113.732
1558723392.737818,242216.000,42061,1,H0,1,100,113.747
1558723392.869950,242313.000,42080,1,H0,1,100,113.755
1558723393.000720,242409.000,42098,1,H0,1,100,113.740
1558723393.132851,242506.000,42116,1,H0,1,100,113.759
1558723393.264983,242603.000,42134,1,H0,1,100,113.743
1558723393.398477,242701.000,42152,1,H0,1,100,113.743
1558723393.531971,242799.000,42170,1,H0,1,100,113.766
1558723393.666827,242898.000,42188,1,H0,1,100,113.751
1558723393.801684,242997.000,42207,1,H0,1,100,113.743
1558723393.934497,243094.500,42225,2,H0,1,100,113.751
1558723394.067310,243192.000,42225,2,H0,1,100,113.747
1558723394.202166,243291.000,42243,1,H0,1,100,113.743
1558723394.334298,243388.000,42261,1,H0,1,100,113.751
1558723394.467792,243486.000,42279,1,H0,1,100,113.743
1558723394.604010,243586.000,42297,1,H0,1,100,113.740
1558723394.740228,243686.000,42315,1,H0,1,100,113.740
1558723394.873722,243784.000,42334,1,H0,1,100,113.736
1558723395.008579,243883.000,42352,1,H0,1,100,113.743
1558723395.142073,243981.000,42370,1,H0,1,100,113.740
1558723395.271480,244076.000,42388,1,H0,1,100,113.740
1558723395.403612,244173.000,42406,1,H0,1,100,113.740
1558723395.537106,244271.000,42424,1,H0,1,100,113.732
1558723395.669238,244368.000,42442,1,H0,1,100,113.736
1558723395.802732,244466.000,42460,1,H0,1,100,113.751
1558723395.937588,244565.000,42479,1,H0,1,100,113.732
1558723396.069720,244662.000,42497,1,H0,1,100,113.740
1558723396.200490,244758.000,42515,1,H0,1,100,113.740
1558723396.332621,244855.000,42533,1,H0,1,100,113.736
1558723396.464753,244952.000,42551,1,H0,1,100,113.732
1558723396.599609,245051.000,42569,1,H0,1,100,113.732
1558723396.733104,245149.000,42587,1,H0,1,100,113.728
1558723396.867959,245248.000,42606,1,H0,1,100,113.736
1558723397.002135,245346.500,42627,2,H0,1,100,113.736
1558723397.136310,245445.000,42627,2,H0,1,100,113.747
1558723397.267080,245541.000,42646,1,H0,1,100,113.732
1558723397.401936,245640.000,42665,1,H0,1,100,113.740
1558723397.534068,245737.000,42683,1,H0,1,100,113.736
1558723397.667562,245835.000,42701,1,H0,1,100,113.743
1558723397.803780,245935.000,42719,1,H0,1,100,113.720
1558723397.939998,246035.000,42738,1,H0,1,100,113.740
1558723398.073492,246133.000,42756,1,H0,1,100,113.743
1558723398.205624,246230.000,42774,1,H0,1,100,113.740
1558723398.339118,246328.000,42792,1,H0,1,100,113.743
1558723398.469888,246424.000,42810,1,H0,1,100,113.717
1558723398.602020,246521.000,42828,1,H0,1,100,113.736
1558723398.736876,246620.000,42846,1,H0,1,100,113.755
1558723398.869008,246717.000,42865,1,H0,1,100,113.747
1558723399.002502,246815.000,42883,1,H0,1,100,113.728
1558723399.135996,246913.000,42901,1,H0,1,100,113.736
1558723399.268128,247010.000,42919,1,H0,1,100,113.747
1558723399.399578,247106.500,42937,2,H0,1,100,113.736
1558723399.531029,247203.000,42937,2,H0,1,100,113.740
1558723399.663161,247300.000,42955,1,H0,1,100,113.732
1558723399.798017,247399.000,42973,1,H0,1,100,113.720
1558723399.931511,247497.000,42991,1,H0,1,100,113.740
1558723400.066367,247596.000,43010,1,H0,1,100,113.724
1558723400.201224,247695.000,43028,1,H0,1,100,113.732
1558723400.333355,247792.000,43046,1,H0,1,100,113.728
1558723400.464125,247888.000,43064,1,H0,1,100,113.736
1558723400.598981,247987.000,43082,1,H0,1,100,113.732
1558723400.732475,248085.000,43100,1,H0,1,100,113.728
1558723400.864607,248182.000,43118,1,H0,1,100,113.724
1558723401.000825,248282.000,43137,1,H0,1,100,113.720
1558723401.135682,248381.000,43155,1,H0,1,100,113.736
1558723401.269176,248479.000,43173,1,H0,1,100,113.740
1558723401.401308,248576.000,43191,1,H0,1,100,113.728
1558723401.536164,248675.000,43209,1,H0,1,100,113.728
1558723401.666934,248771.000,43227,1,H0,1,100,113.743
1558723401.800427,248869.000,43245,1,H0,1,100,113.713
1558723401.935284,248968.000,43264,1,H0,1,100,113.736
1558723402.067415,249065.000,43282,1,H0,1,100,113.740
1558723402.200910,249163.000,43300,1,H0,1,100,113.747
1558723402.334404,249261.000,43318,1,H0,1,100,113.728
1558723402.466535,249358.000,43336,1,H0,1,100,113.732
1558723402.597305,249454.000,43354,1,H0,1,100,113.728
1558723402.729437,249551.000,43372,1,H0,1,100,113.720
1558723402.862931,249649.000,43390,1,H0,1,100,113.720
1558723402.997787,249748.000,43409,1,H0,1,100,113.736
1558723403.131281,249846.000,43427,1,H0,1,100,113.732
1558723403.266137,249945.000,43445,1,H0,1,100,113.736
1558723403.399631,250043.000,43463,1,H0,1,100,113.728
1558723403.531763,250140.000,43481,1,H0,1,100,113.709
1558723403.664576,250237.500,43499,2,H0,1,100,113.724
1558723403.797389,250335.000,43499,2,H0,1,100,113.720
1558723403.930883,250433.000,43517,1,H0,1,100,113.728
1558723404.063015,250530.000,43539,1,H0,1,100,113.720
1558723404.199233,250630.000,43559,1,H0,1,100,113.728
1558723404.334090,250729.000,43577,1,H0,1,100,113.720
1558723404.464859,250825.000,43595,1,H0,1,100,113.713
1558723404.596991,250922.000,43613,1,H0,1,100,113.713
1558723404.731847,251021.000,43631,1,H0,1,100,113.713
1558723404.862617,251117.000,43649,1,H0,1,100,113.732
1558723404.996111,251215.000,43668,1,H0,1,100,113.736
1558723405.129605,251313.000,43686,2,H0,1,100,113.728
1558723405.263099,251411.000,43686,2,H0,1,100,113.713
1558723405.396593,251509.000,43704,1,H0,1,100,113.724
1558723405.528725,251606.000,43722,1,H0,1,100,113.705
1558723405.660856,251703.000,43740,1,H0,1,100,113.728
1558723405.791626,251799.000,43758,1,H0,1,100,113.740
1558723405.925120,251897.000,43776,1,H0,1,100,113.709
1558723406.058614,251995.000,43795,1,H0,1,100,113.709
1558723406.192108,252093.000,43813,1,H0,1,100,113.717
1558723406.325602,252191.000,43831,1,H0,1,100,113.717
1558723406.457734,252288.000,43849,1,H0,1,100,113.717
1558723406.592590,252387.000,43867,1,H0,1,100,113.709
1558723406.724722,252484.000,43885,1,H0,1,100,113.724
