EpochTimestamp,EmotiBitTimestamp,PacketNumber,DataLength,TypeTag,ProtocolVersion,DataReliability,PI
1558722341.855972,275047.000,48087,9,PI,1,100,169479
1558722341.855972,275047.000,48087,9,PI,1,100,169506
1558722341.855972,275047.000,48087,9,PI,1,100,169504
1558722341.855972,275047.000,48087,9,PI,1,100,169459
1558722341.855972,275047.000,48087,9,PI,1,100,169369
1558722341.855972,275047.000,48087,9,PI,1,100,169331
1558722341.855972,275047.000,48087,9,PI,1,100,169299
1558722341.855972,275047.000,48087,9,PI,1,100,169329
1558722341.855972,275047.000,48087,9,PI,1,100,169359
1558722341.897174,275077.250,48105,4,PI,1,100,169309
1558722341.938377,275107.500,48105,4,PI,1,100,169341
1558722341.979580,275137.750,48105,4,PI,1,100,169329
1558722342.020783,275168.000,48105,4,PI,1,100,169343
1558722342.058240,275195.500,48123,4,PI,1,100,169349
1558722342.095698,275223.000,48123,4,PI,1,100,169368
1558722342.133155,275250.500,48123,4,PI,1,100,169347
1558722342.170612,275278.000,48123,4,PI,1,100,169361
1558722342.215106,275310.667,48141,3,PI,1,100,169372
1558722342.259601,275343.333,48141,3,PI,1,100,169389
1558722342.304096,275376.000,48141,3,PI,1,100,169400
1558722342.342234,275404.000,48159,3,PI,1,100,169387
1558722342.380372,275432.000,48159,3,PI,1,100,169389
1558722342.418510,275460.000,48159,3,PI,1,100,169387
1558722342.460735,275491.000,48178,4,PI,1,100,169428
1558722342.502959,275522.000,48178,4,PI,1,100,169387
1558722342.545184,275553.000,48178,4,PI,1,100,169349
1558722342.587408,275584.000,48178,4,PI,1,100,169289
1558722342.626455,275612.667,48196,3,PI,1,100,169257
1558722342.665501,275641.333,48196,3,PI,1,100,169263
1558722342.704547,275670.000,48196,3,PI,1,100,169242
1558722342.742345,275697.750,48214,4,PI,1,100,169262
1558722342.780143,275725.500,48214,4,PI,1,100,169236
1558722342.817940,275753.250,48214,4,PI,1,100,169246
1558722342.855738,275781.000,48214,4,PI,1,100,169256
1558722342.899779,275813.333,48232,3,PI,1,100,169267
1558722342.943819,275845.667,48232,3,PI,1,100,169269
1558722342.987860,275878.000,48232,3,PI,1,100,169270
1558722343.024976,275905.250,48250,4,PI,1,100,169271
1558722343.062093,275932.500,48250,4,PI,1,100,169295
1558722343.099210,275959.750,48250,4,PI,1,100,169293
1558722343.136327,275987.000,48250,4,PI,1,100,169295
1558722343.177416,276017.167,48271,6,PI,1,100,169334
1558722343.218505,276047.333,48271,6,PI,1,100,169295
1558722343.259595,276077.500,48271,6,PI,1,100,169334
1558722343.300684,276107.667,48271,6,PI,1,100,169312
1558722343.341774,276137.833,48271,6,PI,1,100,169348
1558722343.382863,276168.000,48271,6,PI,1,100,169376
1558722343.420320,276195.500,48291,4,PI,1,100,169395
1558722343.457778,276223.000,48291,4,PI,1,100,169367
1558722343.495235,276250.500,48291,4,PI,1,100,169287
1558722343.532692,276278.000,48291,4,PI,1,100,169205
1558722343.571284,276306.333,48310,3,PI,1,100,169191
1558722343.609876,276334.667,48310,3,PI,1,100,169184
1558722343.648469,276363.000,48310,3,PI,1,100,169165
1558722343.693417,276396.000,48328,3,PI,1,100,169195
1558722343.738366,276429.000,48328,3,PI,1,100,169149
1558722343.783314,276462.000,48328,3,PI,1,100,169195
1558722343.821112,276489.750,48346,4,PI,1,100,169174
1558722343.858910,276517.500,48346,4,PI,1,100,169199
1558722343.896708,276545.250,48346,4,PI,1,100,169218
1558722343.934505,276573.000,48346,4,PI,1,100,169197
1558722343.973098,276601.333,48364,3,PI,1,100,169220
1558722344.011690,276629.667,48364,3,PI,1,100,169223
1558722344.050282,276658.000,48364,3,PI,1,100,169255
1558722344.091826,276688.500,48382,4,PI,1,100,169246
1558722344.133369,276719.000,48382,4,PI,1,100,169228
1558722344.174912,276749.500,48382,4,PI,1,100,169260
1558722344.216456,276780.000,48382,4,PI,1,100,169265
1558722344.255502,276808.667,48400,3,PI,1,100,169266
1558722344.294549,276837.333,48400,3,PI,1,100,169293
1558722344.333595,276866.000,48400,3,PI,1,100,169272
1558722344.375138,276896.500,48418,4,PI,1,100,169292
1558722344.416682,276927.000,48418,4,PI,1,100,169302
1558722344.458225,276957.500,48418,4,PI,1,100,169305
1558722344.499768,276988.000,48418,4,PI,1,100,169220
1558722344.538361,277016.333,48437,3,PI,1,100,169157
1558722344.576953,277044.667,48437,3,PI,1,100,169156
1558722344.615545,277073.000,48437,3,PI,1,100,169164
1558722344.655500,277102.333,48455,3,PI,1,100,169197
1558722344.695454,277131.667,48455,3,PI,1,100,169198
1558722344.735408,277161.000,48455,3,PI,1,100,169202
1558722344.777292,277191.750,48473,4,PI,1,100,169200
1558722344.819176,277222.500,48473,4,PI,1,100,169176
1558722344.861060,277253.250,48473,4,PI,1,100,169184
1558722344.902944,277284.000,48473,4,PI,1,100,169208
1558722344.941536,277312.333,48491,3,PI,1,100,169254
1558722344.980129,277340.667,48491,3,PI,1,100,169213
1558722345.018721,277369.000,48491,3,PI,1,100,169244
1558722345.060264,277399.500,48509,4,PI,1,100,169234
1558722345.101808,277430.000,48509,4,PI,1,100,169251
1558722345.143351,277460.500,48509,4,PI,1,100,169283
1558722345.184895,277491.000,48509,4,PI,1,100,169290
1558722345.223941,277519.667,48527,3,PI,1,100,169305
1558722345.262987,277548.333,48527,3,PI,1,100,169282
1558722345.302034,277577.000,48527,3,PI,1,100,169309
1558722345.339150,277604.250,48545,4,PI,1,100,169324
1558722345.376267,277631.500,48545,4,PI,1,100,169353
1558722345.413384,277658.750,48545,4,PI,1,100,169286
1558722345.450500,277686.000,48545,4,PI,1,100,169177
1558722345.495449,277719.000,48564,3,PI,1,100,169135
1558722345.540398,277752.000,48564,3,PI,1,100,169141
1558722345.585346,277785.000,48564,3,PI,1,100,169108
1558722345.623484,277813.000,48582,4,PI,1,100,169141
1558722345.661623,277841.000,48582,4,PI,1,100,169144
1558722345.699761,277869.000,48582,4,PI,1,100,169122
1558722345.737899,277897.000,48582,4,PI,1,100,169144
1558722345.783302,277930.333,48600,3,PI,1,100,169144
1558722345.828705,277963.667,48600,3,PI,1,100,169185
1558722345.874107,277997.000,48600,3,PI,1,100,169174
1558722345.913153,278025.667,48618,3,PI,1,100,169207
1558722345.952200,278054.333,48618,3,PI,1,100,169217
1558722345.991246,278083.000,48618,3,PI,1,100,169229
1558722346.028703,278110.500,48636,4,PI,1,100,169227
1558722346.066160,278138.000,48636,4,PI,1,100,169241
1558722346.103618,278165.500,48636,4,PI,1,100,169256
1558722346.141075,278193.000,48636,4,PI,1,100,169228
1558722346.185570,278225.667,48654,3,PI,1,100,169255
1558722346.230064,278258.333,48654,3,PI,1,100,169255
1558722346.274559,278291.000,48654,3,PI,1,100,169326
1558722346.310994,278317.750,48672,4,PI,1,100,169246
1558722346.347430,278344.500,48672,4,PI,1,100,169315
1558722346.383866,278371.250,48672,4,PI,1,100,169311
1558722346.420301,278398.000,48672,4,PI,1,100,169260
1558722346.458894,278426.333,48691,3,PI,1,100,169216
1558722346.497486,278454.667,48691,3,PI,1,100,169135
1558722346.536078,278483.000,48691,3,PI,1,100,169144
1558722346.577962,278513.750,48709,4,PI,1,100,169098
1558722346.619846,278544.500,48709,4,PI,1,100,169074
1558722346.661730,278575.250,48709,4,PI,1,100,169100
1558722346.703614,278606.000,48709,4,PI,1,100,169137
1558722346.742206,278634.333,48727,3,PI,1,100,169139
1558722346.780798,278662.667,48727,3,PI,1,100,169107
1558722346.819391,278691.000,48727,3,PI,1,100,169125
1558722346.858437,278719.667,48745,3,PI,1,100,169148
1558722346.897483,278748.333,48745,3,PI,1,100,169123
1558722346.936529,278777.000,48745,3,PI,1,100,169146
1558722346.978413,278807.750,48763,4,PI,1,100,169119
1558722347.020298,278838.500,48763,4,PI,1,100,169110
1558722347.062181,278869.250,48763,4,PI,1,100,169155
1558722347.104065,278900.000,48763,4,PI,1,100,169161
1558722347.142204,278928.000,48781,3,PI,1,100,169184
1558722347.180342,278956.000,48781,3,PI,1,100,169198
1558722347.218480,278984.000,48781,3,PI,1,100,169181
1558722347.259683,279014.250,48799,4,PI,1,100,169206
1558722347.300886,279044.500,48799,4,PI,1,100,169206
1558722347.342089,279074.750,48799,4,PI,1,100,169228
1558722347.383292,279105.000,48799,4,PI,1,100,169250
1558722347.421884,279133.333,48817,3,PI,1,100,169278
1558722347.460476,279161.667,48817,3,PI,1,100,169259
1558722347.499068,279190.000,48817,3,PI,1,100,169187
1558722347.540612,279220.500,48836,4,PI,1,100,169088
1558722347.582155,279251.000,48836,4,PI,1,100,169053
1558722347.623699,279281.500,48836,4,PI,1,100,169055
1558722347.665242,279312.000,48836,4,PI,1,100,169025
1558722347.704288,279340.667,48854,3,PI,1,100,169047
1558722347.743335,279369.333,48854,3,PI,1,100,169032
1558722347.782381,279398.000,48854,3,PI,1,100,169066
1558722347.822392,279427.375,48872,8,PI,1,100,169042
1558722347.862403,279456.750,48872,8,PI,1,100,169072
1558722347.902414,279486.125,48872,8,PI,1,100,169082
1558722347.942425,279515.500,48872,8,PI,1,100,169066
1558722347.982437,279544.875,48872,8,PI,1,100,169095
1558722348.022448,279574.250,48872,8,PI,1,100,169088
1558722348.062459,279603.625,48872,8,PI,1,100,169133
1558722348.102470,279633.000,48872,8,PI,1,100,169135
1558722348.143030,279662.778,48890,9,PI,1,100,169145
1558722348.183589,279692.556,48890,9,PI,1,100,169154
1558722348.224149,279722.333,48890,9,PI,1,100,169165
1558722348.264709,279752.111,48890,9,PI,1,100,169164
1558722348.305269,279781.889,48890,9,PI,1,100,169199
1558722348.345828,279811.667,48890,9,PI,1,100,169185
1558722348.386388,279841.444,48890,9,PI,1,100,169198
1558722348.426948,279871.222,48890,9,PI,1,100,169200
1558722348.467507,279901.000,48890,9,PI,1,100,169238
1558722348.504283,279928.000,48909,4,PI,1,100,169249
1558722348.541060,279955.000,48909,4,PI,1,100,169256
1558722348.577836,279982.000,48909,4,PI,1,100,169184
1558722348.614612,280009.000,48909,4,PI,1,100,169116
1558722348.654566,280038.333,48927,3,PI,1,100,169082
1558722348.694521,280067.667,48927,3,PI,1,100,169056
1558722348.734475,280097.000,48927,3,PI,1,100,169068
1558722348.776700,280128.000,48945,4,PI,1,100,169069
1558722348.818924,280159.000,48945,4,PI,1,100,169077
1558722348.861148,280190.000,48945,4,PI,1,100,169091
1558722348.903373,280221.000,48945,4,PI,1,100,169102
1558722348.942419,280249.667,48963,3,PI,1,100,169122
1558722348.981465,280278.333,48963,3,PI,1,100,169081
1558722349.020512,280307.000,48963,3,PI,1,100,169099
1558722349.060466,280336.333,48981,3,PI,1,100,169065
1558722349.100420,280365.667,48981,3,PI,1,100,169091
1558722349.140375,280395.000,48981,3,PI,1,100,169074
1558722349.181578,280425.250,48999,4,PI,1,100,169109
1558722349.222781,280455.500,48999,4,PI,1,100,169121
1558722349.263983,280485.750,48999,4,PI,1,100,169131
1558722349.305187,280516.000,48999,4,PI,1,100,169149
1558722349.343325,280544.000,49017,3,PI,1,100,169114
1558722349.381463,280572.000,49017,3,PI,1,100,169137
1558722349.419601,280600.000,49017,3,PI,1,100,169143
1558722349.460804,280630.250,49035,4,PI,1,100,169146
1558722349.502007,280660.500,49035,4,PI,1,100,169121
1558722349.543210,280690.750,49035,4,PI,1,100,169149
1558722349.584413,280721.000,49035,4,PI,1,100,169147
1558722349.623459,280749.667,49054,3,PI,1,100,169108
1558722349.662505,280778.333,49054,3,PI,1,100,168995
1558722349.701552,280807.000,49054,3,PI,1,100,168993
1558722349.740144,280835.333,49072,3,PI,1,100,169007
1558722349.778736,280863.667,49072,3,PI,1,100,169014
1558722349.817328,280892.000,49072,3,PI,1,100,169008
1558722349.859212,280922.750,49090,4,PI,1,100,169018
1558722349.901096,280953.500,49090,4,PI,1,100,169062
1558722349.942980,280984.250,49090,4,PI,1,100,169036
1558722349.984864,281015.000,49090,4,PI,1,100,169068
1558722350.022321,281042.500,49108,4,PI,1,100,169078
1558722350.059779,281070.000,49108,4,PI,1,100,169115
1558722350.097236,281097.500,49108,4,PI,1,100,169080
1558722350.134693,281125.000,49108,4,PI,1,100,169117
1558722350.174466,281154.200,49129,5,PI,1,100,169165
1558722350.214239,281183.400,49129,5,PI,1,100,169164
1558722350.254011,281212.600,49129,5,PI,1,100,169159
1558722350.293784,281241.800,49129,5,PI,1,100,169103
1558722350.333557,281271.000,49129,5,PI,1,100,169165
1558722350.374760,281301.250,49149,4,PI,1,100,169153
1558722350.415963,281331.500,49149,4,PI,1,100,169168
1558722350.457165,281361.750,49149,4,PI,1,100,169171
1558722350.498369,281392.000,49149,4,PI,1,100,169211
1558722350.536507,281420.000,49168,3,PI,1,100,169214
1558722350.574645,281448.000,49168,3,PI,1,100,169195
1558722350.612783,281476.000,49168,3,PI,1,100,169173
1558722350.652283,281505.000,49186,3,PI,1,100,169063
1558722350.691784,281534.000,49186,3,PI,1,100,168978
1558722350.731284,281563.000,49186,3,PI,1,100,168992
1558722350.773168,281593.750,49204,4,PI,1,100,168997
1558722350.815052,281624.500,49204,4,PI,1,100,168975
1558722350.856936,281655.250,49204,4,PI,1,100,168997
1558722350.898820,281686.000,49204,4,PI,1,100,169018
1558722350.937412,281714.333,49222,3,PI,1,100,169005
1558722350.976004,281742.667,49222,3,PI,1,100,169037
1558722351.014597,281771.000,49222,3,PI,1,100,169018
1558722351.056821,281802.000,49240,4,PI,1,100,169020
1558722351.099046,281833.000,49240,4,PI,1,100,169035
1558722351.141270,281864.000,49240,4,PI,1,100,169046
1558722351.183495,281895.000,49240,4,PI,1,100,169070
1558722351.222995,281924.000,49258,3,PI,1,100,169109
1558722351.262495,281953.000,49258,3,PI,1,100,169105
1558722351.301996,281982.000,49258,3,PI,1,100,169137
1558722351.340134,282010.000,49276,3,PI,1,100,169118
1558722351.378272,282038.000,49276,3,PI,1,100,169151
1558722351.416410,282066.000,49276,3,PI,1,100,169125
1558722351.457954,282096.500,49294,4,PI,1,100,169165
1558722351.499497,282127.000,49294,4,PI,1,100,169205
1558722351.541041,282157.500,49294,4,PI,1,100,169202
1558722351.582584,282188.000,49294,4,PI,1,100,169224
1558722351.620382,282215.750,49313,4,PI,1,100,169234
1558722351.658180,282243.500,49313,4,PI,1,100,169170
1558722351.695977,282271.250,49313,4,PI,1,100,169074
1558722351.733775,282299.000,49313,4,PI,1,100,169042
1558722351.779178,282332.333,49331,3,PI,1,100,169056
1558722351.824580,282365.667,49331,3,PI,1,100,169064
1558722351.869983,282399.000,49331,3,PI,1,100,169052
1558722351.909029,282427.667,49349,3,PI,1,100,169084
1558722351.948076,282456.333,49349,3,PI,1,100,169074
1558722351.987122,282485.000,49349,3,PI,1,100,169079
1558722352.025260,282513.000,49367,4,PI,1,100,169074
1558722352.063398,282541.000,49367,4,PI,1,100,169080
1558722352.101537,282569.000,49367,4,PI,1,100,169100
1558722352.139675,282597.000,49367,4,PI,1,100,169108
1558722352.185077,282630.333,49385,3,PI,1,100,169123
1558722352.230480,282663.667,49385,3,PI,1,100,169138
1558722352.275883,282697.000,49385,3,PI,1,100,169168
1558722352.312659,282724.000,49403,4,PI,1,100,169154
1558722352.349435,282751.000,49403,4,PI,1,100,169196
1558722352.386211,282778.000,49403,4,PI,1,100,169189
1558722352.422987,282805.000,49403,4,PI,1,100,169188
1558722352.461580,282833.333,49421,3,PI,1,100,169194
1558722352.500172,282861.667,49421,3,PI,1,100,169218
1558722352.538764,282890.000,49421,3,PI,1,100,169259
1558722352.583259,282922.667,49440,3,PI,1,100,169235
1558722352.627753,282955.333,49440,3,PI,1,100,169191
1558722352.672248,282988.000,49440,3,PI,1,100,169062
1558722352.708683,283014.750,49458,4,PI,1,100,169045
1558722352.745119,283041.500,49458,4,PI,1,100,169048
1558722352.781555,283068.250,49458,4,PI,1,100,169070
1558722352.817991,283095.000,49458,4,PI,1,100,169099
1558722352.857037,283123.667,49476,3,PI,1,100,169078
1558722352.896083,283152.333,49476,3,PI,1,100,169100
1558722352.935129,283181.000,49476,3,PI,1,100,169078
1558722352.977013,283211.750,49494,4,PI,1,100,169123
1558722353.018897,283242.500,49494,4,PI,1,100,169120
1558722353.060781,283273.250,49494,4,PI,1,100,169107
1558722353.102665,283304.000,49494,4,PI,1,100,169121
1558722353.141258,283332.333,49512,3,PI,1,100,169143
1558722353.179850,283360.667,49512,3,PI,1,100,169132
1558722353.218442,283389.000,49512,3,PI,1,100,169167
1558722353.259985,283419.500,49530,4,PI,1,100,169168
1558722353.301529,283450.000,49530,4,PI,1,100,169161
1558722353.343072,283480.500,49530,4,PI,1,100,169187
1558722353.384616,283511.000,49530,4,PI,1,100,169198
1558722353.423208,283539.333,49548,3,PI,1,100,169234
1558722353.461800,283567.667,49548,3,PI,1,100,169196
1558722353.500392,283596.000,49548,3,PI,1,100,169262
1558722353.538531,283624.000,49566,3,PI,1,100,169262
1558722353.576669,283652.000,49566,3,PI,1,100,169228
1558722353.614807,283680.000,49566,3,PI,1,100,169110
1558722353.656010,283710.250,49585,4,PI,1,100,169093
1558722353.697213,283740.500,49585,4,PI,1,100,169072
1558722353.738416,283770.750,49585,4,PI,1,100,169064
1558722353.779619,283801.000,49585,4,PI,1,100,169060
1558722353.819119,283830.000,49603,3,PI,1,100,169073
1558722353.858619,283859.000,49603,3,PI,1,100,169140
1558722353.898120,283888.000,49603,3,PI,1,100,169064
1558722353.940004,283918.750,49621,4,PI,1,100,169117
1558722353.981888,283949.500,49621,4,PI,1,100,169101
1558722354.023772,283980.250,49621,4,PI,1,100,169133
1558722354.065656,284011.000,49621,4,PI,1,100,169161
1558722354.104702,284039.667,49639,3,PI,1,100,169158
1558722354.143748,284068.333,49639,3,PI,1,100,169178
1558722354.182795,284097.000,49639,3,PI,1,100,169152
1558722354.222295,284126.000,49657,3,PI,1,100,169187
1558722354.261795,284155.000,49657,3,PI,1,100,169192
1558722354.301296,284184.000,49657,3,PI,1,100,169188
1558722354.343179,284214.750,49675,4,PI,1,100,169224
1558722354.385063,284245.500,49675,4,PI,1,100,169230
1558722354.426947,284276.250,49675,4,PI,1,100,169214
1558722354.468831,284307.000,49675,4,PI,1,100,169247
1558722354.505608,284334.000,49693,4,PI,1,100,169238
1558722354.542384,284361.000,49693,4,PI,1,100,169259
1558722354.579160,284388.000,49693,4,PI,1,100,169164
1558722354.615936,284415.000,49693,4,PI,1,100,169063
1558722354.660431,284447.667,49712,3,PI,1,100,169086
1558722354.704925,284480.333,49712,3,PI,1,100,169093
1558722354.749420,284513.000,49712,3,PI,1,100,169105
1558722354.786877,284540.500,49730,4,PI,1,100,169112
1558722354.824334,284568.000,49730,4,PI,1,100,169146
1558722354.861791,284595.500,49730,4,PI,1,100,169121
1558722354.899249,284623.000,49730,4,PI,1,100,169129
1558722354.937841,284651.333,49748,3,PI,1,100,169123
1558722354.976433,284679.667,49748,3,PI,1,100,169154
1558722355.015025,284708.000,49748,3,PI,1,100,169134
1558722355.059974,284741.000,49766,3,PI,1,100,169151
1558722355.104923,284774.000,49766,3,PI,1,100,169188
1558722355.149871,284807.000,49766,3,PI,1,100,169155
1558722355.188010,284835.000,49784,4,PI,1,100,169179
1558722355.226148,284863.000,49784,4,PI,1,100,169161
1558722355.264286,284891.000,49784,4,PI,1,100,169183
1558722355.302424,284919.000,49784,4,PI,1,100,169210
1558722355.341470,284947.667,49802,3,PI,1,100,169207
1558722355.380517,284976.333,49802,3,PI,1,100,169233
1558722355.419563,285005.000,49802,3,PI,1,100,169242
1558722355.461107,285035.500,49820,4,PI,1,100,169212
1558722355.502650,285066.000,49820,4,PI,1,100,169110
1558722355.544194,285096.500,49820,4,PI,1,100,169078
1558722355.585737,285127.000,49820,4,PI,1,100,169056
1558722355.624329,285155.333,49839,3,PI,1,100,169077
1558722355.662921,285183.667,49839,3,PI,1,100,169074
1558722355.701514,285212.000,49839,3,PI,1,100,169113
1558722355.746008,285244.667,49857,3,PI,1,100,169092
1558722355.790503,285277.333,49857,3,PI,1,100,169094
1558722355.834997,285310.000,49857,3,PI,1,100,169093
1558722355.872114,285337.250,49875,4,PI,1,100,169102
1558722355.909231,285364.500,49875,4,PI,1,100,169140
1558722355.946347,285391.750,49875,4,PI,1,100,169115
1558722355.983464,285419.000,49875,4,PI,1,100,169128
1558722356.022511,285447.667,49893,3,PI,1,100,169117
1558722356.061557,285476.333,49893,3,PI,1,100,169145
1558722356.100603,285505.000,49893,3,PI,1,100,169161
1558722356.142487,285535.750,49911,4,PI,1,100,169163
1558722356.184371,285566.500,49911,4,PI,1,100,169171
1558722356.226255,285597.250,49911,4,PI,1,100,169182
1558722356.268139,285628.000,49911,4,PI,1,100,169163
1558722356.306731,285656.333,49929,3,PI,1,100,169189
1558722356.345323,285684.667,49929,3,PI,1,100,169118
1558722356.383916,285713.000,49929,3,PI,1,100,169000
1558722356.425459,285743.500,49947,4,PI,1,100,169023
1558722356.467003,285774.000,49947,4,PI,1,100,168968
1558722356.508546,285804.500,49947,4,PI,1,100,169005
1558722356.550089,285835.000,49947,4,PI,1,100,168980
1558722356.588682,285863.333,49965,3,PI,1,100,168992
1558722356.627274,285891.667,49965,3,PI,1,100,169009
1558722356.665866,285920.000,49965,3,PI,1,100,168976
1558722356.704005,285948.000,49984,3,PI,1,100,168998
1558722356.742143,285976.000,49984,3,PI,1,100,168998
1558722356.780281,286004.000,49984,3,PI,1,100,169020
1558722356.821484,286034.250,50002,4,PI,1,100,169025
1558722356.862687,286064.500,50002,4,PI,1,100,169020
1558722356.903890,286094.750,50002,4,PI,1,100,169043
1558722356.945093,286125.000,50002,4,PI,1,100,169040
1558722356.982890,286152.750,50020,4,PI,1,100,169016
1558722357.020688,286180.500,50020,4,PI,1,100,169058
1558722357.058486,286208.250,50020,4,PI,1,100,169041
1558722357.096283,286236.000,50020,4,PI,1,100,169049
1558722357.136601,286265.600,50041,5,PI,1,100,169071
1558722357.176919,286295.200,50041,5,PI,1,100,169080
1558722357.217236,286324.800,50041,5,PI,1,100,169095
1558722357.257554,286354.400,50041,5,PI,1,100,169009
1558722357.297871,286384.000,50041,5,PI,1,100,168948
1558722357.342820,286417.000,50061,3,PI,1,100,168908
1558722357.387769,286450.000,50061,3,PI,1,100,168889
1558722357.432717,286483.000,50061,3,PI,1,100,168888
1558722357.469834,286510.250,50079,4,PI,1,100,168878
1558722357.506951,286537.500,50079,4,PI,1,100,168884
1558722357.544067,286564.750,50079,4,PI,1,100,168867
1558722357.581184,286592.000,50079,4,PI,1,100,168876
1558722357.620230,286620.667,50097,3,PI,1,100,168882
1558722357.659276,286649.333,50097,3,PI,1,100,168923
1558722357.698323,286678.000,50097,3,PI,1,100,168889
1558722357.739866,286708.500,50116,4,PI,1,100,168917
1558722357.781410,286739.000,50116,4,PI,1,100,168906
1558722357.822953,286769.500,50116,4,PI,1,100,168951
1558722357.864496,286800.000,50116,4,PI,1,100,168963
1558722357.902635,286828.000,50134,3,PI,1,100,168979
1558722357.940773,286856.000,50134,3,PI,1,100,168994
1558722357.978911,286884.000,50134,3,PI,1,100,168967
1558722358.018412,286913.000,50152,3,PI,1,100,168997
1558722358.057912,286942.000,50152,3,PI,1,100,169006
1558722358.097412,286971.000,50152,3,PI,1,100,169034
1558722358.139637,287002.000,50170,4,PI,1,100,169049
1558722358.181861,287033.000,50170,4,PI,1,100,169048
1558722358.224086,287064.000,50170,4,PI,1,100,169034
1558722358.266310,287095.000,50170,4,PI,1,100,169048
1558722358.304902,287123.333,50188,3,PI,1,100,168920
1558722358.343495,287151.667,50188,3,PI,1,100,168872
1558722358.382087,287180.000,50188,3,PI,1,100,168867
1558722358.424311,287211.000,50206,4,PI,1,100,168842
1558722358.466536,287242.000,50206,4,PI,1,100,168838
1558722358.508760,287273.000,50206,4,PI,1,100,168851
1558722358.550985,287304.000,50206,4,PI,1,100,168842
1558722358.590485,287333.000,50224,3,PI,1,100,168872
1558722358.629985,287362.000,50224,3,PI,1,100,168865
1558722358.669486,287391.000,50224,3,PI,1,100,168856
1558722358.707624,287419.000,50243,3,PI,1,100,168866
1558722358.745762,287447.000,50243,3,PI,1,100,168862
1558722358.783900,287475.000,50243,3,PI,1,100,168917
1558722358.825103,287505.250,50261,4,PI,1,100,168867
1558722358.866306,287535.500,50261,4,PI,1,100,168905
1558722358.907509,287565.750,50261,4,PI,1,100,168936
1558722358.948712,287596.000,50261,4,PI,1,100,168924
1558722358.986510,287623.750,50279,4,PI,1,100,168949
1558722359.024307,287651.500,50279,4,PI,1,100,168960
1558722359.062105,287679.250,50279,4,PI,1,100,168981
1558722359.099903,287707.000,50279,4,PI,1,100,168972
1558722359.144397,287739.667,50297,3,PI,1,100,168994
1558722359.188892,287772.333,50297,3,PI,1,100,168994
1558722359.233387,287805.000,50297,3,PI,1,100,169005
1558722359.271979,287833.333,50315,3,PI,1,100,169029
1558722359.310571,287861.667,50315,3,PI,1,100,169030
1558722359.349164,287890.000,50315,3,PI,1,100,169046
1558722359.386961,287917.750,50333,4,PI,1,100,169020
1558722359.424759,287945.500,50333,4,PI,1,100,168909
1558722359.462557,287973.250,50333,4,PI,1,100,168835
1558722359.500355,288001.000,50333,4,PI,1,100,168870
1558722359.544849,288033.667,50351,3,PI,1,100,168827
1558722359.589344,288066.333,50351,3,PI,1,100,168813
1558722359.633838,288099.000,50351,3,PI,1,100,168820
1558722359.670614,288126.000,50370,4,PI,1,100,168846
1558722359.707391,288153.000,50370,4,PI,1,100,168857
1558722359.744167,288180.000,50370,4,PI,1,100,168848
1558722359.780943,288207.000,50370,4,PI,1,100,168859
1558722359.819535,288235.333,50388,3,PI,1,100,168859
1558722359.858127,288263.667,50388,3,PI,1,100,168872
1558722359.896720,288292.000,50388,3,PI,1,100,168897
1558722359.937923,288322.250,50406,4,PI,1,100,168915
1558722359.979125,288352.500,50406,4,PI,1,100,168913
1558722360.020329,288382.750,50406,4,PI,1,100,168954
1558722360.061531,288413.000,50406,4,PI,1,100,168900
1558722360.100124,288441.333,50424,3,PI,1,100,168966
1558722360.138716,288469.667,50424,3,PI,1,100,168983
1558722360.177308,288498.000,50424,3,PI,1,100,168963
1558722360.216809,288527.000,50442,3,PI,1,100,169017
1558722360.256309,288556.000,50442,3,PI,1,100,168989
1558722360.295809,288585.000,50442,3,PI,1,100,169023
1558722360.337693,288615.750,50460,4,PI,1,100,169013
1558722360.379577,288646.500,50460,4,PI,1,100,169058
1558722360.421461,288677.250,50460,4,PI,1,100,169055
1558722360.463345,288708.000,50460,4,PI,1,100,169056
1558722360.502391,288736.667,50478,3,PI,1,100,169076
1558722360.541438,288765.333,50478,3,PI,1,100,169050
1558722360.580484,288794.000,50478,3,PI,1,100,168950
1558722360.622027,288824.500,50496,4,PI,1,100,168905
1558722360.663571,288855.000,50496,4,PI,1,100,168862
1558722360.705114,288885.500,50496,4,PI,1,100,168897
1558722360.746658,288916.000,50496,4,PI,1,100,168896
1558722360.785704,288944.667,50515,3,PI,1,100,168896
1558722360.824750,288973.333,50515,3,PI,1,100,168929
1558722360.863796,289002.000,50515,3,PI,1,100,168896
1558722360.905340,289032.500,50533,4,PI,1,100,168911
1558722360.946883,289063.000,50533,4,PI,1,100,168919
1558722360.988427,289093.500,50533,4,PI,1,100,168946
1558722361.029970,289124.000,50533,4,PI,1,100,168948
1558722361.068108,289152.000,50551,3,PI,1,100,168932
1558722361.106247,289180.000,50551,3,PI,1,100,168966
1558722361.144385,289208.000,50551,3,PI,1,100,168963
1558722361.182523,289236.000,50569,4,PI,1,100,168969
1558722361.220661,289264.000,50569,4,PI,1,100,168999
1558722361.258800,289292.000,50569,4,PI,1,100,169063
1558722361.296938,289320.000,50569,4,PI,1,100,169021
1558722361.341887,289353.000,50587,3,PI,1,100,169029
1558722361.386835,289386.000,50587,3,PI,1,100,169023
1558722361.431784,289419.000,50587,3,PI,1,100,169024
1558722361.469241,289446.500,50605,4,PI,1,100,169077
1558722361.506698,289474.000,50605,4,PI,1,100,169048
1558722361.544155,289501.500,50605,4,PI,1,100,169009
1558722361.581613,289529.000,50605,4,PI,1,100,168872
1558722361.620659,289557.667,50623,3,PI,1,100,168869
1558722361.659705,289586.333,50623,3,PI,1,100,168879
1558722361.698751,289615.000,50623,3,PI,1,100,168879
1558722361.743246,289647.667,50642,3,PI,1,100,168872
1558722361.787741,289680.333,50642,3,PI,1,100,168832
1558722361.832235,289713.000,50642,3,PI,1,100,168870
1558722361.869352,289740.250,50660,4,PI,1,100,168882
1558722361.906469,289767.500,50660,4,PI,1,100,168865
1558722361.943585,289794.750,50660,4,PI,1,100,168877
1558722361.980702,289822.000,50660,4,PI,1,100,168884
1558722362.019294,289850.333,50678,3,PI,1,100,168852
1558722362.057887,289878.667,50678,3,PI,1,100,168912
1558722362.096479,289907.000,50678,3,PI,1,100,168895
1558722362.138363,289937.750,50696,4,PI,1,100,168941
1558722362.180247,289968.500,50696,4,PI,1,100,168954
1558722362.222131,289999.250,50696,4,PI,1,100,168961
1558722362.264014,290030.000,50696,4,PI,1,100,168975
1558722362.302607,290058.333,50714,3,PI,1,100,168983
1558722362.341199,290086.667,50714,3,PI,1,100,169008
1558722362.379791,290115.000,50714,3,PI,1,100,169000
1558722362.421335,290145.500,50732,4,PI,1,100,169058
1558722362.462878,290176.000,50732,4,PI,1,100,169033
1558722362.504422,290206.500,50732,4,PI,1,100,169006
1558722362.545965,290237.000,50732,4,PI,1,100,168932
1558722362.585465,290266.000,50750,3,PI,1,100,168891
1558722362.624966,290295.000,50750,3,PI,1,100,168854
1558722362.664466,290324.000,50750,3,PI,1,100,168846
1558722362.703058,290352.333,50768,3,PI,1,100,168834
1558722362.741651,290380.667,50768,3,PI,1,100,168820
1558722362.780243,290409.000,50768,3,PI,1,100,168877
1558722362.821446,290439.250,50787,4,PI,1,100,168845
1558722362.862649,290469.500,50787,4,PI,1,100,168876
1558722362.903852,290499.750,50787,4,PI,1,100,168887
1558722362.945055,290530.000,50787,4,PI,1,100,168892
1558722362.983647,290558.333,50805,3,PI,1,100,168923
1558722363.022239,290586.667,50805,3,PI,1,100,168914
1558722363.060831,290615.000,50805,3,PI,1,100,168941
1558722363.102375,290645.500,50823,4,PI,1,100,168919
1558722363.143918,290676.000,50823,4,PI,1,100,168964
1558722363.185462,290706.500,50823,4,PI,1,100,168969
1558722363.227005,290737.000,50823,4,PI,1,100,168972
1558722363.265143,290765.000,50841,3,PI,1,100,168984
1558722363.303282,290793.000,50841,3,PI,1,100,169006
1558722363.341420,290821.000,50841,3,PI,1,100,169002
1558722363.380466,290849.667,50859,3,PI,1,100,169019
1558722363.419512,290878.333,50859,3,PI,1,100,169043
1558722363.458559,290907.000,50859,3,PI,1,100,169041
1558722363.500443,290937.750,50877,4,PI,1,100,169082
1558722363.542326,290968.500,50877,4,PI,1,100,168935
1558722363.584211,290999.250,50877,4,PI,1,100,168891
1558722363.626095,291030.000,50877,4,PI,1,100,168854
1558722363.663211,291057.250,50895,4,PI,1,100,168857
1558722363.700328,291084.500,50895,4,PI,1,100,168858
1558722363.737444,291111.750,50895,4,PI,1,100,168853
1558722363.774561,291139.000,50895,4,PI,1,100,168855
1558722363.819056,291171.667,50914,3,PI,1,100,168840
1558722363.863550,291204.333,50914,3,PI,1,100,168871
1558722363.908045,291237.000,50914,3,PI,1,100,168878
1558722363.945502,291264.500,50932,4,PI,1,100,168904
1558722363.982960,291292.000,50932,4,PI,1,100,168900
1558722364.020416,291319.500,50932,4,PI,1,100,168935
1558722364.057874,291347.000,50932,4,PI,1,100,168885
1558722364.097919,291376.400,50953,5,PI,1,100,168940
1558722364.137964,291405.800,50953,5,PI,1,100,168930
1558722364.178009,291435.200,50953,5,PI,1,100,168943
1558722364.218054,291464.600,50953,5,PI,1,100,168971
1558722364.258100,291494.000,50953,5,PI,1,100,168949
1558722364.296692,291522.333,50973,3,PI,1,100,168966
1558722364.335284,291550.667,50973,3,PI,1,100,168972
1558722364.373876,291579.000,50973,3,PI,1,100,169009
1558722364.415760,291609.750,50991,4,PI,1,100,169024
1558722364.457644,291640.500,50991,4,PI,1,100,169039
1558722364.499528,291671.250,50991,4,PI,1,100,168960
1558722364.541412,291702.000,50991,4,PI,1,100,168914
1558722364.581367,291731.333,51009,3,PI,1,100,168864
1558722364.621321,291760.667,51009,3,PI,1,100,168859
1558722364.661275,291790.000,51009,3,PI,1,100,168825
1558722364.702819,291820.500,51027,4,PI,1,100,168802
1558722364.744362,291851.000,51027,4,PI,1,100,168778
1558722364.785906,291881.500,51027,4,PI,1,100,168773
1558722364.827449,291912.000,51027,4,PI,1,100,168767
1558722364.865587,291940.000,51046,3,PI,1,100,168761
1558722364.903725,291968.000,51046,3,PI,1,100,168774
1558722364.941864,291996.000,51046,3,PI,1,100,168788
1558722364.981364,292025.000,51064,3,PI,1,100,168829
1558722365.020864,292054.000,51064,3,PI,1,100,168831
1558722365.060365,292083.000,51064,3,PI,1,100,168823
1558722365.101568,292113.250,51082,4,PI,1,100,168865
1558722365.142771,292143.500,51082,4,PI,1,100,168837
1558722365.183973,292173.750,51082,4,PI,1,100,168861
1558722365.225176,292204.000,51082,4,PI,1,100,168886
1558722365.262974,292231.750,51100,4,PI,1,100,168947
1558722365.300772,292259.500,51100,4,PI,1,100,168905
1558722365.338569,292287.250,51100,4,PI,1,100,168926
1558722365.376367,292315.000,51100,4,PI,1,100,168882
1558722365.421316,292348.000,51118,3,PI,1,100,168817
1558722365.466264,292381.000,51118,3,PI,1,100,168777
1558722365.511213,292414.000,51118,3,PI,1,100,168752
1558722365.550259,292442.667,51136,3,PI,1,100,168770
1558722365.589306,292471.333,51136,3,PI,1,100,168731
1558722365.628352,292500.000,51136,3,PI,1,100,168764
1558722365.667398,292528.667,51154,3,PI,1,100,168771
1558722365.706445,292557.333,51154,3,PI,1,100,168777
1558722365.745491,292586.000,51154,3,PI,1,100,168795
1558722365.787375,292616.750,51173,4,PI,1,100,168788
1558722365.829259,292647.500,51173,4,PI,1,100,168788
1558722365.871143,292678.250,51173,4,PI,1,100,168812
1558722365.913027,292709.000,51173,4,PI,1,100,168804
1558722365.950143,292736.250,51191,4,PI,1,100,168856
1558722365.987260,292763.500,51191,4,PI,1,100,168859
1558722366.024377,292790.750,51191,4,PI,1,100,168853
1558722366.061493,292818.000,51191,4,PI,1,100,168883
1558722366.105988,292850.667,51209,3,PI,1,100,168876
1558722366.150483,292883.333,51209,3,PI,1,100,168911
1558722366.194977,292916.000,51209,3,PI,1,100,168871
1558722366.231753,292943.000,51227,4,PI,1,100,168951
1558722366.268529,292970.000,51227,4,PI,1,100,168923
1558722366.305306,292997.000,51227,4,PI,1,100,168813
1558722366.342082,293024.000,51227,4,PI,1,100,168761
1558722366.381128,293052.667,51245,3,PI,1,100,168763
1558722366.420174,293081.333,51245,3,PI,1,100,168733
1558722366.459221,293110.000,51245,3,PI,1,100,168717
1558722366.504169,293143.000,51263,3,PI,1,100,168723
1558722366.549118,293176.000,51263,3,PI,1,100,168734
1558722366.594067,293209.000,51263,3,PI,1,100,168787
1558722366.631183,293236.250,51281,4,PI,1,100,168721
1558722366.668300,293263.500,51281,4,PI,1,100,168786
1558722366.705417,293290.750,51281,4,PI,1,100,168793
1558722366.742533,293318.000,51281,4,PI,1,100,168798
1558722366.782034,293347.000,51300,3,PI,1,100,168827
1558722366.821534,293376.000,51300,3,PI,1,100,168850
1558722366.861034,293405.000,51300,3,PI,1,100,168874
1558722366.902237,293435.250,51318,4,PI,1,100,168840
1558722366.943440,293465.500,51318,4,PI,1,100,168870
1558722366.984643,293495.750,51318,4,PI,1,100,168896
1558722367.025846,293526.000,51318,4,PI,1,100,168889
1558722367.063984,293554.000,51336,3,PI,1,100,168925
1558722367.102122,293582.000,51336,3,PI,1,100,168929
1558722367.140261,293610.000,51336,3,PI,1,100,168928
1558722367.181463,293640.250,51354,4,PI,1,100,168963
1558722367.222667,293670.500,51354,4,PI,1,100,168954
1558722367.263869,293700.750,51354,4,PI,1,100,168976
1558722367.305072,293731.000,51354,4,PI,1,100,168881
1558722367.344119,293759.667,51372,3,PI,1,100,168769
1558722367.383165,293788.333,51372,3,PI,1,100,168759
1558722367.422211,293817.000,51372,3,PI,1,100,168751
1558722367.460804,293845.333,51390,3,PI,1,100,168747
1558722367.499396,293873.667,51390,3,PI,1,100,168761
1558722367.537988,293902.000,51390,3,PI,1,100,168788
1558722367.580212,293933.000,51408,4,PI,1,100,168765
1558722367.622437,293964.000,51408,4,PI,1,100,168769
1558722367.664661,293995.000,51408,4,PI,1,100,168766
1558722367.706886,294026.000,51408,4,PI,1,100,168800
1558722367.746386,294055.000,51426,3,PI,1,100,168810
1558722367.785887,294084.000,51426,3,PI,1,100,168796
1558722367.825387,294113.000,51426,3,PI,1,100,168846
1558722367.867271,294143.750,51445,4,PI,1,100,168819
1558722367.909155,294174.500,51445,4,PI,1,100,168858
1558722367.951039,294205.250,51445,4,PI,1,100,168830
1558722367.992923,294236.000,51445,4,PI,1,100,168879
1558722368.031061,294264.000,51463,3,PI,1,100,168885
1558722368.069199,294292.000,51463,3,PI,1,100,168893
1558722368.107337,294320.000,51463,3,PI,1,100,168904
1558722368.145135,294347.750,51481,4,PI,1,100,168923
1558722368.182933,294375.500,51481,4,PI,1,100,168910
1558722368.220731,294403.250,51481,4,PI,1,100,168935
1558722368.258528,294431.000,51481,4,PI,1,100,168945
1558722368.302569,294463.333,51499,3,PI,1,100,168961
1558722368.346609,294495.667,51499,3,PI,1,100,168959
1558722368.390650,294528.000,51499,3,PI,1,100,168902
1558722368.428107,294555.500,51517,4,PI,1,100,168808
1558722368.465564,294583.000,51517,4,PI,1,100,168759
1558722368.503021,294610.500,51517,4,PI,1,100,168751
1558722368.540479,294638.000,51517,4,PI,1,100,168763
1558722368.580433,294667.333,51535,3,PI,1,100,168775
1558722368.620388,294696.667,51535,3,PI,1,100,168783
1558722368.660342,294726.000,51535,3,PI,1,100,168792
1558722368.705745,294759.333,51553,3,PI,1,100,168795
1558722368.751147,294792.667,51553,3,PI,1,100,168788
1558722368.796550,294826.000,51553,3,PI,1,100,168796
1558722368.834007,294853.500,51572,4,PI,1,100,168816
1558722368.871464,294881.000,51572,4,PI,1,100,168841
1558722368.908921,294908.500,51572,4,PI,1,100,168818
1558722368.946378,294936.000,51572,4,PI,1,100,168846
1558722368.985425,294964.667,51590,3,PI,1,100,168836
1558722369.024471,294993.333,51590,3,PI,1,100,168864
1558722369.063517,295022.000,51590,3,PI,1,100,168889
1558722369.104720,295052.250,51608,4,PI,1,100,168901
1558722369.145923,295082.500,51608,4,PI,1,100,168945
1558722369.187126,295112.750,51608,4,PI,1,100,168919
1558722369.228329,295143.000,51608,4,PI,1,100,168958
1558722369.266467,295171.000,51626,3,PI,1,100,168940
1558722369.304605,295199.000,51626,3,PI,1,100,168986
1558722369.342744,295227.000,51626,3,PI,1,100,169006
1558722369.381336,295255.333,51644,3,PI,1,100,168985
1558722369.419928,295283.667,51644,3,PI,1,100,168919
1558722369.458521,295312.000,51644,3,PI,1,100,168793
1558722369.500405,295342.750,51662,4,PI,1,100,168747
1558722369.542289,295373.500,51662,4,PI,1,100,168761
1558722369.584172,295404.250,51662,4,PI,1,100,168753
1558722369.626056,295435.000,51662,4,PI,1,100,168706
1558722369.664649,295463.333,51680,3,PI,1,100,168761
1558722369.703241,295491.667,51680,3,PI,1,100,168762
1558722369.741833,295520.000,51680,3,PI,1,100,168782
1558722369.783717,295550.750,51698,4,PI,1,100,168734
1558722369.825601,295581.500,51698,4,PI,1,100,168797
1558722369.867485,295612.250,51698,4,PI,1,100,168798
1558722369.909369,295643.000,51698,4,PI,1,100,168819
1558722369.948415,295671.667,51717,3,PI,1,100,168827
1558722369.987462,295700.333,51717,3,PI,1,100,168843
1558722370.026508,295729.000,51717,3,PI,1,100,168868
1558722370.067711,295759.250,51735,4,PI,1,100,168851
1558722370.108914,295789.500,51735,4,PI,1,100,168880
1558722370.150117,295819.750,51735,4,PI,1,100,168880
1558722370.191320,295850.000,51735,4,PI,1,100,168924
1558722370.229458,295878.000,51753,3,PI,1,100,168865
1558722370.267596,295906.000,51753,3,PI,1,100,168922
1558722370.305734,295934.000,51753,3,PI,1,100,168933
1558722370.342851,295961.250,51771,4,PI,1,100,168900
1558722370.379968,295988.500,51771,4,PI,1,100,168941
1558722370.417084,296015.750,51771,4,PI,1,100,168941
1558722370.454201,296043.000,51771,4,PI,1,100,168966
1558722370.498696,296075.667,51789,3,PI,1,100,168855
1558722370.543190,296108.333,51789,3,PI,1,100,168748
1558722370.587685,296141.000,51789,3,PI,1,100,168701
1558722370.625142,296168.500,51807,4,PI,1,100,168703
1558722370.662599,296196.000,51807,4,PI,1,100,168707
1558722370.700056,296223.500,51807,4,PI,1,100,168685
1558722370.737514,296251.000,51807,4,PI,1,100,168685
1558722370.777468,296280.333,51825,3,PI,1,100,168710
1558722370.817422,296309.667,51825,3,PI,1,100,168683
1558722370.857377,296339.000,51825,3,PI,1,100,168708
1558722370.902325,296372.000,51844,3,PI,1,100,168736
1558722370.947274,296405.000,51844,3,PI,1,100,168706
1558722370.992223,296438.000,51844,3,PI,1,100,168748
1558722371.031042,296466.500,51865,6,PI,1,100,168743
1558722371.069861,296495.000,51865,6,PI,1,100,168758
1558722371.108680,296523.500,51865,6,PI,1,100,168790
1558722371.147500,296552.000,51865,6,PI,1,100,168787
1558722371.186319,296580.500,51865,6,PI,1,100,168802
1558722371.225138,296609.000,51865,6,PI,1,100,168840
1558722371.263277,296637.000,51885,3,PI,1,100,168846
1558722371.301415,296665.000,51885,3,PI,1,100,168863
1558722371.339553,296693.000,51885,3,PI,1,100,168877
1558722371.381437,296723.750,51903,4,PI,1,100,168867
1558722371.423321,296754.500,51903,4,PI,1,100,168888
1558722371.465205,296785.250,51903,4,PI,1,100,168875
1558722371.507089,296816.000,51903,4,PI,1,100,168914
1558722371.546589,296845.000,51921,3,PI,1,100,168826
1558722371.586089,296874.000,51921,3,PI,1,100,168729
1558722371.625590,296903.000,51921,3,PI,1,100,168754
1558722371.664636,296931.667,51939,3,PI,1,100,168780
1558722371.703682,296960.333,51939,3,PI,1,100,168795
1558722371.742729,296989.000,51939,3,PI,1,100,168777
1558722371.785294,297020.250,51957,4,PI,1,100,168832
1558722371.827859,297051.500,51957,4,PI,1,100,168886
1558722371.870424,297082.750,51957,4,PI,1,100,168951
1558722371.912989,297114.000,51957,4,PI,1,100,169070
1558722371.952489,297143.000,51976,3,PI,1,100,169157
1558722371.991989,297172.000,51976,3,PI,1,100,169256
1558722372.031490,297201.000,51976,3,PI,1,100,169364
1558722372.073374,297231.750,51994,4,PI,1,100,169457
1558722372.115258,297262.500,51994,4,PI,1,100,169548
1558722372.157141,297293.250,51994,4,PI,1,100,169649
1558722372.199025,297324.000,51994,4,PI,1,100,169756
1558722372.236710,297351.667,52012,3,PI,1,100,169964
1558722372.274394,297379.333,52012,3,PI,1,100,170048
1558722372.312078,297407.000,52012,3,PI,1,100,170077
1558722372.349195,297434.250,52030,4,PI,1,100,170124
1558722372.386311,297461.500,52030,4,PI,1,100,170094
1558722372.423428,297488.750,52030,4,PI,1,100,170005
1558722372.460545,297516.000,52030,4,PI,1,100,170000
1558722372.505039,297548.667,52048,3,PI,1,100,169958
1558722372.549534,297581.333,52048,3,PI,1,100,169803
1558722372.594028,297614.000,52048,3,PI,1,100,169521
1558722372.631145,297641.250,52066,4,PI,1,100,169250
1558722372.668262,297668.500,52066,4,PI,1,100,169134
1558722372.705379,297695.750,52066,4,PI,1,100,168942
1558722372.742495,297723.000,52066,4,PI,1,100,168841
1558722372.781542,297751.667,52084,3,PI,1,100,168873
1558722372.820588,297780.333,52084,3,PI,1,100,168908
1558722372.859634,297809.000,52084,3,PI,1,100,168889
1558722372.901518,297839.750,52103,4,PI,1,100,168761
1558722372.943402,297870.500,52103,4,PI,1,100,168765
1558722372.985286,297901.250,52103,4,PI,1,100,169054
1558722373.027170,297932.000,52103,4,PI,1,100,169272
1558722373.065762,297960.333,52121,3,PI,1,100,169605
1558722373.104354,297988.667,52121,3,PI,1,100,170050
1558722373.142947,298017.000,52121,3,PI,1,100,170740
1558722373.181539,298045.333,52139,3,PI,1,100,171252
1558722373.220131,298073.667,52139,3,PI,1,100,171569
1558722373.258723,298102.000,52139,3,PI,1,100,171703
1558722373.299927,298132.250,52157,4,PI,1,100,171946
1558722373.341129,298162.500,52157,4,PI,1,100,172205
1558722373.382332,298192.750,52157,4,PI,1,100,172525
1558722373.423535,298223.000,52157,4,PI,1,100,172953
1558722373.461673,298251.000,52175,3,PI,1,100,173262
1558722373.499812,298279.000,52175,3,PI,1,100,173445
1558722373.537950,298307.000,52175,3,PI,1,100,173747
1558722373.579834,298337.750,52193,4,PI,1,100,173894
1558722373.621718,298368.500,52193,4,PI,1,100,173955
1558722373.663602,298399.250,52193,4,PI,1,100,173998
1558722373.705486,298430.000,52193,4,PI,1,100,174148
1558722373.744986,298459.000,52211,3,PI,1,100,174203
1558722373.784486,298488.000,52211,3,PI,1,100,174208
1558722373.823987,298517.000,52211,3,PI,1,100,174323
1558722373.862579,298545.333,52229,3,PI,1,100,174452
1558722373.901171,298573.667,52229,3,PI,1,100,174616
1558722373.939764,298602.000,52229,3,PI,1,100,174714
1558722373.981988,298633.000,52248,4,PI,1,100,174676
1558722374.024212,298664.000,52248,4,PI,1,100,174676
1558722374.066437,298695.000,52248,4,PI,1,100,174905
1558722374.108661,298726.000,52248,4,PI,1,100,175085
1558722374.147708,298754.667,52266,3,PI,1,100,175332
1558722374.186754,298783.333,52266,3,PI,1,100,175489
1558722374.225800,298812.000,52266,3,PI,1,100,175556
1558722374.267344,298842.500,52284,4,PI,1,100,175572
1558722374.308887,298873.000,52284,4,PI,1,100,175517
1558722374.350430,298903.500,52284,4,PI,1,100,175672
1558722374.391974,298934.000,52284,4,PI,1,100,175825
1558722374.428750,298961.000,52302,4,PI,1,100,175972
1558722374.465526,298988.000,52302,4,PI,1,100,176175
1558722374.502302,299015.000,52302,4,PI,1,100,176386
1558722374.539079,299042.000,52302,4,PI,1,100,176611
1558722374.583573,299074.667,52320,3,PI,1,100,176867
1558722374.628068,299107.333,52320,3,PI,1,100,177372
1558722374.672562,299140.000,52320,3,PI,1,100,177790
1558722374.712517,299169.333,52338,3,PI,1,100,177933
1558722374.752471,299198.667,52338,3,PI,1,100,178199
1558722374.792425,299228.000,52338,3,PI,1,100,178655
1558722374.829542,299255.250,52356,4,PI,1,100,179168
1558722374.866659,299282.500,52356,4,PI,1,100,179613
1558722374.903775,299309.750,52356,4,PI,1,100,179990
1558722374.940892,299337.000,52356,4,PI,1,100,180045
1558722374.985841,299370.000,52375,3,PI,1,100,180490
1558722375.030789,299403.000,52375,3,PI,1,100,180939
1558722375.075738,299436.000,52375,3,PI,1,100,181755
1558722375.115692,299465.333,52393,3,PI,1,100,182457
1558722375.155647,299494.667,52393,3,PI,1,100,182979
1558722375.195601,299524.000,52393,3,PI,1,100,183555
1558722375.232718,299551.250,52411,4,PI,1,100,184187
1558722375.269835,299578.500,52411,4,PI,1,100,184378
1558722375.306951,299605.750,52411,4,PI,1,100,184360
1558722375.344068,299633.000,52411,4,PI,1,100,183755
1558722375.388108,299665.333,52429,3,PI,1,100,180565
1558722375.432149,299697.667,52429,3,PI,1,100,177111
1558722375.476190,299730.000,52429,3,PI,1,100,175931
1558722375.513647,299757.500,52447,4,PI,1,100,175173
1558722375.551104,299785.000,52447,4,PI,1,100,175118
1558722375.588561,299812.500,52447,4,PI,1,100,175234
1558722375.626018,299840.000,52447,4,PI,1,100,175184
1558722375.670513,299872.667,52465,3,PI,1,100,175070
1558722375.715008,299905.333,52465,3,PI,1,100,175114
1558722375.759502,299938.000,52465,3,PI,1,100,175301
1558722375.796959,299965.500,52483,4,PI,1,100,175971
1558722375.834417,299993.000,52483,4,PI,1,100,177070
1558722375.871874,300020.500,52483,4,PI,1,100,178318
1558722375.909331,300048.000,52483,4,PI,1,100,179804
1558722375.948377,300076.667,52502,3,PI,1,100,181375
1558722375.987424,300105.333,52502,3,PI,1,100,182544
1558722376.026470,300134.000,52502,3,PI,1,100,183648
1558722376.070965,300166.667,52520,3,PI,1,100,184408
1558722376.115459,300199.333,52520,3,PI,1,100,184911
1558722376.159954,300232.000,52520,3,PI,1,100,185427
1558722376.197070,300259.250,52538,4,PI,1,100,185626
1558722376.234187,300286.500,52538,4,PI,1,100,185819
1558722376.271304,300313.750,52538,4,PI,1,100,186027
1558722376.308420,300341.000,52538,4,PI,1,100,186243
1558722376.347013,300369.333,52556,3,PI,1,100,186284
1558722376.385605,300397.667,52556,3,PI,1,100,186048
1558722376.424197,300426.000,52556,3,PI,1,100,185198
1558722376.465400,300456.250,52574,4,PI,1,100,183349
1558722376.506603,300486.500,52574,4,PI,1,100,179679
1558722376.547806,300516.750,52574,4,PI,1,100,176457
1558722376.589009,300547.000,52574,4,PI,1,100,175315
1558722376.627147,300575.000,52592,3,PI,1,100,175135
1558722376.665285,300603.000,52592,3,PI,1,100,174948
1558722376.703424,300631.000,52592,3,PI,1,100,174637
1558722376.745648,300662.000,52610,4,PI,1,100,174559
1558722376.787873,300693.000,52610,4,PI,1,100,174492
1558722376.830097,300724.000,52610,4,PI,1,100,174637
1558722376.872322,300755.000,52610,4,PI,1,100,175491
1558722376.911368,300783.667,52628,3,PI,1,100,177428
1558722376.950414,300812.333,52628,3,PI,1,100,179807
1558722376.989460,300841.000,52628,3,PI,1,100,182145
1558722377.028507,300869.667,52647,3,PI,1,100,183755
1558722377.067553,300898.333,52647,3,PI,1,100,184664
1558722377.106599,300927.000,52647,3,PI,1,100,185097
1558722377.148824,300958.000,52665,4,PI,1,100,185523
1558722377.191048,300989.000,52665,4,PI,1,100,185921
1558722377.233273,301020.000,52665,4,PI,1,100,185991
1558722377.275497,301051.000,52665,4,PI,1,100,186065
1558722377.312954,301078.500,52683,4,PI,1,100,185897
1558722377.350411,301106.000,52683,4,PI,1,100,184976
1558722377.387869,301133.500,52683,4,PI,1,100,183160
1558722377.425326,301161.000,52683,4,PI,1,100,180078
1558722377.469820,301193.667,52701,3,PI,1,100,176376
1558722377.514315,301226.333,52701,3,PI,1,100,175392
1558722377.558810,301259.000,52701,3,PI,1,100,175530
1558722377.596948,301287.000,52719,3,PI,1,100,175227
1558722377.635086,301315.000,52719,3,PI,1,100,174745
1558722377.673224,301343.000,52719,3,PI,1,100,174474
1558722377.711022,301370.750,52737,4,PI,1,100,174451
1558722377.748820,301398.500,52737,4,PI,1,100,174441
1558722377.786618,301426.250,52737,4,PI,1,100,174423
1558722377.824415,301454.000,52737,4,PI,1,100,174297
1558722377.869364,301487.000,52755,3,PI,1,100,174260
1558722377.914313,301520.000,52755,3,PI,1,100,174246
1558722377.959261,301553.000,52755,3,PI,1,100,174285
1558722377.998534,301581.833,52777,6,PI,1,100,174243
1558722378.037808,301610.667,52777,6,PI,1,100,174153
1558722378.077081,301639.500,52777,6,PI,1,100,174002
1558722378.116354,301668.333,52777,6,PI,1,100,173858
1558722378.155628,301697.167,52777,6,PI,1,100,173851
1558722378.194901,301726.000,52777,6,PI,1,100,173850
1558722378.233947,301754.667,52797,3,PI,1,100,173905
1558722378.272994,301783.333,52797,3,PI,1,100,173955
1558722378.312040,301812.000,52797,3,PI,1,100,173990
1558722378.350632,301840.333,52815,3,PI,1,100,173843
1558722378.389225,301868.667,52815,3,PI,1,100,173708
1558722378.427817,301897.000,52815,3,PI,1,100,173544
1558722378.469701,301927.750,52833,4,PI,1,100,173300
1558722378.511585,301958.500,52833,4,PI,1,100,173027
1558722378.553469,301989.250,52833,4,PI,1,100,172690
1558722378.595353,302020.000,52833,4,PI,1,100,172523
1558722378.633491,302048.000,52851,3,PI,1,100,172393
1558722378.671629,302076.000,52851,3,PI,1,100,172294
1558722378.709767,302104.000,52851,3,PI,1,100,172306
1558722378.750970,302134.250,52869,4,PI,1,100,172293
1558722378.792173,302164.500,52869,4,PI,1,100,172272
1558722378.833376,302194.750,52869,4,PI,1,100,172204
1558722378.874579,302225.000,52869,4,PI,1,100,172210
1558722378.914079,302254.000,52887,3,PI,1,100,172164
1558722378.953580,302283.000,52887,3,PI,1,100,172164
1558722378.993080,302312.000,52887,3,PI,1,100,172140
1558722379.031672,302340.333,52906,3,PI,1,100,172154
1558722379.070264,302368.667,52906,3,PI,1,100,172176
1558722379.108857,302397.000,52906,3,PI,1,100,172182
1558722379.150400,302427.500,52924,4,PI,1,100,172209
1558722379.191944,302458.000,52924,4,PI,1,100,172230
1558722379.233487,302488.500,52924,4,PI,1,100,172244
1558722379.275030,302519.000,52924,4,PI,1,100,172256
1558722379.312488,302546.500,52942,4,PI,1,100,172255
1558722379.349945,302574.000,52942,4,PI,1,100,172132
1558722379.387402,302601.500,52942,4,PI,1,100,171911
1558722379.424859,302629.000,52942,4,PI,1,100,171795
1558722379.468900,302661.333,52960,3,PI,1,100,171761
1558722379.512940,302693.667,52960,3,PI,1,100,171742
1558722379.556981,302726.000,52960,3,PI,1,100,171739
1558722379.593757,302753.000,52978,4,PI,1,100,171789
1558722379.630533,302780.000,52978,4,PI,1,100,171825
1558722379.667310,302807.000,52978,4,PI,1,100,171839
1558722379.704086,302834.000,52978,4,PI,1,100,171851
1558722379.742678,302862.333,52996,3,PI,1,100,171896
1558722379.781270,302890.667,52996,3,PI,1,100,171847
1558722379.819862,302919.000,52996,3,PI,1,100,171914
1558722379.864357,302951.667,53014,3,PI,1,100,171920
1558722379.908852,302984.333,53014,3,PI,1,100,171923
1558722379.953346,303017.000,53014,3,PI,1,100,171982
1558722379.990803,303044.500,53033,4,PI,1,100,171975
1558722380.028261,303072.000,53033,4,PI,1,100,172050
1558722380.065718,303099.500,53033,4,PI,1,100,172036
1558722380.103175,303127.000,53033,4,PI,1,100,172108
1558722380.142675,303156.000,53051,3,PI,1,100,172113
1558722380.182176,303185.000,53051,3,PI,1,100,172145
1558722380.221676,303214.000,53051,3,PI,1,100,172129
1558722380.263560,303244.750,53069,4,PI,1,100,172150
1558722380.305444,303275.500,53069,4,PI,1,100,172201
1558722380.347328,303306.250,53069,4,PI,1,100,172199
1558722380.389212,303337.000,53069,4,PI,1,100,172051
1558722380.427350,303365.000,53087,3,PI,1,100,171875
1558722380.465488,303393.000,53087,3,PI,1,100,171809
1558722380.503627,303421.000,53087,3,PI,1,100,171782
1558722380.545170,303451.500,53105,4,PI,1,100,171801
1558722380.586713,303482.000,53105,4,PI,1,100,171784
1558722380.628257,303512.500,53105,4,PI,1,100,171805
1558722380.669800,303543.000,53105,4,PI,1,100,171854
1558722380.708847,303571.667,53123,3,PI,1,100,171855
1558722380.747893,303600.333,53123,3,PI,1,100,171867
1558722380.786939,303629.000,53123,3,PI,1,100,171865
1558722380.825077,303657.000,53141,3,PI,1,100,171896
1558722380.863216,303685.000,53141,3,PI,1,100,171891
1558722380.901354,303713.000,53141,3,PI,1,100,171943
1558722380.943238,303743.750,53159,4,PI,1,100,171985
1558722380.985122,303774.500,53159,4,PI,1,100,172055
1558722381.027006,303805.250,53159,4,PI,1,100,172037
1558722381.068890,303836.000,53159,4,PI,1,100,172064
1558722381.107028,303864.000,53178,4,PI,1,100,172053
1558722381.145166,303892.000,53178,4,PI,1,100,172090
1558722381.183304,303920.000,53178,4,PI,1,100,172144
1558722381.221443,303948.000,53178,4,PI,1,100,172125
1558722381.266391,303981.000,53196,3,PI,1,100,172193
1558722381.311340,304014.000,53196,3,PI,1,100,172162
1558722381.356288,304047.000,53196,3,PI,1,100,172231
1558722381.395335,304075.667,53214,3,PI,1,100,172270
1558722381.434381,304104.333,53214,3,PI,1,100,172335
1558722381.473427,304133.000,53214,3,PI,1,100,172227
1558722381.510885,304160.500,53232,4,PI,1,100,171970
1558722381.548342,304188.000,53232,4,PI,1,100,171869
1558722381.585799,304215.500,53232,4,PI,1,100,171870
1558722381.623256,304243.000,53232,4,PI,1,100,171859
1558722381.667751,304275.667,53250,3,PI,1,100,171870
1558722381.712245,304308.333,53250,3,PI,1,100,171892
1558722381.756740,304341.000,53250,3,PI,1,100,171884
1558722381.793857,304368.250,53268,4,PI,1,100,171937
1558722381.830973,304395.500,53268,4,PI,1,100,171917
1558722381.868090,304422.750,53268,4,PI,1,100,171966
1558722381.905207,304450.000,53268,4,PI,1,100,171994
1558722381.944253,304478.667,53286,3,PI,1,100,171994
1558722381.983299,304507.333,53286,3,PI,1,100,172015
1558722382.022346,304536.000,53286,3,PI,1,100,172027
1558722382.066840,304568.667,53305,3,PI,1,100,172112
1558722382.111335,304601.333,53305,3,PI,1,100,172193
1558722382.155829,304634.000,53305,3,PI,1,100,172188
1558722382.193287,304661.500,53323,4,PI,1,100,172104
1558722382.230744,304689.000,53323,4,PI,1,100,172152
1558722382.268201,304716.500,53323,4,PI,1,100,172144
1558722382.305658,304744.000,53323,4,PI,1,100,172149
1558722382.350607,304777.000,53341,3,PI,1,100,172023
1558722382.395555,304810.000,53341,3,PI,1,100,172048
1558722382.440504,304843.000,53341,3,PI,1,100,172152
1558722382.477961,304870.500,53359,4,PI,1,100,172040
1558722382.515419,304898.000,53359,4,PI,1,100,172010
1558722382.552876,304925.500,53359,4,PI,1,100,171852
1558722382.590333,304953.000,53359,4,PI,1,100,171614
1558722382.628471,304981.000,53377,3,PI,1,100,171317
1558722382.666609,305009.000,53377,3,PI,1,100,171449
1558722382.704748,305037.000,53377,3,PI,1,100,171614
1558722382.745950,305067.250,53395,4,PI,1,100,171603
1558722382.787153,305097.500,53395,4,PI,1,100,171564
1558722382.828356,305127.750,53395,4,PI,1,100,171603
1558722382.869559,305158.000,53395,4,PI,1,100,171647
1558722382.909838,305187.571,53413,7,PI,1,100,171648
1558722382.950117,305217.143,53413,7,PI,1,100,171714
1558722382.990395,305246.714,53413,7,PI,1,100,171753
1558722383.030674,305276.286,53413,7,PI,1,100,171812
1558722383.070952,305305.857,53413,7,PI,1,100,171826
1558722383.111231,305335.429,53413,7,PI,1,100,171801
1558722383.151510,305365.000,53413,7,PI,1,100,171885
1558722383.188627,305392.250,53432,4,PI,1,100,171894
1558722383.225743,305419.500,53432,4,PI,1,100,171950
1558722383.262860,305446.750,53432,4,PI,1,100,171948
1558722383.299977,305474.000,53432,4,PI,1,100,171996
1558722383.344925,305507.000,53450,3,PI,1,100,172019
1558722383.389874,305540.000,53450,3,PI,1,100,172071
1558722383.434822,305573.000,53450,3,PI,1,100,172095
1558722383.472280,305600.500,53468,4,PI,1,100,172124
1558722383.509737,305628.000,53468,4,PI,1,100,172125
1558722383.547194,305655.500,53468,4,PI,1,100,172102
1558722383.584651,305683.000,53468,4,PI,1,100,171935
1558722383.622789,305711.000,53486,3,PI,1,100,171791
1558722383.660928,305739.000,53486,3,PI,1,100,171772
1558722383.699066,305767.000,53486,3,PI,1,100,171759
1558722383.740609,305797.500,53504,4,PI,1,100,171809
1558722383.782153,305828.000,53504,4,PI,1,100,171749
1558722383.823696,305858.500,53504,4,PI,1,100,171822
1558722383.865240,305889.000,53504,4,PI,1,100,171832
1558722383.904286,305917.667,53522,3,PI,1,100,171824
1558722383.943332,305946.333,53522,3,PI,1,100,171862
1558722383.982378,305975.000,53522,3,PI,1,100,171838
1558722384.020971,306003.333,53540,3,PI,1,100,171879
1558722384.059563,306031.667,53540,3,PI,1,100,171874
1558722384.098155,306060.000,53540,3,PI,1,100,171925
1558722384.140039,306090.750,53559,4,PI,1,100,171963
1558722384.181923,306121.500,53559,4,PI,1,100,171953
1558722384.223807,306152.250,53559,4,PI,1,100,171991
1558722384.265691,306183.000,53559,4,PI,1,100,172005
1558722384.305645,306212.333,53577,3,PI,1,100,172046
1558722384.345600,306241.667,53577,3,PI,1,100,172061
1558722384.385554,306271.000,53577,3,PI,1,100,172073
1558722384.427438,306301.750,53595,4,PI,1,100,172099
1558722384.469322,306332.500,53595,4,PI,1,100,172128
1558722384.511206,306363.250,53595,4,PI,1,100,172149
1558722384.553090,306394.000,53595,4,PI,1,100,172135
1558722384.591228,306422.000,53613,3,PI,1,100,171917
1558722384.629366,306450.000,53613,3,PI,1,100,171808
1558722384.667505,306478.000,53613,3,PI,1,100,171782
1558722384.709048,306508.500,53631,4,PI,1,100,171794
1558722384.750592,306539.000,53631,4,PI,1,100,171787
1558722384.792135,306569.500,53631,4,PI,1,100,171766
1558722384.833678,306600.000,53631,4,PI,1,100,171830
1558722384.872725,306628.667,53649,3,PI,1,100,171819
1558722384.911771,306657.333,53649,3,PI,1,100,171854
1558722384.950817,306686.000,53649,3,PI,1,100,171849
1558722384.989637,306714.500,53670,6,PI,1,100,171885
1558722385.028456,306743.000,53670,6,PI,1,100,171893
1558722385.067275,306771.500,53670,6,PI,1,100,171881
1558722385.106094,306800.000,53670,6,PI,1,100,171911
1558722385.144914,306828.500,53670,6,PI,1,100,171938
1558722385.183733,306857.000,53670,6,PI,1,100,172008
1558722385.222779,306885.667,53691,3,PI,1,100,171961
1558722385.261826,306914.333,53691,3,PI,1,100,172013
1558722385.300872,306943.000,53691,3,PI,1,100,171991
1558722385.345820,306976.000,53709,3,PI,1,100,172035
1558722385.390769,307009.000,53709,3,PI,1,100,172076
1558722385.435718,307042.000,53709,3,PI,1,100,172080
1558722385.473516,307069.750,53727,4,PI,1,100,172137
1558722385.511313,307097.500,53727,4,PI,1,100,172127
1558722385.549111,307125.250,53727,4,PI,1,100,172160
1558722385.586909,307153.000,53727,4,PI,1,100,172025
1558722385.625047,307181.000,53745,3,PI,1,100,171879
1558722385.663185,307209.000,53745,3,PI,1,100,171808
1558722385.701323,307237.000,53745,3,PI,1,100,171808
1558722385.742526,307267.250,53763,4,PI,1,100,171783
1558722385.783729,307297.500,53763,4,PI,1,100,171794
1558722385.824932,307327.750,53763,4,PI,1,100,171792
1558722385.866135,307358.000,53763,4,PI,1,100,171843
1558722385.904727,307386.333,53781,3,PI,1,100,171826
1558722385.943320,307414.667,53781,3,PI,1,100,171814
1558722385.981912,307443.000,53781,3,PI,1,100,171862
1558722386.026407,307475.667,53799,3,PI,1,100,171861
1558722386.070901,307508.333,53799,3,PI,1,100,171888
1558722386.115396,307541.000,53799,3,PI,1,100,171858
1558722386.152512,307568.250,53818,4,PI,1,100,171927
1558722386.189629,307595.500,53818,4,PI,1,100,171935
1558722386.226746,307622.750,53818,4,PI,1,100,171952
1558722386.263862,307650.000,53818,4,PI,1,100,171962
1558722386.302909,307678.667,53836,3,PI,1,100,171980
1558722386.341955,307707.333,53836,3,PI,1,100,171999
1558722386.381001,307736.000,53836,3,PI,1,100,171984
1558722386.422885,307766.750,53854,4,PI,1,100,172024
1558722386.464769,307797.500,53854,4,PI,1,100,172035
1558722386.506653,307828.250,53854,4,PI,1,100,172127
1558722386.548537,307859.000,53854,4,PI,1,100,172037
1558722386.586675,307887.000,53872,3,PI,1,100,172070
1558722386.624814,307915.000,53872,3,PI,1,100,171885
1558722386.662952,307943.000,53872,3,PI,1,100,171794
1558722386.704155,307973.250,53890,4,PI,1,100,171814
1558722386.745358,308003.500,53890,4,PI,1,100,171793
1558722386.786561,308033.750,53890,4,PI,1,100,171836
1558722386.827764,308064.000,53890,4,PI,1,100,171827
1558722386.866356,308092.333,53908,3,PI,1,100,171860
1558722386.904948,308120.667,53908,3,PI,1,100,171857
1558722386.943540,308149.000,53908,3,PI,1,100,171878
1558722386.984743,308179.250,53926,4,PI,1,100,171885
1558722387.025946,308209.500,53926,4,PI,1,100,171874
1558722387.067149,308239.750,53926,4,PI,1,100,171895
1558722387.108352,308270.000,53926,4,PI,1,100,171918
1558722387.146944,308298.333,53945,3,PI,1,100,171913
1558722387.185536,308326.667,53945,3,PI,1,100,171962
1558722387.224129,308355.000,53945,3,PI,1,100,171988
1558722387.262267,308383.000,53963,4,PI,1,100,171950
1558722387.300405,308411.000,53963,4,PI,1,100,171999
1558722387.338543,308439.000,53963,4,PI,1,100,171999
1558722387.376682,308467.000,53963,4,PI,1,100,172023
1558722387.421176,308499.667,53981,3,PI,1,100,172063
1558722387.465671,308532.333,53981,3,PI,1,100,172089
1558722387.510165,308565.000,53981,3,PI,1,100,172075
1558722387.549212,308593.667,53999,3,PI,1,100,171984
1558722387.588258,308622.333,53999,3,PI,1,100,171819
1558722387.627304,308651.000,53999,3,PI,1,100,171768
1558722387.665102,308678.750,54017,4,PI,1,100,171764
1558722387.702900,308706.500,54017,4,PI,1,100,171729
1558722387.740698,308734.250,54017,4,PI,1,100,171758
1558722387.778495,308762.000,54017,4,PI,1,100,171756
1558722387.822536,308794.333,54035,3,PI,1,100,171795
1558722387.866576,308826.667,54035,3,PI,1,100,171776
1558722387.910617,308859.000,54035,3,PI,1,100,171787
1558722387.947393,308886.000,54053,4,PI,1,100,171839
1558722387.984169,308913.000,54053,4,PI,1,100,171827
1558722388.020946,308940.000,54053,4,PI,1,100,171850
1558722388.057722,308967.000,54053,4,PI,1,100,171844
1558722388.097222,308996.000,54071,3,PI,1,100,171893
1558722388.136722,309025.000,54071,3,PI,1,100,171899
1558722388.176223,309054.000,54071,3,PI,1,100,171935
1558722388.218447,309085.000,54090,4,PI,1,100,171927
1558722388.260672,309116.000,54090,4,PI,1,100,171931
1558722388.302896,309147.000,54090,4,PI,1,100,171950
1558722388.345120,309178.000,54090,4,PI,1,100,171983
1558722388.384167,309206.667,54108,3,PI,1,100,171996
1558722388.423213,309235.333,54108,3,PI,1,100,172011
1558722388.462259,309264.000,54108,3,PI,1,100,172034
1558722388.502214,309293.333,54126,3,PI,1,100,172017
1558722388.542168,309322.667,54126,3,PI,1,100,171893
1558722388.582122,309352.000,54126,3,PI,1,100,171739
1558722388.624347,309383.000,54144,4,PI,1,100,171673
1558722388.666571,309414.000,54144,4,PI,1,100,171678
1558722388.708796,309445.000,54144,4,PI,1,100,171669
1558722388.751020,309476.000,54144,4,PI,1,100,171657
1558722388.789159,309504.000,54162,3,PI,1,100,171688
1558722388.827297,309532.000,54162,3,PI,1,100,171708
1558722388.865435,309560.000,54162,3,PI,1,100,171689
1558722388.906638,309590.250,54180,4,PI,1,100,171710
1558722388.947841,309620.500,54180,4,PI,1,100,171730
1558722388.989044,309650.750,54180,4,PI,1,100,171775
1558722389.030247,309681.000,54180,4,PI,1,100,171762
1558722389.068839,309709.333,54198,3,PI,1,100,171773
1558722389.107431,309737.667,54198,3,PI,1,100,171779
1558722389.146024,309766.000,54198,3,PI,1,100,171803
1558722389.184616,309794.333,54217,3,PI,1,100,171830
1558722389.223208,309822.667,54217,3,PI,1,100,171820
1558722389.261800,309851.000,54217,3,PI,1,100,171899
1558722389.303684,309881.750,54235,4,PI,1,100,171855
1558722389.345568,309912.500,54235,4,PI,1,100,171909
1558722389.387452,309943.250,54235,4,PI,1,100,171900
1558722389.429336,309974.000,54235,4,PI,1,100,171939
1558722389.466793,310001.500,54253,4,PI,1,100,171967
1558722389.504251,310029.000,54253,4,PI,1,100,171969
1558722389.541708,310056.500,54253,4,PI,1,100,171983
1558722389.579165,310084.000,54253,4,PI,1,100,171967
1558722389.624114,310117.000,54271,3,PI,1,100,171838
1558722389.669062,310150.000,54271,3,PI,1,100,171670
1558722389.714011,310183.000,54271,3,PI,1,100,171615
1558722389.752603,310211.333,54289,3,PI,1,100,171579
1558722389.791195,310239.667,54289,3,PI,1,100,171613
1558722389.829787,310268.000,54289,3,PI,1,100,171612
1558722389.866904,310295.250,54307,4,PI,1,100,171673
1558722389.904021,310322.500,54307,4,PI,1,100,171681
1558722389.941138,310349.750,54307,4,PI,1,100,171699
1558722389.978254,310377.000,54307,4,PI,1,100,171698
1558722390.022295,310409.333,54325,3,PI,1,100,171706
1558722390.066335,310441.667,54325,3,PI,1,100,171747
1558722390.110376,310474.000,54325,3,PI,1,100,171748
1558722390.147152,310501.000,54344,4,PI,1,100,171814
1558722390.183928,310528.000,54344,4,PI,1,100,171805
1558722390.220705,310555.000,54344,4,PI,1,100,171851
1558722390.257481,310582.000,54344,4,PI,1,100,171855
1558722390.296981,310611.000,54362,3,PI,1,100,171902
1558722390.336481,310640.000,54362,3,PI,1,100,171840
1558722390.375982,310669.000,54362,3,PI,1,100,171897
1558722390.417866,310699.750,54380,4,PI,1,100,171921
1558722390.459749,310730.500,54380,4,PI,1,100,171923
1558722390.501633,310761.250,54380,4,PI,1,100,171983
1558722390.543517,310792.000,54380,4,PI,1,100,171955
1558722390.582110,310820.333,54398,3,PI,1,100,172018
1558722390.620702,310848.667,54398,3,PI,1,100,171999
1558722390.659294,310877.000,54398,3,PI,1,100,172040
1558722390.699249,310906.333,54416,3,PI,1,100,172067
1558722390.739203,310935.667,54416,3,PI,1,100,172055
1558722390.779157,310965.000,54416,3,PI,1,100,171863
1558722390.820701,310995.500,54434,4,PI,1,100,171627
1558722390.862244,311026.000,54434,4,PI,1,100,171582
1558722390.903788,311056.500,54434,4,PI,1,100,171570
1558722390.945331,311087.000,54434,4,PI,1,100,171554
1558722390.983469,311115.000,54452,3,PI,1,100,171577
1558722391.021607,311143.000,54452,3,PI,1,100,171633
1558722391.059746,311171.000,54452,3,PI,1,100,171603
1558722391.101289,311201.500,54470,4,PI,1,100,171640
1558722391.142833,311232.000,54470,4,PI,1,100,171641
1558722391.184376,311262.500,54470,4,PI,1,100,171671
1558722391.225919,311293.000,54470,4,PI,1,100,171709
1558722391.264966,311321.667,54489,3,PI,1,100,171704
1558722391.304012,311350.333,54489,3,PI,1,100,171725
1558722391.343058,311379.000,54489,3,PI,1,100,171731
1558722391.382105,311407.667,54507,3,PI,1,100,171751
1558722391.421151,311436.333,54507,3,PI,1,100,171770
1558722391.460197,311465.000,54507,3,PI,1,100,171813
1558722391.502762,311496.250,54525,4,PI,1,100,171800
1558722391.545327,311527.500,54525,4,PI,1,100,171850
1558722391.587892,311558.750,54525,4,PI,1,100,171837
1558722391.630457,311590.000,54525,4,PI,1,100,171870
1558722391.668595,311618.000,54543,4,PI,1,100,171883
1558722391.706734,311646.000,54543,4,PI,1,100,171882
1558722391.744872,311674.000,54543,4,PI,1,100,171943
1558722391.783010,311702.000,54543,4,PI,1,100,171931
1558722391.827959,311735.000,54561,3,PI,1,100,171984
1558722391.872907,311768.000,54561,3,PI,1,100,172009
1558722391.917856,311801.000,54561,3,PI,1,100,171926
1558722391.957356,311830.000,54582,5,PI,1,100,171723
1558722391.996857,311859.000,54582,5,PI,1,100,171603
1558722392.036357,311888.000,54582,5,PI,1,100,171599
1558722392.075857,311917.000,54582,5,PI,1,100,171576
1558722392.115358,311946.000,54582,5,PI,1,100,171616
1558722392.151793,311972.750,54603,4,PI,1,100,171640
1558722392.188229,311999.500,54603,4,PI,1,100,171649
1558722392.224664,312026.250,54603,4,PI,1,100,171637
1558722392.261100,312053.000,54603,4,PI,1,100,171653
1558722392.299692,312081.333,54621,3,PI,1,100,171664
1558722392.338285,312109.667,54621,3,PI,1,100,171696
1558722392.376877,312138.000,54621,3,PI,1,100,171708
1558722392.418761,312168.750,54639,4,PI,1,100,171720
1558722392.460645,312199.500,54639,4,PI,1,100,171747
1558722392.502529,312230.250,54639,4,PI,1,100,171777
1558722392.544413,312261.000,54639,4,PI,1,100,171781
1558722392.583005,312289.333,54657,3,PI,1,100,171820
1558722392.621597,312317.667,54657,3,PI,1,100,171829
1558722392.660190,312346.000,54657,3,PI,1,100,171846
1558722392.702074,312376.750,54675,4,PI,1,100,171879
1558722392.743958,312407.500,54675,4,PI,1,100,171895
1558722392.785841,312438.250,54675,4,PI,1,100,171922
1558722392.827725,312469.000,54675,4,PI,1,100,171923
1558722392.866318,312497.333,54693,3,PI,1,100,171937
1558722392.904910,312525.667,54693,3,PI,1,100,171947
1558722392.943502,312554.000,54693,3,PI,1,100,171984
1558722392.981640,312582.000,54711,3,PI,1,100,171894
1558722393.019779,312610.000,54711,3,PI,1,100,171660
1558722393.057917,312638.000,54711,3,PI,1,100,171551
1558722393.099120,312668.250,54729,4,PI,1,100,171483
1558722393.140323,312698.500,54729,4,PI,1,100,171503
1558722393.181526,312728.750,54729,4,PI,1,100,171465
1558722393.222728,312759.000,54729,4,PI,1,100,171534
1558722393.259845,312786.250,54748,4,PI,1,100,171566
1558722393.296962,312813.500,54748,4,PI,1,100,171557
1558722393.334079,312840.750,54748,4,PI,1,100,171568
1558722393.371195,312868.000,54748,4,PI,1,100,171577
1558722393.415690,312900.667,54766,3,PI,1,100,171596
1558722393.460185,312933.333,54766,3,PI,1,100,171632
1558722393.504679,312966.000,54766,3,PI,1,100,171647
1558722393.543725,312994.667,54784,3,PI,1,100,171642
1558722393.582772,313023.333,54784,3,PI,1,100,171685
1558722393.621818,313052.000,54784,3,PI,1,100,171683
1558722393.664042,313083.000,54802,4,PI,1,100,171728
1558722393.706267,313114.000,54802,4,PI,1,100,171704
1558722393.748492,313145.000,54802,4,PI,1,100,171770
1558722393.790716,313176.000,54802,4,PI,1,100,171797
1558722393.830216,313205.000,54820,3,PI,1,100,171819
1558722393.869717,313234.000,54820,3,PI,1,100,171833
1558722393.909217,313263.000,54820,3,PI,1,100,171867
1558722393.946333,313290.250,54838,4,PI,1,100,171882
1558722393.983450,313317.500,54838,4,PI,1,100,171874
1558722394.020567,313344.750,54838,4,PI,1,100,171920
1558722394.057683,313372.000,54838,4,PI,1,100,171939
1558722394.102178,313404.667,54856,3,PI,1,100,171994
1558722394.146673,313437.333,54856,3,PI,1,100,171749
1558722394.191167,313470.000,54856,3,PI,1,100,171586
1558722394.228625,313497.500,54875,4,PI,1,100,171442
1558722394.266082,313525.000,54875,4,PI,1,100,171452
1558722394.303539,313552.500,54875,4,PI,1,100,171457
1558722394.340996,313580.000,54875,4,PI,1,100,171464
1558722394.379588,313608.333,54893,3,PI,1,100,171484
1558722394.418181,313636.667,54893,3,PI,1,100,171468
1558722394.456773,313665.000,54893,3,PI,1,100,171497
1558722394.501722,313698.000,54911,3,PI,1,100,171499
1558722394.546670,313731.000,54911,3,PI,1,100,171513
1558722394.591619,313764.000,54911,3,PI,1,100,171548
1558722394.629757,313792.000,54929,4,PI,1,100,171579
1558722394.667895,313820.000,54929,4,PI,1,100,171562
1558722394.706033,313848.000,54929,4,PI,1,100,171608
1558722394.744172,313876.000,54929,4,PI,1,100,171609
1558722394.782764,313904.333,54947,3,PI,1,100,171646
1558722394.821356,313932.667,54947,3,PI,1,100,171672
1558722394.859949,313961.000,54947,3,PI,1,100,171693
1558722394.902173,313992.000,54965,4,PI,1,100,171705
1558722394.944398,314023.000,54965,4,PI,1,100,171713
1558722394.986622,314054.000,54965,4,PI,1,100,171745
1558722395.028847,314085.000,54965,4,PI,1,100,171776
1558722395.067439,314113.333,54983,3,PI,1,100,171799
1558722395.106031,314141.667,54983,3,PI,1,100,171812
1558722395.144623,314170.000,54983,3,PI,1,100,171844
1558722395.183216,314198.333,55001,3,PI,1,100,171850
1558722395.221808,314226.667,55001,3,PI,1,100,171840
1558722395.260400,314255.000,55001,3,PI,1,100,171609
1558722395.301944,314285.500,55020,4,PI,1,100,171449
1558722395.343487,314316.000,55020,4,PI,1,100,171450
1558722395.385031,314346.500,55020,4,PI,1,100,171400
1558722395.426574,314377.000,55020,4,PI,1,100,171443
1558722395.465620,314405.667,55038,3,PI,1,100,171414
1558722395.504666,314434.333,55038,3,PI,1,100,171493
1558722395.543713,314463.000,55038,3,PI,1,100,171506
1558722395.585597,314493.750,55056,4,PI,1,100,171483
1558722395.627481,314524.500,55056,4,PI,1,100,171507
1558722395.669365,314555.250,55056,4,PI,1,100,171542
1558722395.711249,314586.000,55056,4,PI,1,100,171562
1558722395.749841,314614.333,55074,3,PI,1,100,171572
1558722395.788433,314642.667,55074,3,PI,1,100,171609
1558722395.827025,314671.000,55074,3,PI,1,100,171611
1558722395.868569,314701.500,55092,4,PI,1,100,171652
1558722395.910112,314732.000,55092,4,PI,1,100,171646
1558722395.951656,314762.500,55092,4,PI,1,100,171675
1558722395.993199,314793.000,55092,4,PI,1,100,171701
1558722396.032245,314821.667,55110,3,PI,1,100,171721
1558722396.071292,314850.333,55110,3,PI,1,100,171745
1558722396.110338,314879.000,55110,3,PI,1,100,171758
1558722396.148476,314907.000,55128,3,PI,1,100,171830
1558722396.186615,314935.000,55128,3,PI,1,100,171826
1558722396.224753,314963.000,55128,3,PI,1,100,171831
1558722396.265956,314993.250,55147,4,PI,1,100,171780
1558722396.307158,315023.500,55147,4,PI,1,100,171598
1558722396.348361,315053.750,55147,4,PI,1,100,171405
1558722396.389564,315084.000,55147,4,PI,1,100,171325
1558722396.427022,315111.500,55165,4,PI,1,100,171309
1558722396.464479,315139.000,55165,4,PI,1,100,171279
1558722396.501936,315166.500,55165,4,PI,1,100,171277
1558722396.539393,315194.000,55165,4,PI,1,100,171330
1558722396.584342,315227.000,55183,3,PI,1,100,171356
1558722396.629290,315260.000,55183,3,PI,1,100,171329
1558722396.674239,315293.000,55183,3,PI,1,100,171374
1558722396.713285,315321.667,55201,3,PI,1,100,171322
1558722396.752332,315350.333,55201,3,PI,1,100,171399
1558722396.791378,315379.000,55201,3,PI,1,100,171413
1558722396.829176,315406.750,55219,4,PI,1,100,171421
1558722396.866973,315434.500,55219,4,PI,1,100,171488
1558722396.904771,315462.250,55219,4,PI,1,100,171465
1558722396.942569,315490.000,55219,4,PI,1,100,171506
1558722396.987972,315523.333,55237,3,PI,1,100,171501
1558722397.033374,315556.667,55237,3,PI,1,100,171564
1558722397.078777,315590.000,55237,3,PI,1,100,171568
1558722397.115553,315617.000,55255,4,PI,1,100,171580
1558722397.152329,315644.000,55255,4,PI,1,100,171594
1558722397.189105,315671.000,55255,4,PI,1,100,171621
1558722397.225881,315698.000,55255,4,PI,1,100,171649
1558722397.264928,315726.667,55273,3,PI,1,100,171685
1558722397.303974,315755.333,55273,3,PI,1,100,171590
1558722397.343020,315784.000,55273,3,PI,1,100,171333
1558722397.387515,315816.667,55292,3,PI,1,100,171178
1558722397.432009,315849.333,55292,3,PI,1,100,171084
1558722397.476504,315882.000,55292,3,PI,1,100,171091
1558722397.513621,315909.250,55310,4,PI,1,100,171035
1558722397.550737,315936.500,55310,4,PI,1,100,171080
1558722397.587854,315963.750,55310,4,PI,1,100,171127
1558722397.624971,315991.000,55310,4,PI,1,100,171171
1558722397.664471,316020.000,55328,3,PI,1,100,171165
1558722397.703971,316049.000,55328,3,PI,1,100,171181
1558722397.743472,316078.000,55328,3,PI,1,100,171211
1558722397.785696,316109.000,55346,4,PI,1,100,171225
1558722397.827921,316140.000,55346,4,PI,1,100,171266
1558722397.870145,316171.000,55346,4,PI,1,100,171288
1558722397.912370,316202.000,55346,4,PI,1,100,171358
1558722397.950962,316230.333,55364,3,PI,1,100,171314
1558722397.989554,316258.667,55364,3,PI,1,100,171364
1558722398.028147,316287.000,55364,3,PI,1,100,171374
1558722398.067193,316315.667,55382,3,PI,1,100,171419
1558722398.106239,316344.333,55382,3,PI,1,100,171448
1558722398.145285,316373.000,55382,3,PI,1,100,171476
1558722398.187169,316403.750,55400,4,PI,1,100,171512
1558722398.229053,316434.500,55400,4,PI,1,100,171477
1558722398.270937,316465.250,55400,4,PI,1,100,171522
1558722398.312821,316496.000,55400,4,PI,1,100,171554
1558722398.350959,316524.000,55419,3,PI,1,100,171574
1558722398.389098,316552.000,55419,3,PI,1,100,171596
1558722398.427236,316580.000,55419,3,PI,1,100,171479
1558722398.468439,316610.250,55437,4,PI,1,100,171178
1558722398.509642,316640.500,55437,4,PI,1,100,171064
1558722398.550845,316670.750,55437,4,PI,1,100,171004
1558722398.592047,316701.000,55437,4,PI,1,100,171001
1558722398.629845,316728.750,55455,4,PI,1,100,170985
1558722398.667643,316756.500,55455,4,PI,1,100,171004
1558722398.705441,316784.250,55455,4,PI,1,100,171058
1558722398.743238,316812.000,55455,4,PI,1,100,171059
1558722398.787733,316844.667,55473,3,PI,1,100,171075
1558722398.832228,316877.333,55473,3,PI,1,100,171117
1558722398.876722,316910.000,55473,3,PI,1,100,171126
1558722398.916767,316939.400,55494,5,PI,1,100,171140
1558722398.956813,316968.800,55494,5,PI,1,100,171174
1558722398.996858,316998.200,55494,5,PI,1,100,171184
1558722399.036903,317027.600,55494,5,PI,1,100,171231
1558722399.076948,317057.000,55494,5,PI,1,100,171207
1558722399.114065,317084.250,55514,4,PI,1,100,171246
1558722399.151181,317111.500,55514,4,PI,1,100,171289
1558722399.188298,317138.750,55514,4,PI,1,100,171298
1558722399.225415,317166.000,55514,4,PI,1,100,171346
1558722399.264007,317194.333,55532,3,PI,1,100,171338
1558722399.302599,317222.667,55532,3,PI,1,100,171394
1558722399.341192,317251.000,55532,3,PI,1,100,171395
1558722399.382394,317281.250,55551,4,PI,1,100,171426
1558722399.423597,317311.500,55551,4,PI,1,100,171450
1558722399.464800,317341.750,55551,4,PI,1,100,171459
1558722399.506003,317372.000,55551,4,PI,1,100,171506
1558722399.544141,317400.000,55569,3,PI,1,100,171454
1558722399.582280,317428.000,55569,3,PI,1,100,171280
1558722399.620418,317456.000,55569,3,PI,1,100,171026
1558722399.659918,317485.000,55587,3,PI,1,100,170944
1558722399.699419,317514.000,55587,3,PI,1,100,170907
1558722399.738919,317543.000,55587,3,PI,1,100,170920
1558722399.780803,317573.750,55605,4,PI,1,100,170878
1558722399.822687,317604.500,55605,4,PI,1,100,170920
1558722399.864571,317635.250,55605,4,PI,1,100,170937
1558722399.906455,317666.000,55605,4,PI,1,100,170953
1558722399.945501,317694.667,55623,3,PI,1,100,170986
1558722399.984547,317723.333,55623,3,PI,1,100,170990
1558722400.023593,317752.000,55623,3,PI,1,100,171020
1558722400.065477,317782.750,55641,4,PI,1,100,171040
1558722400.107361,317813.500,55641,4,PI,1,100,171093
1558722400.149245,317844.250,55641,4,PI,1,100,171101
1558722400.191129,317875.000,55641,4,PI,1,100,171124
1558722400.230630,317904.000,55659,3,PI,1,100,171124
1558722400.270130,317933.000,55659,3,PI,1,100,171139
1558722400.309630,317962.000,55659,3,PI,1,100,171132
1558722400.351174,317992.500,55678,4,PI,1,100,171206
1558722400.392717,318023.000,55678,4,PI,1,100,171242
1558722400.434261,318053.500,55678,4,PI,1,100,171225
1558722400.475804,318084.000,55678,4,PI,1,100,171304
1558722400.513942,318112.000,55696,3,PI,1,100,171270
1558722400.552080,318140.000,55696,3,PI,1,100,171311
1558722400.590219,318168.000,55696,3,PI,1,100,171303
1558722400.628016,318195.750,55714,4,PI,1,100,171365
1558722400.665814,318223.500,55714,4,PI,1,100,171362
1558722400.703612,318251.250,55714,4,PI,1,100,171244
1558722400.741410,318279.000,55714,4,PI,1,100,170994
1558722400.786358,318312.000,55732,3,PI,1,100,170852
1558722400.831307,318345.000,55732,3,PI,1,100,170855
1558722400.876256,318378.000,55732,3,PI,1,100,170864
1558722400.913713,318405.500,55750,4,PI,1,100,170856
1558722400.951170,318433.000,55750,4,PI,1,100,170895
1558722400.988627,318460.500,55750,4,PI,1,100,170944
1558722401.026084,318488.000,55750,4,PI,1,100,170908
1558722401.065585,318517.000,55768,3,PI,1,100,170956
1558722401.105085,318546.000,55768,3,PI,1,100,170951
1558722401.144585,318575.000,55768,3,PI,1,100,171018
1558722401.189534,318608.000,55786,3,PI,1,100,171040
1558722401.234483,318641.000,55786,3,PI,1,100,171089
1558722401.279431,318674.000,55786,3,PI,1,100,171121
1558722401.316548,318701.250,55804,4,PI,1,100,171167
1558722401.353665,318728.500,55804,4,PI,1,100,171207
1558722401.390781,318755.750,55804,4,PI,1,100,171223
1558722401.427898,318783.000,55804,4,PI,1,100,171259
1558722401.466490,318811.333,55823,3,PI,1,100,171288
1558722401.505082,318839.667,55823,3,PI,1,100,171346
1558722401.543675,318868.000,55823,3,PI,1,100,171334
1558722401.585559,318898.750,55841,4,PI,1,100,171380
1558722401.627443,318929.500,55841,4,PI,1,100,171389
1558722401.669327,318960.250,55841,4,PI,1,100,171440
1558722401.711210,318991.000,55841,4,PI,1,100,171478
1558722401.749803,319019.333,55859,3,PI,1,100,171481
1558722401.788395,319047.667,55859,3,PI,1,100,171401
1558722401.826987,319076.000,55859,3,PI,1,100,171119
1558722401.866034,319104.667,55877,3,PI,1,100,171050
1558722401.905080,319133.333,55877,3,PI,1,100,171057
1558722401.944126,319162.000,55877,3,PI,1,100,171090
1558722401.986010,319192.750,55895,4,PI,1,100,171123
1558722402.027894,319223.500,55895,4,PI,1,100,171152
1558722402.069778,319254.250,55895,4,PI,1,100,171148
1558722402.111662,319285.000,55895,4,PI,1,100,171159
1558722402.150254,319313.333,55913,3,PI,1,100,171144
1558722402.188847,319341.667,55913,3,PI,1,100,171197
1558722402.227439,319370.000,55913,3,PI,1,100,171245
1558722402.268642,319400.250,55931,4,PI,1,100,171238
1558722402.309845,319430.500,55931,4,PI,1,100,171285
1558722402.351048,319460.750,55931,4,PI,1,100,171306
1558722402.392251,319491.000,55931,4,PI,1,100,171329
1558722402.430843,319519.333,55950,3,PI,1,100,171369
1558722402.469435,319547.667,55950,3,PI,1,100,171397
1558722402.508027,319576.000,55950,3,PI,1,100,171397
1558722402.549230,319606.250,55968,4,PI,1,100,171425
1558722402.590433,319636.500,55968,4,PI,1,100,171436
1558722402.631636,319666.750,55968,4,PI,1,100,171500
1558722402.672839,319697.000,55968,4,PI,1,100,171484
1558722402.710977,319725.000,55986,3,PI,1,100,171408
1558722402.749115,319753.000,55986,3,PI,1,100,171168
1558722402.787254,319781.000,55986,3,PI,1,100,170990
1558722402.826300,319809.667,56004,3,PI,1,100,170995
1558722402.865346,319838.333,56004,3,PI,1,100,170957
1558722402.904392,319867.000,56004,3,PI,1,100,170976
1558722402.946276,319897.750,56022,4,PI,1,100,170971
1558722402.988160,319928.500,56022,4,PI,1,100,171026
1558722403.030044,319959.250,56022,4,PI,1,100,171063
1558722403.071928,319990.000,56022,4,PI,1,100,171074
1558722403.109045,320017.250,56040,4,PI,1,100,171094
1558722403.146162,320044.500,56040,4,PI,1,100,171102
1558722403.183278,320071.750,56040,4,PI,1,100,171125
1558722403.220395,320099.000,56040,4,PI,1,100,171163
1558722403.264890,320131.667,56058,3,PI,1,100,171177
1558722403.309384,320164.333,56058,3,PI,1,100,171202
1558722403.353879,320197.000,56058,3,PI,1,100,171268
1558722403.392925,320225.667,56077,3,PI,1,100,171236
1558722403.431972,320254.333,56077,3,PI,1,100,171295
1558722403.471018,320283.000,56077,3,PI,1,100,171303
1558722403.507794,320310.000,56095,4,PI,1,100,171342
1558722403.544570,320337.000,56095,4,PI,1,100,171383
1558722403.581346,320364.000,56095,4,PI,1,100,171417
1558722403.618122,320391.000,56095,4,PI,1,100,171419
1558722403.662617,320423.667,56113,3,PI,1,100,171220
1558722403.707112,320456.333,56113,3,PI,1,100,170993
1558722403.751606,320489.000,56113,3,PI,1,100,170892
1558722403.789744,320517.000,56131,4,PI,1,100,170894
1558722403.827883,320545.000,56131,4,PI,1,100,170880
1558722403.866021,320573.000,56131,4,PI,1,100,170907
1558722403.904159,320601.000,56131,4,PI,1,100,170900
1558722403.942751,320629.333,56149,3,PI,1,100,170983
1558722403.981344,320657.667,56149,3,PI,1,100,170987
1558722404.019936,320686.000,56149,3,PI,1,100,170997
1558722404.061820,320716.750,56167,4,PI,1,100,171061
1558722404.103704,320747.500,56167,4,PI,1,100,171055
1558722404.145588,320778.250,56167,4,PI,1,100,171101
1558722404.187472,320809.000,56167,4,PI,1,100,171115
1558722404.227426,320838.333,56185,3,PI,1,100,171179
1558722404.267380,320867.667,56185,3,PI,1,100,171204
1558722404.307335,320897.000,56185,3,PI,1,100,171259
1558722404.345473,320925.000,56203,3,PI,1,100,171266
1558722404.383611,320953.000,56203,3,PI,1,100,171298
1558722404.421750,320981.000,56203,3,PI,1,100,171324
1558722404.462952,321011.250,56222,4,PI,1,100,171368
1558722404.504155,321041.500,56222,4,PI,1,100,171380
1558722404.545358,321071.750,56222,4,PI,1,100,171416
1558722404.586561,321102.000,56222,4,PI,1,100,171445
1558722404.626061,321131.000,56240,3,PI,1,100,171454
1558722404.665562,321160.000,56240,3,PI,1,100,171295
1558722404.705062,321189.000,56240,3,PI,1,100,171054
1558722404.746265,321219.250,56258,4,PI,1,100,170950
1558722404.787468,321249.500,56258,4,PI,1,100,170951
1558722404.828671,321279.750,56258,4,PI,1,100,170944
1558722404.869874,321310.000,56258,4,PI,1,100,170967
1558722404.908920,321338.667,56276,3,PI,1,100,171039
1558722404.947966,321367.333,56276,3,PI,1,100,171089
1558722404.987013,321396.000,56276,3,PI,1,100,171088
1558722405.026513,321425.000,56294,3,PI,1,100,171088
1558722405.066013,321454.000,56294,3,PI,1,100,171096
1558722405.105514,321483.000,56294,3,PI,1,100,171138
1558722405.147398,321513.750,56312,4,PI,1,100,171106
1558722405.189281,321544.500,56312,4,PI,1,100,171158
1558722405.231165,321575.250,56312,4,PI,1,100,171180
1558722405.273049,321606.000,56312,4,PI,1,100,171228
1558722405.310507,321633.500,56330,4,PI,1,100,171285
1558722405.347964,321661.000,56330,4,PI,1,100,171261
1558722405.385421,321688.500,56330,4,PI,1,100,171307
1558722405.422878,321716.000,56330,4,PI,1,100,171294
1558722405.466919,321748.333,56349,3,PI,1,100,171349
1558722405.510959,321780.667,56349,3,PI,1,100,171386
1558722405.555000,321813.000,56349,3,PI,1,100,171431
1558722405.593592,321841.333,56367,3,PI,1,100,171271
1558722405.632185,321869.667,56367,3,PI,1,100,171000
1558722405.670777,321898.000,56367,3,PI,1,100,170873
1558722405.712320,321928.500,56385,4,PI,1,100,170880
1558722405.753864,321959.000,56385,4,PI,1,100,170858
1558722405.795407,321989.500,56385,4,PI,1,100,170900
1558722405.836951,322020.000,56385,4,PI,1,100,170947
1558722405.876451,322049.000,56406,5,PI,1,100,170958
1558722405.915951,322078.000,56406,5,PI,1,100,170989
1558722405.955451,322107.000,56406,5,PI,1,100,170977
1558722405.994952,322136.000,56406,5,PI,1,100,171031
1558722406.034452,322165.000,56406,5,PI,1,100,171026
1558722406.071569,322192.250,56426,4,PI,1,100,171096
1558722406.108685,322219.500,56426,4,PI,1,100,171110
1558722406.145802,322246.750,56426,4,PI,1,100,171163
1558722406.182919,322274.000,56426,4,PI,1,100,171180
1558722406.221965,322302.667,56444,3,PI,1,100,171229
1558722406.261011,322331.333,56444,3,PI,1,100,171217
1558722406.300058,322360.000,56444,3,PI,1,100,171242
1558722406.341942,322390.750,56462,4,PI,1,100,171276
1558722406.383826,322421.500,56462,4,PI,1,100,171288
1558722406.425709,322452.250,56462,4,PI,1,100,171373
1558722406.467593,322483.000,56462,4,PI,1,100,171303
1558722406.505732,322511.000,56481,3,PI,1,100,171173
1558722406.543870,322539.000,56481,3,PI,1,100,170900
1558722406.582008,322567.000,56481,3,PI,1,100,170798
1558722406.620600,322595.333,56499,3,PI,1,100,170799
1558722406.659193,322623.667,56499,3,PI,1,100,170782
1558722406.697785,322652.000,56499,3,PI,1,100,170809
1558722406.738988,322682.250,56517,4,PI,1,100,170826
1558722406.780191,322712.500,56517,4,PI,1,100,170884
1558722406.821394,322742.750,56517,4,PI,1,100,170904
1558722406.862597,322773.000,56517,4,PI,1,100,170925
1558722406.900735,322801.000,56535,3,PI,1,100,170962
1558722406.938873,322829.000,56535,3,PI,1,100,170999
1558722406.977011,322857.000,56535,3,PI,1,100,170989
1558722407.019236,322888.000,56553,4,PI,1,100,171057
1558722407.061460,322919.000,56553,4,PI,1,100,171071
1558722407.103685,322950.000,56553,4,PI,1,100,171121
1558722407.145909,322981.000,56553,4,PI,1,100,171167
1558722407.185410,323010.000,56571,3,PI,1,100,171162
1558722407.224910,323039.000,56571,3,PI,1,100,171186
1558722407.264410,323068.000,56571,3,PI,1,100,171223
1558722407.306294,323098.750,56589,4,PI,1,100,171243
1558722407.348178,323129.500,56589,4,PI,1,100,171277
1558722407.390062,323160.250,56589,4,PI,1,100,171326
1558722407.431946,323191.000,56589,4,PI,1,100,171335
1558722407.470538,323219.333,56608,3,PI,1,100,171368
1558722407.509131,323247.667,56608,3,PI,1,100,171326
1558722407.547723,323276.000,56608,3,PI,1,100,171100
1558722407.585521,323303.750,56626,4,PI,1,100,170873
1558722407.623318,323331.500,56626,4,PI,1,100,170786
1558722407.661116,323359.250,56626,4,PI,1,100,170811
1558722407.698914,323387.000,56626,4,PI,1,100,170786
1558722407.742954,323419.333,56644,3,PI,1,100,170820
1558722407.786995,323451.667,56644,3,PI,1,100,170852
1558722407.831035,323484.000,56644,3,PI,1,100,170915
1558722407.867812,323511.000,56662,4,PI,1,100,170917
1558722407.904588,323538.000,56662,4,PI,1,100,170933
1558722407.941364,323565.000,56662,4,PI,1,100,170963
1558722407.978140,323592.000,56662,4,PI,1,100,170983
1558722408.018095,323621.333,56680,3,PI,1,100,171022
1558722408.058049,323650.667,56680,3,PI,1,100,171058
1558722408.098003,323680.000,56680,3,PI,1,100,171076
1558722408.143406,323713.333,56698,3,PI,1,100,171106
1558722408.188808,323746.667,56698,3,PI,1,100,171137
1558722408.234211,323780.000,56698,3,PI,1,100,171137
1558722408.271668,323807.500,56716,4,PI,1,100,171204
1558722408.309125,323835.000,56716,4,PI,1,100,171223
1558722408.346583,323862.500,56716,4,PI,1,100,171227
1558722408.384040,323890.000,56716,4,PI,1,100,171286
1558722408.423994,323919.333,56734,3,PI,1,100,171321
1558722408.463948,323948.667,56734,3,PI,1,100,171353
1558722408.503903,323978.000,56734,3,PI,1,100,171382
1558722408.545106,324008.250,56753,4,PI,1,100,171231
1558722408.586309,324038.500,56753,4,PI,1,100,170946
1558722408.627512,324068.750,56753,4,PI,1,100,170826
1558722408.668715,324099.000,56753,4,PI,1,100,170813
1558722408.706853,324127.000,56771,3,PI,1,100,170820
1558722408.744991,324155.000,56771,3,PI,1,100,170803
1558722408.783129,324183.000,56771,3,PI,1,100,170827
1558722408.821722,324211.333,56789,3,PI,1,100,170876
1558722408.860314,324239.667,56789,3,PI,1,100,170902
1558722408.898906,324268.000,56789,3,PI,1,100,170935
1558722408.940449,324298.500,56807,4,PI,1,100,170967
1558722408.981993,324329.000,56807,4,PI,1,100,171043
1558722409.023536,324359.500,56807,4,PI,1,100,171021
1558722409.065080,324390.000,56807,4,PI,1,100,171085
1558722409.103672,324418.333,56825,3,PI,1,100,171081
1558722409.142264,324446.667,56825,3,PI,1,100,171155
1558722409.180857,324475.000,56825,3,PI,1,100,171187
1558722409.222741,324505.750,56843,4,PI,1,100,171202
1558722409.264625,324536.500,56843,4,PI,1,100,171227
1558722409.306509,324567.250,56843,4,PI,1,100,171248
1558722409.348392,324598.000,56843,4,PI,1,100,171291
1558722409.387439,324626.667,56861,3,PI,1,100,171324
1558722409.426485,324655.333,56861,3,PI,1,100,171369
1558722409.465531,324684.000,56861,3,PI,1,100,171347
1558722409.507075,324714.500,56880,4,PI,1,100,171429
1558722409.548618,324745.000,56880,4,PI,1,100,171430
1558722409.590162,324775.500,56880,4,PI,1,100,171417
1558722409.631705,324806.000,56880,4,PI,1,100,171141
1558722409.669843,324834.000,56898,3,PI,1,100,170983
1558722409.707982,324862.000,56898,3,PI,1,100,170929
1558722409.746120,324890.000,56898,3,PI,1,100,170918
1558722409.783237,324917.250,56916,4,PI,1,100,170922
1558722409.820353,324944.500,56916,4,PI,1,100,170943
1558722409.857470,324971.750,56916,4,PI,1,100,170987
1558722409.894587,324999.000,56916,4,PI,1,100,171011
1558722409.939081,325031.667,56934,3,PI,1,100,171030
1558722409.983576,325064.333,56934,3,PI,1,100,171027
1558722410.028070,325097.000,56934,3,PI,1,100,171108
1558722410.065187,325124.250,56952,4,PI,1,100,171075
1558722410.102304,325151.500,56952,4,PI,1,100,171180
1558722410.139420,325178.750,56952,4,PI,1,100,171170
1558722410.176537,325206.000,56952,4,PI,1,100,171211
1558722410.216491,325235.333,56970,3,PI,1,100,171264
1558722410.256446,325264.667,56970,3,PI,1,100,171289
1558722410.296400,325294.000,56970,3,PI,1,100,171309
1558722410.340895,325326.667,56988,3,PI,1,100,171304
1558722410.385389,325359.333,56988,3,PI,1,100,171346
1558722410.429884,325392.000,56988,3,PI,1,100,171393
1558722410.467341,325419.500,57007,4,PI,1,100,171414
1558722410.504798,325447.000,57007,4,PI,1,100,171448
1558722410.542255,325474.500,57007,4,PI,1,100,171478
1558722410.579713,325502.000,57007,4,PI,1,100,171483
1558722410.619213,325531.000,57025,3,PI,1,100,171548
1558722410.658713,325560.000,57025,3,PI,1,100,171422
1558722410.698214,325589.000,57025,3,PI,1,100,171168
1558722410.739417,325619.250,57043,4,PI,1,100,171042
1558722410.780619,325649.500,57043,4,PI,1,100,170977
1558722410.821822,325679.750,57043,4,PI,1,100,170989
1558722410.863025,325710.000,57043,4,PI,1,100,170978
1558722410.901164,325738.000,57061,3,PI,1,100,171018
1558722410.939302,325766.000,57061,3,PI,1,100,171085
1558722410.977440,325794.000,57061,3,PI,1,100,171122
1558722411.019665,325825.000,57079,4,PI,1,100,171109
1558722411.061889,325856.000,57079,4,PI,1,100,171143
1558722411.104114,325887.000,57079,4,PI,1,100,171159
1558722411.146338,325918.000,57079,4,PI,1,100,171205
1558722411.185838,325947.000,57097,3,PI,1,100,171232
1558722411.225339,325976.000,57097,3,PI,1,100,171252
1558722411.264839,326005.000,57097,3,PI,1,100,171321
1558722411.303885,326033.667,57115,3,PI,1,100,171315
1558722411.342932,326062.333,57115,3,PI,1,100,171345
1558722411.381978,326091.000,57115,3,PI,1,100,171341
1558722411.424543,326122.250,57133,4,PI,1,100,171404
1558722411.467108,326153.500,57133,4,PI,1,100,171439
1558722411.509673,326184.750,57133,4,PI,1,100,171459
1558722411.552238,326216.000,57133,4,PI,1,100,171477
1558722411.591284,326244.667,57152,3,PI,1,100,171486
1558722411.630330,326273.333,57152,3,PI,1,100,171515
1558722411.669377,326302.000,57152,3,PI,1,100,171558
1558722411.710920,326332.500,57170,4,PI,1,100,171587
1558722411.752464,326363.000,57170,4,PI,1,100,171587
1558722411.794007,326393.500,57170,4,PI,1,100,171407
1558722411.835550,326424.000,57170,4,PI,1,100,171171
1558722411.873235,326451.667,57188,3,PI,1,100,171099
1558722411.910919,326479.333,57188,3,PI,1,100,171095
1558722411.948603,326507.000,57188,3,PI,1,100,171082
1558722411.985720,326534.250,57206,4,PI,1,100,171125
1558722412.022836,326561.500,57206,4,PI,1,100,171174
1558722412.059953,326588.750,57206,4,PI,1,100,171179
1558722412.097070,326616.000,57206,4,PI,1,100,171187
1558722412.142018,326649.000,57224,3,PI,1,100,171196
1558722412.186967,326682.000,57224,3,PI,1,100,171206
1558722412.231916,326715.000,57224,3,PI,1,100,171256
1558722412.269032,326742.250,57242,4,PI,1,100,171285
1558722412.306149,326769.500,57242,4,PI,1,100,171328
1558722412.343266,326796.750,57242,4,PI,1,100,171318
1558722412.380382,326824.000,57242,4,PI,1,100,171346
1558722412.419429,326852.667,57260,3,PI,1,100,171351
1558722412.458475,326881.333,57260,3,PI,1,100,171389
1558722412.497521,326910.000,57260,3,PI,1,100,171414
1558722412.542470,326943.000,57279,3,PI,1,100,171435
1558722412.587419,326976.000,57279,3,PI,1,100,171496
1558722412.632367,327009.000,57279,3,PI,1,100,171477
1558722412.669484,327036.250,57297,4,PI,1,100,171533
1558722412.706600,327063.500,57297,4,PI,1,100,171544
1558722412.743717,327090.750,57297,4,PI,1,100,171605
1558722412.780834,327118.000,57297,4,PI,1,100,171613
1558722412.820334,327147.000,57318,5,PI,1,100,171411
1558722412.859834,327176.000,57318,5,PI,1,100,171175
1558722412.899335,327205.000,57318,5,PI,1,100,171074
1558722412.938835,327234.000,57318,5,PI,1,100,171054
1558722412.978335,327263.000,57318,5,PI,1,100,171063
1558722413.019538,327293.250,57338,4,PI,1,100,171068
1558722413.060741,327323.500,57338,4,PI,1,100,171095
1558722413.101944,327353.750,57338,4,PI,1,100,171154
1558722413.143147,327384.000,57338,4,PI,1,100,171136
1558722413.182193,327412.667,57356,3,PI,1,100,171173
1558722413.221240,327441.333,57356,3,PI,1,100,171152
1558722413.260286,327470.000,57356,3,PI,1,100,171242
1558722413.302170,327500.750,57374,4,PI,1,100,171261
1558722413.344054,327531.500,57374,4,PI,1,100,171293
1558722413.385938,327562.250,57374,4,PI,1,100,171326
1558722413.427822,327593.000,57374,4,PI,1,100,171356
1558722413.466868,327621.667,57392,3,PI,1,100,171370
1558722413.505914,327650.333,57392,3,PI,1,100,171376
1558722413.544961,327679.000,57392,3,PI,1,100,171417
1558722413.584461,327708.000,57411,3,PI,1,100,171440
1558722413.623961,327737.000,57411,3,PI,1,100,171511
1558722413.663462,327766.000,57411,3,PI,1,100,171434
1558722413.705346,327796.750,57429,4,PI,1,100,171519
1558722413.747230,327827.500,57429,4,PI,1,100,171539
1558722413.789114,327858.250,57429,4,PI,1,100,171602
1558722413.830997,327889.000,57429,4,PI,1,100,171630
1558722413.867774,327916.000,57447,4,PI,1,100,171505
1558722413.904550,327943.000,57447,4,PI,1,100,171266
1558722413.941326,327970.000,57447,4,PI,1,100,171033
1558722413.978102,327997.000,57447,4,PI,1,100,171044
1558722414.022597,328029.667,57465,3,PI,1,100,171018
1558722414.067091,328062.333,57465,3,PI,1,100,171011
1558722414.111586,328095.000,57465,3,PI,1,100,171038
1558722414.151086,328124.000,57483,3,PI,1,100,171081
1558722414.190587,328153.000,57483,3,PI,1,100,171092
1558722414.230087,328182.000,57483,3,PI,1,100,171124
1558722414.267204,328209.250,57501,4,PI,1,100,171110
1558722414.304320,328236.500,57501,4,PI,1,100,171184
1558722414.341437,328263.750,57501,4,PI,1,100,171224
1558722414.378554,328291.000,57501,4,PI,1,100,171221
1558722414.423502,328324.000,57519,3,PI,1,100,171264
1558722414.468451,328357.000,57519,3,PI,1,100,171274
1558722414.513399,328390.000,57519,3,PI,1,100,171309
1558722414.551538,328418.000,57538,4,PI,1,100,171346
1558722414.589676,328446.000,57538,4,PI,1,100,171389
1558722414.627814,328474.000,57538,4,PI,1,100,171381
1558722414.665952,328502.000,57538,4,PI,1,100,171415
1558722414.704545,328530.333,57556,3,PI,1,100,171436
1558722414.743137,328558.667,57556,3,PI,1,100,171496
1558722414.781729,328587.000,57556,3,PI,1,100,171491
1558722414.825770,328619.333,57574,3,PI,1,100,171512
1558722414.869810,328651.667,57574,3,PI,1,100,171584
1558722414.913851,328684.000,57574,3,PI,1,100,171556
1558722414.951308,328711.500,57592,4,PI,1,100,171620
1558722414.988765,328739.000,57592,4,PI,1,100,171540
1558722415.026222,328766.500,57592,4,PI,1,100,171317
1558722415.063680,328794.000,57592,4,PI,1,100,171106
1558722415.102272,328822.333,57610,3,PI,1,100,171018
1558722415.140864,328850.667,57610,3,PI,1,100,171012
1558722415.179456,328879.000,57610,3,PI,1,100,171013
1558722415.221340,328909.750,57628,4,PI,1,100,171004
1558722415.263224,328940.500,57628,4,PI,1,100,171054
1558722415.305108,328971.250,57628,4,PI,1,100,171076
1558722415.346992,329002.000,57628,4,PI,1,100,171080
1558722415.386039,329030.667,57646,3,PI,1,100,171089
1558722415.425085,329059.333,57646,3,PI,1,100,171111
1558722415.464131,329088.000,57646,3,PI,1,100,171179
1558722415.506015,329118.750,57664,4,PI,1,100,171186
1558722415.547899,329149.500,57664,4,PI,1,100,171204
1558722415.589783,329180.250,57664,4,PI,1,100,171221
1558722415.631667,329211.000,57664,4,PI,1,100,171270
1558722415.670259,329239.333,57683,3,PI,1,100,171318
1558722415.708852,329267.667,57683,3,PI,1,100,171313
1558722415.747444,329296.000,57683,3,PI,1,100,171349
1558722415.786036,329324.333,57701,3,PI,1,100,171358
1558722415.824628,329352.667,57701,3,PI,1,100,171390
1558722415.863221,329381.000,57701,3,PI,1,100,171428
1558722415.904423,329411.250,57719,4,PI,1,100,171453
1558722415.945626,329441.500,57719,4,PI,1,100,171455
1558722415.986829,329471.750,57719,4,PI,1,100,171514
1558722416.028032,329502.000,57719,4,PI,1,100,171481
1558722416.066170,329530.000,57737,3,PI,1,100,171551
1558722416.104309,329558.000,57737,3,PI,1,100,171411
1558722416.142447,329586.000,57737,3,PI,1,100,171133
1558722416.183990,329616.500,57755,4,PI,1,100,171046
1558722416.225534,329647.000,57755,4,PI,1,100,171001
1558722416.267077,329677.500,57755,4,PI,1,100,171030
1558722416.308621,329708.000,57755,4,PI,1,100,171005
1558722416.346418,329735.750,57773,4,PI,1,100,171094
1558722416.384216,329763.500,57773,4,PI,1,100,171121
1558722416.422014,329791.250,57773,4,PI,1,100,171124
1558722416.459812,329819.000,57773,4,PI,1,100,171124
1558722416.504760,329852.000,57791,3,PI,1,100,171147
1558722416.549709,329885.000,57791,3,PI,1,100,171184
1558722416.594658,329918.000,57791,3,PI,1,100,171227
1558722416.633704,329946.667,57810,3,PI,1,100,171243
1558722416.672750,329975.333,57810,3,PI,1,100,171264
1558722416.711797,330004.000,57810,3,PI,1,100,171301
1558722416.749935,330032.000,57828,4,PI,1,100,171294
1558722416.788073,330060.000,57828,4,PI,1,100,171353
1558722416.826211,330088.000,57828,4,PI,1,100,171354
1558722416.864349,330116.000,57828,4,PI,1,100,171392
1558722416.908844,330148.667,57846,3,PI,1,100,171442
1558722416.953339,330181.333,57846,3,PI,1,100,171461
1558722416.997833,330214.000,57846,3,PI,1,100,171483
1558722417.034609,330241.000,57864,4,PI,1,100,171506
1558722417.071386,330268.000,57864,4,PI,1,100,171545
1558722417.108162,330295.000,57864,4,PI,1,100,171554
1558722417.144938,330322.000,57864,4,PI,1,100,171586
1558722417.183984,330350.667,57882,3,PI,1,100,171438
1558722417.223030,330379.333,57882,3,PI,1,100,171209
1558722417.262077,330408.000,57882,3,PI,1,100,171000
1558722417.307025,330441.000,57900,3,PI,1,100,170990
1558722417.351974,330474.000,57900,3,PI,1,100,170979
1558722417.396923,330507.000,57900,3,PI,1,100,170969
1558722417.434380,330534.500,57918,4,PI,1,100,170987
1558722417.471837,330562.000,57918,4,PI,1,100,171033
1558722417.509294,330589.500,57918,4,PI,1,100,171058
1558722417.546751,330617.000,57918,4,PI,1,100,171028
1558722417.586252,330646.000,57937,3,PI,1,100,171073
1558722417.625752,330675.000,57937,3,PI,1,100,171112
1558722417.665252,330704.000,57937,3,PI,1,100,171146
1558722417.707477,330735.000,57955,4,PI,1,100,171181
1558722417.749701,330766.000,57955,4,PI,1,100,171213
1558722417.791926,330797.000,57955,4,PI,1,100,171205
1558722417.834150,330828.000,57955,4,PI,1,100,171272
1558722417.874234,330857.429,57973,7,PI,1,100,171273
1558722417.914318,330886.857,57973,7,PI,1,100,171317
1558722417.954402,330916.286,57973,7,PI,1,100,171359
1558722417.994487,330945.714,57973,7,PI,1,100,171394
1558722418.034571,330975.143,57973,7,PI,1,100,171404
1558722418.074655,331004.571,57973,7,PI,1,100,171429
1558722418.114739,331034.000,57973,7,PI,1,100,171447
1558722418.152196,331061.500,57991,4,PI,1,100,171498
1558722418.189653,331089.000,57991,4,PI,1,100,171504
1558722418.227110,331116.500,57991,4,PI,1,100,171539
1558722418.264568,331144.000,57991,4,PI,1,100,171568
1558722418.309062,331176.667,58009,3,PI,1,100,171472
1558722418.353557,331209.333,58009,3,PI,1,100,171222
1558722418.398051,331242.000,58009,3,PI,1,100,170974
1558722418.436644,331270.333,58027,3,PI,1,100,170967
1558722418.475236,331298.667,58027,3,PI,1,100,170967
1558722418.513828,331327.000,58027,3,PI,1,100,170946
1558722418.551626,331354.750,58045,4,PI,1,100,170971
1558722418.589424,331382.500,58045,4,PI,1,100,171023
1558722418.627221,331410.250,58045,4,PI,1,100,171060
1558722418.665019,331438.000,58045,4,PI,1,100,171029
1558722418.709514,331470.667,58064,3,PI,1,100,171073
1558722418.754008,331503.333,58064,3,PI,1,100,171106
1558722418.798503,331536.000,58064,3,PI,1,100,171144
1558722418.835960,331563.500,58082,4,PI,1,100,171160
1558722418.873417,331591.000,58082,4,PI,1,100,171208
1558722418.910874,331618.500,58082,4,PI,1,100,171211
1558722418.948332,331646.000,58082,4,PI,1,100,171229
1558722418.986924,331674.333,58100,3,PI,1,100,171261
1558722419.025516,331702.667,58100,3,PI,1,100,171288
1558722419.064108,331731.000,58100,3,PI,1,100,171327
1558722419.105311,331761.250,58118,4,PI,1,100,171304
1558722419.146514,331791.500,58118,4,PI,1,100,171328
1558722419.187717,331821.750,58118,4,PI,1,100,171341
1558722419.228920,331852.000,58118,4,PI,1,100,171388
1558722419.267058,331880.000,58136,3,PI,1,100,171416
1558722419.305197,331908.000,58136,3,PI,1,100,171451
1558722419.343335,331936.000,58136,3,PI,1,100,171494
1558722419.382381,331964.667,58154,3,PI,1,100,171536
1558722419.421427,331993.333,58154,3,PI,1,100,171490
1558722419.460474,332022.000,58154,3,PI,1,100,171364
1558722419.502358,332052.750,58172,4,PI,1,100,171093
1558722419.544242,332083.500,58172,4,PI,1,100,170929
1558722419.586126,332114.250,58172,4,PI,1,100,170984
1558722419.628010,332145.000,58172,4,PI,1,100,170926
1558722419.666602,332173.333,58191,3,PI,1,100,170954
1558722419.705194,332201.667,58191,3,PI,1,100,170978
1558722419.743786,332230.000,58191,3,PI,1,100,171050
1558722419.786238,332261.167,58212,6,PI,1,100,171057
1558722419.828689,332292.333,58212,6,PI,1,100,171052
1558722419.871141,332323.500,58212,6,PI,1,100,171090
1558722419.913592,332354.667,58212,6,PI,1,100,171108
1558722419.956044,332385.833,58212,6,PI,1,100,171160
1558722419.998495,332417.000,58212,6,PI,1,100,171194
1558722420.036633,332445.000,58232,3,PI,1,100,171224
1558722420.074772,332473.000,58232,3,PI,1,100,171241
1558722420.112910,332501.000,58232,3,PI,1,100,171291
1558722420.150367,332528.500,58250,4,PI,1,100,171280
1558722420.187824,332556.000,58250,4,PI,1,100,171332
1558722420.225281,332583.500,58250,4,PI,1,100,171341
1558722420.262739,332611.000,58250,4,PI,1,100,171371
1558722420.307233,332643.667,58268,3,PI,1,100,171425
1558722420.351728,332676.333,58268,3,PI,1,100,171447
1558722420.396223,332709.000,58268,3,PI,1,100,171468
1558722420.433339,332736.250,58286,4,PI,1,100,171488
1558722420.470456,332763.500,58286,4,PI,1,100,171524
1558722420.507573,332790.750,58286,4,PI,1,100,171547
1558722420.544689,332818.000,58286,4,PI,1,100,171567
1558722420.584190,332847.000,58304,3,PI,1,100,171411
1558722420.623690,332876.000,58304,3,PI,1,100,171153
1558722420.663190,332905.000,58304,3,PI,1,100,170935
1558722420.708139,332938.000,58323,3,PI,1,100,170917
1558722420.753088,332971.000,58323,3,PI,1,100,170922
1558722420.798036,333004.000,58323,3,PI,1,100,170914
1558722420.835834,333031.750,58341,4,PI,1,100,170980
1558722420.873631,333059.500,58341,4,PI,1,100,170999
1558722420.911429,333087.250,58341,4,PI,1,100,171038
1558722420.949227,333115.000,58341,4,PI,1,100,170998
1558722420.988273,333143.667,58359,3,PI,1,100,171052
1558722421.027320,333172.333,58359,3,PI,1,100,171083
1558722421.066366,333201.000,58359,3,PI,1,100,171129
1558722421.108250,333231.750,58377,4,PI,1,100,171151
1558722421.150134,333262.500,58377,4,PI,1,100,171148
1558722421.192018,333293.250,58377,4,PI,1,100,171166
1558722421.233902,333324.000,58377,4,PI,1,100,171203
1558722421.272040,333352.000,58395,3,PI,1,100,171204
1558722421.310178,333380.000,58395,3,PI,1,100,171263
1558722421.348316,333408.000,58395,3,PI,1,100,171301
1558722421.386909,333436.333,58413,3,PI,1,100,171309
1558722421.425501,333464.667,58413,3,PI,1,100,171384
1558722421.464093,333493.000,58413,3,PI,1,100,171405
1558722421.505977,333523.750,58431,4,PI,1,100,171448
1558722421.547861,333554.500,58431,4,PI,1,100,171470
1558722421.589745,333585.250,58431,4,PI,1,100,171511
1558722421.631629,333616.000,58431,4,PI,1,100,171532
1558722421.670221,333644.333,58450,3,PI,1,100,171552
1558722421.708813,333672.667,58450,3,PI,1,100,171443
1558722421.747406,333701.000,58450,3,PI,1,100,171178
1558722421.788949,333731.500,58468,4,PI,1,100,171005
1558722421.830493,333762.000,58468,4,PI,1,100,170975
1558722421.872036,333792.500,58468,4,PI,1,100,170977
1558722421.913579,333823.000,58468,4,PI,1,100,170976
1558722421.953080,333852.000,58486,3,PI,1,100,171028
1558722421.992580,333881.000,58486,3,PI,1,100,171019
1558722422.032080,333910.000,58486,3,PI,1,100,171073
1558722422.073283,333940.250,58504,4,PI,1,100,171071
1558722422.114486,333970.500,58504,4,PI,1,100,171089
1558722422.155689,334000.750,58504,4,PI,1,100,171135
1558722422.196892,334031.000,58504,4,PI,1,100,171152
1558722422.235030,334059.000,58522,3,PI,1,100,171199
1558722422.273169,334087.000,58522,3,PI,1,100,171187
1558722422.311307,334115.000,58522,3,PI,1,100,171235
1558722422.349899,334143.333,58540,3,PI,1,100,171258
1558722422.388491,334171.667,58540,3,PI,1,100,171284
1558722422.427084,334200.000,58540,3,PI,1,100,171286
1558722422.468627,334230.500,58558,4,PI,1,100,171326
1558722422.510170,334261.000,58558,4,PI,1,100,171349
1558722422.551714,334291.500,58558,4,PI,1,100,171404
1558722422.593257,334322.000,58558,4,PI,1,100,171421
1558722422.630374,334349.250,58576,4,PI,1,100,171455
1558722422.667491,334376.500,58576,4,PI,1,100,171534
1558722422.704607,334403.750,58576,4,PI,1,100,171521
1558722422.741724,334431.000,58576,4,PI,1,100,171396
1558722422.786673,334464.000,58595,3,PI,1,100,171095
1558722422.831621,334497.000,58595,3,PI,1,100,170985
1558722422.876570,334530.000,58595,3,PI,1,100,170986
1558722422.915616,334558.667,58613,3,PI,1,100,170982
1558722422.954663,334587.333,58613,3,PI,1,100,170960
1558722422.993709,334616.000,58613,3,PI,1,100,170989
1558722423.030826,334643.250,58631,4,PI,1,100,171040
1558722423.067942,334670.500,58631,4,PI,1,100,171063
1558722423.105059,334697.750,58631,4,PI,1,100,171079
1558722423.142176,334725.000,58631,4,PI,1,100,171087
1558722423.186670,334757.667,58649,3,PI,1,100,171161
1558722423.231165,334790.333,58649,3,PI,1,100,171117
1558722423.275659,334823.000,58649,3,PI,1,100,171183
1558722423.313117,334850.500,58667,4,PI,1,100,171199
1558722423.350574,334878.000,58667,4,PI,1,100,171232
1558722423.388031,334905.500,58667,4,PI,1,100,171277
1558722423.425488,334933.000,58667,4,PI,1,100,171268
1558722423.463626,334961.000,58685,3,PI,1,100,171317
1558722423.501765,334989.000,58685,3,PI,1,100,171332
1558722423.539903,335017.000,58685,3,PI,1,100,171395
1558722423.581787,335047.750,58703,4,PI,1,100,171422
1558722423.623671,335078.500,58703,4,PI,1,100,171463
1558722423.665555,335109.250,58703,4,PI,1,100,171481
1558722423.707439,335140.000,58703,4,PI,1,100,171516
1558722423.747393,335169.333,58722,3,PI,1,100,171488
1558722423.787348,335198.667,58722,3,PI,1,100,171246
1558722423.827302,335228.000,58722,3,PI,1,100,171001
1558722423.865894,335256.333,58740,3,PI,1,100,170930
1558722423.904486,335284.667,58740,3,PI,1,100,170935
1558722423.943079,335313.000,58740,3,PI,1,100,170915
1558722423.985303,335344.000,58758,4,PI,1,100,170932
1558722424.027528,335375.000,58758,4,PI,1,100,170948
1558722424.069752,335406.000,58758,4,PI,1,100,170995
1558722424.111976,335437.000,58758,4,PI,1,100,171038
1558722424.151023,335465.667,58776,3,PI,1,100,171063
1558722424.190069,335494.333,58776,3,PI,1,100,171068
1558722424.229115,335523.000,58776,3,PI,1,100,171089
1558722424.270318,335553.250,58794,4,PI,1,100,171138
1558722424.311521,335583.500,58794,4,PI,1,100,171153
1558722424.352724,335613.750,58794,4,PI,1,100,171201
1558722424.393927,335644.000,58794,4,PI,1,100,171224
1558722424.432065,335672.000,58812,3,PI,1,100,171281
1558722424.470203,335700.000,58812,3,PI,1,100,171276
1558722424.508342,335728.000,58812,3,PI,1,100,171286
1558722424.547842,335757.000,58830,3,PI,1,100,171313
1558722424.587343,335786.000,58830,3,PI,1,100,171355
1558722424.626843,335815.000,58830,3,PI,1,100,171421
1558722424.668727,335845.750,58849,4,PI,1,100,171382
1558722424.710611,335876.500,58849,4,PI,1,100,171464
1558722424.752495,335907.250,58849,4,PI,1,100,171453
1558722424.794379,335938.000,58849,4,PI,1,100,171533
1558722424.832176,335965.750,58867,4,PI,1,100,171550
1558722424.869974,335993.500,58867,4,PI,1,100,171355
1558722424.907772,336021.250,58867,4,PI,1,100,171080
1558722424.945569,336049.000,58867,4,PI,1,100,170948
1558722424.990518,336082.000,58885,3,PI,1,100,170935
1558722425.035467,336115.000,58885,3,PI,1,100,170926
1558722425.080415,336148.000,58885,3,PI,1,100,170938
1558722425.119916,336177.000,58903,3,PI,1,100,170962
1558722425.159416,336206.000,58903,3,PI,1,100,171014
1558722425.198916,336235.000,58903,3,PI,1,100,171004
1558722425.237055,336263.000,58921,3,PI,1,100,171040
1558722425.275193,336291.000,58921,3,PI,1,100,171046
1558722425.313331,336319.000,58921,3,PI,1,100,171107
1558722425.354534,336349.250,58939,4,PI,1,100,171108
1558722425.395737,336379.500,58939,4,PI,1,100,171157
1558722425.436940,336409.750,58939,4,PI,1,100,171197
1558722425.478143,336440.000,58939,4,PI,1,100,171213
1558722425.515259,336467.250,58957,4,PI,1,100,171245
1558722425.552376,336494.500,58957,4,PI,1,100,171263
1558722425.589493,336521.750,58957,4,PI,1,100,171297
1558722425.626609,336549.000,58957,4,PI,1,100,171288
1558722425.671104,336581.667,58975,3,PI,1,100,171347
1558722425.715599,336614.333,58975,3,PI,1,100,171362
1558722425.760093,336647.000,58975,3,PI,1,100,171431
1558722425.797210,336674.250,58994,4,PI,1,100,171367
1558722425.834327,336701.500,58994,4,PI,1,100,171427
1558722425.871443,336728.750,58994,4,PI,1,100,171466
1558722425.908560,336756.000,58994,4,PI,1,100,171485
1558722425.947606,336784.667,59012,3,PI,1,100,171546
1558722425.986652,336813.333,59012,3,PI,1,100,171317
1558722426.025699,336842.000,59012,3,PI,1,100,171100
1558722426.070647,336875.000,59030,3,PI,1,100,170961
1558722426.115596,336908.000,59030,3,PI,1,100,170970
1558722426.160545,336941.000,59030,3,PI,1,100,171002
1558722426.197321,336968.000,59048,4,PI,1,100,171010
1558722426.234097,336995.000,59048,4,PI,1,100,171065
1558722426.270873,337022.000,59048,4,PI,1,100,171060
1558722426.307649,337049.000,59048,4,PI,1,100,171084
1558722426.346241,337077.333,59066,3,PI,1,100,171106
1558722426.384834,337105.667,59066,3,PI,1,100,171140
1558722426.423426,337134.000,59066,3,PI,1,100,171170
1558722426.464629,337164.250,59084,4,PI,1,100,171208
1558722426.505832,337194.500,59084,4,PI,1,100,171213
1558722426.547035,337224.750,59084,4,PI,1,100,171257
1558722426.588238,337255.000,59084,4,PI,1,100,171279
1558722426.626376,337283.000,59102,3,PI,1,100,171324
1558722426.664514,337311.000,59102,3,PI,1,100,171375
1558722426.702652,337339.000,59102,3,PI,1,100,171358
1558722426.744877,337370.000,59124,6,PI,1,100,171405
1558722426.787102,337401.000,59124,6,PI,1,100,171422
1558722426.829326,337432.000,59124,6,PI,1,100,171463
1558722426.871550,337463.000,59124,6,PI,1,100,171498
1558722426.913775,337494.000,59124,6,PI,1,100,171523
1558722426.955999,337525.000,59124,6,PI,1,100,171552
1558722426.995046,337553.667,59144,3,PI,1,100,171626
1558722427.034092,337582.333,59144,3,PI,1,100,171608
1558722427.073138,337611.000,59144,3,PI,1,100,171394
1558722427.111276,337639.000,59162,4,PI,1,100,171094
1558722427.149415,337667.000,59162,4,PI,1,100,170963
1558722427.187553,337695.000,59162,4,PI,1,100,170986
1558722427.225691,337723.000,59162,4,PI,1,100,170935
1558722427.270186,337755.667,59180,3,PI,1,100,170966
1558722427.314680,337788.333,59180,3,PI,1,100,170969
1558722427.359175,337821.000,59180,3,PI,1,100,171050
1558722427.395951,337848.000,59198,4,PI,1,100,171086
1558722427.432727,337875.000,59198,4,PI,1,100,171058
1558722427.469503,337902.000,59198,4,PI,1,100,171099
1558722427.506280,337929.000,59198,4,PI,1,100,171123
1558722427.545780,337958.000,59216,3,PI,1,100,171172
1558722427.585280,337987.000,59216,3,PI,1,100,171185
1558722427.624781,338016.000,59216,3,PI,1,100,171213
1558722427.669275,338048.667,59234,3,PI,1,100,171229
1558722427.713770,338081.333,59234,3,PI,1,100,171250
1558722427.758264,338114.000,59234,3,PI,1,100,171282
1558722427.795722,338141.500,59253,4,PI,1,100,171322
1558722427.833179,338169.000,59253,4,PI,1,100,171343
1558722427.870636,338196.500,59253,4,PI,1,100,171366
1558722427.908093,338224.000,59253,4,PI,1,100,171405
1558722427.948047,338253.333,59271,3,PI,1,100,171425
1558722427.988002,338282.667,59271,3,PI,1,100,171461
1558722428.027956,338312.000,59271,3,PI,1,100,171472
1558722428.073359,338345.333,59289,3,PI,1,100,171327
1558722428.118762,338378.667,59289,3,PI,1,100,171058
1558722428.164164,338412.000,59289,3,PI,1,100,170935
1558722428.201621,338439.500,59307,4,PI,1,100,170905
1558722428.239079,338467.000,59307,4,PI,1,100,170909
1558722428.276536,338494.500,59307,4,PI,1,100,170906
1558722428.313993,338522.000,59307,4,PI,1,100,170912
1558722428.352585,338550.333,59325,3,PI,1,100,170974
1558722428.391177,338578.667,59325,3,PI,1,100,170993
1558722428.429770,338607.000,59325,3,PI,1,100,171007
1558722428.470973,338637.250,59343,4,PI,1,100,171007
1558722428.512176,338667.500,59343,4,PI,1,100,171028
1558722428.553379,338697.750,59343,4,PI,1,100,171062
1558722428.594581,338728.000,59343,4,PI,1,100,171106
1558722428.632720,338756.000,59361,3,PI,1,100,171135
1558722428.670858,338784.000,59361,3,PI,1,100,171166
1558722428.708996,338812.000,59361,3,PI,1,100,171236
1558722428.750199,338842.250,59380,4,PI,1,100,171202
1558722428.791402,338872.500,59380,4,PI,1,100,171272
1558722428.832605,338902.750,59380,4,PI,1,100,171285
1558722428.873808,338933.000,59380,4,PI,1,100,171362
1558722428.912854,338961.667,59398,3,PI,1,100,171392
1558722428.951900,338990.333,59398,3,PI,1,100,171401
1558722428.990947,339019.000,59398,3,PI,1,100,171408
1558722429.032831,339049.750,59416,4,PI,1,100,171441
1558722429.074715,339080.500,59416,4,PI,1,100,171499
1558722429.116599,339111.250,59416,4,PI,1,100,171441
1558722429.158483,339142.000,59416,4,PI,1,100,171161
1558722429.197075,339170.333,59434,3,PI,1,100,170912
1558722429.235667,339198.667,59434,3,PI,1,100,170898
1558722429.274259,339227.000,59434,3,PI,1,100,170850
1558722429.311376,339254.250,59452,4,PI,1,100,170866
1558722429.348493,339281.500,59452,4,PI,1,100,170846
1558722429.385609,339308.750,59452,4,PI,1,100,170945
1558722429.422726,339336.000,59452,4,PI,1,100,170975
1558722429.466767,339368.333,59470,3,PI,1,100,170980
1558722429.510807,339400.667,59470,3,PI,1,100,170993
1558722429.554848,339433.000,59470,3,PI,1,100,171005
1558722429.591624,339460.000,59488,4,PI,1,100,171074
1558722429.628400,339487.000,59488,4,PI,1,100,171076
1558722429.665176,339514.000,59488,4,PI,1,100,171128
1558722429.701952,339541.000,59488,4,PI,1,100,171149
1558722429.740545,339569.333,59506,3,PI,1,100,171212
1558722429.779137,339597.667,59506,3,PI,1,100,171188
1558722429.817729,339626.000,59506,3,PI,1,100,171223
1558722429.862224,339658.667,59525,3,PI,1,100,171271
1558722429.906718,339691.333,59525,3,PI,1,100,171281
1558722429.951213,339724.000,59525,3,PI,1,100,171369
1558722429.988670,339751.500,59543,4,PI,1,100,171323
1558722430.026127,339779.000,59543,4,PI,1,100,171418
1558722430.063585,339806.500,59543,4,PI,1,100,171414
1558722430.101042,339834.000,59543,4,PI,1,100,171442
1558722430.140996,339863.333,59561,3,PI,1,100,171498
1558722430.180950,339892.667,59561,3,PI,1,100,171560
1558722430.220905,339922.000,59561,3,PI,1,100,171568
1558722430.262448,339952.500,59579,4,PI,1,100,171286
1558722430.303992,339983.000,59579,4,PI,1,100,171033
1558722430.345535,340013.500,59579,4,PI,1,100,170918
1558722430.387079,340044.000,59579,4,PI,1,100,170915
1558722430.425217,340072.000,59597,3,PI,1,100,170905
1558722430.463355,340100.000,59597,3,PI,1,100,170885
1558722430.501493,340128.000,59597,3,PI,1,100,170923
1558722430.543037,340158.500,59615,4,PI,1,100,170975
1558722430.584580,340189.000,59615,4,PI,1,100,170972
1558722430.626124,340219.500,59615,4,PI,1,100,170993
1558722430.667667,340250.000,59615,4,PI,1,100,171053
1558722430.706713,340278.667,59633,3,PI,1,100,171038
1558722430.745760,340307.333,59633,3,PI,1,100,171085
1558722430.784806,340336.000,59633,3,PI,1,100,171095
1558722430.822944,340364.000,59652,3,PI,1,100,171135
1558722430.861082,340392.000,59652,3,PI,1,100,171179
1558722430.899221,340420.000,59652,3,PI,1,100,171200
1558722430.941786,340451.250,59670,4,PI,1,100,171220
1558722430.984351,340482.500,59670,4,PI,1,100,171259
1558722431.026916,340513.750,59670,4,PI,1,100,171266
1558722431.069481,340545.000,59670,4,PI,1,100,171304
1558722431.107619,340573.000,59688,4,PI,1,100,171333
1558722431.145757,340601.000,59688,4,PI,1,100,171350
1558722431.183895,340629.000,59688,4,PI,1,100,171425
1558722431.222034,340657.000,59688,4,PI,1,100,171415
1558722431.267436,340690.333,59706,3,PI,1,100,171458
1558722431.312839,340723.667,59706,3,PI,1,100,171277
1558722431.358242,340757.000,59706,3,PI,1,100,171039
1558722431.396834,340785.333,59724,3,PI,1,100,170906
1558722431.435426,340813.667,59724,3,PI,1,100,170878
1558722431.474018,340842.000,59724,3,PI,1,100,170897
1558722431.511135,340869.250,59742,4,PI,1,100,170870
1558722431.548252,340896.500,59742,4,PI,1,100,170944
1558722431.585368,340923.750,59742,4,PI,1,100,170985
1558722431.622485,340951.000,59742,4,PI,1,100,170989
1558722431.666980,340983.667,59760,3,PI,1,100,170990
1558722431.711474,341016.333,59760,3,PI,1,100,171021
1558722431.755969,341049.000,59760,3,PI,1,100,171057
1558722431.792404,341075.750,59778,4,PI,1,100,171105
1558722431.828840,341102.500,59778,4,PI,1,100,171119
1558722431.865276,341129.250,59778,4,PI,1,100,171141
1558722431.901711,341156.000,59778,4,PI,1,100,171179
1558722431.940758,341184.667,59797,3,PI,1,100,171200
1558722431.979804,341213.333,59797,3,PI,1,100,171232
