EpochTimestamp,EmotiBitTimestamp,PacketNumber,DataLength,TypeTag,ProtocolVersion,DataReliability,AX
1572441007.141877,46985.000,7589,11,AX,1,100,-0.968
1572441007.141877,46985.000,7589,11,AX,1,100,-0.963
1572441007.141877,46985.000,7589,11,AX,1,100,-0.961
1572441007.141877,46985.000,7589,11,AX,1,100,-0.971
1572441007.141877,46985.000,7589,11,AX,1,100,-0.969
1572441007.141877,46985.000,7589,11,AX,1,100,-0.973
1572441007.141877,46985.000,7589,11,AX,1,100,-0.970
1572441007.141877,46985.000,7589,11,AX,1,100,-0.975
1572441007.141877,46985.000,7589,11,AX,1,100,-0.973
1572441007.141877,46985.000,7589,11,AX,1,100,-0.968
1572441007.141877,46985.000,7589,11,AX,1,100,-0.967
1572441007.158311,46997.875,7607,8,AX,1,100,-0.962
1572441007.174745,47010.750,7607,8,AX,1,100,-0.968
1572441007.191179,47023.625,7607,8,AX,1,100,-0.963
1572441007.207613,47036.500,7607,8,AX,1,100,-0.964
1572441007.224047,47049.375,7607,8,AX,1,100,-0.961
1572441007.240480,47062.250,7607,8,AX,1,100,-0.960
1572441007.256914,47075.125,7607,8,AX,1,100,-0.962
1572441007.273348,47088.000,7607,8,AX,1,100,-0.967
1572441007.290306,47101.286,7625,7,AX,1,100,-0.969
1572441007.307264,47114.571,7625,7,AX,1,100,-0.964
1572441007.324223,47127.857,7625,7,AX,1,100,-0.964
1572441007.341181,47141.143,7625,7,AX,1,100,-0.964
1572441007.358139,47154.429,7625,7,AX,1,100,-0.967
1572441007.375097,47167.714,7625,7,AX,1,100,-0.962
1572441007.392055,47181.000,7625,7,AX,1,100,-0.962
1572441007.408648,47194.000,7644,8,AX,1,100,-0.965
1572441007.425241,47207.000,7644,8,AX,1,100,-0.969
1572441007.441835,47220.000,7644,8,AX,1,100,-0.970
1572441007.458428,47233.000,7644,8,AX,1,100,-0.967
1572441007.475022,47246.000,7644,8,AX,1,100,-0.964
1572441007.491615,47259.000,7644,8,AX,1,100,-0.968
1572441007.508209,47272.000,7644,8,AX,1,100,-0.961
1572441007.524802,47285.000,7644,8,AX,1,100,-0.962
1572441007.541555,47298.125,7662,8,AX,1,100,-0.962
1572441007.558308,47311.250,7662,8,AX,1,100,-0.960
1572441007.575061,47324.375,7662,8,AX,1,100,-0.957
1572441007.591814,47337.500,7662,8,AX,1,100,-0.967
1572441007.608567,47350.625,7662,8,AX,1,100,-0.964
1572441007.625319,47363.750,7662,8,AX,1,100,-0.963
1572441007.642072,47376.875,7662,8,AX,1,100,-0.970
1572441007.658825,47390.000,7662,8,AX,1,100,-0.965
1572441007.675236,47402.857,7679,7,AX,1,100,-0.963
1572441007.691648,47415.714,7679,7,AX,1,100,-0.961
1572441007.708059,47428.571,7679,7,AX,1,100,-0.960
1572441007.724470,47441.429,7679,7,AX,1,100,-0.965
1572441007.740881,47454.286,7679,7,AX,1,100,-0.968
1572441007.757292,47467.143,7679,7,AX,1,100,-0.963
1572441007.773703,47480.000,7679,7,AX,1,100,-0.963
1572441007.790456,47493.125,7697,8,AX,1,100,-0.959
1572441007.807209,47506.250,7697,8,AX,1,100,-0.958
1572441007.823962,47519.375,7697,8,AX,1,100,-0.959
1572441007.840715,47532.500,7697,8,AX,1,100,-0.958
1572441007.857468,47545.625,7697,8,AX,1,100,-0.968
1572441007.874220,47558.750,7697,8,AX,1,100,-0.972
1572441007.890973,47571.875,7697,8,AX,1,100,-0.972
1572441007.907726,47585.000,7697,8,AX,1,100,-0.974
1572441007.924160,47597.875,7715,8,AX,1,100,-0.966
1572441007.940594,47610.750,7715,8,AX,1,100,-0.958
1572441007.957028,47623.625,7715,8,AX,1,100,-0.956
1572441007.973462,47636.500,7715,8,AX,1,100,-0.953
1572441007.989896,47649.375,7715,8,AX,1,100,-0.956
1572441008.006329,47662.250,7715,8,AX,1,100,-0.960
1572441008.022763,47675.125,7715,8,AX,1,100,-0.958
1572441008.039197,47688.000,7715,8,AX,1,100,-0.960
1572441008.055790,47701.000,7733,8,AX,1,100,-0.963
1572441008.072384,47714.000,7733,8,AX,1,100,-0.959
1572441008.088977,47727.000,7733,8,AX,1,100,-0.960
1572441008.105571,47740.000,7733,8,AX,1,100,-0.961
1572441008.122164,47753.000,7733,8,AX,1,100,-0.967
1572441008.138757,47766.000,7733,8,AX,1,100,-0.966
1572441008.155351,47779.000,7733,8,AX,1,100,-0.963
1572441008.171944,47792.000,7733,8,AX,1,100,-0.964
1572441008.188697,47805.125,7751,8,AX,1,100,-0.965
1572441008.205450,47818.250,7751,8,AX,1,100,-0.965
1572441008.222203,47831.375,7751,8,AX,1,100,-0.967
1572441008.238956,47844.500,7751,8,AX,1,100,-0.967
1572441008.255709,47857.625,7751,8,AX,1,100,-0.969
1572441008.272462,47870.750,7751,8,AX,1,100,-0.967
1572441008.289215,47883.875,7751,8,AX,1,100,-0.965
1572441008.305968,47897.000,7751,8,AX,1,100,-0.963
1572441008.322926,47910.286,7769,7,AX,1,100,-0.966
1572441008.339884,47923.571,7769,7,AX,1,100,-0.967
1572441008.356842,47936.857,7769,7,AX,1,100,-0.962
1572441008.373800,47950.143,7769,7,AX,1,100,-0.959
1572441008.390758,47963.429,7769,7,AX,1,100,-0.957
1572441008.407716,47976.714,7769,7,AX,1,100,-0.961
1572441008.424674,47990.000,7769,7,AX,1,100,-0.962
1572441008.441268,48003.000,7788,8,AX,1,100,-0.961
1572441008.457861,48016.000,7788,8,AX,1,100,-0.965
1572441008.474455,48029.000,7788,8,AX,1,100,-0.966
1572441008.491048,48042.000,7788,8,AX,1,100,-0.965
1572441008.507641,48055.000,7788,8,AX,1,100,-0.962
1572441008.524235,48068.000,7788,8,AX,1,100,-0.963
1572441008.540828,48081.000,7788,8,AX,1,100,-0.966
1572441008.557421,48094.000,7788,8,AX,1,100,-0.969
1572441008.574197,48107.143,7804,7,AX,1,100,-0.967
1572441008.590973,48120.286,7804,7,AX,1,100,-0.964
1572441008.607749,48133.429,7804,7,AX,1,100,-0.966
1572441008.624524,48146.571,7804,7,AX,1,100,-0.963
1572441008.641300,48159.714,7804,7,AX,1,100,-0.957
1572441008.658076,48172.857,7804,7,AX,1,100,-0.951
1572441008.674852,48186.000,7804,7,AX,1,100,-0.952
1572441008.691605,48199.125,7822,8,AX,1,100,-0.951
1572441008.708358,48212.250,7822,8,AX,1,100,-0.949
1572441008.725111,48225.375,7822,8,AX,1,100,-0.952
1572441008.741863,48238.500,7822,8,AX,1,100,-0.949
1572441008.758616,48251.625,7822,8,AX,1,100,-0.949
1572441008.775369,48264.750,7822,8,AX,1,100,-0.952
1572441008.792122,48277.875,7822,8,AX,1,100,-0.955
1572441008.808875,48291.000,7822,8,AX,1,100,-0.951
1572441008.825469,48304.000,7840,8,AX,1,100,-0.951
1572441008.842062,48317.000,7840,8,AX,1,100,-0.955
1572441008.858655,48330.000,7840,8,AX,1,100,-0.962
1572441008.875249,48343.000,7840,8,AX,1,100,-0.961
1572441008.891842,48356.000,7840,8,AX,1,100,-0.963
1572441008.908436,48369.000,7840,8,AX,1,100,-0.968
1572441008.925029,48382.000,7840,8,AX,1,100,-0.970
1572441008.941622,48395.000,7840,8,AX,1,100,-0.972
1572441008.958216,48408.000,7858,8,AX,1,100,-0.967
1572441008.974809,48421.000,7858,8,AX,1,100,-0.971
1572441008.991403,48434.000,7858,8,AX,1,100,-0.972
1572441009.007996,48447.000,7858,8,AX,1,100,-0.967
1572441009.024589,48460.000,7858,8,AX,1,100,-0.957
1572441009.041183,48473.000,7858,8,AX,1,100,-0.956
1572441009.057776,48486.000,7858,8,AX,1,100,-0.955
1572441009.074369,48499.000,7858,8,AX,1,100,-0.964
1572441009.090963,48512.000,7876,8,AX,1,100,-0.962
1572441009.107556,48525.000,7876,8,AX,1,100,-0.964
1572441009.124150,48538.000,7876,8,AX,1,100,-0.959
1572441009.140743,48551.000,7876,8,AX,1,100,-0.960
1572441009.157336,48564.000,7876,8,AX,1,100,-0.963
1572441009.173930,48577.000,7876,8,AX,1,100,-0.963
1572441009.190523,48590.000,7876,8,AX,1,100,-0.963
1572441009.207117,48603.000,7876,8,AX,1,100,-0.957
1572441009.224075,48616.286,7894,7,AX,1,100,-0.955
1572441009.241033,48629.571,7894,7,AX,1,100,-0.956
1572441009.257991,48642.857,7894,7,AX,1,100,-0.967
1572441009.274949,48656.143,7894,7,AX,1,100,-0.963
1572441009.291907,48669.429,7894,7,AX,1,100,-0.958
1572441009.308865,48682.714,7894,7,AX,1,100,-0.952
1572441009.325823,48696.000,7894,7,AX,1,100,-0.953
1572441009.342576,48709.125,7912,8,AX,1,100,-0.957
1572441009.359329,48722.250,7912,8,AX,1,100,-0.961
1572441009.376082,48735.375,7912,8,AX,1,100,-0.961
1572441009.392835,48748.500,7912,8,AX,1,100,-0.961
1572441009.409588,48761.625,7912,8,AX,1,100,-0.960
1572441009.426341,48774.750,7912,8,AX,1,100,-0.962
1572441009.443094,48787.875,7912,8,AX,1,100,-0.964
1572441009.459847,48801.000,7912,8,AX,1,100,-0.961
1572441009.476759,48814.250,7931,8,AX,1,100,-0.963
1572441009.493672,48827.500,7931,8,AX,1,100,-0.962
1572441009.510584,48840.750,7931,8,AX,1,100,-0.963
1572441009.527497,48854.000,7931,8,AX,1,100,-0.961
1572441009.544409,48867.250,7931,8,AX,1,100,-0.956
1572441009.561322,48880.500,7931,8,AX,1,100,-0.958
1572441009.578234,48893.750,7931,8,AX,1,100,-0.958
1572441009.595147,48907.000,7931,8,AX,1,100,-0.963
1572441009.611740,48920.000,7949,7,AX,1,100,-0.963
1572441009.628334,48933.000,7949,7,AX,1,100,-0.964
1572441009.644927,48946.000,7949,7,AX,1,100,-0.950
1572441009.661520,48959.000,7949,7,AX,1,100,-0.960
1572441009.678114,48972.000,7949,7,AX,1,100,-0.954
1572441009.694707,48985.000,7949,7,AX,1,100,-0.949
1572441009.711300,48998.000,7949,7,AX,1,100,-0.950
1572441009.727894,49011.000,7967,8,AX,1,100,-0.953
1572441009.744487,49024.000,7967,8,AX,1,100,-0.956
1572441009.761081,49037.000,7967,8,AX,1,100,-0.956
1572441009.777674,49050.000,7967,8,AX,1,100,-0.954
1572441009.794267,49063.000,7967,8,AX,1,100,-0.953
1572441009.810861,49076.000,7967,8,AX,1,100,-0.958
1572441009.827454,49089.000,7967,8,AX,1,100,-0.952
1572441009.844048,49102.000,7967,8,AX,1,100,-0.959
1572441009.860641,49115.000,7985,8,AX,1,100,-0.955
1572441009.877234,49128.000,7985,8,AX,1,100,-0.958
1572441009.893828,49141.000,7985,8,AX,1,100,-0.956
1572441009.910421,49154.000,7985,8,AX,1,100,-0.960
1572441009.927015,49167.000,7985,8,AX,1,100,-0.972
1572441009.943608,49180.000,7985,8,AX,1,100,-0.976
1572441009.960201,49193.000,7985,8,AX,1,100,-0.983
1572441009.976795,49206.000,7985,8,AX,1,100,-0.985
1572441009.993388,49219.000,8003,8,AX,1,100,-0.983
1572441010.009982,49232.000,8003,8,AX,1,100,-0.985
1572441010.026575,49245.000,8003,8,AX,1,100,-0.975
1572441010.043168,49258.000,8003,8,AX,1,100,-0.970
1572441010.059762,49271.000,8003,8,AX,1,100,-0.963
1572441010.076355,49284.000,8003,8,AX,1,100,-0.951
1572441010.092948,49297.000,8003,8,AX,1,100,-0.944
1572441010.109542,49310.000,8003,8,AX,1,100,-0.940
1572441010.125816,49322.750,8021,8,AX,1,100,-0.934
1572441010.142091,49335.500,8021,8,AX,1,100,-0.931
1572441010.158365,49348.250,8021,8,AX,1,100,-0.933
1572441010.174639,49361.000,8021,8,AX,1,100,-0.932
1572441010.190913,49373.750,8021,8,AX,1,100,-0.933
1572441010.207188,49386.500,8021,8,AX,1,100,-0.935
1572441010.223462,49399.250,8021,8,AX,1,100,-0.938
1572441010.239736,49412.000,8021,8,AX,1,100,-0.939
1572441010.256877,49425.429,8039,7,AX,1,100,-0.938
1572441010.274017,49438.857,8039,7,AX,1,100,-0.941
1572441010.291157,49452.286,8039,7,AX,1,100,-0.938
1572441010.308298,49465.714,8039,7,AX,1,100,-0.939
1572441010.325438,49479.143,8039,7,AX,1,100,-0.944
1572441010.342579,49492.571,8039,7,AX,1,100,-0.948
1572441010.359719,49506.000,8039,7,AX,1,100,-0.959
1572441010.376312,49519.000,8057,8,AX,1,100,-0.966
1572441010.392906,49532.000,8057,8,AX,1,100,-0.976
1572441010.409499,49545.000,8057,8,AX,1,100,-0.972
1572441010.426093,49558.000,8057,8,AX,1,100,-0.972
1572441010.442686,49571.000,8057,8,AX,1,100,-0.969
1572441010.459280,49584.000,8057,8,AX,1,100,-0.973
1572441010.475873,49597.000,8057,8,AX,1,100,-0.974
1572441010.492466,49610.000,8057,8,AX,1,100,-0.961
1572441010.509219,49623.125,8076,8,AX,1,100,-0.963
1572441010.525972,49636.250,8076,8,AX,1,100,-0.960
1572441010.542725,49649.375,8076,8,AX,1,100,-0.955
1572441010.559478,49662.500,8076,8,AX,1,100,-0.944
1572441010.576231,49675.625,8076,8,AX,1,100,-0.941
1572441010.592984,49688.750,8076,8,AX,1,100,-0.939
1572441010.609737,49701.875,8076,8,AX,1,100,-0.939
1572441010.626490,49715.000,8076,8,AX,1,100,-0.940
1572441010.643083,49728.000,8094,7,AX,1,100,-0.949
1572441010.659677,49741.000,8094,7,AX,1,100,-0.947
1572441010.676270,49754.000,8094,7,AX,1,100,-0.939
1572441010.692863,49767.000,8094,7,AX,1,100,-0.934
1572441010.709457,49780.000,8094,7,AX,1,100,-0.932
1572441010.726050,49793.000,8094,7,AX,1,100,-0.927
1572441010.742644,49806.000,8094,7,AX,1,100,-0.919
1572441010.759237,49819.000,8112,8,AX,1,100,-0.928
1572441010.775831,49832.000,8112,8,AX,1,100,-0.936
1572441010.792424,49845.000,8112,8,AX,1,100,-0.929
1572441010.809017,49858.000,8112,8,AX,1,100,-0.920
1572441010.825611,49871.000,8112,8,AX,1,100,-0.915
1572441010.842204,49884.000,8112,8,AX,1,100,-0.908
1572441010.858797,49897.000,8112,8,AX,1,100,-0.916
1572441010.875391,49910.000,8112,8,AX,1,100,-0.942
1572441010.891665,49922.750,8130,8,AX,1,100,-0.938
1572441010.907939,49935.500,8130,8,AX,1,100,-0.937
1572441010.924214,49948.250,8130,8,AX,1,100,-0.925
1572441010.940488,49961.000,8130,8,AX,1,100,-0.928
1572441010.956762,49973.750,8130,8,AX,1,100,-0.914
1572441010.973037,49986.500,8130,8,AX,1,100,-0.918
1572441010.989311,49999.250,8130,8,AX,1,100,-0.938
1572441011.005585,50012.000,8130,8,AX,1,100,-0.922
1572441011.022178,50025.000,8148,8,AX,1,100,-0.919
1572441011.038772,50038.000,8148,8,AX,1,100,-0.913
1572441011.055365,50051.000,8148,8,AX,1,100,-0.902
1572441011.071959,50064.000,8148,8,AX,1,100,-0.913
1572441011.088552,50077.000,8148,8,AX,1,100,-0.910
1572441011.105145,50090.000,8148,8,AX,1,100,-0.897
1572441011.121739,50103.000,8148,8,AX,1,100,-0.902
1572441011.138332,50116.000,8148,8,AX,1,100,-0.898
1572441011.154926,50129.000,8166,8,AX,1,100,-0.903
1572441011.171519,50142.000,8166,8,AX,1,100,-0.913
1572441011.188112,50155.000,8166,8,AX,1,100,-0.912
1572441011.204706,50168.000,8166,8,AX,1,100,-0.893
1572441011.221299,50181.000,8166,8,AX,1,100,-0.930
1572441011.237893,50194.000,8166,8,AX,1,100,-0.919
1572441011.254486,50207.000,8166,8,AX,1,100,-0.937
1572441011.271079,50220.000,8166,8,AX,1,100,-0.946
1572441011.287513,50232.875,8184,8,AX,1,100,-0.954
1572441011.303947,50245.750,8184,8,AX,1,100,-0.957
1572441011.320381,50258.625,8184,8,AX,1,100,-0.959
1572441011.336815,50271.500,8184,8,AX,1,100,-0.959
1572441011.353249,50284.375,8184,8,AX,1,100,-0.973
1572441011.369682,50297.250,8184,8,AX,1,100,-0.973
1572441011.386116,50310.125,8184,8,AX,1,100,-0.983
1572441011.402550,50323.000,8184,8,AX,1,100,-0.990
1572441011.419326,50336.143,8203,7,AX,1,100,-0.979
1572441011.436102,50349.286,8203,7,AX,1,100,-1.001
1572441011.452877,50362.429,8203,7,AX,1,100,-0.962
1572441011.469653,50375.571,8203,7,AX,1,100,-0.966
1572441011.486429,50388.714,8203,7,AX,1,100,-0.942
1572441011.503205,50401.857,8203,7,AX,1,100,-0.909
1572441011.519980,50415.000,8203,7,AX,1,100,-0.890
1572441011.536893,50428.250,8221,8,AX,1,100,-0.866
1572441011.553805,50441.500,8221,8,AX,1,100,-0.804
1572441011.570718,50454.750,8221,8,AX,1,100,-0.746
1572441011.587630,50468.000,8221,8,AX,1,100,-0.650
1572441011.604543,50481.250,8221,8,AX,1,100,-0.609
1572441011.621455,50494.500,8221,8,AX,1,100,-0.629
1572441011.638368,50507.750,8221,8,AX,1,100,-0.574
1572441011.655280,50521.000,8221,8,AX,1,100,-0.804
1572441011.671874,50534.000,8238,7,AX,1,100,-2.531
1572441011.688467,50547.000,8238,7,AX,1,100,-0.692
1572441011.705060,50560.000,8238,7,AX,1,100,-0.189
1572441011.721654,50573.000,8238,7,AX,1,100,-0.734
1572441011.738247,50586.000,8238,7,AX,1,100,-0.752
1572441011.754841,50599.000,8238,7,AX,1,100,-1.150
1572441011.771434,50612.000,8238,7,AX,1,100,-1.308
1572441011.788187,50625.125,8256,8,AX,1,100,-1.246
1572441011.804940,50638.250,8256,8,AX,1,100,-1.096
1572441011.821693,50651.375,8256,8,AX,1,100,-0.813
1572441011.838446,50664.500,8256,8,AX,1,100,-0.758
1572441011.855199,50677.625,8256,8,AX,1,100,-0.638
1572441011.871952,50690.750,8256,8,AX,1,100,-0.702
1572441011.888705,50703.875,8256,8,AX,1,100,-0.699
1572441011.905457,50717.000,8256,8,AX,1,100,-0.612
1572441011.922051,50730.000,8274,8,AX,1,100,-0.513
1572441011.938644,50743.000,8274,8,AX,1,100,-0.544
1572441011.955238,50756.000,8274,8,AX,1,100,-1.124
1572441011.971831,50769.000,8274,8,AX,1,100,-2.427
1572441011.988425,50782.000,8274,8,AX,1,100,-1.305
1572441012.005018,50795.000,8274,8,AX,1,100,-0.678
1572441012.021611,50808.000,8274,8,AX,1,100,-0.775
1572441012.038205,50821.000,8274,8,AX,1,100,-0.602
1572441012.054798,50834.000,8293,8,AX,1,100,-1.116
1572441012.071391,50847.000,8293,8,AX,1,100,-1.153
1572441012.087985,50860.000,8293,8,AX,1,100,-1.037
1572441012.104578,50873.000,8293,8,AX,1,100,-0.930
1572441012.121172,50886.000,8293,8,AX,1,100,-0.755
1572441012.137765,50899.000,8293,8,AX,1,100,-0.807
1572441012.154358,50912.000,8293,8,AX,1,100,-0.753
1572441012.170952,50925.000,8293,8,AX,1,100,-0.760
1572441012.187545,50938.000,8311,8,AX,1,100,-0.602
1572441012.204139,50951.000,8311,8,AX,1,100,-0.484
1572441012.220732,50964.000,8311,8,AX,1,100,-0.518
1572441012.237325,50977.000,8311,8,AX,1,100,-0.568
1572441012.253919,50990.000,8311,8,AX,1,100,-1.228
1572441012.270512,51003.000,8311,8,AX,1,100,-2.454
1572441012.287106,51016.000,8311,8,AX,1,100,-1.587
1572441012.303699,51029.000,8311,8,AX,1,100,-0.601
1572441012.320657,51042.286,8329,7,AX,1,100,-0.529
1572441012.337615,51055.571,8329,7,AX,1,100,-0.683
1572441012.354573,51068.857,8329,7,AX,1,100,-1.243
1572441012.371531,51082.143,8329,7,AX,1,100,-1.343
1572441012.388489,51095.429,8329,7,AX,1,100,-1.100
1572441012.405447,51108.714,8329,7,AX,1,100,-0.790
1572441012.422405,51122.000,8329,7,AX,1,100,-0.654
1572441012.438999,51135.000,8348,8,AX,1,100,-0.645
1572441012.455592,51148.000,8348,8,AX,1,100,-0.646
1572441012.472186,51161.000,8348,8,AX,1,100,-0.667
1572441012.488779,51174.000,8348,8,AX,1,100,-0.584
1572441012.505373,51187.000,8348,8,AX,1,100,-0.514
1572441012.521966,51200.000,8348,8,AX,1,100,-0.441
1572441012.538559,51213.000,8348,8,AX,1,100,-0.313
1572441012.555153,51226.000,8348,8,AX,1,100,-0.454
1572441012.571906,51239.125,8366,8,AX,1,100,-0.500
1572441012.588659,51252.250,8366,8,AX,1,100,-0.607
1572441012.605412,51265.375,8366,8,AX,1,100,-0.622
1572441012.622164,51278.500,8366,8,AX,1,100,-0.594
1572441012.638917,51291.625,8366,8,AX,1,100,-0.606
1572441012.655670,51304.750,8366,8,AX,1,100,-0.712
1572441012.672423,51317.875,8366,8,AX,1,100,-0.840
1572441012.689176,51331.000,8366,8,AX,1,100,-0.932
1572441012.705952,51344.143,8382,7,AX,1,100,-0.933
1572441012.722728,51357.286,8382,7,AX,1,100,-0.921
1572441012.739503,51370.429,8382,7,AX,1,100,-0.836
1572441012.756279,51383.571,8382,7,AX,1,100,-0.844
1572441012.773055,51396.714,8382,7,AX,1,100,-0.840
1572441012.789831,51409.857,8382,7,AX,1,100,-0.833
1572441012.806606,51423.000,8382,7,AX,1,100,-0.843
1572441012.823359,51436.125,8400,8,AX,1,100,-0.851
1572441012.840112,51449.250,8400,8,AX,1,100,-0.866
1572441012.856865,51462.375,8400,8,AX,1,100,-0.875
1572441012.873618,51475.500,8400,8,AX,1,100,-0.847
1572441012.890371,51488.625,8400,8,AX,1,100,-0.883
1572441012.907124,51501.750,8400,8,AX,1,100,-0.893
1572441012.923877,51514.875,8400,8,AX,1,100,-0.938
1572441012.940630,51528.000,8400,8,AX,1,100,-0.941
1572441012.957223,51541.000,8418,8,AX,1,100,-0.951
1572441012.973817,51554.000,8418,8,AX,1,100,-0.954
1572441012.990410,51567.000,8418,8,AX,1,100,-0.971
1572441013.007004,51580.000,8418,8,AX,1,100,-1.004
1572441013.023597,51593.000,8418,8,AX,1,100,-1.053
1572441013.040190,51606.000,8418,8,AX,1,100,-1.052
1572441013.056784,51619.000,8418,8,AX,1,100,-1.035
1572441013.073377,51632.000,8418,8,AX,1,100,-0.996
1572441013.089811,51644.875,8436,8,AX,1,100,-0.916
1572441013.106245,51657.750,8436,8,AX,1,100,-0.850
1572441013.122679,51670.625,8436,8,AX,1,100,-0.797
1572441013.139112,51683.500,8436,8,AX,1,100,-0.763
1572441013.155546,51696.375,8436,8,AX,1,100,-0.725
1572441013.171980,51709.250,8436,8,AX,1,100,-0.706
1572441013.188414,51722.125,8436,8,AX,1,100,-0.692
1572441013.204848,51735.000,8436,8,AX,1,100,-0.658
1572441013.221623,51748.143,8454,7,AX,1,100,-0.698
1572441013.238399,51761.286,8454,7,AX,1,100,-0.710
1572441013.255175,51774.429,8454,7,AX,1,100,-0.833
1572441013.271951,51787.571,8454,7,AX,1,100,-0.854
1572441013.288727,51800.714,8454,7,AX,1,100,-0.977
1572441013.305502,51813.857,8454,7,AX,1,100,-1.123
1572441013.322278,51827.000,8454,7,AX,1,100,-1.042
1572441013.338871,51840.000,8472,8,AX,1,100,-0.849
1572441013.355465,51853.000,8472,8,AX,1,100,-0.868
1572441013.372058,51866.000,8472,8,AX,1,100,-0.865
1572441013.388652,51879.000,8472,8,AX,1,100,-0.875
1572441013.405245,51892.000,8472,8,AX,1,100,-0.893
1572441013.421838,51905.000,8472,8,AX,1,100,-0.957
1572441013.438432,51918.000,8472,8,AX,1,100,-0.916
1572441013.455025,51931.000,8472,8,AX,1,100,-0.909
1572441013.471710,51944.071,8494,14,AX,1,100,-0.901
1572441013.488394,51957.143,8494,14,AX,1,100,-0.914
1572441013.505079,51970.214,8494,14,AX,1,100,-0.892
1572441013.521763,51983.286,8494,14,AX,1,100,-0.887
1572441013.538448,51996.357,8494,14,AX,1,100,-0.952
1572441013.555132,52009.429,8494,14,AX,1,100,-0.930
1572441013.571817,52022.500,8494,14,AX,1,100,-1.023
1572441013.588502,52035.571,8494,14,AX,1,100,-0.995
1572441013.605186,52048.643,8494,14,AX,1,100,-1.021
1572441013.621871,52061.714,8494,14,AX,1,100,-1.022
1572441013.638555,52074.786,8494,14,AX,1,100,-0.999
1572441013.655240,52087.857,8494,14,AX,1,100,-1.011
1572441013.671924,52100.929,8494,14,AX,1,100,-1.018
1572441013.688609,52114.000,8494,14,AX,1,100,-1.008
1572441013.705202,52127.000,8514,7,AX,1,100,-1.028
1572441013.721796,52140.000,8514,7,AX,1,100,-0.991
1572441013.738389,52153.000,8514,7,AX,1,100,-0.986
1572441013.754982,52166.000,8514,7,AX,1,100,-0.966
1572441013.771576,52179.000,8514,7,AX,1,100,-0.949
1572441013.788169,52192.000,8514,7,AX,1,100,-0.941
1572441013.804763,52205.000,8514,7,AX,1,100,-0.933
1572441013.821516,52218.125,8532,8,AX,1,100,-0.951
1572441013.838269,52231.250,8532,8,AX,1,100,-0.932
1572441013.855021,52244.375,8532,8,AX,1,100,-0.974
1572441013.871774,52257.500,8532,8,AX,1,100,-0.975
1572441013.888527,52270.625,8532,8,AX,1,100,-0.974
1572441013.905280,52283.750,8532,8,AX,1,100,-0.960
1572441013.922033,52296.875,8532,8,AX,1,100,-0.958
1572441013.938786,52310.000,8532,8,AX,1,100,-0.961
1572441013.955380,52323.000,8550,7,AX,1,100,-0.948
1572441013.971973,52336.000,8550,7,AX,1,100,-0.937
1572441013.988566,52349.000,8550,7,AX,1,100,-0.940
1572441014.005160,52362.000,8550,7,AX,1,100,-0.952
1572441014.021753,52375.000,8550,7,AX,1,100,-0.941
1572441014.038347,52388.000,8550,7,AX,1,100,-0.947
1572441014.054940,52401.000,8550,7,AX,1,100,-0.963
1572441014.071533,52414.000,8568,8,AX,1,100,-0.956
1572441014.088127,52427.000,8568,8,AX,1,100,-0.937
1572441014.104720,52440.000,8568,8,AX,1,100,-0.944
1572441014.121314,52453.000,8568,8,AX,1,100,-0.939
1572441014.137907,52466.000,8568,8,AX,1,100,-0.947
1572441014.154500,52479.000,8568,8,AX,1,100,-0.936
1572441014.171094,52492.000,8568,8,AX,1,100,-0.938
1572441014.187687,52505.000,8568,8,AX,1,100,-0.944
1572441014.203961,52517.750,8586,8,AX,1,100,-0.960
1572441014.220236,52530.500,8586,8,AX,1,100,-0.960
1572441014.236510,52543.250,8586,8,AX,1,100,-0.953
1572441014.252784,52556.000,8586,8,AX,1,100,-0.941
1572441014.269059,52568.750,8586,8,AX,1,100,-0.935
1572441014.285333,52581.500,8586,8,AX,1,100,-0.921
1572441014.301607,52594.250,8586,8,AX,1,100,-0.901
1572441014.317882,52607.000,8586,8,AX,1,100,-0.885
1572441014.334475,52620.000,8604,8,AX,1,100,-0.884
1572441014.351068,52633.000,8604,8,AX,1,100,-0.880
1572441014.367662,52646.000,8604,8,AX,1,100,-0.886
1572441014.384255,52659.000,8604,8,AX,1,100,-0.879
1572441014.400848,52672.000,8604,8,AX,1,100,-0.917
1572441014.417442,52685.000,8604,8,AX,1,100,-0.932
1572441014.434035,52698.000,8604,8,AX,1,100,-0.935
1572441014.450629,52711.000,8604,8,AX,1,100,-0.973
1572441014.467381,52724.125,8623,8,AX,1,100,-0.902
1572441014.484134,52737.250,8623,8,AX,1,100,-0.909
1572441014.500887,52750.375,8623,8,AX,1,100,-0.931
1572441014.517640,52763.500,8623,8,AX,1,100,-0.913
1572441014.534393,52776.625,8623,8,AX,1,100,-0.873
1572441014.551146,52789.750,8623,8,AX,1,100,-0.889
1572441014.567899,52802.875,8623,8,AX,1,100,-0.914
1572441014.584652,52816.000,8623,8,AX,1,100,-0.948
1572441014.601246,52829.000,8640,7,AX,1,100,-0.954
1572441014.617839,52842.000,8640,7,AX,1,100,-0.960
1572441014.634432,52855.000,8640,7,AX,1,100,-0.961
1572441014.651026,52868.000,8640,7,AX,1,100,-0.970
1572441014.667619,52881.000,8640,7,AX,1,100,-0.955
1572441014.684212,52894.000,8640,7,AX,1,100,-0.928
1572441014.700806,52907.000,8640,7,AX,1,100,-0.919
1572441014.717559,52920.125,8658,8,AX,1,100,-0.917
1572441014.734312,52933.250,8658,8,AX,1,100,-0.903
1572441014.751065,52946.375,8658,8,AX,1,100,-0.895
1572441014.767818,52959.500,8658,8,AX,1,100,-0.891
1572441014.784571,52972.625,8658,8,AX,1,100,-0.896
1572441014.801324,52985.750,8658,8,AX,1,100,-0.899
1572441014.818077,52998.875,8658,8,AX,1,100,-0.910
1572441014.834830,53012.000,8658,8,AX,1,100,-0.918
1572441014.851583,53025.125,8676,8,AX,1,100,-0.920
1572441014.868335,53038.250,8676,8,AX,1,100,-0.918
1572441014.885088,53051.375,8676,8,AX,1,100,-0.913
1572441014.901841,53064.500,8676,8,AX,1,100,-0.910
1572441014.918594,53077.625,8676,8,AX,1,100,-0.896
1572441014.935347,53090.750,8676,8,AX,1,100,-0.889
1572441014.952100,53103.875,8676,8,AX,1,100,-0.880
1572441014.968853,53117.000,8676,8,AX,1,100,-0.867
1572441014.985606,53130.125,8694,8,AX,1,100,-0.813
1572441015.002359,53143.250,8694,8,AX,1,100,-0.760
1572441015.019112,53156.375,8694,8,AX,1,100,-0.675
1572441015.035865,53169.500,8694,8,AX,1,100,-0.794
1572441015.052618,53182.625,8694,8,AX,1,100,-1.631
1572441015.069371,53195.750,8694,8,AX,1,100,-1.176
1572441015.086124,53208.875,8694,8,AX,1,100,-0.818
1572441015.102877,53222.000,8694,8,AX,1,100,-0.803
1572441015.119835,53235.286,8712,7,AX,1,100,-0.767
1572441015.136793,53248.571,8712,7,AX,1,100,-0.880
1572441015.153751,53261.857,8712,7,AX,1,100,-0.914
1572441015.170709,53275.143,8712,7,AX,1,100,-0.896
1572441015.187667,53288.429,8712,7,AX,1,100,-0.953
1572441015.204625,53301.714,8712,7,AX,1,100,-0.931
1572441015.221583,53315.000,8712,7,AX,1,100,-0.891
1572441015.237857,53327.750,8730,8,AX,1,100,-0.951
1572441015.254132,53340.500,8730,8,AX,1,100,-0.941
1572441015.270406,53353.250,8730,8,AX,1,100,-0.896
1572441015.286680,53366.000,8730,8,AX,1,100,-0.922
1572441015.302955,53378.750,8730,8,AX,1,100,-0.900
1572441015.319229,53391.500,8730,8,AX,1,100,-0.876
1572441015.335503,53404.250,8730,8,AX,1,100,-0.889
1572441015.351778,53417.000,8730,8,AX,1,100,-0.827
1572441015.368531,53430.125,8748,8,AX,1,100,-0.802
1572441015.385283,53443.250,8748,8,AX,1,100,-0.834
1572441015.402036,53456.375,8748,8,AX,1,100,-0.826
1572441015.418789,53469.500,8748,8,AX,1,100,-0.854
1572441015.435542,53482.625,8748,8,AX,1,100,-0.790
1572441015.452295,53495.750,8748,8,AX,1,100,-0.774
1572441015.469048,53508.875,8748,8,AX,1,100,-0.863
1572441015.485801,53522.000,8748,8,AX,1,100,-0.891
1572441015.502212,53534.857,8765,7,AX,1,100,-0.870
1572441015.518623,53547.714,8765,7,AX,1,100,-0.894
1572441015.535034,53560.571,8765,7,AX,1,100,-0.880
1572441015.551445,53573.429,8765,7,AX,1,100,-0.875
1572441015.567856,53586.286,8765,7,AX,1,100,-0.888
1572441015.584267,53599.143,8765,7,AX,1,100,-0.878
1572441015.600678,53612.000,8765,7,AX,1,100,-0.916
1572441015.617591,53625.250,8783,8,AX,1,100,-0.917
1572441015.634503,53638.500,8783,8,AX,1,100,-0.871
1572441015.651416,53651.750,8783,8,AX,1,100,-0.856
1572441015.668328,53665.000,8783,8,AX,1,100,-0.817
1572441015.685241,53678.250,8783,8,AX,1,100,-0.847
1572441015.702153,53691.500,8783,8,AX,1,100,-0.862
1572441015.719066,53704.750,8783,8,AX,1,100,-0.858
1572441015.735978,53718.000,8783,8,AX,1,100,-0.847
1572441015.752731,53731.125,8801,8,AX,1,100,-0.844
1572441015.769484,53744.250,8801,8,AX,1,100,-0.805
1572441015.786237,53757.375,8801,8,AX,1,100,-0.855
1572441015.802990,53770.500,8801,8,AX,1,100,-0.829
1572441015.819743,53783.625,8801,8,AX,1,100,-0.799
1572441015.836496,53796.750,8801,8,AX,1,100,-0.808
1572441015.853249,53809.875,8801,8,AX,1,100,-0.814
1572441015.870002,53823.000,8801,8,AX,1,100,-0.837
1572441015.886755,53836.125,8819,8,AX,1,100,-0.836
1572441015.903508,53849.250,8819,8,AX,1,100,-0.830
1572441015.920261,53862.375,8819,8,AX,1,100,-0.848
1572441015.937014,53875.500,8819,8,AX,1,100,-0.843
1572441015.953767,53888.625,8819,8,AX,1,100,-0.850
1572441015.970520,53901.750,8819,8,AX,1,100,-0.843
1572441015.987273,53914.875,8819,8,AX,1,100,-0.821
1572441016.004025,53928.000,8819,8,AX,1,100,-0.840
1572441016.020983,53941.286,8837,7,AX,1,100,-0.845
1572441016.037942,53954.571,8837,7,AX,1,100,-0.829
1572441016.054900,53967.857,8837,7,AX,1,100,-0.796
1572441016.071858,53981.143,8837,7,AX,1,100,-0.826
1572441016.088816,53994.429,8837,7,AX,1,100,-0.852
1572441016.105774,54007.714,8837,7,AX,1,100,-0.837
1572441016.122732,54021.000,8837,7,AX,1,100,-0.826
1572441016.139325,54034.000,8855,8,AX,1,100,-0.805
1572441016.155919,54047.000,8855,8,AX,1,100,-0.814
1572441016.172512,54060.000,8855,8,AX,1,100,-0.826
1572441016.189106,54073.000,8855,8,AX,1,100,-0.828
1572441016.205699,54086.000,8855,8,AX,1,100,-0.821
1572441016.222292,54099.000,8855,8,AX,1,100,-0.778
1572441016.238886,54112.000,8855,8,AX,1,100,-0.792
1572441016.255479,54125.000,8855,8,AX,1,100,-0.802
1572441016.272073,54138.000,8873,8,AX,1,100,-0.804
1572441016.288666,54151.000,8873,8,AX,1,100,-0.797
1572441016.305259,54164.000,8873,8,AX,1,100,-0.797
1572441016.321853,54177.000,8873,8,AX,1,100,-0.799
1572441016.338446,54190.000,8873,8,AX,1,100,-0.789
1572441016.355040,54203.000,8873,8,AX,1,100,-0.788
1572441016.371633,54216.000,8873,8,AX,1,100,-0.762
1572441016.388226,54229.000,8873,8,AX,1,100,-0.780
1572441016.404820,54242.000,8891,8,AX,1,100,-0.798
1572441016.421413,54255.000,8891,8,AX,1,100,-0.796
1572441016.438006,54268.000,8891,8,AX,1,100,-0.772
1572441016.454600,54281.000,8891,8,AX,1,100,-0.763
1572441016.471193,54294.000,8891,8,AX,1,100,-0.755
1572441016.487787,54307.000,8891,8,AX,1,100,-0.768
1572441016.504380,54320.000,8891,8,AX,1,100,-0.764
1572441016.520973,54333.000,8891,8,AX,1,100,-0.757
1572441016.537202,54345.714,8910,7,AX,1,100,-0.766
1572441016.553431,54358.429,8910,7,AX,1,100,-0.768
1572441016.569659,54371.143,8910,7,AX,1,100,-0.761
1572441016.585888,54383.857,8910,7,AX,1,100,-0.760
1572441016.602117,54396.571,8910,7,AX,1,100,-0.763
1572441016.618346,54409.286,8910,7,AX,1,100,-0.766
1572441016.634574,54422.000,8910,7,AX,1,100,-0.771
1572441016.651487,54435.250,8928,8,AX,1,100,-0.765
1572441016.668399,54448.500,8928,8,AX,1,100,-0.770
1572441016.685312,54461.750,8928,8,AX,1,100,-0.769
1572441016.702224,54475.000,8928,8,AX,1,100,-0.757
1572441016.719137,54488.250,8928,8,AX,1,100,-0.749
1572441016.736049,54501.500,8928,8,AX,1,100,-0.753
1572441016.752962,54514.750,8928,8,AX,1,100,-0.750
1572441016.769874,54528.000,8928,8,AX,1,100,-0.746
1572441016.786627,54541.125,8946,8,AX,1,100,-0.746
1572441016.803380,54554.250,8946,8,AX,1,100,-0.738
1572441016.820133,54567.375,8946,8,AX,1,100,-0.730
1572441016.836886,54580.500,8946,8,AX,1,100,-0.726
1572441016.853639,54593.625,8946,8,AX,1,100,-0.718
1572441016.870392,54606.750,8946,8,AX,1,100,-0.723
1572441016.887145,54619.875,8946,8,AX,1,100,-0.727
1572441016.903898,54633.000,8946,8,AX,1,100,-0.723
1572441016.920491,54646.000,8964,8,AX,1,100,-0.720
1572441016.937085,54659.000,8964,8,AX,1,100,-0.727
1572441016.953678,54672.000,8964,8,AX,1,100,-0.689
1572441016.970271,54685.000,8964,8,AX,1,100,-0.685
1572441016.986865,54698.000,8964,8,AX,1,100,-0.713
1572441017.003458,54711.000,8964,8,AX,1,100,-0.710
1572441017.020052,54724.000,8964,8,AX,1,100,-0.706
1572441017.036645,54737.000,8964,8,AX,1,100,-0.683
1572441017.053421,54750.143,8982,7,AX,1,100,-0.680
1572441017.070196,54763.286,8982,7,AX,1,100,-0.664
1572441017.086972,54776.429,8982,7,AX,1,100,-0.695
1572441017.103748,54789.571,8982,7,AX,1,100,-0.691
1572441017.120524,54802.714,8982,7,AX,1,100,-0.677
1572441017.137300,54815.857,8982,7,AX,1,100,-0.674
1572441017.154075,54829.000,8982,7,AX,1,100,-0.716
1572441017.170669,54842.000,9000,8,AX,1,100,-0.727
1572441017.187262,54855.000,9000,8,AX,1,100,-0.696
1572441017.203855,54868.000,9000,8,AX,1,100,-0.699
1572441017.220449,54881.000,9000,8,AX,1,100,-0.701
1572441017.237042,54894.000,9000,8,AX,1,100,-0.726
1572441017.253636,54907.000,9000,8,AX,1,100,-0.716
1572441017.270229,54920.000,9000,8,AX,1,100,-0.722
1572441017.286822,54933.000,9000,8,AX,1,100,-0.727
1572441017.303256,54945.875,9018,8,AX,1,100,-0.737
1572441017.319690,54958.750,9018,8,AX,1,100,-0.745
1572441017.336124,54971.625,9018,8,AX,1,100,-0.738
1572441017.352558,54984.500,9018,8,AX,1,100,-0.736
1572441017.368992,54997.375,9018,8,AX,1,100,-0.740
1572441017.385425,55010.250,9018,8,AX,1,100,-0.734
1572441017.401859,55023.125,9018,8,AX,1,100,-0.738
1572441017.418293,55036.000,9018,8,AX,1,100,-0.739
1572441017.434727,55048.875,9036,8,AX,1,100,-0.731
1572441017.451161,55061.750,9036,8,AX,1,100,-0.753
1572441017.467595,55074.625,9036,8,AX,1,100,-0.759
1572441017.484028,55087.500,9036,8,AX,1,100,-0.749
1572441017.500462,55100.375,9036,8,AX,1,100,-0.740
1572441017.516896,55113.250,9036,8,AX,1,100,-0.697
1572441017.533330,55126.125,9036,8,AX,1,100,-0.706
1572441017.549764,55139.000,9036,8,AX,1,100,-0.715
1572441017.566722,55152.286,9055,7,AX,1,100,-0.719
1572441017.583680,55165.571,9055,7,AX,1,100,-0.712
1572441017.600638,55178.857,9055,7,AX,1,100,-0.701
1572441017.617596,55192.143,9055,7,AX,1,100,-0.690
1572441017.634554,55205.429,9055,7,AX,1,100,-0.693
1572441017.651512,55218.714,9055,7,AX,1,100,-0.711
1572441017.668470,55232.000,9055,7,AX,1,100,-0.706
1572441017.685223,55245.125,9073,8,AX,1,100,-0.706
1572441017.701976,55258.250,9073,8,AX,1,100,-0.708
1572441017.718729,55271.375,9073,8,AX,1,100,-0.709
1572441017.735482,55284.500,9073,8,AX,1,100,-0.717
1572441017.752235,55297.625,9073,8,AX,1,100,-0.721
1572441017.768988,55310.750,9073,8,AX,1,100,-0.720
1572441017.785741,55323.875,9073,8,AX,1,100,-0.715
1572441017.802494,55337.000,9073,8,AX,1,100,-0.718
1572441017.819247,55350.125,9091,8,AX,1,100,-0.707
1572441017.836000,55363.250,9091,8,AX,1,100,-0.709
1572441017.852753,55376.375,9091,8,AX,1,100,-0.707
1572441017.869506,55389.500,9091,8,AX,1,100,-0.703
1572441017.886259,55402.625,9091,8,AX,1,100,-0.692
1572441017.903012,55415.750,9091,8,AX,1,100,-0.696
1572441017.919765,55428.875,9091,8,AX,1,100,-0.696
1572441017.936517,55442.000,9091,8,AX,1,100,-0.700
1572441017.953475,55455.286,9109,7,AX,1,100,-0.698
1572441017.970434,55468.571,9109,7,AX,1,100,-0.707
1572441017.987392,55481.857,9109,7,AX,1,100,-0.719
1572441018.004350,55495.143,9109,7,AX,1,100,-0.729
1572441018.021308,55508.429,9109,7,AX,1,100,-0.732
1572441018.038266,55521.714,9109,7,AX,1,100,-0.747
1572441018.055224,55535.000,9109,7,AX,1,100,-0.745
1572441018.071977,55548.125,9127,8,AX,1,100,-0.743
1572441018.088730,55561.250,9127,8,AX,1,100,-0.744
1572441018.105483,55574.375,9127,8,AX,1,100,-0.742
1572441018.122236,55587.500,9127,8,AX,1,100,-0.733
1572441018.138989,55600.625,9127,8,AX,1,100,-0.722
1572441018.155742,55613.750,9127,8,AX,1,100,-0.715
1572441018.172495,55626.875,9127,8,AX,1,100,-0.711
1572441018.189248,55640.000,9127,8,AX,1,100,-0.674
1572441018.205681,55652.875,9145,8,AX,1,100,-0.666
1572441018.222115,55665.750,9145,8,AX,1,100,-0.662
1572441018.238549,55678.625,9145,8,AX,1,100,-0.673
1572441018.254983,55691.500,9145,8,AX,1,100,-0.680
1572441018.271417,55704.375,9145,8,AX,1,100,-0.695
1572441018.287851,55717.250,9145,8,AX,1,100,-0.702
1572441018.304285,55730.125,9145,8,AX,1,100,-0.727
1572441018.320718,55743.000,9145,8,AX,1,100,-0.748
1572441018.337312,55756.000,9162,7,AX,1,100,-0.760
1572441018.353905,55769.000,9162,7,AX,1,100,-0.755
1572441018.370498,55782.000,9162,7,AX,1,100,-0.752
1572441018.387092,55795.000,9162,7,AX,1,100,-0.739
1572441018.403685,55808.000,9162,7,AX,1,100,-0.745
1572441018.420279,55821.000,9162,7,AX,1,100,-0.745
1572441018.436872,55834.000,9162,7,AX,1,100,-0.743
1572441018.453465,55847.000,9180,8,AX,1,100,-0.753
1572441018.470059,55860.000,9180,8,AX,1,100,-0.742
1572441018.486652,55873.000,9180,8,AX,1,100,-0.725
1572441018.503246,55886.000,9180,8,AX,1,100,-0.726
1572441018.519839,55899.000,9180,8,AX,1,100,-0.716
1572441018.536433,55912.000,9180,8,AX,1,100,-0.726
1572441018.553026,55925.000,9180,8,AX,1,100,-0.730
1572441018.569619,55938.000,9180,8,AX,1,100,-0.725
1572441018.586372,55951.125,9199,8,AX,1,100,-0.733
1572441018.603125,55964.250,9199,8,AX,1,100,-0.742
1572441018.619878,55977.375,9199,8,AX,1,100,-0.732
1572441018.636631,55990.500,9199,8,AX,1,100,-0.734
1572441018.653384,56003.625,9199,8,AX,1,100,-0.735
1572441018.670137,56016.750,9199,8,AX,1,100,-0.733
1572441018.686890,56029.875,9199,8,AX,1,100,-0.745
1572441018.703643,56043.000,9199,8,AX,1,100,-0.742
1572441018.720396,56056.125,9217,8,AX,1,100,-0.741
1572441018.737149,56069.250,9217,8,AX,1,100,-0.741
1572441018.753901,56082.375,9217,8,AX,1,100,-0.744
1572441018.770654,56095.500,9217,8,AX,1,100,-0.737
1572441018.787407,56108.625,9217,8,AX,1,100,-0.726
1572441018.804160,56121.750,9217,8,AX,1,100,-0.720
1572441018.820913,56134.875,9217,8,AX,1,100,-0.733
1572441018.837666,56148.000,9217,8,AX,1,100,-0.747
1572441018.854624,56161.286,9235,7,AX,1,100,-0.730
1572441018.871583,56174.571,9235,7,AX,1,100,-0.739
1572441018.888541,56187.857,9235,7,AX,1,100,-0.766
1572441018.905499,56201.143,9235,7,AX,1,100,-0.706
1572441018.922457,56214.429,9235,7,AX,1,100,-0.696
1572441018.939415,56227.714,9235,7,AX,1,100,-0.696
1572441018.956373,56241.000,9235,7,AX,1,100,-0.781
1572441018.973126,56254.125,9253,8,AX,1,100,-0.728
1572441018.989879,56267.250,9253,8,AX,1,100,-0.728
1572441019.006632,56280.375,9253,8,AX,1,100,-0.710
1572441019.023385,56293.500,9253,8,AX,1,100,-0.745
1572441019.040138,56306.625,9253,8,AX,1,100,-0.757
1572441019.056890,56319.750,9253,8,AX,1,100,-0.751
1572441019.073643,56332.875,9253,8,AX,1,100,-0.770
1572441019.090396,56346.000,9253,8,AX,1,100,-0.765
1572441019.107149,56359.125,9271,8,AX,1,100,-0.774
1572441019.123902,56372.250,9271,8,AX,1,100,-0.756
1572441019.140655,56385.375,9271,8,AX,1,100,-0.753
1572441019.157408,56398.500,9271,8,AX,1,100,-0.743
1572441019.174161,56411.625,9271,8,AX,1,100,-0.751
1572441019.190914,56424.750,9271,8,AX,1,100,-0.755
1572441019.207667,56437.875,9271,8,AX,1,100,-0.755
1572441019.224420,56451.000,9271,8,AX,1,100,-0.749
1572441019.241013,56464.000,9288,8,AX,1,100,-0.755
1572441019.257607,56477.000,9288,8,AX,1,100,-0.763
1572441019.274200,56490.000,9288,8,AX,1,100,-0.771
1572441019.290794,56503.000,9288,8,AX,1,100,-0.786
1572441019.307387,56516.000,9288,8,AX,1,100,-0.781
1572441019.323980,56529.000,9288,8,AX,1,100,-0.773
1572441019.340574,56542.000,9288,8,AX,1,100,-0.768
1572441019.357167,56555.000,9288,8,AX,1,100,-0.743
1572441019.373760,56568.000,9305,7,AX,1,100,-0.724
1572441019.390354,56581.000,9305,7,AX,1,100,-0.718
1572441019.406947,56594.000,9305,7,AX,1,100,-0.721
1572441019.423541,56607.000,9305,7,AX,1,100,-0.735
1572441019.440134,56620.000,9305,7,AX,1,100,-0.745
1572441019.456728,56633.000,9305,7,AX,1,100,-0.746
1572441019.473321,56646.000,9305,7,AX,1,100,-0.758
1572441019.489755,56658.875,9323,8,AX,1,100,-0.760
1572441019.506189,56671.750,9323,8,AX,1,100,-0.774
1572441019.522622,56684.625,9323,8,AX,1,100,-0.757
1572441019.539056,56697.500,9323,8,AX,1,100,-0.755
1572441019.555490,56710.375,9323,8,AX,1,100,-0.741
1572441019.571924,56723.250,9323,8,AX,1,100,-0.749
1572441019.588358,56736.125,9323,8,AX,1,100,-0.748
1572441019.604792,56749.000,9323,8,AX,1,100,-0.738
1572441019.621545,56762.125,9342,8,AX,1,100,-0.735
1572441019.638298,56775.250,9342,8,AX,1,100,-0.735
1572441019.655051,56788.375,9342,8,AX,1,100,-0.738
1572441019.671803,56801.500,9342,8,AX,1,100,-0.742
1572441019.688556,56814.625,9342,8,AX,1,100,-0.750
1572441019.705309,56827.750,9342,8,AX,1,100,-0.742
1572441019.722062,56840.875,9342,8,AX,1,100,-0.750
1572441019.738815,56854.000,9342,8,AX,1,100,-0.743
1572441019.755591,56867.143,9360,7,AX,1,100,-0.732
1572441019.772367,56880.286,9360,7,AX,1,100,-0.727
1572441019.789142,56893.429,9360,7,AX,1,100,-0.734
1572441019.805918,56906.571,9360,7,AX,1,100,-0.745
1572441019.822694,56919.714,9360,7,AX,1,100,-0.740
1572441019.839470,56932.857,9360,7,AX,1,100,-0.742
1572441019.856245,56946.000,9360,7,AX,1,100,-0.744
1572441019.872998,56959.125,9378,8,AX,1,100,-0.741
1572441019.889751,56972.250,9378,8,AX,1,100,-0.736
1572441019.906504,56985.375,9378,8,AX,1,100,-0.733
1572441019.923257,56998.500,9378,8,AX,1,100,-0.736
1572441019.940010,57011.625,9378,8,AX,1,100,-0.735
1572441019.956763,57024.750,9378,8,AX,1,100,-0.743
1572441019.973516,57037.875,9378,8,AX,1,100,-0.749
1572441019.990269,57051.000,9378,8,AX,1,100,-0.751
1572441020.006953,57064.071,9399,14,AX,1,100,-0.747
1572441020.023638,57077.143,9399,14,AX,1,100,-0.741
1572441020.040323,57090.214,9399,14,AX,1,100,-0.732
1572441020.057007,57103.286,9399,14,AX,1,100,-0.719
1572441020.073692,57116.357,9399,14,AX,1,100,-0.714
1572441020.090376,57129.429,9399,14,AX,1,100,-0.716
1572441020.107061,57142.500,9399,14,AX,1,100,-0.718
1572441020.123745,57155.571,9399,14,AX,1,100,-0.726
1572441020.140430,57168.643,9399,14,AX,1,100,-0.739
1572441020.157115,57181.714,9399,14,AX,1,100,-0.742
1572441020.173799,57194.786,9399,14,AX,1,100,-0.742
1572441020.190484,57207.857,9399,14,AX,1,100,-0.737
1572441020.207168,57220.929,9399,14,AX,1,100,-0.733
1572441020.223853,57234.000,9399,14,AX,1,100,-0.722
1572441020.240264,57246.857,9419,7,AX,1,100,-0.718
1572441020.256675,57259.714,9419,7,AX,1,100,-0.711
1572441020.273086,57272.571,9419,7,AX,1,100,-0.716
1572441020.289497,57285.429,9419,7,AX,1,100,-0.720
1572441020.305908,57298.286,9419,7,AX,1,100,-0.723
1572441020.322319,57311.143,9419,7,AX,1,100,-0.731
1572441020.338730,57324.000,9419,7,AX,1,100,-0.735
1572441020.355324,57337.000,9437,8,AX,1,100,-0.743
1572441020.371917,57350.000,9437,8,AX,1,100,-0.742
1572441020.388510,57363.000,9437,8,AX,1,100,-0.736
1572441020.405104,57376.000,9437,8,AX,1,100,-0.717
1572441020.421697,57389.000,9437,8,AX,1,100,-0.710
1572441020.438290,57402.000,9437,8,AX,1,100,-0.745
1572441020.454884,57415.000,9437,8,AX,1,100,-0.742
1572441020.471477,57428.000,9437,8,AX,1,100,-0.733
1572441020.487751,57440.750,9455,8,AX,1,100,-0.732
1572441020.504026,57453.500,9455,8,AX,1,100,-0.767
1572441020.520300,57466.250,9455,8,AX,1,100,-0.782
1572441020.536574,57479.000,9455,8,AX,1,100,-0.771
1572441020.552849,57491.750,9455,8,AX,1,100,-0.758
1572441020.569123,57504.500,9455,8,AX,1,100,-0.751
1572441020.585397,57517.250,9455,8,AX,1,100,-0.747
1572441020.601671,57530.000,9455,8,AX,1,100,-0.741
1572441020.618265,57543.000,9474,8,AX,1,100,-0.747
1572441020.634858,57556.000,9474,8,AX,1,100,-0.750
1572441020.651452,57569.000,9474,8,AX,1,100,-0.755
1572441020.668045,57582.000,9474,8,AX,1,100,-0.745
1572441020.684639,57595.000,9474,8,AX,1,100,-0.746
1572441020.701232,57608.000,9474,8,AX,1,100,-0.736
1572441020.717825,57621.000,9474,8,AX,1,100,-0.730
1572441020.734419,57634.000,9474,8,AX,1,100,-0.728
1572441020.751377,57647.286,9492,7,AX,1,100,-0.724
1572441020.768335,57660.571,9492,7,AX,1,100,-0.740
1572441020.785293,57673.857,9492,7,AX,1,100,-0.759
1572441020.802251,57687.143,9492,7,AX,1,100,-0.766
1572441020.819209,57700.429,9492,7,AX,1,100,-0.760
1572441020.836167,57713.714,9492,7,AX,1,100,-0.771
1572441020.853125,57727.000,9492,7,AX,1,100,-0.751
1572441020.870038,57740.250,9510,8,AX,1,100,-0.748
1572441020.886950,57753.500,9510,8,AX,1,100,-0.733
1572441020.903863,57766.750,9510,8,AX,1,100,-0.728
1572441020.920775,57780.000,9510,8,AX,1,100,-0.743
1572441020.937688,57793.250,9510,8,AX,1,100,-0.762
1572441020.954600,57806.500,9510,8,AX,1,100,-0.769
1572441020.971513,57819.750,9510,8,AX,1,100,-0.773
1572441020.988425,57833.000,9510,8,AX,1,100,-0.767
1572441021.005019,57846.000,9528,8,AX,1,100,-0.761
1572441021.021612,57859.000,9528,8,AX,1,100,-0.755
1572441021.038205,57872.000,9528,8,AX,1,100,-0.742
1572441021.054799,57885.000,9528,8,AX,1,100,-0.734
1572441021.071392,57898.000,9528,8,AX,1,100,-0.736
1572441021.087986,57911.000,9528,8,AX,1,100,-0.747
1572441021.104579,57924.000,9528,8,AX,1,100,-0.751
1572441021.121172,57937.000,9528,8,AX,1,100,-0.770
1572441021.137948,57950.143,9545,7,AX,1,100,-0.767
1572441021.154724,57963.286,9545,7,AX,1,100,-0.769
1572441021.171499,57976.429,9545,7,AX,1,100,-0.770
1572441021.188275,57989.571,9545,7,AX,1,100,-0.781
1572441021.205051,58002.714,9545,7,AX,1,100,-0.778
1572441021.221827,58015.857,9545,7,AX,1,100,-0.769
1572441021.238603,58029.000,9545,7,AX,1,100,-0.768
1572441021.255196,58042.000,9563,8,AX,1,100,-0.751
1572441021.271789,58055.000,9563,8,AX,1,100,-0.746
1572441021.288383,58068.000,9563,8,AX,1,100,-0.741
1572441021.304976,58081.000,9563,8,AX,1,100,-0.742
1572441021.321569,58094.000,9563,8,AX,1,100,-0.759
1572441021.338163,58107.000,9563,8,AX,1,100,-0.771
1572441021.354756,58120.000,9563,8,AX,1,100,-0.772
1572441021.371350,58133.000,9563,8,AX,1,100,-0.778
1572441021.387943,58146.000,9581,8,AX,1,100,-0.768
1572441021.404536,58159.000,9581,8,AX,1,100,-0.758
1572441021.421130,58172.000,9581,8,AX,1,100,-0.736
1572441021.437723,58185.000,9581,8,AX,1,100,-0.733
1572441021.454317,58198.000,9581,8,AX,1,100,-0.741
1572441021.470910,58211.000,9581,8,AX,1,100,-0.747
1572441021.487504,58224.000,9581,8,AX,1,100,-0.759
1572441021.504097,58237.000,9581,8,AX,1,100,-0.774
1572441021.520690,58250.000,9599,8,AX,1,100,-0.775
1572441021.537284,58263.000,9599,8,AX,1,100,-0.774
1572441021.553877,58276.000,9599,8,AX,1,100,-0.757
1572441021.570470,58289.000,9599,8,AX,1,100,-0.747
1572441021.587064,58302.000,9599,8,AX,1,100,-0.739
1572441021.603657,58315.000,9599,8,AX,1,100,-0.746
1572441021.620250,58328.000,9599,8,AX,1,100,-0.750
1572441021.636844,58341.000,9599,8,AX,1,100,-0.752
1572441021.653620,58354.143,9618,7,AX,1,100,-0.764
1572441021.670395,58367.286,9618,7,AX,1,100,-0.765
1572441021.687171,58380.429,9618,7,AX,1,100,-0.763
1572441021.703947,58393.571,9618,7,AX,1,100,-0.760
1572441021.720723,58406.714,9618,7,AX,1,100,-0.753
1572441021.737498,58419.857,9618,7,AX,1,100,-0.750
1572441021.754274,58433.000,9618,7,AX,1,100,-0.748
1572441021.771027,58446.125,9636,8,AX,1,100,-0.750
1572441021.787780,58459.250,9636,8,AX,1,100,-0.742
1572441021.804533,58472.375,9636,8,AX,1,100,-0.757
1572441021.821286,58485.500,9636,8,AX,1,100,-0.756
1572441021.838039,58498.625,9636,8,AX,1,100,-0.752
1572441021.854792,58511.750,9636,8,AX,1,100,-0.758
1572441021.871545,58524.875,9636,8,AX,1,100,-0.751
1572441021.888298,58538.000,9636,8,AX,1,100,-0.746
1572441021.905073,58551.143,9652,7,AX,1,100,-0.740
1572441021.921849,58564.286,9652,7,AX,1,100,-0.746
1572441021.938625,58577.429,9652,7,AX,1,100,-0.747
1572441021.955401,58590.571,9652,7,AX,1,100,-0.757
1572441021.972176,58603.714,9652,7,AX,1,100,-0.753
1572441021.988952,58616.857,9652,7,AX,1,100,-0.759
1572441022.005728,58630.000,9652,7,AX,1,100,-0.751
1572441022.022640,58643.250,9670,8,AX,1,100,-0.750
1572441022.039553,58656.500,9670,8,AX,1,100,-0.743
1572441022.056465,58669.750,9670,8,AX,1,100,-0.748
1572441022.073378,58683.000,9670,8,AX,1,100,-0.766
1572441022.090290,58696.250,9670,8,AX,1,100,-0.762
1572441022.107203,58709.500,9670,8,AX,1,100,-0.754
1572441022.124115,58722.750,9670,8,AX,1,100,-0.747
1572441022.141028,58736.000,9670,8,AX,1,100,-0.741
1572441022.157940,58749.250,9688,8,AX,1,100,-0.728
1572441022.174853,58762.500,9688,8,AX,1,100,-0.729
1572441022.191765,58775.750,9688,8,AX,1,100,-0.738
1572441022.208678,58789.000,9688,8,AX,1,100,-0.745
1572441022.225590,58802.250,9688,8,AX,1,100,-0.757
1572441022.242503,58815.500,9688,8,AX,1,100,-0.764
1572441022.259415,58828.750,9688,8,AX,1,100,-0.755
1572441022.276328,58842.000,9688,8,AX,1,100,-0.747
1572441022.292921,58855.000,9706,8,AX,1,100,-0.741
1572441022.309515,58868.000,9706,8,AX,1,100,-0.730
1572441022.326108,58881.000,9706,8,AX,1,100,-0.736
1572441022.342701,58894.000,9706,8,AX,1,100,-0.740
1572441022.359295,58907.000,9706,8,AX,1,100,-0.743
1572441022.375888,58920.000,9706,8,AX,1,100,-0.748
1572441022.392482,58933.000,9706,8,AX,1,100,-0.752
1572441022.409075,58946.000,9706,8,AX,1,100,-0.748
1572441022.425851,58959.143,9724,7,AX,1,100,-0.739
1572441022.442626,58972.286,9724,7,AX,1,100,-0.740
1572441022.459402,58985.429,9724,7,AX,1,100,-0.745
1572441022.476178,58998.571,9724,7,AX,1,100,-0.750
1572441022.492954,59011.714,9724,7,AX,1,100,-0.745
1572441022.509729,59024.857,9724,7,AX,1,100,-0.749
1572441022.526505,59038.000,9724,7,AX,1,100,-0.743
1572441022.543258,59051.125,9742,8,AX,1,100,-0.738
1572441022.560011,59064.250,9742,8,AX,1,100,-0.734
1572441022.576764,59077.375,9742,8,AX,1,100,-0.732
1572441022.593517,59090.500,9742,8,AX,1,100,-0.737
1572441022.610270,59103.625,9742,8,AX,1,100,-0.749
1572441022.627023,59116.750,9742,8,AX,1,100,-0.751
1572441022.643776,59129.875,9742,8,AX,1,100,-0.753
1572441022.660529,59143.000,9742,8,AX,1,100,-0.738
1572441022.677282,59156.125,9761,8,AX,1,100,-0.755
1572441022.694035,59169.250,9761,8,AX,1,100,-0.741
1572441022.710788,59182.375,9761,8,AX,1,100,-0.736
1572441022.727540,59195.500,9761,8,AX,1,100,-0.732
1572441022.744293,59208.625,9761,8,AX,1,100,-0.733
1572441022.761046,59221.750,9761,8,AX,1,100,-0.741
1572441022.777799,59234.875,9761,8,AX,1,100,-0.735
1572441022.794552,59248.000,9761,8,AX,1,100,-0.743
1572441022.811146,59261.000,9779,8,AX,1,100,-0.739
1572441022.827739,59274.000,9779,8,AX,1,100,-0.742
1572441022.844332,59287.000,9779,8,AX,1,100,-0.743
1572441022.860926,59300.000,9779,8,AX,1,100,-0.744
1572441022.877519,59313.000,9779,8,AX,1,100,-0.744
1572441022.894113,59326.000,9779,8,AX,1,100,-0.743
1572441022.910706,59339.000,9779,8,AX,1,100,-0.745
1572441022.927299,59352.000,9779,8,AX,1,100,-0.744
1572441022.943710,59364.857,9797,7,AX,1,100,-0.736
1572441022.960121,59377.714,9797,7,AX,1,100,-0.728
1572441022.976532,59390.571,9797,7,AX,1,100,-0.724
1572441022.992944,59403.429,9797,7,AX,1,100,-0.724
1572441023.009355,59416.286,9797,7,AX,1,100,-0.727
1572441023.025766,59429.143,9797,7,AX,1,100,-0.736
1572441023.042177,59442.000,9797,7,AX,1,100,-0.749
1572441023.059089,59455.250,9815,8,AX,1,100,-0.754
1572441023.076002,59468.500,9815,8,AX,1,100,-0.753
1572441023.092914,59481.750,9815,8,AX,1,100,-0.749
1572441023.109827,59495.000,9815,8,AX,1,100,-0.733
1572441023.126739,59508.250,9815,8,AX,1,100,-0.726
1572441023.143652,59521.500,9815,8,AX,1,100,-0.715
1572441023.160564,59534.750,9815,8,AX,1,100,-0.714
1572441023.177477,59548.000,9815,8,AX,1,100,-0.727
1572441023.194230,59561.125,9833,8,AX,1,100,-0.738
1572441023.210983,59574.250,9833,8,AX,1,100,-0.744
1572441023.227736,59587.375,9833,8,AX,1,100,-0.748
1572441023.244488,59600.500,9833,8,AX,1,100,-0.742
1572441023.261241,59613.625,9833,8,AX,1,100,-0.743
1572441023.277994,59626.750,9833,8,AX,1,100,-0.732
1572441023.294747,59639.875,9833,8,AX,1,100,-0.732
1572441023.311500,59653.000,9833,8,AX,1,100,-0.719
1572441023.327934,59665.875,9851,8,AX,1,100,-0.721
1572441023.344368,59678.750,9851,8,AX,1,100,-0.720
1572441023.360802,59691.625,9851,8,AX,1,100,-0.733
1572441023.377235,59704.500,9851,8,AX,1,100,-0.731
1572441023.393669,59717.375,9851,8,AX,1,100,-0.725
1572441023.410103,59730.250,9851,8,AX,1,100,-0.727
1572441023.426537,59743.125,9851,8,AX,1,100,-0.721
1572441023.442971,59756.000,9851,8,AX,1,100,-0.718
1572441023.459747,59769.143,9869,7,AX,1,100,-0.716
1572441023.476522,59782.286,9869,7,AX,1,100,-0.729
1572441023.493298,59795.429,9869,7,AX,1,100,-0.726
1572441023.510074,59808.571,9869,7,AX,1,100,-0.729
1572441023.526850,59821.714,9869,7,AX,1,100,-0.720
1572441023.543625,59834.857,9869,7,AX,1,100,-0.712
1572441023.560401,59848.000,9869,7,AX,1,100,-0.703
1572441023.576835,59860.875,9887,8,AX,1,100,-0.713
1572441023.593269,59873.750,9887,8,AX,1,100,-0.721
1572441023.609703,59886.625,9887,8,AX,1,100,-0.727
1572441023.626136,59899.500,9887,8,AX,1,100,-0.733
1572441023.642570,59912.375,9887,8,AX,1,100,-0.749
1572441023.659004,59925.250,9887,8,AX,1,100,-0.751
1572441023.675438,59938.125,9887,8,AX,1,100,-0.748
1572441023.691872,59951.000,9887,8,AX,1,100,-0.736
1572441023.708306,59963.875,9906,8,AX,1,100,-0.730
1572441023.724740,59976.750,9906,8,AX,1,100,-0.713
1572441023.741173,59989.625,9906,8,AX,1,100,-0.715
1572441023.757607,60002.500,9906,8,AX,1,100,-0.716
1572441023.774041,60015.375,9906,8,AX,1,100,-0.724
1572441023.790475,60028.250,9906,8,AX,1,100,-0.733
1572441023.806909,60041.125,9906,8,AX,1,100,-0.737
1572441023.823343,60054.000,9906,8,AX,1,100,-0.734
1572441023.839936,60067.000,9924,7,AX,1,100,-0.734
1572441023.856529,60080.000,9924,7,AX,1,100,-0.727
1572441023.873123,60093.000,9924,7,AX,1,100,-0.719
1572441023.889716,60106.000,9924,7,AX,1,100,-0.711
1572441023.906309,60119.000,9924,7,AX,1,100,-0.714
1572441023.922903,60132.000,9924,7,AX,1,100,-0.726
1572441023.939496,60145.000,9924,7,AX,1,100,-0.733
1572441023.956249,60158.125,9942,8,AX,1,100,-0.735
1572441023.973002,60171.250,9942,8,AX,1,100,-0.741
1572441023.989755,60184.375,9942,8,AX,1,100,-0.722
1572441024.006508,60197.500,9942,8,AX,1,100,-0.714
1572441024.023261,60210.625,9942,8,AX,1,100,-0.710
1572441024.040014,60223.750,9942,8,AX,1,100,-0.723
1572441024.056767,60236.875,9942,8,AX,1,100,-0.724
1572441024.073520,60250.000,9942,8,AX,1,100,-0.721
1572441024.090113,60263.000,9960,8,AX,1,100,-0.722
1572441024.106707,60276.000,9960,8,AX,1,100,-0.720
1572441024.123300,60289.000,9960,8,AX,1,100,-0.723
1572441024.139893,60302.000,9960,8,AX,1,100,-0.727
1572441024.156487,60315.000,9960,8,AX,1,100,-0.726
1572441024.173080,60328.000,9960,8,AX,1,100,-0.735
1572441024.189674,60341.000,9960,8,AX,1,100,-0.732
1572441024.206267,60354.000,9960,8,AX,1,100,-0.731
1572441024.223020,60367.125,9978,8,AX,1,100,-0.728
1572441024.239773,60380.250,9978,8,AX,1,100,-0.734
1572441024.256526,60393.375,9978,8,AX,1,100,-0.729
1572441024.273279,60406.500,9978,8,AX,1,100,-0.734
1572441024.290032,60419.625,9978,8,AX,1,100,-0.731
1572441024.306785,60432.750,9978,8,AX,1,100,-0.729
1572441024.323538,60445.875,9978,8,AX,1,100,-0.720
1572441024.340291,60459.000,9978,8,AX,1,100,-0.724
1572441024.357066,60472.143,9996,7,AX,1,100,-0.724
1572441024.373842,60485.286,9996,7,AX,1,100,-0.723
1572441024.390618,60498.429,9996,7,AX,1,100,-0.736
1572441024.407393,60511.571,9996,7,AX,1,100,-0.738
1572441024.424169,60524.714,9996,7,AX,1,100,-0.739
1572441024.440945,60537.857,9996,7,AX,1,100,-0.734
1572441024.457721,60551.000,9996,7,AX,1,100,-0.734
1572441024.474314,60564.000,10014,8,AX,1,100,-0.723
1572441024.490907,60577.000,10014,8,AX,1,100,-0.723
1572441024.507501,60590.000,10014,8,AX,1,100,-0.716
1572441024.524094,60603.000,10014,8,AX,1,100,-0.714
1572441024.540688,60616.000,10014,8,AX,1,100,-0.718
1572441024.557281,60629.000,10014,8,AX,1,100,-0.715
1572441024.573874,60642.000,10014,8,AX,1,100,-0.721
1572441024.590468,60655.000,10014,8,AX,1,100,-0.722
1572441024.606902,60667.875,10032,8,AX,1,100,-0.723
1572441024.623335,60680.750,10032,8,AX,1,100,-0.726
1572441024.639769,60693.625,10032,8,AX,1,100,-0.721
1572441024.656203,60706.500,10032,8,AX,1,100,-0.718
1572441024.672637,60719.375,10032,8,AX,1,100,-0.716
1572441024.689071,60732.250,10032,8,AX,1,100,-0.715
1572441024.705505,60745.125,10032,8,AX,1,100,-0.712
1572441024.721939,60758.000,10032,8,AX,1,100,-0.714
1572441024.738692,60771.125,10051,8,AX,1,100,-0.714
1572441024.755444,60784.250,10051,8,AX,1,100,-0.718
1572441024.772197,60797.375,10051,8,AX,1,100,-0.715
1572441024.788950,60810.500,10051,8,AX,1,100,-0.720
1572441024.805703,60823.625,10051,8,AX,1,100,-0.712
1572441024.822456,60836.750,10051,8,AX,1,100,-0.731
1572441024.839209,60849.875,10051,8,AX,1,100,-0.727
1572441024.855962,60863.000,10051,8,AX,1,100,-0.726
1572441024.872555,60876.000,10068,7,AX,1,100,-0.714
1572441024.889149,60889.000,10068,7,AX,1,100,-0.702
1572441024.905742,60902.000,10068,7,AX,1,100,-0.701
1572441024.922336,60915.000,10068,7,AX,1,100,-0.688
1572441024.938929,60928.000,10068,7,AX,1,100,-0.691
1572441024.955523,60941.000,10068,7,AX,1,100,-0.698
1572441024.972116,60954.000,10068,7,AX,1,100,-0.712
1572441024.988869,60967.125,10086,8,AX,1,100,-0.723
1572441025.005622,60980.250,10086,8,AX,1,100,-0.720
1572441025.022375,60993.375,10086,8,AX,1,100,-0.714
1572441025.039128,61006.500,10086,8,AX,1,100,-0.710
1572441025.055881,61019.625,10086,8,AX,1,100,-0.701
1572441025.072634,61032.750,10086,8,AX,1,100,-0.704
1572441025.089386,61045.875,10086,8,AX,1,100,-0.705
1572441025.106139,61059.000,10086,8,AX,1,100,-0.705
1572441025.122892,61072.125,10104,8,AX,1,100,-0.712
1572441025.139645,61085.250,10104,8,AX,1,100,-0.693
1572441025.156398,61098.375,10104,8,AX,1,100,-0.702
1572441025.173151,61111.500,10104,8,AX,1,100,-0.716
1572441025.189904,61124.625,10104,8,AX,1,100,-0.726
1572441025.206657,61137.750,10104,8,AX,1,100,-0.723
1572441025.223410,61150.875,10104,8,AX,1,100,-0.716
1572441025.240163,61164.000,10104,8,AX,1,100,-0.718
1572441025.257075,61177.250,10122,8,AX,1,100,-0.704
1572441025.273988,61190.500,10122,8,AX,1,100,-0.710
1572441025.290900,61203.750,10122,8,AX,1,100,-0.718
1572441025.307813,61217.000,10122,8,AX,1,100,-0.716
1572441025.324725,61230.250,10122,8,AX,1,100,-0.701
1572441025.341638,61243.500,10122,8,AX,1,100,-0.721
1572441025.358550,61256.750,10122,8,AX,1,100,-0.698
1572441025.375463,61270.000,10122,8,AX,1,100,-0.697
1572441025.392239,61283.143,10140,7,AX,1,100,-0.693
1572441025.409014,61296.286,10140,7,AX,1,100,-0.700
1572441025.425790,61309.429,10140,7,AX,1,100,-0.707
1572441025.442566,61322.571,10140,7,AX,1,100,-0.723
1572441025.459342,61335.714,10140,7,AX,1,100,-0.732
1572441025.476117,61348.857,10140,7,AX,1,100,-0.715
1572441025.492893,61362.000,10140,7,AX,1,100,-0.708
1572441025.509646,61375.125,10158,8,AX,1,100,-0.696
1572441025.526399,61388.250,10158,8,AX,1,100,-0.690
1572441025.543152,61401.375,10158,8,AX,1,100,-0.697
1572441025.559905,61414.500,10158,8,AX,1,100,-0.704
1572441025.576658,61427.625,10158,8,AX,1,100,-0.721
1572441025.593411,61440.750,10158,8,AX,1,100,-0.739
1572441025.610164,61453.875,10158,8,AX,1,100,-0.748
1572441025.626917,61467.000,10158,8,AX,1,100,-0.739
1572441025.643510,61480.000,10175,7,AX,1,100,-0.724
1572441025.660103,61493.000,10175,7,AX,1,100,-0.718
1572441025.676697,61506.000,10175,7,AX,1,100,-0.718
1572441025.693290,61519.000,10175,7,AX,1,100,-0.717
1572441025.709883,61532.000,10175,7,AX,1,100,-0.718
1572441025.726477,61545.000,10175,7,AX,1,100,-0.722
1572441025.743070,61558.000,10175,7,AX,1,100,-0.716
1572441025.759823,61571.125,10193,8,AX,1,100,-0.712
1572441025.776576,61584.250,10193,8,AX,1,100,-0.697
1572441025.793329,61597.375,10193,8,AX,1,100,-0.706
1572441025.810082,61610.500,10193,8,AX,1,100,-0.713
1572441025.826835,61623.625,10193,8,AX,1,100,-0.733
1572441025.843588,61636.750,10193,8,AX,1,100,-0.746
1572441025.860341,61649.875,10193,8,AX,1,100,-0.747
1572441025.877094,61663.000,10193,8,AX,1,100,-0.748
1572441025.893687,61676.000,10211,8,AX,1,100,-0.728
1572441025.910281,61689.000,10211,8,AX,1,100,-0.719
1572441025.926874,61702.000,10211,8,AX,1,100,-0.703
1572441025.943467,61715.000,10211,8,AX,1,100,-0.707
1572441025.960061,61728.000,10211,8,AX,1,100,-0.713
1572441025.976654,61741.000,10211,8,AX,1,100,-0.718
1572441025.993248,61754.000,10211,8,AX,1,100,-0.727
1572441026.009841,61767.000,10211,8,AX,1,100,-0.736
1572441026.026594,61780.125,10229,8,AX,1,100,-0.733
1572441026.043347,61793.250,10229,8,AX,1,100,-0.731
1572441026.060100,61806.375,10229,8,AX,1,100,-0.728
1572441026.076853,61819.500,10229,8,AX,1,100,-0.728
1572441026.093606,61832.625,10229,8,AX,1,100,-0.728
1572441026.110359,61845.750,10229,8,AX,1,100,-0.730
1572441026.127112,61858.875,10229,8,AX,1,100,-0.729
1572441026.143865,61872.000,10229,8,AX,1,100,-0.726
1572441026.160618,61885.125,10247,8,AX,1,100,-0.714
1572441026.177371,61898.250,10247,8,AX,1,100,-0.718
1572441026.194124,61911.375,10247,8,AX,1,100,-0.712
1572441026.210876,61924.500,10247,8,AX,1,100,-0.718
1572441026.227629,61937.625,10247,8,AX,1,100,-0.731
1572441026.244382,61950.750,10247,8,AX,1,100,-0.736
1572441026.261135,61963.875,10247,8,AX,1,100,-0.742
1572441026.277888,61977.000,10247,8,AX,1,100,-0.743
1572441026.294664,61990.143,10265,7,AX,1,100,-0.742
1572441026.311440,62003.286,10265,7,AX,1,100,-0.729
1572441026.328215,62016.429,10265,7,AX,1,100,-0.724
1572441026.344991,62029.571,10265,7,AX,1,100,-0.710
1572441026.361767,62042.714,10265,7,AX,1,100,-0.704
1572441026.378543,62055.857,10265,7,AX,1,100,-0.707
1572441026.395318,62069.000,10265,7,AX,1,100,-0.718
1572441026.411752,62081.875,10283,8,AX,1,100,-0.739
1572441026.428186,62094.750,10283,8,AX,1,100,-0.742
1572441026.444620,62107.625,10283,8,AX,1,100,-0.743
1572441026.461054,62120.500,10283,8,AX,1,100,-0.731
1572441026.477488,62133.375,10283,8,AX,1,100,-0.726
1572441026.493921,62146.250,10283,8,AX,1,100,-0.709
1572441026.510355,62159.125,10283,8,AX,1,100,-0.706
1572441026.526789,62172.000,10283,8,AX,1,100,-0.713
1572441026.543382,62185.000,10304,14,AX,1,100,-0.715
1572441026.559976,62198.000,10304,14,AX,1,100,-0.733
1572441026.576569,62211.000,10304,14,AX,1,100,-0.725
1572441026.593163,62224.000,10304,14,AX,1,100,-0.732
1572441026.609756,62237.000,10304,14,AX,1,100,-0.733
1572441026.626349,62250.000,10304,14,AX,1,100,-0.727
1572441026.642943,62263.000,10304,14,AX,1,100,-0.734
1572441026.659536,62276.000,10304,14,AX,1,100,-0.726
1572441026.676130,62289.000,10304,14,AX,1,100,-0.730
1572441026.692723,62302.000,10304,14,AX,1,100,-0.727
1572441026.709316,62315.000,10304,14,AX,1,100,-0.726
1572441026.725910,62328.000,10304,14,AX,1,100,-0.721
1572441026.742503,62341.000,10304,14,AX,1,100,-0.709
1572441026.759097,62354.000,10304,14,AX,1,100,-0.709
1572441026.775508,62366.857,10324,7,AX,1,100,-0.713
1572441026.791919,62379.714,10324,7,AX,1,100,-0.732
1572441026.808330,62392.571,10324,7,AX,1,100,-0.735
1572441026.824741,62405.429,10324,7,AX,1,100,-0.748
1572441026.841152,62418.286,10324,7,AX,1,100,-0.741
1572441026.857563,62431.143,10324,7,AX,1,100,-0.730
1572441026.873974,62444.000,10324,7,AX,1,100,-0.713
1572441026.890248,62456.750,10343,8,AX,1,100,-0.707
1572441026.906523,62469.500,10343,8,AX,1,100,-0.706
1572441026.922797,62482.250,10343,8,AX,1,100,-0.719
1572441026.939071,62495.000,10343,8,AX,1,100,-0.722
1572441026.955345,62507.750,10343,8,AX,1,100,-0.734
1572441026.971620,62520.500,10343,8,AX,1,100,-0.729
1572441026.987894,62533.250,10343,8,AX,1,100,-0.737
1572441027.004168,62546.000,10343,8,AX,1,100,-0.734
1572441027.020921,62559.125,10361,8,AX,1,100,-0.733
1572441027.037674,62572.250,10361,8,AX,1,100,-0.734
1572441027.054427,62585.375,10361,8,AX,1,100,-0.726
1572441027.071180,62598.500,10361,8,AX,1,100,-0.717
1572441027.087933,62611.625,10361,8,AX,1,100,-0.711
1572441027.104686,62624.750,10361,8,AX,1,100,-0.706
1572441027.121439,62637.875,10361,8,AX,1,100,-0.716
1572441027.138192,62651.000,10361,8,AX,1,100,-0.727
1572441027.154968,62664.143,10379,7,AX,1,100,-0.743
1572441027.171743,62677.286,10379,7,AX,1,100,-0.746
1572441027.188519,62690.429,10379,7,AX,1,100,-0.740
1572441027.205295,62703.571,10379,7,AX,1,100,-0.727
1572441027.222070,62716.714,10379,7,AX,1,100,-0.724
1572441027.238846,62729.857,10379,7,AX,1,100,-0.726
1572441027.255622,62743.000,10379,7,AX,1,100,-0.723
1572441027.272375,62756.125,10397,8,AX,1,100,-0.727
1572441027.289128,62769.250,10397,8,AX,1,100,-0.719
1572441027.305881,62782.375,10397,8,AX,1,100,-0.713
1572441027.322634,62795.500,10397,8,AX,1,100,-0.716
1572441027.339387,62808.625,10397,8,AX,1,100,-0.717
1572441027.356140,62821.750,10397,8,AX,1,100,-0.729
1572441027.372893,62834.875,10397,8,AX,1,100,-0.736
1572441027.389645,62848.000,10397,8,AX,1,100,-0.741
1572441027.406239,62861.000,10415,8,AX,1,100,-0.731
1572441027.422832,62874.000,10415,8,AX,1,100,-0.727
1572441027.439426,62887.000,10415,8,AX,1,100,-0.721
1572441027.456019,62900.000,10415,8,AX,1,100,-0.721
1572441027.472612,62913.000,10415,8,AX,1,100,-0.723
1572441027.489206,62926.000,10415,8,AX,1,100,-0.724
1572441027.505799,62939.000,10415,8,AX,1,100,-0.728
1572441027.522393,62952.000,10415,8,AX,1,100,-0.729
1572441027.539145,62965.125,10433,8,AX,1,100,-0.726
1572441027.555898,62978.250,10433,8,AX,1,100,-0.722
1572441027.572651,62991.375,10433,8,AX,1,100,-0.718
1572441027.589404,63004.500,10433,8,AX,1,100,-0.723
1572441027.606157,63017.625,10433,8,AX,1,100,-0.726
1572441027.622910,63030.750,10433,8,AX,1,100,-0.735
1572441027.639663,63043.875,10433,8,AX,1,100,-0.733
1572441027.656416,63057.000,10433,8,AX,1,100,-0.728
1572441027.672827,63069.857,10450,7,AX,1,100,-0.728
1572441027.689238,63082.714,10450,7,AX,1,100,-0.723
1572441027.705649,63095.571,10450,7,AX,1,100,-0.725
1572441027.722060,63108.429,10450,7,AX,1,100,-0.723
1572441027.738471,63121.286,10450,7,AX,1,100,-0.727
1572441027.754882,63134.143,10450,7,AX,1,100,-0.725
1572441027.771293,63147.000,10450,7,AX,1,100,-0.716
1572441027.787887,63160.000,10469,8,AX,1,100,-0.720
1572441027.804480,63173.000,10469,8,AX,1,100,-0.718
1572441027.821074,63186.000,10469,8,AX,1,100,-0.727
1572441027.837667,63199.000,10469,8,AX,1,100,-0.729
1572441027.854260,63212.000,10469,8,AX,1,100,-0.730
1572441027.870854,63225.000,10469,8,AX,1,100,-0.736
1572441027.887447,63238.000,10469,8,AX,1,100,-0.730
1572441027.904041,63251.000,10469,8,AX,1,100,-0.732
1572441027.920634,63264.000,10487,8,AX,1,100,-0.732
1572441027.937227,63277.000,10487,8,AX,1,100,-0.730
1572441027.953821,63290.000,10487,8,AX,1,100,-0.721
1572441027.970414,63303.000,10487,8,AX,1,100,-0.712
1572441027.987008,63316.000,10487,8,AX,1,100,-0.719
1572441028.003601,63329.000,10487,8,AX,1,100,-0.719
1572441028.020194,63342.000,10487,8,AX,1,100,-0.724
1572441028.036788,63355.000,10487,8,AX,1,100,-0.736
1572441028.053700,63368.250,10505,8,AX,1,100,-0.720
1572441028.070613,63381.500,10505,8,AX,1,100,-0.726
1572441028.087525,63394.750,10505,8,AX,1,100,-0.721
1572441028.104438,63408.000,10505,8,AX,1,100,-0.718
1572441028.121350,63421.250,10505,8,AX,1,100,-0.739
1572441028.138263,63434.500,10505,8,AX,1,100,-0.732
1572441028.155175,63447.750,10505,8,AX,1,100,-0.736
1572441028.172088,63461.000,10505,8,AX,1,100,-0.734
1572441028.188864,63474.143,10523,7,AX,1,100,-0.709
1572441028.205639,63487.286,10523,7,AX,1,100,-0.702
1572441028.222415,63500.429,10523,7,AX,1,100,-0.698
1572441028.239191,63513.571,10523,7,AX,1,100,-0.703
1572441028.255966,63526.714,10523,7,AX,1,100,-0.725
1572441028.272742,63539.857,10523,7,AX,1,100,-0.733
1572441028.289518,63553.000,10523,7,AX,1,100,-0.740
1572441028.306590,63566.375,10541,8,AX,1,100,-0.732
1572441028.323662,63579.750,10541,8,AX,1,100,-0.728
1572441028.340734,63593.125,10541,8,AX,1,100,-0.712
1572441028.357806,63606.500,10541,8,AX,1,100,-0.708
1572441028.374878,63619.875,10541,8,AX,1,100,-0.706
1572441028.391950,63633.250,10541,8,AX,1,100,-0.698
1572441028.409022,63646.625,10541,8,AX,1,100,-0.703
1572441028.426094,63660.000,10541,8,AX,1,100,-0.704
1572441028.442688,63673.000,10557,7,AX,1,100,-0.714
1572441028.459281,63686.000,10557,7,AX,1,100,-0.725
1572441028.475874,63699.000,10557,7,AX,1,100,-0.735
1572441028.492468,63712.000,10557,7,AX,1,100,-0.735
1572441028.509061,63725.000,10557,7,AX,1,100,-0.734
1572441028.525655,63738.000,10557,7,AX,1,100,-0.719
1572441028.542248,63751.000,10557,7,AX,1,100,-0.694
1572441028.559001,63764.125,10575,8,AX,1,100,-0.689
1572441028.575754,63777.250,10575,8,AX,1,100,-0.684
1572441028.592507,63790.375,10575,8,AX,1,100,-0.699
1572441028.609260,63803.500,10575,8,AX,1,100,-0.716
1572441028.626013,63816.625,10575,8,AX,1,100,-0.738
1572441028.642766,63829.750,10575,8,AX,1,100,-0.753
1572441028.659519,63842.875,10575,8,AX,1,100,-0.750
1572441028.676272,63856.000,10575,8,AX,1,100,-0.738
1572441028.692865,63869.000,10594,8,AX,1,100,-0.709
1572441028.709458,63882.000,10594,8,AX,1,100,-0.704
1572441028.726052,63895.000,10594,8,AX,1,100,-0.695
1572441028.742645,63908.000,10594,8,AX,1,100,-0.697
1572441028.759238,63921.000,10594,8,AX,1,100,-0.703
1572441028.775832,63934.000,10594,8,AX,1,100,-0.700
1572441028.792425,63947.000,10594,8,AX,1,100,-0.726
1572441028.809019,63960.000,10594,8,AX,1,100,-0.723
1572441028.825772,63973.125,10612,8,AX,1,100,-0.742
1572441028.842525,63986.250,10612,8,AX,1,100,-0.739
1572441028.859277,63999.375,10612,8,AX,1,100,-0.741
1572441028.876030,64012.500,10612,8,AX,1,100,-0.728
1572441028.892783,64025.625,10612,8,AX,1,100,-0.717
1572441028.909536,64038.750,10612,8,AX,1,100,-0.706
1572441028.926289,64051.875,10612,8,AX,1,100,-0.698
1572441028.943042,64065.000,10612,8,AX,1,100,-0.703
1572441028.959818,64078.143,10630,7,AX,1,100,-0.717
1572441028.976594,64091.286,10630,7,AX,1,100,-0.729
1572441028.993370,64104.429,10630,7,AX,1,100,-0.734
1572441029.010145,64117.571,10630,7,AX,1,100,-0.746
1572441029.026921,64130.714,10630,7,AX,1,100,-0.733
1572441029.043697,64143.857,10630,7,AX,1,100,-0.730
1572441029.060472,64157.000,10630,7,AX,1,100,-0.715
1572441029.077225,64170.125,10648,8,AX,1,100,-0.718
1572441029.093978,64183.250,10648,8,AX,1,100,-0.716
1572441029.110731,64196.375,10648,8,AX,1,100,-0.716
1572441029.127484,64209.500,10648,8,AX,1,100,-0.730
1572441029.144237,64222.625,10648,8,AX,1,100,-0.735
1572441029.160990,64235.750,10648,8,AX,1,100,-0.739
1572441029.177743,64248.875,10648,8,AX,1,100,-0.741
1572441029.194496,64262.000,10648,8,AX,1,100,-0.744
1572441029.211089,64275.000,10666,8,AX,1,100,-0.740
1572441029.227683,64288.000,10666,8,AX,1,100,-0.735
1572441029.244276,64301.000,10666,8,AX,1,100,-0.718
1572441029.260870,64314.000,10666,8,AX,1,100,-0.707
1572441029.277463,64327.000,10666,8,AX,1,100,-0.704
1572441029.294056,64340.000,10666,8,AX,1,100,-0.714
1572441029.310650,64353.000,10666,8,AX,1,100,-0.725
1572441029.327243,64366.000,10666,8,AX,1,100,-0.751
1572441029.343996,64379.125,10684,8,AX,1,100,-0.760
1572441029.360749,64392.250,10684,8,AX,1,100,-0.762
1572441029.377502,64405.375,10684,8,AX,1,100,-0.751
1572441029.394255,64418.500,10684,8,AX,1,100,-0.729
1572441029.411008,64431.625,10684,8,AX,1,100,-0.712
1572441029.427761,64444.750,10684,8,AX,1,100,-0.708
1572441029.444514,64457.875,10684,8,AX,1,100,-0.713
1572441029.461267,64471.000,10684,8,AX,1,100,-0.712
1572441029.477860,64484.000,10702,7,AX,1,100,-0.727
1572441029.494453,64497.000,10702,7,AX,1,100,-0.734
1572441029.511047,64510.000,10702,7,AX,1,100,-0.746
1572441029.527640,64523.000,10702,7,AX,1,100,-0.751
1572441029.544234,64536.000,10702,7,AX,1,100,-0.738
1572441029.560827,64549.000,10702,7,AX,1,100,-0.732
1572441029.577420,64562.000,10702,7,AX,1,100,-0.722
1572441029.593695,64574.750,10720,8,AX,1,100,-0.709
1572441029.609969,64587.500,10720,8,AX,1,100,-0.716
1572441029.626243,64600.250,10720,8,AX,1,100,-0.715
1572441029.642518,64613.000,10720,8,AX,1,100,-0.717
1572441029.658792,64625.750,10720,8,AX,1,100,-0.729
1572441029.675066,64638.500,10720,8,AX,1,100,-0.735
1572441029.691340,64651.250,10720,8,AX,1,100,-0.742
1572441029.707615,64664.000,10720,8,AX,1,100,-0.740
1572441029.724049,64676.875,10739,8,AX,1,100,-0.739
1572441029.740482,64689.750,10739,8,AX,1,100,-0.738
1572441029.756916,64702.625,10739,8,AX,1,100,-0.723
1572441029.773350,64715.500,10739,8,AX,1,100,-0.712
1572441029.789784,64728.375,10739,8,AX,1,100,-0.710
1572441029.806218,64741.250,10739,8,AX,1,100,-0.713
1572441029.822652,64754.125,10739,8,AX,1,100,-0.733
1572441029.839085,64767.000,10739,8,AX,1,100,-0.742
1572441029.855519,64779.875,10757,8,AX,1,100,-0.751
1572441029.871953,64792.750,10757,8,AX,1,100,-0.747
1572441029.888387,64805.625,10757,8,AX,1,100,-0.743
1572441029.904821,64818.500,10757,8,AX,1,100,-0.728
1572441029.921255,64831.375,10757,8,AX,1,100,-0.713
1572441029.937689,64844.250,10757,8,AX,1,100,-0.717
1572441029.954122,64857.125,10757,8,AX,1,100,-0.708
1572441029.970556,64870.000,10757,8,AX,1,100,-0.724
1572441029.987149,64883.000,10775,8,AX,1,100,-0.727
1572441030.003743,64896.000,10775,8,AX,1,100,-0.736
1572441030.020336,64909.000,10775,8,AX,1,100,-0.734
1572441030.036930,64922.000,10775,8,AX,1,100,-0.733
1572441030.053523,64935.000,10775,8,AX,1,100,-0.738
1572441030.070117,64948.000,10775,8,AX,1,100,-0.732
1572441030.086710,64961.000,10775,8,AX,1,100,-0.733
1572441030.103303,64974.000,10775,8,AX,1,100,-0.718
1572441030.119897,64987.000,10793,8,AX,1,100,-0.728
1572441030.136490,65000.000,10793,8,AX,1,100,-0.727
1572441030.153084,65013.000,10793,8,AX,1,100,-0.721
1572441030.169677,65026.000,10793,8,AX,1,100,-0.729
1572441030.186270,65039.000,10793,8,AX,1,100,-0.706
1572441030.202864,65052.000,10793,8,AX,1,100,-0.722
1572441030.219457,65065.000,10793,8,AX,1,100,-0.721
1572441030.236050,65078.000,10793,8,AX,1,100,-0.732
1572441030.253009,65091.286,10811,7,AX,1,100,-0.752
1572441030.269967,65104.571,10811,7,AX,1,100,-0.757
1572441030.286925,65117.857,10811,7,AX,1,100,-0.762
1572441030.303883,65131.143,10811,7,AX,1,100,-0.754
1572441030.320841,65144.429,10811,7,AX,1,100,-0.720
1572441030.337799,65157.714,10811,7,AX,1,100,-0.709
1572441030.354757,65171.000,10811,7,AX,1,100,-0.696
1572441030.371510,65184.125,10829,8,AX,1,100,-0.699
1572441030.388263,65197.250,10829,8,AX,1,100,-0.709
1572441030.405016,65210.375,10829,8,AX,1,100,-0.715
1572441030.421769,65223.500,10829,8,AX,1,100,-0.731
1572441030.438522,65236.625,10829,8,AX,1,100,-0.747
1572441030.455275,65249.750,10829,8,AX,1,100,-0.753
1572441030.472028,65262.875,10829,8,AX,1,100,-0.756
1572441030.488780,65276.000,10829,8,AX,1,100,-0.748
1572441030.505374,65289.000,10847,8,AX,1,100,-0.742
1572441030.521967,65302.000,10847,8,AX,1,100,-0.724
1572441030.538561,65315.000,10847,8,AX,1,100,-0.713
1572441030.555154,65328.000,10847,8,AX,1,100,-0.699
1572441030.571748,65341.000,10847,8,AX,1,100,-0.691
1572441030.588341,65354.000,10847,8,AX,1,100,-0.713
1572441030.604934,65367.000,10847,8,AX,1,100,-0.728
1572441030.621528,65380.000,10847,8,AX,1,100,-0.749
1572441030.637756,65392.714,10865,7,AX,1,100,-0.757
1572441030.653985,65405.429,10865,7,AX,1,100,-0.756
1572441030.670214,65418.143,10865,7,AX,1,100,-0.736
1572441030.686443,65430.857,10865,7,AX,1,100,-0.720
1572441030.702671,65443.571,10865,7,AX,1,100,-0.709
1572441030.718900,65456.286,10865,7,AX,1,100,-0.709
1572441030.735129,65469.000,10865,7,AX,1,100,-0.712
1572441030.751882,65482.125,10884,8,AX,1,100,-0.722
1572441030.768635,65495.250,10884,8,AX,1,100,-0.724
1572441030.785388,65508.375,10884,8,AX,1,100,-0.725
1572441030.802140,65521.500,10884,8,AX,1,100,-0.726
1572441030.818893,65534.625,10884,8,AX,1,100,-0.733
1572441030.835646,65547.750,10884,8,AX,1,100,-0.737
1572441030.852399,65560.875,10884,8,AX,1,100,-0.747
1572441030.869152,65574.000,10884,8,AX,1,100,-0.748
1572441030.885586,65586.875,10902,8,AX,1,100,-0.733
1572441030.902020,65599.750,10902,8,AX,1,100,-0.720
1572441030.918454,65612.625,10902,8,AX,1,100,-0.702
1572441030.934888,65625.500,10902,8,AX,1,100,-0.705
1572441030.951321,65638.375,10902,8,AX,1,100,-0.712
1572441030.967755,65651.250,10902,8,AX,1,100,-0.719
1572441030.984189,65664.125,10902,8,AX,1,100,-0.728
1572441031.000623,65677.000,10902,8,AX,1,100,-0.743
1572441031.017216,65690.000,10920,8,AX,1,100,-0.728
1572441031.033810,65703.000,10920,8,AX,1,100,-0.743
1572441031.050403,65716.000,10920,8,AX,1,100,-0.724
1572441031.066997,65729.000,10920,8,AX,1,100,-0.721
1572441031.083590,65742.000,10920,8,AX,1,100,-0.715
1572441031.100183,65755.000,10920,8,AX,1,100,-0.719
1572441031.116777,65768.000,10920,8,AX,1,100,-0.725
1572441031.133370,65781.000,10920,8,AX,1,100,-0.738
1572441031.150123,65794.125,10938,8,AX,1,100,-0.731
1572441031.166876,65807.250,10938,8,AX,1,100,-0.736
1572441031.183629,65820.375,10938,8,AX,1,100,-0.722
1572441031.200382,65833.500,10938,8,AX,1,100,-0.724
1572441031.217135,65846.625,10938,8,AX,1,100,-0.711
1572441031.233888,65859.750,10938,8,AX,1,100,-0.712
1572441031.250641,65872.875,10938,8,AX,1,100,-0.725
1572441031.267394,65886.000,10938,8,AX,1,100,-0.732
1572441031.284352,65899.286,10956,7,AX,1,100,-0.736
1572441031.301310,65912.571,10956,7,AX,1,100,-0.733
1572441031.318268,65925.857,10956,7,AX,1,100,-0.721
1572441031.335226,65939.143,10956,7,AX,1,100,-0.718
1572441031.352184,65952.429,10956,7,AX,1,100,-0.721
1572441031.369142,65965.714,10956,7,AX,1,100,-0.731
1572441031.386100,65979.000,10956,7,AX,1,100,-0.727
1572441031.402853,65992.125,10974,8,AX,1,100,-0.719
1572441031.419606,66005.250,10974,8,AX,1,100,-0.712
1572441031.436359,66018.375,10974,8,AX,1,100,-0.714
1572441031.453112,66031.500,10974,8,AX,1,100,-0.716
1572441031.469865,66044.625,10974,8,AX,1,100,-0.730
1572441031.486618,66057.750,10974,8,AX,1,100,-0.741
1572441031.503371,66070.875,10974,8,AX,1,100,-0.743
1572441031.520124,66084.000,10974,8,AX,1,100,-0.735
1572441031.536717,66097.000,10991,7,AX,1,100,-0.730
1572441031.553311,66110.000,10991,7,AX,1,100,-0.719
1572441031.569904,66123.000,10991,7,AX,1,100,-0.714
1572441031.586497,66136.000,10991,7,AX,1,100,-0.716
1572441031.603091,66149.000,10991,7,AX,1,100,-0.722
1572441031.619684,66162.000,10991,7,AX,1,100,-0.724
1572441031.636277,66175.000,10991,7,AX,1,100,-0.722
1572441031.652871,66188.000,11009,8,AX,1,100,-0.729
1572441031.669464,66201.000,11009,8,AX,1,100,-0.726
1572441031.686058,66214.000,11009,8,AX,1,100,-0.731
1572441031.702651,66227.000,11009,8,AX,1,100,-0.722
1572441031.719244,66240.000,11009,8,AX,1,100,-0.723
1572441031.735838,66253.000,11009,8,AX,1,100,-0.725
1572441031.752431,66266.000,11009,8,AX,1,100,-0.733
1572441031.769025,66279.000,11009,8,AX,1,100,-0.735
1572441031.785778,66292.125,11028,8,AX,1,100,-0.732
1572441031.802531,66305.250,11028,8,AX,1,100,-0.716
1572441031.819283,66318.375,11028,8,AX,1,100,-0.701
1572441031.836036,66331.500,11028,8,AX,1,100,-0.691
1572441031.852789,66344.625,11028,8,AX,1,100,-0.707
1572441031.869542,66357.750,11028,8,AX,1,100,-0.714
1572441031.886295,66370.875,11028,8,AX,1,100,-0.742
1572441031.903048,66384.000,11028,8,AX,1,100,-0.742
1572441031.919482,66396.875,11046,8,AX,1,100,-0.737
1572441031.935916,66409.750,11046,8,AX,1,100,-0.726
1572441031.952350,66422.625,11046,8,AX,1,100,-0.726
1572441031.968784,66435.500,11046,8,AX,1,100,-0.724
1572441031.985217,66448.375,11046,8,AX,1,100,-0.730
1572441032.001651,66461.250,11046,8,AX,1,100,-0.718
1572441032.018085,66474.125,11046,8,AX,1,100,-0.712
1572441032.034519,66487.000,11046,8,AX,1,100,-0.704
1572441032.051431,66500.250,11064,8,AX,1,100,-0.710
1572441032.068344,66513.500,11064,8,AX,1,100,-0.718
1572441032.085256,66526.750,11064,8,AX,1,100,-0.724
1572441032.102169,66540.000,11064,8,AX,1,100,-0.730
1572441032.119081,66553.250,11064,8,AX,1,100,-0.738
1572441032.135994,66566.500,11064,8,AX,1,100,-0.725
1572441032.152906,66579.750,11064,8,AX,1,100,-0.715
1572441032.169819,66593.000,11064,8,AX,1,100,-0.712
1572441032.186594,66606.143,11082,7,AX,1,100,-0.713
1572441032.203370,66619.286,11082,7,AX,1,100,-0.713
1572441032.220146,66632.429,11082,7,AX,1,100,-0.715
1572441032.236922,66645.571,11082,7,AX,1,100,-0.716
1572441032.253698,66658.714,11082,7,AX,1,100,-0.719
1572441032.270473,66671.857,11082,7,AX,1,100,-0.716
1572441032.287249,66685.000,11082,7,AX,1,100,-0.718
1572441032.304002,66698.125,11100,8,AX,1,100,-0.719
1572441032.320755,66711.250,11100,8,AX,1,100,-0.720
1572441032.337508,66724.375,11100,8,AX,1,100,-0.721
1572441032.354261,66737.500,11100,8,AX,1,100,-0.720
1572441032.371014,66750.625,11100,8,AX,1,100,-0.722
1572441032.387767,66763.750,11100,8,AX,1,100,-0.721
1572441032.404520,66776.875,11100,8,AX,1,100,-0.719
1572441032.421273,66790.000,11100,8,AX,1,100,-0.716
1572441032.437866,66803.000,11116,7,AX,1,100,-0.715
1572441032.454459,66816.000,11116,7,AX,1,100,-0.718
1572441032.471053,66829.000,11116,7,AX,1,100,-0.717
1572441032.487646,66842.000,11116,7,AX,1,100,-0.720
1572441032.504240,66855.000,11116,7,AX,1,100,-0.719
1572441032.520833,66868.000,11116,7,AX,1,100,-0.720
1572441032.537426,66881.000,11116,7,AX,1,100,-0.721
1572441032.554179,66894.125,11134,8,AX,1,100,-0.711
1572441032.570932,66907.250,11134,8,AX,1,100,-0.710
1572441032.587685,66920.375,11134,8,AX,1,100,-0.711
1572441032.604438,66933.500,11134,8,AX,1,100,-0.715
1572441032.621191,66946.625,11134,8,AX,1,100,-0.722
1572441032.637944,66959.750,11134,8,AX,1,100,-0.729
1572441032.654697,66972.875,11134,8,AX,1,100,-0.719
1572441032.671450,66986.000,11134,8,AX,1,100,-0.712
1572441032.687724,66998.750,11152,8,AX,1,100,-0.708
1572441032.703999,67011.500,11152,8,AX,1,100,-0.712
1572441032.720273,67024.250,11152,8,AX,1,100,-0.719
1572441032.736547,67037.000,11152,8,AX,1,100,-0.715
1572441032.752821,67049.750,11152,8,AX,1,100,-0.710
1572441032.769096,67062.500,11152,8,AX,1,100,-0.706
1572441032.785370,67075.250,11152,8,AX,1,100,-0.706
1572441032.801644,67088.000,11152,8,AX,1,100,-0.720
1572441032.818238,67101.000,11171,8,AX,1,100,-0.723
1572441032.834831,67114.000,11171,8,AX,1,100,-0.723
1572441032.851424,67127.000,11171,8,AX,1,100,-0.720
1572441032.868018,67140.000,11171,8,AX,1,100,-0.720
1572441032.884611,67153.000,11171,8,AX,1,100,-0.718
1572441032.901205,67166.000,11171,8,AX,1,100,-0.718
1572441032.917798,67179.000,11171,8,AX,1,100,-0.719
1572441032.934391,67192.000,11171,8,AX,1,100,-0.712
1572441032.950985,67205.000,11189,8,AX,1,100,-0.708
1572441032.967578,67218.000,11189,8,AX,1,100,-0.707
1572441032.984172,67231.000,11189,8,AX,1,100,-0.708
1572441033.000765,67244.000,11189,8,AX,1,100,-0.716
1572441033.017358,67257.000,11189,8,AX,1,100,-0.711
1572441033.033952,67270.000,11189,8,AX,1,100,-0.725
1572441033.050545,67283.000,11189,8,AX,1,100,-0.728
1572441033.067138,67296.000,11189,8,AX,1,100,-0.723
1572441033.083732,67309.000,11210,13,AX,1,100,-0.722
1572441033.100325,67322.000,11210,13,AX,1,100,-0.712
1572441033.116919,67335.000,11210,13,AX,1,100,-0.703
1572441033.133512,67348.000,11210,13,AX,1,100,-0.704
1572441033.150105,67361.000,11210,13,AX,1,100,-0.713
1572441033.166699,67374.000,11210,13,AX,1,100,-0.720
1572441033.183292,67387.000,11210,13,AX,1,100,-0.731
1572441033.199886,67400.000,11210,13,AX,1,100,-0.734
1572441033.216479,67413.000,11210,13,AX,1,100,-0.723
1572441033.233072,67426.000,11210,13,AX,1,100,-0.706
1572441033.249666,67439.000,11210,13,AX,1,100,-0.705
1572441033.266259,67452.000,11210,13,AX,1,100,-0.704
1572441033.282853,67465.000,11210,13,AX,1,100,-0.708
1572441033.299446,67478.000,11230,8,AX,1,100,-0.712
1572441033.316039,67491.000,11230,8,AX,1,100,-0.719
1572441033.332633,67504.000,11230,8,AX,1,100,-0.720
1572441033.349226,67517.000,11230,8,AX,1,100,-0.714
1572441033.365819,67530.000,11230,8,AX,1,100,-0.715
1572441033.382413,67543.000,11230,8,AX,1,100,-0.711
1572441033.399006,67556.000,11230,8,AX,1,100,-0.712
1572441033.415600,67569.000,11230,8,AX,1,100,-0.714
1572441033.432193,67582.000,11248,7,AX,1,100,-0.713
1572441033.448786,67595.000,11248,7,AX,1,100,-0.719
1572441033.465380,67608.000,11248,7,AX,1,100,-0.721
1572441033.481973,67621.000,11248,7,AX,1,100,-0.718
1572441033.498567,67634.000,11248,7,AX,1,100,-0.716
1572441033.515160,67647.000,11248,7,AX,1,100,-0.711
1572441033.531754,67660.000,11248,7,AX,1,100,-0.708
1572441033.548506,67673.125,11266,8,AX,1,100,-0.710
1572441033.565259,67686.250,11266,8,AX,1,100,-0.707
1572441033.582012,67699.375,11266,8,AX,1,100,-0.714
1572441033.598765,67712.500,11266,8,AX,1,100,-0.713
1572441033.615518,67725.625,11266,8,AX,1,100,-0.716
1572441033.632271,67738.750,11266,8,AX,1,100,-0.717
1572441033.649024,67751.875,11266,8,AX,1,100,-0.715
1572441033.665777,67765.000,11266,8,AX,1,100,-0.714
1572441033.682370,67778.000,11284,8,AX,1,100,-0.715
1572441033.698964,67791.000,11284,8,AX,1,100,-0.716
1572441033.715557,67804.000,11284,8,AX,1,100,-0.714
1572441033.732151,67817.000,11284,8,AX,1,100,-0.712
1572441033.748744,67830.000,11284,8,AX,1,100,-0.713
1572441033.765337,67843.000,11284,8,AX,1,100,-0.708
1572441033.781931,67856.000,11284,8,AX,1,100,-0.700
1572441033.798524,67869.000,11284,8,AX,1,100,-0.705
1572441033.815118,67882.000,11303,7,AX,1,100,-0.707
1572441033.831711,67895.000,11303,7,AX,1,100,-0.714
1572441033.848304,67908.000,11303,7,AX,1,100,-0.719
1572441033.864898,67921.000,11303,7,AX,1,100,-0.717
1572441033.881491,67934.000,11303,7,AX,1,100,-0.711
1572441033.898084,67947.000,11303,7,AX,1,100,-0.710
1572441033.914678,67960.000,11303,7,AX,1,100,-0.707
1572441033.931431,67973.125,11321,8,AX,1,100,-0.707
1572441033.948184,67986.250,11321,8,AX,1,100,-0.708
1572441033.964937,67999.375,11321,8,AX,1,100,-0.707
1572441033.981690,68012.500,11321,8,AX,1,100,-0.715
1572441033.998443,68025.625,11321,8,AX,1,100,-0.709
1572441034.015196,68038.750,11321,8,AX,1,100,-0.712
1572441034.031949,68051.875,11321,8,AX,1,100,-0.705
1572441034.048702,68065.000,11321,8,AX,1,100,-0.708
1572441034.065295,68078.000,11339,8,AX,1,100,-0.703
1572441034.081888,68091.000,11339,8,AX,1,100,-0.711
1572441034.098482,68104.000,11339,8,AX,1,100,-0.702
1572441034.115075,68117.000,11339,8,AX,1,100,-0.708
1572441034.131668,68130.000,11339,8,AX,1,100,-0.709
1572441034.148262,68143.000,11339,8,AX,1,100,-0.706
1572441034.164855,68156.000,11339,8,AX,1,100,-0.700
1572441034.181449,68169.000,11339,8,AX,1,100,-0.704
1572441034.198042,68182.000,11357,8,AX,1,100,-0.715
1572441034.214635,68195.000,11357,8,AX,1,100,-0.716
1572441034.231229,68208.000,11357,8,AX,1,100,-0.712
1572441034.247822,68221.000,11357,8,AX,1,100,-0.700
1572441034.264416,68234.000,11357,8,AX,1,100,-0.684
1572441034.281009,68247.000,11357,8,AX,1,100,-0.681
1572441034.297602,68260.000,11357,8,AX,1,100,-0.686
1572441034.314196,68273.000,11357,8,AX,1,100,-0.705
1572441034.330789,68286.000,11374,7,AX,1,100,-0.705
1572441034.347383,68299.000,11374,7,AX,1,100,-0.728
1572441034.363976,68312.000,11374,7,AX,1,100,-0.740
1572441034.380569,68325.000,11374,7,AX,1,100,-0.731
1572441034.397163,68338.000,11374,7,AX,1,100,-0.729
1572441034.413756,68351.000,11374,7,AX,1,100,-0.718
1572441034.430350,68364.000,11374,7,AX,1,100,-0.708
1572441034.447262,68377.250,11392,8,AX,1,100,-0.687
1572441034.464175,68390.500,11392,8,AX,1,100,-0.670
1572441034.481087,68403.750,11392,8,AX,1,100,-0.673
1572441034.497999,68417.000,11392,8,AX,1,100,-0.667
1572441034.514912,68430.250,11392,8,AX,1,100,-0.673
1572441034.531824,68443.500,11392,8,AX,1,100,-0.685
1572441034.548737,68456.750,11392,8,AX,1,100,-0.694
1572441034.565650,68470.000,11392,8,AX,1,100,-0.719
1572441034.582402,68483.125,11410,8,AX,1,100,-0.721
1572441034.599155,68496.250,11410,8,AX,1,100,-0.721
1572441034.615908,68509.375,11410,8,AX,1,100,-0.725
1572441034.632661,68522.500,11410,8,AX,1,100,-0.716
1572441034.649414,68535.625,11410,8,AX,1,100,-0.695
1572441034.666167,68548.750,11410,8,AX,1,100,-0.696
1572441034.682920,68561.875,11410,8,AX,1,100,-0.671
1572441034.699673,68575.000,11410,8,AX,1,100,-0.671
1572441034.716266,68588.000,11428,8,AX,1,100,-0.669
1572441034.732860,68601.000,11428,8,AX,1,100,-0.693
1572441034.749453,68614.000,11428,8,AX,1,100,-0.707
1572441034.766047,68627.000,11428,8,AX,1,100,-0.716
1572441034.782640,68640.000,11428,8,AX,1,100,-0.721
1572441034.799233,68653.000,11428,8,AX,1,100,-0.709
1572441034.815827,68666.000,11428,8,AX,1,100,-0.698
1572441034.832420,68679.000,11428,8,AX,1,100,-0.673
1572441034.849743,68692.571,11447,7,AX,1,100,-0.664
1572441034.867066,68706.143,11447,7,AX,1,100,-0.647
1572441034.884388,68719.714,11447,7,AX,1,100,-0.651
1572441034.901711,68733.286,11447,7,AX,1,100,-0.650
1572441034.919034,68746.857,11447,7,AX,1,100,-0.669
1572441034.936357,68760.429,11447,7,AX,1,100,-0.673
1572441034.953680,68774.000,11447,7,AX,1,100,-0.679
1572441034.970113,68786.875,11465,8,AX,1,100,-0.684
1572441034.986547,68799.750,11465,8,AX,1,100,-0.695
1572441035.002981,68812.625,11465,8,AX,1,100,-0.696
1572441035.019415,68825.500,11465,8,AX,1,100,-0.681
1572441035.035849,68838.375,11465,8,AX,1,100,-0.666
1572441035.052283,68851.250,11465,8,AX,1,100,-0.661
1572441035.068717,68864.125,11465,8,AX,1,100,-0.653
1572441035.085150,68877.000,11465,8,AX,1,100,-0.644
1572441035.101903,68890.125,11482,8,AX,1,100,-0.650
1572441035.118656,68903.250,11482,8,AX,1,100,-0.656
1572441035.135409,68916.375,11482,8,AX,1,100,-0.677
1572441035.152162,68929.500,11482,8,AX,1,100,-0.678
1572441035.168915,68942.625,11482,8,AX,1,100,-0.705
1572441035.185668,68955.750,11482,8,AX,1,100,-0.708
1572441035.202421,68968.875,11482,8,AX,1,100,-0.700
1572441035.219174,68982.000,11482,8,AX,1,100,-0.670
1572441035.235767,68995.000,11499,7,AX,1,100,-0.654
1572441035.252361,69008.000,11499,7,AX,1,100,-0.631
1572441035.268954,69021.000,11499,7,AX,1,100,-0.633
1572441035.285547,69034.000,11499,7,AX,1,100,-0.639
1572441035.302141,69047.000,11499,7,AX,1,100,-0.648
1572441035.318734,69060.000,11499,7,AX,1,100,-0.669
1572441035.335328,69073.000,11499,7,AX,1,100,-0.684
1572441035.352081,69086.125,11517,8,AX,1,100,-0.690
1572441035.368834,69099.250,11517,8,AX,1,100,-0.696
1572441035.385587,69112.375,11517,8,AX,1,100,-0.695
1572441035.402339,69125.500,11517,8,AX,1,100,-0.674
1572441035.419092,69138.625,11517,8,AX,1,100,-0.656
1572441035.435845,69151.750,11517,8,AX,1,100,-0.646
1572441035.452598,69164.875,11517,8,AX,1,100,-0.639
1572441035.469351,69178.000,11517,8,AX,1,100,-0.640
1572441035.485945,69191.000,11535,8,AX,1,100,-0.640
1572441035.502538,69204.000,11535,8,AX,1,100,-0.656
1572441035.519131,69217.000,11535,8,AX,1,100,-0.670
1572441035.535725,69230.000,11535,8,AX,1,100,-0.672
1572441035.552318,69243.000,11535,8,AX,1,100,-0.672
1572441035.568912,69256.000,11535,8,AX,1,100,-0.669
1572441035.585505,69269.000,11535,8,AX,1,100,-0.662
1572441035.602098,69282.000,11535,8,AX,1,100,-0.654
1572441035.618851,69295.125,11553,8,AX,1,100,-0.648
1572441035.635604,69308.250,11553,8,AX,1,100,-0.641
1572441035.652357,69321.375,11553,8,AX,1,100,-0.639
1572441035.669110,69334.500,11553,8,AX,1,100,-0.640
1572441035.685863,69347.625,11553,8,AX,1,100,-0.647
1572441035.702616,69360.750,11553,8,AX,1,100,-0.661
1572441035.719369,69373.875,11553,8,AX,1,100,-0.667
1572441035.736122,69387.000,11553,8,AX,1,100,-0.664
1572441035.752715,69400.000,11571,7,AX,1,100,-0.666
1572441035.769309,69413.000,11571,7,AX,1,100,-0.661
1572441035.785902,69426.000,11571,7,AX,1,100,-0.652
1572441035.802495,69439.000,11571,7,AX,1,100,-0.654
1572441035.819089,69452.000,11571,7,AX,1,100,-0.646
1572441035.835682,69465.000,11571,7,AX,1,100,-0.644
1572441035.852276,69478.000,11571,7,AX,1,100,-0.646
1572441035.868869,69491.000,11590,8,AX,1,100,-0.647
1572441035.885462,69504.000,11590,8,AX,1,100,-0.657
1572441035.902056,69517.000,11590,8,AX,1,100,-0.662
1572441035.918649,69530.000,11590,8,AX,1,100,-0.667
1572441035.935242,69543.000,11590,8,AX,1,100,-0.669
1572441035.951836,69556.000,11590,8,AX,1,100,-0.662
1572441035.968429,69569.000,11590,8,AX,1,100,-0.659
1572441035.985023,69582.000,11590,8,AX,1,100,-0.653
1572441036.001297,69594.750,11608,8,AX,1,100,-0.646
1572441036.017571,69607.500,11608,8,AX,1,100,-0.653
1572441036.033846,69620.250,11608,8,AX,1,100,-0.656
1572441036.050120,69633.000,11608,8,AX,1,100,-0.654
1572441036.066394,69645.750,11608,8,AX,1,100,-0.662
1572441036.082669,69658.500,11608,8,AX,1,100,-0.656
1572441036.098943,69671.250,11608,8,AX,1,100,-0.659
1572441036.115217,69684.000,11608,8,AX,1,100,-0.664
1572441036.131810,69697.000,11626,8,AX,1,100,-0.660
1572441036.148404,69710.000,11626,8,AX,1,100,-0.663
1572441036.164997,69723.000,11626,8,AX,1,100,-0.656
1572441036.181591,69736.000,11626,8,AX,1,100,-0.658
1572441036.198184,69749.000,11626,8,AX,1,100,-0.657
1572441036.214777,69762.000,11626,8,AX,1,100,-0.657
1572441036.231371,69775.000,11626,8,AX,1,100,-0.660
1572441036.247964,69788.000,11626,8,AX,1,100,-0.671
1572441036.264558,69801.000,11644,8,AX,1,100,-0.683
1572441036.281151,69814.000,11644,8,AX,1,100,-0.687
1572441036.297744,69827.000,11644,8,AX,1,100,-0.689
1572441036.314338,69840.000,11644,8,AX,1,100,-0.683
1572441036.330931,69853.000,11644,8,AX,1,100,-0.674
1572441036.347524,69866.000,11644,8,AX,1,100,-0.659
1572441036.364118,69879.000,11644,8,AX,1,100,-0.636
1572441036.380711,69892.000,11644,8,AX,1,100,-0.637
1572441036.397305,69905.000,11662,7,AX,1,100,-0.632
1572441036.413898,69918.000,11662,7,AX,1,100,-0.642
1572441036.430491,69931.000,11662,7,AX,1,100,-0.648
1572441036.447085,69944.000,11662,7,AX,1,100,-0.666
1572441036.463678,69957.000,11662,7,AX,1,100,-0.669
1572441036.480272,69970.000,11662,7,AX,1,100,-0.669
1572441036.496865,69983.000,11662,7,AX,1,100,-0.675
1572441036.513458,69996.000,11680,8,AX,1,100,-0.665
1572441036.530052,70009.000,11680,8,AX,1,100,-0.661
1572441036.546645,70022.000,11680,8,AX,1,100,-0.647
1572441036.563239,70035.000,11680,8,AX,1,100,-0.640
1572441036.579832,70048.000,11680,8,AX,1,100,-0.635
1572441036.596425,70061.000,11680,8,AX,1,100,-0.644
1572441036.613019,70074.000,11680,8,AX,1,100,-0.647
1572441036.629612,70087.000,11680,8,AX,1,100,-0.659
1572441036.646206,70100.000,11698,8,AX,1,100,-0.672
1572441036.662799,70113.000,11698,8,AX,1,100,-0.676
1572441036.679392,70126.000,11698,8,AX,1,100,-0.678
1572441036.695986,70139.000,11698,8,AX,1,100,-0.660
1572441036.712579,70152.000,11698,8,AX,1,100,-0.651
1572441036.729172,70165.000,11698,8,AX,1,100,-0.631
1572441036.745766,70178.000,11698,8,AX,1,100,-0.619
1572441036.762359,70191.000,11698,8,AX,1,100,-0.618
1572441036.779112,70204.125,11716,8,AX,1,100,-0.615
1572441036.795865,70217.250,11716,8,AX,1,100,-0.618
1572441036.812618,70230.375,11716,8,AX,1,100,-0.621
1572441036.829371,70243.500,11716,8,AX,1,100,-0.631
1572441036.846124,70256.625,11716,8,AX,1,100,-0.636
1572441036.862877,70269.750,11716,8,AX,1,100,-0.636
1572441036.879630,70282.875,11716,8,AX,1,100,-0.657
1572441036.896383,70296.000,11716,8,AX,1,100,-0.653
1572441036.913341,70309.286,11735,7,AX,1,100,-0.667
1572441036.930299,70322.571,11735,7,AX,1,100,-0.651
1572441036.947257,70335.857,11735,7,AX,1,100,-0.657
1572441036.964215,70349.143,11735,7,AX,1,100,-0.652
1572441036.981173,70362.429,11735,7,AX,1,100,-0.653
1572441036.998131,70375.714,11735,7,AX,1,100,-0.645
1572441037.015090,70389.000,11735,7,AX,1,100,-0.634
1572441037.031523,70401.875,11753,8,AX,1,100,-0.627
1572441037.047957,70414.750,11753,8,AX,1,100,-0.621
1572441037.064391,70427.625,11753,8,AX,1,100,-0.619
1572441037.080825,70440.500,11753,8,AX,1,100,-0.608
1572441037.097259,70453.375,11753,8,AX,1,100,-0.610
1572441037.113693,70466.250,11753,8,AX,1,100,-0.604
1572441037.130126,70479.125,11753,8,AX,1,100,-0.606
1572441037.146560,70492.000,11753,8,AX,1,100,-0.610
1572441037.163154,70505.000,11771,8,AX,1,100,-0.606
1572441037.179747,70518.000,11771,8,AX,1,100,-0.606
1572441037.196340,70531.000,11771,8,AX,1,100,-0.610
1572441037.212934,70544.000,11771,8,AX,1,100,-0.623
1572441037.229527,70557.000,11771,8,AX,1,100,-0.625
1572441037.246120,70570.000,11771,8,AX,1,100,-0.633
1572441037.262714,70583.000,11771,8,AX,1,100,-0.636
1572441037.279307,70596.000,11771,8,AX,1,100,-0.627
1572441037.295718,70608.857,11789,7,AX,1,100,-0.633
1572441037.312129,70621.714,11789,7,AX,1,100,-0.622
1572441037.328541,70634.571,11789,7,AX,1,100,-0.618
1572441037.344951,70647.429,11789,7,AX,1,100,-0.615
1572441037.361362,70660.286,11789,7,AX,1,100,-0.614
1572441037.377774,70673.143,11789,7,AX,1,100,-0.615
1572441037.394185,70686.000,11789,7,AX,1,100,-0.614
1572441037.411097,70699.250,11807,8,AX,1,100,-0.600
1572441037.428010,70712.500,11807,8,AX,1,100,-0.602
1572441037.444922,70725.750,11807,8,AX,1,100,-0.591
1572441037.461835,70739.000,11807,8,AX,1,100,-0.589
1572441037.478747,70752.250,11807,8,AX,1,100,-0.596
1572441037.495660,70765.500,11807,8,AX,1,100,-0.579
1572441037.512572,70778.750,11807,8,AX,1,100,-0.585
1572441037.529485,70792.000,11807,8,AX,1,100,-0.594
1572441037.546237,70805.125,11825,8,AX,1,100,-0.614
1572441037.562990,70818.250,11825,8,AX,1,100,-0.614
1572441037.579743,70831.375,11825,8,AX,1,100,-0.610
1572441037.596496,70844.500,11825,8,AX,1,100,-0.610
1572441037.613249,70857.625,11825,8,AX,1,100,-0.608
1572441037.630002,70870.750,11825,8,AX,1,100,-0.620
1572441037.646755,70883.875,11825,8,AX,1,100,-0.618
1572441037.663508,70897.000,11825,8,AX,1,100,-0.617
1572441037.680261,70910.125,11843,8,AX,1,100,-0.617
1572441037.697014,70923.250,11843,8,AX,1,100,-0.619
1572441037.713767,70936.375,11843,8,AX,1,100,-0.612
1572441037.730520,70949.500,11843,8,AX,1,100,-0.599
1572441037.747273,70962.625,11843,8,AX,1,100,-0.602
1572441037.764026,70975.750,11843,8,AX,1,100,-0.601
1572441037.780779,70988.875,11843,8,AX,1,100,-0.602
1572441037.797532,71002.000,11843,8,AX,1,100,-0.604
1572441037.814307,71015.143,11861,7,AX,1,100,-0.613
1572441037.831083,71028.286,11861,7,AX,1,100,-0.615
1572441037.847859,71041.429,11861,7,AX,1,100,-0.618
1572441037.864635,71054.571,11861,7,AX,1,100,-0.627
1572441037.881410,71067.714,11861,7,AX,1,100,-0.634
1572441037.898186,71080.857,11861,7,AX,1,100,-0.636
1572441037.914962,71094.000,11861,7,AX,1,100,-0.642
1572441037.931715,71107.125,11880,8,AX,1,100,-0.654
1572441037.948468,71120.250,11880,8,AX,1,100,-0.653
1572441037.965221,71133.375,11880,8,AX,1,100,-0.655
1572441037.981974,71146.500,11880,8,AX,1,100,-0.653
1572441037.998727,71159.625,11880,8,AX,1,100,-0.654
1572441038.015480,71172.750,11880,8,AX,1,100,-0.648
1572441038.032233,71185.875,11880,8,AX,1,100,-0.654
1572441038.048985,71199.000,11880,8,AX,1,100,-0.651
1572441038.065738,71212.125,11898,8,AX,1,100,-0.640
1572441038.082491,71225.250,11898,8,AX,1,100,-0.632
1572441038.099244,71238.375,11898,8,AX,1,100,-0.636
1572441038.115997,71251.500,11898,8,AX,1,100,-0.641
1572441038.132750,71264.625,11898,8,AX,1,100,-0.646
1572441038.149503,71277.750,11898,8,AX,1,100,-0.647
1572441038.166256,71290.875,11898,8,AX,1,100,-0.645
1572441038.183009,71304.000,11898,8,AX,1,100,-0.660
1572441038.199602,71317.000,11915,7,AX,1,100,-0.677
1572441038.216196,71330.000,11915,7,AX,1,100,-0.692
1572441038.232789,71343.000,11915,7,AX,1,100,-0.702
1572441038.249382,71356.000,11915,7,AX,1,100,-0.713
1572441038.265976,71369.000,11915,7,AX,1,100,-0.719
1572441038.282569,71382.000,11915,7,AX,1,100,-0.716
1572441038.299163,71395.000,11915,7,AX,1,100,-0.708
1572441038.315597,71407.875,11933,8,AX,1,100,-0.693
1572441038.332030,71420.750,11933,8,AX,1,100,-0.686
1572441038.348464,71433.625,11933,8,AX,1,100,-0.673
1572441038.364898,71446.500,11933,8,AX,1,100,-0.667
1572441038.381332,71459.375,11933,8,AX,1,100,-0.664
1572441038.397766,71472.250,11933,8,AX,1,100,-0.663
1572441038.414200,71485.125,11933,8,AX,1,100,-0.666
1572441038.430634,71498.000,11933,8,AX,1,100,-0.675
1572441038.447546,71511.250,11951,8,AX,1,100,-0.656
1572441038.464458,71524.500,11951,8,AX,1,100,-0.666
1572441038.481371,71537.750,11951,8,AX,1,100,-0.658
1572441038.498283,71551.000,11951,8,AX,1,100,-0.659
1572441038.515196,71564.250,11951,8,AX,1,100,-0.651
1572441038.532109,71577.500,11951,8,AX,1,100,-0.644
1572441038.549021,71590.750,11951,8,AX,1,100,-0.647
1572441038.565933,71604.000,11951,8,AX,1,100,-0.656
1572441038.582686,71617.125,11969,8,AX,1,100,-0.671
1572441038.599439,71630.250,11969,8,AX,1,100,-0.667
1572441038.616192,71643.375,11969,8,AX,1,100,-0.663
1572441038.632945,71656.500,11969,8,AX,1,100,-0.655
1572441038.649698,71669.625,11969,8,AX,1,100,-0.655
1572441038.666451,71682.750,11969,8,AX,1,100,-0.664
1572441038.683204,71695.875,11969,8,AX,1,100,-0.659
1572441038.699957,71709.000,11969,8,AX,1,100,-0.653
1572441038.716391,71721.875,11987,8,AX,1,100,-0.640
1572441038.732825,71734.750,11987,8,AX,1,100,-0.633
1572441038.749259,71747.625,11987,8,AX,1,100,-0.638
1572441038.765692,71760.500,11987,8,AX,1,100,-0.636
1572441038.782126,71773.375,11987,8,AX,1,100,-0.636
1572441038.798560,71786.250,11987,8,AX,1,100,-0.626
1572441038.814994,71799.125,11987,8,AX,1,100,-0.631
1572441038.831428,71812.000,11987,8,AX,1,100,-0.634
1572441038.848751,71825.571,12005,7,AX,1,100,-0.624
1572441038.866073,71839.143,12005,7,AX,1,100,-0.616
1572441038.883396,71852.714,12005,7,AX,1,100,-0.628
1572441038.900719,71866.286,12005,7,AX,1,100,-0.625
1572441038.918041,71879.857,12005,7,AX,1,100,-0.631
1572441038.935364,71893.429,12005,7,AX,1,100,-0.622
1572441038.952687,71907.000,12005,7,AX,1,100,-0.620
1572441038.969121,71919.875,12024,8,AX,1,100,-0.624
1572441038.985555,71932.750,12024,8,AX,1,100,-0.639
1572441039.001989,71945.625,12024,8,AX,1,100,-0.639
1572441039.018422,71958.500,12024,8,AX,1,100,-0.642
1572441039.034856,71971.375,12024,8,AX,1,100,-0.642
1572441039.051290,71984.250,12024,8,AX,1,100,-0.648
1572441039.067724,71997.125,12024,8,AX,1,100,-0.641
1572441039.084158,72010.000,12024,8,AX,1,100,-0.641
1572441039.100592,72022.875,12041,8,AX,1,100,-0.644
1572441039.117026,72035.750,12041,8,AX,1,100,-0.634
1572441039.133459,72048.625,12041,8,AX,1,100,-0.637
1572441039.149893,72061.500,12041,8,AX,1,100,-0.644
1572441039.166327,72074.375,12041,8,AX,1,100,-0.638
1572441039.182761,72087.250,12041,8,AX,1,100,-0.641
1572441039.199195,72100.125,12041,8,AX,1,100,-0.653
1572441039.215629,72113.000,12041,8,AX,1,100,-0.672
1572441039.232040,72125.857,12058,7,AX,1,100,-0.675
1572441039.248451,72138.714,12058,7,AX,1,100,-0.686
1572441039.264862,72151.571,12058,7,AX,1,100,-0.688
1572441039.281273,72164.429,12058,7,AX,1,100,-0.672
1572441039.297684,72177.286,12058,7,AX,1,100,-0.662
1572441039.314095,72190.143,12058,7,AX,1,100,-0.647
1572441039.330506,72203.000,12058,7,AX,1,100,-0.640
1572441039.347099,72216.000,12076,8,AX,1,100,-0.631
1572441039.363693,72229.000,12076,8,AX,1,100,-0.630
1572441039.380286,72242.000,12076,8,AX,1,100,-0.627
1572441039.396879,72255.000,12076,8,AX,1,100,-0.628
1572441039.413473,72268.000,12076,8,AX,1,100,-0.631
1572441039.430066,72281.000,12076,8,AX,1,100,-0.632
1572441039.446660,72294.000,12076,8,AX,1,100,-0.641
1572441039.463253,72307.000,12076,8,AX,1,100,-0.644
1572441039.479687,72319.875,12094,8,AX,1,100,-0.646
1572441039.496121,72332.750,12094,8,AX,1,100,-0.660
1572441039.512555,72345.625,12094,8,AX,1,100,-0.671
1572441039.528988,72358.500,12094,8,AX,1,100,-0.680
1572441039.545422,72371.375,12094,8,AX,1,100,-0.683
1572441039.561856,72384.250,12094,8,AX,1,100,-0.685
1572441039.578290,72397.125,12094,8,AX,1,100,-0.686
1572441039.594724,72410.000,12094,8,AX,1,100,-0.689
1572441039.611408,72423.071,12115,14,AX,1,100,-0.688
1572441039.628093,72436.143,12115,14,AX,1,100,-0.684
1572441039.644778,72449.214,12115,14,AX,1,100,-0.674
1572441039.661462,72462.286,12115,14,AX,1,100,-0.670
1572441039.678147,72475.357,12115,14,AX,1,100,-0.672
1572441039.694831,72488.429,12115,14,AX,1,100,-0.671
1572441039.711516,72501.500,12115,14,AX,1,100,-0.663
1572441039.728200,72514.571,12115,14,AX,1,100,-0.660
1572441039.744885,72527.643,12115,14,AX,1,100,-0.656
1572441039.761569,72540.714,12115,14,AX,1,100,-0.657
1572441039.778254,72553.786,12115,14,AX,1,100,-0.659
1572441039.794939,72566.857,12115,14,AX,1,100,-0.660
1572441039.811623,72579.929,12115,14,AX,1,100,-0.665
1572441039.828308,72593.000,12115,14,AX,1,100,-0.669
1572441039.845266,72606.286,12135,7,AX,1,100,-0.670
1572441039.862224,72619.571,12135,7,AX,1,100,-0.667
1572441039.879182,72632.857,12135,7,AX,1,100,-0.665
1572441039.896140,72646.143,12135,7,AX,1,100,-0.667
1572441039.913098,72659.429,12135,7,AX,1,100,-0.667
1572441039.930056,72672.714,12135,7,AX,1,100,-0.669
1572441039.947014,72686.000,12135,7,AX,1,100,-0.669
1572441039.963767,72699.125,12154,8,AX,1,100,-0.673
1572441039.980520,72712.250,12154,8,AX,1,100,-0.677
1572441039.997273,72725.375,12154,8,AX,1,100,-0.680
1572441040.014026,72738.500,12154,8,AX,1,100,-0.675
1572441040.030779,72751.625,12154,8,AX,1,100,-0.668
1572441040.047532,72764.750,12154,8,AX,1,100,-0.663
1572441040.064285,72777.875,12154,8,AX,1,100,-0.662
1572441040.081038,72791.000,12154,8,AX,1,100,-0.668
1572441040.097449,72803.857,12172,7,AX,1,100,-0.674
1572441040.113860,72816.714,12172,7,AX,1,100,-0.673
1572441040.130271,72829.571,12172,7,AX,1,100,-0.673
1572441040.146682,72842.429,12172,7,AX,1,100,-0.673
1572441040.163093,72855.286,12172,7,AX,1,100,-0.674
1572441040.179504,72868.143,12172,7,AX,1,100,-0.672
1572441040.195915,72881.000,12172,7,AX,1,100,-0.676
1572441040.212508,72894.000,12190,8,AX,1,100,-0.685
1572441040.229102,72907.000,12190,8,AX,1,100,-0.691
1572441040.245695,72920.000,12190,8,AX,1,100,-0.703
1572441040.262289,72933.000,12190,8,AX,1,100,-0.701
1572441040.278882,72946.000,12190,8,AX,1,100,-0.688
1572441040.295475,72959.000,12190,8,AX,1,100,-0.672
1572441040.312069,72972.000,12190,8,AX,1,100,-0.668
1572441040.328662,72985.000,12190,8,AX,1,100,-0.658
1572441040.345415,72998.125,12208,8,AX,1,100,-0.650
1572441040.362168,73011.250,12208,8,AX,1,100,-0.653
1572441040.378921,73024.375,12208,8,AX,1,100,-0.668
1572441040.395674,73037.500,12208,8,AX,1,100,-0.661
1572441040.412427,73050.625,12208,8,AX,1,100,-0.664
1572441040.429180,73063.750,12208,8,AX,1,100,-0.657
1572441040.445933,73076.875,12208,8,AX,1,100,-0.653
1572441040.462686,73090.000,12208,8,AX,1,100,-0.659
1572441040.479279,73103.000,12226,8,AX,1,100,-0.665
1572441040.495872,73116.000,12226,8,AX,1,100,-0.661
1572441040.512466,73129.000,12226,8,AX,1,100,-0.656
1572441040.529059,73142.000,12226,8,AX,1,100,-0.667
1572441040.545653,73155.000,12226,8,AX,1,100,-0.669
1572441040.562246,73168.000,12226,8,AX,1,100,-0.668
1572441040.578840,73181.000,12226,8,AX,1,100,-0.664
1572441040.595433,73194.000,12226,8,AX,1,100,-0.662
1572441040.612391,73207.286,12244,7,AX,1,100,-0.667
1572441040.629349,73220.571,12244,7,AX,1,100,-0.661
1572441040.646307,73233.857,12244,7,AX,1,100,-0.661
1572441040.663265,73247.143,12244,7,AX,1,100,-0.656
1572441040.680223,73260.429,12244,7,AX,1,100,-0.657
1572441040.697181,73273.714,12244,7,AX,1,100,-0.656
1572441040.714139,73287.000,12244,7,AX,1,100,-0.658
1572441040.730892,73300.125,12262,8,AX,1,100,-0.657
1572441040.747645,73313.250,12262,8,AX,1,100,-0.656
1572441040.764398,73326.375,12262,8,AX,1,100,-0.661
1572441040.781151,73339.500,12262,8,AX,1,100,-0.669
1572441040.797904,73352.625,12262,8,AX,1,100,-0.669
1572441040.814657,73365.750,12262,8,AX,1,100,-0.668
1572441040.831410,73378.875,12262,8,AX,1,100,-0.669
1572441040.848163,73392.000,12262,8,AX,1,100,-0.666
1572441040.864939,73405.143,12279,7,AX,1,100,-0.664
1572441040.881715,73418.286,12279,7,AX,1,100,-0.663
1572441040.898490,73431.429,12279,7,AX,1,100,-0.664
1572441040.915266,73444.571,12279,7,AX,1,100,-0.671
1572441040.932042,73457.714,12279,7,AX,1,100,-0.669
1572441040.948817,73470.857,12279,7,AX,1,100,-0.668
1572441040.965593,73484.000,12279,7,AX,1,100,-0.666
1572441040.982506,73497.250,12298,8,AX,1,100,-0.659
1572441040.999418,73510.500,12298,8,AX,1,100,-0.644
1572441041.016331,73523.750,12298,8,AX,1,100,-0.631
1572441041.033243,73537.000,12298,8,AX,1,100,-0.630
1572441041.050156,73550.250,12298,8,AX,1,100,-0.625
1572441041.067068,73563.500,12298,8,AX,1,100,-0.634
1572441041.083981,73576.750,12298,8,AX,1,100,-0.641
1572441041.100893,73590.000,12298,8,AX,1,100,-0.649
1572441041.117327,73602.875,12316,8,AX,1,100,-0.653
1572441041.133761,73615.750,12316,8,AX,1,100,-0.648
1572441041.150195,73628.625,12316,8,AX,1,100,-0.649
1572441041.166629,73641.500,12316,8,AX,1,100,-0.650
1572441041.183062,73654.375,12316,8,AX,1,100,-0.653
1572441041.199496,73667.250,12316,8,AX,1,100,-0.660
1572441041.215930,73680.125,12316,8,AX,1,100,-0.657
1572441041.232364,73693.000,12316,8,AX,1,100,-0.654
1572441041.249276,73706.250,12334,8,AX,1,100,-0.648
1572441041.266189,73719.500,12334,8,AX,1,100,-0.642
1572441041.283101,73732.750,12334,8,AX,1,100,-0.640
1572441041.300014,73746.000,12334,8,AX,1,100,-0.632
1572441041.316926,73759.250,12334,8,AX,1,100,-0.633
1572441041.333839,73772.500,12334,8,AX,1,100,-0.633
1572441041.350751,73785.750,12334,8,AX,1,100,-0.634
1572441041.367664,73799.000,12334,8,AX,1,100,-0.634
1572441041.384440,73812.143,12352,7,AX,1,100,-0.635
1572441041.401215,73825.286,12352,7,AX,1,100,-0.630
1572441041.417991,73838.429,12352,7,AX,1,100,-0.630
1572441041.434767,73851.571,12352,7,AX,1,100,-0.633
1572441041.451543,73864.714,12352,7,AX,1,100,-0.643
1572441041.468318,73877.857,12352,7,AX,1,100,-0.644
1572441041.485094,73891.000,12352,7,AX,1,100,-0.649
1572441041.501847,73904.125,12370,8,AX,1,100,-0.654
1572441041.518600,73917.250,12370,8,AX,1,100,-0.655
1572441041.535353,73930.375,12370,8,AX,1,100,-0.655
1572441041.552106,73943.500,12370,8,AX,1,100,-0.653
1572441041.568859,73956.625,12370,8,AX,1,100,-0.652
1572441041.585612,73969.750,12370,8,AX,1,100,-0.645
1572441041.602365,73982.875,12370,8,AX,1,100,-0.644
1572441041.619118,73996.000,12370,8,AX,1,100,-0.643
1572441041.636030,74009.250,12388,8,AX,1,100,-0.634
1572441041.652943,74022.500,12388,8,AX,1,100,-0.631
1572441041.669855,74035.750,12388,8,AX,1,100,-0.634
1572441041.686768,74049.000,12388,8,AX,1,100,-0.636
1572441041.703680,74062.250,12388,8,AX,1,100,-0.636
1572441041.720592,74075.500,12388,8,AX,1,100,-0.635
1572441041.737505,74088.750,12388,8,AX,1,100,-0.635
1572441041.754418,74102.000,12388,8,AX,1,100,-0.633
1572441041.770851,74114.875,12406,8,AX,1,100,-0.646
1572441041.787285,74127.750,12406,8,AX,1,100,-0.646
1572441041.803719,74140.625,12406,8,AX,1,100,-0.645
1572441041.820153,74153.500,12406,8,AX,1,100,-0.644
1572441041.836587,74166.375,12406,8,AX,1,100,-0.646
1572441041.853021,74179.250,12406,8,AX,1,100,-0.646
1572441041.869454,74192.125,12406,8,AX,1,100,-0.640
1572441041.885888,74205.000,12406,8,AX,1,100,-0.639
1572441041.902482,74218.000,12422,7,AX,1,100,-0.636
1572441041.919075,74231.000,12422,7,AX,1,100,-0.637
1572441041.935668,74244.000,12422,7,AX,1,100,-0.635
1572441041.952262,74257.000,12422,7,AX,1,100,-0.627
1572441041.968855,74270.000,12422,7,AX,1,100,-0.624
1572441041.985449,74283.000,12422,7,AX,1,100,-0.622
1572441042.002042,74296.000,12422,7,AX,1,100,-0.623
1572441042.018636,74309.000,12441,8,AX,1,100,-0.623
1572441042.035229,74322.000,12441,8,AX,1,100,-0.626
1572441042.051822,74335.000,12441,8,AX,1,100,-0.626
1572441042.068416,74348.000,12441,8,AX,1,100,-0.630
1572441042.085009,74361.000,12441,8,AX,1,100,-0.636
1572441042.101602,74374.000,12441,8,AX,1,100,-0.638
1572441042.118196,74387.000,12441,8,AX,1,100,-0.640
1572441042.134789,74400.000,12441,8,AX,1,100,-0.640
1572441042.151383,74413.000,12459,8,AX,1,100,-0.638
1572441042.167976,74426.000,12459,8,AX,1,100,-0.638
1572441042.184569,74439.000,12459,8,AX,1,100,-0.636
1572441042.201163,74452.000,12459,8,AX,1,100,-0.636
1572441042.217756,74465.000,12459,8,AX,1,100,-0.628
1572441042.234349,74478.000,12459,8,AX,1,100,-0.631
1572441042.250943,74491.000,12459,8,AX,1,100,-0.627
1572441042.267536,74504.000,12459,8,AX,1,100,-0.625
1572441042.283811,74516.750,12477,8,AX,1,100,-0.627
1572441042.300085,74529.500,12477,8,AX,1,100,-0.626
1572441042.316359,74542.250,12477,8,AX,1,100,-0.625
1572441042.332633,74555.000,12477,8,AX,1,100,-0.624
1572441042.348908,74567.750,12477,8,AX,1,100,-0.625
1572441042.365182,74580.500,12477,8,AX,1,100,-0.626
1572441042.381456,74593.250,12477,8,AX,1,100,-0.626
1572441042.397731,74606.000,12477,8,AX,1,100,-0.633
1572441042.414324,74619.000,12495,8,AX,1,100,-0.632
1572441042.430918,74632.000,12495,8,AX,1,100,-0.630
1572441042.447511,74645.000,12495,8,AX,1,100,-0.634
1572441042.464104,74658.000,12495,8,AX,1,100,-0.635
1572441042.480698,74671.000,12495,8,AX,1,100,-0.634
1572441042.497291,74684.000,12495,8,AX,1,100,-0.635
1572441042.513884,74697.000,12495,8,AX,1,100,-0.630
1572441042.530478,74710.000,12495,8,AX,1,100,-0.626
1572441042.547071,74723.000,12513,7,AX,1,100,-0.626
1572441042.563665,74736.000,12513,7,AX,1,100,-0.623
1572441042.580258,74749.000,12513,7,AX,1,100,-0.622
1572441042.596851,74762.000,12513,7,AX,1,100,-0.621
1572441042.613445,74775.000,12513,7,AX,1,100,-0.619
1572441042.630038,74788.000,12513,7,AX,1,100,-0.611
1572441042.646631,74801.000,12513,7,AX,1,100,-0.616
1572441042.663384,74814.125,12531,8,AX,1,100,-0.619
1572441042.680137,74827.250,12531,8,AX,1,100,-0.618
1572441042.696890,74840.375,12531,8,AX,1,100,-0.624
1572441042.713643,74853.500,12531,8,AX,1,100,-0.629
1572441042.730396,74866.625,12531,8,AX,1,100,-0.629
1572441042.747149,74879.750,12531,8,AX,1,100,-0.628
1572441042.763902,74892.875,12531,8,AX,1,100,-0.631
1572441042.780655,74906.000,12531,8,AX,1,100,-0.626
1572441042.797249,74919.000,12549,8,AX,1,100,-0.624
1572441042.813842,74932.000,12549,8,AX,1,100,-0.621
1572441042.830435,74945.000,12549,8,AX,1,100,-0.620
1572441042.847029,74958.000,12549,8,AX,1,100,-0.621
1572441042.863622,74971.000,12549,8,AX,1,100,-0.625
1572441042.880215,74984.000,12549,8,AX,1,100,-0.625
1572441042.896809,74997.000,12549,8,AX,1,100,-0.620
1572441042.913402,75010.000,12549,8,AX,1,100,-0.621
1572441042.929996,75023.000,12568,7,AX,1,100,-0.624
1572441042.946589,75036.000,12568,7,AX,1,100,-0.626
1572441042.963182,75049.000,12568,7,AX,1,100,-0.631
1572441042.979776,75062.000,12568,7,AX,1,100,-0.635
1572441042.996369,75075.000,12568,7,AX,1,100,-0.639
1572441043.012963,75088.000,12568,7,AX,1,100,-0.649
1572441043.029556,75101.000,12568,7,AX,1,100,-0.643
1572441043.046309,75114.125,12586,8,AX,1,100,-0.653
1572441043.063062,75127.250,12586,8,AX,1,100,-0.653
1572441043.079815,75140.375,12586,8,AX,1,100,-0.651
1572441043.096568,75153.500,12586,8,AX,1,100,-0.652
1572441043.113321,75166.625,12586,8,AX,1,100,-0.647
1572441043.130074,75179.750,12586,8,AX,1,100,-0.646
1572441043.146827,75192.875,12586,8,AX,1,100,-0.645
1572441043.163579,75206.000,12586,8,AX,1,100,-0.643
1572441043.180173,75219.000,12604,8,AX,1,100,-0.646
1572441043.196766,75232.000,12604,8,AX,1,100,-0.643
1572441043.213360,75245.000,12604,8,AX,1,100,-0.640
1572441043.229953,75258.000,12604,8,AX,1,100,-0.644
1572441043.246547,75271.000,12604,8,AX,1,100,-0.645
1572441043.263140,75284.000,12604,8,AX,1,100,-0.646
1572441043.279733,75297.000,12604,8,AX,1,100,-0.646
1572441043.296327,75310.000,12604,8,AX,1,100,-0.646
1572441043.312920,75323.000,12622,8,AX,1,100,-0.644
1572441043.329514,75336.000,12622,8,AX,1,100,-0.652
1572441043.346107,75349.000,12622,8,AX,1,100,-0.649
1572441043.362700,75362.000,12622,8,AX,1,100,-0.647
1572441043.379294,75375.000,12622,8,AX,1,100,-0.642
1572441043.395887,75388.000,12622,8,AX,1,100,-0.644
1572441043.412480,75401.000,12622,8,AX,1,100,-0.647
1572441043.429074,75414.000,12622,8,AX,1,100,-0.644
1572441043.445667,75427.000,12640,8,AX,1,100,-0.644
1572441043.462260,75440.000,12640,8,AX,1,100,-0.645
1572441043.478854,75453.000,12640,8,AX,1,100,-0.641
1572441043.495447,75466.000,12640,8,AX,1,100,-0.639
1572441043.512041,75479.000,12640,8,AX,1,100,-0.641
1572441043.528634,75492.000,12640,8,AX,1,100,-0.639
1572441043.545228,75505.000,12640,8,AX,1,100,-0.641
1572441043.561821,75518.000,12640,8,AX,1,100,-0.645
1572441043.578597,75531.143,12658,7,AX,1,100,-0.642
1572441043.595372,75544.286,12658,7,AX,1,100,-0.644
1572441043.612148,75557.429,12658,7,AX,1,100,-0.643
1572441043.628924,75570.571,12658,7,AX,1,100,-0.649
1572441043.645700,75583.714,12658,7,AX,1,100,-0.647
1572441043.662475,75596.857,12658,7,AX,1,100,-0.647
1572441043.679251,75610.000,12658,7,AX,1,100,-0.641
1572441043.696323,75623.375,12676,8,AX,1,100,-0.642
1572441043.713395,75636.750,12676,8,AX,1,100,-0.644
1572441043.730467,75650.125,12676,8,AX,1,100,-0.646
1572441043.747539,75663.500,12676,8,AX,1,100,-0.651
1572441043.764611,75676.875,12676,8,AX,1,100,-0.642
1572441043.781683,75690.250,12676,8,AX,1,100,-0.642
1572441043.798755,75703.625,12676,8,AX,1,100,-0.646
1572441043.815828,75717.000,12676,8,AX,1,100,-0.645
1572441043.832421,75730.000,12694,7,AX,1,100,-0.646
1572441043.849014,75743.000,12694,7,AX,1,100,-0.644
1572441043.865608,75756.000,12694,7,AX,1,100,-0.644
1572441043.882201,75769.000,12694,7,AX,1,100,-0.643
1572441043.898794,75782.000,12694,7,AX,1,100,-0.647
1572441043.915388,75795.000,12694,7,AX,1,100,-0.648
1572441043.931981,75808.000,12694,7,AX,1,100,-0.646
1572441043.948734,75821.125,12713,8,AX,1,100,-0.646
1572441043.965487,75834.250,12713,8,AX,1,100,-0.647
1572441043.982240,75847.375,12713,8,AX,1,100,-0.646
1572441043.998993,75860.500,12713,8,AX,1,100,-0.646
1572441044.015746,75873.625,12713,8,AX,1,100,-0.643
1572441044.032499,75886.750,12713,8,AX,1,100,-0.646
1572441044.049252,75899.875,12713,8,AX,1,100,-0.644
1572441044.066005,75913.000,12713,8,AX,1,100,-0.643
1572441044.082598,75926.000,12731,8,AX,1,100,-0.646
1572441044.099192,75939.000,12731,8,AX,1,100,-0.646
1572441044.115785,75952.000,12731,8,AX,1,100,-0.646
1572441044.132378,75965.000,12731,8,AX,1,100,-0.642
1572441044.148972,75978.000,12731,8,AX,1,100,-0.642
1572441044.165565,75991.000,12731,8,AX,1,100,-0.645
1572441044.182158,76004.000,12731,8,AX,1,100,-0.650
1572441044.198752,76017.000,12731,8,AX,1,100,-0.644
1572441044.215505,76030.125,12749,8,AX,1,100,-0.643
1572441044.232258,76043.250,12749,8,AX,1,100,-0.641
1572441044.249011,76056.375,12749,8,AX,1,100,-0.640
1572441044.265764,76069.500,12749,8,AX,1,100,-0.639
1572441044.282517,76082.625,12749,8,AX,1,100,-0.644
1572441044.299270,76095.750,12749,8,AX,1,100,-0.643
1572441044.316023,76108.875,12749,8,AX,1,100,-0.641
1572441044.332776,76122.000,12749,8,AX,1,100,-0.642
1572441044.349551,76135.143,12767,7,AX,1,100,-0.643
1572441044.366327,76148.286,12767,7,AX,1,100,-0.644
1572441044.383103,76161.429,12767,7,AX,1,100,-0.645
1572441044.399879,76174.571,12767,7,AX,1,100,-0.645
1572441044.416654,76187.714,12767,7,AX,1,100,-0.643
1572441044.433430,76200.857,12767,7,AX,1,100,-0.642
1572441044.450206,76214.000,12767,7,AX,1,100,-0.642
1572441044.466959,76227.125,12785,8,AX,1,100,-0.643
1572441044.483711,76240.250,12785,8,AX,1,100,-0.642
1572441044.500464,76253.375,12785,8,AX,1,100,-0.644
1572441044.517217,76266.500,12785,8,AX,1,100,-0.644
1572441044.533970,76279.625,12785,8,AX,1,100,-0.643
1572441044.550723,76292.750,12785,8,AX,1,100,-0.642
1572441044.567476,76305.875,12785,8,AX,1,100,-0.642
1572441044.584229,76319.000,12785,8,AX,1,100,-0.643
1572441044.600823,76332.000,12803,8,AX,1,100,-0.640
1572441044.617416,76345.000,12803,8,AX,1,100,-0.644
1572441044.634009,76358.000,12803,8,AX,1,100,-0.640
1572441044.650603,76371.000,12803,8,AX,1,100,-0.644
1572441044.667196,76384.000,12803,8,AX,1,100,-0.642
1572441044.683789,76397.000,12803,8,AX,1,100,-0.641
1572441044.700383,76410.000,12803,8,AX,1,100,-0.643
1572441044.716976,76423.000,12803,8,AX,1,100,-0.642
1572441044.733729,76436.125,12820,8,AX,1,100,-0.641
1572441044.750482,76449.250,12820,8,AX,1,100,-0.648
1572441044.767235,76462.375,12820,8,AX,1,100,-0.647
1572441044.783988,76475.500,12820,8,AX,1,100,-0.650
1572441044.800741,76488.625,12820,8,AX,1,100,-0.649
1572441044.817494,76501.750,12820,8,AX,1,100,-0.647
1572441044.834247,76514.875,12820,8,AX,1,100,-0.646
1572441044.851000,76528.000,12820,8,AX,1,100,-0.647
1572441044.867593,76541.000,12838,7,AX,1,100,-0.644
1572441044.884187,76554.000,12838,7,AX,1,100,-0.640
1572441044.900780,76567.000,12838,7,AX,1,100,-0.644
1572441044.917373,76580.000,12838,7,AX,1,100,-0.641
1572441044.933967,76593.000,12838,7,AX,1,100,-0.639
1572441044.950560,76606.000,12838,7,AX,1,100,-0.642
1572441044.967154,76619.000,12838,7,AX,1,100,-0.645
1572441044.983907,76632.125,12857,8,AX,1,100,-0.646
1572441045.000659,76645.250,12857,8,AX,1,100,-0.646
1572441045.017412,76658.375,12857,8,AX,1,100,-0.644
1572441045.034165,76671.500,12857,8,AX,1,100,-0.643
1572441045.050918,76684.625,12857,8,AX,1,100,-0.641
1572441045.067671,76697.750,12857,8,AX,1,100,-0.645
1572441045.084424,76710.875,12857,8,AX,1,100,-0.647
1572441045.101177,76724.000,12857,8,AX,1,100,-0.650
1572441045.117611,76736.875,12875,8,AX,1,100,-0.649
1572441045.134045,76749.750,12875,8,AX,1,100,-0.648
1572441045.150479,76762.625,12875,8,AX,1,100,-0.648
1572441045.166913,76775.500,12875,8,AX,1,100,-0.648
1572441045.183347,76788.375,12875,8,AX,1,100,-0.645
1572441045.199780,76801.250,12875,8,AX,1,100,-0.645
1572441045.216214,76814.125,12875,8,AX,1,100,-0.644
1572441045.232648,76827.000,12875,8,AX,1,100,-0.644
1572441045.249082,76839.875,12893,8,AX,1,100,-0.643
1572441045.265516,76852.750,12893,8,AX,1,100,-0.646
1572441045.281950,76865.625,12893,8,AX,1,100,-0.647
1572441045.298383,76878.500,12893,8,AX,1,100,-0.649
1572441045.314817,76891.375,12893,8,AX,1,100,-0.645
1572441045.331251,76904.250,12893,8,AX,1,100,-0.645
1572441045.347685,76917.125,12893,8,AX,1,100,-0.647
1572441045.364119,76930.000,12893,8,AX,1,100,-0.650
1572441045.380894,76943.143,12911,7,AX,1,100,-0.650
1572441045.397670,76956.286,12911,7,AX,1,100,-0.653
1572441045.414446,76969.429,12911,7,AX,1,100,-0.648
1572441045.431221,76982.571,12911,7,AX,1,100,-0.646
1572441045.447997,76995.714,12911,7,AX,1,100,-0.648
1572441045.464773,77008.857,12911,7,AX,1,100,-0.653
1572441045.481549,77022.000,12911,7,AX,1,100,-0.642
1572441045.497983,77034.875,12929,8,AX,1,100,-0.646
1572441045.514416,77047.750,12929,8,AX,1,100,-0.646
1572441045.530850,77060.625,12929,8,AX,1,100,-0.646
1572441045.547284,77073.500,12929,8,AX,1,100,-0.647
1572441045.563718,77086.375,12929,8,AX,1,100,-0.646
1572441045.580152,77099.250,12929,8,AX,1,100,-0.647
1572441045.596586,77112.125,12929,8,AX,1,100,-0.649
1572441045.613019,77125.000,12929,8,AX,1,100,-0.654
1572441045.629613,77138.000,12947,8,AX,1,100,-0.650
1572441045.646206,77151.000,12947,8,AX,1,100,-0.651
1572441045.662800,77164.000,12947,8,AX,1,100,-0.652
1572441045.679393,77177.000,12947,8,AX,1,100,-0.650
