EpochTimestamp,EmotiBitTimestamp,PacketNumber,DataLength,TypeTag,ProtocolVersion,DataReliability,AY
1572440326.874008,66126.000,10891,11,AY,1,100,0.085
1572440326.874008,66126.000,10891,11,AY,1,100,0.149
1572440326.874008,66126.000,10891,11,AY,1,100,0.226
1572440326.874008,66126.000,10891,11,AY,1,100,-0.151
1572440326.874008,66126.000,10891,11,AY,1,100,-0.172
1572440326.874008,66126.000,10891,11,AY,1,100,-0.209
1572440326.874008,66126.000,10891,11,AY,1,100,-0.241
1572440326.874008,66126.000,10891,11,AY,1,100,-0.240
1572440326.874008,66126.000,10891,11,AY,1,100,-0.195
1572440326.874008,66126.000,10891,11,AY,1,100,-0.196
1572440326.874008,66126.000,10891,11,AY,1,100,-0.217
1572440326.890760,66139.125,10909,8,AY,1,100,-0.209
1572440326.907513,66152.250,10909,8,AY,1,100,-0.181
1572440326.924265,66165.375,10909,8,AY,1,100,-0.179
1572440326.941018,66178.500,10909,8,AY,1,100,-0.166
1572440326.957770,66191.625,10909,8,AY,1,100,-0.158
1572440326.974523,66204.750,10909,8,AY,1,100,-0.148
1572440326.991276,66217.875,10909,8,AY,1,100,-0.147
1572440327.008028,66231.000,10909,8,AY,1,100,-0.152
1572440327.024461,66243.875,10927,8,AY,1,100,-0.158
1572440327.040895,66256.750,10927,8,AY,1,100,-0.173
1572440327.057328,66269.625,10927,8,AY,1,100,-0.186
1572440327.073761,66282.500,10927,8,AY,1,100,-0.183
1572440327.090195,66295.375,10927,8,AY,1,100,-0.207
1572440327.106628,66308.250,10927,8,AY,1,100,-0.221
1572440327.123062,66321.125,10927,8,AY,1,100,-0.242
1572440327.139495,66334.000,10927,8,AY,1,100,-0.296
1572440327.156088,66347.000,10945,7,AY,1,100,-0.314
1572440327.172681,66360.000,10945,7,AY,1,100,-0.255
1572440327.189274,66373.000,10945,7,AY,1,100,-0.108
1572440327.205867,66386.000,10945,7,AY,1,100,-0.058
1572440327.222460,66399.000,10945,7,AY,1,100,-0.028
1572440327.239053,66412.000,10945,7,AY,1,100,-0.058
1572440327.255646,66425.000,10945,7,AY,1,100,-0.077
1572440327.272238,66438.000,10963,8,AY,1,100,-0.133
1572440327.288831,66451.000,10963,8,AY,1,100,-0.148
1572440327.305424,66464.000,10963,8,AY,1,100,-0.164
1572440327.322017,66477.000,10963,8,AY,1,100,-0.141
1572440327.338610,66490.000,10963,8,AY,1,100,-0.149
1572440327.355203,66503.000,10963,8,AY,1,100,-0.163
1572440327.371796,66516.000,10963,8,AY,1,100,-0.160
1572440327.388389,66529.000,10963,8,AY,1,100,-0.173
1572440327.404982,66542.000,10981,8,AY,1,100,-0.174
1572440327.421575,66555.000,10981,8,AY,1,100,-0.170
1572440327.438168,66568.000,10981,8,AY,1,100,-0.159
1572440327.454761,66581.000,10981,8,AY,1,100,-0.144
1572440327.471354,66594.000,10981,8,AY,1,100,-0.134
1572440327.487947,66607.000,10981,8,AY,1,100,-0.152
1572440327.504540,66620.000,10981,8,AY,1,100,-0.194
1572440327.521133,66633.000,10981,8,AY,1,100,-0.191
1572440327.537885,66646.125,10999,8,AY,1,100,-0.192
1572440327.554638,66659.250,10999,8,AY,1,100,-0.191
1572440327.571390,66672.375,10999,8,AY,1,100,-0.213
1572440327.588143,66685.500,10999,8,AY,1,100,-0.226
1572440327.604895,66698.625,10999,8,AY,1,100,-0.187
1572440327.621648,66711.750,10999,8,AY,1,100,-0.162
1572440327.638400,66724.875,10999,8,AY,1,100,-0.148
1572440327.655153,66738.000,10999,8,AY,1,100,-0.195
1572440327.672292,66751.429,11017,7,AY,1,100,-0.218
1572440327.689432,66764.857,11017,7,AY,1,100,-0.240
1572440327.706572,66778.286,11017,7,AY,1,100,-0.264
1572440327.723712,66791.714,11017,7,AY,1,100,-0.257
1572440327.740852,66805.143,11017,7,AY,1,100,-0.260
1572440327.757992,66818.571,11017,7,AY,1,100,-0.260
1572440327.775132,66832.000,11017,7,AY,1,100,-0.264
1572440327.791725,66845.000,11034,8,AY,1,100,-0.263
1572440327.808318,66858.000,11034,8,AY,1,100,-0.279
1572440327.824911,66871.000,11034,8,AY,1,100,-0.294
1572440327.841504,66884.000,11034,8,AY,1,100,-0.271
1572440327.858097,66897.000,11034,8,AY,1,100,-0.263
1572440327.874690,66910.000,11034,8,AY,1,100,-0.257
1572440327.891283,66923.000,11034,8,AY,1,100,-0.265
1572440327.907876,66936.000,11034,8,AY,1,100,-0.274
1572440327.924651,66949.143,11052,7,AY,1,100,-0.263
1572440327.941426,66962.286,11052,7,AY,1,100,-0.291
1572440327.958201,66975.429,11052,7,AY,1,100,-0.296
1572440327.974977,66988.571,11052,7,AY,1,100,-0.325
1572440327.991752,67001.714,11052,7,AY,1,100,-0.360
1572440328.008527,67014.857,11052,7,AY,1,100,-0.363
1572440328.025303,67028.000,11052,7,AY,1,100,-0.327
1572440328.042215,67041.250,11070,8,AY,1,100,-0.263
1572440328.059127,67054.500,11070,8,AY,1,100,-0.241
1572440328.076039,67067.750,11070,8,AY,1,100,-0.220
1572440328.092951,67081.000,11070,8,AY,1,100,-0.265
1572440328.109863,67094.250,11070,8,AY,1,100,-0.286
1572440328.126775,67107.500,11070,8,AY,1,100,-0.240
1572440328.143687,67120.750,11070,8,AY,1,100,-0.210
1572440328.160599,67134.000,11070,8,AY,1,100,-0.202
1572440328.177351,67147.125,11088,8,AY,1,100,-0.200
1572440328.194104,67160.250,11088,8,AY,1,100,-0.224
1572440328.210856,67173.375,11088,8,AY,1,100,-0.290
1572440328.227609,67186.500,11088,8,AY,1,100,-0.318
1572440328.244361,67199.625,11088,8,AY,1,100,-0.353
1572440328.261114,67212.750,11088,8,AY,1,100,-0.337
1572440328.277866,67225.875,11088,8,AY,1,100,-0.322
1572440328.294619,67239.000,11088,8,AY,1,100,-0.306
1572440328.311212,67252.000,11106,8,AY,1,100,-0.286
1572440328.327805,67265.000,11106,8,AY,1,100,-0.287
1572440328.344398,67278.000,11106,8,AY,1,100,-0.285
1572440328.360991,67291.000,11106,8,AY,1,100,-0.284
1572440328.377584,67304.000,11106,8,AY,1,100,-0.277
1572440328.394176,67317.000,11106,8,AY,1,100,-0.281
1572440328.410769,67330.000,11106,8,AY,1,100,-0.305
1572440328.427362,67343.000,11106,8,AY,1,100,-0.297
1572440328.444138,67356.143,11124,7,AY,1,100,-0.291
1572440328.460913,67369.286,11124,7,AY,1,100,-0.208
1572440328.477688,67382.429,11124,7,AY,1,100,-0.164
1572440328.494463,67395.571,11124,7,AY,1,100,-0.143
1572440328.511239,67408.714,11124,7,AY,1,100,-0.104
1572440328.528014,67421.857,11124,7,AY,1,100,-0.098
1572440328.544789,67435.000,11124,7,AY,1,100,-0.094
1572440328.561542,67448.125,11142,8,AY,1,100,-0.069
1572440328.578294,67461.250,11142,8,AY,1,100,-0.042
1572440328.595047,67474.375,11142,8,AY,1,100,-0.049
1572440328.611799,67487.500,11142,8,AY,1,100,-0.053
1572440328.628552,67500.625,11142,8,AY,1,100,-0.060
1572440328.645304,67513.750,11142,8,AY,1,100,-0.068
1572440328.662057,67526.875,11142,8,AY,1,100,-0.091
1572440328.678809,67540.000,11142,8,AY,1,100,-0.112
1572440328.695562,67553.125,11160,8,AY,1,100,-0.141
1572440328.712314,67566.250,11160,8,AY,1,100,-0.128
1572440328.729067,67579.375,11160,8,AY,1,100,-0.118
1572440328.745819,67592.500,11160,8,AY,1,100,-0.113
1572440328.762572,67605.625,11160,8,AY,1,100,-0.113
1572440328.779324,67618.750,11160,8,AY,1,100,-0.123
1572440328.796077,67631.875,11160,8,AY,1,100,-0.158
1572440328.812829,67645.000,11160,8,AY,1,100,-0.174
1572440328.829422,67658.000,11179,7,AY,1,100,-0.192
1572440328.846015,67671.000,11179,7,AY,1,100,-0.191
1572440328.862608,67684.000,11179,7,AY,1,100,-0.185
1572440328.879201,67697.000,11179,7,AY,1,100,-0.172
1572440328.895794,67710.000,11179,7,AY,1,100,-0.155
1572440328.912387,67723.000,11179,7,AY,1,100,-0.170
1572440328.928980,67736.000,11179,7,AY,1,100,-0.173
1572440328.945572,67749.000,11197,8,AY,1,100,-0.142
1572440328.962165,67762.000,11197,8,AY,1,100,-0.148
1572440328.978758,67775.000,11197,8,AY,1,100,-0.182
1572440328.995351,67788.000,11197,8,AY,1,100,-0.179
1572440329.011944,67801.000,11197,8,AY,1,100,-0.174
1572440329.028537,67814.000,11197,8,AY,1,100,-0.149
1572440329.045130,67827.000,11197,8,AY,1,100,-0.164
1572440329.061723,67840.000,11197,8,AY,1,100,-0.161
1572440329.078316,67853.000,11215,8,AY,1,100,-0.183
1572440329.094909,67866.000,11215,8,AY,1,100,-0.188
1572440329.111502,67879.000,11215,8,AY,1,100,-0.209
1572440329.128095,67892.000,11215,8,AY,1,100,-0.200
1572440329.144688,67905.000,11215,8,AY,1,100,-0.193
1572440329.161281,67918.000,11215,8,AY,1,100,-0.184
1572440329.177874,67931.000,11215,8,AY,1,100,-0.198
1572440329.194467,67944.000,11215,8,AY,1,100,-0.204
1572440329.211060,67957.000,11233,8,AY,1,100,-0.231
1572440329.227652,67970.000,11233,8,AY,1,100,-0.227
1572440329.244245,67983.000,11233,8,AY,1,100,-0.218
1572440329.260838,67996.000,11233,8,AY,1,100,-0.211
1572440329.277431,68009.000,11233,8,AY,1,100,-0.199
1572440329.294024,68022.000,11233,8,AY,1,100,-0.198
1572440329.310617,68035.000,11233,8,AY,1,100,-0.189
1572440329.327210,68048.000,11233,8,AY,1,100,-0.223
1572440329.343643,68060.875,11251,8,AY,1,100,-0.242
1572440329.360077,68073.750,11251,8,AY,1,100,-0.283
1572440329.376510,68086.625,11251,8,AY,1,100,-0.270
1572440329.392944,68099.500,11251,8,AY,1,100,-0.244
1572440329.409377,68112.375,11251,8,AY,1,100,-0.215
1572440329.425810,68125.250,11251,8,AY,1,100,-0.226
1572440329.442244,68138.125,11251,8,AY,1,100,-0.258
1572440329.458677,68151.000,11251,8,AY,1,100,-0.220
1572440329.475452,68164.143,11269,7,AY,1,100,-0.264
1572440329.492228,68177.286,11269,7,AY,1,100,-0.316
1572440329.509003,68190.429,11269,7,AY,1,100,-0.166
1572440329.525778,68203.571,11269,7,AY,1,100,-0.031
1572440329.542553,68216.714,11269,7,AY,1,100,0.094
1572440329.559329,68229.857,11269,7,AY,1,100,0.250
1572440329.576104,68243.000,11269,7,AY,1,100,0.528
1572440329.592857,68256.125,11287,8,AY,1,100,0.607
1572440329.609609,68269.250,11287,8,AY,1,100,0.535
1572440329.626362,68282.375,11287,8,AY,1,100,0.490
1572440329.643114,68295.500,11287,8,AY,1,100,0.709
1572440329.659867,68308.625,11287,8,AY,1,100,-1.664
1572440329.676619,68321.750,11287,8,AY,1,100,-4.564
1572440329.693372,68334.875,11287,8,AY,1,100,-2.935
1572440329.710124,68348.000,11287,8,AY,1,100,-0.349
1572440329.726557,68360.875,11305,8,AY,1,100,0.266
1572440329.742991,68373.750,11305,8,AY,1,100,0.904
1572440329.759424,68386.625,11305,8,AY,1,100,0.121
1572440329.775857,68399.500,11305,8,AY,1,100,-1.007
1572440329.792291,68412.375,11305,8,AY,1,100,-1.281
1572440329.808724,68425.250,11305,8,AY,1,100,-0.753
1572440329.825158,68438.125,11305,8,AY,1,100,-0.508
1572440329.841591,68451.000,11305,8,AY,1,100,-0.236
1572440329.858344,68464.125,11324,8,AY,1,100,-0.208
1572440329.875096,68477.250,11324,8,AY,1,100,-0.085
1572440329.891849,68490.375,11324,8,AY,1,100,0.318
1572440329.908601,68503.500,11324,8,AY,1,100,0.543
1572440329.925354,68516.625,11324,8,AY,1,100,0.698
1572440329.942106,68529.750,11324,8,AY,1,100,0.966
1572440329.958858,68542.875,11324,8,AY,1,100,1.088
1572440329.975611,68556.000,11324,8,AY,1,100,1.003
1572440329.992204,68569.000,11342,7,AY,1,100,-6.898
1572440330.008797,68582.000,11342,7,AY,1,100,-3.881
1572440330.025390,68595.000,11342,7,AY,1,100,1.630
1572440330.041983,68608.000,11342,7,AY,1,100,-0.450
1572440330.058576,68621.000,11342,7,AY,1,100,-0.690
1572440330.075169,68634.000,11342,7,AY,1,100,-0.977
1572440330.091762,68647.000,11342,7,AY,1,100,-0.654
1572440330.108195,68659.875,11361,8,AY,1,100,-0.993
1572440330.124628,68672.750,11361,8,AY,1,100,-1.000
1572440330.141062,68685.625,11361,8,AY,1,100,-0.444
1572440330.157495,68698.500,11361,8,AY,1,100,-0.242
1572440330.173928,68711.375,11361,8,AY,1,100,-0.063
1572440330.190362,68724.250,11361,8,AY,1,100,-0.022
1572440330.206795,68737.125,11361,8,AY,1,100,0.089
1572440330.223229,68750.000,11361,8,AY,1,100,0.089
1572440330.239822,68763.000,11379,8,AY,1,100,0.347
1572440330.256415,68776.000,11379,8,AY,1,100,0.759
1572440330.273007,68789.000,11379,8,AY,1,100,1.129
1572440330.289600,68802.000,11379,8,AY,1,100,1.106
1572440330.306193,68815.000,11379,8,AY,1,100,0.816
1572440330.322786,68828.000,11379,8,AY,1,100,-5.559
1572440330.339379,68841.000,11379,8,AY,1,100,-4.809
1572440330.355972,68854.000,11379,8,AY,1,100,1.460
1572440330.372725,68867.125,11397,8,AY,1,100,-0.049
1572440330.389477,68880.250,11397,8,AY,1,100,-0.037
1572440330.406230,68893.375,11397,8,AY,1,100,-0.851
1572440330.422982,68906.500,11397,8,AY,1,100,-1.271
1572440330.439735,68919.625,11397,8,AY,1,100,-1.346
1572440330.456487,68932.750,11397,8,AY,1,100,-0.502
1572440330.473240,68945.875,11397,8,AY,1,100,-0.345
1572440330.489992,68959.000,11397,8,AY,1,100,-0.457
1572440330.506425,68971.875,11415,8,AY,1,100,-0.561
1572440330.522859,68984.750,11415,8,AY,1,100,-0.470
1572440330.539292,68997.625,11415,8,AY,1,100,-0.361
1572440330.555726,69010.500,11415,8,AY,1,100,-0.387
1572440330.572159,69023.375,11415,8,AY,1,100,-0.257
1572440330.588592,69036.250,11415,8,AY,1,100,0.155
1572440330.605026,69049.125,11415,8,AY,1,100,0.184
1572440330.621459,69062.000,11415,8,AY,1,100,0.238
1572440330.638417,69075.286,11433,7,AY,1,100,0.339
1572440330.655374,69088.571,11433,7,AY,1,100,0.464
1572440330.672332,69101.857,11433,7,AY,1,100,0.505
1572440330.689290,69115.143,11433,7,AY,1,100,0.461
1572440330.706247,69128.429,11433,7,AY,1,100,0.530
1572440330.723205,69141.714,11433,7,AY,1,100,0.663
1572440330.740162,69155.000,11433,7,AY,1,100,0.833
1572440330.756915,69168.125,11451,8,AY,1,100,0.852
1572440330.773668,69181.250,11451,8,AY,1,100,0.876
1572440330.790420,69194.375,11451,8,AY,1,100,1.138
1572440330.807173,69207.500,11451,8,AY,1,100,1.361
1572440330.823925,69220.625,11451,8,AY,1,100,1.377
1572440330.840677,69233.750,11451,8,AY,1,100,0.896
1572440330.857430,69246.875,11451,8,AY,1,100,0.675
1572440330.874182,69260.000,11451,8,AY,1,100,0.398
1572440330.890958,69273.143,11469,7,AY,1,100,0.354
1572440330.907733,69286.286,11469,7,AY,1,100,0.399
1572440330.924508,69299.429,11469,7,AY,1,100,0.507
1572440330.941283,69312.571,11469,7,AY,1,100,0.639
1572440330.958059,69325.714,11469,7,AY,1,100,0.693
1572440330.974834,69338.857,11469,7,AY,1,100,0.638
1572440330.991609,69352.000,11469,7,AY,1,100,0.590
1572440331.008362,69365.125,11487,8,AY,1,100,0.464
1572440331.025114,69378.250,11487,8,AY,1,100,0.346
1572440331.041867,69391.375,11487,8,AY,1,100,0.300
1572440331.058619,69404.500,11487,8,AY,1,100,0.323
1572440331.075372,69417.625,11487,8,AY,1,100,0.416
1572440331.092124,69430.750,11487,8,AY,1,100,0.437
1572440331.108877,69443.875,11487,8,AY,1,100,0.455
1572440331.125629,69457.000,11487,8,AY,1,100,0.535
1572440331.142063,69469.875,11505,8,AY,1,100,0.567
1572440331.158496,69482.750,11505,8,AY,1,100,0.537
1572440331.174929,69495.625,11505,8,AY,1,100,0.458
1572440331.191363,69508.500,11505,8,AY,1,100,0.414
1572440331.207796,69521.375,11505,8,AY,1,100,0.338
1572440331.224230,69534.250,11505,8,AY,1,100,0.358
1572440331.240663,69547.125,11505,8,AY,1,100,0.385
1572440331.257096,69560.000,11505,8,AY,1,100,0.440
1572440331.274008,69573.250,11523,8,AY,1,100,0.477
1572440331.290920,69586.500,11523,8,AY,1,100,0.469
1572440331.307832,69599.750,11523,8,AY,1,100,0.496
1572440331.324744,69613.000,11523,8,AY,1,100,0.517
1572440331.341656,69626.250,11523,8,AY,1,100,0.593
1572440331.358568,69639.500,11523,8,AY,1,100,0.644
1572440331.375481,69652.750,11523,8,AY,1,100,0.631
1572440331.392393,69666.000,11523,8,AY,1,100,0.628
1572440331.409168,69679.143,11541,7,AY,1,100,0.587
1572440331.425943,69692.286,11541,7,AY,1,100,0.540
1572440331.442719,69705.429,11541,7,AY,1,100,0.470
1572440331.459494,69718.571,11541,7,AY,1,100,0.455
1572440331.476269,69731.714,11541,7,AY,1,100,0.464
1572440331.493044,69744.857,11541,7,AY,1,100,0.470
1572440331.509820,69758.000,11541,7,AY,1,100,0.434
1572440331.526572,69771.125,11559,8,AY,1,100,0.433
1572440331.543324,69784.250,11559,8,AY,1,100,0.462
1572440331.560077,69797.375,11559,8,AY,1,100,0.457
1572440331.576829,69810.500,11559,8,AY,1,100,0.453
1572440331.593582,69823.625,11559,8,AY,1,100,0.486
1572440331.610334,69836.750,11559,8,AY,1,100,0.519
1572440331.627087,69849.875,11559,8,AY,1,100,0.513
1572440331.643839,69863.000,11559,8,AY,1,100,0.495
1572440331.660751,69876.250,11575,8,AY,1,100,0.489
1572440331.677664,69889.500,11575,8,AY,1,100,0.493
1572440331.694576,69902.750,11575,8,AY,1,100,0.511
1572440331.711488,69916.000,11575,8,AY,1,100,0.495
1572440331.728400,69929.250,11575,8,AY,1,100,0.495
1572440331.745311,69942.500,11575,8,AY,1,100,0.537
1572440331.762224,69955.750,11575,8,AY,1,100,0.555
1572440331.779136,69969.000,11575,8,AY,1,100,0.550
1572440331.795569,69981.875,11593,8,AY,1,100,0.497
1572440331.812002,69994.750,11593,8,AY,1,100,0.478
1572440331.828436,70007.625,11593,8,AY,1,100,0.445
1572440331.844869,70020.500,11593,8,AY,1,100,0.396
1572440331.861303,70033.375,11593,8,AY,1,100,0.377
1572440331.877736,70046.250,11593,8,AY,1,100,0.372
1572440331.894169,70059.125,11593,8,AY,1,100,0.389
1572440331.910603,70072.000,11593,8,AY,1,100,0.393
1572440331.927196,70085.000,11612,7,AY,1,100,0.382
1572440331.943789,70098.000,11612,7,AY,1,100,0.393
1572440331.960382,70111.000,11612,7,AY,1,100,0.403
1572440331.976974,70124.000,11612,7,AY,1,100,0.397
1572440331.993567,70137.000,11612,7,AY,1,100,0.403
1572440332.010160,70150.000,11612,7,AY,1,100,0.431
1572440332.026753,70163.000,11612,7,AY,1,100,0.448
1572440332.043506,70176.125,11630,8,AY,1,100,0.445
1572440332.060258,70189.250,11630,8,AY,1,100,0.451
1572440332.077011,70202.375,11630,8,AY,1,100,0.428
1572440332.093763,70215.500,11630,8,AY,1,100,0.416
1572440332.110516,70228.625,11630,8,AY,1,100,0.420
1572440332.127268,70241.750,11630,8,AY,1,100,0.399
1572440332.144021,70254.875,11630,8,AY,1,100,0.390
1572440332.160773,70268.000,11630,8,AY,1,100,0.387
1572440332.177526,70281.125,11648,8,AY,1,100,0.425
1572440332.194278,70294.250,11648,8,AY,1,100,0.442
1572440332.211031,70307.375,11648,8,AY,1,100,0.448
1572440332.227783,70320.500,11648,8,AY,1,100,0.480
1572440332.244536,70333.625,11648,8,AY,1,100,0.512
1572440332.261288,70346.750,11648,8,AY,1,100,0.506
1572440332.278041,70359.875,11648,8,AY,1,100,0.467
1572440332.294793,70373.000,11648,8,AY,1,100,0.464
1572440332.311067,70385.750,11666,8,AY,1,100,0.455
1572440332.327341,70398.500,11666,8,AY,1,100,0.455
1572440332.343615,70411.250,11666,8,AY,1,100,0.452
1572440332.359889,70424.000,11666,8,AY,1,100,0.444
1572440332.376162,70436.750,11666,8,AY,1,100,0.417
1572440332.392436,70449.500,11666,8,AY,1,100,0.395
1572440332.408710,70462.250,11666,8,AY,1,100,0.385
1572440332.424984,70475.000,11666,8,AY,1,100,0.387
1572440332.441577,70488.000,11684,7,AY,1,100,0.359
1572440332.458170,70501.000,11684,7,AY,1,100,0.393
1572440332.474763,70514.000,11684,7,AY,1,100,0.435
1572440332.491356,70527.000,11684,7,AY,1,100,0.419
1572440332.507949,70540.000,11684,7,AY,1,100,0.382
1572440332.524541,70553.000,11684,7,AY,1,100,0.381
1572440332.541134,70566.000,11684,7,AY,1,100,0.386
1572440332.557727,70579.000,11702,8,AY,1,100,0.395
1572440332.574320,70592.000,11702,8,AY,1,100,0.404
1572440332.590913,70605.000,11702,8,AY,1,100,0.389
1572440332.607506,70618.000,11702,8,AY,1,100,0.380
1572440332.624099,70631.000,11702,8,AY,1,100,0.390
1572440332.640692,70644.000,11702,8,AY,1,100,0.436
1572440332.657285,70657.000,11702,8,AY,1,100,0.445
1572440332.673878,70670.000,11702,8,AY,1,100,0.460
1572440332.690471,70683.000,11720,8,AY,1,100,0.450
1572440332.707064,70696.000,11720,8,AY,1,100,0.447
1572440332.723657,70709.000,11720,8,AY,1,100,0.456
1572440332.740250,70722.000,11720,8,AY,1,100,0.480
1572440332.756843,70735.000,11720,8,AY,1,100,0.492
1572440332.773436,70748.000,11720,8,AY,1,100,0.487
1572440332.790029,70761.000,11720,8,AY,1,100,0.473
1572440332.806621,70774.000,11720,8,AY,1,100,0.448
1572440332.823214,70787.000,11738,8,AY,1,100,0.422
1572440332.839807,70800.000,11738,8,AY,1,100,0.417
1572440332.856400,70813.000,11738,8,AY,1,100,0.409
1572440332.872993,70826.000,11738,8,AY,1,100,0.404
1572440332.889586,70839.000,11738,8,AY,1,100,0.400
1572440332.906179,70852.000,11738,8,AY,1,100,0.381
1572440332.922772,70865.000,11738,8,AY,1,100,0.366
1572440332.939365,70878.000,11738,8,AY,1,100,0.385
1572440332.955958,70891.000,11757,7,AY,1,100,0.393
1572440332.972551,70904.000,11757,7,AY,1,100,0.406
1572440332.989144,70917.000,11757,7,AY,1,100,0.406
1572440333.005737,70930.000,11757,7,AY,1,100,0.386
1572440333.022330,70943.000,11757,7,AY,1,100,0.354
1572440333.038923,70956.000,11757,7,AY,1,100,0.344
1572440333.055516,70969.000,11757,7,AY,1,100,0.338
1572440333.072109,70982.000,11775,8,AY,1,100,0.360
1572440333.088701,70995.000,11775,8,AY,1,100,0.380
1572440333.105294,71008.000,11775,8,AY,1,100,0.407
1572440333.121887,71021.000,11775,8,AY,1,100,0.410
1572440333.138480,71034.000,11775,8,AY,1,100,0.418
1572440333.155073,71047.000,11775,8,AY,1,100,0.428
1572440333.171666,71060.000,11775,8,AY,1,100,0.417
1572440333.188259,71073.000,11775,8,AY,1,100,0.416
1572440333.205048,71086.154,11796,13,AY,1,100,0.417
1572440333.221838,71099.308,11796,13,AY,1,100,0.408
1572440333.238627,71112.462,11796,13,AY,1,100,0.399
1572440333.255416,71125.615,11796,13,AY,1,100,0.404
1572440333.272206,71138.769,11796,13,AY,1,100,0.405
1572440333.288995,71151.923,11796,13,AY,1,100,0.405
1572440333.305784,71165.077,11796,13,AY,1,100,0.390
1572440333.322573,71178.231,11796,13,AY,1,100,0.384
1572440333.339363,71191.385,11796,13,AY,1,100,0.389
1572440333.356152,71204.538,11796,13,AY,1,100,0.405
1572440333.372941,71217.692,11796,13,AY,1,100,0.403
1572440333.389731,71230.846,11796,13,AY,1,100,0.386
1572440333.406520,71244.000,11796,13,AY,1,100,0.368
1572440333.422953,71256.875,11815,8,AY,1,100,0.365
1572440333.439387,71269.750,11815,8,AY,1,100,0.377
1572440333.455820,71282.625,11815,8,AY,1,100,0.408
1572440333.472254,71295.500,11815,8,AY,1,100,0.420
1572440333.488687,71308.375,11815,8,AY,1,100,0.443
1572440333.505120,71321.250,11815,8,AY,1,100,0.440
1572440333.521554,71334.125,11815,8,AY,1,100,0.442
1572440333.537987,71347.000,11815,8,AY,1,100,0.437
1572440333.554580,71360.000,11833,7,AY,1,100,0.432
1572440333.571173,71373.000,11833,7,AY,1,100,0.418
1572440333.587766,71386.000,11833,7,AY,1,100,0.380
1572440333.604359,71399.000,11833,7,AY,1,100,0.351
1572440333.620952,71412.000,11833,7,AY,1,100,0.327
1572440333.637545,71425.000,11833,7,AY,1,100,0.343
1572440333.654138,71438.000,11833,7,AY,1,100,0.350
1572440333.670890,71451.125,11851,8,AY,1,100,0.357
1572440333.687643,71464.250,11851,8,AY,1,100,0.366
1572440333.704395,71477.375,11851,8,AY,1,100,0.351
1572440333.721148,71490.500,11851,8,AY,1,100,0.311
1572440333.737900,71503.625,11851,8,AY,1,100,0.384
1572440333.754653,71516.750,11851,8,AY,1,100,0.440
1572440333.771405,71529.875,11851,8,AY,1,100,0.483
1572440333.788157,71543.000,11851,8,AY,1,100,0.477
1572440333.804910,71556.125,11869,8,AY,1,100,0.455
1572440333.821662,71569.250,11869,8,AY,1,100,0.423
1572440333.838415,71582.375,11869,8,AY,1,100,0.421
1572440333.855167,71595.500,11869,8,AY,1,100,0.416
1572440333.871920,71608.625,11869,8,AY,1,100,0.411
1572440333.888672,71621.750,11869,8,AY,1,100,0.421
1572440333.905425,71634.875,11869,8,AY,1,100,0.444
1572440333.922177,71648.000,11869,8,AY,1,100,0.442
1572440333.939317,71661.429,11888,7,AY,1,100,0.439
1572440333.956457,71674.857,11888,7,AY,1,100,0.435
1572440333.973597,71688.286,11888,7,AY,1,100,0.440
1572440333.990737,71701.714,11888,7,AY,1,100,0.442
1572440334.007877,71715.143,11888,7,AY,1,100,0.437
1572440334.025017,71728.571,11888,7,AY,1,100,0.423
1572440334.042157,71742.000,11888,7,AY,1,100,0.429
1572440334.058910,71755.125,11905,8,AY,1,100,0.441
1572440334.075662,71768.250,11905,8,AY,1,100,0.416
1572440334.092415,71781.375,11905,8,AY,1,100,0.392
1572440334.109167,71794.500,11905,8,AY,1,100,0.374
1572440334.125920,71807.625,11905,8,AY,1,100,0.371
1572440334.142672,71820.750,11905,8,AY,1,100,0.352
1572440334.159425,71833.875,11905,8,AY,1,100,0.352
1572440334.176177,71847.000,11905,8,AY,1,100,0.363
1572440334.192930,71860.125,11922,8,AY,1,100,0.369
1572440334.209682,71873.250,11922,8,AY,1,100,0.388
1572440334.226434,71886.375,11922,8,AY,1,100,0.399
1572440334.243187,71899.500,11922,8,AY,1,100,0.399
1572440334.259939,71912.625,11922,8,AY,1,100,0.397
1572440334.276692,71925.750,11922,8,AY,1,100,0.414
1572440334.293444,71938.875,11922,8,AY,1,100,0.445
1572440334.310197,71952.000,11922,8,AY,1,100,0.461
1572440334.326790,71965.000,11940,7,AY,1,100,0.454
1572440334.343383,71978.000,11940,7,AY,1,100,0.437
1572440334.359976,71991.000,11940,7,AY,1,100,0.443
1572440334.376569,72004.000,11940,7,AY,1,100,0.451
1572440334.393162,72017.000,11940,7,AY,1,100,0.472
1572440334.409755,72030.000,11940,7,AY,1,100,0.469
1572440334.426347,72043.000,11940,7,AY,1,100,0.459
1572440334.443100,72056.125,11958,8,AY,1,100,0.431
1572440334.459852,72069.250,11958,8,AY,1,100,0.419
1572440334.476605,72082.375,11958,8,AY,1,100,0.399
1572440334.493357,72095.500,11958,8,AY,1,100,0.389
1572440334.510110,72108.625,11958,8,AY,1,100,0.390
1572440334.526862,72121.750,11958,8,AY,1,100,0.396
1572440334.543615,72134.875,11958,8,AY,1,100,0.409
1572440334.560367,72148.000,11958,8,AY,1,100,0.418
1572440334.577120,72161.125,11976,8,AY,1,100,0.434
1572440334.593872,72174.250,11976,8,AY,1,100,0.435
1572440334.610625,72187.375,11976,8,AY,1,100,0.435
1572440334.627377,72200.500,11976,8,AY,1,100,0.428
1572440334.644130,72213.625,11976,8,AY,1,100,0.415
1572440334.660882,72226.750,11976,8,AY,1,100,0.416
1572440334.677635,72239.875,11976,8,AY,1,100,0.408
1572440334.694387,72253.000,11976,8,AY,1,100,0.400
1572440334.710980,72266.000,11994,8,AY,1,100,0.410
1572440334.727573,72279.000,11994,8,AY,1,100,0.425
1572440334.744166,72292.000,11994,8,AY,1,100,0.430
1572440334.760759,72305.000,11994,8,AY,1,100,0.432
1572440334.777352,72318.000,11994,8,AY,1,100,0.436
1572440334.793945,72331.000,11994,8,AY,1,100,0.435
1572440334.810538,72344.000,11994,8,AY,1,100,0.423
1572440334.827131,72357.000,11994,8,AY,1,100,0.397
1572440334.843906,72370.143,12012,7,AY,1,100,0.382
1572440334.860681,72383.286,12012,7,AY,1,100,0.384
1572440334.877456,72396.429,12012,7,AY,1,100,0.401
1572440334.894232,72409.571,12012,7,AY,1,100,0.408
1572440334.911007,72422.714,12012,7,AY,1,100,0.409
1572440334.927782,72435.857,12012,7,AY,1,100,0.406
1572440334.944558,72449.000,12012,7,AY,1,100,0.417
1572440334.961310,72462.125,12031,8,AY,1,100,0.431
1572440334.978063,72475.250,12031,8,AY,1,100,0.446
1572440334.994815,72488.375,12031,8,AY,1,100,0.446
1572440335.011568,72501.500,12031,8,AY,1,100,0.441
1572440335.028320,72514.625,12031,8,AY,1,100,0.428
1572440335.045073,72527.750,12031,8,AY,1,100,0.420
1572440335.061825,72540.875,12031,8,AY,1,100,0.414
1572440335.078578,72554.000,12031,8,AY,1,100,0.401
1572440335.095330,72567.125,12049,8,AY,1,100,0.396
1572440335.112082,72580.250,12049,8,AY,1,100,0.403
1572440335.128835,72593.375,12049,8,AY,1,100,0.409
1572440335.145587,72606.500,12049,8,AY,1,100,0.432
1572440335.162340,72619.625,12049,8,AY,1,100,0.438
1572440335.179092,72632.750,12049,8,AY,1,100,0.405
1572440335.195845,72645.875,12049,8,AY,1,100,0.389
1572440335.212597,72659.000,12049,8,AY,1,100,0.382
1572440335.229190,72672.000,12067,7,AY,1,100,0.382
1572440335.245783,72685.000,12067,7,AY,1,100,0.393
1572440335.262376,72698.000,12067,7,AY,1,100,0.373
1572440335.278969,72711.000,12067,7,AY,1,100,0.365
1572440335.295562,72724.000,12067,7,AY,1,100,0.373
1572440335.312155,72737.000,12067,7,AY,1,100,0.400
1572440335.328748,72750.000,12067,7,AY,1,100,0.409
1572440335.345181,72762.875,12085,8,AY,1,100,0.420
1572440335.361615,72775.750,12085,8,AY,1,100,0.419
1572440335.378048,72788.625,12085,8,AY,1,100,0.434
1572440335.394481,72801.500,12085,8,AY,1,100,0.444
1572440335.410915,72814.375,12085,8,AY,1,100,0.434
1572440335.427348,72827.250,12085,8,AY,1,100,0.425
1572440335.443782,72840.125,12085,8,AY,1,100,0.415
1572440335.460215,72853.000,12085,8,AY,1,100,0.408
1572440335.476648,72865.875,12103,8,AY,1,100,0.400
1572440335.493082,72878.750,12103,8,AY,1,100,0.388
1572440335.509515,72891.625,12103,8,AY,1,100,0.383
1572440335.525949,72904.500,12103,8,AY,1,100,0.377
1572440335.542382,72917.375,12103,8,AY,1,100,0.369
1572440335.558815,72930.250,12103,8,AY,1,100,0.372
1572440335.575249,72943.125,12103,8,AY,1,100,0.381
1572440335.591682,72956.000,12103,8,AY,1,100,0.387
1572440335.608275,72969.000,12121,8,AY,1,100,0.392
1572440335.624868,72982.000,12121,8,AY,1,100,0.393
1572440335.641461,72995.000,12121,8,AY,1,100,0.392
1572440335.658054,73008.000,12121,8,AY,1,100,0.390
1572440335.674647,73021.000,12121,8,AY,1,100,0.401
1572440335.691240,73034.000,12121,8,AY,1,100,0.405
1572440335.707833,73047.000,12121,8,AY,1,100,0.401
1572440335.724426,73060.000,12121,8,AY,1,100,0.398
1572440335.740859,73072.875,12139,8,AY,1,100,0.398
1572440335.757293,73085.750,12139,8,AY,1,100,0.396
1572440335.773726,73098.625,12139,8,AY,1,100,0.381
1572440335.790159,73111.500,12139,8,AY,1,100,0.368
1572440335.806593,73124.375,12139,8,AY,1,100,0.368
1572440335.823026,73137.250,12139,8,AY,1,100,0.386
1572440335.839459,73150.125,12139,8,AY,1,100,0.393
1572440335.855893,73163.000,12139,8,AY,1,100,0.397
1572440335.872850,73176.286,12157,7,AY,1,100,0.404
1572440335.889808,73189.571,12157,7,AY,1,100,0.413
1572440335.906766,73202.857,12157,7,AY,1,100,0.421
1572440335.923723,73216.143,12157,7,AY,1,100,0.402
1572440335.940681,73229.429,12157,7,AY,1,100,0.394
1572440335.957639,73242.714,12157,7,AY,1,100,0.404
1572440335.974596,73256.000,12157,7,AY,1,100,0.405
1572440335.991349,73269.125,12176,8,AY,1,100,0.393
1572440336.008101,73282.250,12176,8,AY,1,100,0.377
1572440336.024853,73295.375,12176,8,AY,1,100,0.376
1572440336.041606,73308.500,12176,8,AY,1,100,0.389
1572440336.058358,73321.625,12176,8,AY,1,100,0.399
1572440336.075111,73334.750,12176,8,AY,1,100,0.398
1572440336.091863,73347.875,12176,8,AY,1,100,0.394
1572440336.108616,73361.000,12176,8,AY,1,100,0.394
1572440336.125209,73374.000,12194,8,AY,1,100,0.399
1572440336.141802,73387.000,12194,8,AY,1,100,0.399
1572440336.158395,73400.000,12194,8,AY,1,100,0.392
1572440336.174988,73413.000,12194,8,AY,1,100,0.395
1572440336.191581,73426.000,12194,8,AY,1,100,0.415
1572440336.208174,73439.000,12194,8,AY,1,100,0.421
1572440336.224766,73452.000,12194,8,AY,1,100,0.411
1572440336.241359,73465.000,12194,8,AY,1,100,0.400
1572440336.257952,73478.000,12212,7,AY,1,100,0.410
1572440336.274545,73491.000,12212,7,AY,1,100,0.412
1572440336.291138,73504.000,12212,7,AY,1,100,0.397
1572440336.307731,73517.000,12212,7,AY,1,100,0.384
1572440336.324324,73530.000,12212,7,AY,1,100,0.377
1572440336.340917,73543.000,12212,7,AY,1,100,0.376
1572440336.357510,73556.000,12212,7,AY,1,100,0.375
1572440336.374263,73569.125,12230,8,AY,1,100,0.374
1572440336.391015,73582.250,12230,8,AY,1,100,0.371
1572440336.407768,73595.375,12230,8,AY,1,100,0.396
1572440336.424520,73608.500,12230,8,AY,1,100,0.404
1572440336.441272,73621.625,12230,8,AY,1,100,0.403
1572440336.458025,73634.750,12230,8,AY,1,100,0.401
1572440336.474777,73647.875,12230,8,AY,1,100,0.393
1572440336.491530,73661.000,12230,8,AY,1,100,0.412
1572440336.507963,73673.875,12248,8,AY,1,100,0.418
1572440336.524397,73686.750,12248,8,AY,1,100,0.406
1572440336.540830,73699.625,12248,8,AY,1,100,0.417
1572440336.557263,73712.500,12248,8,AY,1,100,0.426
1572440336.573697,73725.375,12248,8,AY,1,100,0.422
1572440336.590130,73738.250,12248,8,AY,1,100,0.429
1572440336.606564,73751.125,12248,8,AY,1,100,0.430
1572440336.622997,73764.000,12248,8,AY,1,100,0.415
1572440336.639590,73777.000,12266,8,AY,1,100,0.401
1572440336.656183,73790.000,12266,8,AY,1,100,0.395
1572440336.672776,73803.000,12266,8,AY,1,100,0.382
1572440336.689369,73816.000,12266,8,AY,1,100,0.369
1572440336.705962,73829.000,12266,8,AY,1,100,0.360
1572440336.722555,73842.000,12266,8,AY,1,100,0.371
1572440336.739148,73855.000,12266,8,AY,1,100,0.382
1572440336.755741,73868.000,12266,8,AY,1,100,0.379
1572440336.772516,73881.143,12284,7,AY,1,100,0.381
1572440336.789291,73894.286,12284,7,AY,1,100,0.385
1572440336.806066,73907.429,12284,7,AY,1,100,0.396
1572440336.822842,73920.571,12284,7,AY,1,100,0.410
1572440336.839617,73933.714,12284,7,AY,1,100,0.415
1572440336.856392,73946.857,12284,7,AY,1,100,0.409
1572440336.873168,73960.000,12284,7,AY,1,100,0.411
1572440336.889920,73973.125,12302,8,AY,1,100,0.410
1572440336.906672,73986.250,12302,8,AY,1,100,0.403
1572440336.923425,73999.375,12302,8,AY,1,100,0.401
1572440336.940177,74012.500,12302,8,AY,1,100,0.402
1572440336.956930,74025.625,12302,8,AY,1,100,0.406
1572440336.973682,74038.750,12302,8,AY,1,100,0.420
1572440336.990435,74051.875,12302,8,AY,1,100,0.426
1572440337.007187,74065.000,12302,8,AY,1,100,0.411
1572440337.023940,74078.125,12321,8,AY,1,100,0.406
1572440337.040692,74091.250,12321,8,AY,1,100,0.407
1572440337.057445,74104.375,12321,8,AY,1,100,0.402
1572440337.074197,74117.500,12321,8,AY,1,100,0.399
1572440337.090950,74130.625,12321,8,AY,1,100,0.395
1572440337.107702,74143.750,12321,8,AY,1,100,0.384
1572440337.124455,74156.875,12321,8,AY,1,100,0.385
1572440337.141207,74170.000,12321,8,AY,1,100,0.389
1572440337.157960,74183.125,12338,8,AY,1,100,0.387
1572440337.174712,74196.250,12338,8,AY,1,100,0.392
1572440337.191465,74209.375,12338,8,AY,1,100,0.396
1572440337.208217,74222.500,12338,8,AY,1,100,0.390
1572440337.224970,74235.625,12338,8,AY,1,100,0.397
1572440337.241722,74248.750,12338,8,AY,1,100,0.386
1572440337.258475,74261.875,12338,8,AY,1,100,0.371
1572440337.275227,74275.000,12338,8,AY,1,100,0.366
1572440337.292002,74288.143,12356,7,AY,1,100,0.363
1572440337.308778,74301.286,12356,7,AY,1,100,0.381
1572440337.325553,74314.429,12356,7,AY,1,100,0.391
1572440337.342328,74327.571,12356,7,AY,1,100,0.394
1572440337.359103,74340.714,12356,7,AY,1,100,0.399
1572440337.375879,74353.857,12356,7,AY,1,100,0.418
1572440337.392654,74367.000,12356,7,AY,1,100,0.433
1572440337.409407,74380.125,12374,8,AY,1,100,0.440
1572440337.426159,74393.250,12374,8,AY,1,100,0.438
1572440337.442912,74406.375,12374,8,AY,1,100,0.445
1572440337.459664,74419.500,12374,8,AY,1,100,0.446
1572440337.476417,74432.625,12374,8,AY,1,100,0.447
1572440337.493169,74445.750,12374,8,AY,1,100,0.451
1572440337.509922,74458.875,12374,8,AY,1,100,0.455
1572440337.526674,74472.000,12374,8,AY,1,100,0.466
1572440337.543107,74484.875,12392,8,AY,1,100,0.463
1572440337.559541,74497.750,12392,8,AY,1,100,0.464
1572440337.575974,74510.625,12392,8,AY,1,100,0.454
1572440337.592407,74523.500,12392,8,AY,1,100,0.443
1572440337.608841,74536.375,12392,8,AY,1,100,0.417
1572440337.625274,74549.250,12392,8,AY,1,100,0.409
1572440337.641708,74562.125,12392,8,AY,1,100,0.391
1572440337.658141,74575.000,12392,8,AY,1,100,0.386
1572440337.675463,74588.571,12410,7,AY,1,100,0.376
1572440337.692786,74602.143,12410,7,AY,1,100,0.388
1572440337.710108,74615.714,12410,7,AY,1,100,0.417
1572440337.727430,74629.286,12410,7,AY,1,100,0.439
1572440337.744753,74642.857,12410,7,AY,1,100,0.448
1572440337.762075,74656.429,12410,7,AY,1,100,0.451
1572440337.779397,74670.000,12410,7,AY,1,100,0.450
1572440337.795830,74682.875,12428,8,AY,1,100,0.442
1572440337.812264,74695.750,12428,8,AY,1,100,0.425
1572440337.828697,74708.625,12428,8,AY,1,100,0.419
1572440337.845131,74721.500,12428,8,AY,1,100,0.417
1572440337.861564,74734.375,12428,8,AY,1,100,0.406
1572440337.877997,74747.250,12428,8,AY,1,100,0.394
1572440337.894431,74760.125,12428,8,AY,1,100,0.400
1572440337.910864,74773.000,12428,8,AY,1,100,0.408
1572440337.927617,74786.125,12447,8,AY,1,100,0.416
1572440337.944369,74799.250,12447,8,AY,1,100,0.429
1572440337.961122,74812.375,12447,8,AY,1,100,0.435
1572440337.977874,74825.500,12447,8,AY,1,100,0.428
1572440337.994627,74838.625,12447,8,AY,1,100,0.424
1572440338.011379,74851.750,12447,8,AY,1,100,0.420
1572440338.028132,74864.875,12447,8,AY,1,100,0.416
1572440338.044884,74878.000,12447,8,AY,1,100,0.414
1572440338.061477,74891.000,12463,7,AY,1,100,0.415
1572440338.078070,74904.000,12463,7,AY,1,100,0.422
1572440338.094663,74917.000,12463,7,AY,1,100,0.436
1572440338.111256,74930.000,12463,7,AY,1,100,0.435
1572440338.127849,74943.000,12463,7,AY,1,100,0.442
1572440338.144442,74956.000,12463,7,AY,1,100,0.440
1572440338.161035,74969.000,12463,7,AY,1,100,0.433
1572440338.177787,74982.125,12481,8,AY,1,100,0.433
1572440338.194540,74995.250,12481,8,AY,1,100,0.410
1572440338.211292,75008.375,12481,8,AY,1,100,0.386
1572440338.228045,75021.500,12481,8,AY,1,100,0.384
1572440338.244797,75034.625,12481,8,AY,1,100,0.394
1572440338.261550,75047.750,12481,8,AY,1,100,0.392
1572440338.278302,75060.875,12481,8,AY,1,100,0.400
1572440338.295055,75074.000,12481,8,AY,1,100,0.421
1572440338.311648,75087.000,12499,8,AY,1,100,0.436
1572440338.328240,75100.000,12499,8,AY,1,100,0.438
1572440338.344833,75113.000,12499,8,AY,1,100,0.449
1572440338.361426,75126.000,12499,8,AY,1,100,0.447
1572440338.378019,75139.000,12499,8,AY,1,100,0.445
1572440338.394612,75152.000,12499,8,AY,1,100,0.432
1572440338.411205,75165.000,12499,8,AY,1,100,0.423
1572440338.427798,75178.000,12499,8,AY,1,100,0.413
1572440338.444391,75191.000,12517,8,AY,1,100,0.423
1572440338.460984,75204.000,12517,8,AY,1,100,0.429
1572440338.477577,75217.000,12517,8,AY,1,100,0.436
1572440338.494170,75230.000,12517,8,AY,1,100,0.437
1572440338.510763,75243.000,12517,8,AY,1,100,0.440
1572440338.527356,75256.000,12517,8,AY,1,100,0.427
1572440338.543949,75269.000,12517,8,AY,1,100,0.417
1572440338.560542,75282.000,12517,8,AY,1,100,0.416
1572440338.577135,75295.000,12535,8,AY,1,100,0.409
1572440338.593728,75308.000,12535,8,AY,1,100,0.411
1572440338.610320,75321.000,12535,8,AY,1,100,0.421
1572440338.626913,75334.000,12535,8,AY,1,100,0.426
1572440338.643506,75347.000,12535,8,AY,1,100,0.440
1572440338.660099,75360.000,12535,8,AY,1,100,0.449
1572440338.676692,75373.000,12535,8,AY,1,100,0.467
1572440338.693285,75386.000,12535,8,AY,1,100,0.468
1572440338.709559,75398.750,12553,8,AY,1,100,0.437
1572440338.725833,75411.500,12553,8,AY,1,100,0.411
1572440338.742107,75424.250,12553,8,AY,1,100,0.410
1572440338.758380,75437.000,12553,8,AY,1,100,0.420
1572440338.774654,75449.750,12553,8,AY,1,100,0.425
1572440338.790928,75462.500,12553,8,AY,1,100,0.420
1572440338.807202,75475.250,12553,8,AY,1,100,0.420
1572440338.823476,75488.000,12553,8,AY,1,100,0.421
1572440338.840069,75501.000,12571,7,AY,1,100,0.419
1572440338.856662,75514.000,12571,7,AY,1,100,0.411
1572440338.873255,75527.000,12571,7,AY,1,100,0.406
1572440338.889848,75540.000,12571,7,AY,1,100,0.411
1572440338.906440,75553.000,12571,7,AY,1,100,0.437
1572440338.923033,75566.000,12571,7,AY,1,100,0.450
1572440338.939626,75579.000,12571,7,AY,1,100,0.440
1572440338.956219,75592.000,12590,8,AY,1,100,0.432
1572440338.972812,75605.000,12590,8,AY,1,100,0.431
1572440338.989405,75618.000,12590,8,AY,1,100,0.439
1572440339.005998,75631.000,12590,8,AY,1,100,0.446
1572440339.022591,75644.000,12590,8,AY,1,100,0.453
1572440339.039184,75657.000,12590,8,AY,1,100,0.446
1572440339.055777,75670.000,12590,8,AY,1,100,0.434
1572440339.072370,75683.000,12590,8,AY,1,100,0.438
1572440339.089122,75696.125,12608,8,AY,1,100,0.430
1572440339.105875,75709.250,12608,8,AY,1,100,0.412
1572440339.122627,75722.375,12608,8,AY,1,100,0.410
1572440339.139380,75735.500,12608,8,AY,1,100,0.410
1572440339.156132,75748.625,12608,8,AY,1,100,0.408
1572440339.172885,75761.750,12608,8,AY,1,100,0.384
1572440339.189637,75774.875,12608,8,AY,1,100,0.379
1572440339.206390,75788.000,12608,8,AY,1,100,0.394
1572440339.222983,75801.000,12626,8,AY,1,100,0.422
1572440339.239576,75814.000,12626,8,AY,1,100,0.466
1572440339.256169,75827.000,12626,8,AY,1,100,0.482
1572440339.272762,75840.000,12626,8,AY,1,100,0.535
1572440339.289355,75853.000,12626,8,AY,1,100,0.574
1572440339.305947,75866.000,12626,8,AY,1,100,0.561
1572440339.322540,75879.000,12626,8,AY,1,100,0.532
1572440339.339133,75892.000,12626,8,AY,1,100,0.450
1572440339.355726,75905.000,12644,7,AY,1,100,0.394
1572440339.372319,75918.000,12644,7,AY,1,100,0.331
1572440339.388912,75931.000,12644,7,AY,1,100,0.266
1572440339.405505,75944.000,12644,7,AY,1,100,0.253
1572440339.422098,75957.000,12644,7,AY,1,100,0.290
1572440339.438691,75970.000,12644,7,AY,1,100,0.305
1572440339.455284,75983.000,12644,7,AY,1,100,0.275
1572440339.472036,75996.125,12662,8,AY,1,100,0.228
1572440339.488789,76009.250,12662,8,AY,1,100,0.232
1572440339.505541,76022.375,12662,8,AY,1,100,0.267
1572440339.522294,76035.500,12662,8,AY,1,100,0.271
1572440339.539046,76048.625,12662,8,AY,1,100,0.303
1572440339.555799,76061.750,12662,8,AY,1,100,0.317
1572440339.572551,76074.875,12662,8,AY,1,100,0.311
1572440339.589304,76088.000,12662,8,AY,1,100,0.298
1572440339.605897,76101.000,12680,8,AY,1,100,0.301
1572440339.622490,76114.000,12680,8,AY,1,100,0.313
1572440339.639082,76127.000,12680,8,AY,1,100,0.321
1572440339.655675,76140.000,12680,8,AY,1,100,0.350
1572440339.672268,76153.000,12680,8,AY,1,100,0.347
1572440339.688861,76166.000,12680,8,AY,1,100,0.336
1572440339.705454,76179.000,12680,8,AY,1,100,0.322
1572440339.722047,76192.000,12680,8,AY,1,100,0.329
1572440339.738640,76205.000,12701,13,AY,1,100,0.315
1572440339.755233,76218.000,12701,13,AY,1,100,0.306
1572440339.771826,76231.000,12701,13,AY,1,100,0.300
1572440339.788419,76244.000,12701,13,AY,1,100,0.302
1572440339.805012,76257.000,12701,13,AY,1,100,0.313
1572440339.821605,76270.000,12701,13,AY,1,100,0.324
1572440339.838198,76283.000,12701,13,AY,1,100,0.347
1572440339.854791,76296.000,12701,13,AY,1,100,0.314
1572440339.871384,76309.000,12701,13,AY,1,100,0.292
1572440339.887977,76322.000,12701,13,AY,1,100,0.299
1572440339.904570,76335.000,12701,13,AY,1,100,0.304
1572440339.921162,76348.000,12701,13,AY,1,100,0.292
1572440339.937755,76361.000,12701,13,AY,1,100,0.258
1572440339.954348,76374.000,12722,7,AY,1,100,0.246
1572440339.970941,76387.000,12722,7,AY,1,100,0.235
1572440339.987534,76400.000,12722,7,AY,1,100,0.230
1572440340.004127,76413.000,12722,7,AY,1,100,0.234
1572440340.020720,76426.000,12722,7,AY,1,100,0.236
1572440340.037313,76439.000,12722,7,AY,1,100,0.269
1572440340.053906,76452.000,12722,7,AY,1,100,0.288
1572440340.070818,76465.250,12740,8,AY,1,100,0.279
1572440340.087730,76478.500,12740,8,AY,1,100,0.250
1572440340.104642,76491.750,12740,8,AY,1,100,0.251
1572440340.121554,76505.000,12740,8,AY,1,100,0.263
1572440340.138466,76518.250,12740,8,AY,1,100,0.290
1572440340.155378,76531.500,12740,8,AY,1,100,0.303
1572440340.172290,76544.750,12740,8,AY,1,100,0.319
1572440340.189202,76558.000,12740,8,AY,1,100,0.340
1572440340.205977,76571.143,12758,7,AY,1,100,0.347
1572440340.222753,76584.286,12758,7,AY,1,100,0.328
1572440340.239528,76597.429,12758,7,AY,1,100,0.316
1572440340.256303,76610.571,12758,7,AY,1,100,0.314
1572440340.273079,76623.714,12758,7,AY,1,100,0.308
1572440340.289854,76636.857,12758,7,AY,1,100,0.271
1572440340.306629,76650.000,12758,7,AY,1,100,0.256
1572440340.323701,76663.375,12776,8,AY,1,100,0.272
1572440340.340772,76676.750,12776,8,AY,1,100,0.291
1572440340.357844,76690.125,12776,8,AY,1,100,0.277
1572440340.374916,76703.500,12776,8,AY,1,100,0.259
1572440340.391987,76716.875,12776,8,AY,1,100,0.267
1572440340.409059,76730.250,12776,8,AY,1,100,0.296
1572440340.426130,76743.625,12776,8,AY,1,100,0.307
1572440340.443202,76757.000,12776,8,AY,1,100,0.309
1572440340.459795,76770.000,12792,7,AY,1,100,0.306
1572440340.476388,76783.000,12792,7,AY,1,100,0.305
1572440340.492981,76796.000,12792,7,AY,1,100,0.307
1572440340.509574,76809.000,12792,7,AY,1,100,0.310
1572440340.526166,76822.000,12792,7,AY,1,100,0.303
1572440340.542759,76835.000,12792,7,AY,1,100,0.305
1572440340.559352,76848.000,12792,7,AY,1,100,0.316
1572440340.576105,76861.125,12810,8,AY,1,100,0.299
1572440340.592857,76874.250,12810,8,AY,1,100,0.295
1572440340.609610,76887.375,12810,8,AY,1,100,0.297
1572440340.626362,76900.500,12810,8,AY,1,100,0.289
1572440340.643115,76913.625,12810,8,AY,1,100,0.284
1572440340.659867,76926.750,12810,8,AY,1,100,0.308
1572440340.676620,76939.875,12810,8,AY,1,100,0.334
1572440340.693372,76953.000,12810,8,AY,1,100,0.334
1572440340.709965,76966.000,12828,8,AY,1,100,0.320
1572440340.726558,76979.000,12828,8,AY,1,100,0.326
1572440340.743151,76992.000,12828,8,AY,1,100,0.328
1572440340.759744,77005.000,12828,8,AY,1,100,0.352
1572440340.776337,77018.000,12828,8,AY,1,100,0.331
1572440340.792930,77031.000,12828,8,AY,1,100,0.318
1572440340.809523,77044.000,12828,8,AY,1,100,0.316
1572440340.826116,77057.000,12828,8,AY,1,100,0.329
1572440340.842868,77070.125,12846,8,AY,1,100,0.323
1572440340.859621,77083.250,12846,8,AY,1,100,0.298
1572440340.876373,77096.375,12846,8,AY,1,100,0.290
1572440340.893126,77109.500,12846,8,AY,1,100,0.274
1572440340.909878,77122.625,12846,8,AY,1,100,0.267
1572440340.926631,77135.750,12846,8,AY,1,100,0.270
1572440340.943383,77148.875,12846,8,AY,1,100,0.290
1572440340.960136,77162.000,12846,8,AY,1,100,0.301
1572440340.976888,77175.125,12864,8,AY,1,100,0.296
1572440340.993641,77188.250,12864,8,AY,1,100,0.302
1572440341.010393,77201.375,12864,8,AY,1,100,0.322
1572440341.027146,77214.500,12864,8,AY,1,100,0.345
1572440341.043898,77227.625,12864,8,AY,1,100,0.366
1572440341.060651,77240.750,12864,8,AY,1,100,0.376
1572440341.077403,77253.875,12864,8,AY,1,100,0.391
1572440341.094156,77267.000,12864,8,AY,1,100,0.388
1572440341.110931,77280.143,12883,7,AY,1,100,0.393
1572440341.127706,77293.286,12883,7,AY,1,100,0.393
1572440341.144481,77306.429,12883,7,AY,1,100,0.356
1572440341.161257,77319.571,12883,7,AY,1,100,0.344
1572440341.178032,77332.714,12883,7,AY,1,100,0.355
1572440341.194807,77345.857,12883,7,AY,1,100,0.328
1572440341.211582,77359.000,12883,7,AY,1,100,0.316
1572440341.228175,77372.000,12901,8,AY,1,100,0.319
1572440341.244768,77385.000,12901,8,AY,1,100,0.315
1572440341.261361,77398.000,12901,8,AY,1,100,0.314
1572440341.277954,77411.000,12901,8,AY,1,100,0.354
1572440341.294547,77424.000,12901,8,AY,1,100,0.396
1572440341.311140,77437.000,12901,8,AY,1,100,0.399
1572440341.327733,77450.000,12901,8,AY,1,100,0.409
1572440341.344326,77463.000,12901,8,AY,1,100,0.411
1572440341.361079,77476.125,12919,8,AY,1,100,0.403
1572440341.377831,77489.250,12919,8,AY,1,100,0.391
1572440341.394583,77502.375,12919,8,AY,1,100,0.418
1572440341.411336,77515.500,12919,8,AY,1,100,0.467
1572440341.428088,77528.625,12919,8,AY,1,100,0.456
1572440341.444841,77541.750,12919,8,AY,1,100,0.400
1572440341.461593,77554.875,12919,8,AY,1,100,0.373
1572440341.478346,77568.000,12919,8,AY,1,100,0.371
1572440341.494939,77581.000,12937,7,AY,1,100,0.388
1572440341.511532,77594.000,12937,7,AY,1,100,0.428
1572440341.528125,77607.000,12937,7,AY,1,100,0.448
1572440341.544718,77620.000,12937,7,AY,1,100,0.448
1572440341.561311,77633.000,12937,7,AY,1,100,0.446
1572440341.577904,77646.000,12937,7,AY,1,100,0.409
1572440341.594496,77659.000,12937,7,AY,1,100,0.396
1572440341.610770,77671.750,12955,8,AY,1,100,0.377
1572440341.627044,77684.500,12955,8,AY,1,100,0.359
1572440341.643318,77697.250,12955,8,AY,1,100,0.301
1572440341.659592,77710.000,12955,8,AY,1,100,0.289
1572440341.675866,77722.750,12955,8,AY,1,100,0.327
1572440341.692139,77735.500,12955,8,AY,1,100,0.337
1572440341.708413,77748.250,12955,8,AY,1,100,0.326
1572440341.724687,77761.000,12955,8,AY,1,100,0.311
1572440341.741121,77773.875,12973,8,AY,1,100,0.301
1572440341.757554,77786.750,12973,8,AY,1,100,0.303
1572440341.773987,77799.625,12973,8,AY,1,100,0.338
1572440341.790421,77812.500,12973,8,AY,1,100,0.365
1572440341.806854,77825.375,12973,8,AY,1,100,0.408
1572440341.823287,77838.250,12973,8,AY,1,100,0.424
1572440341.839721,77851.125,12973,8,AY,1,100,0.426
1572440341.856154,77864.000,12973,8,AY,1,100,0.421
1572440341.872588,77876.875,12991,8,AY,1,100,0.426
1572440341.889021,77889.750,12991,8,AY,1,100,0.443
1572440341.905454,77902.625,12991,8,AY,1,100,0.446
1572440341.921888,77915.500,12991,8,AY,1,100,0.448
1572440341.938321,77928.375,12991,8,AY,1,100,0.454
1572440341.954755,77941.250,12991,8,AY,1,100,0.454
1572440341.971188,77954.125,12991,8,AY,1,100,0.427
1572440341.987621,77967.000,12991,8,AY,1,100,0.382
1572440342.004214,77980.000,13010,8,AY,1,100,0.354
1572440342.020807,77993.000,13010,8,AY,1,100,0.353
1572440342.037400,78006.000,13010,8,AY,1,100,0.353
1572440342.053993,78019.000,13010,8,AY,1,100,0.355
1572440342.070586,78032.000,13010,8,AY,1,100,0.363
1572440342.087179,78045.000,13010,8,AY,1,100,0.361
1572440342.103772,78058.000,13010,8,AY,1,100,0.354
1572440342.120365,78071.000,13010,8,AY,1,100,0.364
1572440342.136958,78084.000,13028,8,AY,1,100,0.375
1572440342.153551,78097.000,13028,8,AY,1,100,0.379
1572440342.170144,78110.000,13028,8,AY,1,100,0.382
1572440342.186737,78123.000,13028,8,AY,1,100,0.336
1572440342.203330,78136.000,13028,8,AY,1,100,0.295
1572440342.219923,78149.000,13028,8,AY,1,100,0.337
1572440342.236516,78162.000,13028,8,AY,1,100,0.334
1572440342.253109,78175.000,13028,8,AY,1,100,0.380
1572440342.270066,78188.286,13046,7,AY,1,100,0.350
1572440342.287024,78201.571,13046,7,AY,1,100,0.383
1572440342.303981,78214.857,13046,7,AY,1,100,0.408
1572440342.320939,78228.143,13046,7,AY,1,100,0.365
1572440342.337897,78241.429,13046,7,AY,1,100,0.360
1572440342.354854,78254.714,13046,7,AY,1,100,0.361
1572440342.371812,78268.000,13046,7,AY,1,100,0.370
1572440342.388564,78281.125,13064,8,AY,1,100,0.368
1572440342.405317,78294.250,13064,8,AY,1,100,0.367
1572440342.422069,78307.375,13064,8,AY,1,100,0.389
1572440342.438822,78320.500,13064,8,AY,1,100,0.398
1572440342.455574,78333.625,13064,8,AY,1,100,0.426
1572440342.472327,78346.750,13064,8,AY,1,100,0.408
1572440342.489079,78359.875,13064,8,AY,1,100,0.406
1572440342.505832,78373.000,13064,8,AY,1,100,0.403
1572440342.522424,78386.000,13082,8,AY,1,100,0.379
1572440342.539017,78399.000,13082,8,AY,1,100,0.369
1572440342.555610,78412.000,13082,8,AY,1,100,0.356
1572440342.572203,78425.000,13082,8,AY,1,100,0.345
1572440342.588796,78438.000,13082,8,AY,1,100,0.333
1572440342.605389,78451.000,13082,8,AY,1,100,0.332
1572440342.621982,78464.000,13082,8,AY,1,100,0.339
1572440342.638575,78477.000,13082,8,AY,1,100,0.350
1572440342.655009,78489.875,13100,8,AY,1,100,0.355
1572440342.671442,78502.750,13100,8,AY,1,100,0.360
1572440342.687875,78515.625,13100,8,AY,1,100,0.379
1572440342.704309,78528.500,13100,8,AY,1,100,0.396
1572440342.720742,78541.375,13100,8,AY,1,100,0.396
1572440342.737175,78554.250,13100,8,AY,1,100,0.373
1572440342.753609,78567.125,13100,8,AY,1,100,0.360
1572440342.770042,78580.000,13100,8,AY,1,100,0.351
1572440342.786635,78593.000,13118,7,AY,1,100,0.341
1572440342.803228,78606.000,13118,7,AY,1,100,0.354
1572440342.819821,78619.000,13118,7,AY,1,100,0.365
1572440342.836414,78632.000,13118,7,AY,1,100,0.390
1572440342.853007,78645.000,13118,7,AY,1,100,0.408
1572440342.869600,78658.000,13118,7,AY,1,100,0.414
1572440342.886193,78671.000,13118,7,AY,1,100,0.412
1572440342.902626,78683.875,13136,8,AY,1,100,0.393
1572440342.919060,78696.750,13136,8,AY,1,100,0.356
1572440342.935493,78709.625,13136,8,AY,1,100,0.279
1572440342.951926,78722.500,13136,8,AY,1,100,0.276
1572440342.968360,78735.375,13136,8,AY,1,100,0.324
1572440342.984793,78748.250,13136,8,AY,1,100,0.353
1572440343.001226,78761.125,13136,8,AY,1,100,0.364
1572440343.017660,78774.000,13136,8,AY,1,100,0.399
1572440343.034253,78787.000,13155,8,AY,1,100,0.406
1572440343.050846,78800.000,13155,8,AY,1,100,0.393
1572440343.067439,78813.000,13155,8,AY,1,100,0.392
1572440343.084032,78826.000,13155,8,AY,1,100,0.399
1572440343.100625,78839.000,13155,8,AY,1,100,0.394
1572440343.117218,78852.000,13155,8,AY,1,100,0.407
1572440343.133811,78865.000,13155,8,AY,1,100,0.409
1572440343.150403,78878.000,13155,8,AY,1,100,0.407
1572440343.167156,78891.125,13173,8,AY,1,100,0.413
1572440343.183908,78904.250,13173,8,AY,1,100,0.408
1572440343.200661,78917.375,13173,8,AY,1,100,0.373
1572440343.217413,78930.500,13173,8,AY,1,100,0.326
1572440343.234166,78943.625,13173,8,AY,1,100,0.295
1572440343.250918,78956.750,13173,8,AY,1,100,0.279
1572440343.267671,78969.875,13173,8,AY,1,100,0.233
1572440343.284423,78983.000,13173,8,AY,1,100,0.230
1572440343.301381,78996.286,13191,7,AY,1,100,0.235
1572440343.318339,79009.571,13191,7,AY,1,100,0.251
1572440343.335296,79022.857,13191,7,AY,1,100,0.270
1572440343.352254,79036.143,13191,7,AY,1,100,0.294
1572440343.369211,79049.429,13191,7,AY,1,100,0.251
1572440343.386169,79062.714,13191,7,AY,1,100,0.247
1572440343.403127,79076.000,13191,7,AY,1,100,0.308
1572440343.419879,79089.125,13209,8,AY,1,100,0.350
1572440343.436632,79102.250,13209,8,AY,1,100,0.362
1572440343.453384,79115.375,13209,8,AY,1,100,0.423
1572440343.470137,79128.500,13209,8,AY,1,100,0.417
1572440343.486889,79141.625,13209,8,AY,1,100,0.387
1572440343.503642,79154.750,13209,8,AY,1,100,0.389
1572440343.520394,79167.875,13209,8,AY,1,100,0.415
1572440343.537147,79181.000,13209,8,AY,1,100,0.444
1572440343.553899,79194.125,13226,8,AY,1,100,0.433
1572440343.570652,79207.250,13226,8,AY,1,100,0.428
1572440343.587404,79220.375,13226,8,AY,1,100,0.430
1572440343.604156,79233.500,13226,8,AY,1,100,0.467
1572440343.620909,79246.625,13226,8,AY,1,100,0.482
1572440343.637661,79259.750,13226,8,AY,1,100,0.481
1572440343.654414,79272.875,13226,8,AY,1,100,0.475
1572440343.671166,79286.000,13226,8,AY,1,100,0.478
1572440343.687577,79298.857,13244,7,AY,1,100,0.487
1572440343.703988,79311.714,13244,7,AY,1,100,0.505
1572440343.720398,79324.571,13244,7,AY,1,100,0.525
1572440343.736809,79337.429,13244,7,AY,1,100,0.539
1572440343.753219,79350.286,13244,7,AY,1,100,0.543
1572440343.769630,79363.143,13244,7,AY,1,100,0.532
1572440343.786041,79376.000,13244,7,AY,1,100,0.489
1572440343.802793,79389.125,13262,8,AY,1,100,0.483
1572440343.819546,79402.250,13262,8,AY,1,100,0.486
1572440343.836298,79415.375,13262,8,AY,1,100,0.477
1572440343.853050,79428.500,13262,8,AY,1,100,0.477
1572440343.869803,79441.625,13262,8,AY,1,100,0.477
1572440343.886555,79454.750,13262,8,AY,1,100,0.475
1572440343.903308,79467.875,13262,8,AY,1,100,0.480
1572440343.920060,79481.000,13262,8,AY,1,100,0.473
1572440343.936494,79493.875,13280,8,AY,1,100,0.460
1572440343.952927,79506.750,13280,8,AY,1,100,0.480
1572440343.969361,79519.625,13280,8,AY,1,100,0.537
1572440343.985794,79532.500,13280,8,AY,1,100,0.513
1572440344.002227,79545.375,13280,8,AY,1,100,0.486
1572440344.018661,79558.250,13280,8,AY,1,100,0.465
1572440344.035094,79571.125,13280,8,AY,1,100,0.478
1572440344.051528,79584.000,13280,8,AY,1,100,0.489
1572440344.068439,79597.250,13299,8,AY,1,100,0.508
1572440344.085352,79610.500,13299,8,AY,1,100,0.537
1572440344.102264,79623.750,13299,8,AY,1,100,0.530
1572440344.119176,79637.000,13299,8,AY,1,100,0.501
1572440344.136088,79650.250,13299,8,AY,1,100,0.493
1572440344.153000,79663.500,13299,8,AY,1,100,0.495
1572440344.169912,79676.750,13299,8,AY,1,100,0.464
1572440344.186824,79690.000,13299,8,AY,1,100,0.458
1572440344.203599,79703.143,13317,7,AY,1,100,0.471
1572440344.220374,79716.286,13317,7,AY,1,100,0.445
1572440344.237150,79729.429,13317,7,AY,1,100,0.451
1572440344.253925,79742.571,13317,7,AY,1,100,0.456
1572440344.270700,79755.714,13317,7,AY,1,100,0.477
1572440344.287476,79768.857,13317,7,AY,1,100,0.473
1572440344.304251,79782.000,13317,7,AY,1,100,0.457
1572440344.321003,79795.125,13335,8,AY,1,100,0.458
1572440344.337756,79808.250,13335,8,AY,1,100,0.458
1572440344.354508,79821.375,13335,8,AY,1,100,0.473
1572440344.371261,79834.500,13335,8,AY,1,100,0.475
1572440344.388013,79847.625,13335,8,AY,1,100,0.475
1572440344.404766,79860.750,13335,8,AY,1,100,0.462
1572440344.421518,79873.875,13335,8,AY,1,100,0.463
1572440344.438271,79887.000,13335,8,AY,1,100,0.478
1572440344.455183,79900.250,13351,8,AY,1,100,0.512
1572440344.472095,79913.500,13351,8,AY,1,100,0.535
1572440344.489007,79926.750,13351,8,AY,1,100,0.544
1572440344.505919,79940.000,13351,8,AY,1,100,0.532
1572440344.522831,79953.250,13351,8,AY,1,100,0.524
1572440344.539743,79966.500,13351,8,AY,1,100,0.539
1572440344.556655,79979.750,13351,8,AY,1,100,0.545
1572440344.573567,79993.000,13351,8,AY,1,100,0.542
1572440344.590000,80005.875,13369,8,AY,1,100,0.532
1572440344.606434,80018.750,13369,8,AY,1,100,0.517
1572440344.622867,80031.625,13369,8,AY,1,100,0.524
1572440344.639300,80044.500,13369,8,AY,1,100,0.573
1572440344.655734,80057.375,13369,8,AY,1,100,0.561
1572440344.672167,80070.250,13369,8,AY,1,100,0.539
1572440344.688601,80083.125,13369,8,AY,1,100,0.505
1572440344.705034,80096.000,13369,8,AY,1,100,0.525
1572440344.721445,80108.857,13387,7,AY,1,100,0.550
1572440344.737855,80121.714,13387,7,AY,1,100,0.606
1572440344.754266,80134.571,13387,7,AY,1,100,0.613
1572440344.770676,80147.429,13387,7,AY,1,100,0.648
1572440344.787087,80160.286,13387,7,AY,1,100,0.643
1572440344.803498,80173.143,13387,7,AY,1,100,0.620
1572440344.819908,80186.000,13387,7,AY,1,100,0.607
1572440344.836501,80199.000,13405,8,AY,1,100,0.576
1572440344.853094,80212.000,13405,8,AY,1,100,0.552
1572440344.869687,80225.000,13405,8,AY,1,100,0.510
1572440344.886280,80238.000,13405,8,AY,1,100,0.470
1572440344.902873,80251.000,13405,8,AY,1,100,0.457
1572440344.919466,80264.000,13405,8,AY,1,100,0.437
1572440344.936059,80277.000,13405,8,AY,1,100,0.429
1572440344.952652,80290.000,13405,8,AY,1,100,0.433
1572440344.969245,80303.000,13423,8,AY,1,100,0.424
1572440344.985838,80316.000,13423,8,AY,1,100,0.409
1572440345.002430,80329.000,13423,8,AY,1,100,0.438
1572440345.019023,80342.000,13423,8,AY,1,100,0.506
1572440345.035616,80355.000,13423,8,AY,1,100,0.498
1572440345.052209,80368.000,13423,8,AY,1,100,0.476
1572440345.068802,80381.000,13423,8,AY,1,100,0.404
1572440345.085395,80394.000,13423,8,AY,1,100,0.390
1572440345.101669,80406.750,13442,8,AY,1,100,0.406
1572440345.117943,80419.500,13442,8,AY,1,100,0.429
1572440345.134217,80432.250,13442,8,AY,1,100,0.446
1572440345.150491,80445.000,13442,8,AY,1,100,0.438
1572440345.166764,80457.750,13442,8,AY,1,100,0.406
1572440345.183038,80470.500,13442,8,AY,1,100,0.400
1572440345.199312,80483.250,13442,8,AY,1,100,0.380
1572440345.215586,80496.000,13442,8,AY,1,100,0.442
1572440345.232361,80509.143,13460,7,AY,1,100,0.428
1572440345.249136,80522.286,13460,7,AY,1,100,0.415
1572440345.265912,80535.429,13460,7,AY,1,100,0.401
1572440345.282687,80548.571,13460,7,AY,1,100,0.358
1572440345.299462,80561.714,13460,7,AY,1,100,0.294
1572440345.316238,80574.857,13460,7,AY,1,100,0.304
1572440345.333013,80588.000,13460,7,AY,1,100,0.291
1572440345.349765,80601.125,13478,8,AY,1,100,0.279
1572440345.366518,80614.250,13478,8,AY,1,100,0.314
1572440345.383270,80627.375,13478,8,AY,1,100,0.309
1572440345.400023,80640.500,13478,8,AY,1,100,0.323
1572440345.416775,80653.625,13478,8,AY,1,100,0.353
1572440345.433528,80666.750,13478,8,AY,1,100,0.382
1572440345.450280,80679.875,13478,8,AY,1,100,0.365
1572440345.467033,80693.000,13478,8,AY,1,100,0.335
1572440345.483785,80706.125,13496,8,AY,1,100,0.300
1572440345.500538,80719.250,13496,8,AY,1,100,0.271
1572440345.517290,80732.375,13496,8,AY,1,100,0.314
1572440345.534043,80745.500,13496,8,AY,1,100,0.446
1572440345.550795,80758.625,13496,8,AY,1,100,0.564
1572440345.567548,80771.750,13496,8,AY,1,100,0.604
1572440345.584300,80784.875,13496,8,AY,1,100,0.605
1572440345.601053,80798.000,13496,8,AY,1,100,0.490
1572440345.617646,80811.000,13514,8,AY,1,100,0.442
1572440345.634238,80824.000,13514,8,AY,1,100,0.349
1572440345.650831,80837.000,13514,8,AY,1,100,0.319
1572440345.667424,80850.000,13514,8,AY,1,100,0.333
1572440345.684017,80863.000,13514,8,AY,1,100,0.384
1572440345.700610,80876.000,13514,8,AY,1,100,0.406
1572440345.717203,80889.000,13514,8,AY,1,100,0.424
1572440345.733796,80902.000,13514,8,AY,1,100,0.453
1572440345.750389,80915.000,13532,7,AY,1,100,0.456
1572440345.766982,80928.000,13532,7,AY,1,100,0.426
1572440345.783575,80941.000,13532,7,AY,1,100,0.419
1572440345.800168,80954.000,13532,7,AY,1,100,0.416
1572440345.816761,80967.000,13532,7,AY,1,100,0.411
1572440345.833354,80980.000,13532,7,AY,1,100,0.420
1572440345.849947,80993.000,13532,7,AY,1,100,0.429
1572440345.866540,81006.000,13550,8,AY,1,100,0.460
1572440345.883133,81019.000,13550,8,AY,1,100,0.474
1572440345.899725,81032.000,13550,8,AY,1,100,0.472
1572440345.916318,81045.000,13550,8,AY,1,100,0.448
1572440345.932911,81058.000,13550,8,AY,1,100,0.422
1572440345.949504,81071.000,13550,8,AY,1,100,0.417
1572440345.966097,81084.000,13550,8,AY,1,100,0.391
1572440345.982690,81097.000,13550,8,AY,1,100,0.386
1572440345.999283,81110.000,13568,8,AY,1,100,0.396
1572440346.015876,81123.000,13568,8,AY,1,100,0.428
1572440346.032469,81136.000,13568,8,AY,1,100,0.408
1572440346.049062,81149.000,13568,8,AY,1,100,0.375
1572440346.065655,81162.000,13568,8,AY,1,100,0.365
1572440346.082248,81175.000,13568,8,AY,1,100,0.385
1572440346.098841,81188.000,13568,8,AY,1,100,0.393
1572440346.115434,81201.000,13568,8,AY,1,100,0.356
1572440346.132027,81214.000,13587,8,AY,1,100,0.339
1572440346.148620,81227.000,13587,8,AY,1,100,0.327
1572440346.165213,81240.000,13587,8,AY,1,100,0.394
1572440346.181805,81253.000,13587,8,AY,1,100,0.423
1572440346.198398,81266.000,13587,8,AY,1,100,0.398
1572440346.214991,81279.000,13587,8,AY,1,100,0.362
1572440346.231584,81292.000,13587,8,AY,1,100,0.351
1572440346.248177,81305.000,13587,8,AY,1,100,0.354
1572440346.264877,81318.083,13608,12,AY,1,100,0.398
1572440346.281576,81331.167,13608,12,AY,1,100,0.416
1572440346.298275,81344.250,13608,12,AY,1,100,0.416
1572440346.314975,81357.333,13608,12,AY,1,100,0.405
1572440346.331674,81370.417,13608,12,AY,1,100,0.363
1572440346.348373,81383.500,13608,12,AY,1,100,0.350
1572440346.365072,81396.583,13608,12,AY,1,100,0.375
1572440346.381772,81409.667,13608,12,AY,1,100,0.389
1572440346.398471,81422.750,13608,12,AY,1,100,0.400
1572440346.415170,81435.833,13608,12,AY,1,100,0.402
1572440346.431870,81448.917,13608,12,AY,1,100,0.402
1572440346.448569,81462.000,13608,12,AY,1,100,0.409
1572440346.465481,81475.250,13628,8,AY,1,100,0.412
1572440346.482393,81488.500,13628,8,AY,1,100,0.403
1572440346.499305,81501.750,13628,8,AY,1,100,0.409
1572440346.516217,81515.000,13628,8,AY,1,100,0.420
1572440346.533129,81528.250,13628,8,AY,1,100,0.432
1572440346.550041,81541.500,13628,8,AY,1,100,0.432
1572440346.566953,81554.750,13628,8,AY,1,100,0.435
1572440346.583865,81568.000,13628,8,AY,1,100,0.427
1572440346.600640,81581.143,13646,7,AY,1,100,0.389
1572440346.617416,81594.286,13646,7,AY,1,100,0.371
1572440346.634191,81607.429,13646,7,AY,1,100,0.339
1572440346.650966,81620.571,13646,7,AY,1,100,0.330
1572440346.667742,81633.714,13646,7,AY,1,100,0.333
1572440346.684517,81646.857,13646,7,AY,1,100,0.357
1572440346.701292,81660.000,13646,7,AY,1,100,0.379
1572440346.718204,81673.250,13664,8,AY,1,100,0.386
1572440346.735116,81686.500,13664,8,AY,1,100,0.388
1572440346.752028,81699.750,13664,8,AY,1,100,0.382
1572440346.768940,81713.000,13664,8,AY,1,100,0.363
1572440346.785852,81726.250,13664,8,AY,1,100,0.363
1572440346.802764,81739.500,13664,8,AY,1,100,0.376
1572440346.819676,81752.750,13664,8,AY,1,100,0.394
1572440346.836588,81766.000,13664,8,AY,1,100,0.417
1572440346.853500,81779.250,13680,8,AY,1,100,0.431
1572440346.870412,81792.500,13680,8,AY,1,100,0.441
1572440346.887324,81805.750,13680,8,AY,1,100,0.454
1572440346.904237,81819.000,13680,8,AY,1,100,0.450
1572440346.921149,81832.250,13680,8,AY,1,100,0.410
1572440346.938061,81845.500,13680,8,AY,1,100,0.393
1572440346.954973,81858.750,13680,8,AY,1,100,0.396
1572440346.971884,81872.000,13680,8,AY,1,100,0.385
1572440346.988318,81884.875,13698,8,AY,1,100,0.380
1572440347.004751,81897.750,13698,8,AY,1,100,0.387
1572440347.021185,81910.625,13698,8,AY,1,100,0.384
1572440347.037618,81923.500,13698,8,AY,1,100,0.391
1572440347.054052,81936.375,13698,8,AY,1,100,0.403
1572440347.070485,81949.250,13698,8,AY,1,100,0.446
1572440347.086918,81962.125,13698,8,AY,1,100,0.448
1572440347.103352,81975.000,13698,8,AY,1,100,0.438
1572440347.119945,81988.000,13717,7,AY,1,100,0.460
1572440347.136538,82001.000,13717,7,AY,1,100,0.473
1572440347.153131,82014.000,13717,7,AY,1,100,0.486
1572440347.169724,82027.000,13717,7,AY,1,100,0.360
1572440347.186316,82040.000,13717,7,AY,1,100,0.335
1572440347.202909,82053.000,13717,7,AY,1,100,0.348
1572440347.219502,82066.000,13717,7,AY,1,100,0.297
1572440347.236255,82079.125,13735,8,AY,1,100,0.295
1572440347.253007,82092.250,13735,8,AY,1,100,0.330
1572440347.269760,82105.375,13735,8,AY,1,100,0.321
1572440347.286512,82118.500,13735,8,AY,1,100,0.324
1572440347.303265,82131.625,13735,8,AY,1,100,0.288
1572440347.320017,82144.750,13735,8,AY,1,100,0.248
1572440347.336770,82157.875,13735,8,AY,1,100,0.191
1572440347.353522,82171.000,13735,8,AY,1,100,0.158
1572440347.370275,82184.125,13753,8,AY,1,100,0.009
1572440347.387027,82197.250,13753,8,AY,1,100,-0.107
1572440347.403780,82210.375,13753,8,AY,1,100,-0.229
1572440347.420532,82223.500,13753,8,AY,1,100,-0.232
1572440347.437284,82236.625,13753,8,AY,1,100,-0.083
1572440347.454037,82249.750,13753,8,AY,1,100,0.153
1572440347.470789,82262.875,13753,8,AY,1,100,0.228
1572440347.487542,82276.000,13753,8,AY,1,100,0.257
1572440347.504135,82289.000,13771,8,AY,1,100,0.311
1572440347.520728,82302.000,13771,8,AY,1,100,0.354
1572440347.537321,82315.000,13771,8,AY,1,100,0.406
1572440347.553914,82328.000,13771,8,AY,1,100,0.377
1572440347.570507,82341.000,13771,8,AY,1,100,0.248
1572440347.587100,82354.000,13771,8,AY,1,100,0.223
1572440347.603693,82367.000,13771,8,AY,1,100,0.192
1572440347.620286,82380.000,13771,8,AY,1,100,0.170
1572440347.637061,82393.143,13789,7,AY,1,100,0.140
1572440347.653836,82406.286,13789,7,AY,1,100,0.145
1572440347.670611,82419.429,13789,7,AY,1,100,0.198
1572440347.687387,82432.571,13789,7,AY,1,100,0.258
1572440347.704162,82445.714,13789,7,AY,1,100,0.242
1572440347.720937,82458.857,13789,7,AY,1,100,0.229
1572440347.737712,82472.000,13789,7,AY,1,100,0.211
1572440347.754465,82485.125,13807,8,AY,1,100,0.203
1572440347.771217,82498.250,13807,8,AY,1,100,0.218
1572440347.787970,82511.375,13807,8,AY,1,100,0.240
1572440347.804722,82524.500,13807,8,AY,1,100,0.256
1572440347.821475,82537.625,13807,8,AY,1,100,0.261
1572440347.838227,82550.750,13807,8,AY,1,100,0.326
1572440347.854980,82563.875,13807,8,AY,1,100,0.359
1572440347.871732,82577.000,13807,8,AY,1,100,0.351
1572440347.888325,82590.000,13825,8,AY,1,100,0.355
1572440347.904918,82603.000,13825,8,AY,1,100,0.340
1572440347.921511,82616.000,13825,8,AY,1,100,0.330
1572440347.938104,82629.000,13825,8,AY,1,100,0.323
1572440347.954697,82642.000,13825,8,AY,1,100,0.318
1572440347.971290,82655.000,13825,8,AY,1,100,0.349
1572440347.987883,82668.000,13825,8,AY,1,100,0.357
1572440348.004476,82681.000,13825,8,AY,1,100,0.325
1572440348.020750,82693.750,13843,8,AY,1,100,0.327
1572440348.037024,82706.500,13843,8,AY,1,100,0.329
1572440348.053297,82719.250,13843,8,AY,1,100,0.342
1572440348.069571,82732.000,13843,8,AY,1,100,0.333
1572440348.085845,82744.750,13843,8,AY,1,100,0.314
1572440348.102119,82757.500,13843,8,AY,1,100,0.312
1572440348.118393,82770.250,13843,8,AY,1,100,0.320
1572440348.134667,82783.000,13843,8,AY,1,100,0.326
1572440348.151077,82795.857,13862,7,AY,1,100,0.347
1572440348.167488,82808.714,13862,7,AY,1,100,0.361
1572440348.183898,82821.571,13862,7,AY,1,100,0.370
1572440348.200309,82834.429,13862,7,AY,1,100,0.349
1572440348.216720,82847.286,13862,7,AY,1,100,0.333
1572440348.233130,82860.143,13862,7,AY,1,100,0.289
1572440348.249541,82873.000,13862,7,AY,1,100,0.275
1572440348.265974,82885.875,13880,8,AY,1,100,0.327
1572440348.282408,82898.750,13880,8,AY,1,100,0.354
1572440348.298841,82911.625,13880,8,AY,1,100,0.324
1572440348.315274,82924.500,13880,8,AY,1,100,0.309
1572440348.331708,82937.375,13880,8,AY,1,100,0.311
1572440348.348141,82950.250,13880,8,AY,1,100,0.323
1572440348.364574,82963.125,13880,8,AY,1,100,0.321
1572440348.381008,82976.000,13880,8,AY,1,100,0.328
1572440348.397920,82989.250,13898,8,AY,1,100,0.368
1572440348.414832,83002.500,13898,8,AY,1,100,0.384
1572440348.431744,83015.750,13898,8,AY,1,100,0.389
1572440348.448656,83029.000,13898,8,AY,1,100,0.360
1572440348.465568,83042.250,13898,8,AY,1,100,0.348
1572440348.482480,83055.500,13898,8,AY,1,100,0.349
1572440348.499392,83068.750,13898,8,AY,1,100,0.338
1572440348.516304,83082.000,13898,8,AY,1,100,0.325
1572440348.532897,83095.000,13916,8,AY,1,100,0.279
1572440348.549490,83108.000,13916,8,AY,1,100,0.254
1572440348.566083,83121.000,13916,8,AY,1,100,0.230
1572440348.582676,83134.000,13916,8,AY,1,100,0.242
1572440348.599269,83147.000,13916,8,AY,1,100,0.260
1572440348.615862,83160.000,13916,8,AY,1,100,0.251
1572440348.632455,83173.000,13916,8,AY,1,100,0.260
1572440348.649048,83186.000,13916,8,AY,1,100,0.273
1572440348.666005,83199.286,13934,7,AY,1,100,0.287
1572440348.682963,83212.571,13934,7,AY,1,100,0.276
1572440348.699920,83225.857,13934,7,AY,1,100,0.278
1572440348.716878,83239.143,13934,7,AY,1,100,0.272
1572440348.733836,83252.429,13934,7,AY,1,100,0.260
1572440348.750793,83265.714,13934,7,AY,1,100,0.271
1572440348.767751,83279.000,13934,7,AY,1,100,0.285
1572440348.784344,83292.000,13952,8,AY,1,100,0.275
1572440348.800937,83305.000,13952,8,AY,1,100,0.272
1572440348.817530,83318.000,13952,8,AY,1,100,0.268
1572440348.834123,83331.000,13952,8,AY,1,100,0.272
1572440348.850716,83344.000,13952,8,AY,1,100,0.275
1572440348.867309,83357.000,13952,8,AY,1,100,0.278
1572440348.883902,83370.000,13952,8,AY,1,100,0.284
1572440348.900495,83383.000,13952,8,AY,1,100,0.310
1572440348.917247,83396.125,13970,8,AY,1,100,0.301
1572440348.934000,83409.250,13970,8,AY,1,100,0.289
1572440348.950752,83422.375,13970,8,AY,1,100,0.271
1572440348.967505,83435.500,13970,8,AY,1,100,0.274
1572440348.984257,83448.625,13970,8,AY,1,100,0.286
1572440349.001009,83461.750,13970,8,AY,1,100,0.318
1572440349.017762,83474.875,13970,8,AY,1,100,0.333
1572440349.034514,83488.000,13970,8,AY,1,100,0.330
1572440349.050743,83500.714,13988,7,AY,1,100,0.322
1572440349.066971,83513.429,13988,7,AY,1,100,0.344
1572440349.083199,83526.143,13988,7,AY,1,100,0.354
1572440349.099427,83538.857,13988,7,AY,1,100,0.365
1572440349.115656,83551.571,13988,7,AY,1,100,0.359
1572440349.131884,83564.286,13988,7,AY,1,100,0.340
1572440349.148112,83577.000,13988,7,AY,1,100,0.313
1572440349.164865,83590.125,14007,8,AY,1,100,0.282
1572440349.181617,83603.250,14007,8,AY,1,100,0.277
1572440349.198370,83616.375,14007,8,AY,1,100,0.307
1572440349.215122,83629.500,14007,8,AY,1,100,0.317
1572440349.231874,83642.625,14007,8,AY,1,100,0.329
1572440349.248627,83655.750,14007,8,AY,1,100,0.350
1572440349.265380,83668.875,14007,8,AY,1,100,0.366
1572440349.282132,83682.000,14007,8,AY,1,100,0.390
1572440349.298565,83694.875,14025,8,AY,1,100,0.396
1572440349.314999,83707.750,14025,8,AY,1,100,0.382
1572440349.331432,83720.625,14025,8,AY,1,100,0.349
1572440349.347866,83733.500,14025,8,AY,1,100,0.341
1572440349.364299,83746.375,14025,8,AY,1,100,0.347
1572440349.380732,83759.250,14025,8,AY,1,100,0.358
1572440349.397166,83772.125,14025,8,AY,1,100,0.338
1572440349.413599,83785.000,14025,8,AY,1,100,0.316
1572440349.430511,83798.250,14043,8,AY,1,100,0.282
1572440349.447423,83811.500,14043,8,AY,1,100,0.277
1572440349.464335,83824.750,14043,8,AY,1,100,0.323
1572440349.481247,83838.000,14043,8,AY,1,100,0.467
1572440349.498159,83851.250,14043,8,AY,1,100,0.565
1572440349.515071,83864.500,14043,8,AY,1,100,0.543
1572440349.531983,83877.750,14043,8,AY,1,100,0.447
1572440349.548895,83891.000,14043,8,AY,1,100,0.422
1572440349.565671,83904.143,14061,7,AY,1,100,0.413
1572440349.582446,83917.286,14061,7,AY,1,100,0.416
1572440349.599221,83930.429,14061,7,AY,1,100,0.415
1572440349.615997,83943.571,14061,7,AY,1,100,0.396
1572440349.632772,83956.714,14061,7,AY,1,100,0.392
1572440349.649547,83969.857,14061,7,AY,1,100,0.389
1572440349.666322,83983.000,14061,7,AY,1,100,0.395
1572440349.683234,83996.250,14079,8,AY,1,100,0.408
1572440349.700146,84009.500,14079,8,AY,1,100,0.412
1572440349.717058,84022.750,14079,8,AY,1,100,0.412
1572440349.733970,84036.000,14079,8,AY,1,100,0.408
1572440349.750883,84049.250,14079,8,AY,1,100,0.408
1572440349.767795,84062.500,14079,8,AY,1,100,0.420
1572440349.784707,84075.750,14079,8,AY,1,100,0.437
1572440349.801619,84089.000,14079,8,AY,1,100,0.455
1572440349.818212,84102.000,14097,8,AY,1,100,0.427
1572440349.834805,84115.000,14097,8,AY,1,100,0.422
1572440349.851398,84128.000,14097,8,AY,1,100,0.424
1572440349.867990,84141.000,14097,8,AY,1,100,0.437
1572440349.884583,84154.000,14097,8,AY,1,100,0.427
1572440349.901176,84167.000,14097,8,AY,1,100,0.398
1572440349.917769,84180.000,14097,8,AY,1,100,0.383
1572440349.934362,84193.000,14097,8,AY,1,100,0.392
1572440349.950773,84205.857,14114,7,AY,1,100,0.391
1572440349.967183,84218.714,14114,7,AY,1,100,0.356
1572440349.983594,84231.571,14114,7,AY,1,100,0.354
1572440350.000005,84244.429,14114,7,AY,1,100,0.396
1572440350.016415,84257.286,14114,7,AY,1,100,0.407
1572440350.032826,84270.143,14114,7,AY,1,100,0.410
1572440350.049236,84283.000,14114,7,AY,1,100,0.413
1572440350.066148,84296.250,14132,8,AY,1,100,0.427
1572440350.083060,84309.500,14132,8,AY,1,100,0.434
1572440350.099972,84322.750,14132,8,AY,1,100,0.440
1572440350.116884,84336.000,14132,8,AY,1,100,0.438
1572440350.133796,84349.250,14132,8,AY,1,100,0.427
1572440350.150708,84362.500,14132,8,AY,1,100,0.427
1572440350.167620,84375.750,14132,8,AY,1,100,0.409
1572440350.184533,84389.000,14132,8,AY,1,100,0.389
1572440350.201285,84402.125,14151,8,AY,1,100,0.388
1572440350.218038,84415.250,14151,8,AY,1,100,0.404
1572440350.234790,84428.375,14151,8,AY,1,100,0.417
1572440350.251543,84441.500,14151,8,AY,1,100,0.407
1572440350.268295,84454.625,14151,8,AY,1,100,0.397
1572440350.285048,84467.750,14151,8,AY,1,100,0.388
1572440350.301800,84480.875,14151,8,AY,1,100,0.407
1572440350.318552,84494.000,14151,8,AY,1,100,0.406
1572440350.334986,84506.875,14169,8,AY,1,100,0.421
1572440350.351419,84519.750,14169,8,AY,1,100,0.424
1572440350.367853,84532.625,14169,8,AY,1,100,0.419
1572440350.384286,84545.500,14169,8,AY,1,100,0.413
1572440350.400719,84558.375,14169,8,AY,1,100,0.422
1572440350.417153,84571.250,14169,8,AY,1,100,0.422
1572440350.433586,84584.125,14169,8,AY,1,100,0.414
1572440350.450020,84597.000,14169,8,AY,1,100,0.403
1572440350.467342,84610.571,14187,7,AY,1,100,0.389
1572440350.484664,84624.143,14187,7,AY,1,100,0.389
1572440350.501987,84637.714,14187,7,AY,1,100,0.394
1572440350.519309,84651.286,14187,7,AY,1,100,0.393
1572440350.536631,84664.857,14187,7,AY,1,100,0.398
1572440350.553953,84678.429,14187,7,AY,1,100,0.398
1572440350.571276,84692.000,14187,7,AY,1,100,0.402
1572440350.587709,84704.875,14205,8,AY,1,100,0.416
1572440350.604142,84717.750,14205,8,AY,1,100,0.411
1572440350.620576,84730.625,14205,8,AY,1,100,0.393
1572440350.637009,84743.500,14205,8,AY,1,100,0.370
1572440350.653443,84756.375,14205,8,AY,1,100,0.374
1572440350.669876,84769.250,14205,8,AY,1,100,0.381
1572440350.686309,84782.125,14205,8,AY,1,100,0.391
1572440350.702743,84795.000,14205,8,AY,1,100,0.401
1572440350.719495,84808.125,14222,8,AY,1,100,0.396
1572440350.736248,84821.250,14222,8,AY,1,100,0.411
1572440350.753000,84834.375,14222,8,AY,1,100,0.420
1572440350.769753,84847.500,14222,8,AY,1,100,0.409
1572440350.786505,84860.625,14222,8,AY,1,100,0.393
1572440350.803258,84873.750,14222,8,AY,1,100,0.391
1572440350.820010,84886.875,14222,8,AY,1,100,0.385
1572440350.836763,84900.000,14222,8,AY,1,100,0.371
1572440350.853356,84913.000,14239,7,AY,1,100,0.370
1572440350.869949,84926.000,14239,7,AY,1,100,0.364
1572440350.886541,84939.000,14239,7,AY,1,100,0.375
1572440350.903134,84952.000,14239,7,AY,1,100,0.397
1572440350.919727,84965.000,14239,7,AY,1,100,0.426
1572440350.936320,84978.000,14239,7,AY,1,100,0.428
1572440350.952913,84991.000,14239,7,AY,1,100,0.423
1572440350.969666,85004.125,14257,8,AY,1,100,0.397
1572440350.986418,85017.250,14257,8,AY,1,100,0.390
1572440351.003171,85030.375,14257,8,AY,1,100,0.370
1572440351.019923,85043.500,14257,8,AY,1,100,0.356
1572440351.036676,85056.625,14257,8,AY,1,100,0.368
1572440351.053428,85069.750,14257,8,AY,1,100,0.368
1572440351.070181,85082.875,14257,8,AY,1,100,0.363
1572440351.086933,85096.000,14257,8,AY,1,100,0.362
1572440351.103207,85108.750,14275,8,AY,1,100,0.378
1572440351.119481,85121.500,14275,8,AY,1,100,0.399
1572440351.135755,85134.250,14275,8,AY,1,100,0.436
1572440351.152029,85147.000,14275,8,AY,1,100,0.436
1572440351.168302,85159.750,14275,8,AY,1,100,0.434
1572440351.184576,85172.500,14275,8,AY,1,100,0.422
1572440351.200850,85185.250,14275,8,AY,1,100,0.406
1572440351.217124,85198.000,14275,8,AY,1,100,0.388
1572440351.233717,85211.000,14294,8,AY,1,100,0.371
1572440351.250310,85224.000,14294,8,AY,1,100,0.369
1572440351.266903,85237.000,14294,8,AY,1,100,0.379
1572440351.283496,85250.000,14294,8,AY,1,100,0.397
1572440351.300088,85263.000,14294,8,AY,1,100,0.409
1572440351.316681,85276.000,14294,8,AY,1,100,0.401
1572440351.333274,85289.000,14294,8,AY,1,100,0.384
1572440351.349867,85302.000,14294,8,AY,1,100,0.380
1572440351.366460,85315.000,14312,8,AY,1,100,0.379
1572440351.383053,85328.000,14312,8,AY,1,100,0.395
1572440351.399646,85341.000,14312,8,AY,1,100,0.378
1572440351.416239,85354.000,14312,8,AY,1,100,0.369
1572440351.432832,85367.000,14312,8,AY,1,100,0.371
1572440351.449425,85380.000,14312,8,AY,1,100,0.381
1572440351.466018,85393.000,14312,8,AY,1,100,0.401
1572440351.482611,85406.000,14312,8,AY,1,100,0.384
1572440351.499044,85418.875,14330,8,AY,1,100,0.385
1572440351.515478,85431.750,14330,8,AY,1,100,0.383
1572440351.531911,85444.625,14330,8,AY,1,100,0.391
1572440351.548344,85457.500,14330,8,AY,1,100,0.389
1572440351.564778,85470.375,14330,8,AY,1,100,0.392
1572440351.581211,85483.250,14330,8,AY,1,100,0.374
1572440351.597645,85496.125,14330,8,AY,1,100,0.388
1572440351.614078,85509.000,14330,8,AY,1,100,0.402
1572440351.630853,85522.143,14348,7,AY,1,100,0.408
1572440351.647629,85535.286,14348,7,AY,1,100,0.413
1572440351.664404,85548.429,14348,7,AY,1,100,0.402
1572440351.681179,85561.571,14348,7,AY,1,100,0.387
1572440351.697954,85574.714,14348,7,AY,1,100,0.385
1572440351.714730,85587.857,14348,7,AY,1,100,0.385
1572440351.731505,85601.000,14348,7,AY,1,100,0.377
1572440351.748257,85614.125,14366,8,AY,1,100,0.385
1572440351.765010,85627.250,14366,8,AY,1,100,0.366
1572440351.781762,85640.375,14366,8,AY,1,100,0.369
1572440351.798515,85653.500,14366,8,AY,1,100,0.409
1572440351.815267,85666.625,14366,8,AY,1,100,0.439
1572440351.832020,85679.750,14366,8,AY,1,100,0.437
1572440351.848772,85692.875,14366,8,AY,1,100,0.422
1572440351.865525,85706.000,14366,8,AY,1,100,0.425
1572440351.882437,85719.250,14384,8,AY,1,100,0.445
1572440351.899349,85732.500,14384,8,AY,1,100,0.424
1572440351.916261,85745.750,14384,8,AY,1,100,0.348
1572440351.933173,85759.000,14384,8,AY,1,100,0.379
1572440351.950085,85772.250,14384,8,AY,1,100,0.397
1572440351.966997,85785.500,14384,8,AY,1,100,0.372
1572440351.983909,85798.750,14384,8,AY,1,100,0.404
1572440352.000821,85812.000,14384,8,AY,1,100,0.446
1572440352.017254,85824.875,14402,8,AY,1,100,0.420
1572440352.033688,85837.750,14402,8,AY,1,100,0.389
1572440352.050121,85850.625,14402,8,AY,1,100,0.377
1572440352.066555,85863.500,14402,8,AY,1,100,0.381
1572440352.082988,85876.375,14402,8,AY,1,100,0.366
1572440352.099421,85889.250,14402,8,AY,1,100,0.340
1572440352.115855,85902.125,14402,8,AY,1,100,0.347
1572440352.132288,85915.000,14402,8,AY,1,100,0.353
1572440352.148699,85927.857,14420,7,AY,1,100,0.355
1572440352.165109,85940.714,14420,7,AY,1,100,0.353
1572440352.181520,85953.571,14420,7,AY,1,100,0.332
1572440352.197931,85966.429,14420,7,AY,1,100,0.372
1572440352.214341,85979.286,14420,7,AY,1,100,0.385
1572440352.230752,85992.143,14420,7,AY,1,100,0.396
1572440352.247162,86005.000,14420,7,AY,1,100,0.405
1572440352.263755,86018.000,14439,8,AY,1,100,0.417
1572440352.280348,86031.000,14439,8,AY,1,100,0.445
1572440352.296941,86044.000,14439,8,AY,1,100,0.435
1572440352.313534,86057.000,14439,8,AY,1,100,0.448
1572440352.330127,86070.000,14439,8,AY,1,100,0.516
1572440352.346720,86083.000,14439,8,AY,1,100,0.541
1572440352.363313,86096.000,14439,8,AY,1,100,0.536
1572440352.379906,86109.000,14439,8,AY,1,100,0.519
1572440352.396658,86122.125,14457,8,AY,1,100,0.511
1572440352.413411,86135.250,14457,8,AY,1,100,0.468
1572440352.430163,86148.375,14457,8,AY,1,100,0.454
1572440352.446916,86161.500,14457,8,AY,1,100,0.476
1572440352.463668,86174.625,14457,8,AY,1,100,0.528
1572440352.480421,86187.750,14457,8,AY,1,100,0.563
1572440352.497173,86200.875,14457,8,AY,1,100,0.575
1572440352.513926,86214.000,14457,8,AY,1,100,0.576
1572440352.530519,86227.000,14475,8,AY,1,100,0.569
1572440352.547112,86240.000,14475,8,AY,1,100,0.548
1572440352.563704,86253.000,14475,8,AY,1,100,0.502
1572440352.580297,86266.000,14475,8,AY,1,100,0.479
1572440352.596890,86279.000,14475,8,AY,1,100,0.423
1572440352.613483,86292.000,14475,8,AY,1,100,0.391
1572440352.630076,86305.000,14475,8,AY,1,100,0.406
1572440352.646669,86318.000,14475,8,AY,1,100,0.437
1572440352.663809,86331.429,14493,7,AY,1,100,0.485
1572440352.680949,86344.857,14493,7,AY,1,100,0.506
1572440352.698089,86358.286,14493,7,AY,1,100,0.523
1572440352.715229,86371.714,14493,7,AY,1,100,0.545
1572440352.732369,86385.143,14493,7,AY,1,100,0.554
1572440352.749509,86398.571,14493,7,AY,1,100,0.558
1572440352.766649,86412.000,14493,7,AY,1,100,0.540
1572440352.783340,86425.077,14514,13,AY,1,100,0.527
1572440352.800031,86438.154,14514,13,AY,1,100,0.510
1572440352.816722,86451.231,14514,13,AY,1,100,0.499
1572440352.833413,86464.308,14514,13,AY,1,100,0.495
1572440352.850105,86477.385,14514,13,AY,1,100,0.461
1572440352.866796,86490.462,14514,13,AY,1,100,0.461
1572440352.883487,86503.538,14514,13,AY,1,100,0.468
1572440352.900178,86516.615,14514,13,AY,1,100,0.468
1572440352.916869,86529.692,14514,13,AY,1,100,0.470
1572440352.933560,86542.769,14514,13,AY,1,100,0.466
1572440352.950251,86555.846,14514,13,AY,1,100,0.467
1572440352.966942,86568.923,14514,13,AY,1,100,0.460
1572440352.983634,86582.000,14514,13,AY,1,100,0.453
1572440353.000591,86595.286,14534,7,AY,1,100,0.457
1572440353.017549,86608.571,14534,7,AY,1,100,0.465
1572440353.034506,86621.857,14534,7,AY,1,100,0.492
1572440353.051464,86635.143,14534,7,AY,1,100,0.498
1572440353.068422,86648.429,14534,7,AY,1,100,0.501
1572440353.085379,86661.714,14534,7,AY,1,100,0.514
1572440353.102337,86675.000,14534,7,AY,1,100,0.513
1572440353.118930,86688.000,14550,7,AY,1,100,0.512
1572440353.135523,86701.000,14550,7,AY,1,100,0.506
1572440353.152116,86714.000,14550,7,AY,1,100,0.529
1572440353.168709,86727.000,14550,7,AY,1,100,0.550
1572440353.185302,86740.000,14550,7,AY,1,100,0.582
1572440353.201895,86753.000,14550,7,AY,1,100,0.586
1572440353.218487,86766.000,14550,7,AY,1,100,0.577
1572440353.235240,86779.125,14569,8,AY,1,100,0.552
1572440353.251992,86792.250,14569,8,AY,1,100,0.547
1572440353.268745,86805.375,14569,8,AY,1,100,0.536
1572440353.285497,86818.500,14569,8,AY,1,100,0.510
1572440353.302250,86831.625,14569,8,AY,1,100,0.470
1572440353.319002,86844.750,14569,8,AY,1,100,0.469
1572440353.335755,86857.875,14569,8,AY,1,100,0.477
1572440353.352507,86871.000,14569,8,AY,1,100,0.473
1572440353.369260,86884.125,14587,8,AY,1,100,0.489
1572440353.386012,86897.250,14587,8,AY,1,100,0.507
1572440353.402765,86910.375,14587,8,AY,1,100,0.497
1572440353.419517,86923.500,14587,8,AY,1,100,0.492
1572440353.436270,86936.625,14587,8,AY,1,100,0.509
1572440353.453022,86949.750,14587,8,AY,1,100,0.529
1572440353.469775,86962.875,14587,8,AY,1,100,0.559
1572440353.486527,86976.000,14587,8,AY,1,100,0.549
1572440353.503120,86989.000,14605,8,AY,1,100,0.545
1572440353.519713,87002.000,14605,8,AY,1,100,0.543
1572440353.536306,87015.000,14605,8,AY,1,100,0.548
1572440353.552899,87028.000,14605,8,AY,1,100,0.548
1572440353.569492,87041.000,14605,8,AY,1,100,0.531
1572440353.586085,87054.000,14605,8,AY,1,100,0.529
1572440353.602678,87067.000,14605,8,AY,1,100,0.511
1572440353.619271,87080.000,14605,8,AY,1,100,0.491
1572440353.636046,87093.143,14623,7,AY,1,100,0.473
1572440353.652821,87106.286,14623,7,AY,1,100,0.468
1572440353.669596,87119.429,14623,7,AY,1,100,0.467
1572440353.686372,87132.571,14623,7,AY,1,100,0.470
1572440353.703147,87145.714,14623,7,AY,1,100,0.486
1572440353.719922,87158.857,14623,7,AY,1,100,0.490
1572440353.736698,87172.000,14623,7,AY,1,100,0.496
1572440353.753450,87185.125,14641,8,AY,1,100,0.514
1572440353.770203,87198.250,14641,8,AY,1,100,0.523
1572440353.786955,87211.375,14641,8,AY,1,100,0.527
1572440353.803708,87224.500,14641,8,AY,1,100,0.523
1572440353.820460,87237.625,14641,8,AY,1,100,0.521
1572440353.837213,87250.750,14641,8,AY,1,100,0.520
1572440353.853965,87263.875,14641,8,AY,1,100,0.531
1572440353.870718,87277.000,14641,8,AY,1,100,0.520
1572440353.887470,87290.125,14659,8,AY,1,100,0.508
1572440353.904222,87303.250,14659,8,AY,1,100,0.490
1572440353.920975,87316.375,14659,8,AY,1,100,0.494
1572440353.937727,87329.500,14659,8,AY,1,100,0.504
1572440353.954480,87342.625,14659,8,AY,1,100,0.535
1572440353.971232,87355.750,14659,8,AY,1,100,0.531
1572440353.987985,87368.875,14659,8,AY,1,100,0.528
1572440354.004737,87382.000,14659,8,AY,1,100,0.521
1572440354.021171,87394.875,14677,8,AY,1,100,0.523
1572440354.037604,87407.750,14677,8,AY,1,100,0.507
1572440354.054038,87420.625,14677,8,AY,1,100,0.486
1572440354.070471,87433.500,14677,8,AY,1,100,0.481
1572440354.086904,87446.375,14677,8,AY,1,100,0.475
1572440354.103338,87459.250,14677,8,AY,1,100,0.477
1572440354.119771,87472.125,14677,8,AY,1,100,0.482
1572440354.136204,87485.000,14677,8,AY,1,100,0.499
1572440354.152615,87497.857,14695,7,AY,1,100,0.513
1572440354.169026,87510.714,14695,7,AY,1,100,0.528
1572440354.185436,87523.571,14695,7,AY,1,100,0.527
1572440354.201847,87536.429,14695,7,AY,1,100,0.522
1572440354.218257,87549.286,14695,7,AY,1,100,0.522
1572440354.234668,87562.143,14695,7,AY,1,100,0.526
1572440354.251079,87575.000,14695,7,AY,1,100,0.523
1572440354.267512,87587.875,14714,8,AY,1,100,0.515
1572440354.283945,87600.750,14714,8,AY,1,100,0.500
1572440354.300379,87613.625,14714,8,AY,1,100,0.481
1572440354.316812,87626.500,14714,8,AY,1,100,0.483
1572440354.333246,87639.375,14714,8,AY,1,100,0.490
1572440354.349679,87652.250,14714,8,AY,1,100,0.496
1572440354.366112,87665.125,14714,8,AY,1,100,0.525
1572440354.382546,87678.000,14714,8,AY,1,100,0.536
1572440354.399139,87691.000,14732,8,AY,1,100,0.538
1572440354.415732,87704.000,14732,8,AY,1,100,0.525
1572440354.432325,87717.000,14732,8,AY,1,100,0.532
1572440354.448918,87730.000,14732,8,AY,1,100,0.517
1572440354.465510,87743.000,14732,8,AY,1,100,0.496
1572440354.482103,87756.000,14732,8,AY,1,100,0.485
1572440354.498696,87769.000,14732,8,AY,1,100,0.470
1572440354.515289,87782.000,14732,8,AY,1,100,0.484
1572440354.531723,87794.875,14750,8,AY,1,100,0.505
1572440354.548156,87807.750,14750,8,AY,1,100,0.514
1572440354.564590,87820.625,14750,8,AY,1,100,0.530
1572440354.581023,87833.500,14750,8,AY,1,100,0.534
1572440354.597456,87846.375,14750,8,AY,1,100,0.533
1572440354.613890,87859.250,14750,8,AY,1,100,0.522
1572440354.630323,87872.125,14750,8,AY,1,100,0.510
1572440354.646756,87885.000,14750,8,AY,1,100,0.499
1572440354.663349,87898.000,14768,8,AY,1,100,0.492
1572440354.679942,87911.000,14768,8,AY,1,100,0.495
1572440354.696535,87924.000,14768,8,AY,1,100,0.498
1572440354.713128,87937.000,14768,8,AY,1,100,0.502
1572440354.729721,87950.000,14768,8,AY,1,100,0.502
1572440354.746314,87963.000,14768,8,AY,1,100,0.511
1572440354.762907,87976.000,14768,8,AY,1,100,0.519
1572440354.779500,87989.000,14768,8,AY,1,100,0.520
1572440354.796640,88002.429,14786,7,AY,1,100,0.518
1572440354.813780,88015.857,14786,7,AY,1,100,0.521
1572440354.830920,88029.286,14786,7,AY,1,100,0.520
1572440354.848060,88042.714,14786,7,AY,1,100,0.516
1572440354.865200,88056.143,14786,7,AY,1,100,0.516
1572440354.882340,88069.571,14786,7,AY,1,100,0.513
1572440354.899480,88083.000,14786,7,AY,1,100,0.502
1572440354.916073,88096.000,14804,8,AY,1,100,0.503
1572440354.932666,88109.000,14804,8,AY,1,100,0.500
1572440354.949258,88122.000,14804,8,AY,1,100,0.506
1572440354.965851,88135.000,14804,8,AY,1,100,0.505
1572440354.982444,88148.000,14804,8,AY,1,100,0.507
1572440354.999037,88161.000,14804,8,AY,1,100,0.503
1572440355.015630,88174.000,14804,8,AY,1,100,0.507
1572440355.032223,88187.000,14804,8,AY,1,100,0.510
1572440355.048816,88200.000,14822,8,AY,1,100,0.502
1572440355.065409,88213.000,14822,8,AY,1,100,0.502
1572440355.082002,88226.000,14822,8,AY,1,100,0.508
1572440355.098595,88239.000,14822,8,AY,1,100,0.508
1572440355.115188,88252.000,14822,8,AY,1,100,0.504
1572440355.131781,88265.000,14822,8,AY,1,100,0.497
1572440355.148374,88278.000,14822,8,AY,1,100,0.489
1572440355.164967,88291.000,14822,8,AY,1,100,0.478
1572440355.181560,88304.000,14840,8,AY,1,100,0.484
1572440355.198153,88317.000,14840,8,AY,1,100,0.505
1572440355.214746,88330.000,14840,8,AY,1,100,0.547
1572440355.231338,88343.000,14840,8,AY,1,100,0.540
1572440355.247931,88356.000,14840,8,AY,1,100,0.529
1572440355.264524,88369.000,14840,8,AY,1,100,0.499
1572440355.281117,88382.000,14840,8,AY,1,100,0.473
1572440355.297710,88395.000,14840,8,AY,1,100,0.466
1572440355.314121,88407.857,14859,7,AY,1,100,0.446
1572440355.330531,88420.714,14859,7,AY,1,100,0.444
1572440355.346942,88433.571,14859,7,AY,1,100,0.452
1572440355.363353,88446.429,14859,7,AY,1,100,0.481
1572440355.379763,88459.286,14859,7,AY,1,100,0.507
1572440355.396174,88472.143,14859,7,AY,1,100,0.543
1572440355.412584,88485.000,14859,7,AY,1,100,0.566
1572440355.429177,88498.000,14877,8,AY,1,100,0.538
1572440355.445770,88511.000,14877,8,AY,1,100,0.523
1572440355.462363,88524.000,14877,8,AY,1,100,0.486
1572440355.478956,88537.000,14877,8,AY,1,100,0.466
1572440355.495549,88550.000,14877,8,AY,1,100,0.451
1572440355.512142,88563.000,14877,8,AY,1,100,0.462
1572440355.528735,88576.000,14877,8,AY,1,100,0.466
1572440355.545328,88589.000,14877,8,AY,1,100,0.492
1572440355.562080,88602.125,14895,8,AY,1,100,0.523
1572440355.578833,88615.250,14895,8,AY,1,100,0.531
1572440355.595585,88628.375,14895,8,AY,1,100,0.514
1572440355.612338,88641.500,14895,8,AY,1,100,0.495
1572440355.629090,88654.625,14895,8,AY,1,100,0.486
1572440355.645843,88667.750,14895,8,AY,1,100,0.468
1572440355.662595,88680.875,14895,8,AY,1,100,0.461
1572440355.679348,88694.000,14895,8,AY,1,100,0.459
1572440355.696100,88707.125,14913,8,AY,1,100,0.482
1572440355.712853,88720.250,14913,8,AY,1,100,0.496
1572440355.729605,88733.375,14913,8,AY,1,100,0.521
1572440355.746358,88746.500,14913,8,AY,1,100,0.537
1572440355.763110,88759.625,14913,8,AY,1,100,0.525
1572440355.779863,88772.750,14913,8,AY,1,100,0.521
1572440355.796615,88785.875,14913,8,AY,1,100,0.507
1572440355.813368,88799.000,14913,8,AY,1,100,0.492
1572440355.830325,88812.286,14931,7,AY,1,100,0.469
1572440355.847283,88825.571,14931,7,AY,1,100,0.443
1572440355.864240,88838.857,14931,7,AY,1,100,0.442
1572440355.881198,88852.143,14931,7,AY,1,100,0.468
1572440355.898156,88865.429,14931,7,AY,1,100,0.475
1572440355.915113,88878.714,14931,7,AY,1,100,0.482
1572440355.932071,88892.000,14931,7,AY,1,100,0.502
1572440355.948823,88905.125,14949,8,AY,1,100,0.513
1572440355.965576,88918.250,14949,8,AY,1,100,0.513
1572440355.982328,88931.375,14949,8,AY,1,100,0.500
1572440355.999081,88944.500,14949,8,AY,1,100,0.494
1572440356.015833,88957.625,14949,8,AY,1,100,0.495
1572440356.032586,88970.750,14949,8,AY,1,100,0.480
1572440356.049338,88983.875,14949,8,AY,1,100,0.479
1572440356.066091,88997.000,14949,8,AY,1,100,0.483
1572440356.082843,89010.125,14966,8,AY,1,100,0.489
1572440356.099596,89023.250,14966,8,AY,1,100,0.489
1572440356.116348,89036.375,14966,8,AY,1,100,0.494
1572440356.133101,89049.500,14966,8,AY,1,100,0.497
1572440356.149853,89062.625,14966,8,AY,1,100,0.497
1572440356.166606,89075.750,14966,8,AY,1,100,0.494
1572440356.183358,89088.875,14966,8,AY,1,100,0.486
1572440356.200111,89102.000,14966,8,AY,1,100,0.479
1572440356.216704,89115.000,14984,8,AY,1,100,0.465
1572440356.233296,89128.000,14984,8,AY,1,100,0.458
1572440356.249889,89141.000,14984,8,AY,1,100,0.462
1572440356.266482,89154.000,14984,8,AY,1,100,0.471
1572440356.283075,89167.000,14984,8,AY,1,100,0.479
1572440356.299668,89180.000,14984,8,AY,1,100,0.486
1572440356.316261,89193.000,14984,8,AY,1,100,0.488
1572440356.332854,89206.000,14984,8,AY,1,100,0.483
1572440356.349082,89218.714,15003,7,AY,1,100,0.481
1572440356.365311,89231.429,15003,7,AY,1,100,0.488
1572440356.381539,89244.143,15003,7,AY,1,100,0.481
1572440356.397767,89256.857,15003,7,AY,1,100,0.480
1572440356.413996,89269.571,15003,7,AY,1,100,0.487
1572440356.430224,89282.286,15003,7,AY,1,100,0.488
1572440356.446452,89295.000,15003,7,AY,1,100,0.488
1572440356.463204,89308.125,15021,8,AY,1,100,0.484
1572440356.479957,89321.250,15021,8,AY,1,100,0.480
1572440356.496709,89334.375,15021,8,AY,1,100,0.475
1572440356.513462,89347.500,15021,8,AY,1,100,0.481
1572440356.530214,89360.625,15021,8,AY,1,100,0.478
1572440356.546967,89373.750,15021,8,AY,1,100,0.475
1572440356.563719,89386.875,15021,8,AY,1,100,0.473
1572440356.580472,89400.000,15021,8,AY,1,100,0.471
1572440356.597224,89413.125,15039,8,AY,1,100,0.477
1572440356.613977,89426.250,15039,8,AY,1,100,0.478
1572440356.630729,89439.375,15039,8,AY,1,100,0.486
1572440356.647482,89452.500,15039,8,AY,1,100,0.491
1572440356.664234,89465.625,15039,8,AY,1,100,0.495
1572440356.680987,89478.750,15039,8,AY,1,100,0.493
1572440356.697739,89491.875,15039,8,AY,1,100,0.479
1572440356.714492,89505.000,15039,8,AY,1,100,0.478
1572440356.730925,89517.875,15057,8,AY,1,100,0.469
1572440356.747359,89530.750,15057,8,AY,1,100,0.470
1572440356.763792,89543.625,15057,8,AY,1,100,0.474
1572440356.780225,89556.500,15057,8,AY,1,100,0.476
1572440356.796659,89569.375,15057,8,AY,1,100,0.478
1572440356.813092,89582.250,15057,8,AY,1,100,0.483
1572440356.829525,89595.125,15057,8,AY,1,100,0.501
1572440356.845959,89608.000,15057,8,AY,1,100,0.496
1572440356.863099,89621.429,15075,7,AY,1,100,0.486
1572440356.880239,89634.857,15075,7,AY,1,100,0.465
1572440356.897379,89648.286,15075,7,AY,1,100,0.452
1572440356.914519,89661.714,15075,7,AY,1,100,0.449
1572440356.931659,89675.143,15075,7,AY,1,100,0.445
1572440356.948799,89688.571,15075,7,AY,1,100,0.454
1572440356.965939,89702.000,15075,7,AY,1,100,0.468
1572440356.982532,89715.000,15093,8,AY,1,100,0.461
1572440356.999124,89728.000,15093,8,AY,1,100,0.457
1572440357.015717,89741.000,15093,8,AY,1,100,0.448
1572440357.032310,89754.000,15093,8,AY,1,100,0.440
1572440357.048903,89767.000,15093,8,AY,1,100,0.437
1572440357.065496,89780.000,15093,8,AY,1,100,0.419
1572440357.082089,89793.000,15093,8,AY,1,100,0.405
1572440357.098682,89806.000,15093,8,AY,1,100,0.397
1572440357.115434,89819.125,15109,8,AY,1,100,0.400
1572440357.132187,89832.250,15109,8,AY,1,100,0.405
1572440357.148939,89845.375,15109,8,AY,1,100,0.401
1572440357.165692,89858.500,15109,8,AY,1,100,0.401
1572440357.182444,89871.625,15109,8,AY,1,100,0.411
1572440357.199197,89884.750,15109,8,AY,1,100,0.414
1572440357.215949,89897.875,15109,8,AY,1,100,0.415
1572440357.232702,89911.000,15109,8,AY,1,100,0.410
1572440357.248976,89923.750,15128,8,AY,1,100,0.403
1572440357.265249,89936.500,15128,8,AY,1,100,0.390
1572440357.281523,89949.250,15128,8,AY,1,100,0.385
1572440357.297797,89962.000,15128,8,AY,1,100,0.388
1572440357.314071,89974.750,15128,8,AY,1,100,0.385
1572440357.330345,89987.500,15128,8,AY,1,100,0.379
1572440357.346619,90000.250,15128,8,AY,1,100,0.384
1572440357.362893,90013.000,15128,8,AY,1,100,0.397
1572440357.379486,90026.000,15146,7,AY,1,100,0.400
1572440357.396079,90039.000,15146,7,AY,1,100,0.404
1572440357.412671,90052.000,15146,7,AY,1,100,0.413
1572440357.429264,90065.000,15146,7,AY,1,100,0.416
1572440357.445857,90078.000,15146,7,AY,1,100,0.403
1572440357.462450,90091.000,15146,7,AY,1,100,0.384
1572440357.479043,90104.000,15146,7,AY,1,100,0.376
1572440357.495317,90116.750,15164,8,AY,1,100,0.379
1572440357.511591,90129.500,15164,8,AY,1,100,0.375
1572440357.527865,90142.250,15164,8,AY,1,100,0.366
1572440357.544139,90155.000,15164,8,AY,1,100,0.365
1572440357.560412,90167.750,15164,8,AY,1,100,0.377
1572440357.576686,90180.500,15164,8,AY,1,100,0.379
1572440357.592960,90193.250,15164,8,AY,1,100,0.376
1572440357.609234,90206.000,15164,8,AY,1,100,0.371
1572440357.625827,90219.000,15182,8,AY,1,100,0.359
1572440357.642420,90232.000,15182,8,AY,1,100,0.366
1572440357.659013,90245.000,15182,8,AY,1,100,0.382
1572440357.675606,90258.000,15182,8,AY,1,100,0.391
1572440357.692199,90271.000,15182,8,AY,1,100,0.388
1572440357.708791,90284.000,15182,8,AY,1,100,0.384
1572440357.725384,90297.000,15182,8,AY,1,100,0.385
1572440357.741977,90310.000,15182,8,AY,1,100,0.388
1572440357.758730,90323.125,15200,8,AY,1,100,0.379
1572440357.775482,90336.250,15200,8,AY,1,100,0.357
1572440357.792235,90349.375,15200,8,AY,1,100,0.338
1572440357.808987,90362.500,15200,8,AY,1,100,0.334
1572440357.825740,90375.625,15200,8,AY,1,100,0.350
1572440357.842492,90388.750,15200,8,AY,1,100,0.361
1572440357.859245,90401.875,15200,8,AY,1,100,0.367
1572440357.875997,90415.000,15200,8,AY,1,100,0.386
1572440357.892750,90428.125,15218,8,AY,1,100,0.396
1572440357.909502,90441.250,15218,8,AY,1,100,0.394
1572440357.926255,90454.375,15218,8,AY,1,100,0.376
1572440357.943007,90467.500,15218,8,AY,1,100,0.369
1572440357.959760,90480.625,15218,8,AY,1,100,0.356
1572440357.976512,90493.750,15218,8,AY,1,100,0.346
1572440357.993265,90506.875,15218,8,AY,1,100,0.348
1572440358.010017,90520.000,15218,8,AY,1,100,0.356
1572440358.026793,90533.143,15236,7,AY,1,100,0.369
1572440358.043568,90546.286,15236,7,AY,1,100,0.374
1572440358.060343,90559.429,15236,7,AY,1,100,0.379
1572440358.077118,90572.571,15236,7,AY,1,100,0.380
1572440358.093894,90585.714,15236,7,AY,1,100,0.373
1572440358.110669,90598.857,15236,7,AY,1,100,0.366
1572440358.127444,90612.000,15236,7,AY,1,100,0.359
1572440358.144356,90625.250,15254,8,AY,1,100,0.355
1572440358.161268,90638.500,15254,8,AY,1,100,0.352
1572440358.178180,90651.750,15254,8,AY,1,100,0.352
1572440358.195092,90665.000,15254,8,AY,1,100,0.343
1572440358.212004,90678.250,15254,8,AY,1,100,0.348
1572440358.228916,90691.500,15254,8,AY,1,100,0.369
1572440358.245828,90704.750,15254,8,AY,1,100,0.384
1572440358.262740,90718.000,15254,8,AY,1,100,0.394
1572440358.279151,90730.857,15273,7,AY,1,100,0.387
1572440358.295562,90743.714,15273,7,AY,1,100,0.380
1572440358.311972,90756.571,15273,7,AY,1,100,0.361
1572440358.328383,90769.429,15273,7,AY,1,100,0.347
1572440358.344793,90782.286,15273,7,AY,1,100,0.323
1572440358.361204,90795.143,15273,7,AY,1,100,0.319
1572440358.377614,90808.000,15273,7,AY,1,100,0.330
1572440358.394207,90821.000,15291,8,AY,1,100,0.356
1572440358.410800,90834.000,15291,8,AY,1,100,0.380
1572440358.427393,90847.000,15291,8,AY,1,100,0.387
1572440358.443986,90860.000,15291,8,AY,1,100,0.384
1572440358.460579,90873.000,15291,8,AY,1,100,0.378
1572440358.477172,90886.000,15291,8,AY,1,100,0.375
1572440358.493765,90899.000,15291,8,AY,1,100,0.372
1572440358.510358,90912.000,15291,8,AY,1,100,0.362
1572440358.526951,90925.000,15309,8,AY,1,100,0.333
1572440358.543544,90938.000,15309,8,AY,1,100,0.324
1572440358.560137,90951.000,15309,8,AY,1,100,0.333
1572440358.576730,90964.000,15309,8,AY,1,100,0.334
1572440358.593323,90977.000,15309,8,AY,1,100,0.357
1572440358.609916,90990.000,15309,8,AY,1,100,0.369
1572440358.626509,91003.000,15309,8,AY,1,100,0.384
1572440358.643102,91016.000,15309,8,AY,1,100,0.380
1572440358.659694,91029.000,15327,8,AY,1,100,0.373
1572440358.676287,91042.000,15327,8,AY,1,100,0.369
1572440358.692880,91055.000,15327,8,AY,1,100,0.357
1572440358.709473,91068.000,15327,8,AY,1,100,0.356
1572440358.726066,91081.000,15327,8,AY,1,100,0.355
1572440358.742659,91094.000,15327,8,AY,1,100,0.342
1572440358.759252,91107.000,15327,8,AY,1,100,0.335
1572440358.775845,91120.000,15327,8,AY,1,100,0.330
1572440358.792598,91133.125,15345,8,AY,1,100,0.335
1572440358.809350,91146.250,15345,8,AY,1,100,0.342
1572440358.826102,91159.375,15345,8,AY,1,100,0.360
1572440358.842855,91172.500,15345,8,AY,1,100,0.370
1572440358.859607,91185.625,15345,8,AY,1,100,0.377
1572440358.876360,91198.750,15345,8,AY,1,100,0.368
1572440358.893112,91211.875,15345,8,AY,1,100,0.360
1572440358.909865,91225.000,15345,8,AY,1,100,0.359
1572440358.927005,91238.429,15363,7,AY,1,100,0.355
1572440358.944145,91251.857,15363,7,AY,1,100,0.359
1572440358.961285,91265.286,15363,7,AY,1,100,0.367
1572440358.978425,91278.714,15363,7,AY,1,100,0.370
1572440358.995565,91292.143,15363,7,AY,1,100,0.367
1572440359.012705,91305.571,15363,7,AY,1,100,0.358
1572440359.029845,91319.000,15363,7,AY,1,100,0.357
1572440359.046438,91332.000,15381,8,AY,1,100,0.351
1572440359.063030,91345.000,15381,8,AY,1,100,0.330
1572440359.079623,91358.000,15381,8,AY,1,100,0.333
1572440359.096216,91371.000,15381,8,AY,1,100,0.340
1572440359.112809,91384.000,15381,8,AY,1,100,0.350
1572440359.129402,91397.000,15381,8,AY,1,100,0.353
1572440359.145995,91410.000,15381,8,AY,1,100,0.368
1572440359.162588,91423.000,15381,8,AY,1,100,0.377
1572440359.179341,91436.125,15399,8,AY,1,100,0.373
1572440359.196093,91449.250,15399,8,AY,1,100,0.358
1572440359.212846,91462.375,15399,8,AY,1,100,0.351
1572440359.229598,91475.500,15399,8,AY,1,100,0.364
1572440359.246351,91488.625,15399,8,AY,1,100,0.366
1572440359.263103,91501.750,15399,8,AY,1,100,0.358
1572440359.279855,91514.875,15399,8,AY,1,100,0.358
1572440359.296608,91528.000,15399,8,AY,1,100,0.357
1572440359.313201,91541.000,15421,12,AY,1,100,0.365
1572440359.329794,91554.000,15421,12,AY,1,100,0.370
1572440359.346387,91567.000,15421,12,AY,1,100,0.362
1572440359.362980,91580.000,15421,12,AY,1,100,0.352
1572440359.379573,91593.000,15421,12,AY,1,100,0.349
1572440359.396166,91606.000,15421,12,AY,1,100,0.348
1572440359.412759,91619.000,15421,12,AY,1,100,0.344
1572440359.429352,91632.000,15421,12,AY,1,100,0.341
1572440359.445945,91645.000,15421,12,AY,1,100,0.350
1572440359.462538,91658.000,15421,12,AY,1,100,0.362
1572440359.479130,91671.000,15421,12,AY,1,100,0.369
1572440359.495723,91684.000,15421,12,AY,1,100,0.376
1572440359.512316,91697.000,15439,8,AY,1,100,0.373
1572440359.528909,91710.000,15439,8,AY,1,100,0.357
1572440359.545502,91723.000,15439,8,AY,1,100,0.348
1572440359.562095,91736.000,15439,8,AY,1,100,0.355
1572440359.578688,91749.000,15439,8,AY,1,100,0.354
1572440359.595281,91762.000,15439,8,AY,1,100,0.346
1572440359.611874,91775.000,15439,8,AY,1,100,0.349
1572440359.628467,91788.000,15439,8,AY,1,100,0.367
1572440359.645060,91801.000,15457,8,AY,1,100,0.365
1572440359.661653,91814.000,15457,8,AY,1,100,0.366
1572440359.678246,91827.000,15457,8,AY,1,100,0.376
1572440359.694839,91840.000,15457,8,AY,1,100,0.356
1572440359.711432,91853.000,15457,8,AY,1,100,0.352
1572440359.728024,91866.000,15457,8,AY,1,100,0.355
1572440359.744617,91879.000,15457,8,AY,1,100,0.345
1572440359.761210,91892.000,15457,8,AY,1,100,0.323
1572440359.777803,91905.000,15475,7,AY,1,100,0.317
1572440359.794396,91918.000,15475,7,AY,1,100,0.353
1572440359.810989,91931.000,15475,7,AY,1,100,0.363
1572440359.827582,91944.000,15475,7,AY,1,100,0.367
1572440359.844175,91957.000,15475,7,AY,1,100,0.371
1572440359.860768,91970.000,15475,7,AY,1,100,0.387
1572440359.877361,91983.000,15475,7,AY,1,100,0.388
1572440359.893954,91996.000,15493,8,AY,1,100,0.354
1572440359.910547,92009.000,15493,8,AY,1,100,0.331
1572440359.927140,92022.000,15493,8,AY,1,100,0.318
1572440359.943733,92035.000,15493,8,AY,1,100,0.333
1572440359.960325,92048.000,15493,8,AY,1,100,0.359
1572440359.976918,92061.000,15493,8,AY,1,100,0.362
1572440359.993511,92074.000,15493,8,AY,1,100,0.358
1572440360.010104,92087.000,15493,8,AY,1,100,0.365
1572440360.026857,92100.125,15511,8,AY,1,100,0.375
1572440360.043609,92113.250,15511,8,AY,1,100,0.372
1572440360.060362,92126.375,15511,8,AY,1,100,0.342
1572440360.077114,92139.500,15511,8,AY,1,100,0.331
1572440360.093867,92152.625,15511,8,AY,1,100,0.320
1572440360.110619,92165.750,15511,8,AY,1,100,0.336
1572440360.127372,92178.875,15511,8,AY,1,100,0.344
1572440360.144124,92192.000,15511,8,AY,1,100,0.344
1572440360.160900,92205.143,15529,7,AY,1,100,0.359
1572440360.177675,92218.286,15529,7,AY,1,100,0.375
1572440360.194450,92231.429,15529,7,AY,1,100,0.395
1572440360.211225,92244.571,15529,7,AY,1,100,0.387
1572440360.228001,92257.714,15529,7,AY,1,100,0.379
1572440360.244776,92270.857,15529,7,AY,1,100,0.348
1572440360.261551,92284.000,15529,7,AY,1,100,0.337
1572440360.278304,92297.125,15548,8,AY,1,100,0.337
1572440360.295056,92310.250,15548,8,AY,1,100,0.332
1572440360.311809,92323.375,15548,8,AY,1,100,0.322
1572440360.328561,92336.500,15548,8,AY,1,100,0.323
1572440360.345314,92349.625,15548,8,AY,1,100,0.349
1572440360.362066,92362.750,15548,8,AY,1,100,0.386
1572440360.378819,92375.875,15548,8,AY,1,100,0.395
1572440360.395571,92389.000,15548,8,AY,1,100,0.385
1572440360.411845,92401.750,15566,8,AY,1,100,0.370
1572440360.428119,92414.500,15566,8,AY,1,100,0.350
1572440360.444393,92427.250,15566,8,AY,1,100,0.335
1572440360.460666,92440.000,15566,8,AY,1,100,0.329
1572440360.476940,92452.750,15566,8,AY,1,100,0.328
1572440360.493214,92465.500,15566,8,AY,1,100,0.332
1572440360.509488,92478.250,15566,8,AY,1,100,0.340
1572440360.525762,92491.000,15566,8,AY,1,100,0.358
1572440360.542355,92504.000,15584,8,AY,1,100,0.365
1572440360.558948,92517.000,15584,8,AY,1,100,0.366
1572440360.575541,92530.000,15584,8,AY,1,100,0.360
1572440360.592134,92543.000,15584,8,AY,1,100,0.359
1572440360.608727,92556.000,15584,8,AY,1,100,0.360
1572440360.625319,92569.000,15584,8,AY,1,100,0.360
1572440360.641912,92582.000,15584,8,AY,1,100,0.357
1572440360.658505,92595.000,15584,8,AY,1,100,0.356
1572440360.675098,92608.000,15602,8,AY,1,100,0.356
1572440360.691691,92621.000,15602,8,AY,1,100,0.345
1572440360.708284,92634.000,15602,8,AY,1,100,0.341
1572440360.724877,92647.000,15602,8,AY,1,100,0.338
1572440360.741470,92660.000,15602,8,AY,1,100,0.333
1572440360.758063,92673.000,15602,8,AY,1,100,0.331
1572440360.774656,92686.000,15602,8,AY,1,100,0.341
1572440360.791249,92699.000,15602,8,AY,1,100,0.364
1572440360.807659,92711.857,15620,7,AY,1,100,0.372
1572440360.824070,92724.714,15620,7,AY,1,100,0.376
1572440360.840481,92737.571,15620,7,AY,1,100,0.375
1572440360.856891,92750.429,15620,7,AY,1,100,0.375
1572440360.873302,92763.286,15620,7,AY,1,100,0.363
1572440360.889712,92776.143,15620,7,AY,1,100,0.356
1572440360.906123,92789.000,15620,7,AY,1,100,0.334
1572440360.922875,92802.125,15638,8,AY,1,100,0.312
1572440360.939628,92815.250,15638,8,AY,1,100,0.311
1572440360.956380,92828.375,15638,8,AY,1,100,0.325
1572440360.973133,92841.500,15638,8,AY,1,100,0.362
1572440360.989885,92854.625,15638,8,AY,1,100,0.375
1572440361.006638,92867.750,15638,8,AY,1,100,0.401
1572440361.023390,92880.875,15638,8,AY,1,100,0.403
1572440361.040143,92894.000,15638,8,AY,1,100,0.379
1572440361.056895,92907.125,15656,8,AY,1,100,0.334
1572440361.073648,92920.250,15656,8,AY,1,100,0.320
1572440361.090400,92933.375,15656,8,AY,1,100,0.302
1572440361.107153,92946.500,15656,8,AY,1,100,0.302
1572440361.123905,92959.625,15656,8,AY,1,100,0.313
1572440361.140658,92972.750,15656,8,AY,1,100,0.337
1572440361.157410,92985.875,15656,8,AY,1,100,0.374
1572440361.174163,92999.000,15656,8,AY,1,100,0.387
1572440361.191303,93012.429,15674,7,AY,1,100,0.396
1572440361.208443,93025.857,15674,7,AY,1,100,0.382
1572440361.225583,93039.286,15674,7,AY,1,100,0.376
1572440361.242723,93052.714,15674,7,AY,1,100,0.363
1572440361.259863,93066.143,15674,7,AY,1,100,0.355
1572440361.277003,93079.571,15674,7,AY,1,100,0.341
1572440361.294142,93093.000,15674,7,AY,1,100,0.325
1572440361.310895,93106.125,15693,8,AY,1,100,0.325
1572440361.327647,93119.250,15693,8,AY,1,100,0.330
1572440361.344400,93132.375,15693,8,AY,1,100,0.343
1572440361.361152,93145.500,15693,8,AY,1,100,0.357
1572440361.377905,93158.625,15693,8,AY,1,100,0.363
1572440361.394657,93171.750,15693,8,AY,1,100,0.368
1572440361.411410,93184.875,15693,8,AY,1,100,0.366
1572440361.428162,93198.000,15693,8,AY,1,100,0.361
1572440361.444436,93210.750,15711,8,AY,1,100,0.362
1572440361.460710,93223.500,15711,8,AY,1,100,0.364
1572440361.476984,93236.250,15711,8,AY,1,100,0.355
1572440361.493258,93249.000,15711,8,AY,1,100,0.343
1572440361.509531,93261.750,15711,8,AY,1,100,0.354
1572440361.525805,93274.500,15711,8,AY,1,100,0.362
1572440361.542079,93287.250,15711,8,AY,1,100,0.347
1572440361.558353,93300.000,15711,8,AY,1,100,0.353
1572440361.575106,93313.125,15729,8,AY,1,100,0.360
1572440361.591858,93326.250,15729,8,AY,1,100,0.372
1572440361.608611,93339.375,15729,8,AY,1,100,0.382
1572440361.625363,93352.500,15729,8,AY,1,100,0.377
1572440361.642116,93365.625,15729,8,AY,1,100,0.372
1572440361.658868,93378.750,15729,8,AY,1,100,0.344
1572440361.675621,93391.875,15729,8,AY,1,100,0.344
1572440361.692373,93405.000,15729,8,AY,1,100,0.342
1572440361.708784,93417.857,15747,7,AY,1,100,0.332
1572440361.725194,93430.714,15747,7,AY,1,100,0.332
1572440361.741605,93443.571,15747,7,AY,1,100,0.348
1572440361.758015,93456.429,15747,7,AY,1,100,0.355
1572440361.774426,93469.286,15747,7,AY,1,100,0.374
1572440361.790837,93482.143,15747,7,AY,1,100,0.382
1572440361.807247,93495.000,15747,7,AY,1,100,0.376
1572440361.823840,93508.000,15765,8,AY,1,100,0.377
1572440361.840433,93521.000,15765,8,AY,1,100,0.369
1572440361.857026,93534.000,15765,8,AY,1,100,0.346
1572440361.873619,93547.000,15765,8,AY,1,100,0.353
1572440361.890212,93560.000,15765,8,AY,1,100,0.355
1572440361.906805,93573.000,15765,8,AY,1,100,0.357
1572440361.923398,93586.000,15765,8,AY,1,100,0.345
1572440361.939991,93599.000,15765,8,AY,1,100,0.345
1572440361.956743,93612.125,15783,8,AY,1,100,0.338
1572440361.973496,93625.250,15783,8,AY,1,100,0.336
1572440361.990248,93638.375,15783,8,AY,1,100,0.351
1572440362.007001,93651.500,15783,8,AY,1,100,0.357
1572440362.023753,93664.625,15783,8,AY,1,100,0.357
1572440362.040506,93677.750,15783,8,AY,1,100,0.358
1572440362.057258,93690.875,15783,8,AY,1,100,0.372
1572440362.074011,93704.000,15783,8,AY,1,100,0.378
1572440362.090763,93717.125,15801,8,AY,1,100,0.375
1572440362.107516,93730.250,15801,8,AY,1,100,0.355
1572440362.124268,93743.375,15801,8,AY,1,100,0.345
1572440362.141021,93756.500,15801,8,AY,1,100,0.344
1572440362.157773,93769.625,15801,8,AY,1,100,0.360
1572440362.174525,93782.750,15801,8,AY,1,100,0.364
1572440362.191278,93795.875,15801,8,AY,1,100,0.363
1572440362.208030,93809.000,15801,8,AY,1,100,0.355
1572440362.224988,93822.286,15819,7,AY,1,100,0.347
1572440362.241946,93835.571,15819,7,AY,1,100,0.341
1572440362.258903,93848.857,15819,7,AY,1,100,0.339
1572440362.275861,93862.143,15819,7,AY,1,100,0.335
1572440362.292819,93875.429,15819,7,AY,1,100,0.329
1572440362.309776,93888.714,15819,7,AY,1,100,0.332
1572440362.326734,93902.000,15819,7,AY,1,100,0.346
1572440362.343486,93915.125,15838,8,AY,1,100,0.337
1572440362.360239,93928.250,15838,8,AY,1,100,0.364
1572440362.376991,93941.375,15838,8,AY,1,100,0.365
1572440362.393744,93954.500,15838,8,AY,1,100,0.346
1572440362.410496,93967.625,15838,8,AY,1,100,0.341
1572440362.427249,93980.750,15838,8,AY,1,100,0.355
1572440362.444001,93993.875,15838,8,AY,1,100,0.344
1572440362.460754,94007.000,15838,8,AY,1,100,0.344
1572440362.477347,94020.000,15856,8,AY,1,100,0.367
1572440362.493939,94033.000,15856,8,AY,1,100,0.363
1572440362.510532,94046.000,15856,8,AY,1,100,0.350
1572440362.527125,94059.000,15856,8,AY,1,100,0.327
1572440362.543718,94072.000,15856,8,AY,1,100,0.303
1572440362.560311,94085.000,15856,8,AY,1,100,0.298
1572440362.576904,94098.000,15856,8,AY,1,100,0.293
1572440362.593497,94111.000,15856,8,AY,1,100,0.289
1572440362.610090,94124.000,15873,8,AY,1,100,0.284
1572440362.626683,94137.000,15873,8,AY,1,100,0.289
1572440362.643276,94150.000,15873,8,AY,1,100,0.304
1572440362.659869,94163.000,15873,8,AY,1,100,0.329
1572440362.676462,94176.000,15873,8,AY,1,100,0.343
1572440362.693055,94189.000,15873,8,AY,1,100,0.362
1572440362.709648,94202.000,15873,8,AY,1,100,0.380
1572440362.726241,94215.000,15873,8,AY,1,100,0.424
1572440362.742469,94227.714,15891,7,AY,1,100,0.438
1572440362.758697,94240.429,15891,7,AY,1,100,0.437
1572440362.774925,94253.143,15891,7,AY,1,100,0.419
1572440362.791154,94265.857,15891,7,AY,1,100,0.414
1572440362.807382,94278.571,15891,7,AY,1,100,0.391
1572440362.823610,94291.286,15891,7,AY,1,100,0.366
1572440362.839839,94304.000,15891,7,AY,1,100,0.358
1572440362.856591,94317.125,15909,8,AY,1,100,0.333
1572440362.873343,94330.250,15909,8,AY,1,100,0.329
1572440362.890096,94343.375,15909,8,AY,1,100,0.329
1572440362.906848,94356.500,15909,8,AY,1,100,0.319
1572440362.923601,94369.625,15909,8,AY,1,100,0.327
1572440362.940353,94382.750,15909,8,AY,1,100,0.334
1572440362.957106,94395.875,15909,8,AY,1,100,0.357
1572440362.973858,94409.000,15909,8,AY,1,100,0.356
1572440362.990611,94422.125,15927,8,AY,1,100,0.356
1572440363.007363,94435.250,15927,8,AY,1,100,0.361
1572440363.024116,94448.375,15927,8,AY,1,100,0.355
1572440363.040868,94461.500,15927,8,AY,1,100,0.354
1572440363.057621,94474.625,15927,8,AY,1,100,0.349
1572440363.074373,94487.750,15927,8,AY,1,100,0.348
1572440363.091126,94500.875,15927,8,AY,1,100,0.344
1572440363.107878,94514.000,15927,8,AY,1,100,0.338
1572440363.124311,94526.875,15945,8,AY,1,100,0.333
1572440363.140745,94539.750,15945,8,AY,1,100,0.327
1572440363.157178,94552.625,15945,8,AY,1,100,0.328
1572440363.173612,94565.500,15945,8,AY,1,100,0.329
1572440363.190045,94578.375,15945,8,AY,1,100,0.324
1572440363.206479,94591.250,15945,8,AY,1,100,0.321
1572440363.222912,94604.125,15945,8,AY,1,100,0.306
1572440363.239345,94617.000,15945,8,AY,1,100,0.288
1572440363.256485,94630.429,15963,7,AY,1,100,0.299
1572440363.273625,94643.857,15963,7,AY,1,100,0.303
1572440363.290765,94657.286,15963,7,AY,1,100,0.320
1572440363.307905,94670.714,15963,7,AY,1,100,0.336
1572440363.325045,94684.143,15963,7,AY,1,100,0.351
1572440363.342185,94697.571,15963,7,AY,1,100,0.332
1572440363.359325,94711.000,15963,7,AY,1,100,0.322
1572440363.376077,94724.125,15982,8,AY,1,100,0.313
1572440363.392830,94737.250,15982,8,AY,1,100,0.323
1572440363.409582,94750.375,15982,8,AY,1,100,0.332
1572440363.426335,94763.500,15982,8,AY,1,100,0.350
1572440363.443087,94776.625,15982,8,AY,1,100,0.369
1572440363.459840,94789.750,15982,8,AY,1,100,0.379
1572440363.476592,94802.875,15982,8,AY,1,100,0.387
1572440363.493345,94816.000,15982,8,AY,1,100,0.360
1572440363.509778,94828.875,16000,8,AY,1,100,0.345
1572440363.526212,94841.750,16000,8,AY,1,100,0.318
1572440363.542645,94854.625,16000,8,AY,1,100,0.306
1572440363.559078,94867.500,16000,8,AY,1,100,0.292
1572440363.575512,94880.375,16000,8,AY,1,100,0.272
1572440363.591945,94893.250,16000,8,AY,1,100,0.234
1572440363.608379,94906.125,16000,8,AY,1,100,0.216
1572440363.624812,94919.000,16000,8,AY,1,100,0.229
1572440363.641245,94931.875,16016,8,AY,1,100,0.253
1572440363.657679,94944.750,16016,8,AY,1,100,0.286
1572440363.674112,94957.625,16016,8,AY,1,100,0.324
1572440363.690546,94970.500,16016,8,AY,1,100,0.348
1572440363.706979,94983.375,16016,8,AY,1,100,0.392
1572440363.723412,94996.250,16016,8,AY,1,100,0.405
1572440363.739846,95009.125,16016,8,AY,1,100,0.408
1572440363.756279,95022.000,16016,8,AY,1,100,0.425
1572440363.772872,95035.000,16034,8,AY,1,100,0.458
1572440363.789465,95048.000,16034,8,AY,1,100,0.460
1572440363.806058,95061.000,16034,8,AY,1,100,0.418
1572440363.822651,95074.000,16034,8,AY,1,100,0.368
1572440363.839244,95087.000,16034,8,AY,1,100,0.357
1572440363.855837,95100.000,16034,8,AY,1,100,0.320
1572440363.872430,95113.000,16034,8,AY,1,100,0.302
1572440363.889023,95126.000,16034,8,AY,1,100,0.286
1572440363.905616,95139.000,16052,7,AY,1,100,0.287
1572440363.922209,95152.000,16052,7,AY,1,100,0.285
1572440363.938802,95165.000,16052,7,AY,1,100,0.257
1572440363.955394,95178.000,16052,7,AY,1,100,0.228
1572440363.971987,95191.000,16052,7,AY,1,100,0.224
1572440363.988580,95204.000,16052,7,AY,1,100,0.234
1572440364.005173,95217.000,16052,7,AY,1,100,0.250
1572440364.021926,95230.125,16070,8,AY,1,100,0.253
1572440364.038678,95243.250,16070,8,AY,1,100,0.243
1572440364.055431,95256.375,16070,8,AY,1,100,0.237
1572440364.072183,95269.500,16070,8,AY,1,100,0.242
1572440364.088936,95282.625,16070,8,AY,1,100,0.256
1572440364.105688,95295.750,16070,8,AY,1,100,0.270
1572440364.122441,95308.875,16070,8,AY,1,100,0.286
1572440364.139193,95322.000,16070,8,AY,1,100,0.307
1572440364.156105,95335.250,16088,8,AY,1,100,0.326
1572440364.173017,95348.500,16088,8,AY,1,100,0.337
1572440364.189929,95361.750,16088,8,AY,1,100,0.363
1572440364.206841,95375.000,16088,8,AY,1,100,0.368
1572440364.223753,95388.250,16088,8,AY,1,100,0.392
1572440364.240665,95401.500,16088,8,AY,1,100,0.386
1572440364.257577,95414.750,16088,8,AY,1,100,0.373
1572440364.274489,95428.000,16088,8,AY,1,100,0.358
1572440364.291447,95441.286,16106,7,AY,1,100,0.337
1572440364.308404,95454.571,16106,7,AY,1,100,0.314
1572440364.325362,95467.857,16106,7,AY,1,100,0.256
1572440364.342320,95481.143,16106,7,AY,1,100,0.227
1572440364.359277,95494.429,16106,7,AY,1,100,0.229
1572440364.376235,95507.714,16106,7,AY,1,100,0.232
1572440364.393193,95521.000,16106,7,AY,1,100,0.243
1572440364.409786,95534.000,16125,8,AY,1,100,0.252
1572440364.426378,95547.000,16125,8,AY,1,100,0.268
1572440364.442971,95560.000,16125,8,AY,1,100,0.270
1572440364.459564,95573.000,16125,8,AY,1,100,0.279
1572440364.476157,95586.000,16125,8,AY,1,100,0.304
1572440364.492750,95599.000,16125,8,AY,1,100,0.338
1572440364.509343,95612.000,16125,8,AY,1,100,0.351
1572440364.525936,95625.000,16125,8,AY,1,100,0.362
1572440364.542689,95638.125,16143,8,AY,1,100,0.362
1572440364.559441,95651.250,16143,8,AY,1,100,0.347
1572440364.576194,95664.375,16143,8,AY,1,100,0.323
1572440364.592946,95677.500,16143,8,AY,1,100,0.311
1572440364.609699,95690.625,16143,8,AY,1,100,0.292
1572440364.626451,95703.750,16143,8,AY,1,100,0.288
1572440364.643203,95716.875,16143,8,AY,1,100,0.288
1572440364.659956,95730.000,16143,8,AY,1,100,0.283
1572440364.676367,95742.857,16161,7,AY,1,100,0.290
1572440364.692777,95755.714,16161,7,AY,1,100,0.298
1572440364.709188,95768.571,16161,7,AY,1,100,0.313
1572440364.725598,95781.429,16161,7,AY,1,100,0.315
1572440364.742009,95794.286,16161,7,AY,1,100,0.319
1572440364.758420,95807.143,16161,7,AY,1,100,0.313
1572440364.774830,95820.000,16161,7,AY,1,100,0.310
1572440364.791423,95833.000,16179,8,AY,1,100,0.301
1572440364.808016,95846.000,16179,8,AY,1,100,0.295
1572440364.824609,95859.000,16179,8,AY,1,100,0.287
1572440364.841202,95872.000,16179,8,AY,1,100,0.285
1572440364.857795,95885.000,16179,8,AY,1,100,0.288
1572440364.874388,95898.000,16179,8,AY,1,100,0.298
1572440364.890981,95911.000,16179,8,AY,1,100,0.309
1572440364.907574,95924.000,16179,8,AY,1,100,0.317
1572440364.924167,95937.000,16197,8,AY,1,100,0.324
1572440364.940760,95950.000,16197,8,AY,1,100,0.327
1572440364.957353,95963.000,16197,8,AY,1,100,0.305
1572440364.973945,95976.000,16197,8,AY,1,100,0.293
1572440364.990538,95989.000,16197,8,AY,1,100,0.276
1572440365.007131,96002.000,16197,8,AY,1,100,0.267
1572440365.023724,96015.000,16197,8,AY,1,100,0.274
1572440365.040317,96028.000,16197,8,AY,1,100,0.292
1572440365.057229,96041.250,16215,8,AY,1,100,0.312
1572440365.074141,96054.500,16215,8,AY,1,100,0.323
1572440365.091053,96067.750,16215,8,AY,1,100,0.333
1572440365.107965,96081.000,16215,8,AY,1,100,0.345
1572440365.124877,96094.250,16215,8,AY,1,100,0.379
1572440365.141789,96107.500,16215,8,AY,1,100,0.390
1572440365.158701,96120.750,16215,8,AY,1,100,0.367
1572440365.175613,96134.000,16215,8,AY,1,100,0.354
1572440365.192389,96147.143,16233,7,AY,1,100,0.343
1572440365.209164,96160.286,16233,7,AY,1,100,0.343
1572440365.225939,96173.429,16233,7,AY,1,100,0.338
1572440365.242715,96186.571,16233,7,AY,1,100,0.329
1572440365.259490,96199.714,16233,7,AY,1,100,0.326
1572440365.276265,96212.857,16233,7,AY,1,100,0.331
1572440365.293041,96226.000,16233,7,AY,1,100,0.341
1572440365.310112,96239.375,16251,8,AY,1,100,0.341
1572440365.327183,96252.750,16251,8,AY,1,100,0.363
1572440365.344255,96266.125,16251,8,AY,1,100,0.365
1572440365.361327,96279.500,16251,8,AY,1,100,0.355
1572440365.378398,96292.875,16251,8,AY,1,100,0.340
1572440365.395470,96306.250,16251,8,AY,1,100,0.334
1572440365.412541,96319.625,16251,8,AY,1,100,0.329
1572440365.429613,96333.000,16251,8,AY,1,100,0.324
1572440365.446206,96346.000,16270,8,AY,1,100,0.329
1572440365.462799,96359.000,16270,8,AY,1,100,0.324
1572440365.479392,96372.000,16270,8,AY,1,100,0.326
1572440365.495985,96385.000,16270,8,AY,1,100,0.347
1572440365.512578,96398.000,16270,8,AY,1,100,0.353
1572440365.529171,96411.000,16270,8,AY,1,100,0.350
1572440365.545764,96424.000,16270,8,AY,1,100,0.345
1572440365.562356,96437.000,16270,8,AY,1,100,0.340
1572440365.578949,96450.000,16288,7,AY,1,100,0.334
1572440365.595542,96463.000,16288,7,AY,1,100,0.332
1572440365.612135,96476.000,16288,7,AY,1,100,0.331
1572440365.628728,96489.000,16288,7,AY,1,100,0.316
1572440365.645321,96502.000,16288,7,AY,1,100,0.312
1572440365.661914,96515.000,16288,7,AY,1,100,0.326
1572440365.678507,96528.000,16288,7,AY,1,100,0.335
1572440365.694941,96540.875,16306,8,AY,1,100,0.355
1572440365.711374,96553.750,16306,8,AY,1,100,0.364
1572440365.727807,96566.625,16306,8,AY,1,100,0.364
1572440365.744241,96579.500,16306,8,AY,1,100,0.368
1572440365.760674,96592.375,16306,8,AY,1,100,0.365
