EpochTimestamp,EmotiBitTimestamp,PacketNumber,DataLength,TypeTag,ProtocolVersion,DataReliability,EA
1572441007.125284,46972.000,7580,3,EA,1,100,0.376729
1572441007.125284,46972.000,7580,3,EA,1,100,0.376942
1572441007.125284,46972.000,7580,3,EA,1,100,0.376801
1572441007.191658,47024.000,7598,2,EA,1,100,0.376964
1572441007.258031,47076.000,7598,2,EA,1,100,0.376729
1572441007.325043,47128.500,7616,2,EA,1,100,0.376930
1572441007.392055,47181.000,7616,2,EA,1,100,0.377166
1572441007.458428,47233.000,7635,1,EA,1,100,0.377270
1572441007.525440,47285.500,7653,2,EA,1,100,0.376906
1572441007.592452,47338.000,7653,2,EA,1,100,0.376779
1572441007.658825,47390.000,7671,2,EA,1,100,0.377008
1572441007.725199,47442.000,7671,2,EA,1,100,0.377178
1572441007.791573,47494.000,7688,2,EA,1,100,0.376849
1572441007.857946,47546.000,7688,2,EA,1,100,0.376988
1572441007.924958,47598.500,7706,2,EA,1,100,0.376807
1572441007.991970,47651.000,7706,2,EA,1,100,0.377151
1572441008.057705,47702.500,7724,2,EA,1,100,0.376855
1572441008.123441,47754.000,7724,2,EA,1,100,0.377184
1572441008.189814,47806.000,7742,2,EA,1,100,0.377160
1572441008.256188,47858.000,7742,2,EA,1,100,0.377073
1572441008.323838,47911.000,7760,2,EA,1,100,0.377149
1572441008.391488,47964.000,7760,2,EA,1,100,0.376936
1572441008.457861,48016.000,7779,2,EA,1,100,0.376869
1572441008.524235,48068.000,7779,2,EA,1,100,0.377085
1572441008.591885,48121.000,7797,2,EA,1,100,0.377252
1572441008.659535,48174.000,7797,2,EA,1,100,0.377008
1572441008.726547,48226.500,7813,2,EA,1,100,0.377039
1572441008.793558,48279.000,7813,2,EA,1,100,0.376902
1572441008.859294,48330.500,7831,2,EA,1,100,0.377123
1572441008.925029,48382.000,7831,2,EA,1,100,0.376992
1572441008.992041,48434.500,7849,2,EA,1,100,0.377238
1572441009.059052,48487.000,7849,2,EA,1,100,0.376934
1572441009.125426,48539.000,7867,2,EA,1,100,0.377141
1572441009.191800,48591.000,7867,2,EA,1,100,0.377379
1572441009.258811,48643.500,7885,2,EA,1,100,0.376974
1572441009.325823,48696.000,7885,2,EA,1,100,0.377383
1572441009.393473,48749.000,7903,1,EA,1,100,0.377061
1572441009.460485,48801.500,7922,2,EA,1,100,0.377182
1572441009.527497,48854.000,7922,2,EA,1,100,0.377387
1572441009.594508,48906.500,7940,2,EA,1,100,0.377220
1572441009.661520,48959.000,7940,2,EA,1,100,0.377105
1572441009.729170,49012.000,7958,2,EA,1,100,0.377190
1572441009.796820,49065.000,7958,2,EA,1,100,0.377051
1572441009.862556,49116.500,7976,2,EA,1,100,0.377311
1572441009.928291,49168.000,7976,2,EA,1,100,0.377250
1572441009.994665,49220.000,7994,2,EA,1,100,0.377375
1572441010.061038,49272.000,7994,2,EA,1,100,0.377393
1572441010.126774,49323.500,8012,2,EA,1,100,0.377174
1572441010.192509,49375.000,8012,2,EA,1,100,0.377226
1572441010.258883,49427.000,8030,2,EA,1,100,0.377041
1572441010.325256,49479.000,8030,2,EA,1,100,0.377558
1572441010.392268,49531.500,8048,2,EA,1,100,0.377135
1572441010.459280,49584.000,8048,2,EA,1,100,0.377208
1572441010.526291,49636.500,8067,2,EA,1,100,0.377053
1572441010.593303,49689.000,8067,2,EA,1,100,0.377329
1572441010.659677,49741.000,8085,2,EA,1,100,0.377075
1572441010.726050,49793.000,8085,2,EA,1,100,0.377448
1572441010.792424,49845.000,8103,2,EA,1,100,0.377135
1572441010.858797,49897.000,8103,2,EA,1,100,0.377202
1572441010.925171,49949.000,8121,2,EA,1,100,0.377576
1572441010.991544,50001.000,8121,2,EA,1,100,0.377242
1572441011.056642,50052.000,8139,2,EA,1,100,0.376924
1572441011.121739,50103.000,8139,2,EA,1,100,0.377514
1572441011.188112,50155.000,8157,2,EA,1,100,0.377331
1572441011.254486,50207.000,8157,2,EA,1,100,0.377202
1572441011.320859,50259.000,8175,2,EA,1,100,0.377258
1572441011.387233,50311.000,8175,2,EA,1,100,0.377101
1572441011.453607,50363.000,8194,2,EA,1,100,0.376688
1572441011.519980,50415.000,8194,2,EA,1,100,0.376116
1572441011.588907,50469.000,8212,1,EA,1,100,0.375881
1572441011.655280,50521.000,8230,2,EA,1,100,0.375605
1572441011.721654,50573.000,8230,2,EA,1,100,0.375329
1572441011.789304,50626.000,8247,2,EA,1,100,0.375852
1572441011.856954,50679.000,8247,2,EA,1,100,0.376074
1572441011.923327,50731.000,8265,2,EA,1,100,0.376281
1572441011.989701,50783.000,8265,2,EA,1,100,0.375790
1572441012.055436,50834.500,8284,2,EA,1,100,0.376910
1572441012.121172,50886.000,8284,2,EA,1,100,0.376293
1572441012.188183,50938.500,8302,2,EA,1,100,0.376092
1572441012.255195,50991.000,8302,2,EA,1,100,0.376229
1572441012.321569,51043.000,8320,2,EA,1,100,0.375119
1572441012.387942,51095.000,8320,2,EA,1,100,0.376050
1572441012.454954,51147.500,8339,2,EA,1,100,0.376231
1572441012.521966,51200.000,8339,2,EA,1,100,0.376233
1572441012.588978,51252.500,8357,2,EA,1,100,0.376241
1572441012.655989,51305.000,8357,2,EA,1,100,0.376173
1572441012.723639,51358.000,8375,2,EA,1,100,0.376557
1572441012.791289,51411.000,8375,2,EA,1,100,0.376853
1572441012.857663,51463.000,8391,2,EA,1,100,0.376868
1572441012.924037,51515.000,8391,2,EA,1,100,0.377313
1572441012.990410,51567.000,8409,2,EA,1,100,0.377502
1572441013.056784,51619.000,8409,2,EA,1,100,0.377542
1572441013.123157,51671.000,8427,2,EA,1,100,0.377254
1572441013.189531,51723.000,8427,2,EA,1,100,0.376700
1572441013.255904,51775.000,8445,2,EA,1,100,0.376739
1572441013.322278,51827.000,8445,2,EA,1,100,0.377015
1572441013.388652,51879.000,8463,2,EA,1,100,0.377333
1572441013.455025,51931.000,8463,2,EA,1,100,0.377585
1572441013.521824,51983.333,8485,3,EA,1,100,0.377840
1572441013.588623,52035.667,8485,3,EA,1,100,0.377854
1572441013.655422,52088.000,8485,3,EA,1,100,0.377659
1572441013.722434,52140.500,8505,2,EA,1,100,0.377758
1572441013.789446,52193.000,8505,2,EA,1,100,0.377504
1572441013.855819,52245.000,8523,2,EA,1,100,0.378014
1572441013.922193,52297.000,8523,2,EA,1,100,0.378016
1572441013.988566,52349.000,8541,2,EA,1,100,0.378322
1572441014.054940,52401.000,8541,2,EA,1,100,0.378410
1572441014.121314,52453.000,8559,2,EA,1,100,0.378537
1572441014.187687,52505.000,8559,2,EA,1,100,0.378374
1572441014.252784,52556.000,8577,2,EA,1,100,0.378376
1572441014.317882,52607.000,8577,2,EA,1,100,0.378422
1572441014.385531,52660.000,8595,1,EA,1,100,0.378674
1572441014.450629,52711.000,8614,2,EA,1,100,0.378336
1572441014.515726,52762.000,8614,2,EA,1,100,0.378511
1572441014.583376,52815.000,8632,2,EA,1,100,0.378513
1572441014.651026,52868.000,8632,2,EA,1,100,0.378880
1572441014.718676,52921.000,8649,2,EA,1,100,0.378684
1572441014.786326,52974.000,8649,2,EA,1,100,0.378906
1572441014.852699,53026.000,8667,2,EA,1,100,0.379387
1572441014.919073,53078.000,8667,2,EA,1,100,0.379337
1572441014.986723,53131.000,8685,2,EA,1,100,0.379329
1572441015.054373,53184.000,8685,2,EA,1,100,0.379232
1572441015.120746,53236.000,8703,2,EA,1,100,0.379571
1572441015.187120,53288.000,8703,2,EA,1,100,0.379631
1572441015.252855,53339.500,8721,2,EA,1,100,0.379693
1572441015.318591,53391.000,8721,2,EA,1,100,0.379812
1572441015.385602,53443.500,8739,2,EA,1,100,0.379746
1572441015.452614,53496.000,8739,2,EA,1,100,0.380010
1572441015.518988,53548.000,8758,2,EA,1,100,0.379907
1572441015.585361,53600.000,8758,2,EA,1,100,0.380211
1572441015.652373,53652.500,8774,2,EA,1,100,0.380223
1572441015.719385,53705.000,8774,2,EA,1,100,0.380481
1572441015.786397,53757.500,8792,2,EA,1,100,0.380580
1572441015.853409,53810.000,8792,2,EA,1,100,0.380400
1572441015.921058,53863.000,8810,2,EA,1,100,0.380678
1572441015.988708,53916.000,8810,2,EA,1,100,0.380427
1572441016.055720,53968.500,8828,2,EA,1,100,0.380622
1572441016.122732,54021.000,8828,2,EA,1,100,0.381083
1572441016.189106,54073.000,8846,1,EA,1,100,0.380612
1572441016.255479,54125.000,8864,2,EA,1,100,0.381011
1572441016.321853,54177.000,8864,2,EA,1,100,0.381021
1572441016.388226,54229.000,8882,2,EA,1,100,0.381061
1572441016.454600,54281.000,8882,2,EA,1,100,0.381105
1572441016.520973,54333.000,8901,2,EA,1,100,0.381043
1572441016.587347,54385.000,8901,2,EA,1,100,0.381208
1572441016.653721,54437.000,8919,2,EA,1,100,0.381468
1572441016.720094,54489.000,8919,2,EA,1,100,0.381389
1572441016.787106,54541.500,8937,2,EA,1,100,0.381669
1572441016.854118,54594.000,8937,2,EA,1,100,0.381857
1572441016.921129,54646.500,8955,2,EA,1,100,0.381768
1572441016.988141,54699.000,8955,2,EA,1,100,0.381844
1572441017.054515,54751.000,8973,2,EA,1,100,0.381927
1572441017.120888,54803.000,8973,2,EA,1,100,0.382112
1572441017.187262,54855.000,8991,2,EA,1,100,0.381822
1572441017.253636,54907.000,8991,2,EA,1,100,0.381867
1572441017.320009,54959.000,9009,2,EA,1,100,0.381909
1572441017.386383,55011.000,9009,2,EA,1,100,0.381996
1572441017.451480,55062.000,9027,2,EA,1,100,0.382118
1572441017.516577,55113.000,9027,2,EA,1,100,0.382114
1572441017.584227,55166.000,9046,2,EA,1,100,0.382149
1572441017.651877,55219.000,9046,2,EA,1,100,0.382169
1572441017.719527,55272.000,9064,2,EA,1,100,0.382590
1572441017.787177,55325.000,9064,2,EA,1,100,0.382368
1572441017.853550,55377.000,9082,2,EA,1,100,0.382525
1572441017.919924,55429.000,9082,2,EA,1,100,0.382570
1572441017.987574,55482.000,9100,2,EA,1,100,0.382791
1572441018.055224,55535.000,9100,2,EA,1,100,0.382821
1572441018.121598,55587.000,9118,1,EA,1,100,0.383134
1572441018.188609,55639.500,9136,2,EA,1,100,0.383162
1572441018.255621,55692.000,9136,2,EA,1,100,0.382982
1572441018.321995,55744.000,9154,2,EA,1,100,0.383003
1572441018.388368,55796.000,9154,2,EA,1,100,0.383013
1572441018.454104,55847.500,9171,2,EA,1,100,0.383214
1572441018.519839,55899.000,9171,2,EA,1,100,0.383410
1572441018.586851,55951.500,9190,2,EA,1,100,0.383289
1572441018.653862,56004.000,9190,2,EA,1,100,0.383540
1572441018.721513,56057.000,9208,2,EA,1,100,0.383496
1572441018.789163,56110.000,9208,2,EA,1,100,0.383679
1572441018.856174,56162.500,9226,2,EA,1,100,0.384060
1572441018.923186,56215.000,9226,2,EA,1,100,0.383975
1572441018.990198,56267.500,9244,2,EA,1,100,0.383927
1572441019.057210,56320.000,9244,2,EA,1,100,0.384084
1572441019.124221,56372.500,9262,2,EA,1,100,0.384314
1572441019.191233,56425.000,9262,2,EA,1,100,0.384447
1572441019.257607,56477.000,9280,2,EA,1,100,0.384703
1572441019.323980,56529.000,9280,2,EA,1,100,0.384755
1572441019.390354,56581.000,9297,2,EA,1,100,0.384650
1572441019.456728,56633.000,9297,2,EA,1,100,0.384789
1572441019.523101,56685.000,9314,2,EA,1,100,0.385168
1572441019.589475,56737.000,9314,2,EA,1,100,0.385256
1572441019.655848,56789.000,9333,2,EA,1,100,0.385613
1572441019.722222,56841.000,9333,2,EA,1,100,0.385937
1572441019.789233,56893.500,9351,2,EA,1,100,0.385931
1572441019.856245,56946.000,9351,2,EA,1,100,0.386181
1572441019.923257,56998.500,9369,2,EA,1,100,0.385780
1572441019.990269,57051.000,9369,2,EA,1,100,0.386249
1572441020.057068,57103.333,9390,3,EA,1,100,0.386219
1572441020.123867,57155.667,9390,3,EA,1,100,0.386322
1572441020.190666,57208.000,9390,3,EA,1,100,0.386469
1572441020.256401,57259.500,9410,2,EA,1,100,0.386407
1572441020.322137,57311.000,9410,2,EA,1,100,0.386920
1572441020.388510,57363.000,9428,2,EA,1,100,0.386797
1572441020.454884,57415.000,9428,2,EA,1,100,0.387031
1572441020.521257,57467.000,9446,2,EA,1,100,0.387011
1572441020.587631,57519.000,9446,2,EA,1,100,0.386938
1572441020.652728,57570.000,9465,2,EA,1,100,0.387089
1572441020.717825,57621.000,9465,2,EA,1,100,0.387132
1572441020.785475,57674.000,9483,2,EA,1,100,0.387238
1572441020.853125,57727.000,9483,2,EA,1,100,0.387442
1572441020.919499,57779.000,9501,1,EA,1,100,0.387297
1572441020.987149,57832.000,9519,2,EA,1,100,0.387686
1572441021.054799,57885.000,9519,2,EA,1,100,0.387474
1572441021.122449,57938.000,9537,2,EA,1,100,0.387635
1572441021.190099,57991.000,9537,2,EA,1,100,0.387921
1572441021.255834,58042.500,9554,2,EA,1,100,0.387859
1572441021.321569,58094.000,9554,2,EA,1,100,0.387724
1572441021.388581,58146.500,9572,2,EA,1,100,0.387810
1572441021.455593,58199.000,9572,2,EA,1,100,0.388068
1572441021.521967,58251.000,9590,2,EA,1,100,0.387561
1572441021.588340,58303.000,9590,2,EA,1,100,0.387889
1572441021.654714,58355.000,9609,2,EA,1,100,0.387937
1572441021.721087,58407.000,9609,2,EA,1,100,0.387953
1572441021.788099,58459.500,9627,2,EA,1,100,0.388050
1572441021.855111,58512.000,9627,2,EA,1,100,0.388401
1572441021.922761,58565.000,9645,2,EA,1,100,0.388135
1572441021.990411,58618.000,9645,2,EA,1,100,0.388332
1572441022.057423,58670.500,9661,2,EA,1,100,0.388260
1572441022.124434,58723.000,9661,2,EA,1,100,0.388256
1572441022.191446,58775.500,9679,2,EA,1,100,0.388596
1572441022.258458,58828.000,9679,2,EA,1,100,0.388352
1572441022.326108,58881.000,9697,2,EA,1,100,0.388296
1572441022.393758,58934.000,9697,2,EA,1,100,0.388364
1572441022.460131,58986.000,9715,2,EA,1,100,0.388119
1572441022.526505,59038.000,9715,2,EA,1,100,0.388620
1572441022.594155,59091.000,9733,1,EA,1,100,0.388608
1572441022.660529,59143.000,9752,2,EA,1,100,0.388515
1572441022.726902,59195.000,9752,2,EA,1,100,0.388207
1572441022.793914,59247.500,9770,2,EA,1,100,0.388644
1572441022.860926,59300.000,9770,2,EA,1,100,0.388475
1572441022.927938,59352.500,9788,2,EA,1,100,0.388638
1572441022.994949,59405.000,9788,2,EA,1,100,0.388578
1572441023.061323,59457.000,9806,2,EA,1,100,0.388509
1572441023.127697,59509.000,9806,2,EA,1,100,0.388435
1572441023.194708,59561.500,9824,2,EA,1,100,0.388485
1572441023.261720,59614.000,9824,2,EA,1,100,0.388767
1572441023.328732,59666.500,9842,2,EA,1,100,0.388709
1572441023.395744,59719.000,9842,2,EA,1,100,0.388562
1572441023.460841,59770.000,9860,2,EA,1,100,0.388578
1572441023.525938,59821.000,9860,2,EA,1,100,0.388419
1572441023.592311,59873.000,9878,2,EA,1,100,0.388523
1572441023.658685,59925.000,9878,2,EA,1,100,0.388501
1572441023.725059,59977.000,9897,2,EA,1,100,0.388477
1572441023.791432,60029.000,9897,2,EA,1,100,0.388703
1572441023.857167,60080.500,9915,2,EA,1,100,0.388662
1572441023.922903,60132.000,9915,2,EA,1,100,0.388527
1572441023.989915,60184.500,9933,2,EA,1,100,0.388393
1572441024.056926,60237.000,9933,2,EA,1,100,0.388713
1572441024.123938,60289.500,9951,2,EA,1,100,0.388596
1572441024.190950,60342.000,9951,2,EA,1,100,0.388594
1572441024.257324,60394.000,9969,2,EA,1,100,0.388634
1572441024.323697,60446.000,9969,2,EA,1,100,0.388550
1572441024.390709,60498.500,9987,2,EA,1,100,0.388630
1572441024.457721,60551.000,9987,2,EA,1,100,0.388628
1572441024.524094,60603.000,10005,2,EA,1,100,0.388672
1572441024.590468,60655.000,10005,2,EA,1,100,0.388614
1572441024.656841,60707.000,10023,1,EA,1,100,0.388370
1572441024.723215,60759.000,10042,2,EA,1,100,0.388501
1572441024.789588,60811.000,10042,2,EA,1,100,0.389406
1572441024.855962,60863.000,10060,2,EA,1,100,0.388771
1572441024.922336,60915.000,10060,2,EA,1,100,0.388586
1572441024.989347,60967.500,10077,2,EA,1,100,0.388521
1572441025.056359,61020.000,10077,2,EA,1,100,0.388312
1572441025.124009,61073.000,10095,2,EA,1,100,0.388638
1572441025.191659,61126.000,10095,2,EA,1,100,0.388417
1572441025.258671,61178.500,10113,2,EA,1,100,0.388668
1572441025.325683,61231.000,10113,2,EA,1,100,0.388578
1572441025.392694,61283.500,10131,2,EA,1,100,0.388662
1572441025.459706,61336.000,10131,2,EA,1,100,0.388576
1572441025.526718,61388.500,10149,2,EA,1,100,0.388602
1572441025.593730,61441.000,10149,2,EA,1,100,0.388711
1572441025.660103,61493.000,10168,2,EA,1,100,0.388699
1572441025.726477,61545.000,10168,2,EA,1,100,0.388727
1572441025.793489,61597.500,10184,2,EA,1,100,0.388554
1572441025.860501,61650.000,10184,2,EA,1,100,0.388844
1572441025.927512,61702.500,10202,2,EA,1,100,0.388463
1572441025.994524,61755.000,10202,2,EA,1,100,0.388411
1572441026.060898,61807.000,10220,2,EA,1,100,0.388648
1572441026.127271,61859.000,10220,2,EA,1,100,0.388439
1572441026.194283,61911.500,10238,2,EA,1,100,0.388679
1572441026.261295,61964.000,10238,2,EA,1,100,0.388640
1572441026.328306,62016.500,10256,2,EA,1,100,0.388308
1572441026.395318,62069.000,10256,2,EA,1,100,0.388155
1572441026.461692,62121.000,10274,1,EA,1,100,0.388280
1572441026.527427,62172.500,10295,4,EA,1,100,0.388469
1572441026.593163,62224.000,10295,4,EA,1,100,0.388304
1572441026.658898,62275.500,10295,4,EA,1,100,0.388459
1572441026.724633,62327.000,10295,4,EA,1,100,0.388388
1572441026.791007,62379.000,10315,2,EA,1,100,0.388280
1572441026.857380,62431.000,10315,2,EA,1,100,0.388562
1572441026.923754,62483.000,10334,2,EA,1,100,0.388465
1572441026.990128,62535.000,10334,2,EA,1,100,0.388622
1572441027.055863,62586.500,10352,2,EA,1,100,0.388205
1572441027.121598,62638.000,10352,2,EA,1,100,0.388346
1572441027.188610,62690.500,10370,2,EA,1,100,0.388268
1572441027.255622,62743.000,10370,2,EA,1,100,0.388294
1572441027.322634,62795.500,10388,2,EA,1,100,0.388135
1572441027.389645,62848.000,10388,2,EA,1,100,0.388413
1572441027.456019,62900.000,10406,1,EA,1,100,0.388330
1572441027.523031,62952.500,10424,2,EA,1,100,0.388177
1572441027.590043,63005.000,10424,2,EA,1,100,0.388453
1572441027.655778,63056.500,10442,2,EA,1,100,0.388215
1572441027.721513,63108.000,10442,2,EA,1,100,0.388380
1572441027.788525,63160.500,10460,2,EA,1,100,0.388068
1572441027.855537,63213.000,10460,2,EA,1,100,0.388691
1572441027.921911,63265.000,10478,2,EA,1,100,0.388425
1572441027.988284,63317.000,10478,2,EA,1,100,0.388207
1572441028.055296,63369.500,10496,2,EA,1,100,0.388346
1572441028.122308,63422.000,10496,2,EA,1,100,0.388042
1572441028.189319,63474.500,10514,2,EA,1,100,0.388102
1572441028.256331,63527.000,10514,2,EA,1,100,0.388127
1572441028.323981,63580.000,10532,2,EA,1,100,0.388268
1572441028.391631,63633.000,10532,2,EA,1,100,0.388167
1572441028.458643,63685.500,10550,2,EA,1,100,0.388260
1572441028.525655,63738.000,10550,2,EA,1,100,0.387816
1572441028.592666,63790.500,10566,2,EA,1,100,0.388072
1572441028.659678,63843.000,10566,2,EA,1,100,0.388322
1572441028.726690,63895.500,10585,2,EA,1,100,0.388457
1572441028.793702,63948.000,10585,2,EA,1,100,0.388282
1572441028.860075,64000.000,10603,2,EA,1,100,0.387931
1572441028.926449,64052.000,10603,2,EA,1,100,0.387959
1572441028.993461,64104.500,10621,2,EA,1,100,0.388294
1572441029.060472,64157.000,10621,2,EA,1,100,0.388106
1572441029.127484,64209.500,10639,2,EA,1,100,0.388060
1572441029.194496,64262.000,10639,2,EA,1,100,0.388177
1572441029.260870,64314.000,10657,1,EA,1,100,0.388096
1572441029.327881,64366.500,10675,2,EA,1,100,0.388094
1572441029.394893,64419.000,10675,2,EA,1,100,0.388032
1572441029.461267,64471.000,10693,2,EA,1,100,0.388133
1572441029.527640,64523.000,10693,2,EA,1,100,0.388209
1572441029.593376,64574.500,10711,2,EA,1,100,0.388417
1572441029.659111,64626.000,10711,2,EA,1,100,0.388131
1572441029.725485,64678.000,10730,2,EA,1,100,0.388348
1572441029.791858,64730.000,10730,2,EA,1,100,0.388058
1572441029.856955,64781.000,10748,2,EA,1,100,0.387899
1572441029.922052,64832.000,10748,2,EA,1,100,0.388141
1572441029.988426,64884.000,10766,2,EA,1,100,0.387929
1572441030.054800,64936.000,10766,2,EA,1,100,0.387859
1572441030.121173,64988.000,10784,2,EA,1,100,0.387871
1572441030.187547,65040.000,10784,2,EA,1,100,0.387998
1572441030.253920,65092.000,10802,2,EA,1,100,0.387927
1572441030.320294,65144.000,10802,2,EA,1,100,0.388032
1572441030.387305,65196.500,10820,2,EA,1,100,0.387951
1572441030.454317,65249.000,10820,2,EA,1,100,0.387887
1572441030.521329,65301.500,10838,2,EA,1,100,0.388010
1572441030.588341,65354.000,10838,2,EA,1,100,0.387891
1572441030.653438,65405.000,10856,2,EA,1,100,0.387984
1572441030.718535,65456.000,10856,2,EA,1,100,0.388046
1572441030.785547,65508.500,10875,2,EA,1,100,0.387808
1572441030.852559,65561.000,10875,2,EA,1,100,0.388010
1572441030.918932,65613.000,10893,2,EA,1,100,0.387849
1572441030.985306,65665.000,10893,2,EA,1,100,0.387966
1572441031.051041,65716.500,10911,2,EA,1,100,0.387726
1572441031.116777,65768.000,10911,2,EA,1,100,0.387851
1572441031.183789,65820.500,10929,2,EA,1,100,0.387974
1572441031.250800,65873.000,10929,2,EA,1,100,0.387657
1572441031.318450,65926.000,10947,2,EA,1,100,0.387768
1572441031.386100,65979.000,10947,2,EA,1,100,0.387796
1572441031.452474,66031.000,10965,1,EA,1,100,0.388018
1572441031.520124,66084.000,10983,2,EA,1,100,0.387710
1572441031.587774,66137.000,10983,2,EA,1,100,0.387849
1572441031.653509,66188.500,11000,2,EA,1,100,0.387774
1572441031.719244,66240.000,11000,2,EA,1,100,0.387966
1572441031.786256,66292.500,11019,2,EA,1,100,0.387931
1572441031.853268,66345.000,11019,2,EA,1,100,0.387643
1572441031.920280,66397.500,11037,2,EA,1,100,0.387849
1572441031.987292,66450.000,11037,2,EA,1,100,0.387879
1572441032.053665,66502.000,11055,2,EA,1,100,0.387726
1572441032.120039,66554.000,11055,2,EA,1,100,0.387812
1572441032.187051,66606.500,11073,2,EA,1,100,0.387615
1572441032.254062,66659.000,11073,2,EA,1,100,0.387839
1572441032.321074,66711.500,11091,2,EA,1,100,0.387547
1572441032.388086,66764.000,11091,2,EA,1,100,0.387536
1572441032.454459,66816.000,11109,2,EA,1,100,0.387680
1572441032.520833,66868.000,11109,2,EA,1,100,0.387681
1572441032.587845,66920.500,11125,2,EA,1,100,0.387851
1572441032.654856,66973.000,11125,2,EA,1,100,0.387790
1572441032.721230,67025.000,11143,2,EA,1,100,0.387883
1572441032.787604,67077.000,11143,2,EA,1,100,0.387972
1572441032.852701,67128.000,11162,2,EA,1,100,0.387355
1572441032.917798,67179.000,11162,2,EA,1,100,0.387595
1572441032.984172,67231.000,11180,2,EA,1,100,0.387712
1572441033.050545,67283.000,11180,2,EA,1,100,0.387724
1572441033.116493,67334.667,11201,3,EA,1,100,0.387728
1572441033.182441,67386.333,11201,3,EA,1,100,0.387595
1572441033.248389,67438.000,11201,3,EA,1,100,0.387359
1572441033.315401,67490.500,11221,2,EA,1,100,0.387643
1572441033.382413,67543.000,11221,2,EA,1,100,0.387603
1572441033.448786,67595.000,11239,2,EA,1,100,0.387567
1572441033.515160,67647.000,11239,2,EA,1,100,0.387633
1572441033.582172,67699.500,11257,2,EA,1,100,0.387412
1572441033.649184,67752.000,11257,2,EA,1,100,0.387536
1572441033.716195,67804.500,11275,2,EA,1,100,0.387414
1572441033.783207,67857.000,11275,2,EA,1,100,0.387681
1572441033.848943,67908.500,11294,2,EA,1,100,0.387688
1572441033.914678,67960.000,11294,2,EA,1,100,0.387567
1572441033.981690,68012.500,11312,2,EA,1,100,0.387609
1572441034.048702,68065.000,11312,2,EA,1,100,0.387486
1572441034.113799,68116.000,11330,1,EA,1,100,0.387396
1572441034.180810,68168.500,11348,2,EA,1,100,0.387514
1572441034.247822,68221.000,11348,2,EA,1,100,0.387180
1572441034.314834,68273.500,11366,2,EA,1,100,0.387532
1572441034.381846,68326.000,11366,2,EA,1,100,0.387532
1572441034.448858,68378.500,11383,2,EA,1,100,0.387555
1572441034.515869,68431.000,11383,2,EA,1,100,0.387591
1572441034.582881,68483.500,11401,2,EA,1,100,0.387442
1572441034.649893,68536.000,11401,2,EA,1,100,0.387099
1572441034.717543,68589.000,11419,2,EA,1,100,0.387472
1572441034.785193,68642.000,11419,2,EA,1,100,0.387561
1572441034.851566,68694.000,11438,2,EA,1,100,0.387754
1572441034.917940,68746.000,11438,2,EA,1,100,0.387502
1572441034.984952,68798.500,11456,2,EA,1,100,0.387391
1572441035.051964,68851.000,11456,2,EA,1,100,0.387202
1572441035.118975,68903.500,11474,2,EA,1,100,0.387204
1572441035.185987,68956.000,11474,2,EA,1,100,0.387363
1572441035.252361,69008.000,11491,2,EA,1,100,0.387220
1572441035.318734,69060.000,11491,2,EA,1,100,0.387440
1572441035.385746,69112.500,11508,2,EA,1,100,0.387240
1572441035.452758,69165.000,11508,2,EA,1,100,0.387323
1572441035.519769,69217.500,11526,2,EA,1,100,0.387494
1572441035.586781,69270.000,11526,2,EA,1,100,0.387029
1572441035.653155,69322.000,11544,2,EA,1,100,0.387502
1572441035.719528,69374.000,11544,2,EA,1,100,0.387669
1572441035.785902,69426.000,11562,2,EA,1,100,0.387536
1572441035.852276,69478.000,11562,2,EA,1,100,0.387285
1572441035.917373,69529.000,11581,1,EA,1,100,0.387166
1572441035.983746,69581.000,11599,2,EA,1,100,0.387297
1572441036.050120,69633.000,11599,2,EA,1,100,0.387079
1572441036.116493,69685.000,11617,2,EA,1,100,0.387385
1572441036.182867,69737.000,11617,2,EA,1,100,0.386928
1572441036.247964,69788.000,11635,2,EA,1,100,0.387230
1572441036.313061,69839.000,11635,2,EA,1,100,0.387111
1572441036.380073,69891.500,11653,2,EA,1,100,0.387406
1572441036.447085,69944.000,11653,2,EA,1,100,0.387289
1572441036.514097,69996.500,11671,2,EA,1,100,0.387244
1572441036.581108,70049.000,11671,2,EA,1,100,0.387120
1572441036.647482,70101.000,11689,2,EA,1,100,0.387172
1572441036.713856,70153.000,11689,2,EA,1,100,0.387093
1572441036.780867,70205.500,11707,2,EA,1,100,0.387174
1572441036.847879,70258.000,11707,2,EA,1,100,0.387101
1572441036.914253,70310.000,11726,2,EA,1,100,0.387107
1572441036.980626,70362.000,11726,2,EA,1,100,0.387289
1572441037.046362,70413.500,11744,2,EA,1,100,0.387279
1572441037.112097,70465.000,11744,2,EA,1,100,0.387436
1572441037.179109,70517.500,11762,2,EA,1,100,0.387343
1572441037.246120,70570.000,11762,2,EA,1,100,0.387240
1572441037.312494,70622.000,11780,2,EA,1,100,0.387232
1572441037.378868,70674.000,11780,2,EA,1,100,0.387063
1572441037.445879,70726.500,11798,2,EA,1,100,0.387271
1572441037.512891,70779.000,11798,2,EA,1,100,0.387186
1572441037.579903,70831.500,11816,2,EA,1,100,0.386995
1572441037.646915,70884.000,11816,2,EA,1,100,0.387158
1572441037.714565,70937.000,11834,2,EA,1,100,0.387025
1572441037.782215,70990.000,11834,2,EA,1,100,0.387476
1572441037.848588,71042.000,11852,2,EA,1,100,0.387289
1572441037.914962,71094.000,11852,2,EA,1,100,0.387246
1572441037.982612,71147.000,11871,1,EA,1,100,0.387049
1572441038.048985,71199.000,11889,2,EA,1,100,0.387053
1572441038.115359,71251.000,11889,2,EA,1,100,0.387218
1572441038.182371,71303.500,11907,2,EA,1,100,0.387039
1572441038.249382,71356.000,11907,2,EA,1,100,0.387069
1572441038.316394,71408.500,11924,2,EA,1,100,0.387109
1572441038.383406,71461.000,11924,2,EA,1,100,0.387253
1572441038.449780,71513.000,11942,2,EA,1,100,0.387214
1572441038.516153,71565.000,11942,2,EA,1,100,0.386950
1572441038.583165,71617.500,11960,2,EA,1,100,0.387265
1572441038.650177,71670.000,11960,2,EA,1,100,0.387530
1572441038.717189,71722.500,11978,2,EA,1,100,0.387355
1572441038.784200,71775.000,11978,2,EA,1,100,0.387319
1572441038.850574,71827.000,11996,2,EA,1,100,0.387132
1572441038.916948,71879.000,11996,2,EA,1,100,0.387226
1572441038.983959,71931.500,12015,2,EA,1,100,0.387218
1572441039.050971,71984.000,12015,2,EA,1,100,0.387093
1572441039.117345,72036.000,12033,2,EA,1,100,0.387071
1572441039.183718,72088.000,12033,2,EA,1,100,0.387156
1572441039.248815,72139.000,12050,2,EA,1,100,0.387293
1572441039.313912,72190.000,12050,2,EA,1,100,0.387289
1572441039.380286,72242.000,12067,2,EA,1,100,0.386952
1572441039.446660,72294.000,12067,2,EA,1,100,0.387174
1572441039.513033,72346.000,12085,2,EA,1,100,0.387057
1572441039.579407,72398.000,12085,2,EA,1,100,0.386856
1572441039.646206,72450.333,12106,3,EA,1,100,0.387009
1572441039.713005,72502.667,12106,3,EA,1,100,0.387134
1572441039.779804,72555.000,12106,3,EA,1,100,0.386981
1572441039.846178,72607.000,12126,2,EA,1,100,0.387172
1572441039.912551,72659.000,12126,2,EA,1,100,0.386840
1572441039.980201,72712.000,12145,2,EA,1,100,0.386950
1572441040.047851,72765.000,12145,2,EA,1,100,0.386999
1572441040.114225,72817.000,12163,2,EA,1,100,0.387118
1572441040.180598,72869.000,12163,2,EA,1,100,0.386964
1572441040.246334,72920.500,12181,2,EA,1,100,0.387192
1572441040.312069,72972.000,12181,2,EA,1,100,0.386904
1572441040.379081,73024.500,12199,2,EA,1,100,0.387240
1572441040.446092,73077.000,12199,2,EA,1,100,0.387007
1572441040.513104,73129.500,12217,2,EA,1,100,0.387220
1572441040.580116,73182.000,12217,2,EA,1,100,0.387055
1572441040.647128,73234.500,12235,2,EA,1,100,0.387103
1572441040.714139,73287.000,12235,2,EA,1,100,0.387371
1572441040.781790,73340.000,12253,1,EA,1,100,0.386884
1572441040.848801,73392.500,12271,2,EA,1,100,0.387061
1572441040.915813,73445.000,12271,2,EA,1,100,0.387053
1572441040.983463,73498.000,12289,2,EA,1,100,0.386781
1572441041.051113,73551.000,12289,2,EA,1,100,0.387216
1572441041.118125,73603.500,12307,2,EA,1,100,0.387200
1572441041.185137,73656.000,12307,2,EA,1,100,0.386922
1572441041.251510,73708.000,12325,2,EA,1,100,0.386856
1572441041.317884,73760.000,12325,2,EA,1,100,0.386769
1572441041.384896,73812.500,12343,2,EA,1,100,0.386912
1572441041.451907,73865.000,12343,2,EA,1,100,0.387071
1572441041.518919,73917.500,12361,2,EA,1,100,0.386775
1572441041.585931,73970.000,12361,2,EA,1,100,0.386785
1572441041.652304,74022.000,12379,2,EA,1,100,0.386775
1572441041.718678,74074.000,12379,2,EA,1,100,0.387055
1572441041.785690,74126.500,12397,2,EA,1,100,0.387067
1572441041.852701,74179.000,12397,2,EA,1,100,0.386819
1572441041.919713,74231.500,12415,2,EA,1,100,0.386942
1572441041.986725,74284.000,12415,2,EA,1,100,0.386799
1572441042.052460,74335.500,12432,2,EA,1,100,0.386966
1572441042.118196,74387.000,12432,2,EA,1,100,0.386640
1572441042.184569,74439.000,12450,2,EA,1,100,0.386666
1572441042.250943,74491.000,12450,2,EA,1,100,0.387109
1572441042.317317,74543.000,12468,2,EA,1,100,0.386836
1572441042.383690,74595.000,12468,2,EA,1,100,0.386582
1572441042.448787,74646.000,12486,2,EA,1,100,0.386906
1572441042.513884,74697.000,12486,2,EA,1,100,0.387027
1572441042.580258,74749.000,12504,2,EA,1,100,0.387144
1572441042.646631,74801.000,12504,2,EA,1,100,0.386821
1572441042.713005,74853.000,12522,1,EA,1,100,0.386942
1572441042.780017,74905.500,12540,2,EA,1,100,0.386918
1572441042.847029,74958.000,12540,2,EA,1,100,0.386707
1572441042.914040,75010.500,12559,2,EA,1,100,0.386797
1572441042.981052,75063.000,12559,2,EA,1,100,0.386703
1572441043.047426,75115.000,12577,2,EA,1,100,0.386747
1572441043.113799,75167.000,12577,2,EA,1,100,0.386602
1572441043.180811,75219.500,12595,2,EA,1,100,0.386789
1572441043.247823,75272.000,12595,2,EA,1,100,0.386588
1572441043.314197,75324.000,12613,2,EA,1,100,0.386725
1572441043.380570,75376.000,12613,2,EA,1,100,0.386948
1572441043.446306,75427.500,12631,2,EA,1,100,0.386741
1572441043.512041,75479.000,12631,2,EA,1,100,0.386787
1572441043.579052,75531.500,12649,2,EA,1,100,0.386795
1572441043.646064,75584.000,12649,2,EA,1,100,0.386805
1572441043.713714,75637.000,12667,2,EA,1,100,0.386644
1572441043.781364,75690.000,12667,2,EA,1,100,0.386866
1572441043.848376,75742.500,12685,2,EA,1,100,0.386684
1572441043.915388,75795.000,12685,2,EA,1,100,0.386797
1572441043.982400,75847.500,12704,2,EA,1,100,0.387061
1572441044.049411,75900.000,12704,2,EA,1,100,0.386991
1572441044.116423,75952.500,12722,2,EA,1,100,0.386578
1572441044.183435,76005.000,12722,2,EA,1,100,0.386749
1572441044.249809,76057.000,12740,2,EA,1,100,0.386824
1572441044.316182,76109.000,12740,2,EA,1,100,0.386638
1572441044.383194,76161.500,12758,2,EA,1,100,0.386894
1572441044.450206,76214.000,12758,2,EA,1,100,0.387041
1572441044.516579,76266.000,12776,1,EA,1,100,0.386628
1572441044.583591,76318.500,12794,2,EA,1,100,0.386987
1572441044.650603,76371.000,12794,2,EA,1,100,0.386973
1572441044.717615,76423.500,12812,2,EA,1,100,0.386884
1572441044.784626,76476.000,12812,2,EA,1,100,0.386832
1572441044.851000,76528.000,12829,2,EA,1,100,0.386892
1572441044.917373,76580.000,12829,2,EA,1,100,0.386803
1572441044.984385,76632.500,12848,2,EA,1,100,0.386809
1572441045.051397,76685.000,12848,2,EA,1,100,0.386620
1572441045.118409,76737.500,12866,2,EA,1,100,0.386809
1572441045.185421,76790.000,12866,2,EA,1,100,0.386791
1572441045.250518,76841.000,12884,2,EA,1,100,0.386958
1572441045.315615,76892.000,12884,2,EA,1,100,0.387081
1572441045.381989,76944.000,12902,2,EA,1,100,0.386805
1572441045.448362,76996.000,12902,2,EA,1,100,0.386983
1572441045.514736,77048.000,12920,2,EA,1,100,0.386588
1572441045.581109,77100.000,12920,2,EA,1,100,0.386904
1572441045.646206,77151.000,12938,2,EA,1,100,0.386650
1572441045.711303,77202.000,12938,2,EA,1,100,0.386566
1572441045.778315,77254.500,12956,2,EA,1,100,0.386815
1572441045.845327,77307.000,12956,2,EA,1,100,0.386874
1572441045.912339,77359.500,12974,2,EA,1,100,0.386765
1572441045.979351,77412.000,12974,2,EA,1,100,0.386618
1572441046.045724,77464.000,12991,2,EA,1,100,0.386678
1572441046.112098,77516.000,12991,2,EA,1,100,0.386809
1572441046.178471,77568.000,13012,3,EA,1,100,0.386630
1572441046.244845,77620.000,13012,3,EA,1,100,0.386826
1572441046.311219,77672.000,13012,3,EA,1,100,0.386558
1572441046.378230,77724.500,13032,2,EA,1,100,0.386910
1572441046.445242,77777.000,13032,2,EA,1,100,0.386761
1572441046.511616,77829.000,13050,2,EA,1,100,0.386805
1572441046.577989,77881.000,13050,2,EA,1,100,0.386791
1572441046.643724,77932.500,13068,2,EA,1,100,0.386872
1572441046.709460,77984.000,13068,2,EA,1,100,0.386783
1572441046.776472,78036.500,13086,2,EA,1,100,0.387025
1572441046.843483,78089.000,13086,2,EA,1,100,0.386821
1572441046.911133,78142.000,13104,2,EA,1,100,0.386668
1572441046.978783,78195.000,13104,2,EA,1,100,0.386767
1572441047.045795,78247.500,13123,2,EA,1,100,0.386594
1572441047.112807,78300.000,13123,2,EA,1,100,0.386672
1572441047.180457,78353.000,13141,1,EA,1,100,0.386757
1572441047.246830,78405.000,13159,2,EA,1,100,0.386876
1572441047.313204,78457.000,13159,2,EA,1,100,0.386898
1572441047.380216,78509.500,13176,2,EA,1,100,0.386572
1572441047.447228,78562.000,13176,2,EA,1,100,0.386680
1572441047.514239,78614.500,13194,2,EA,1,100,0.386755
1572441047.581251,78667.000,13194,2,EA,1,100,0.386682
1572441047.647625,78719.000,13212,2,EA,1,100,0.386902
1572441047.713998,78771.000,13212,2,EA,1,100,0.386864
1572441047.781010,78823.500,13230,2,EA,1,100,0.386948
1572441047.848022,78876.000,13230,2,EA,1,100,0.386856
1572441047.915034,78928.500,13248,2,EA,1,100,0.386552
1572441047.982045,78981.000,13248,2,EA,1,100,0.386691
1572441048.048419,79033.000,13267,2,EA,1,100,0.386598
1572441048.114793,79085.000,13267,2,EA,1,100,0.386860
1572441048.181804,79137.500,13285,2,EA,1,100,0.386942
1572441048.248816,79190.000,13285,2,EA,1,100,0.386723
1572441048.315828,79242.500,13303,2,EA,1,100,0.387039
1572441048.382840,79295.000,13303,2,EA,1,100,0.386691
1572441048.447937,79346.000,13319,2,EA,1,100,0.386966
1572441048.513034,79397.000,13319,2,EA,1,100,0.386733
1572441048.579407,79449.000,13337,2,EA,1,100,0.386499
1572441048.645781,79501.000,13337,2,EA,1,100,0.386656
1572441048.712155,79553.000,13355,2,EA,1,100,0.386771
1572441048.778528,79605.000,13355,2,EA,1,100,0.386777
1572441048.844264,79656.500,13373,2,EA,1,100,0.386525
1572441048.909999,79708.000,13373,2,EA,1,100,0.386739
1572441048.977011,79760.500,13391,2,EA,1,100,0.386836
1572441049.044023,79813.000,13391,2,EA,1,100,0.386824
1572441049.110396,79865.000,13410,1,EA,1,100,0.386588
1572441049.177408,79917.500,13428,2,EA,1,100,0.386670
1572441049.244420,79970.000,13428,2,EA,1,100,0.386689
1572441049.310793,80022.000,13446,2,EA,1,100,0.386713
1572441049.377167,80074.000,13446,2,EA,1,100,0.386719
1572441049.442902,80125.500,13464,2,EA,1,100,0.386678
1572441049.508637,80177.000,13464,2,EA,1,100,0.386533
1572441049.575649,80229.500,13482,2,EA,1,100,0.386813
1572441049.642661,80282.000,13482,2,EA,1,100,0.387019
1572441049.709035,80334.000,13500,2,EA,1,100,0.386721
1572441049.775408,80386.000,13500,2,EA,1,100,0.386662
1572441049.841782,80438.000,13518,2,EA,1,100,0.386596
1572441049.908155,80490.000,13518,2,EA,1,100,0.386936
1572441049.975167,80542.500,13536,2,EA,1,100,0.386646
1572441050.042179,80595.000,13536,2,EA,1,100,0.386946
1572441050.109829,80648.000,13555,2,EA,1,100,0.386773
1572441050.177479,80701.000,13555,2,EA,1,100,0.386684
1572441050.244491,80753.500,13573,2,EA,1,100,0.386763
1572441050.311502,80806.000,13573,2,EA,1,100,0.386737
1572441050.377876,80858.000,13591,2,EA,1,100,0.386707
1572441050.444250,80910.000,13591,2,EA,1,100,0.386642
1572441050.511261,80962.500,13609,2,EA,1,100,0.386680
1572441050.578273,81015.000,13609,2,EA,1,100,0.386821
1572441050.644008,81066.500,13627,2,EA,1,100,0.386759
1572441050.709744,81118.000,13627,2,EA,1,100,0.386753
1572441050.776117,81170.000,13645,2,EA,1,100,0.386411
1572441050.842491,81222.000,13645,2,EA,1,100,0.386743
1572441050.909503,81274.500,13663,2,EA,1,100,0.386666
1572441050.976515,81327.000,13663,2,EA,1,100,0.386793
1572441051.044164,81380.000,13681,1,EA,1,100,0.386872
1572441051.111176,81432.500,13700,2,EA,1,100,0.386759
1572441051.178188,81485.000,13700,2,EA,1,100,0.386755
1572441051.245200,81537.500,13718,2,EA,1,100,0.386658
1572441051.312212,81590.000,13718,2,EA,1,100,0.386628
1572441051.379862,81643.000,13735,2,EA,1,100,0.386771
1572441051.447512,81696.000,13735,2,EA,1,100,0.386836
1572441051.513885,81748.000,13753,2,EA,1,100,0.386749
1572441051.580259,81800.000,13753,2,EA,1,100,0.386527
1572441051.645356,81851.000,13771,2,EA,1,100,0.386991
1572441051.710453,81902.000,13771,2,EA,1,100,0.386503
1572441051.776827,81954.000,13789,2,EA,1,100,0.386687
1572441051.843200,82006.000,13789,2,EA,1,100,0.386866
1572441051.909574,82058.000,13807,2,EA,1,100,0.386672
1572441051.975947,82110.000,13807,2,EA,1,100,0.386642
1572441052.042321,82162.000,13825,2,EA,1,100,0.386761
1572441052.108695,82214.000,13825,2,EA,1,100,0.386944
1572441052.175706,82266.500,13844,2,EA,1,100,0.386777
1572441052.242718,82319.000,13844,2,EA,1,100,0.386495
1572441052.309730,82371.500,13862,2,EA,1,100,0.386932
1572441052.376742,82424.000,13862,2,EA,1,100,0.386600
1572441052.443115,82476.000,13878,2,EA,1,100,0.386827
1572441052.509489,82528.000,13878,2,EA,1,100,0.386821
1572441052.575862,82580.000,13896,2,EA,1,100,0.386475
1572441052.642236,82632.000,13896,2,EA,1,100,0.386604
1572441052.708609,82684.000,13917,3,EA,1,100,0.386491
1572441052.774983,82736.000,13917,3,EA,1,100,0.386630
1572441052.841357,82788.000,13917,3,EA,1,100,0.386745
1572441052.907730,82840.000,13937,2,EA,1,100,0.386725
1572441052.974104,82892.000,13937,2,EA,1,100,0.386926
1572441053.040477,82944.000,13955,2,EA,1,100,0.386745
1572441053.106851,82996.000,13955,2,EA,1,100,0.386717
1572441053.173863,83048.500,13974,2,EA,1,100,0.386386
1572441053.240874,83101.000,13974,2,EA,1,100,0.386600
1572441053.308524,83154.000,13992,2,EA,1,100,0.386777
1572441053.376174,83207.000,13992,2,EA,1,100,0.386548
1572441053.443186,83259.500,14010,2,EA,1,100,0.386880
1572441053.510198,83312.000,14010,2,EA,1,100,0.386568
1572441053.576571,83364.000,14028,2,EA,1,100,0.386544
1572441053.642945,83416.000,14028,2,EA,1,100,0.386296
1572441053.709957,83468.500,14046,2,EA,1,100,0.386501
1572441053.776968,83521.000,14046,2,EA,1,100,0.386821
1572441053.842066,83572.000,14064,1,EA,1,100,0.386592
1572441053.909077,83624.500,14082,2,EA,1,100,0.386469
1572441053.976089,83677.000,14082,2,EA,1,100,0.386423
1572441054.041825,83728.500,14100,2,EA,1,100,0.386654
1572441054.107560,83780.000,14100,2,EA,1,100,0.386584
1572441054.175210,83833.000,14118,2,EA,1,100,0.386505
1572441054.242860,83886.000,14118,2,EA,1,100,0.386467
1572441054.309872,83938.500,14136,2,EA,1,100,0.387005
1572441054.376884,83991.000,14136,2,EA,1,100,0.386511
1572441054.443895,84043.500,14154,2,EA,1,100,0.386600
1572441054.510907,84096.000,14154,2,EA,1,100,0.386644
1572441054.577281,84148.000,14172,2,EA,1,100,0.386759
1572441054.643654,84200.000,14172,2,EA,1,100,0.386572
1572441054.710028,84252.000,14190,2,EA,1,100,0.386354
1572441054.776401,84304.000,14190,2,EA,1,100,0.386654
1572441054.841499,84355.000,14208,2,EA,1,100,0.386535
1572441054.906596,84406.000,14208,2,EA,1,100,0.386709
1572441054.972969,84458.000,14226,2,EA,1,100,0.386715
1572441055.039343,84510.000,14226,2,EA,1,100,0.386270
1572441055.105716,84562.000,14244,2,EA,1,100,0.386560
1572441055.172090,84614.000,14244,2,EA,1,100,0.386475
1572441055.238464,84666.000,14261,2,EA,1,100,0.386608
1572441055.304837,84718.000,14261,2,EA,1,100,0.386767
1572441055.371849,84770.500,14279,2,EA,1,100,0.386664
1572441055.438861,84823.000,14279,2,EA,1,100,0.386715
1572441055.505872,84875.500,14297,2,EA,1,100,0.386795
1572441055.572884,84928.000,14297,2,EA,1,100,0.386433
1572441055.637981,84979.000,14315,2,EA,1,100,0.386749
1572441055.703079,85030.000,14315,2,EA,1,100,0.386670
1572441055.770090,85082.500,14333,2,EA,1,100,0.386727
1572441055.837102,85135.000,14333,2,EA,1,100,0.386670
1572441055.902199,85186.000,14351,1,EA,1,100,0.386680
1572441055.969211,85238.500,14369,2,EA,1,100,0.386636
1572441056.036223,85291.000,14369,2,EA,1,100,0.386570
1572441056.103235,85343.500,14388,2,EA,1,100,0.386580
1572441056.170246,85396.000,14388,2,EA,1,100,0.386680
1572441056.237258,85448.500,14406,2,EA,1,100,0.386840
1572441056.304270,85501.000,14406,2,EA,1,100,0.386678
1572441056.371282,85553.500,14424,2,EA,1,100,0.386793
1572441056.438293,85606.000,14424,2,EA,1,100,0.386620
1572441056.505944,85659.000,14442,2,EA,1,100,0.386721
1572441056.573593,85712.000,14442,2,EA,1,100,0.386612
1572441056.639967,85764.000,14460,2,EA,1,100,0.386827
1572441056.706341,85816.000,14460,2,EA,1,100,0.386723
1572441056.772714,85868.000,14478,2,EA,1,100,0.386576
1572441056.839088,85920.000,14478,2,EA,1,100,0.386773
1572441056.906100,85972.500,14496,2,EA,1,100,0.386759
1572441056.973111,86025.000,14496,2,EA,1,100,0.387218
1572441057.038846,86076.500,14514,2,EA,1,100,0.386612
1572441057.104582,86128.000,14514,2,EA,1,100,0.386550
1572441057.171594,86180.500,14533,2,EA,1,100,0.386616
1572441057.238605,86233.000,14533,2,EA,1,100,0.386642
1572441057.305617,86285.500,14551,2,EA,1,100,0.386586
1572441057.372629,86338.000,14551,2,EA,1,100,0.386763
1572441057.440279,86391.000,14569,2,EA,1,100,0.386664
1572441057.507929,86444.000,14569,2,EA,1,100,0.386576
1572441057.574941,86496.500,14587,2,EA,1,100,0.386384
1572441057.641953,86549.000,14587,2,EA,1,100,0.386499
1572441057.709603,86602.000,14605,1,EA,1,100,0.386435
1572441057.775338,86653.500,14623,2,EA,1,100,0.386640
1572441057.841073,86705.000,14623,2,EA,1,100,0.386588
1572441057.907447,86757.000,14641,2,EA,1,100,0.386515
1572441057.973820,86809.000,14641,2,EA,1,100,0.386783
1572441058.039556,86860.500,14659,2,EA,1,100,0.386620
1572441058.105291,86912.000,14659,2,EA,1,100,0.386733
1572441058.171026,86963.500,14677,2,EA,1,100,0.386660
1572441058.236762,87015.000,14677,2,EA,1,100,0.386785
1572441058.303774,87067.500,14695,2,EA,1,100,0.386852
1572441058.370785,87120.000,14695,2,EA,1,100,0.386614
1572441058.437797,87172.500,14713,2,EA,1,100,0.386449
1572441058.504809,87225.000,14713,2,EA,1,100,0.386280
1572441058.571182,87277.000,14731,2,EA,1,100,0.386608
1572441058.637556,87329.000,14731,2,EA,1,100,0.386574
1572441058.704568,87381.500,14749,2,EA,1,100,0.386749
1572441058.771580,87434.000,14749,2,EA,1,100,0.386487
1572441058.838592,87486.500,14767,2,EA,1,100,0.386457
1572441058.905603,87539.000,14767,2,EA,1,100,0.386852
1572441058.971339,87590.500,14785,2,EA,1,100,0.386693
1572441059.037074,87642.000,14785,2,EA,1,100,0.386554
1572441059.103447,87694.000,14803,2,EA,1,100,0.386608
1572441059.169821,87746.000,14803,2,EA,1,100,0.386550
1572441059.237046,87798.667,14823,3,EA,1,100,0.386765
1572441059.304270,87851.333,14823,3,EA,1,100,0.386632
1572441059.371495,87904.000,14823,3,EA,1,100,0.386819
1572441059.439145,87957.000,14842,2,EA,1,100,0.386483
1572441059.506795,88010.000,14842,2,EA,1,100,0.386662
1572441059.573168,88062.000,14861,2,EA,1,100,0.386644
1572441059.639542,88114.000,14861,2,EA,1,100,0.386600
1572441059.707192,88167.000,14879,2,EA,1,100,0.386570
1572441059.774842,88220.000,14879,2,EA,1,100,0.386767
1572441059.841215,88272.000,14897,2,EA,1,100,0.386576
1572441059.907589,88324.000,14897,2,EA,1,100,0.386827
1572441059.973324,88375.500,14915,2,EA,1,100,0.386507
1572441060.039060,88427.000,14915,2,EA,1,100,0.386586
1572441060.106071,88479.500,14933,2,EA,1,100,0.386521
1572441060.173083,88532.000,14933,2,EA,1,100,0.386529
1572441060.239457,88584.000,14952,2,EA,1,100,0.386687
1572441060.305830,88636.000,14952,2,EA,1,100,0.386505
1572441060.372842,88688.500,14970,2,EA,1,100,0.386761
1572441060.439854,88741.000,14970,2,EA,1,100,0.386592
1572441060.507504,88794.000,14988,1,EA,1,100,0.386421
1572441060.574516,88846.500,15006,2,EA,1,100,0.386713
1572441060.641527,88899.000,15006,2,EA,1,100,0.386523
1572441060.708539,88951.500,15023,2,EA,1,100,0.386876
1572441060.775551,89004.000,15023,2,EA,1,100,0.386638
1572441060.841924,89056.000,15041,2,EA,1,100,0.386646
1572441060.908298,89108.000,15041,2,EA,1,100,0.386674
1572441060.974033,89159.500,15059,2,EA,1,100,0.386564
1572441061.039769,89211.000,15059,2,EA,1,100,0.386582
1572441061.106142,89263.000,15077,2,EA,1,100,0.386439
1572441061.172516,89315.000,15077,2,EA,1,100,0.386606
1572441061.238251,89366.500,15096,2,EA,1,100,0.386608
1572441061.303987,89418.000,15096,2,EA,1,100,0.386493
1572441061.370360,89470.000,15114,2,EA,1,100,0.386638
1572441061.436734,89522.000,15114,2,EA,1,100,0.386546
1572441061.503746,89574.500,15132,2,EA,1,100,0.386342
1572441061.570757,89627.000,15132,2,EA,1,100,0.386672
1572441061.637769,89679.500,15150,2,EA,1,100,0.386558
1572441061.704781,89732.000,15150,2,EA,1,100,0.386751
1572441061.771154,89784.000,15168,2,EA,1,100,0.386672
1572441061.837528,89836.000,15168,2,EA,1,100,0.386900
1572441061.903902,89888.000,15184,2,EA,1,100,0.386572
1572441061.970275,89940.000,15184,2,EA,1,100,0.386578
1572441062.037287,89992.500,15202,2,EA,1,100,0.386799
1572441062.104299,90045.000,15202,2,EA,1,100,0.386624
1572441062.170034,90096.500,15220,2,EA,1,100,0.386614
1572441062.235770,90148.000,15220,2,EA,1,100,0.386628
1572441062.302143,90200.000,15239,2,EA,1,100,0.386715
1572441062.368517,90252.000,15239,2,EA,1,100,0.386638
1572441062.436167,90305.000,15257,2,EA,1,100,0.386477
1572441062.503817,90358.000,15257,2,EA,1,100,0.386477
1572441062.570190,90410.000,15275,1,EA,1,100,0.386648
1572441062.637840,90463.000,15293,2,EA,1,100,0.386717
1572441062.705490,90516.000,15293,2,EA,1,100,0.386868
1572441062.771864,90568.000,15311,2,EA,1,100,0.386479
1572441062.838237,90620.000,15311,2,EA,1,100,0.386866
1572441062.905249,90672.500,15329,2,EA,1,100,0.386767
1572441062.972261,90725.000,15329,2,EA,1,100,0.386342
1572441063.038634,90777.000,15347,2,EA,1,100,0.386650
1572441063.105008,90829.000,15347,2,EA,1,100,0.386475
1572441063.170743,90880.500,15365,2,EA,1,100,0.386525
1572441063.236479,90932.000,15365,2,EA,1,100,0.386584
1572441063.303490,90984.500,15384,2,EA,1,100,0.386638
1572441063.370502,91037.000,15384,2,EA,1,100,0.386648
1572441063.437514,91089.500,15402,2,EA,1,100,0.386548
1572441063.504526,91142.000,15402,2,EA,1,100,0.386594
1572441063.571537,91194.500,15420,2,EA,1,100,0.386491
1572441063.638549,91247.000,15420,2,EA,1,100,0.386819
1572441063.705561,91299.500,15438,2,EA,1,100,0.386533
1572441063.772573,91352.000,15438,2,EA,1,100,0.386594
1572441063.840223,91405.000,15456,2,EA,1,100,0.386695
1572441063.907873,91458.000,15456,2,EA,1,100,0.386558
1572441063.974247,91510.000,15474,2,EA,1,100,0.386616
1572441064.040620,91562.000,15474,2,EA,1,100,0.386477
1572441064.106993,91614.000,15492,2,EA,1,100,0.386771
1572441064.173367,91666.000,15492,2,EA,1,100,0.386648
1572441064.239103,91717.500,15510,2,EA,1,100,0.386701
1572441064.304838,91769.000,15510,2,EA,1,100,0.386618
1572441064.370573,91820.500,15529,2,EA,1,100,0.386890
1572441064.436309,91872.000,15529,2,EA,1,100,0.386801
1572441064.502682,91924.000,15547,1,EA,1,100,0.386600
1572441064.569056,91976.000,15565,2,EA,1,100,0.386977
1572441064.635429,92028.000,15565,2,EA,1,100,0.386540
1572441064.702441,92080.500,15583,2,EA,1,100,0.386870
1572441064.769453,92133.000,15583,2,EA,1,100,0.386741
1572441064.836465,92185.500,15600,2,EA,1,100,0.386779
1572441064.903476,92238.000,15600,2,EA,1,100,0.386942
1572441064.969850,92290.000,15618,2,EA,1,100,0.386896
1572441065.036223,92342.000,15618,2,EA,1,100,0.387055
1572441065.102597,92394.000,15636,2,EA,1,100,0.386870
1572441065.168971,92446.000,15636,2,EA,1,100,0.387009
1572441065.235982,92498.500,15654,2,EA,1,100,0.387204
1572441065.302994,92551.000,15654,2,EA,1,100,0.386872
1572441065.368730,92602.500,15673,2,EA,1,100,0.386894
1572441065.434465,92654.000,15673,2,EA,1,100,0.387385
1572441065.500839,92706.000,15691,2,EA,1,100,0.386995
1572441065.567212,92758.000,15691,2,EA,1,100,0.387226
1572441065.634862,92811.000,15709,2,EA,1,100,0.386950
1572441065.702512,92864.000,15709,2,EA,1,100,0.386886
1572441065.769737,92916.667,15730,3,EA,1,100,0.386975
1572441065.836961,92969.333,15730,3,EA,1,100,0.386918
1572441065.904186,93022.000,15730,3,EA,1,100,0.387009
1572441065.970559,93074.000,15750,2,EA,1,100,0.386827
1572441066.036933,93126.000,15750,2,EA,1,100,0.387073
1572441066.103945,93178.500,15768,2,EA,1,100,0.387089
1572441066.170956,93231.000,15768,2,EA,1,100,0.387029
1572441066.237330,93283.000,15786,2,EA,1,100,0.387178
1572441066.303703,93335.000,15786,2,EA,1,100,0.387067
1572441066.369439,93386.500,15805,2,EA,1,100,0.387033
1572441066.435174,93438.000,15805,2,EA,1,100,0.387202
1572441066.502186,93490.500,15823,2,EA,1,100,0.386916
1572441066.569198,93543.000,15823,2,EA,1,100,0.387269
1572441066.636848,93596.000,15841,2,EA,1,100,0.387208
1572441066.704498,93649.000,15841,2,EA,1,100,0.387234
1572441066.771509,93701.500,15859,2,EA,1,100,0.387103
1572441066.838521,93754.000,15859,2,EA,1,100,0.387027
1572441066.905533,93806.500,15877,2,EA,1,100,0.387003
1572441066.972545,93859.000,15877,2,EA,1,100,0.387317
1572441067.039557,93911.500,15895,2,EA,1,100,0.386985
1572441067.106568,93964.000,15895,2,EA,1,100,0.387007
1572441067.172304,94015.500,15913,2,EA,1,100,0.387124
1572441067.238039,94067.000,15913,2,EA,1,100,0.387081
1572441067.304413,94119.000,15931,2,EA,1,100,0.387184
1572441067.370786,94171.000,15931,2,EA,1,100,0.386878
1572441067.435883,94222.000,15950,1,EA,1,100,0.387013
1572441067.502257,94274.000,15968,2,EA,1,100,0.387087
1572441067.568630,94326.000,15968,2,EA,1,100,0.386848
1572441067.635642,94378.500,15986,2,EA,1,100,0.386936
1572441067.702654,94431.000,15986,2,EA,1,100,0.387174
1572441067.769028,94483.000,16003,2,EA,1,100,0.386898
1572441067.835401,94535.000,16003,2,EA,1,100,0.386985
1572441067.902413,94587.500,16021,2,EA,1,100,0.387091
1572441067.969425,94640.000,16021,2,EA,1,100,0.386968
1572441068.036437,94692.500,16039,2,EA,1,100,0.386910
1572441068.103448,94745.000,16039,2,EA,1,100,0.387091
1572441068.168545,94796.000,16057,2,EA,1,100,0.387150
1572441068.233643,94847.000,16057,2,EA,1,100,0.386997
1572441068.300016,94899.000,16075,2,EA,1,100,0.387049
1572441068.366390,94951.000,16075,2,EA,1,100,0.387105
1572441068.433402,95003.500,16094,2,EA,1,100,0.386924
1572441068.500413,95056.000,16094,2,EA,1,100,0.387029
1572441068.566149,95107.500,16112,2,EA,1,100,0.386876
1572441068.631884,95159.000,16112,2,EA,1,100,0.387063
1572441068.699534,95212.000,16130,2,EA,1,100,0.386888
1572441068.767184,95265.000,16130,2,EA,1,100,0.386832
1572441068.834834,95318.000,16146,2,EA,1,100,0.387144
1572441068.902484,95371.000,16146,2,EA,1,100,0.387073
1572441068.968858,95423.000,16164,2,EA,1,100,0.387017
1572441069.035231,95475.000,16164,2,EA,1,100,0.387134
1572441069.102243,95527.500,16182,2,EA,1,100,0.387140
1572441069.169255,95580.000,16182,2,EA,1,100,0.387279
1572441069.235628,95632.000,16200,2,EA,1,100,0.386934
1572441069.302002,95684.000,16200,2,EA,1,100,0.387150
1572441069.367737,95735.500,16218,2,EA,1,100,0.387067
1572441069.433472,95787.000,16218,2,EA,1,100,0.386999
1572441069.501122,95840.000,16237,1,EA,1,100,0.386958
1572441069.566858,95891.500,16255,2,EA,1,100,0.387242
1572441069.632593,95943.000,16255,2,EA,1,100,0.387033
1572441069.699605,95995.500,16273,2,EA,1,100,0.387228
1572441069.766617,96048.000,16273,2,EA,1,100,0.386940
1572441069.834267,96101.000,16291,2,EA,1,100,0.387035
1572441069.901917,96154.000,16291,2,EA,1,100,0.386902
1572441069.968929,96206.500,16309,2,EA,1,100,0.386759
1572441070.035940,96259.000,16309,2,EA,1,100,0.387047
1572441070.102952,96311.500,16327,2,EA,1,100,0.387124
1572441070.169964,96364.000,16327,2,EA,1,100,0.387152
1572441070.236337,96416.000,16345,2,EA,1,100,0.387136
1572441070.302711,96468.000,16345,2,EA,1,100,0.387107
1572441070.368446,96519.500,16364,2,EA,1,100,0.387051
1572441070.434182,96571.000,16364,2,EA,1,100,0.387109
1572441070.500555,96623.000,16382,2,EA,1,100,0.386848
1572441070.566929,96675.000,16382,2,EA,1,100,0.386715
1572441070.632664,96726.500,16400,2,EA,1,100,0.386934
1572441070.698400,96778.000,16400,2,EA,1,100,0.386950
1572441070.764773,96830.000,16418,2,EA,1,100,0.387166
1572441070.831147,96882.000,16418,2,EA,1,100,0.387015
1572441070.898159,96934.500,16436,2,EA,1,100,0.386787
1572441070.965170,96987.000,16436,2,EA,1,100,0.387069
1572441071.032182,97039.500,16454,2,EA,1,100,0.386767
1572441071.099194,97092.000,16454,2,EA,1,100,0.387023
1572441071.165567,97144.000,16472,2,EA,1,100,0.386991
1572441071.231941,97196.000,16472,2,EA,1,100,0.386968
1572441071.298315,97248.000,16490,2,EA,1,100,0.387142
1572441071.364688,97300.000,16490,2,EA,1,100,0.386874
1572441071.431062,97352.000,16509,2,EA,1,100,0.387003
1572441071.497435,97404.000,16509,2,EA,1,100,0.387075
1572441071.562532,97455.000,16527,1,EA,1,100,0.386924
1572441071.630182,97508.000,16545,2,EA,1,100,0.386962
1572441071.697832,97561.000,16545,2,EA,1,100,0.387033
1572441071.763568,97612.500,16563,2,EA,1,100,0.386940
1572441071.829303,97664.000,16563,2,EA,1,100,0.387238
1572441071.896953,97717.000,16580,2,EA,1,100,0.387041
1572441071.964603,97770.000,16580,2,EA,1,100,0.386725
1572441072.032253,97823.000,16598,2,EA,1,100,0.386914
1572441072.099903,97876.000,16598,2,EA,1,100,0.386858
1572441072.166277,97928.000,16616,2,EA,1,100,0.386950
1572441072.232650,97980.000,16616,2,EA,1,100,0.387200
1572441072.299449,98032.333,16637,3,EA,1,100,0.387001
1572441072.366248,98084.667,16637,3,EA,1,100,0.387007
1572441072.433047,98137.000,16637,3,EA,1,100,0.387124
1572441072.500059,98189.500,16658,2,EA,1,100,0.387039
1572441072.567071,98242.000,16658,2,EA,1,100,0.387103
1572441072.633444,98294.000,16676,2,EA,1,100,0.386944
1572441072.699818,98346.000,16676,2,EA,1,100,0.386973
1572441072.766191,98398.000,16694,2,EA,1,100,0.387079
1572441072.832565,98450.000,16694,2,EA,1,100,0.387109
1572441072.899577,98502.500,16712,2,EA,1,100,0.386995
1572441072.966589,98555.000,16712,2,EA,1,100,0.386705
1572441073.034239,98608.000,16730,2,EA,1,100,0.386920
1572441073.101889,98661.000,16730,2,EA,1,100,0.386854
1572441073.168900,98713.500,16748,2,EA,1,100,0.386983
1572441073.235912,98766.000,16748,2,EA,1,100,0.387063
1572441073.302924,98818.500,16766,2,EA,1,100,0.386894
1572441073.369936,98871.000,16766,2,EA,1,100,0.387138
1572441073.435671,98922.500,16785,2,EA,1,100,0.386872
1572441073.501406,98974.000,16785,2,EA,1,100,0.386930
1572441073.567142,99025.500,16803,2,EA,1,100,0.386797
1572441073.632877,99077.000,16803,2,EA,1,100,0.386975
1572441073.699251,99129.000,16821,2,EA,1,100,0.387057
1572441073.765624,99181.000,16821,2,EA,1,100,0.387198
1572441073.831998,99233.000,16839,2,EA,1,100,0.386695
1572441073.898371,99285.000,16839,2,EA,1,100,0.386787
1572441073.964745,99337.000,16857,2,EA,1,100,0.386920
1572441074.031119,99389.000,16857,2,EA,1,100,0.386946
1572441074.098130,99441.500,16875,2,EA,1,100,0.386844
1572441074.165142,99494.000,16875,2,EA,1,100,0.386868
1572441074.231516,99546.000,16893,1,EA,1,100,0.386616
1572441074.298527,99598.500,16911,2,EA,1,100,0.386773
1572441074.365539,99651.000,16911,2,EA,1,100,0.387107
1572441074.432551,99703.500,16930,2,EA,1,100,0.386999
1572441074.499563,99756.000,16930,2,EA,1,100,0.386952
1572441074.565298,99807.500,16947,2,EA,1,100,0.387007
1572441074.631034,99859.000,16947,2,EA,1,100,0.386827
1572441074.697407,99911.000,16965,2,EA,1,100,0.386872
1572441074.763781,99963.000,16965,2,EA,1,100,0.386850
1572441074.831431,100016.000,16983,2,EA,1,100,0.387049
1572441074.899081,100069.000,16983,2,EA,1,100,0.387122
1572441074.965454,100121.000,17001,2,EA,1,100,0.386775
1572441075.031828,100173.000,17001,2,EA,1,100,0.386898
1572441075.099478,100226.000,17019,2,EA,1,100,0.386968
1572441075.167128,100279.000,17019,2,EA,1,100,0.386813
1572441075.234778,100332.000,17037,2,EA,1,100,0.386876
1572441075.302428,100385.000,17037,2,EA,1,100,0.386860
1572441075.368163,100436.500,17053,2,EA,1,100,0.386803
1572441075.433898,100488.000,17053,2,EA,1,100,0.386906
1572441075.500910,100540.500,17072,2,EA,1,100,0.386914
1572441075.567922,100593.000,17072,2,EA,1,100,0.386942
1572441075.634296,100645.000,17090,2,EA,1,100,0.386888
1572441075.700669,100697.000,17090,2,EA,1,100,0.386751
1572441075.766405,100748.500,17108,2,EA,1,100,0.386626
1572441075.832140,100800.000,17108,2,EA,1,100,0.386832
1572441075.899152,100852.500,17126,2,EA,1,100,0.387005
1572441075.966163,100905.000,17126,2,EA,1,100,0.387103
1572441076.033813,100958.000,17144,1,EA,1,100,0.387085
1572441076.100825,101010.500,17162,2,EA,1,100,0.387381
1572441076.167837,101063.000,17162,2,EA,1,100,0.387142
1572441076.235487,101116.000,17180,2,EA,1,100,0.387017
1572441076.303137,101169.000,17180,2,EA,1,100,0.387035
1572441076.370149,101221.500,17198,2,EA,1,100,0.387063
1572441076.437160,101274.000,17198,2,EA,1,100,0.386830
1572441076.503534,101326.000,17217,2,EA,1,100,0.386922
1572441076.569908,101378.000,17217,2,EA,1,100,0.387144
1572441076.635643,101429.500,17235,2,EA,1,100,0.386844
1572441076.701378,101481.000,17235,2,EA,1,100,0.386544
1572441076.767114,101532.500,17253,2,EA,1,100,0.386731
1572441076.832849,101584.000,17253,2,EA,1,100,0.386914
1572441076.899223,101636.000,17271,2,EA,1,100,0.387095
1572441076.965596,101688.000,17271,2,EA,1,100,0.387013
1572441077.031970,101740.000,17289,2,EA,1,100,0.386854
1572441077.098343,101792.000,17289,2,EA,1,100,0.387101
1572441077.164717,101844.000,17307,2,EA,1,100,0.386876
1572441077.231091,101896.000,17307,2,EA,1,100,0.386898
1572441077.298102,101948.500,17325,2,EA,1,100,0.386999
1572441077.365114,102001.000,17325,2,EA,1,100,0.386866
1572441077.432126,102053.500,17343,2,EA,1,100,0.386852
1572441077.499138,102106.000,17343,2,EA,1,100,0.386703
1572441077.564873,102157.500,17362,2,EA,1,100,0.386807
1572441077.630608,102209.000,17362,2,EA,1,100,0.386781
1572441077.696982,102261.000,17380,2,EA,1,100,0.387043
1572441077.763355,102313.000,17380,2,EA,1,100,0.386854
1572441077.830367,102365.500,17398,2,EA,1,100,0.386840
1572441077.897379,102418.000,17398,2,EA,1,100,0.386906
1572441077.963115,102469.500,17416,2,EA,1,100,0.387033
1572441078.028850,102521.000,17416,2,EA,1,100,0.386664
1572441078.097776,102575.000,17434,1,EA,1,100,0.386876
1572441078.164150,102627.000,17452,2,EA,1,100,0.386926
1572441078.230523,102679.000,17452,2,EA,1,100,0.386952
1572441078.298173,102732.000,17470,2,EA,1,100,0.386729
1572441078.365823,102785.000,17470,2,EA,1,100,0.386960
1572441078.433473,102838.000,17487,2,EA,1,100,0.386717
1572441078.501123,102891.000,17487,2,EA,1,100,0.386745
1572441078.566859,102942.500,17506,2,EA,1,100,0.386960
1572441078.632594,102994.000,17506,2,EA,1,100,0.386975
1572441078.699606,103046.500,17524,2,EA,1,100,0.386850
1572441078.766618,103099.000,17524,2,EA,1,100,0.386582
1572441078.832991,103151.000,17545,3,EA,1,100,0.386799
1572441078.899365,103203.000,17545,3,EA,1,100,0.386912
1572441078.965738,103255.000,17545,3,EA,1,100,0.387013
1572441079.032750,103307.500,17564,2,EA,1,100,0.386725
1572441079.099762,103360.000,17564,2,EA,1,100,0.386896
1572441079.166774,103412.500,17583,2,EA,1,100,0.386936
1572441079.233785,103465.000,17583,2,EA,1,100,0.386958
1572441079.300797,103517.500,17601,2,EA,1,100,0.386977
1572441079.367809,103570.000,17601,2,EA,1,100,0.386960
1572441079.435459,103623.000,17619,2,EA,1,100,0.386852
1572441079.503109,103676.000,17619,2,EA,1,100,0.386644
1572441079.568844,103727.500,17638,2,EA,1,100,0.387089
1572441079.634580,103779.000,17638,2,EA,1,100,0.387019
1572441079.700953,103831.000,17656,2,EA,1,100,0.386896
1572441079.767327,103883.000,17656,2,EA,1,100,0.387027
1572441079.833062,103934.500,17674,2,EA,1,100,0.386866
1572441079.898798,103986.000,17674,2,EA,1,100,0.386914
1572441079.964533,104037.500,17692,2,EA,1,100,0.386892
1572441080.030268,104089.000,17692,2,EA,1,100,0.386914
1572441080.096642,104141.000,17710,2,EA,1,100,0.387216
1572441080.163015,104193.000,17710,2,EA,1,100,0.386975
1572441080.230027,104245.500,17728,2,EA,1,100,0.386970
1572441080.297039,104298.000,17728,2,EA,1,100,0.387089
1572441080.363412,104350.000,17746,2,EA,1,100,0.386668
1572441080.429786,104402.000,17746,2,EA,1,100,0.386787
1572441080.496798,104454.500,17764,2,EA,1,100,0.386854
1572441080.563810,104507.000,17764,2,EA,1,100,0.386713
1572441080.630183,104559.000,17783,2,EA,1,100,0.387142
1572441080.696557,104611.000,17783,2,EA,1,100,0.386989
1572441080.761654,104662.000,17801,2,EA,1,100,0.386771
1572441080.826751,104713.000,17801,2,EA,1,100,0.386922
1572441080.893125,104765.000,17819,2,EA,1,100,0.386924
1572441080.959498,104817.000,17819,2,EA,1,100,0.387045
1572441081.024595,104868.000,17837,1,EA,1,100,0.387130
1572441081.090969,104920.000,17855,2,EA,1,100,0.386960
1572441081.157342,104972.000,17855,2,EA,1,100,0.386894
1572441081.224993,105025.000,17873,2,EA,1,100,0.386785
1572441081.292642,105078.000,17873,2,EA,1,100,0.386715
1572441081.359016,105130.000,17890,2,EA,1,100,0.386757
1572441081.425390,105182.000,17890,2,EA,1,100,0.386749
1572441081.493040,105235.000,17908,2,EA,1,100,0.387003
1572441081.560689,105288.000,17908,2,EA,1,100,0.386769
1572441081.627063,105340.000,17927,2,EA,1,100,0.387023
1572441081.693437,105392.000,17927,2,EA,1,100,0.386912
1572441081.759172,105443.500,17945,2,EA,1,100,0.387045
1572441081.824907,105495.000,17945,2,EA,1,100,0.387105
1572441081.891919,105547.500,17963,2,EA,1,100,0.386977
1572441081.958931,105600.000,17963,2,EA,1,100,0.387069
1572441082.025305,105652.000,17981,2,EA,1,100,0.387039
1572441082.091678,105704.000,17981,2,EA,1,100,0.387077
1572441082.158690,105756.500,17999,2,EA,1,100,0.387188
1572441082.225702,105809.000,17999,2,EA,1,100,0.386872
1572441082.292713,105861.500,18017,2,EA,1,100,0.387206
1572441082.359725,105914.000,18017,2,EA,1,100,0.386960
1572441082.427375,105967.000,18033,2,EA,1,100,0.387071
1572441082.495025,106020.000,18033,2,EA,1,100,0.386942
1572441082.562037,106072.500,18051,2,EA,1,100,0.387116
1572441082.629049,106125.000,18051,2,EA,1,100,0.386966
1572441082.696060,106177.500,18070,2,EA,1,100,0.386811
1572441082.763072,106230.000,18070,2,EA,1,100,0.386743
1572441082.829446,106282.000,18088,2,EA,1,100,0.386886
1572441082.895819,106334.000,18088,2,EA,1,100,0.386993
1572441082.962193,106386.000,18106,1,EA,1,100,0.386672
1572441083.028567,106438.000,18124,2,EA,1,100,0.386578
1572441083.094940,106490.000,18124,2,EA,1,100,0.386614
1572441083.161314,106542.000,18142,2,EA,1,100,0.386366
1572441083.227687,106594.000,18142,2,EA,1,100,0.386636
1572441083.294699,106646.500,18160,2,EA,1,100,0.386483
1572441083.361711,106699.000,18160,2,EA,1,100,0.386660
1572441083.428723,106751.500,18178,2,EA,1,100,0.386368
1572441083.495734,106804.000,18178,2,EA,1,100,0.386294
1572441083.562108,106856.000,18197,2,EA,1,100,0.386423
1572441083.628481,106908.000,18197,2,EA,1,100,0.386276
1572441083.694855,106960.000,18215,2,EA,1,100,0.386334
1572441083.761229,107012.000,18215,2,EA,1,100,0.386537
1572441083.827602,107064.000,18233,2,EA,1,100,0.386487
1572441083.893976,107116.000,18233,2,EA,1,100,0.386451
1572441083.959073,107167.000,18251,2,EA,1,100,0.386626
1572441084.024170,107218.000,18251,2,EA,1,100,0.386541
1572441084.090544,107270.000,18269,2,EA,1,100,0.386443
1572441084.156917,107322.000,18269,2,EA,1,100,0.386469
1572441084.223291,107374.000,18287,2,EA,1,100,0.386628
1572441084.289664,107426.000,18287,2,EA,1,100,0.386501
1572441084.356038,107478.000,18305,2,EA,1,100,0.386578
1572441084.422411,107530.000,18305,2,EA,1,100,0.386409
1572441084.490062,107583.000,18323,2,EA,1,100,0.386618
1572441084.557711,107636.000,18323,2,EA,1,100,0.386590
1572441084.625361,107689.000,18342,2,EA,1,100,0.386576
1572441084.693012,107742.000,18342,2,EA,1,100,0.386650
1572441084.758747,107793.500,18360,2,EA,1,100,0.386660
1572441084.824482,107845.000,18360,2,EA,1,100,0.386616
1572441084.891494,107897.500,18378,2,EA,1,100,0.386616
1572441084.958506,107950.000,18378,2,EA,1,100,0.386495
1572441085.023603,108001.000,18396,1,EA,1,100,0.386469
1572441085.090615,108053.500,18414,2,EA,1,100,0.386568
1572441085.157626,108106.000,18414,2,EA,1,100,0.386399
1572441085.224000,108158.000,18432,2,EA,1,100,0.386644
1572441085.290374,108210.000,18432,2,EA,1,100,0.386646
1572441085.357385,108262.500,18452,4,EA,1,100,0.386926
1572441085.424397,108315.000,18452,4,EA,1,100,0.386813
1572441085.491409,108367.500,18452,4,EA,1,100,0.386495
1572441085.558421,108420.000,18452,4,EA,1,100,0.386584
1572441085.626071,108473.000,18472,2,EA,1,100,0.386682
1572441085.693721,108526.000,18472,2,EA,1,100,0.386678
1572441085.760094,108578.000,18491,1,EA,1,100,0.386689
1572441085.826468,108630.000,18509,2,EA,1,100,0.386548
1572441085.892841,108682.000,18509,2,EA,1,100,0.386699
1572441085.959215,108734.000,18527,2,EA,1,100,0.386417
1572441086.025589,108786.000,18527,2,EA,1,100,0.386678
1572441086.091962,108838.000,18545,2,EA,1,100,0.386443
1572441086.158336,108890.000,18545,2,EA,1,100,0.386491
1572441086.224709,108942.000,18563,2,EA,1,100,0.386721
1572441086.291083,108994.000,18563,2,EA,1,100,0.386399
1572441086.357456,109046.000,18581,2,EA,1,100,0.386499
1572441086.423830,109098.000,18581,2,EA,1,100,0.386691
1572441086.490842,109150.500,18599,2,EA,1,100,0.386745
1572441086.557853,109203.000,18599,2,EA,1,100,0.386562
1572441086.624865,109255.500,18618,2,EA,1,100,0.386713
1572441086.691877,109308.000,18618,2,EA,1,100,0.386556
1572441086.758250,109360.000,18636,2,EA,1,100,0.386606
1572441086.824624,109412.000,18636,2,EA,1,100,0.386763
1572441086.890998,109464.000,18654,2,EA,1,100,0.386670
1572441086.957371,109516.000,18654,2,EA,1,100,0.386765
1572441087.023745,109568.000,18672,2,EA,1,100,0.386447
1572441087.090118,109620.000,18672,2,EA,1,100,0.386457
1572441087.155216,109671.000,18690,2,EA,1,100,0.386592
1572441087.220313,109722.000,18690,2,EA,1,100,0.386568
1572441087.286686,109774.000,18708,2,EA,1,100,0.386723
1572441087.353060,109826.000,18708,2,EA,1,100,0.386660
1572441087.420072,109878.500,18726,2,EA,1,100,0.386759
1572441087.487083,109931.000,18726,2,EA,1,100,0.386896
1572441087.553457,109983.000,18744,2,EA,1,100,0.386765
1572441087.619831,110035.000,18744,2,EA,1,100,0.386743
1572441087.687480,110088.000,18763,2,EA,1,100,0.386711
1572441087.755131,110141.000,18763,2,EA,1,100,0.386890
1572441087.821504,110193.000,18781,1,EA,1,100,0.386900
1572441087.888516,110245.500,18799,2,EA,1,100,0.386618
1572441087.955528,110298.000,18799,2,EA,1,100,0.386735
1572441088.021901,110350.000,18817,2,EA,1,100,0.386952
1572441088.088275,110402.000,18817,2,EA,1,100,0.386745
1572441088.154010,110453.500,18834,2,EA,1,100,0.386739
1572441088.219746,110505.000,18834,2,EA,1,100,0.386799
1572441088.286757,110557.500,18852,2,EA,1,100,0.386618
1572441088.353769,110610.000,18852,2,EA,1,100,0.386658
1572441088.420143,110662.000,18870,2,EA,1,100,0.386793
1572441088.486516,110714.000,18870,2,EA,1,100,0.386817
1572441088.553528,110766.500,18888,2,EA,1,100,0.386751
1572441088.620540,110819.000,18888,2,EA,1,100,0.386759
1572441088.687551,110871.500,18907,2,EA,1,100,0.386785
1572441088.754563,110924.000,18907,2,EA,1,100,0.386729
1572441088.822213,110977.000,18925,2,EA,1,100,0.386767
1572441088.889863,111030.000,18925,2,EA,1,100,0.386912
1572441088.956875,111082.500,18943,2,EA,1,100,0.386850
1572441089.023887,111135.000,18943,2,EA,1,100,0.386793
1572441089.090261,111187.000,18960,2,EA,1,100,0.386801
1572441089.156634,111239.000,18960,2,EA,1,100,0.386745
1572441089.223007,111291.000,18977,2,EA,1,100,0.386824
1572441089.289381,111343.000,18977,2,EA,1,100,0.386717
1572441089.355755,111395.000,18995,2,EA,1,100,0.386737
1572441089.422128,111447.000,18995,2,EA,1,100,0.386751
1572441089.488502,111499.000,19013,2,EA,1,100,0.386624
1572441089.554875,111551.000,19013,2,EA,1,100,0.386950
1572441089.621887,111603.500,19031,2,EA,1,100,0.387021
1572441089.688899,111656.000,19031,2,EA,1,100,0.386719
1572441089.755273,111708.000,19050,1,EA,1,100,0.387035
1572441089.822284,111760.500,19068,2,EA,1,100,0.386872
1572441089.889296,111813.000,19068,2,EA,1,100,0.386646
1572441089.955670,111865.000,19086,2,EA,1,100,0.386834
1572441090.022043,111917.000,19086,2,EA,1,100,0.386940
1572441090.088417,111969.000,19104,2,EA,1,100,0.386773
1572441090.154790,112021.000,19104,2,EA,1,100,0.386787
1572441090.221164,112073.000,19122,2,EA,1,100,0.386719
1572441090.287538,112125.000,19122,2,EA,1,100,0.386781
1572441090.352635,112176.000,19140,2,EA,1,100,0.386916
1572441090.417732,112227.000,19140,2,EA,1,100,0.386544
1572441090.484744,112279.500,19158,2,EA,1,100,0.386938
1572441090.551755,112332.000,19158,2,EA,1,100,0.386386
1572441090.618767,112384.500,19176,2,EA,1,100,0.386628
1572441090.685779,112437.000,19176,2,EA,1,100,0.386660
1572441090.752152,112489.000,19195,2,EA,1,100,0.386751
1572441090.818526,112541.000,19195,2,EA,1,100,0.386495
1572441090.885538,112593.500,19213,2,EA,1,100,0.386548
1572441090.952550,112646.000,19213,2,EA,1,100,0.386775
1572441091.018923,112698.000,19231,2,EA,1,100,0.386803
1572441091.085297,112750.000,19231,2,EA,1,100,0.386908
1572441091.151032,112801.500,19249,2,EA,1,100,0.386844
1572441091.216768,112853.000,19249,2,EA,1,100,0.386862
1572441091.283779,112905.500,19267,2,EA,1,100,0.386554
1572441091.350791,112958.000,19267,2,EA,1,100,0.386773
1572441091.417165,113010.000,19285,2,EA,1,100,0.386626
1572441091.483538,113062.000,19285,2,EA,1,100,0.386983
1572441091.550550,113114.500,19303,2,EA,1,100,0.386848
1572441091.617562,113167.000,19303,2,EA,1,100,0.386753
1572441091.684573,113219.500,19321,2,EA,1,100,0.386797
1572441091.751585,113272.000,19321,2,EA,1,100,0.386870
1572441091.819235,113325.000,19340,1,EA,1,100,0.386795
1572441091.886247,113377.500,19361,4,EA,1,100,0.386620
1572441091.953259,113430.000,19361,4,EA,1,100,0.386743
1572441092.020271,113482.500,19361,4,EA,1,100,0.386799
1572441092.087282,113535.000,19361,4,EA,1,100,0.386753
1572441092.153656,113587.000,19381,2,EA,1,100,0.386968
1572441092.220030,113639.000,19381,2,EA,1,100,0.386697
1572441092.287041,113691.500,19399,2,EA,1,100,0.386914
1572441092.354053,113744.000,19399,2,EA,1,100,0.386773
1572441092.420427,113796.000,19417,1,EA,1,100,0.386838
1572441092.487438,113848.500,19435,2,EA,1,100,0.386844
1572441092.554450,113901.000,19435,2,EA,1,100,0.386717
1572441092.621462,113953.500,19453,2,EA,1,100,0.386765
1572441092.688474,114006.000,19453,2,EA,1,100,0.386741
1572441092.754847,114058.000,19472,2,EA,1,100,0.386678
1572441092.821221,114110.000,19472,2,EA,1,100,0.386989
1572441092.888233,114162.500,19490,2,EA,1,100,0.386842
1572441092.955245,114215.000,19490,2,EA,1,100,0.386789
1572441093.022256,114267.500,19508,2,EA,1,100,0.386848
1572441093.089268,114320.000,19508,2,EA,1,100,0.386821
1572441093.154365,114371.000,19526,2,EA,1,100,0.386713
1572441093.219462,114422.000,19526,2,EA,1,100,0.386676
1572441093.285836,114474.000,19544,2,EA,1,100,0.386737
1572441093.352209,114526.000,19544,2,EA,1,100,0.386701
1572441093.418583,114578.000,19562,2,EA,1,100,0.386693
1572441093.484957,114630.000,19562,2,EA,1,100,0.386636
1572441093.550054,114681.000,19580,2,EA,1,100,0.386894
1572441093.615151,114732.000,19580,2,EA,1,100,0.386813
1572441093.682163,114784.500,19598,2,EA,1,100,0.386779
1572441093.749174,114837.000,19598,2,EA,1,100,0.386856
1572441093.816186,114889.500,19617,2,EA,1,100,0.386674
1572441093.883198,114942.000,19617,2,EA,1,100,0.386773
1572441093.949572,114994.000,19635,2,EA,1,100,0.386735
1572441094.015945,115046.000,19635,2,EA,1,100,0.386727
1572441094.082319,115098.000,19653,2,EA,1,100,0.386838
1572441094.148692,115150.000,19653,2,EA,1,100,0.386654
1572441094.215066,115202.000,19671,2,EA,1,100,0.386785
1572441094.281439,115254.000,19671,2,EA,1,100,0.386747
1572441094.347175,115305.500,19689,2,EA,1,100,0.386556
1572441094.412910,115357.000,19689,2,EA,1,100,0.386695
1572441094.479922,115409.500,19707,2,EA,1,100,0.386640
1572441094.546934,115462.000,19707,2,EA,1,100,0.386685
1572441094.613307,115514.000,19725,1,EA,1,100,0.386916
1572441094.680319,115566.500,19743,2,EA,1,100,0.386729
1572441094.747331,115619.000,19743,2,EA,1,100,0.386558
1572441094.814981,115672.000,19762,2,EA,1,100,0.386503
1572441094.882631,115725.000,19762,2,EA,1,100,0.386747
1572441094.949643,115777.500,19779,2,EA,1,100,0.386715
1572441095.016654,115830.000,19779,2,EA,1,100,0.386819
1572441095.083666,115882.500,19797,2,EA,1,100,0.386731
1572441095.150678,115935.000,19797,2,EA,1,100,0.386407
1572441095.218328,115988.000,19815,2,EA,1,100,0.386626
1572441095.285978,116041.000,19815,2,EA,1,100,0.386844
1572441095.352351,116093.000,19833,2,EA,1,100,0.386785
1572441095.418725,116145.000,19833,2,EA,1,100,0.386602
1572441095.485737,116197.500,19851,2,EA,1,100,0.386560
1572441095.552748,116250.000,19851,2,EA,1,100,0.386531
1572441095.619760,116302.500,19869,2,EA,1,100,0.386731
1572441095.686772,116355.000,19869,2,EA,1,100,0.386793
1572441095.753146,116407.000,19885,2,EA,1,100,0.386598
1572441095.819519,116459.000,19885,2,EA,1,100,0.386771
1572441095.886531,116511.500,19904,2,EA,1,100,0.386310
1572441095.953543,116564.000,19904,2,EA,1,100,0.386735
1572441096.020555,116616.500,19922,2,EA,1,100,0.386499
1572441096.087566,116669.000,19922,2,EA,1,100,0.386948
1572441096.153940,116721.000,19940,2,EA,1,100,0.386310
1572441096.220314,116773.000,19940,2,EA,1,100,0.386527
1572441096.286687,116825.000,19958,2,EA,1,100,0.386664
1572441096.353061,116877.000,19958,2,EA,1,100,0.386771
1572441096.418158,116928.000,19976,1,EA,1,100,0.386795
1572441096.484531,116980.000,19994,2,EA,1,100,0.386749
1572441096.550905,117032.000,19994,2,EA,1,100,0.386864
1572441096.617279,117084.000,20012,2,EA,1,100,0.386715
1572441096.683652,117136.000,20012,2,EA,1,100,0.386739
1572441096.749388,117187.500,20030,2,EA,1,100,0.386511
1572441096.815123,117239.000,20030,2,EA,1,100,0.386652
1572441096.882134,117291.500,20049,2,EA,1,100,0.386622
1572441096.949146,117344.000,20049,2,EA,1,100,0.386578
1572441097.016158,117396.500,20067,2,EA,1,100,0.386552
1572441097.083170,117449.000,20067,2,EA,1,100,0.386781
1572441097.149544,117501.000,20085,2,EA,1,100,0.386703
1572441097.215917,117553.000,20085,2,EA,1,100,0.386735
1572441097.282929,117605.500,20103,2,EA,1,100,0.386594
1572441097.349941,117658.000,20103,2,EA,1,100,0.386676
1572441097.416314,117710.000,20121,2,EA,1,100,0.386429
1572441097.482688,117762.000,20121,2,EA,1,100,0.386521
1572441097.548423,117813.500,20139,2,EA,1,100,0.386435
1572441097.614158,117865.000,20139,2,EA,1,100,0.386773
1572441097.681170,117917.500,20157,2,EA,1,100,0.386396
1572441097.748182,117970.000,20157,2,EA,1,100,0.386614
1572441097.815194,118022.500,20176,2,EA,1,100,0.386380
1572441097.882205,118075.000,20176,2,EA,1,100,0.386527
1572441097.949217,118127.500,20194,2,EA,1,100,0.386566
1572441098.016229,118180.000,20194,2,EA,1,100,0.386612
1572441098.083241,118232.500,20212,2,EA,1,100,0.386332
1572441098.150253,118285.000,20212,2,EA,1,100,0.386451
1572441098.217903,118338.000,20230,2,EA,1,100,0.386495
1572441098.285553,118391.000,20230,2,EA,1,100,0.386487
1572441098.351926,118443.000,20248,1,EA,1,100,0.386441
1572441098.418619,118495.250,20269,4,EA,1,100,0.386447
1572441098.485312,118547.500,20269,4,EA,1,100,0.386535
1572441098.552004,118599.750,20269,4,EA,1,100,0.386459
1572441098.618697,118652.000,20269,4,EA,1,100,0.386680
1572441098.685709,118704.500,20289,2,EA,1,100,0.386574
1572441098.752720,118757.000,20289,2,EA,1,100,0.386352
1572441098.819094,118809.000,20307,1,EA,1,100,0.386703
1572441098.886106,118861.500,20326,2,EA,1,100,0.386405
1572441098.953118,118914.000,20326,2,EA,1,100,0.386255
1572441099.020129,118966.500,20344,2,EA,1,100,0.386570
1572441099.087141,119019.000,20344,2,EA,1,100,0.386525
1572441099.153515,119071.000,20362,2,EA,1,100,0.386652
1572441099.219888,119123.000,20362,2,EA,1,100,0.386834
1572441099.286262,119175.000,20380,2,EA,1,100,0.386405
1572441099.352635,119227.000,20380,2,EA,1,100,0.386668
1572441099.419009,119279.000,20398,2,EA,1,100,0.386459
1572441099.485383,119331.000,20398,2,EA,1,100,0.386519
1572441099.550480,119382.000,20416,2,EA,1,100,0.386503
1572441099.615577,119433.000,20416,2,EA,1,100,0.386515
1572441099.681950,119485.000,20434,2,EA,1,100,0.386499
1572441099.748324,119537.000,20434,2,EA,1,100,0.386640
1572441099.814698,119589.000,20452,2,EA,1,100,0.386507
1572441099.881071,119641.000,20452,2,EA,1,100,0.386513
1572441099.947445,119693.000,20471,2,EA,1,100,0.386251
1572441100.013818,119745.000,20471,2,EA,1,100,0.386511
1572441100.080830,119797.500,20489,2,EA,1,100,0.386606
1572441100.147842,119850.000,20489,2,EA,1,100,0.386505
1572441100.214854,119902.500,20507,2,EA,1,100,0.386658
1572441100.281865,119955.000,20507,2,EA,1,100,0.386622
1572441100.347601,120006.500,20525,2,EA,1,100,0.386340
1572441100.413336,120058.000,20525,2,EA,1,100,0.386399
1572441100.480348,120110.500,20543,2,EA,1,100,0.386334
1572441100.547360,120163.000,20543,2,EA,1,100,0.386447
1572441100.613733,120215.000,20561,2,EA,1,100,0.386388
1572441100.680107,120267.000,20561,2,EA,1,100,0.386421
1572441100.745842,120318.500,20579,2,EA,1,100,0.386467
1572441100.811578,120370.000,20579,2,EA,1,100,0.386447
1572441100.878589,120422.500,20598,2,EA,1,100,0.386568
1572441100.945601,120475.000,20598,2,EA,1,100,0.386322
1572441101.013251,120528.000,20616,1,EA,1,100,0.386413
1572441101.080263,120580.500,20634,2,EA,1,100,0.386296
1572441101.147274,120633.000,20634,2,EA,1,100,0.386642
1572441101.214925,120686.000,20652,2,EA,1,100,0.386415
1572441101.282575,120739.000,20652,2,EA,1,100,0.386447
1572441101.349586,120791.500,20669,2,EA,1,100,0.386529
1572441101.416598,120844.000,20669,2,EA,1,100,0.386556
1572441101.483610,120896.500,20687,2,EA,1,100,0.386417
1572441101.550622,120949.000,20687,2,EA,1,100,0.386479
1572441101.617633,121001.500,20705,2,EA,1,100,0.386485
1572441101.684645,121054.000,20705,2,EA,1,100,0.386356
1572441101.751019,121106.000,20723,2,EA,1,100,0.386407
1572441101.817392,121158.000,20723,2,EA,1,100,0.386294
1572441101.884404,121210.500,20742,2,EA,1,100,0.386227
1572441101.951416,121263.000,20742,2,EA,1,100,0.386266
1572441102.018428,121315.500,20760,2,EA,1,100,0.386443
1572441102.085439,121368.000,20760,2,EA,1,100,0.386282
1572441102.151813,121420.000,20776,2,EA,1,100,0.386451
1572441102.218187,121472.000,20776,2,EA,1,100,0.386358
1572441102.285198,121524.500,20794,2,EA,1,100,0.386310
1572441102.352210,121577.000,20794,2,EA,1,100,0.386447
1572441102.419860,121630.000,20812,2,EA,1,100,0.386541
1572441102.487510,121683.000,20812,2,EA,1,100,0.386008
1572441102.551969,121733.500,20830,2,EA,1,100,0.386394
1572441102.616428,121784.000,20830,2,EA,1,100,0.386201
1572441102.682802,121836.000,20848,2,EA,1,100,0.386394
1572441102.749175,121888.000,20848,2,EA,1,100,0.386239
1572441102.815549,121940.000,20866,2,EA,1,100,0.386088
1572441102.881922,121992.000,20866,2,EA,1,100,0.386358
1572441102.947020,122043.000,20885,1,EA,1,100,0.386394
1572441103.013393,122095.000,20903,2,EA,1,100,0.386487
1572441103.079767,122147.000,20903,2,EA,1,100,0.386072
1572441103.146140,122199.000,20921,2,EA,1,100,0.385965
1572441103.212514,122251.000,20921,2,EA,1,100,0.386360
1572441103.279526,122303.500,20939,2,EA,1,100,0.386411
1572441103.346537,122356.000,20939,2,EA,1,100,0.386032
1572441103.413549,122408.500,20957,2,EA,1,100,0.386278
1572441103.480561,122461.000,20957,2,EA,1,100,0.386231
1572441103.546296,122512.500,20975,2,EA,1,100,0.386370
1572441103.612032,122564.000,20975,2,EA,1,100,0.386274
1572441103.679043,122616.500,20993,2,EA,1,100,0.386409
1572441103.746055,122669.000,20993,2,EA,1,100,0.386328
1572441103.812429,122721.000,21011,2,EA,1,100,0.386195
1572441103.878802,122773.000,21011,2,EA,1,100,0.386205
1572441103.944538,122824.500,21030,2,EA,1,100,0.386221
1572441104.010273,122876.000,21030,2,EA,1,100,0.386197
1572441104.077285,122928.500,21048,2,EA,1,100,0.386141
1572441104.144297,122981.000,21048,2,EA,1,100,0.386171
1572441104.211946,123034.000,21066,2,EA,1,100,0.386298
1572441104.279597,123087.000,21066,2,EA,1,100,0.386034
1572441104.346608,123139.500,21084,2,EA,1,100,0.386143
1572441104.413620,123192.000,21084,2,EA,1,100,0.386405
1572441104.480632,123244.500,21102,2,EA,1,100,0.386310
1572441104.547644,123297.000,21102,2,EA,1,100,0.386040
1572441104.614655,123349.500,21120,2,EA,1,100,0.386135
1572441104.681667,123402.000,21120,2,EA,1,100,0.386125
1572441104.748041,123454.000,21138,2,EA,1,100,0.386221
1572441104.814414,123506.000,21138,2,EA,1,100,0.386326
1572441104.882064,123559.000,21156,1,EA,1,100,0.386159
1572441104.948757,123611.250,21178,4,EA,1,100,0.386231
1572441105.015450,123663.500,21178,4,EA,1,100,0.386372
1572441105.082142,123715.750,21178,4,EA,1,100,0.386259
1572441105.148835,123768.000,21178,4,EA,1,100,0.386215
1572441105.215847,123820.500,21197,2,EA,1,100,0.386374
1572441105.282859,123873.000,21197,2,EA,1,100,0.385873
1572441105.349232,123925.000,21216,2,EA,1,100,0.386131
1572441105.415606,123977.000,21216,2,EA,1,100,0.386135
1572441105.483256,124030.000,21234,1,EA,1,100,0.386449
1572441105.548991,124081.500,21252,2,EA,1,100,0.385923
1572441105.614726,124133.000,21252,2,EA,1,100,0.386135
1572441105.681100,124185.000,21270,2,EA,1,100,0.386147
1572441105.747473,124237.000,21270,2,EA,1,100,0.386127
1572441105.813847,124289.000,21288,2,EA,1,100,0.386245
1572441105.880221,124341.000,21288,2,EA,1,100,0.386173
1572441105.945318,124392.000,21307,2,EA,1,100,0.385945
1572441106.010415,124443.000,21307,2,EA,1,100,0.386215
1572441106.076789,124495.000,21325,2,EA,1,100,0.386249
1572441106.143162,124547.000,21325,2,EA,1,100,0.385883
1572441106.210174,124599.500,21343,2,EA,1,100,0.386306
1572441106.277186,124652.000,21343,2,EA,1,100,0.385980
1572441106.343559,124704.000,21361,2,EA,1,100,0.386304
1572441106.409933,124756.000,21361,2,EA,1,100,0.385917
1572441106.476945,124808.500,21379,2,EA,1,100,0.386060
1572441106.543956,124861.000,21379,2,EA,1,100,0.385839
1572441106.610330,124913.000,21397,2,EA,1,100,0.386096
1572441106.676703,124965.000,21397,2,EA,1,100,0.386161
1572441106.742439,125016.500,21415,2,EA,1,100,0.386191
1572441106.808174,125068.000,21415,2,EA,1,100,0.386036
1572441106.875186,125120.500,21433,2,EA,1,100,0.386100
1572441106.942198,125173.000,21433,2,EA,1,100,0.385871
1572441107.008571,125225.000,21452,2,EA,1,100,0.386117
1572441107.074945,125277.000,21452,2,EA,1,100,0.386004
1572441107.141319,125329.000,21470,2,EA,1,100,0.386135
1572441107.207692,125381.000,21470,2,EA,1,100,0.386304
1572441107.274704,125433.500,21488,2,EA,1,100,0.386056
1572441107.341716,125486.000,21488,2,EA,1,100,0.386054
1572441107.409366,125539.000,21506,2,EA,1,100,0.386324
1572441107.477015,125592.000,21506,2,EA,1,100,0.386042
1572441107.543389,125644.000,21524,1,EA,1,100,0.386340
1572441107.611039,125697.000,21542,2,EA,1,100,0.386040
1572441107.678689,125750.000,21542,2,EA,1,100,0.386098
1572441107.745063,125802.000,21560,2,EA,1,100,0.386040
1572441107.811436,125854.000,21560,2,EA,1,100,0.386133
1572441107.878448,125906.500,21577,2,EA,1,100,0.386044
1572441107.945460,125959.000,21577,2,EA,1,100,0.386380
1572441108.012472,126011.500,21596,2,EA,1,100,0.386221
1572441108.079483,126064.000,21596,2,EA,1,100,0.386181
1572441108.145857,126116.000,21614,2,EA,1,100,0.386034
1572441108.212230,126168.000,21614,2,EA,1,100,0.386096
1572441108.279242,126220.500,21632,2,EA,1,100,0.385869
1572441108.346254,126273.000,21632,2,EA,1,100,0.385931
1572441108.413266,126325.500,21650,2,EA,1,100,0.386139
1572441108.480278,126378.000,21650,2,EA,1,100,0.386171
1572441108.546651,126430.000,21668,2,EA,1,100,0.386060
1572441108.613025,126482.000,21668,2,EA,1,100,0.386155
1572441108.680037,126534.500,21684,2,EA,1,100,0.386066
1572441108.747048,126587.000,21684,2,EA,1,100,0.385969
1572441108.813422,126639.000,21702,2,EA,1,100,0.386110
1572441108.879796,126691.000,21702,2,EA,1,100,0.385772
1572441108.944893,126742.000,21720,2,EA,1,100,0.385863
1572441109.009990,126793.000,21720,2,EA,1,100,0.385961
1572441109.076363,126845.000,21739,2,EA,1,100,0.385820
1572441109.142737,126897.000,21739,2,EA,1,100,0.385941
1572441109.209110,126949.000,21757,2,EA,1,100,0.385988
1572441109.275484,127001.000,21757,2,EA,1,100,0.385982
1572441109.341858,127053.000,21775,2,EA,1,100,0.386251
1572441109.408231,127105.000,21775,2,EA,1,100,0.386221
1572441109.475881,127158.000,21793,1,EA,1,100,0.385941
1572441109.542255,127210.000,21811,2,EA,1,100,0.386147
1572441109.608628,127262.000,21811,2,EA,1,100,0.386038
1572441109.675640,127314.500,21829,2,EA,1,100,0.386022
1572441109.742652,127367.000,21829,2,EA,1,100,0.386026
1572441109.809026,127419.000,21847,2,EA,1,100,0.386010
1572441109.875399,127471.000,21847,2,EA,1,100,0.386338
1572441109.941134,127522.500,21865,2,EA,1,100,0.385978
1572441110.006870,127574.000,21865,2,EA,1,100,0.386014
1572441110.073881,127626.500,21884,2,EA,1,100,0.385951
1572441110.140893,127679.000,21884,2,EA,1,100,0.385802
1572441110.207267,127731.000,21902,2,EA,1,100,0.386104
1572441110.273640,127783.000,21902,2,EA,1,100,0.386050
1572441110.340652,127835.500,21920,2,EA,1,100,0.386014
1572441110.407664,127888.000,21920,2,EA,1,100,0.385976
1572441110.474676,127940.500,21938,2,EA,1,100,0.386274
1572441110.541687,127993.000,21938,2,EA,1,100,0.386006
1572441110.609338,128046.000,21956,2,EA,1,100,0.385998
1572441110.676987,128099.000,21956,2,EA,1,100,0.386197
1572441110.743999,128151.500,21974,2,EA,1,100,0.386080
1572441110.811011,128204.000,21974,2,EA,1,100,0.386064
1572441110.878023,128256.500,21992,2,EA,1,100,0.386257
1572441110.945035,128309.000,21992,2,EA,1,100,0.386104
1572441111.012046,128361.500,22010,2,EA,1,100,0.386070
1572441111.079058,128414.000,22010,2,EA,1,100,0.385820
1572441111.145432,128466.000,22029,2,EA,1,100,0.385822
1572441111.211805,128518.000,22029,2,EA,1,100,0.385937
1572441111.278817,128570.500,22047,2,EA,1,100,0.385972
1572441111.345829,128623.000,22047,2,EA,1,100,0.385982
1572441111.412202,128675.000,22065,1,EA,1,100,0.386016
1572441111.479214,128727.500,22086,4,EA,1,100,0.386149
1572441111.546226,128780.000,22086,4,EA,1,100,0.386157
1572441111.613238,128832.500,22086,4,EA,1,100,0.386155
1572441111.680249,128885.000,22086,4,EA,1,100,0.386034
1572441111.746623,128937.000,22105,2,EA,1,100,0.385994
1572441111.812997,128989.000,22105,2,EA,1,100,0.386026
1572441111.879370,129041.000,22124,2,EA,1,100,0.385994
1572441111.945744,129093.000,22124,2,EA,1,100,0.385861
1572441112.012117,129145.000,22142,2,EA,1,100,0.385857
1572441112.078491,129197.000,22142,2,EA,1,100,0.385806
1572441112.143588,129248.000,22161,2,EA,1,100,0.386064
1572441112.208685,129299.000,22161,2,EA,1,100,0.386088
1572441112.276335,129352.000,22179,1,EA,1,100,0.385871
1572441112.341432,129403.000,22197,2,EA,1,100,0.385736
1572441112.406530,129454.000,22197,2,EA,1,100,0.385861
1572441112.473541,129506.500,22215,2,EA,1,100,0.385764
1572441112.540553,129559.000,22215,2,EA,1,100,0.385889
1572441112.607565,129611.500,22233,2,EA,1,100,0.385635
1572441112.674577,129664.000,22233,2,EA,1,100,0.386171
1572441112.740950,129716.000,22251,2,EA,1,100,0.386131
1572441112.807324,129768.000,22251,2,EA,1,100,0.385957
1572441112.874336,129820.500,22269,2,EA,1,100,0.385988
1572441112.941347,129873.000,22269,2,EA,1,100,0.386213
1572441113.007083,129924.500,22287,2,EA,1,100,0.386096
1572441113.072818,129976.000,22287,2,EA,1,100,0.385955
1572441113.138553,130027.500,22306,2,EA,1,100,0.386098
1572441113.204289,130079.000,22306,2,EA,1,100,0.386219
1572441113.271301,130131.500,22324,2,EA,1,100,0.385961
1572441113.338312,130184.000,22324,2,EA,1,100,0.386106
1572441113.405324,130236.500,22342,2,EA,1,100,0.386185
1572441113.472336,130289.000,22342,2,EA,1,100,0.386350
1572441113.539348,130341.500,22360,2,EA,1,100,0.386030
1572441113.606359,130394.000,22360,2,EA,1,100,0.385820
1572441113.673371,130446.500,22378,2,EA,1,100,0.386102
1572441113.740383,130499.000,22378,2,EA,1,100,0.385982
1572441113.808033,130552.000,22396,2,EA,1,100,0.385959
1572441113.875683,130605.000,22396,2,EA,1,100,0.386000
1572441113.942057,130657.000,22414,2,EA,1,100,0.386046
1572441114.008430,130709.000,22414,2,EA,1,100,0.386068
1572441114.074804,130761.000,22432,2,EA,1,100,0.386163
1572441114.141177,130813.000,22432,2,EA,1,100,0.386042
1572441114.207551,130865.000,22451,1,EA,1,100,0.386155
1572441114.273924,130917.000,22469,2,EA,1,100,0.386352
1572441114.340298,130969.000,22469,2,EA,1,100,0.386270
1572441114.407310,131021.500,22487,2,EA,1,100,0.386296
1572441114.474322,131074.000,22487,2,EA,1,100,0.386084
1572441114.541333,131126.500,22504,2,EA,1,100,0.386241
1572441114.608345,131179.000,22504,2,EA,1,100,0.386074
1572441114.675995,131232.000,22522,2,EA,1,100,0.386151
1572441114.743645,131285.000,22522,2,EA,1,100,0.386384
1572441114.810657,131337.500,22540,2,EA,1,100,0.386070
1572441114.877669,131390.000,22540,2,EA,1,100,0.385835
1572441114.944042,131442.000,22558,2,EA,1,100,0.385967
1572441115.010416,131494.000,22558,2,EA,1,100,0.386110
1572441115.076789,131546.000,22577,2,EA,1,100,0.386207
1572441115.143163,131598.000,22577,2,EA,1,100,0.386058
1572441115.209537,131650.000,22595,2,EA,1,100,0.386036
1572441115.275910,131702.000,22595,2,EA,1,100,0.386171
1572441115.341007,131753.000,22613,2,EA,1,100,0.386102
1572441115.406104,131804.000,22613,2,EA,1,100,0.386167
1572441115.472478,131856.000,22631,2,EA,1,100,0.386102
1572441115.538851,131908.000,22631,2,EA,1,100,0.386153
1572441115.605863,131960.500,22647,2,EA,1,100,0.386390
1572441115.672875,132013.000,22647,2,EA,1,100,0.386318
1572441115.739249,132065.000,22665,2,EA,1,100,0.386284
1572441115.805622,132117.000,22665,2,EA,1,100,0.386086
1572441115.872634,132169.500,22683,2,EA,1,100,0.386054
1572441115.939646,132222.000,22683,2,EA,1,100,0.386125
1572441116.006658,132274.500,22701,2,EA,1,100,0.386310
1572441116.073669,132327.000,22701,2,EA,1,100,0.386517
1572441116.138767,132378.000,22720,2,EA,1,100,0.386249
1572441116.203864,132429.000,22720,2,EA,1,100,0.386078
1572441116.271513,132482.000,22738,1,EA,1,100,0.385998
1572441116.337249,132533.500,22756,2,EA,1,100,0.386229
1572441116.402984,132585.000,22756,2,EA,1,100,0.386155
1572441116.469996,132637.500,22774,2,EA,1,100,0.386338
1572441116.537008,132690.000,22774,2,EA,1,100,0.386376
1572441116.604658,132743.000,22792,2,EA,1,100,0.386396
1572441116.672308,132796.000,22792,2,EA,1,100,0.386175
1572441116.739320,132848.500,22810,2,EA,1,100,0.386070
1572441116.806331,132901.000,22810,2,EA,1,100,0.386217
1572441116.873343,132953.500,22828,2,EA,1,100,0.386298
1572441116.940355,133006.000,22828,2,EA,1,100,0.386604
1572441117.007367,133058.500,22846,2,EA,1,100,0.386100
1572441117.074378,133111.000,22846,2,EA,1,100,0.386274
1572441117.140114,133162.500,22865,2,EA,1,100,0.386173
1572441117.205849,133214.000,22865,2,EA,1,100,0.386016
1572441117.272223,133266.000,22883,2,EA,1,100,0.386270
1572441117.338596,133318.000,22883,2,EA,1,100,0.386131
1572441117.405608,133370.500,22901,2,EA,1,100,0.386060
1572441117.472620,133423.000,22901,2,EA,1,100,0.386219
1572441117.538993,133475.000,22919,2,EA,1,100,0.386400
1572441117.605367,133527.000,22919,2,EA,1,100,0.386596
1572441117.673017,133580.000,22937,2,EA,1,100,0.386115
1572441117.740667,133633.000,22937,2,EA,1,100,0.386231
1572441117.807679,133685.500,22955,2,EA,1,100,0.386197
1572441117.874691,133738.000,22955,2,EA,1,100,0.386247
1572441117.941702,133790.500,22973,2,EA,1,100,0.386221
1572441118.008714,133843.000,22973,2,EA,1,100,0.386153
1572441118.074662,133894.667,22994,3,EA,1,100,0.386648
1572441118.140610,133946.333,22994,3,EA,1,100,0.386523
1572441118.206558,133998.000,22994,3,EA,1,100,0.386296
1572441118.272932,134050.000,23015,2,EA,1,100,0.386264
1572441118.339306,134102.000,23015,2,EA,1,100,0.386380
1572441118.405679,134154.000,23032,2,EA,1,100,0.386568
1572441118.472053,134206.000,23032,2,EA,1,100,0.386358
1572441118.537150,134257.000,23049,2,EA,1,100,0.386197
1572441118.602247,134308.000,23049,2,EA,1,100,0.386268
1572441118.669259,134360.500,23067,2,EA,1,100,0.386135
1572441118.736270,134413.000,23067,2,EA,1,100,0.386006
1572441118.803282,134465.500,23085,2,EA,1,100,0.386106
1572441118.870294,134518.000,23085,2,EA,1,100,0.386151
1572441118.936668,134570.000,23103,2,EA,1,100,0.386249
1572441119.003041,134622.000,23103,2,EA,1,100,0.386338
1572441119.070691,134675.000,23121,1,EA,1,100,0.386312
1572441119.135788,134726.000,23140,2,EA,1,100,0.386149
1572441119.200886,134777.000,23140,2,EA,1,100,0.386006
1572441119.267897,134829.500,23158,2,EA,1,100,0.386117
1572441119.334909,134882.000,23158,2,EA,1,100,0.386382
1572441119.401283,134934.000,23176,2,EA,1,100,0.386288
1572441119.467656,134986.000,23176,2,EA,1,100,0.386115
1572441119.533391,135037.500,23194,2,EA,1,100,0.386302
1572441119.599127,135089.000,23194,2,EA,1,100,0.386386
1572441119.666139,135141.500,23212,2,EA,1,100,0.386338
1572441119.733150,135194.000,23212,2,EA,1,100,0.386423
1572441119.800801,135247.000,23230,2,EA,1,100,0.386270
1572441119.868450,135300.000,23230,2,EA,1,100,0.386352
1572441119.936100,135353.000,23248,2,EA,1,100,0.386088
1572441120.003750,135406.000,23248,2,EA,1,100,0.386302
1572441120.070124,135458.000,23266,2,EA,1,100,0.386374
1572441120.136497,135510.000,23266,2,EA,1,100,0.386288
1572441120.203509,135562.500,23285,2,EA,1,100,0.386159
1572441120.270521,135615.000,23285,2,EA,1,100,0.386052
1572441120.336895,135667.000,23303,2,EA,1,100,0.386239
1572441120.403268,135719.000,23303,2,EA,1,100,0.386364
1572441120.469004,135770.500,23321,2,EA,1,100,0.386203
1572441120.534739,135822.000,23321,2,EA,1,100,0.386054
1572441120.601751,135874.500,23339,2,EA,1,100,0.386366
1572441120.668762,135927.000,23339,2,EA,1,100,0.386306
1572441120.736413,135980.000,23357,2,EA,1,100,0.386308
1572441120.804063,136033.000,23357,2,EA,1,100,0.386280
1572441120.871074,136085.500,23375,2,EA,1,100,0.386229
1572441120.938086,136138.000,23375,2,EA,1,100,0.386247
1572441121.005736,136191.000,23393,1,EA,1,100,0.386370
1572441121.072748,136243.500,23411,2,EA,1,100,0.385996
1572441121.139760,136296.000,23411,2,EA,1,100,0.386461
1572441121.206771,136348.500,23429,2,EA,1,100,0.386159
1572441121.273783,136401.000,23429,2,EA,1,100,0.386235
1572441121.339519,136452.500,23447,2,EA,1,100,0.386334
1572441121.405254,136504.000,23447,2,EA,1,100,0.386330
1572441121.470989,136555.500,23465,2,EA,1,100,0.386298
1572441121.536725,136607.000,23465,2,EA,1,100,0.386235
1572441121.603098,136659.000,23483,2,EA,1,100,0.386217
1572441121.669472,136711.000,23483,2,EA,1,100,0.386040
1572441121.735845,136763.000,23501,2,EA,1,100,0.386334
1572441121.802219,136815.000,23501,2,EA,1,100,0.386239
1572441121.868593,136867.000,23519,2,EA,1,100,0.386517
1572441121.934966,136919.000,23519,2,EA,1,100,0.386185
1572441122.001978,136971.500,23537,2,EA,1,100,0.386441
1572441122.068990,137024.000,23537,2,EA,1,100,0.386207
1572441122.136001,137076.500,23555,2,EA,1,100,0.386068
1572441122.203013,137129.000,23555,2,EA,1,100,0.386461
1572441122.268749,137180.500,23574,2,EA,1,100,0.386554
1572441122.334484,137232.000,23574,2,EA,1,100,0.386368
1572441122.400857,137284.000,23591,2,EA,1,100,0.386227
1572441122.467231,137336.000,23591,2,EA,1,100,0.386384
1572441122.534243,137388.500,23608,2,EA,1,100,0.386153
1572441122.601254,137441.000,23608,2,EA,1,100,0.386209
1572441122.666990,137492.500,23626,2,EA,1,100,0.386320
1572441122.732725,137544.000,23626,2,EA,1,100,0.386517
1572441122.799737,137596.500,23644,2,EA,1,100,0.386328
1572441122.866749,137649.000,23644,2,EA,1,100,0.386326
1572441122.934399,137702.000,23662,2,EA,1,100,0.386272
1572441123.002049,137755.000,23662,2,EA,1,100,0.386574
1572441123.068422,137807.000,23680,1,EA,1,100,0.386310
1572441123.136072,137860.000,23698,2,EA,1,100,0.386231
1572441123.203722,137913.000,23698,2,EA,1,100,0.386161
1572441123.269458,137964.500,23717,2,EA,1,100,0.386399
1572441123.335193,138016.000,23717,2,EA,1,100,0.386419
1572441123.402205,138068.500,23735,2,EA,1,100,0.386215
1572441123.469217,138121.000,23735,2,EA,1,100,0.386185
1572441123.535590,138173.000,23753,2,EA,1,100,0.386255
1572441123.601964,138225.000,23753,2,EA,1,100,0.386340
1572441123.667699,138276.500,23771,2,EA,1,100,0.386443
1572441123.733434,138328.000,23771,2,EA,1,100,0.386338
1572441123.800446,138380.500,23789,2,EA,1,100,0.386400
1572441123.867458,138433.000,23789,2,EA,1,100,0.386495
1572441123.935108,138486.000,23807,2,EA,1,100,0.386296
1572441124.002758,138539.000,23807,2,EA,1,100,0.386221
1572441124.069770,138591.500,23825,2,EA,1,100,0.386225
1572441124.136781,138644.000,23825,2,EA,1,100,0.386159
1572441124.203793,138696.500,23843,2,EA,1,100,0.386088
1572441124.270805,138749.000,23843,2,EA,1,100,0.386215
1572441124.337179,138801.000,23862,2,EA,1,100,0.386203
1572441124.403552,138853.000,23862,2,EA,1,100,0.386515
1572441124.469288,138904.500,23880,2,EA,1,100,0.386328
1572441124.535023,138956.000,23880,2,EA,1,100,0.386435
1572441124.600971,139007.667,23901,3,EA,1,100,0.386419
1572441124.666919,139059.333,23901,3,EA,1,100,0.386312
1572441124.732867,139111.000,23901,3,EA,1,100,0.386399
1572441124.799241,139163.000,23921,2,EA,1,100,0.386294
1572441124.865614,139215.000,23921,2,EA,1,100,0.386374
1572441124.932626,139267.500,23939,2,EA,1,100,0.386006
1572441124.999638,139320.000,23939,2,EA,1,100,0.386380
1572441125.066011,139372.000,23957,2,EA,1,100,0.386308
1572441125.132385,139424.000,23957,2,EA,1,100,0.386221
1572441125.199397,139476.500,23975,2,EA,1,100,0.386376
1572441125.266409,139529.000,23975,2,EA,1,100,0.386288
1572441125.333421,139581.500,23992,2,EA,1,100,0.386175
1572441125.400432,139634.000,23992,2,EA,1,100,0.386161
1572441125.466167,139685.500,24010,2,EA,1,100,0.386515
1572441125.531903,139737.000,24010,2,EA,1,100,0.386219
1572441125.598277,139789.000,24028,2,EA,1,100,0.386405
1572441125.664650,139841.000,24028,2,EA,1,100,0.386346
1572441125.731662,139893.500,24046,2,EA,1,100,0.386521
1572441125.798674,139946.000,24046,2,EA,1,100,0.386455
1572441125.864409,139997.500,24064,2,EA,1,100,0.386386
1572441125.930144,140049.000,24064,2,EA,1,100,0.386241
1572441125.999071,140103.000,24082,1,EA,1,100,0.386503
1572441126.065444,140155.000,24100,2,EA,1,100,0.386229
1572441126.131818,140207.000,24100,2,EA,1,100,0.386245
1572441126.199468,140260.000,24118,2,EA,1,100,0.386229
1572441126.267118,140313.000,24118,2,EA,1,100,0.386296
1572441126.334768,140366.000,24137,2,EA,1,100,0.386229
1572441126.402418,140419.000,24137,2,EA,1,100,0.386245
1572441126.468153,140470.500,24155,2,EA,1,100,0.386304
1572441126.533889,140522.000,24155,2,EA,1,100,0.386554
1572441126.600900,140574.500,24173,2,EA,1,100,0.386292
1572441126.667912,140627.000,24173,2,EA,1,100,0.386531
1572441126.734286,140679.000,24191,2,EA,1,100,0.386026
1572441126.800659,140731.000,24191,2,EA,1,100,0.386298
1572441126.866395,140782.500,24209,2,EA,1,100,0.386656
1572441126.932130,140834.000,24209,2,EA,1,100,0.386588
1572441126.999142,140886.500,24227,2,EA,1,100,0.386437
1572441127.066154,140939.000,24227,2,EA,1,100,0.386018
1572441127.133804,140992.000,24245,2,EA,1,100,0.386497
1572441127.201453,141045.000,24245,2,EA,1,100,0.386455
1572441127.268465,141097.500,24263,2,EA,1,100,0.386262
1572441127.335477,141150.000,24263,2,EA,1,100,0.386370
1572441127.403127,141203.000,24282,2,EA,1,100,0.386364
1572441127.470777,141256.000,24282,2,EA,1,100,0.386485
1572441127.536512,141307.500,24300,2,EA,1,100,0.386358
1572441127.602248,141359.000,24300,2,EA,1,100,0.386225
1572441127.667983,141410.500,24318,2,EA,1,100,0.386477
1572441127.733718,141462.000,24318,2,EA,1,100,0.386475
1572441127.800092,141514.000,24336,1,EA,1,100,0.386461
1572441127.865827,141565.500,24354,2,EA,1,100,0.386407
1572441127.931563,141617.000,24354,2,EA,1,100,0.386264
1572441127.997936,141669.000,24372,2,EA,1,100,0.386328
1572441128.064310,141721.000,24372,2,EA,1,100,0.386245
1572441128.131322,141773.500,24390,2,EA,1,100,0.386286
1572441128.198334,141826.000,24390,2,EA,1,100,0.386419
1572441128.264707,141878.000,24408,2,EA,1,100,0.386153
1572441128.331081,141930.000,24408,2,EA,1,100,0.386288
1572441128.398731,141983.000,24426,2,EA,1,100,0.386161
1572441128.466381,142036.000,24426,2,EA,1,100,0.386022
1572441128.533392,142088.500,24444,2,EA,1,100,0.386390
1572441128.600404,142141.000,24444,2,EA,1,100,0.386407
1572441128.666139,142192.500,24462,2,EA,1,100,0.386390
1572441128.731875,142244.000,24462,2,EA,1,100,0.386209
1572441128.798248,142296.000,24480,2,EA,1,100,0.386060
1572441128.864622,142348.000,24480,2,EA,1,100,0.386489
1572441128.932272,142401.000,24498,2,EA,1,100,0.386026
1572441128.999922,142454.000,24498,2,EA,1,100,0.386070
1572441129.066296,142506.000,24516,2,EA,1,100,0.386161
1572441129.132669,142558.000,24516,2,EA,1,100,0.386096
1572441129.200319,142611.000,24532,2,EA,1,100,0.386153
1572441129.267969,142664.000,24532,2,EA,1,100,0.386455
1572441129.335619,142717.000,24551,2,EA,1,100,0.386447
1572441129.403269,142770.000,24551,2,EA,1,100,0.386396
1572441129.469643,142822.000,24569,2,EA,1,100,0.386286
1572441129.536016,142874.000,24569,2,EA,1,100,0.386467
1572441129.603028,142926.500,24587,2,EA,1,100,0.386181
1572441129.670040,142979.000,24587,2,EA,1,100,0.386000
1572441129.735137,143030.000,24605,1,EA,1,100,0.386034
1572441129.802149,143082.500,24623,2,EA,1,100,0.386386
1572441129.869160,143135.000,24623,2,EA,1,100,0.386030
1572441129.935534,143187.000,24641,2,EA,1,100,0.386223
1572441130.001908,143239.000,24641,2,EA,1,100,0.386435
1572441130.068919,143291.500,24659,2,EA,1,100,0.386106
1572441130.135931,143344.000,24659,2,EA,1,100,0.386499
1572441130.202943,143396.500,24677,2,EA,1,100,0.386310
1572441130.269955,143449.000,24677,2,EA,1,100,0.386509
1572441130.337605,143502.000,24696,2,EA,1,100,0.386237
1572441130.405255,143555.000,24696,2,EA,1,100,0.386191
1572441130.472266,143607.500,24714,2,EA,1,100,0.386278
1572441130.539278,143660.000,24714,2,EA,1,100,0.386064
1572441130.605652,143712.000,24732,2,EA,1,100,0.386123
1572441130.672025,143764.000,24732,2,EA,1,100,0.385965
1572441130.737761,143815.500,24750,2,EA,1,100,0.386161
1572441130.803496,143867.000,24750,2,EA,1,100,0.385925
1572441130.869231,143918.500,24768,2,EA,1,100,0.386328
1572441130.934967,143970.000,24768,2,EA,1,100,0.386302
1572441131.001340,144022.000,24786,2,EA,1,100,0.386205
1572441131.067714,144074.000,24786,2,EA,1,100,0.386205
1572441131.134088,144126.000,24807,3,EA,1,100,0.386336
1572441131.200461,144178.000,24807,3,EA,1,100,0.386294
1572441131.266835,144230.000,24807,3,EA,1,100,0.386201
1572441131.333846,144282.500,24827,2,EA,1,100,0.386443
1572441131.400858,144335.000,24827,2,EA,1,100,0.386511
1572441131.467232,144387.000,24846,2,EA,1,100,0.386052
1572441131.533605,144439.000,24846,2,EA,1,100,0.386078
1572441131.599979,144491.000,24864,2,EA,1,100,0.386139
1572441131.666353,144543.000,24864,2,EA,1,100,0.386165
1572441131.733364,144595.500,24882,2,EA,1,100,0.386247
1572441131.800376,144648.000,24882,2,EA,1,100,0.385971
1572441131.866111,144699.500,24900,2,EA,1,100,0.385768
1572441131.931847,144751.000,24900,2,EA,1,100,0.386121
1572441131.998220,144803.000,24918,2,EA,1,100,0.385939
1572441132.064594,144855.000,24918,2,EA,1,100,0.386435
1572441132.132244,144908.000,24936,2,EA,1,100,0.386006
1572441132.199894,144961.000,24936,2,EA,1,100,0.386068
1572441132.266267,145013.000,24953,2,EA,1,100,0.386054
1572441132.332641,145065.000,24953,2,EA,1,100,0.385792
1572441132.400291,145118.000,24971,2,EA,1,100,0.385649
1572441132.467941,145171.000,24971,2,EA,1,100,0.386108
1572441132.535591,145224.000,24989,2,EA,1,100,0.386121
1572441132.603241,145277.000,24989,2,EA,1,100,0.385891
1572441132.668976,145328.500,25007,2,EA,1,100,0.385843
1572441132.734712,145380.000,25007,2,EA,1,100,0.386165
1572441132.801723,145432.500,25025,2,EA,1,100,0.386221
1572441132.868735,145485.000,25025,2,EA,1,100,0.386431
1572441132.933832,145536.000,25043,1,EA,1,100,0.386066
1572441133.000844,145588.500,25061,2,EA,1,100,0.385925
1572441133.067856,145641.000,25061,2,EA,1,100,0.385945
1572441133.134868,145693.500,25079,2,EA,1,100,0.386199
1572441133.201880,145746.000,25079,2,EA,1,100,0.386245
1572441133.268891,145798.500,25097,2,EA,1,100,0.386247
1572441133.335903,145851.000,25097,2,EA,1,100,0.386225
1572441133.402915,145903.500,25116,2,EA,1,100,0.386213
1572441133.469927,145956.000,25116,2,EA,1,100,0.386294
1572441133.537576,146009.000,25134,2,EA,1,100,0.386153
1572441133.605227,146062.000,25134,2,EA,1,100,0.386203
1572441133.671600,146114.000,25152,2,EA,1,100,0.386147
1572441133.737974,146166.000,25152,2,EA,1,100,0.385994
1572441133.804347,146218.000,25170,2,EA,1,100,0.386346
1572441133.870721,146270.000,25170,2,EA,1,100,0.385996
1572441133.936456,146321.500,25188,2,EA,1,100,0.385895
1572441134.002192,146373.000,25188,2,EA,1,100,0.385955
1572441134.067927,146424.500,25206,2,EA,1,100,0.386022
1572441134.133662,146476.000,25206,2,EA,1,100,0.386191
1572441134.200036,146528.000,25224,2,EA,1,100,0.386185
1572441134.266409,146580.000,25224,2,EA,1,100,0.386400
1572441134.333421,146632.500,25242,2,EA,1,100,0.386050
1572441134.400433,146685.000,25242,2,EA,1,100,0.386302
1572441134.466806,146737.000,25261,2,EA,1,100,0.385947
1572441134.533180,146789.000,25261,2,EA,1,100,0.386145
1572441134.600192,146841.500,25279,2,EA,1,100,0.386199
1572441134.667204,146894.000,25279,2,EA,1,100,0.386370
1572441134.734215,146946.500,25297,2,EA,1,100,0.386328
1572441134.801227,146999.000,25297,2,EA,1,100,0.385980
1572441134.866324,147050.000,25315,1,EA,1,100,0.386141
1572441134.933336,147102.500,25333,2,EA,1,100,0.386415
1572441135.000348,147155.000,25333,2,EA,1,100,0.386358
1572441135.066083,147206.500,25351,2,EA,1,100,0.386110
1572441135.131819,147258.000,25351,2,EA,1,100,0.386239
1572441135.198192,147310.000,25368,2,EA,1,100,0.385957
1572441135.264566,147362.000,25368,2,EA,1,100,0.386324
1572441135.332216,147415.000,25386,2,EA,1,100,0.386302
1572441135.399866,147468.000,25386,2,EA,1,100,0.386370
1572441135.465601,147519.500,25405,2,EA,1,100,0.386310
1572441135.531337,147571.000,25405,2,EA,1,100,0.386106
1572441135.598986,147624.000,25423,2,EA,1,100,0.385913
1572441135.666636,147677.000,25423,2,EA,1,100,0.386098
1572441135.733648,147729.500,25441,2,EA,1,100,0.386310
1572441135.800660,147782.000,25441,2,EA,1,100,0.386117
1572441135.866395,147833.500,25459,2,EA,1,100,0.385828
1572441135.932131,147885.000,25459,2,EA,1,100,0.386058
1572441135.999142,147937.500,25477,2,EA,1,100,0.386102
1572441136.066154,147990.000,25477,2,EA,1,100,0.386201
1572441136.132528,148042.000,25495,2,EA,1,100,0.386346
1572441136.198901,148094.000,25495,2,EA,1,100,0.386358
1572441136.265913,148146.500,25511,2,EA,1,100,0.386294
1572441136.332925,148199.000,25511,2,EA,1,100,0.386209
1572441136.399937,148251.500,25529,2,EA,1,100,0.386179
1572441136.466949,148304.000,25529,2,EA,1,100,0.386221
1572441136.534599,148357.000,25548,2,EA,1,100,0.386249
1572441136.602248,148410.000,25548,2,EA,1,100,0.385998
1572441136.669260,148462.500,25566,2,EA,1,100,0.385879
1572441136.736272,148515.000,25566,2,EA,1,100,0.386159
1572441136.803922,148568.000,25584,1,EA,1,100,0.386187
1572441136.869657,148619.500,25602,2,EA,1,100,0.386447
1572441136.935393,148671.000,25602,2,EA,1,100,0.386028
1572441137.001766,148723.000,25620,2,EA,1,100,0.386231
1572441137.068140,148775.000,25620,2,EA,1,100,0.386217
1572441137.133875,148826.500,25638,2,EA,1,100,0.386153
1572441137.199611,148878.000,25638,2,EA,1,100,0.386080
1572441137.265346,148929.500,25656,2,EA,1,100,0.386143
1572441137.331081,148981.000,25656,2,EA,1,100,0.385955
1572441137.397455,149033.000,25674,2,EA,1,100,0.386022
1572441137.463829,149085.000,25674,2,EA,1,100,0.385796
1572441137.530840,149137.500,25693,2,EA,1,100,0.386131
1572441137.597852,149190.000,25693,2,EA,1,100,0.385917
1572441137.664651,149242.333,25714,3,EA,1,100,0.386046
1572441137.731450,149294.667,25714,3,EA,1,100,0.386082
1572441137.798249,149347.000,25714,3,EA,1,100,0.386046
1572441137.863985,149398.500,25733,2,EA,1,100,0.386090
1572441137.929720,149450.000,25733,2,EA,1,100,0.386336
1572441137.996094,149502.000,25751,2,EA,1,100,0.386223
1572441138.062467,149554.000,25751,2,EA,1,100,0.386032
1572441138.129479,149606.500,25769,2,EA,1,100,0.386030
1572441138.196491,149659.000,25769,2,EA,1,100,0.385732
1572441138.262226,149710.500,25787,2,EA,1,100,0.386153
1572441138.327961,149762.000,25787,2,EA,1,100,0.385949
1572441138.394335,149814.000,25805,2,EA,1,100,0.386038
1572441138.460708,149866.000,25805,2,EA,1,100,0.386189
1572441138.528358,149919.000,25824,2,EA,1,100,0.386104
1572441138.596008,149972.000,25824,2,EA,1,100,0.385740
1572441138.662382,150024.000,25842,2,EA,1,100,0.386030
1572441138.728755,150076.000,25842,2,EA,1,100,0.386362
1572441138.796406,150129.000,25860,2,EA,1,100,0.386191
1572441138.864055,150182.000,25860,2,EA,1,100,0.385931
1572441138.931067,150234.500,25876,2,EA,1,100,0.386185
1572441138.998079,150287.000,25876,2,EA,1,100,0.385969
1572441139.063814,150338.500,25894,2,EA,1,100,0.386157
1572441139.129550,150390.000,25894,2,EA,1,100,0.386173
1572441139.196562,150442.500,25912,2,EA,1,100,0.386274
1572441139.263573,150495.000,25912,2,EA,1,100,0.385857
1572441139.329947,150547.000,25930,2,EA,1,100,0.386024
1572441139.396321,150599.000,25930,2,EA,1,100,0.386133
1572441139.462694,150651.000,25948,1,EA,1,100,0.386223
1572441139.530344,150704.000,25967,2,EA,1,100,0.385780
1572441139.597994,150757.000,25967,2,EA,1,100,0.386000
1572441139.665006,150809.500,25985,2,EA,1,100,0.385824
1572441139.732018,150862.000,25985,2,EA,1,100,0.385945
1572441139.799029,150914.500,26003,2,EA,1,100,0.386175
1572441139.866041,150967.000,26003,2,EA,1,100,0.386050
1572441139.933053,151019.500,26021,2,EA,1,100,0.386038
1572441140.000065,151072.000,26021,2,EA,1,100,0.385941
1572441140.065800,151123.500,26039,2,EA,1,100,0.386209
1572441140.131535,151175.000,26039,2,EA,1,100,0.385931
1572441140.197909,151227.000,26057,2,EA,1,100,0.386123
1572441140.264282,151279.000,26057,2,EA,1,100,0.386102
1572441140.330018,151330.500,26075,2,EA,1,100,0.386272
1572441140.395753,151382.000,26075,2,EA,1,100,0.386348
1572441140.462127,151434.000,26093,2,EA,1,100,0.386233
1572441140.528500,151486.000,26093,2,EA,1,100,0.385939
1572441140.595512,151538.500,26112,2,EA,1,100,0.386322
1572441140.662524,151591.000,26112,2,EA,1,100,0.386094
1572441140.729536,151643.500,26130,2,EA,1,100,0.386062
1572441140.796547,151696.000,26130,2,EA,1,100,0.386235
1572441140.862921,151748.000,26148,2,EA,1,100,0.386268
1572441140.929295,151800.000,26148,2,EA,1,100,0.386048
1572441140.995668,151852.000,26166,2,EA,1,100,0.386354
1572441141.062042,151904.000,26166,2,EA,1,100,0.386175
1572441141.129054,151956.500,26184,2,EA,1,100,0.386094
1572441141.196065,152009.000,26184,2,EA,1,100,0.385820
1572441141.261801,152060.500,26202,2,EA,1,100,0.386266
1572441141.327536,152112.000,26202,2,EA,1,100,0.386086
1572441141.393910,152164.000,26220,2,EA,1,100,0.385925
1572441141.460283,152216.000,26220,2,EA,1,100,0.385899
1572441141.526657,152268.000,26239,1,EA,1,100,0.386113
1572441141.594307,152321.000,26257,2,EA,1,100,0.386143
1572441141.661957,152374.000,26257,2,EA,1,100,0.385986
1572441141.729607,152427.000,26275,2,EA,1,100,0.386022
1572441141.797257,152480.000,26275,2,EA,1,100,0.386185
1572441141.863630,152532.000,26292,2,EA,1,100,0.386185
1572441141.930004,152584.000,26292,2,EA,1,100,0.385941
1572441141.997654,152637.000,26310,2,EA,1,100,0.385865
1572441142.065304,152690.000,26310,2,EA,1,100,0.386006
1572441142.131677,152742.000,26328,2,EA,1,100,0.385786
1572441142.198051,152794.000,26328,2,EA,1,100,0.386018
1572441142.263786,152845.500,26346,2,EA,1,100,0.385949
1572441142.329522,152897.000,26346,2,EA,1,100,0.385929
1572441142.396533,152949.500,26364,2,EA,1,100,0.385907
1572441142.463545,153002.000,26364,2,EA,1,100,0.385784
1572441142.529919,153054.000,26383,2,EA,1,100,0.386117
1572441142.596292,153106.000,26383,2,EA,1,100,0.385698
1572441142.663304,153158.500,26401,2,EA,1,100,0.386082
1572441142.730316,153211.000,26401,2,EA,1,100,0.385814
1572441142.797328,153263.500,26417,2,EA,1,100,0.386217
1572441142.864340,153316.000,26417,2,EA,1,100,0.385635
1572441142.931989,153369.000,26435,2,EA,1,100,0.385905
1572441142.999640,153422.000,26435,2,EA,1,100,0.385853
1572441143.065375,153473.500,26453,2,EA,1,100,0.386264
1572441143.131110,153525.000,26453,2,EA,1,100,0.385901
1572441143.197484,153577.000,26471,2,EA,1,100,0.385943
1572441143.263857,153629.000,26471,2,EA,1,100,0.385820
1572441143.329593,153680.500,26489,2,EA,1,100,0.385990
1572441143.395328,153732.000,26489,2,EA,1,100,0.385967
1572441143.461702,153784.000,26507,1,EA,1,100,0.385978
1572441143.527437,153835.500,26526,2,EA,1,100,0.386090
1572441143.593172,153887.000,26526,2,EA,1,100,0.385859
1572441143.659546,153939.000,26544,2,EA,1,100,0.386302
1572441143.725919,153991.000,26544,2,EA,1,100,0.386024
1572441143.792931,154043.500,26562,2,EA,1,100,0.386243
1572441143.859943,154096.000,26562,2,EA,1,100,0.386123
1572441143.926955,154148.500,26580,2,EA,1,100,0.385887
1572441143.993967,154201.000,26580,2,EA,1,100,0.386002
1572441144.059702,154252.500,26598,2,EA,1,100,0.385998
1572441144.125437,154304.000,26598,2,EA,1,100,0.385972
1572441144.191811,154356.000,26619,3,EA,1,100,0.385996
1572441144.258184,154408.000,26619,3,EA,1,100,0.386382
1572441144.324558,154460.000,26619,3,EA,1,100,0.385889
1572441144.390932,154512.000,26638,2,EA,1,100,0.385897
1572441144.457305,154564.000,26638,2,EA,1,100,0.386197
1572441144.524955,154617.000,26658,2,EA,1,100,0.385873
1572441144.592605,154670.000,26658,2,EA,1,100,0.386024
1572441144.658340,154721.500,26675,2,EA,1,100,0.385913
1572441144.724076,154773.000,26675,2,EA,1,100,0.385847
1572441144.791726,154826.000,26693,2,EA,1,100,0.385853
1572441144.859376,154879.000,26693,2,EA,1,100,0.385806
1572441144.927026,154932.000,26711,2,EA,1,100,0.385891
1572441144.994676,154985.000,26711,2,EA,1,100,0.385965
1572441145.061049,155037.000,26729,2,EA,1,100,0.385877
1572441145.127423,155089.000,26729,2,EA,1,100,0.385683
1572441145.195073,155142.000,26747,2,EA,1,100,0.385851
1572441145.262723,155195.000,26747,2,EA,1,100,0.386131
1572441145.329097,155247.000,26765,2,EA,1,100,0.386078
1572441145.395470,155299.000,26765,2,EA,1,100,0.385812
1572441145.461205,155350.500,26781,2,EA,1,100,0.386108
1572441145.526941,155402.000,26781,2,EA,1,100,0.385915
1572441145.593952,155454.500,26800,2,EA,1,100,0.385899
1572441145.660964,155507.000,26800,2,EA,1,100,0.386030
1572441145.727976,155559.500,26818,2,EA,1,100,0.385973
1572441145.794988,155612.000,26818,2,EA,1,100,0.385980
1572441145.862000,155664.500,26836,2,EA,1,100,0.385973
1572441145.929011,155717.000,26836,2,EA,1,100,0.385871
1572441145.996661,155770.000,26854,1,EA,1,100,0.385972
1572441146.063673,155822.500,26872,2,EA,1,100,0.386066
1572441146.130685,155875.000,26872,2,EA,1,100,0.385871
1572441146.197697,155927.500,26890,2,EA,1,100,0.385945
1572441146.264709,155980.000,26890,2,EA,1,100,0.386070
1572441146.331082,156032.000,26908,2,EA,1,100,0.385996
1572441146.397456,156084.000,26908,2,EA,1,100,0.385992
1572441146.463829,156136.000,26926,2,EA,1,100,0.386036
1572441146.530203,156188.000,26926,2,EA,1,100,0.385732
1572441146.596576,156240.000,26945,2,EA,1,100,0.385826
1572441146.662950,156292.000,26945,2,EA,1,100,0.385945
1572441146.729962,156344.500,26963,2,EA,1,100,0.385873
1572441146.796973,156397.000,26963,2,EA,1,100,0.385982
1572441146.863347,156449.000,26981,2,EA,1,100,0.385925
1572441146.929721,156501.000,26981,2,EA,1,100,0.385899
1572441146.996732,156553.500,26999,2,EA,1,100,0.385963
1572441147.063744,156606.000,26999,2,EA,1,100,0.385649
1572441147.130756,156658.500,27017,2,EA,1,100,0.385718
1572441147.197768,156711.000,27017,2,EA,1,100,0.385681
1572441147.263503,156762.500,27035,2,EA,1,100,0.385869
1572441147.329238,156814.000,27035,2,EA,1,100,0.385726
1572441147.395612,156866.000,27053,2,EA,1,100,0.385925
1572441147.461986,156918.000,27053,2,EA,1,100,0.385690
1572441147.528359,156970.000,27071,2,EA,1,100,0.385927
1572441147.594733,157022.000,27071,2,EA,1,100,0.385728
1572441147.659830,157073.000,27090,2,EA,1,100,0.385911
1572441147.724927,157124.000,27090,2,EA,1,100,0.385528
1572441147.792577,157177.000,27108,2,EA,1,100,0.385577
1572441147.860227,157230.000,27108,2,EA,1,100,0.385685
1572441147.927877,157283.000,27126,2,EA,1,100,0.385816
1572441147.995527,157336.000,27126,2,EA,1,100,0.385752
1572441148.061901,157388.000,27144,1,EA,1,100,0.385651
1572441148.129550,157441.000,27162,2,EA,1,100,0.385498
1572441148.197201,157494.000,27162,2,EA,1,100,0.385698
1572441148.262936,157545.500,27180,2,EA,1,100,0.385708
1572441148.328671,157597.000,27180,2,EA,1,100,0.386080
1572441148.395683,157649.500,27197,2,EA,1,100,0.386018
1572441148.462695,157702.000,27197,2,EA,1,100,0.385863
1572441148.529068,157754.000,27215,2,EA,1,100,0.385901
1572441148.595442,157806.000,27215,2,EA,1,100,0.385546
1572441148.661177,157857.500,27234,2,EA,1,100,0.385603
1572441148.726913,157909.000,27234,2,EA,1,100,0.385589
1572441148.793924,157961.500,27252,2,EA,1,100,0.385599
1572441148.860936,158014.000,27252,2,EA,1,100,0.385710
1572441148.928586,158067.000,27270,2,EA,1,100,0.385998
1572441148.996236,158120.000,27270,2,EA,1,100,0.386185
1572441149.063248,158172.500,27288,2,EA,1,100,0.386119
1572441149.130260,158225.000,27288,2,EA,1,100,0.386020
1572441149.197272,158277.500,27306,2,EA,1,100,0.385754
1572441149.264283,158330.000,27306,2,EA,1,100,0.385861
1572441149.330657,158382.000,27322,2,EA,1,100,0.385794
1572441149.397030,158434.000,27322,2,EA,1,100,0.385937
1572441149.463404,158486.000,27340,2,EA,1,100,0.385746
1572441149.529778,158538.000,27340,2,EA,1,100,0.385756
1572441149.596151,158590.000,27358,2,EA,1,100,0.385929
1572441149.662525,158642.000,27358,2,EA,1,100,0.385913
1572441149.728898,158694.000,27377,2,EA,1,100,0.386050
1572441149.795272,158746.000,27377,2,EA,1,100,0.385780
1572441149.861645,158798.000,27395,2,EA,1,100,0.385728
1572441149.928019,158850.000,27395,2,EA,1,100,0.385879
1572441149.995669,158903.000,27413,1,EA,1,100,0.386090
1572441150.062042,158955.000,27431,2,EA,1,100,0.385826
1572441150.128416,159007.000,27431,2,EA,1,100,0.386076
1572441150.195428,159059.500,27449,2,EA,1,100,0.385973
1572441150.262440,159112.000,27449,2,EA,1,100,0.386028
1572441150.329451,159164.500,27467,2,EA,1,100,0.385925
1572441150.396463,159217.000,27467,2,EA,1,100,0.386070
1572441150.461560,159268.000,27485,2,EA,1,100,0.386344
1572441150.526658,159319.000,27485,2,EA,1,100,0.385857
1572441150.593031,159371.000,27503,2,EA,1,100,0.386193
1572441150.659405,159423.000,27503,2,EA,1,100,0.385839
1572441150.725140,159474.500,27525,4,EA,1,100,0.385943
1572441150.790875,159526.000,27525,4,EA,1,100,0.385963
1572441150.856611,159577.500,27525,4,EA,1,100,0.386064
1572441150.922346,159629.000,27525,4,EA,1,100,0.386022
1572441150.989996,159682.000,27544,2,EA,1,100,0.386086
1572441151.057646,159735.000,27544,2,EA,1,100,0.386137
1572441151.125296,159788.000,27563,2,EA,1,100,0.386074
1572441151.192946,159841.000,27563,2,EA,1,100,0.386086
1572441151.259320,159893.000,27581,1,EA,1,100,0.385542
1572441151.326970,159946.000,27599,2,EA,1,100,0.386108
1572441151.394620,159999.000,27599,2,EA,1,100,0.385881
1572441151.460355,160050.500,27617,2,EA,1,100,0.385994
1572441151.526090,160102.000,27617,2,EA,1,100,0.386040
1572441151.593102,160154.500,27634,2,EA,1,100,0.385893
1572441151.660114,160207.000,27634,2,EA,1,100,0.386078
1572441151.726487,160259.000,27653,2,EA,1,100,0.385978
1572441151.792861,160311.000,27653,2,EA,1,100,0.386259
1572441151.859235,160363.000,27671,2,EA,1,100,0.386026
1572441151.925608,160415.000,27671,2,EA,1,100,0.385909
1572441151.992620,160467.500,27689,2,EA,1,100,0.386012
1572441152.059632,160520.000,27689,2,EA,1,100,0.386139
1572441152.127282,160573.000,27707,2,EA,1,100,0.385909
1572441152.194932,160626.000,27707,2,EA,1,100,0.385957
1572441152.261943,160678.500,27725,2,EA,1,100,0.386179
1572441152.328955,160731.000,27725,2,EA,1,100,0.386060
1572441152.396605,160784.000,27743,2,EA,1,100,0.386070
1572441152.464255,160837.000,27743,2,EA,1,100,0.386082
1572441152.530629,160889.000,27759,2,EA,1,100,0.385980
1572441152.597002,160941.000,27759,2,EA,1,100,0.386125
1572441152.663376,160993.000,27777,2,EA,1,100,0.386100
1572441152.729749,161045.000,27777,2,EA,1,100,0.386000
1572441152.796123,161097.000,27796,2,EA,1,100,0.386018
1572441152.862497,161149.000,27796,2,EA,1,100,0.385917
1572441152.928870,161201.000,27814,2,EA,1,100,0.385891
1572441152.995244,161253.000,27814,2,EA,1,100,0.386121
1572441153.061617,161305.000,27832,2,EA,1,100,0.386193
1572441153.127991,161357.000,27832,2,EA,1,100,0.386388
1572441153.195641,161410.000,27850,1,EA,1,100,0.386096
1572441153.262014,161462.000,27868,2,EA,1,100,0.385973
1572441153.328388,161514.000,27868,2,EA,1,100,0.385967
1572441153.395400,161566.500,27886,2,EA,1,100,0.385992
1572441153.462412,161619.000,27886,2,EA,1,100,0.385992
1572441153.528785,161671.000,27904,2,EA,1,100,0.386292
1572441153.595159,161723.000,27904,2,EA,1,100,0.386167
1572441153.660256,161774.000,27922,2,EA,1,100,0.385994
1572441153.725353,161825.000,27922,2,EA,1,100,0.386205
