EpochTimestamp,EmotiBitTimestamp,PacketNumber,DataLength,TypeTag,ProtocolVersion,DataReliability,GY
1572440326.890601,66139.000,10894,12,GY,1,100,18.158
1572440326.890601,66139.000,10894,12,GY,1,100,19.928
1572440326.890601,66139.000,10894,12,GY,1,100,29.999
1572440326.890601,66139.000,10894,12,GY,1,100,5.188
1572440326.890601,66139.000,10894,12,GY,1,100,5.554
1572440326.890601,66139.000,10894,12,GY,1,100,5.249
1572440326.890601,66139.000,10894,12,GY,1,100,3.815
1572440326.890601,66139.000,10894,12,GY,1,100,3.723
1572440326.890601,66139.000,10894,12,GY,1,100,3.662
1572440326.890601,66139.000,10894,12,GY,1,100,4.974
1572440326.890601,66139.000,10894,12,GY,1,100,3.082
1572440326.890601,66139.000,10894,12,GY,1,100,4.761
1572440326.907376,66152.143,10912,7,GY,1,100,4.120
1572440326.924151,66165.286,10912,7,GY,1,100,3.204
1572440326.940927,66178.429,10912,7,GY,1,100,3.296
1572440326.957702,66191.571,10912,7,GY,1,100,4.395
1572440326.974477,66204.714,10912,7,GY,1,100,5.981
1572440326.991253,66217.857,10912,7,GY,1,100,8.636
1572440327.008028,66231.000,10912,7,GY,1,100,9.155
1572440327.024461,66243.875,10930,8,GY,1,100,10.834
1572440327.040895,66256.750,10930,8,GY,1,100,11.566
1572440327.057328,66269.625,10930,8,GY,1,100,11.230
1572440327.073761,66282.500,10930,8,GY,1,100,11.658
1572440327.090195,66295.375,10930,8,GY,1,100,15.015
1572440327.106628,66308.250,10930,8,GY,1,100,17.914
1572440327.123062,66321.125,10930,8,GY,1,100,20.874
1572440327.139495,66334.000,10930,8,GY,1,100,14.374
1572440327.156248,66347.125,10948,8,GY,1,100,11.353
1572440327.173000,66360.250,10948,8,GY,1,100,11.536
1572440327.189753,66373.375,10948,8,GY,1,100,12.878
1572440327.206505,66386.500,10948,8,GY,1,100,11.688
1572440327.223258,66399.625,10948,8,GY,1,100,10.040
1572440327.240010,66412.750,10948,8,GY,1,100,12.329
1572440327.256763,66425.875,10948,8,GY,1,100,11.993
1572440327.273515,66439.000,10948,8,GY,1,100,5.890
1572440327.290108,66452.000,10966,8,GY,1,100,4.272
1572440327.306701,66465.000,10966,8,GY,1,100,5.280
1572440327.323294,66478.000,10966,8,GY,1,100,14.374
1572440327.339887,66491.000,10966,8,GY,1,100,19.592
1572440327.356480,66504.000,10966,8,GY,1,100,19.989
1572440327.373073,66517.000,10966,8,GY,1,100,24.200
1572440327.389665,66530.000,10966,8,GY,1,100,25.177
1572440327.406258,66543.000,10966,8,GY,1,100,22.552
1572440327.422669,66555.857,10984,7,GY,1,100,16.998
1572440327.439080,66568.714,10984,7,GY,1,100,15.503
1572440327.455490,66581.571,10984,7,GY,1,100,17.944
1572440327.471901,66594.429,10984,7,GY,1,100,21.667
1572440327.488311,66607.286,10984,7,GY,1,100,20.477
1572440327.504722,66620.143,10984,7,GY,1,100,14.404
1572440327.521133,66633.000,10984,7,GY,1,100,18.982
1572440327.537885,66646.125,11002,8,GY,1,100,21.637
1572440327.554638,66659.250,11002,8,GY,1,100,27.832
1572440327.571390,66672.375,11002,8,GY,1,100,28.046
1572440327.588143,66685.500,11002,8,GY,1,100,24.261
1572440327.604895,66698.625,11002,8,GY,1,100,18.799
1572440327.621648,66711.750,11002,8,GY,1,100,20.172
1572440327.638400,66724.875,11002,8,GY,1,100,29.388
1572440327.655153,66738.000,11002,8,GY,1,100,28.046
1572440327.672065,66751.250,11020,8,GY,1,100,24.048
1572440327.688977,66764.500,11020,8,GY,1,100,21.942
1572440327.705889,66777.750,11020,8,GY,1,100,20.233
1572440327.722800,66791.000,11020,8,GY,1,100,17.670
1572440327.739713,66804.250,11020,8,GY,1,100,4.791
1572440327.756625,66817.500,11020,8,GY,1,100,-3.754
1572440327.773537,66830.750,11020,8,GY,1,100,-6.195
1572440327.790449,66844.000,11020,8,GY,1,100,-15.106
1572440327.807224,66857.143,11037,7,GY,1,100,-23.468
1572440327.823999,66870.286,11037,7,GY,1,100,-22.675
1572440327.840775,66883.429,11037,7,GY,1,100,-19.501
1572440327.857550,66896.571,11037,7,GY,1,100,-21.393
1572440327.874325,66909.714,11037,7,GY,1,100,-26.703
1572440327.891100,66922.857,11037,7,GY,1,100,-28.870
1572440327.907876,66936.000,11037,7,GY,1,100,-23.254
1572440327.924947,66949.375,11055,8,GY,1,100,-18.311
1572440327.942019,66962.750,11055,8,GY,1,100,-7.050
1572440327.959090,66976.125,11055,8,GY,1,100,-6.104
1572440327.976162,66989.500,11055,8,GY,1,100,-2.289
1572440327.993234,67002.875,11055,8,GY,1,100,-0.488
1572440328.010305,67016.250,11055,8,GY,1,100,-2.014
1572440328.027377,67029.625,11055,8,GY,1,100,-5.707
1572440328.044448,67043.000,11055,8,GY,1,100,-1.465
1572440328.061360,67056.250,11073,8,GY,1,100,1.312
1572440328.078272,67069.500,11073,8,GY,1,100,6.653
1572440328.095184,67082.750,11073,8,GY,1,100,7.690
1572440328.112097,67096.000,11073,8,GY,1,100,8.392
1572440328.129009,67109.250,11073,8,GY,1,100,0.488
1572440328.145921,67122.500,11073,8,GY,1,100,-1.343
1572440328.162832,67135.750,11073,8,GY,1,100,-1.099
1572440328.179744,67149.000,11073,8,GY,1,100,0.488
1572440328.196155,67161.857,11091,7,GY,1,100,2.289
1572440328.212566,67174.714,11091,7,GY,1,100,2.533
1572440328.228976,67187.571,11091,7,GY,1,100,5.432
1572440328.245387,67200.429,11091,7,GY,1,100,5.829
1572440328.261798,67213.286,11091,7,GY,1,100,3.967
1572440328.278208,67226.143,11091,7,GY,1,100,3.967
1572440328.294619,67239.000,11091,7,GY,1,100,3.143
1572440328.311212,67252.000,11109,8,GY,1,100,3.052
1572440328.327805,67265.000,11109,8,GY,1,100,1.923
1572440328.344398,67278.000,11109,8,GY,1,100,1.678
1572440328.360991,67291.000,11109,8,GY,1,100,0.671
1572440328.377584,67304.000,11109,8,GY,1,100,0.153
1572440328.394176,67317.000,11109,8,GY,1,100,0.671
1572440328.410769,67330.000,11109,8,GY,1,100,-0.244
1572440328.427362,67343.000,11109,8,GY,1,100,-1.648
1572440328.444115,67356.125,11127,8,GY,1,100,-1.251
1572440328.460867,67369.250,11127,8,GY,1,100,-6.378
1572440328.477620,67382.375,11127,8,GY,1,100,-4.730
1572440328.494372,67395.500,11127,8,GY,1,100,-3.845
1572440328.511125,67408.625,11127,8,GY,1,100,-3.143
1572440328.527877,67421.750,11127,8,GY,1,100,-3.693
1572440328.544630,67434.875,11127,8,GY,1,100,2.014
1572440328.561382,67448.000,11127,8,GY,1,100,10.681
1572440328.578135,67461.125,11145,8,GY,1,100,14.618
1572440328.594887,67474.250,11145,8,GY,1,100,14.221
1572440328.611639,67487.375,11145,8,GY,1,100,10.468
1572440328.628392,67500.500,11145,8,GY,1,100,10.132
1572440328.645144,67513.625,11145,8,GY,1,100,12.390
1572440328.661897,67526.750,11145,8,GY,1,100,12.482
1572440328.678649,67539.875,11145,8,GY,1,100,12.207
1572440328.695402,67553.000,11145,8,GY,1,100,9.918
1572440328.712177,67566.143,11163,7,GY,1,100,9.796
1572440328.728953,67579.286,11163,7,GY,1,100,10.406
1572440328.745728,67592.429,11163,7,GY,1,100,11.169
1572440328.762503,67605.571,11163,7,GY,1,100,11.810
1572440328.779279,67618.714,11163,7,GY,1,100,10.345
1572440328.796054,67631.857,11163,7,GY,1,100,5.341
1572440328.812829,67645.000,11163,7,GY,1,100,5.676
1572440328.829422,67658.000,11182,8,GY,1,100,4.364
1572440328.846015,67671.000,11182,8,GY,1,100,3.174
1572440328.862608,67684.000,11182,8,GY,1,100,2.045
1572440328.879201,67697.000,11182,8,GY,1,100,0.519
1572440328.895794,67710.000,11182,8,GY,1,100,-0.824
1572440328.912387,67723.000,11182,8,GY,1,100,3.174
1572440328.928980,67736.000,11182,8,GY,1,100,4.395
1572440328.945572,67749.000,11182,8,GY,1,100,-0.793
1572440328.962485,67762.250,11200,8,GY,1,100,0.488
1572440328.979397,67775.500,11200,8,GY,1,100,0.641
1572440328.996309,67788.750,11200,8,GY,1,100,-0.336
1572440329.013221,67802.000,11200,8,GY,1,100,-1.099
1572440329.030133,67815.250,11200,8,GY,1,100,-1.343
1572440329.047045,67828.500,11200,8,GY,1,100,0.580
1572440329.063957,67841.750,11200,8,GY,1,100,2.625
1572440329.080869,67855.000,11200,8,GY,1,100,7.904
1572440329.097097,67867.714,11218,7,GY,1,100,1.068
1572440329.113325,67880.429,11218,7,GY,1,100,2.014
1572440329.129554,67893.143,11218,7,GY,1,100,5.280
1572440329.145782,67905.857,11218,7,GY,1,100,6.256
1572440329.162010,67918.571,11218,7,GY,1,100,6.439
1572440329.178238,67931.286,11218,7,GY,1,100,5.463
1572440329.194467,67944.000,11218,7,GY,1,100,6.287
1572440329.211060,67957.000,11236,8,GY,1,100,8.270
1572440329.227652,67970.000,11236,8,GY,1,100,3.357
1572440329.244245,67983.000,11236,8,GY,1,100,1.770
1572440329.260838,67996.000,11236,8,GY,1,100,2.350
1572440329.277431,68009.000,11236,8,GY,1,100,6.042
1572440329.294024,68022.000,11236,8,GY,1,100,5.951
1572440329.310617,68035.000,11236,8,GY,1,100,7.721
1572440329.327210,68048.000,11236,8,GY,1,100,9.003
1572440329.343643,68060.875,11254,8,GY,1,100,6.866
1572440329.360077,68073.750,11254,8,GY,1,100,3.143
1572440329.376510,68086.625,11254,8,GY,1,100,3.876
1572440329.392944,68099.500,11254,8,GY,1,100,6.683
1572440329.409377,68112.375,11254,8,GY,1,100,25.055
1572440329.425810,68125.250,11254,8,GY,1,100,40.497
1572440329.442244,68138.125,11254,8,GY,1,100,71.381
1572440329.458677,68151.000,11254,8,GY,1,100,104.614
1572440329.475111,68163.875,11272,8,GY,1,100,103.271
1572440329.491544,68176.750,11272,8,GY,1,100,74.585
1572440329.507977,68189.625,11272,8,GY,1,100,-4.059
1572440329.524411,68202.500,11272,8,GY,1,100,-37.354
1572440329.540844,68215.375,11272,8,GY,1,100,-71.106
1572440329.557277,68228.250,11272,8,GY,1,100,-78.125
1572440329.573711,68241.125,11272,8,GY,1,100,-84.839
1572440329.590144,68254.000,11272,8,GY,1,100,-85.602
1572440329.607056,68267.250,11290,8,GY,1,100,-87.158
1572440329.623968,68280.500,11290,8,GY,1,100,-84.961
1572440329.640880,68293.750,11290,8,GY,1,100,-33.600
1572440329.657792,68307.000,11290,8,GY,1,100,180.176
1572440329.674705,68320.250,11290,8,GY,1,100,319.580
1572440329.691617,68333.500,11290,8,GY,1,100,-24.994
1572440329.708529,68346.750,11290,8,GY,1,100,-229.980
1572440329.725441,68360.000,11290,8,GY,1,100,-85.419
1572440329.741874,68372.875,11308,8,GY,1,100,2.716
1572440329.758307,68385.750,11308,8,GY,1,100,-48.370
1572440329.774741,68398.625,11308,8,GY,1,100,-50.385
1572440329.791174,68411.500,11308,8,GY,1,100,-37.537
1572440329.807607,68424.375,11308,8,GY,1,100,-69.183
1572440329.824041,68437.250,11308,8,GY,1,100,-71.198
1572440329.840474,68450.125,11308,8,GY,1,100,-60.394
1572440329.856908,68463.000,11308,8,GY,1,100,-57.007
1572440329.873865,68476.286,11327,7,GY,1,100,-54.016
1572440329.890823,68489.571,11327,7,GY,1,100,-58.197
1572440329.907780,68502.857,11327,7,GY,1,100,-39.307
1572440329.924738,68516.143,11327,7,GY,1,100,-44.922
1572440329.941696,68529.429,11327,7,GY,1,100,-14.282
1572440329.958653,68542.714,11327,7,GY,1,100,10.376
1572440329.975611,68556.000,11327,7,GY,1,100,70.374
1572440329.992363,68569.125,11345,8,GY,1,100,154.297
1572440330.009116,68582.250,11345,8,GY,1,100,-289.062
1572440330.025868,68595.375,11345,8,GY,1,100,61.523
1572440330.042621,68608.500,11345,8,GY,1,100,61.951
1572440330.059373,68621.625,11345,8,GY,1,100,-196.075
1572440330.076126,68634.750,11345,8,GY,1,100,9.644
1572440330.092878,68647.875,11345,8,GY,1,100,24.902
1572440330.109631,68661.000,11345,8,GY,1,100,-14.038
1572440330.126224,68674.000,11364,8,GY,1,100,-51.819
1572440330.142817,68687.000,11364,8,GY,1,100,-45.197
1572440330.159410,68700.000,11364,8,GY,1,100,-51.239
1572440330.176003,68713.000,11364,8,GY,1,100,-40.619
1572440330.192595,68726.000,11364,8,GY,1,100,-24.048
1572440330.209188,68739.000,11364,8,GY,1,100,-1.678
1572440330.225781,68752.000,11364,8,GY,1,100,-9.949
1572440330.242374,68765.000,11364,8,GY,1,100,-5.646
1572440330.258603,68777.714,11382,7,GY,1,100,0.763
1572440330.274831,68790.429,11382,7,GY,1,100,38.940
1572440330.291059,68803.143,11382,7,GY,1,100,57.556
1572440330.307287,68815.857,11382,7,GY,1,100,72.357
1572440330.323516,68828.571,11382,7,GY,1,100,160.278
1572440330.339744,68841.286,11382,7,GY,1,100,-248.230
1572440330.355972,68854.000,11382,7,GY,1,100,-51.666
1572440330.372725,68867.125,11400,8,GY,1,100,-80.048
1572440330.389477,68880.250,11400,8,GY,1,100,-165.558
1572440330.406230,68893.375,11400,8,GY,1,100,66.132
1572440330.422982,68906.500,11400,8,GY,1,100,-85.205
1572440330.439735,68919.625,11400,8,GY,1,100,-50.262
1572440330.456487,68932.750,11400,8,GY,1,100,-98.083
1572440330.473240,68945.875,11400,8,GY,1,100,-68.756
1572440330.489992,68959.000,11400,8,GY,1,100,-75.775
1572440330.506425,68971.875,11418,8,GY,1,100,-74.371
1572440330.522859,68984.750,11418,8,GY,1,100,-66.895
1572440330.539292,68997.625,11418,8,GY,1,100,-58.136
1572440330.555726,69010.500,11418,8,GY,1,100,-50.049
1572440330.572159,69023.375,11418,8,GY,1,100,-58.228
1572440330.588592,69036.250,11418,8,GY,1,100,-41.077
1572440330.605026,69049.125,11418,8,GY,1,100,-48.981
1572440330.621459,69062.000,11418,8,GY,1,100,-57.434
1572440330.638371,69075.250,11436,8,GY,1,100,-47.089
1572440330.655283,69088.500,11436,8,GY,1,100,-28.961
1572440330.672195,69101.750,11436,8,GY,1,100,-31.342
1572440330.689107,69115.000,11436,8,GY,1,100,-22.186
1572440330.706019,69128.250,11436,8,GY,1,100,-41.595
1572440330.722931,69141.500,11436,8,GY,1,100,-47.485
1572440330.739843,69154.750,11436,8,GY,1,100,-36.835
1572440330.756755,69168.000,11436,8,GY,1,100,-22.064
1572440330.773531,69181.143,11454,7,GY,1,100,8.942
1572440330.790306,69194.286,11454,7,GY,1,100,14.099
1572440330.807081,69207.429,11454,7,GY,1,100,21.515
1572440330.823857,69220.571,11454,7,GY,1,100,36.469
1572440330.840632,69233.714,11454,7,GY,1,100,7.050
1572440330.857407,69246.857,11454,7,GY,1,100,1.404
1572440330.874182,69260.000,11454,7,GY,1,100,6.836
1572440330.891094,69273.250,11472,8,GY,1,100,7.874
1572440330.908006,69286.500,11472,8,GY,1,100,11.200
1572440330.924918,69299.750,11472,8,GY,1,100,1.648
1572440330.941830,69313.000,11472,8,GY,1,100,-11.017
1572440330.958743,69326.250,11472,8,GY,1,100,6.348
1572440330.975655,69339.500,11472,8,GY,1,100,16.693
1572440330.992567,69352.750,11472,8,GY,1,100,23.987
1572440331.009479,69366.000,11472,8,GY,1,100,31.708
1572440331.026231,69379.125,11490,8,GY,1,100,39.398
1572440331.042984,69392.250,11490,8,GY,1,100,36.072
1572440331.059736,69405.375,11490,8,GY,1,100,32.593
1572440331.076488,69418.500,11490,8,GY,1,100,38.696
1572440331.093241,69431.625,11490,8,GY,1,100,40.344
1572440331.109993,69444.750,11490,8,GY,1,100,32.684
1572440331.126746,69457.875,11490,8,GY,1,100,23.254
1572440331.143498,69471.000,11490,8,GY,1,100,11.444
1572440331.160091,69484.000,11508,8,GY,1,100,-1.434
1572440331.176684,69497.000,11508,8,GY,1,100,-0.061
1572440331.193277,69510.000,11508,8,GY,1,100,1.862
1572440331.209870,69523.000,11508,8,GY,1,100,0.214
1572440331.226463,69536.000,11508,8,GY,1,100,7.690
1572440331.243056,69549.000,11508,8,GY,1,100,4.181
1572440331.259649,69562.000,11508,8,GY,1,100,-7.202
1572440331.276242,69575.000,11508,8,GY,1,100,-3.204
1572440331.292835,69588.000,11526,7,GY,1,100,-0.549
1572440331.309428,69601.000,11526,7,GY,1,100,-3.296
1572440331.326021,69614.000,11526,7,GY,1,100,-8.698
1572440331.342614,69627.000,11526,7,GY,1,100,-7.507
1572440331.359207,69640.000,11526,7,GY,1,100,-5.432
1572440331.375800,69653.000,11526,7,GY,1,100,-6.927
1572440331.392393,69666.000,11526,7,GY,1,100,-5.341
1572440331.409145,69679.125,11544,8,GY,1,100,-5.890
1572440331.425898,69692.250,11544,8,GY,1,100,-8.759
1572440331.442650,69705.375,11544,8,GY,1,100,-12.573
1572440331.459403,69718.500,11544,8,GY,1,100,-18.311
1572440331.476155,69731.625,11544,8,GY,1,100,-17.944
1572440331.492908,69744.750,11544,8,GY,1,100,-11.322
1572440331.509660,69757.875,11544,8,GY,1,100,-9.674
1572440331.526412,69771.000,11544,8,GY,1,100,-7.690
1572440331.542846,69783.875,11562,8,GY,1,100,-8.087
1572440331.559279,69796.750,11562,8,GY,1,100,-10.681
1572440331.575713,69809.625,11562,8,GY,1,100,-12.970
1572440331.592146,69822.500,11562,8,GY,1,100,-18.372
1572440331.608579,69835.375,11562,8,GY,1,100,-10.406
1572440331.625013,69848.250,11562,8,GY,1,100,-5.829
1572440331.641446,69861.125,11562,8,GY,1,100,-7.843
1572440331.657880,69874.000,11562,8,GY,1,100,-11.993
1572440331.675202,69887.571,11578,7,GY,1,100,-16.296
1572440331.692524,69901.143,11578,7,GY,1,100,-14.771
1572440331.709846,69914.714,11578,7,GY,1,100,-12.604
1572440331.727169,69928.286,11578,7,GY,1,100,-10.742
1572440331.744491,69941.857,11578,7,GY,1,100,-7.080
1572440331.761813,69955.429,11578,7,GY,1,100,-7.233
1572440331.779136,69969.000,11578,7,GY,1,100,-6.500
1572440331.795569,69981.875,11596,8,GY,1,100,-1.373
1572440331.812002,69994.750,11596,8,GY,1,100,-0.275
1572440331.828436,70007.625,11596,8,GY,1,100,1.190
1572440331.844869,70020.500,11596,8,GY,1,100,0.641
1572440331.861303,70033.375,11596,8,GY,1,100,-0.610
1572440331.877736,70046.250,11596,8,GY,1,100,-1.343
1572440331.894169,70059.125,11596,8,GY,1,100,2.899
1572440331.910603,70072.000,11596,8,GY,1,100,6.500
1572440331.927355,70085.125,11615,8,GY,1,100,14.587
1572440331.944108,70098.250,11615,8,GY,1,100,23.285
1572440331.960860,70111.375,11615,8,GY,1,100,26.123
1572440331.977613,70124.500,11615,8,GY,1,100,31.677
1572440331.994365,70137.625,11615,8,GY,1,100,26.947
1572440332.011118,70150.750,11615,8,GY,1,100,25.085
1572440332.027870,70163.875,11615,8,GY,1,100,29.114
1572440332.044623,70177.000,11615,8,GY,1,100,33.752
1572440332.061216,70190.000,11633,7,GY,1,100,35.095
1572440332.077809,70203.000,11633,7,GY,1,100,35.797
1572440332.094401,70216.000,11633,7,GY,1,100,33.325
1572440332.110994,70229.000,11633,7,GY,1,100,28.564
1572440332.127587,70242.000,11633,7,GY,1,100,21.545
1572440332.144180,70255.000,11633,7,GY,1,100,19.745
1572440332.160773,70268.000,11633,7,GY,1,100,15.350
1572440332.177526,70281.125,11651,8,GY,1,100,8.881
1572440332.194278,70294.250,11651,8,GY,1,100,4.242
1572440332.211031,70307.375,11651,8,GY,1,100,-3.326
1572440332.227783,70320.500,11651,8,GY,1,100,-4.669
1572440332.244536,70333.625,11651,8,GY,1,100,-2.716
1572440332.261288,70346.750,11651,8,GY,1,100,0.427
1572440332.278041,70359.875,11651,8,GY,1,100,0.946
1572440332.294793,70373.000,11651,8,GY,1,100,2.258
1572440332.311067,70385.750,11669,8,GY,1,100,0.702
1572440332.327341,70398.500,11669,8,GY,1,100,-2.167
1572440332.343615,70411.250,11669,8,GY,1,100,-7.233
1572440332.359889,70424.000,11669,8,GY,1,100,-1.312
1572440332.376162,70436.750,11669,8,GY,1,100,-5.951
1572440332.392436,70449.500,11669,8,GY,1,100,-4.578
1572440332.408710,70462.250,11669,8,GY,1,100,-1.648
1572440332.424984,70475.000,11669,8,GY,1,100,-2.747
1572440332.441577,70488.000,11687,8,GY,1,100,-4.150
1572440332.458170,70501.000,11687,8,GY,1,100,-2.106
1572440332.474763,70514.000,11687,8,GY,1,100,-0.092
1572440332.491356,70527.000,11687,8,GY,1,100,-2.625
1572440332.507949,70540.000,11687,8,GY,1,100,-1.831
1572440332.524541,70553.000,11687,8,GY,1,100,1.068
1572440332.541134,70566.000,11687,8,GY,1,100,4.242
1572440332.557727,70579.000,11687,8,GY,1,100,5.341
1572440332.574320,70592.000,11705,8,GY,1,100,1.617
1572440332.590913,70605.000,11705,8,GY,1,100,0.610
1572440332.607506,70618.000,11705,8,GY,1,100,0.305
1572440332.624099,70631.000,11705,8,GY,1,100,-0.336
1572440332.640692,70644.000,11705,8,GY,1,100,1.312
1572440332.657285,70657.000,11705,8,GY,1,100,2.625
1572440332.673878,70670.000,11705,8,GY,1,100,5.890
1572440332.690471,70683.000,11705,8,GY,1,100,6.256
1572440332.706904,70695.875,11723,8,GY,1,100,5.096
1572440332.723338,70708.750,11723,8,GY,1,100,4.791
1572440332.739771,70721.625,11723,8,GY,1,100,7.385
1572440332.756204,70734.500,11723,8,GY,1,100,8.209
1572440332.772638,70747.375,11723,8,GY,1,100,12.512
1572440332.789071,70760.250,11723,8,GY,1,100,17.975
1572440332.805505,70773.125,11723,8,GY,1,100,14.587
1572440332.821938,70786.000,11723,8,GY,1,100,13.947
1572440332.838713,70799.143,11741,7,GY,1,100,18.280
1572440332.855489,70812.286,11741,7,GY,1,100,18.066
1572440332.872264,70825.429,11741,7,GY,1,100,13.947
1572440332.889039,70838.571,11741,7,GY,1,100,11.688
1572440332.905814,70851.714,11741,7,GY,1,100,11.810
1572440332.922590,70864.857,11741,7,GY,1,100,9.827
1572440332.939365,70878.000,11741,7,GY,1,100,7.355
1572440332.956117,70891.125,11760,8,GY,1,100,3.479
1572440332.972870,70904.250,11760,8,GY,1,100,0.702
1572440332.989622,70917.375,11760,8,GY,1,100,1.221
1572440333.006375,70930.500,11760,8,GY,1,100,4.425
1572440333.023127,70943.625,11760,8,GY,1,100,0.458
1572440333.039880,70956.750,11760,8,GY,1,100,0.214
1572440333.056632,70969.875,11760,8,GY,1,100,1.068
1572440333.073385,70983.000,11760,8,GY,1,100,-0.397
1572440333.090137,70996.125,11778,8,GY,1,100,0.793
1572440333.106890,71009.250,11778,8,GY,1,100,4.028
1572440333.123642,71022.375,11778,8,GY,1,100,4.517
1572440333.140395,71035.500,11778,8,GY,1,100,5.554
1572440333.157147,71048.625,11778,8,GY,1,100,5.493
1572440333.173900,71061.750,11778,8,GY,1,100,2.319
1572440333.190652,71074.875,11778,8,GY,1,100,2.747
1572440333.207405,71088.000,11778,8,GY,1,100,6.744
1572440333.223899,71100.923,11799,13,GY,1,100,7.538
1572440333.240394,71113.846,11799,13,GY,1,100,8.972
1572440333.256889,71126.769,11799,13,GY,1,100,9.399
1572440333.273384,71139.692,11799,13,GY,1,100,8.270
1572440333.289878,71152.615,11799,13,GY,1,100,6.775
1572440333.306373,71165.538,11799,13,GY,1,100,6.195
1572440333.322868,71178.462,11799,13,GY,1,100,6.287
1572440333.339363,71191.385,11799,13,GY,1,100,4.913
1572440333.355857,71204.308,11799,13,GY,1,100,3.235
1572440333.372352,71217.231,11799,13,GY,1,100,2.197
1572440333.388847,71230.154,11799,13,GY,1,100,0.031
1572440333.405342,71243.077,11799,13,GY,1,100,2.991
1572440333.421836,71256.000,11799,13,GY,1,100,3.174
1572440333.438429,71269.000,11818,7,GY,1,100,2.960
1572440333.455022,71282.000,11818,7,GY,1,100,2.197
1572440333.471615,71295.000,11818,7,GY,1,100,2.502
1572440333.488208,71308.000,11818,7,GY,1,100,5.096
1572440333.504801,71321.000,11818,7,GY,1,100,6.317
1572440333.521394,71334.000,11818,7,GY,1,100,6.989
1572440333.537987,71347.000,11818,7,GY,1,100,10.376
1572440333.554739,71360.125,11836,8,GY,1,100,12.878
1572440333.571492,71373.250,11836,8,GY,1,100,18.677
1572440333.588244,71386.375,11836,8,GY,1,100,21.271
1572440333.604997,71399.500,11836,8,GY,1,100,16.937
1572440333.621749,71412.625,11836,8,GY,1,100,3.540
1572440333.638502,71425.750,11836,8,GY,1,100,2.930
1572440333.655254,71438.875,11836,8,GY,1,100,2.075
1572440333.672007,71452.000,11836,8,GY,1,100,-1.892
1572440333.688600,71465.000,11854,7,GY,1,100,-4.517
1572440333.705193,71478.000,11854,7,GY,1,100,-8.423
1572440333.721786,71491.000,11854,7,GY,1,100,-24.261
1572440333.738379,71504.000,11854,7,GY,1,100,-31.677
1572440333.754972,71517.000,11854,7,GY,1,100,-29.327
1572440333.771564,71530.000,11854,7,GY,1,100,-19.196
1572440333.788157,71543.000,11854,7,GY,1,100,-15.320
1572440333.804910,71556.125,11872,8,GY,1,100,-7.172
1572440333.821662,71569.250,11872,8,GY,1,100,4.669
1572440333.838415,71582.375,11872,8,GY,1,100,7.812
1572440333.855167,71595.500,11872,8,GY,1,100,6.439
1572440333.871920,71608.625,11872,8,GY,1,100,5.310
1572440333.888672,71621.750,11872,8,GY,1,100,2.472
1572440333.905425,71634.875,11872,8,GY,1,100,4.211
1572440333.922177,71648.000,11872,8,GY,1,100,8.392
1572440333.938930,71661.125,11891,8,GY,1,100,7.721
1572440333.955682,71674.250,11891,8,GY,1,100,9.613
1572440333.972435,71687.375,11891,8,GY,1,100,8.057
1572440333.989187,71700.500,11891,8,GY,1,100,7.019
1572440334.005940,71713.625,11891,8,GY,1,100,3.021
1572440334.022692,71726.750,11891,8,GY,1,100,3.754
1572440334.039445,71739.875,11891,8,GY,1,100,2.716
1572440334.056197,71753.000,11891,8,GY,1,100,1.862
1572440334.073337,71766.429,11908,7,GY,1,100,5.035
1572440334.090477,71779.857,11908,7,GY,1,100,2.777
1572440334.107617,71793.286,11908,7,GY,1,100,0.122
1572440334.124757,71806.714,11908,7,GY,1,100,1.404
1572440334.141897,71820.143,11908,7,GY,1,100,2.747
1572440334.159037,71833.571,11908,7,GY,1,100,-3.387
1572440334.176177,71847.000,11908,7,GY,1,100,-5.005
1572440334.192930,71860.125,11925,8,GY,1,100,-1.160
1572440334.209682,71873.250,11925,8,GY,1,100,0.275
1572440334.226434,71886.375,11925,8,GY,1,100,2.319
1572440334.243187,71899.500,11925,8,GY,1,100,4.547
1572440334.259939,71912.625,11925,8,GY,1,100,3.326
1572440334.276692,71925.750,11925,8,GY,1,100,5.066
1572440334.293444,71938.875,11925,8,GY,1,100,8.667
1572440334.310197,71952.000,11925,8,GY,1,100,9.888
1572440334.326949,71965.125,11943,8,GY,1,100,9.827
1572440334.343702,71978.250,11943,8,GY,1,100,8.087
1572440334.360454,71991.375,11943,8,GY,1,100,12.848
1572440334.377207,72004.500,11943,8,GY,1,100,12.634
1572440334.393959,72017.625,11943,8,GY,1,100,11.292
1572440334.410712,72030.750,11943,8,GY,1,100,9.308
1572440334.427464,72043.875,11943,8,GY,1,100,7.690
1572440334.444217,72057.000,11943,8,GY,1,100,7.477
1572440334.461129,72070.250,11961,8,GY,1,100,7.599
1572440334.478041,72083.500,11961,8,GY,1,100,6.165
1572440334.494953,72096.750,11961,8,GY,1,100,0.702
1572440334.511865,72110.000,11961,8,GY,1,100,0.061
1572440334.528777,72123.250,11961,8,GY,1,100,0.702
1572440334.545689,72136.500,11961,8,GY,1,100,-0.458
1572440334.562601,72149.750,11961,8,GY,1,100,-2.411
1572440334.579513,72163.000,11961,8,GY,1,100,-4.761
1572440334.595924,72175.857,11979,7,GY,1,100,-4.913
1572440334.612334,72188.714,11979,7,GY,1,100,-5.951
1572440334.628745,72201.571,11979,7,GY,1,100,-6.073
1572440334.645155,72214.429,11979,7,GY,1,100,-4.120
1572440334.661566,72227.286,11979,7,GY,1,100,-3.845
1572440334.677977,72240.143,11979,7,GY,1,100,-6.348
1572440334.694387,72253.000,11979,7,GY,1,100,-6.073
1572440334.710980,72266.000,11997,8,GY,1,100,-4.578
1572440334.727573,72279.000,11997,8,GY,1,100,-2.380
1572440334.744166,72292.000,11997,8,GY,1,100,-3.998
1572440334.760759,72305.000,11997,8,GY,1,100,-3.693
1572440334.777352,72318.000,11997,8,GY,1,100,0.305
1572440334.793945,72331.000,11997,8,GY,1,100,1.709
1572440334.810538,72344.000,11997,8,GY,1,100,6.287
1572440334.827131,72357.000,11997,8,GY,1,100,3.479
1572440334.843883,72370.125,12015,8,GY,1,100,-0.519
1572440334.860636,72383.250,12015,8,GY,1,100,-1.251
1572440334.877388,72396.375,12015,8,GY,1,100,0.885
1572440334.894140,72409.500,12015,8,GY,1,100,0.824
1572440334.910893,72422.625,12015,8,GY,1,100,0.183
1572440334.927645,72435.750,12015,8,GY,1,100,-0.122
1572440334.944398,72448.875,12015,8,GY,1,100,-0.610
1572440334.961151,72462.000,12015,8,GY,1,100,-0.092
1572440334.977903,72475.125,12034,8,GY,1,100,0.854
1572440334.994656,72488.250,12034,8,GY,1,100,0.824
1572440335.011408,72501.375,12034,8,GY,1,100,-0.153
1572440335.028161,72514.500,12034,8,GY,1,100,0.366
1572440335.044913,72527.625,12034,8,GY,1,100,1.007
1572440335.061666,72540.750,12034,8,GY,1,100,1.129
1572440335.078418,72553.875,12034,8,GY,1,100,1.251
1572440335.095170,72567.000,12034,8,GY,1,100,2.380
1572440335.111946,72580.143,12052,7,GY,1,100,1.740
1572440335.128721,72593.286,12052,7,GY,1,100,1.923
1572440335.145496,72606.429,12052,7,GY,1,100,0.214
1572440335.162271,72619.571,12052,7,GY,1,100,-3.326
1572440335.179047,72632.714,12052,7,GY,1,100,-8.423
1572440335.195822,72645.857,12052,7,GY,1,100,-9.460
1572440335.212597,72659.000,12052,7,GY,1,100,-11.993
1572440335.229190,72672.000,12070,8,GY,1,100,-11.902
1572440335.245783,72685.000,12070,8,GY,1,100,-9.491
1572440335.262376,72698.000,12070,8,GY,1,100,-9.918
1572440335.278969,72711.000,12070,8,GY,1,100,-8.575
1572440335.295562,72724.000,12070,8,GY,1,100,-5.371
1572440335.312155,72737.000,12070,8,GY,1,100,-4.059
1572440335.328748,72750.000,12070,8,GY,1,100,-2.380
1572440335.345341,72763.000,12070,8,GY,1,100,2.228
1572440335.361934,72776.000,12088,8,GY,1,100,4.456
1572440335.378527,72789.000,12088,8,GY,1,100,7.996
1572440335.395120,72802.000,12088,8,GY,1,100,11.658
1572440335.411713,72815.000,12088,8,GY,1,100,12.878
1572440335.428306,72828.000,12088,8,GY,1,100,11.871
1572440335.444898,72841.000,12088,8,GY,1,100,10.162
1572440335.461491,72854.000,12088,8,GY,1,100,10.834
1572440335.478084,72867.000,12088,8,GY,1,100,12.085
1572440335.494677,72880.000,12106,8,GY,1,100,13.428
1572440335.511270,72893.000,12106,8,GY,1,100,10.162
1572440335.527863,72906.000,12106,8,GY,1,100,8.881
1572440335.544456,72919.000,12106,8,GY,1,100,5.676
1572440335.561049,72932.000,12106,8,GY,1,100,5.432
1572440335.577642,72945.000,12106,8,GY,1,100,2.228
1572440335.594235,72958.000,12106,8,GY,1,100,2.655
1572440335.610828,72971.000,12106,8,GY,1,100,2.167
1572440335.627056,72983.714,12124,7,GY,1,100,2.869
1572440335.643284,72996.429,12124,7,GY,1,100,2.136
1572440335.659513,73009.143,12124,7,GY,1,100,1.190
1572440335.675741,73021.857,12124,7,GY,1,100,2.777
1572440335.691969,73034.571,12124,7,GY,1,100,3.174
1572440335.708197,73047.286,12124,7,GY,1,100,3.662
1572440335.724426,73060.000,12124,7,GY,1,100,4.456
1572440335.740859,73072.875,12142,8,GY,1,100,5.554
1572440335.757293,73085.750,12142,8,GY,1,100,5.676
1572440335.773726,73098.625,12142,8,GY,1,100,5.096
1572440335.790159,73111.500,12142,8,GY,1,100,4.578
1572440335.806593,73124.375,12142,8,GY,1,100,3.784
1572440335.823026,73137.250,12142,8,GY,1,100,4.211
1572440335.839459,73150.125,12142,8,GY,1,100,3.418
1572440335.855893,73163.000,12142,8,GY,1,100,3.113
1572440335.872486,73176.000,12160,8,GY,1,100,4.333
1572440335.889079,73189.000,12160,8,GY,1,100,4.364
1572440335.905672,73202.000,12160,8,GY,1,100,3.113
1572440335.922265,73215.000,12160,8,GY,1,100,0.549
1572440335.938858,73228.000,12160,8,GY,1,100,0.031
1572440335.955450,73241.000,12160,8,GY,1,100,-1.343
1572440335.972043,73254.000,12160,8,GY,1,100,-0.549
1572440335.988636,73267.000,12160,8,GY,1,100,-0.732
1572440336.005548,73280.250,12179,8,GY,1,100,-0.641
1572440336.022460,73293.500,12179,8,GY,1,100,-0.824
1572440336.039372,73306.750,12179,8,GY,1,100,-1.068
1572440336.056284,73320.000,12179,8,GY,1,100,-1.038
1572440336.073196,73333.250,12179,8,GY,1,100,-0.977
1572440336.090108,73346.500,12179,8,GY,1,100,-1.282
1572440336.107021,73359.750,12179,8,GY,1,100,-0.732
1572440336.123933,73373.000,12179,8,GY,1,100,-0.092
1572440336.140708,73386.143,12197,7,GY,1,100,0.183
1572440336.157483,73399.286,12197,7,GY,1,100,1.312
1572440336.174258,73412.429,12197,7,GY,1,100,1.129
1572440336.191034,73425.571,12197,7,GY,1,100,1.343
1572440336.207809,73438.714,12197,7,GY,1,100,2.594
1572440336.224584,73451.857,12197,7,GY,1,100,2.808
1572440336.241359,73465.000,12197,7,GY,1,100,2.686
1572440336.258112,73478.125,12215,8,GY,1,100,2.289
1572440336.274864,73491.250,12215,8,GY,1,100,1.709
1572440336.291617,73504.375,12215,8,GY,1,100,-0.702
1572440336.308369,73517.500,12215,8,GY,1,100,-1.831
1572440336.325122,73530.625,12215,8,GY,1,100,-2.747
1572440336.341874,73543.750,12215,8,GY,1,100,-4.089
1572440336.358627,73556.875,12215,8,GY,1,100,-4.303
1572440336.375379,73570.000,12215,8,GY,1,100,-7.080
1572440336.391972,73583.000,12233,8,GY,1,100,-8.026
1572440336.408565,73596.000,12233,8,GY,1,100,-7.019
1572440336.425158,73609.000,12233,8,GY,1,100,-6.165
1572440336.441751,73622.000,12233,8,GY,1,100,-2.167
1572440336.458344,73635.000,12233,8,GY,1,100,-1.923
1572440336.474937,73648.000,12233,8,GY,1,100,-2.930
1572440336.491530,73661.000,12233,8,GY,1,100,0.458
1572440336.508123,73674.000,12233,8,GY,1,100,2.899
1572440336.524875,73687.125,12251,8,GY,1,100,6.104
1572440336.541628,73700.250,12251,8,GY,1,100,8.972
1572440336.558380,73713.375,12251,8,GY,1,100,9.308
1572440336.575133,73726.500,12251,8,GY,1,100,8.545
1572440336.591885,73739.625,12251,8,GY,1,100,8.362
1572440336.608638,73752.750,12251,8,GY,1,100,8.087
1572440336.625390,73765.875,12251,8,GY,1,100,8.667
1572440336.642143,73779.000,12251,8,GY,1,100,11.841
1572440336.658371,73791.714,12269,7,GY,1,100,10.498
1572440336.674599,73804.429,12269,7,GY,1,100,10.498
1572440336.690828,73817.143,12269,7,GY,1,100,8.575
1572440336.707056,73829.857,12269,7,GY,1,100,1.221
1572440336.723284,73842.571,12269,7,GY,1,100,-3.479
1572440336.739512,73855.286,12269,7,GY,1,100,-3.387
1572440336.755741,73868.000,12269,7,GY,1,100,-3.448
1572440336.772493,73881.125,12287,8,GY,1,100,-2.808
1572440336.789246,73894.250,12287,8,GY,1,100,-2.289
1572440336.805998,73907.375,12287,8,GY,1,100,-0.549
1572440336.822751,73920.500,12287,8,GY,1,100,0.092
1572440336.839503,73933.625,12287,8,GY,1,100,-0.458
1572440336.856256,73946.750,12287,8,GY,1,100,0.183
1572440336.873008,73959.875,12287,8,GY,1,100,3.082
1572440336.889760,73973.000,12287,8,GY,1,100,4.059
1572440336.906353,73986.000,12305,8,GY,1,100,5.768
1572440336.922946,73999.000,12305,8,GY,1,100,5.951
1572440336.939539,74012.000,12305,8,GY,1,100,6.989
1572440336.956132,74025.000,12305,8,GY,1,100,6.622
1572440336.972725,74038.000,12305,8,GY,1,100,7.080
1572440336.989318,74051.000,12305,8,GY,1,100,7.690
1572440337.005911,74064.000,12305,8,GY,1,100,7.172
1572440337.022504,74077.000,12305,8,GY,1,100,6.622
1572440337.039416,74090.250,12324,8,GY,1,100,3.052
1572440337.056328,74103.500,12324,8,GY,1,100,2.411
1572440337.073240,74116.750,12324,8,GY,1,100,1.587
1572440337.090152,74130.000,12324,8,GY,1,100,0.580
1572440337.107064,74143.250,12324,8,GY,1,100,-1.831
1572440337.123976,74156.500,12324,8,GY,1,100,-2.686
1572440337.140888,74169.750,12324,8,GY,1,100,-3.082
1572440337.157800,74183.000,12324,8,GY,1,100,-3.571
1572440337.174576,74196.143,12341,7,GY,1,100,-3.510
1572440337.191351,74209.286,12341,7,GY,1,100,-2.563
1572440337.208126,74222.429,12341,7,GY,1,100,-1.892
1572440337.224901,74235.571,12341,7,GY,1,100,-1.007
1572440337.241677,74248.714,12341,7,GY,1,100,-1.709
1572440337.258452,74261.857,12341,7,GY,1,100,-1.434
1572440337.275227,74275.000,12341,7,GY,1,100,-0.977
1572440337.292139,74288.250,12359,8,GY,1,100,-1.892
1572440337.309051,74301.500,12359,8,GY,1,100,-3.601
1572440337.325963,74314.750,12359,8,GY,1,100,-4.761
1572440337.342875,74328.000,12359,8,GY,1,100,-5.249
1572440337.359787,74341.250,12359,8,GY,1,100,-5.615
1572440337.376699,74354.500,12359,8,GY,1,100,-5.646
1572440337.393611,74367.750,12359,8,GY,1,100,-5.951
1572440337.410523,74381.000,12359,8,GY,1,100,-3.967
1572440337.427116,74394.000,12377,8,GY,1,100,-7.080
1572440337.443709,74407.000,12377,8,GY,1,100,-6.561
1572440337.460302,74420.000,12377,8,GY,1,100,-5.707
1572440337.476895,74433.000,12377,8,GY,1,100,-6.744
1572440337.493488,74446.000,12377,8,GY,1,100,-6.012
1572440337.510081,74459.000,12377,8,GY,1,100,-5.646
1572440337.526674,74472.000,12377,8,GY,1,100,-6.561
1572440337.543267,74485.000,12377,8,GY,1,100,-9.338
1572440337.559678,74497.857,12395,7,GY,1,100,-10.315
1572440337.576088,74510.714,12395,7,GY,1,100,-8.545
1572440337.592499,74523.571,12395,7,GY,1,100,-7.996
1572440337.608909,74536.429,12395,7,GY,1,100,-7.324
1572440337.625320,74549.286,12395,7,GY,1,100,-6.287
1572440337.641731,74562.143,12395,7,GY,1,100,-6.439
1572440337.658141,74575.000,12395,7,GY,1,100,-5.035
1572440337.675053,74588.250,12413,8,GY,1,100,-3.998
1572440337.691965,74601.500,12413,8,GY,1,100,-5.524
1572440337.708877,74614.750,12413,8,GY,1,100,-7.721
1572440337.725789,74628.000,12413,8,GY,1,100,-8.148
1572440337.742701,74641.250,12413,8,GY,1,100,-8.331
1572440337.759613,74654.500,12413,8,GY,1,100,-6.897
1572440337.776525,74667.750,12413,8,GY,1,100,-5.402
1572440337.793437,74681.000,12413,8,GY,1,100,-3.540
1572440337.810190,74694.125,12431,8,GY,1,100,-0.702
1572440337.826942,74707.250,12431,8,GY,1,100,0.824
1572440337.843695,74720.375,12431,8,GY,1,100,1.678
1572440337.860447,74733.500,12431,8,GY,1,100,2.960
1572440337.877200,74746.625,12431,8,GY,1,100,2.625
1572440337.893952,74759.750,12431,8,GY,1,100,3.021
1572440337.910705,74772.875,12431,8,GY,1,100,4.547
1572440337.927457,74786.000,12431,8,GY,1,100,5.188
1572440337.943891,74798.875,12450,8,GY,1,100,5.310
1572440337.960324,74811.750,12450,8,GY,1,100,6.073
1572440337.976757,74824.625,12450,8,GY,1,100,5.157
1572440337.993191,74837.500,12450,8,GY,1,100,5.341
1572440338.009624,74850.375,12450,8,GY,1,100,4.883
1572440338.026057,74863.250,12450,8,GY,1,100,3.662
1572440338.042491,74876.125,12450,8,GY,1,100,4.578
1572440338.058924,74889.000,12450,8,GY,1,100,2.991
1572440338.076247,74902.571,12466,7,GY,1,100,3.143
1572440338.093569,74916.143,12466,7,GY,1,100,2.686
1572440338.110891,74929.714,12466,7,GY,1,100,2.747
1572440338.128214,74943.286,12466,7,GY,1,100,2.930
1572440338.145536,74956.857,12466,7,GY,1,100,1.831
1572440338.162858,74970.429,12466,7,GY,1,100,2.747
1572440338.180180,74984.000,12466,7,GY,1,100,3.113
1572440338.196614,74996.875,12484,8,GY,1,100,2.808
1572440338.213047,75009.750,12484,8,GY,1,100,3.998
1572440338.229481,75022.625,12484,8,GY,1,100,4.578
1572440338.245914,75035.500,12484,8,GY,1,100,4.517
1572440338.262347,75048.375,12484,8,GY,1,100,3.998
1572440338.278781,75061.250,12484,8,GY,1,100,5.005
1572440338.295214,75074.125,12484,8,GY,1,100,5.920
1572440338.311648,75087.000,12484,8,GY,1,100,6.317
1572440338.328400,75100.125,12502,8,GY,1,100,6.378
1572440338.345153,75113.250,12502,8,GY,1,100,8.270
1572440338.361905,75126.375,12502,8,GY,1,100,8.148
1572440338.378658,75139.500,12502,8,GY,1,100,9.247
1572440338.395410,75152.625,12502,8,GY,1,100,7.385
1572440338.412163,75165.750,12502,8,GY,1,100,6.866
1572440338.428915,75178.875,12502,8,GY,1,100,6.805
1572440338.445668,75192.000,12502,8,GY,1,100,7.446
1572440338.462078,75204.857,12520,7,GY,1,100,5.127
1572440338.478489,75217.714,12520,7,GY,1,100,0.305
1572440338.494899,75230.571,12520,7,GY,1,100,0.000
1572440338.511310,75243.429,12520,7,GY,1,100,-0.183
1572440338.527720,75256.286,12520,7,GY,1,100,-0.549
1572440338.544131,75269.143,12520,7,GY,1,100,-0.244
1572440338.560542,75282.000,12520,7,GY,1,100,-0.397
1572440338.577135,75295.000,12538,8,GY,1,100,-2.075
1572440338.593728,75308.000,12538,8,GY,1,100,-3.021
1572440338.610320,75321.000,12538,8,GY,1,100,-3.021
1572440338.626913,75334.000,12538,8,GY,1,100,-3.265
1572440338.643506,75347.000,12538,8,GY,1,100,-4.272
1572440338.660099,75360.000,12538,8,GY,1,100,-3.662
1572440338.676692,75373.000,12538,8,GY,1,100,-2.625
1572440338.693285,75386.000,12538,8,GY,1,100,-2.319
1572440338.709559,75398.750,12556,8,GY,1,100,-0.488
1572440338.725833,75411.500,12556,8,GY,1,100,0.031
1572440338.742107,75424.250,12556,8,GY,1,100,0.427
1572440338.758380,75437.000,12556,8,GY,1,100,-0.031
1572440338.774654,75449.750,12556,8,GY,1,100,0.793
1572440338.790928,75462.500,12556,8,GY,1,100,0.458
1572440338.807202,75475.250,12556,8,GY,1,100,-0.885
1572440338.823476,75488.000,12556,8,GY,1,100,-0.305
1572440338.840069,75501.000,12574,8,GY,1,100,1.434
1572440338.856662,75514.000,12574,8,GY,1,100,2.502
1572440338.873255,75527.000,12574,8,GY,1,100,3.387
1572440338.889848,75540.000,12574,8,GY,1,100,3.662
1572440338.906440,75553.000,12574,8,GY,1,100,4.822
1572440338.923033,75566.000,12574,8,GY,1,100,3.723
1572440338.939626,75579.000,12574,8,GY,1,100,1.129
1572440338.956219,75592.000,12574,8,GY,1,100,-0.641
1572440338.972812,75605.000,12593,8,GY,1,100,1.068
1572440338.989405,75618.000,12593,8,GY,1,100,1.038
1572440339.005998,75631.000,12593,8,GY,1,100,-0.275
1572440339.022591,75644.000,12593,8,GY,1,100,-0.519
1572440339.039184,75657.000,12593,8,GY,1,100,0.427
1572440339.055777,75670.000,12593,8,GY,1,100,1.678
1572440339.072370,75683.000,12593,8,GY,1,100,1.709
1572440339.088963,75696.000,12593,8,GY,1,100,-0.946
1572440339.105556,75709.000,12611,8,GY,1,100,-6.287
1572440339.122149,75722.000,12611,8,GY,1,100,-9.186
1572440339.138742,75735.000,12611,8,GY,1,100,-12.024
1572440339.155335,75748.000,12611,8,GY,1,100,-14.191
1572440339.171927,75761.000,12611,8,GY,1,100,-18.555
1572440339.188520,75774.000,12611,8,GY,1,100,-22.736
1572440339.205113,75787.000,12611,8,GY,1,100,-21.729
1572440339.221706,75800.000,12611,8,GY,1,100,-18.616
1572440339.238482,75813.143,12629,7,GY,1,100,-14.740
1572440339.255257,75826.286,12629,7,GY,1,100,-13.275
1572440339.272032,75839.429,12629,7,GY,1,100,-13.153
1572440339.288807,75852.571,12629,7,GY,1,100,-13.184
1572440339.305583,75865.714,12629,7,GY,1,100,-12.329
1572440339.322358,75878.857,12629,7,GY,1,100,1.038
1572440339.339133,75892.000,12629,7,GY,1,100,5.554
1572440339.355886,75905.125,12647,8,GY,1,100,-8.270
1572440339.372638,75918.250,12647,8,GY,1,100,-40.833
1572440339.389391,75931.375,12647,8,GY,1,100,-54.138
1572440339.406143,75944.500,12647,8,GY,1,100,-59.021
1572440339.422896,75957.625,12647,8,GY,1,100,-61.127
1572440339.439648,75970.750,12647,8,GY,1,100,-68.176
1572440339.456401,75983.875,12647,8,GY,1,100,-71.411
1572440339.473153,75997.000,12647,8,GY,1,100,-68.542
1572440339.489906,76010.125,12665,8,GY,1,100,-60.974
1572440339.506658,76023.250,12665,8,GY,1,100,-48.981
1572440339.523411,76036.375,12665,8,GY,1,100,-34.882
1572440339.540163,76049.500,12665,8,GY,1,100,-22.278
1572440339.556916,76062.625,12665,8,GY,1,100,-17.059
1572440339.573668,76075.750,12665,8,GY,1,100,-7.904
1572440339.590420,76088.875,12665,8,GY,1,100,-1.038
1572440339.607173,76102.000,12665,8,GY,1,100,9.644
1572440339.623584,76114.857,12683,7,GY,1,100,12.268
1572440339.639994,76127.714,12683,7,GY,1,100,11.749
1572440339.656405,76140.571,12683,7,GY,1,100,14.191
1572440339.672815,76153.429,12683,7,GY,1,100,13.916
1572440339.689226,76166.286,12683,7,GY,1,100,13.824
1572440339.705637,76179.143,12683,7,GY,1,100,19.135
1572440339.722047,76192.000,12683,7,GY,1,100,24.261
1572440339.738640,76205.000,12704,14,GY,1,100,29.266
1572440339.755233,76218.000,12704,14,GY,1,100,39.276
1572440339.771826,76231.000,12704,14,GY,1,100,51.544
1572440339.788419,76244.000,12704,14,GY,1,100,56.000
1572440339.805012,76257.000,12704,14,GY,1,100,57.892
1572440339.821605,76270.000,12704,14,GY,1,100,60.730
1572440339.838198,76283.000,12704,14,GY,1,100,63.843
1572440339.854791,76296.000,12704,14,GY,1,100,61.127
1572440339.871384,76309.000,12704,14,GY,1,100,57.434
1572440339.887977,76322.000,12704,14,GY,1,100,48.523
1572440339.904570,76335.000,12704,14,GY,1,100,40.405
1572440339.921162,76348.000,12704,14,GY,1,100,39.307
1572440339.937755,76361.000,12704,14,GY,1,100,36.469
1572440339.954348,76374.000,12704,14,GY,1,100,31.433
1572440339.971124,76387.143,12725,7,GY,1,100,27.344
1572440339.987899,76400.286,12725,7,GY,1,100,22.919
1572440340.004674,76413.429,12725,7,GY,1,100,16.174
1572440340.021450,76426.571,12725,7,GY,1,100,14.404
1572440340.038225,76439.714,12725,7,GY,1,100,13.580
1572440340.055000,76452.857,12725,7,GY,1,100,13.184
1572440340.071775,76466.000,12725,7,GY,1,100,12.268
1572440340.088551,76479.143,12743,7,GY,1,100,11.322
1572440340.105326,76492.286,12743,7,GY,1,100,9.613
1572440340.122101,76505.429,12743,7,GY,1,100,9.735
1572440340.138876,76518.571,12743,7,GY,1,100,12.939
1572440340.155652,76531.714,12743,7,GY,1,100,14.557
1572440340.172427,76544.857,12743,7,GY,1,100,18.280
1572440340.189202,76558.000,12743,7,GY,1,100,24.048
1572440340.205955,76571.125,12761,8,GY,1,100,25.421
1572440340.222707,76584.250,12761,8,GY,1,100,26.947
1572440340.239460,76597.375,12761,8,GY,1,100,25.360
1572440340.256212,76610.500,12761,8,GY,1,100,23.529
1572440340.272965,76623.625,12761,8,GY,1,100,23.468
1572440340.289717,76636.750,12761,8,GY,1,100,24.292
1572440340.306470,76649.875,12761,8,GY,1,100,20.355
1572440340.323222,76663.000,12761,8,GY,1,100,16.113
1572440340.339975,76676.125,12779,8,GY,1,100,14.526
1572440340.356727,76689.250,12779,8,GY,1,100,13.489
1572440340.373480,76702.375,12779,8,GY,1,100,9.888
1572440340.390232,76715.500,12779,8,GY,1,100,8.423
1572440340.406985,76728.625,12779,8,GY,1,100,6.317
1572440340.423737,76741.750,12779,8,GY,1,100,4.852
1572440340.440490,76754.875,12779,8,GY,1,100,3.662
1572440340.457242,76768.000,12779,8,GY,1,100,2.075
1572440340.474564,76781.571,12795,7,GY,1,100,-0.702
1572440340.491887,76795.143,12795,7,GY,1,100,-1.678
1572440340.509209,76808.714,12795,7,GY,1,100,-1.678
1572440340.526531,76822.286,12795,7,GY,1,100,-0.610
1572440340.543854,76835.857,12795,7,GY,1,100,1.007
1572440340.561176,76849.429,12795,7,GY,1,100,3.387
1572440340.578498,76863.000,12795,7,GY,1,100,6.073
1572440340.594931,76875.875,12813,8,GY,1,100,6.927
1572440340.611365,76888.750,12813,8,GY,1,100,6.561
1572440340.627798,76901.625,12813,8,GY,1,100,6.989
1572440340.644232,76914.500,12813,8,GY,1,100,7.660
1572440340.660665,76927.375,12813,8,GY,1,100,6.409
1572440340.677099,76940.250,12813,8,GY,1,100,8.087
1572440340.693532,76953.125,12813,8,GY,1,100,9.674
1572440340.709965,76966.000,12813,8,GY,1,100,11.536
1572440340.726718,76979.125,12831,8,GY,1,100,10.712
1572440340.743470,76992.250,12831,8,GY,1,100,12.024
1572440340.760223,77005.375,12831,8,GY,1,100,13.611
1572440340.776975,77018.500,12831,8,GY,1,100,10.956
1572440340.793728,77031.625,12831,8,GY,1,100,9.125
1572440340.810480,77044.750,12831,8,GY,1,100,6.744
1572440340.827233,77057.875,12831,8,GY,1,100,6.256
1572440340.843985,77071.000,12831,8,GY,1,100,3.479
1572440340.860578,77084.000,12849,7,GY,1,100,0.244
1572440340.877171,77097.000,12849,7,GY,1,100,-0.824
1572440340.893764,77110.000,12849,7,GY,1,100,-1.099
1572440340.910357,77123.000,12849,7,GY,1,100,0.763
1572440340.926950,77136.000,12849,7,GY,1,100,-0.122
1572440340.943543,77149.000,12849,7,GY,1,100,1.862
1572440340.960136,77162.000,12849,7,GY,1,100,7.202
1572440340.976888,77175.125,12867,8,GY,1,100,6.195
1572440340.993641,77188.250,12867,8,GY,1,100,5.737
1572440341.010393,77201.375,12867,8,GY,1,100,8.423
1572440341.027146,77214.500,12867,8,GY,1,100,8.759
1572440341.043898,77227.625,12867,8,GY,1,100,7.843
1572440341.060651,77240.750,12867,8,GY,1,100,9.338
1572440341.077403,77253.875,12867,8,GY,1,100,10.620
1572440341.094156,77267.000,12867,8,GY,1,100,9.979
1572440341.110749,77280.000,12886,8,GY,1,100,7.782
1572440341.127342,77293.000,12886,8,GY,1,100,5.249
1572440341.143934,77306.000,12886,8,GY,1,100,1.617
1572440341.160527,77319.000,12886,8,GY,1,100,2.289
1572440341.177120,77332.000,12886,8,GY,1,100,4.272
1572440341.193713,77345.000,12886,8,GY,1,100,-4.028
1572440341.210306,77358.000,12886,8,GY,1,100,-5.585
1572440341.226899,77371.000,12886,8,GY,1,100,-8.179
1572440341.243652,77384.125,12904,8,GY,1,100,-12.726
1572440341.260404,77397.250,12904,8,GY,1,100,-14.954
1572440341.277157,77410.375,12904,8,GY,1,100,-17.456
1572440341.293909,77423.500,12904,8,GY,1,100,-20.264
1572440341.310662,77436.625,12904,8,GY,1,100,-19.562
1572440341.327414,77449.750,12904,8,GY,1,100,-15.594
1572440341.344167,77462.875,12904,8,GY,1,100,-16.113
1572440341.360919,77476.000,12904,8,GY,1,100,-15.778
1572440341.377694,77489.143,12922,7,GY,1,100,-16.876
1572440341.394469,77502.286,12922,7,GY,1,100,-19.196
1572440341.411245,77515.429,12922,7,GY,1,100,-22.430
1572440341.428020,77528.571,12922,7,GY,1,100,-17.303
1572440341.444795,77541.714,12922,7,GY,1,100,-9.155
1572440341.461571,77554.857,12922,7,GY,1,100,-5.219
1572440341.478346,77568.000,12922,7,GY,1,100,-4.364
1572440341.495098,77581.125,12940,8,GY,1,100,-3.998
1572440341.511851,77594.250,12940,8,GY,1,100,-3.204
1572440341.528603,77607.375,12940,8,GY,1,100,-4.120
1572440341.545356,77620.500,12940,8,GY,1,100,-2.930
1572440341.562108,77633.625,12940,8,GY,1,100,2.350
1572440341.578861,77646.750,12940,8,GY,1,100,-0.031
1572440341.595613,77659.875,12940,8,GY,1,100,1.465
1572440341.612366,77673.000,12940,8,GY,1,100,5.402
1572440341.628480,77685.625,12958,8,GY,1,100,6.927
1572440341.644594,77698.250,12958,8,GY,1,100,4.150
1572440341.660709,77710.875,12958,8,GY,1,100,-0.427
1572440341.676823,77723.500,12958,8,GY,1,100,0.885
1572440341.692937,77736.125,12958,8,GY,1,100,1.740
1572440341.709052,77748.750,12958,8,GY,1,100,1.129
1572440341.725166,77761.375,12958,8,GY,1,100,2.228
1572440341.741280,77774.000,12958,8,GY,1,100,2.319
1572440341.757873,77787.000,12976,8,GY,1,100,2.838
1572440341.774466,77800.000,12976,8,GY,1,100,1.312
1572440341.791059,77813.000,12976,8,GY,1,100,0.763
1572440341.807652,77826.000,12976,8,GY,1,100,1.862
1572440341.824245,77839.000,12976,8,GY,1,100,3.204
1572440341.840838,77852.000,12976,8,GY,1,100,4.669
1572440341.857431,77865.000,12976,8,GY,1,100,4.608
1572440341.874024,77878.000,12976,8,GY,1,100,4.059
1572440341.890617,77891.000,12994,8,GY,1,100,3.113
1572440341.907209,77904.000,12994,8,GY,1,100,-0.214
1572440341.923802,77917.000,12994,8,GY,1,100,-2.838
1572440341.940395,77930.000,12994,8,GY,1,100,-5.463
1572440341.956988,77943.000,12994,8,GY,1,100,-5.188
1572440341.973581,77956.000,12994,8,GY,1,100,-5.402
1572440341.990174,77969.000,12994,8,GY,1,100,-5.737
1572440342.006767,77982.000,12994,8,GY,1,100,-4.913
1572440342.022995,77994.714,13013,7,GY,1,100,-4.486
1572440342.039224,78007.429,13013,7,GY,1,100,-4.059
1572440342.055452,78020.143,13013,7,GY,1,100,-3.326
1572440342.071680,78032.857,13013,7,GY,1,100,-0.305
1572440342.087909,78045.571,13013,7,GY,1,100,1.953
1572440342.104137,78058.286,13013,7,GY,1,100,1.740
1572440342.120365,78071.000,13013,7,GY,1,100,-0.092
1572440342.136958,78084.000,13031,8,GY,1,100,-1.740
1572440342.153551,78097.000,13031,8,GY,1,100,-0.763
1572440342.170144,78110.000,13031,8,GY,1,100,3.784
1572440342.186737,78123.000,13031,8,GY,1,100,4.974
1572440342.203330,78136.000,13031,8,GY,1,100,7.172
1572440342.219923,78149.000,13031,8,GY,1,100,9.460
1572440342.236516,78162.000,13031,8,GY,1,100,17.181
1572440342.253109,78175.000,13031,8,GY,1,100,6.897
1572440342.269701,78188.000,13049,8,GY,1,100,17.975
1572440342.286294,78201.000,13049,8,GY,1,100,15.289
1572440342.302887,78214.000,13049,8,GY,1,100,9.430
1572440342.319480,78227.000,13049,8,GY,1,100,11.871
1572440342.336073,78240.000,13049,8,GY,1,100,8.057
1572440342.352666,78253.000,13049,8,GY,1,100,6.531
1572440342.369259,78266.000,13049,8,GY,1,100,6.561
1572440342.385852,78279.000,13049,8,GY,1,100,6.897
1572440342.402764,78292.250,13067,8,GY,1,100,8.179
1572440342.419676,78305.500,13067,8,GY,1,100,5.554
1572440342.436588,78318.750,13067,8,GY,1,100,5.371
1572440342.453500,78332.000,13067,8,GY,1,100,6.561
1572440342.470412,78345.250,13067,8,GY,1,100,5.890
1572440342.487324,78358.500,13067,8,GY,1,100,4.395
1572440342.504236,78371.750,13067,8,GY,1,100,0.824
1572440342.521148,78385.000,13067,8,GY,1,100,0.946
1572440342.537581,78397.875,13085,8,GY,1,100,0.793
1572440342.554015,78410.750,13085,8,GY,1,100,3.143
1572440342.570448,78423.625,13085,8,GY,1,100,0.977
1572440342.586882,78436.500,13085,8,GY,1,100,1.404
1572440342.603315,78449.375,13085,8,GY,1,100,2.258
1572440342.619749,78462.250,13085,8,GY,1,100,1.678
1572440342.636182,78475.125,13085,8,GY,1,100,4.181
1572440342.652615,78488.000,13085,8,GY,1,100,3.540
1572440342.669391,78501.143,13103,7,GY,1,100,2.594
1572440342.686166,78514.286,13103,7,GY,1,100,1.404
1572440342.702941,78527.429,13103,7,GY,1,100,-0.458
1572440342.719716,78540.571,13103,7,GY,1,100,-2.655
1572440342.736492,78553.714,13103,7,GY,1,100,-1.465
1572440342.753267,78566.857,13103,7,GY,1,100,-0.122
1572440342.770042,78580.000,13103,7,GY,1,100,-1.190
1572440342.786635,78593.000,13121,8,GY,1,100,-3.357
1572440342.803228,78606.000,13121,8,GY,1,100,-5.981
1572440342.819821,78619.000,13121,8,GY,1,100,-7.721
1572440342.836414,78632.000,13121,8,GY,1,100,-11.017
1572440342.853007,78645.000,13121,8,GY,1,100,-10.315
1572440342.869600,78658.000,13121,8,GY,1,100,-9.796
1572440342.886193,78671.000,13121,8,GY,1,100,-9.918
1572440342.902786,78684.000,13121,8,GY,1,100,-9.399
1572440342.919538,78697.125,13139,8,GY,1,100,-8.881
1572440342.936291,78710.250,13139,8,GY,1,100,-5.707
1572440342.953043,78723.375,13139,8,GY,1,100,-2.716
1572440342.969796,78736.500,13139,8,GY,1,100,4.761
1572440342.986548,78749.625,13139,8,GY,1,100,12.238
1572440343.003301,78762.750,13139,8,GY,1,100,16.296
1572440343.020053,78775.875,13139,8,GY,1,100,23.010
1572440343.036806,78789.000,13139,8,GY,1,100,20.905
1572440343.053034,78801.714,13158,7,GY,1,100,22.339
1572440343.069262,78814.429,13158,7,GY,1,100,22.308
1572440343.085490,78827.143,13158,7,GY,1,100,21.545
1572440343.101719,78839.857,13158,7,GY,1,100,21.881
1572440343.117947,78852.571,13158,7,GY,1,100,21.790
1572440343.134175,78865.286,13158,7,GY,1,100,19.562
1572440343.150403,78878.000,13158,7,GY,1,100,17.609
1572440343.167156,78891.125,13176,8,GY,1,100,13.672
1572440343.183908,78904.250,13176,8,GY,1,100,11.566
1572440343.200661,78917.375,13176,8,GY,1,100,7.996
1572440343.217413,78930.500,13176,8,GY,1,100,5.554
1572440343.234166,78943.625,13176,8,GY,1,100,1.526
1572440343.250918,78956.750,13176,8,GY,1,100,0.885
1572440343.267671,78969.875,13176,8,GY,1,100,-5.280
1572440343.284423,78983.000,13176,8,GY,1,100,-8.728
1572440343.301176,78996.125,13194,8,GY,1,100,-14.801
1572440343.317928,79009.250,13194,8,GY,1,100,-19.501
1572440343.334681,79022.375,13194,8,GY,1,100,-20.355
1572440343.351433,79035.500,13194,8,GY,1,100,-20.538
1572440343.368186,79048.625,13194,8,GY,1,100,-23.712
1572440343.384938,79061.750,13194,8,GY,1,100,-26.886
1572440343.401691,79074.875,13194,8,GY,1,100,-34.210
1572440343.418443,79088.000,13194,8,GY,1,100,-40.131
1572440343.435355,79101.250,13212,8,GY,1,100,-39.734
1572440343.452267,79114.500,13212,8,GY,1,100,-34.607
1572440343.469179,79127.750,13212,8,GY,1,100,-29.602
1572440343.486091,79141.000,13212,8,GY,1,100,-27.588
1572440343.503003,79154.250,13212,8,GY,1,100,-27.863
1572440343.519915,79167.500,13212,8,GY,1,100,-28.351
1572440343.536827,79180.750,13212,8,GY,1,100,-26.428
1572440343.553740,79194.000,13212,8,GY,1,100,-26.031
1572440343.570515,79207.143,13229,7,GY,1,100,-26.306
1572440343.587290,79220.286,13229,7,GY,1,100,-24.384
1572440343.604065,79233.429,13229,7,GY,1,100,-22.278
1572440343.620841,79246.571,13229,7,GY,1,100,-21.393
1572440343.637616,79259.714,13229,7,GY,1,100,-21.790
1572440343.654391,79272.857,13229,7,GY,1,100,-22.156
1572440343.671166,79286.000,13229,7,GY,1,100,-23.224
1572440343.687759,79299.000,13247,8,GY,1,100,-26.428
1572440343.704352,79312.000,13247,8,GY,1,100,-28.625
1572440343.720945,79325.000,13247,8,GY,1,100,-29.053
1572440343.737538,79338.000,13247,8,GY,1,100,-36.224
1572440343.754131,79351.000,13247,8,GY,1,100,-41.138
1572440343.770724,79364.000,13247,8,GY,1,100,-39.429
1572440343.787317,79377.000,13247,8,GY,1,100,-36.987
1572440343.803910,79390.000,13247,8,GY,1,100,-40.039
1572440343.820503,79403.000,13265,8,GY,1,100,-38.910
1572440343.837096,79416.000,13265,8,GY,1,100,-33.478
1572440343.853689,79429.000,13265,8,GY,1,100,-31.860
1572440343.870282,79442.000,13265,8,GY,1,100,-24.719
1572440343.886875,79455.000,13265,8,GY,1,100,-22.003
1572440343.903467,79468.000,13265,8,GY,1,100,-14.496
1572440343.920060,79481.000,13265,8,GY,1,100,-8.881
1572440343.936653,79494.000,13265,8,GY,1,100,-8.514
1572440343.953406,79507.125,13283,8,GY,1,100,-10.010
1572440343.970158,79520.250,13283,8,GY,1,100,-4.242
1572440343.986911,79533.375,13283,8,GY,1,100,0.153
1572440344.003663,79546.500,13283,8,GY,1,100,-0.305
1572440344.020416,79559.625,13283,8,GY,1,100,-0.702
1572440344.037168,79572.750,13283,8,GY,1,100,-5.371
1572440344.053921,79585.875,13283,8,GY,1,100,-7.477
1572440344.070673,79599.000,13283,8,GY,1,100,-10.986
1572440344.087266,79612.000,13302,7,GY,1,100,-11.169
1572440344.103859,79625.000,13302,7,GY,1,100,-9.827
1572440344.120452,79638.000,13302,7,GY,1,100,-6.958
1572440344.137045,79651.000,13302,7,GY,1,100,-6.226
1572440344.153638,79664.000,13302,7,GY,1,100,-5.646
1572440344.170231,79677.000,13302,7,GY,1,100,-7.446
1572440344.186824,79690.000,13302,7,GY,1,100,-7.935
1572440344.203576,79703.125,13320,8,GY,1,100,-5.646
1572440344.220329,79716.250,13320,8,GY,1,100,-9.796
1572440344.237081,79729.375,13320,8,GY,1,100,-9.613
1572440344.253834,79742.500,13320,8,GY,1,100,-10.895
1572440344.270586,79755.625,13320,8,GY,1,100,-9.094
1572440344.287339,79768.750,13320,8,GY,1,100,-8.270
1572440344.304091,79781.875,13320,8,GY,1,100,-10.223
1572440344.320844,79795.000,13320,8,GY,1,100,-9.918
1572440344.337277,79807.875,13338,8,GY,1,100,-12.146
1572440344.353710,79820.750,13338,8,GY,1,100,-10.315
1572440344.370144,79833.625,13338,8,GY,1,100,-6.622
1572440344.386577,79846.500,13338,8,GY,1,100,-4.364
1572440344.403011,79859.375,13338,8,GY,1,100,-3.448
1572440344.419444,79872.250,13338,8,GY,1,100,-6.805
1572440344.435877,79885.125,13338,8,GY,1,100,-6.348
1572440344.452311,79898.000,13338,8,GY,1,100,-7.690
1572440344.469633,79911.571,13354,7,GY,1,100,-5.432
1572440344.486955,79925.143,13354,7,GY,1,100,-2.319
1572440344.504278,79938.714,13354,7,GY,1,100,1.862
1572440344.521600,79952.286,13354,7,GY,1,100,4.364
1572440344.538922,79965.857,13354,7,GY,1,100,10.284
1572440344.556245,79979.429,13354,7,GY,1,100,10.986
1572440344.573567,79993.000,13354,7,GY,1,100,11.292
1572440344.590000,80005.875,13372,8,GY,1,100,12.482
1572440344.606434,80018.750,13372,8,GY,1,100,13.977
1572440344.622867,80031.625,13372,8,GY,1,100,12.939
1572440344.639300,80044.500,13372,8,GY,1,100,9.491
1572440344.655734,80057.375,13372,8,GY,1,100,7.477
1572440344.672167,80070.250,13372,8,GY,1,100,2.411
1572440344.688601,80083.125,13372,8,GY,1,100,-6.134
1572440344.705034,80096.000,13372,8,GY,1,100,-11.658
1572440344.721627,80109.000,13390,8,GY,1,100,-12.970
1572440344.738220,80122.000,13390,8,GY,1,100,-11.597
1572440344.754813,80135.000,13390,8,GY,1,100,-12.939
1572440344.771406,80148.000,13390,8,GY,1,100,-2.533
1572440344.787999,80161.000,13390,8,GY,1,100,0.275
1572440344.804592,80174.000,13390,8,GY,1,100,-3.387
1572440344.821185,80187.000,13390,8,GY,1,100,-6.805
1572440344.837778,80200.000,13390,8,GY,1,100,-6.683
1572440344.854370,80213.000,13408,8,GY,1,100,-4.700
1572440344.870963,80226.000,13408,8,GY,1,100,3.784
1572440344.887556,80239.000,13408,8,GY,1,100,2.472
1572440344.904149,80252.000,13408,8,GY,1,100,2.441
1572440344.920742,80265.000,13408,8,GY,1,100,13.794
1572440344.937335,80278.000,13408,8,GY,1,100,13.824
1572440344.953928,80291.000,13408,8,GY,1,100,18.250
1572440344.970521,80304.000,13408,8,GY,1,100,28.900
1572440344.986954,80316.875,13426,8,GY,1,100,32.440
1572440345.003388,80329.750,13426,8,GY,1,100,34.637
1572440345.019821,80342.625,13426,8,GY,1,100,39.062
1572440345.036255,80355.500,13426,8,GY,1,100,42.511
1572440345.052688,80368.375,13426,8,GY,1,100,44.952
1572440345.069121,80381.250,13426,8,GY,1,100,47.119
1572440345.085555,80394.125,13426,8,GY,1,100,46.692
1572440345.101988,80407.000,13426,8,GY,1,100,51.941
1572440345.118217,80419.714,13445,7,GY,1,100,46.661
1572440345.134445,80432.429,13445,7,GY,1,100,41.290
1572440345.150673,80445.143,13445,7,GY,1,100,42.023
1572440345.166901,80457.857,13445,7,GY,1,100,38.971
1572440345.183130,80470.571,13445,7,GY,1,100,34.271
1572440345.199358,80483.286,13445,7,GY,1,100,18.585
1572440345.215586,80496.000,13445,7,GY,1,100,31.891
1572440345.232338,80509.125,13463,8,GY,1,100,3.754
1572440345.249091,80522.250,13463,8,GY,1,100,16.510
1572440345.265843,80535.375,13463,8,GY,1,100,-7.172
1572440345.282596,80548.500,13463,8,GY,1,100,-5.310
1572440345.299348,80561.625,13463,8,GY,1,100,-2.319
1572440345.316101,80574.750,13463,8,GY,1,100,-9.216
1572440345.332853,80587.875,13463,8,GY,1,100,-9.674
1572440345.349606,80601.000,13463,8,GY,1,100,-21.851
1572440345.366358,80614.125,13481,8,GY,1,100,-19.928
1572440345.383111,80627.250,13481,8,GY,1,100,-16.479
1572440345.399863,80640.375,13481,8,GY,1,100,-17.792
1572440345.416616,80653.500,13481,8,GY,1,100,-21.179
1572440345.433368,80666.625,13481,8,GY,1,100,-17.029
1572440345.450121,80679.750,13481,8,GY,1,100,-10.620
1572440345.466873,80692.875,13481,8,GY,1,100,-6.714
1572440345.483626,80706.000,13481,8,GY,1,100,-6.287
1572440345.500219,80719.000,13499,8,GY,1,100,-2.655
1572440345.516812,80732.000,13499,8,GY,1,100,-4.120
1572440345.533405,80745.000,13499,8,GY,1,100,7.111
1572440345.549998,80758.000,13499,8,GY,1,100,18.280
1572440345.566590,80771.000,13499,8,GY,1,100,20.660
1572440345.583183,80784.000,13499,8,GY,1,100,6.531
1572440345.599776,80797.000,13499,8,GY,1,100,2.686
1572440345.616369,80810.000,13499,8,GY,1,100,10.498
1572440345.633144,80823.143,13517,7,GY,1,100,7.080
1572440345.649920,80836.286,13517,7,GY,1,100,6.409
1572440345.666695,80849.429,13517,7,GY,1,100,4.517
1572440345.683470,80862.571,13517,7,GY,1,100,6.317
1572440345.700246,80875.714,13517,7,GY,1,100,8.606
1572440345.717021,80888.857,13517,7,GY,1,100,10.895
1572440345.733796,80902.000,13517,7,GY,1,100,5.768
1572440345.750549,80915.125,13535,8,GY,1,100,4.944
1572440345.767301,80928.250,13535,8,GY,1,100,0.092
1572440345.784054,80941.375,13535,8,GY,1,100,1.221
1572440345.800806,80954.500,13535,8,GY,1,100,4.761
1572440345.817559,80967.625,13535,8,GY,1,100,7.080
1572440345.834311,80980.750,13535,8,GY,1,100,7.904
1572440345.851063,80993.875,13535,8,GY,1,100,7.782
1572440345.867816,81007.000,13535,8,GY,1,100,11.993
1572440345.884409,81020.000,13553,8,GY,1,100,15.045
1572440345.901002,81033.000,13553,8,GY,1,100,15.411
1572440345.917595,81046.000,13553,8,GY,1,100,16.083
1572440345.934188,81059.000,13553,8,GY,1,100,20.630
1572440345.950781,81072.000,13553,8,GY,1,100,21.332
1572440345.967374,81085.000,13553,8,GY,1,100,22.064
1572440345.983967,81098.000,13553,8,GY,1,100,23.956
1572440346.000560,81111.000,13553,8,GY,1,100,20.782
1572440346.016993,81123.875,13571,8,GY,1,100,20.233
1572440346.033426,81136.750,13571,8,GY,1,100,22.980
1572440346.049860,81149.625,13571,8,GY,1,100,19.928
1572440346.066293,81162.500,13571,8,GY,1,100,5.035
1572440346.082726,81175.375,13571,8,GY,1,100,-0.031
1572440346.099160,81188.250,13571,8,GY,1,100,4.761
1572440346.115593,81201.125,13571,8,GY,1,100,5.676
1572440346.132027,81214.000,13571,8,GY,1,100,6.866
1572440346.148620,81227.000,13590,7,GY,1,100,-6.439
1572440346.165213,81240.000,13590,7,GY,1,100,-8.606
1572440346.181805,81253.000,13590,7,GY,1,100,-6.348
1572440346.198398,81266.000,13590,7,GY,1,100,0.610
1572440346.214991,81279.000,13590,7,GY,1,100,2.686
1572440346.231584,81292.000,13590,7,GY,1,100,0.610
1572440346.248177,81305.000,13590,7,GY,1,100,-5.463
1572440346.264966,81318.154,13611,13,GY,1,100,-6.287
1572440346.281756,81331.308,13611,13,GY,1,100,-4.425
1572440346.298545,81344.462,13611,13,GY,1,100,-2.289
1572440346.315334,81357.615,13611,13,GY,1,100,-0.854
1572440346.332124,81370.769,13611,13,GY,1,100,-1.343
1572440346.348913,81383.923,13611,13,GY,1,100,-3.265
1572440346.365702,81397.077,13611,13,GY,1,100,-6.348
1572440346.382492,81410.231,13611,13,GY,1,100,-6.134
1572440346.399281,81423.385,13611,13,GY,1,100,-5.310
1572440346.416070,81436.538,13611,13,GY,1,100,-2.625
1572440346.432860,81449.692,13611,13,GY,1,100,4.364
1572440346.449649,81462.846,13611,13,GY,1,100,8.087
1572440346.466438,81476.000,13611,13,GY,1,100,10.376
1572440346.483213,81489.143,13631,7,GY,1,100,12.299
1572440346.499989,81502.286,13631,7,GY,1,100,14.893
1572440346.516764,81515.429,13631,7,GY,1,100,15.137
1572440346.533539,81528.571,13631,7,GY,1,100,14.008
1572440346.550315,81541.714,13631,7,GY,1,100,15.289
1572440346.567090,81554.857,13631,7,GY,1,100,17.700
1572440346.583865,81568.000,13631,7,GY,1,100,19.196
1572440346.600618,81581.125,13649,8,GY,1,100,20.782
1572440346.617370,81594.250,13649,8,GY,1,100,20.813
1572440346.634123,81607.375,13649,8,GY,1,100,16.815
1572440346.650875,81620.500,13649,8,GY,1,100,15.747
1572440346.667628,81633.625,13649,8,GY,1,100,14.160
1572440346.684380,81646.750,13649,8,GY,1,100,13.214
1572440346.701133,81659.875,13649,8,GY,1,100,14.313
1572440346.717885,81673.000,13649,8,GY,1,100,14.465
1572440346.734478,81686.000,13667,8,GY,1,100,15.991
1572440346.751071,81699.000,13667,8,GY,1,100,15.839
1572440346.767664,81712.000,13667,8,GY,1,100,12.054
1572440346.784257,81725.000,13667,8,GY,1,100,8.392
1572440346.800850,81738.000,13667,8,GY,1,100,9.674
1572440346.817443,81751.000,13667,8,GY,1,100,8.575
1572440346.834036,81764.000,13667,8,GY,1,100,12.573
1572440346.850628,81777.000,13667,8,GY,1,100,10.986
1572440346.867951,81790.571,13683,7,GY,1,100,10.956
1572440346.885273,81804.143,13683,7,GY,1,100,10.498
1572440346.902595,81817.714,13683,7,GY,1,100,9.918
1572440346.919918,81831.286,13683,7,GY,1,100,12.177
1572440346.937240,81844.857,13683,7,GY,1,100,8.606
1572440346.954562,81858.429,13683,7,GY,1,100,9.064
1572440346.971884,81872.000,13683,7,GY,1,100,9.308
1572440346.988318,81884.875,13701,8,GY,1,100,8.820
1572440347.004751,81897.750,13701,8,GY,1,100,5.737
1572440347.021185,81910.625,13701,8,GY,1,100,5.737
1572440347.037618,81923.500,13701,8,GY,1,100,0.946
1572440347.054052,81936.375,13701,8,GY,1,100,-1.923
1572440347.070485,81949.250,13701,8,GY,1,100,-3.967
1572440347.086918,81962.125,13701,8,GY,1,100,-4.028
1572440347.103352,81975.000,13701,8,GY,1,100,-1.038
1572440347.120104,81988.125,13720,8,GY,1,100,-6.165
1572440347.136857,82001.250,13720,8,GY,1,100,-11.566
1572440347.153609,82014.375,13720,8,GY,1,100,-25.360
1572440347.170362,82027.500,13720,8,GY,1,100,-19.196
1572440347.187114,82040.625,13720,8,GY,1,100,-9.674
1572440347.203867,82053.750,13720,8,GY,1,100,-8.301
1572440347.220619,82066.875,13720,8,GY,1,100,-20.599
1572440347.237372,82080.000,13720,8,GY,1,100,-30.975
1572440347.253964,82093.000,13738,7,GY,1,100,-53.558
1572440347.270557,82106.000,13738,7,GY,1,100,-71.411
1572440347.287150,82119.000,13738,7,GY,1,100,-76.721
1572440347.303743,82132.000,13738,7,GY,1,100,-80.261
1572440347.320336,82145.000,13738,7,GY,1,100,-79.224
1572440347.336929,82158.000,13738,7,GY,1,100,-76.355
1572440347.353522,82171.000,13738,7,GY,1,100,-80.505
1572440347.370275,82184.125,13756,8,GY,1,100,-90.363
1572440347.387027,82197.250,13756,8,GY,1,100,-87.463
1572440347.403780,82210.375,13756,8,GY,1,100,-79.315
1572440347.420532,82223.500,13756,8,GY,1,100,-73.364
1572440347.437284,82236.625,13756,8,GY,1,100,-52.551
1572440347.454037,82249.750,13756,8,GY,1,100,-37.109
1572440347.470789,82262.875,13756,8,GY,1,100,-25.116
1572440347.487542,82276.000,13756,8,GY,1,100,-3.540
1572440347.504135,82289.000,13774,8,GY,1,100,6.317
1572440347.520728,82302.000,13774,8,GY,1,100,8.789
1572440347.537321,82315.000,13774,8,GY,1,100,9.338
1572440347.553914,82328.000,13774,8,GY,1,100,10.071
1572440347.570507,82341.000,13774,8,GY,1,100,9.003
1572440347.587100,82354.000,13774,8,GY,1,100,11.444
1572440347.603693,82367.000,13774,8,GY,1,100,12.878
1572440347.620286,82380.000,13774,8,GY,1,100,13.214
1572440347.637038,82393.125,13792,8,GY,1,100,8.057
1572440347.653790,82406.250,13792,8,GY,1,100,3.784
1572440347.670543,82419.375,13792,8,GY,1,100,0.763
1572440347.687295,82432.500,13792,8,GY,1,100,-1.923
1572440347.704048,82445.625,13792,8,GY,1,100,1.312
1572440347.720800,82458.750,13792,8,GY,1,100,1.678
1572440347.737553,82471.875,13792,8,GY,1,100,2.899
1572440347.754305,82485.000,13792,8,GY,1,100,4.639
1572440347.771081,82498.143,13810,7,GY,1,100,5.829
1572440347.787856,82511.286,13810,7,GY,1,100,6.165
1572440347.804631,82524.429,13810,7,GY,1,100,9.033
1572440347.821407,82537.571,13810,7,GY,1,100,13.489
1572440347.838182,82550.714,13810,7,GY,1,100,23.956
1572440347.854957,82563.857,13810,7,GY,1,100,25.269
1572440347.871732,82577.000,13810,7,GY,1,100,21.759
1572440347.888325,82590.000,13828,8,GY,1,100,20.691
1572440347.904918,82603.000,13828,8,GY,1,100,20.538
1572440347.921511,82616.000,13828,8,GY,1,100,18.158
1572440347.938104,82629.000,13828,8,GY,1,100,20.630
1572440347.954697,82642.000,13828,8,GY,1,100,23.682
1572440347.971290,82655.000,13828,8,GY,1,100,28.259
1572440347.987883,82668.000,13828,8,GY,1,100,25.909
1572440348.004476,82681.000,13828,8,GY,1,100,17.242
1572440348.020750,82693.750,13846,8,GY,1,100,7.050
1572440348.037024,82706.500,13846,8,GY,1,100,3.510
1572440348.053297,82719.250,13846,8,GY,1,100,2.502
1572440348.069571,82732.000,13846,8,GY,1,100,-1.465
1572440348.085845,82744.750,13846,8,GY,1,100,-4.333
1572440348.102119,82757.500,13846,8,GY,1,100,-0.275
1572440348.118393,82770.250,13846,8,GY,1,100,11.261
1572440348.134667,82783.000,13846,8,GY,1,100,15.869
1572440348.151259,82796.000,13865,8,GY,1,100,17.090
1572440348.167852,82809.000,13865,8,GY,1,100,25.177
1572440348.184445,82822.000,13865,8,GY,1,100,33.295
1572440348.201038,82835.000,13865,8,GY,1,100,43.701
1572440348.217631,82848.000,13865,8,GY,1,100,39.459
1572440348.234224,82861.000,13865,8,GY,1,100,9.827
1572440348.250817,82874.000,13865,8,GY,1,100,-10.284
1572440348.267410,82887.000,13865,8,GY,1,100,-1.434
1572440348.284003,82900.000,13883,8,GY,1,100,0.885
1572440348.300596,82913.000,13883,8,GY,1,100,2.319
1572440348.317189,82926.000,13883,8,GY,1,100,4.028
1572440348.333782,82939.000,13883,8,GY,1,100,9.125
1572440348.350375,82952.000,13883,8,GY,1,100,8.392
1572440348.366968,82965.000,13883,8,GY,1,100,10.773
1572440348.383561,82978.000,13883,8,GY,1,100,16.479
1572440348.400154,82991.000,13883,8,GY,1,100,14.709
1572440348.416747,83004.000,13901,7,GY,1,100,15.076
1572440348.433339,83017.000,13901,7,GY,1,100,17.151
1572440348.449932,83030.000,13901,7,GY,1,100,15.045
1572440348.466525,83043.000,13901,7,GY,1,100,13.428
1572440348.483118,83056.000,13901,7,GY,1,100,16.907
1572440348.499711,83069.000,13901,7,GY,1,100,19.409
1572440348.516304,83082.000,13901,7,GY,1,100,23.041
1572440348.532897,83095.000,13919,8,GY,1,100,26.581
1572440348.549490,83108.000,13919,8,GY,1,100,26.672
1572440348.566083,83121.000,13919,8,GY,1,100,18.250
1572440348.582676,83134.000,13919,8,GY,1,100,13.794
1572440348.599269,83147.000,13919,8,GY,1,100,12.634
1572440348.615862,83160.000,13919,8,GY,1,100,11.292
1572440348.632455,83173.000,13919,8,GY,1,100,8.392
1572440348.649048,83186.000,13919,8,GY,1,100,7.202
1572440348.665641,83199.000,13937,8,GY,1,100,8.820
1572440348.682234,83212.000,13937,8,GY,1,100,6.226
1572440348.698827,83225.000,13937,8,GY,1,100,6.256
1572440348.715419,83238.000,13937,8,GY,1,100,6.226
1572440348.732012,83251.000,13937,8,GY,1,100,2.563
1572440348.748605,83264.000,13937,8,GY,1,100,1.160
1572440348.765198,83277.000,13937,8,GY,1,100,-0.397
1572440348.781791,83290.000,13937,8,GY,1,100,-2.502
1572440348.798544,83303.125,13955,8,GY,1,100,-4.547
1572440348.815296,83316.250,13955,8,GY,1,100,-6.805
1572440348.832049,83329.375,13955,8,GY,1,100,-6.409
1572440348.848801,83342.500,13955,8,GY,1,100,-8.728
1572440348.865554,83355.625,13955,8,GY,1,100,-11.536
1572440348.882306,83368.750,13955,8,GY,1,100,-9.399
1572440348.899059,83381.875,13955,8,GY,1,100,-4.395
1572440348.915811,83395.000,13955,8,GY,1,100,-2.350
1572440348.932769,83408.286,13973,7,GY,1,100,-3.113
1572440348.949726,83421.571,13973,7,GY,1,100,-2.991
1572440348.966684,83434.857,13973,7,GY,1,100,2.411
1572440348.983641,83448.143,13973,7,GY,1,100,5.615
1572440349.000599,83461.429,13973,7,GY,1,100,13.397
1572440349.017557,83474.714,13973,7,GY,1,100,16.724
1572440349.034514,83488.000,13973,7,GY,1,100,17.914
1572440349.050948,83500.875,13991,8,GY,1,100,16.815
1572440349.067381,83513.750,13991,8,GY,1,100,14.465
1572440349.083815,83526.625,13991,8,GY,1,100,12.726
1572440349.100248,83539.500,13991,8,GY,1,100,11.719
1572440349.116681,83552.375,13991,8,GY,1,100,12.787
1572440349.133115,83565.250,13991,8,GY,1,100,12.115
1572440349.149548,83578.125,13991,8,GY,1,100,9.583
1572440349.165982,83591.000,13991,8,GY,1,100,4.242
1572440349.182575,83604.000,14010,8,GY,1,100,5.524
1572440349.199167,83617.000,14010,8,GY,1,100,7.355
1572440349.215760,83630.000,14010,8,GY,1,100,6.897
1572440349.232353,83643.000,14010,8,GY,1,100,4.089
1572440349.248946,83656.000,14010,8,GY,1,100,0.397
1572440349.265539,83669.000,14010,8,GY,1,100,-0.427
1572440349.282132,83682.000,14010,8,GY,1,100,0.092
1572440349.298725,83695.000,14010,8,GY,1,100,0.580
1572440349.315477,83708.125,14028,8,GY,1,100,2.594
1572440349.332230,83721.250,14028,8,GY,1,100,4.181
1572440349.348982,83734.375,14028,8,GY,1,100,2.502
1572440349.365735,83747.500,14028,8,GY,1,100,0.305
1572440349.382487,83760.625,14028,8,GY,1,100,0.061
1572440349.399240,83773.750,14028,8,GY,1,100,-3.113
1572440349.415992,83786.875,14028,8,GY,1,100,-8.484
1572440349.432745,83800.000,14028,8,GY,1,100,-21.576
1572440349.449338,83813.000,14046,7,GY,1,100,-27.222
1572440349.465931,83826.000,14046,7,GY,1,100,-24.994
1572440349.482524,83839.000,14046,7,GY,1,100,-7.202
1572440349.499117,83852.000,14046,7,GY,1,100,2.869
1572440349.515710,83865.000,14046,7,GY,1,100,-1.801
1572440349.532302,83878.000,14046,7,GY,1,100,-2.350
1572440349.548895,83891.000,14046,7,GY,1,100,2.808
1572440349.565648,83904.125,14064,8,GY,1,100,6.104
1572440349.582400,83917.250,14064,8,GY,1,100,7.538
1572440349.599153,83930.375,14064,8,GY,1,100,11.108
1572440349.615905,83943.500,14064,8,GY,1,100,18.646
1572440349.632658,83956.625,14064,8,GY,1,100,15.656
1572440349.649410,83969.750,14064,8,GY,1,100,12.512
1572440349.666163,83982.875,14064,8,GY,1,100,9.521
1572440349.682915,83996.000,14064,8,GY,1,100,5.432
1572440349.699668,84009.125,14082,8,GY,1,100,4.547
1572440349.716420,84022.250,14082,8,GY,1,100,2.075
1572440349.733173,84035.375,14082,8,GY,1,100,0.916
1572440349.749925,84048.500,14082,8,GY,1,100,2.472
1572440349.766678,84061.625,14082,8,GY,1,100,3.632
1572440349.783430,84074.750,14082,8,GY,1,100,3.693
1572440349.800183,84087.875,14082,8,GY,1,100,2.563
1572440349.816935,84101.000,14082,8,GY,1,100,1.526
1572440349.833710,84114.143,14100,7,GY,1,100,0.824
1572440349.850486,84127.286,14100,7,GY,1,100,1.068
1572440349.867261,84140.429,14100,7,GY,1,100,2.960
1572440349.884036,84153.571,14100,7,GY,1,100,2.411
1572440349.900812,84166.714,14100,7,GY,1,100,0.580
1572440349.917587,84179.857,14100,7,GY,1,100,3.723
1572440349.934362,84193.000,14100,7,GY,1,100,4.547
1572440349.951115,84206.125,14117,8,GY,1,100,5.188
1572440349.967867,84219.250,14117,8,GY,1,100,1.892
1572440349.984620,84232.375,14117,8,GY,1,100,1.190
1572440350.001372,84245.500,14117,8,GY,1,100,0.763
1572440350.018125,84258.625,14117,8,GY,1,100,0.793
1572440350.034877,84271.750,14117,8,GY,1,100,-0.031
1572440350.051630,84284.875,14117,8,GY,1,100,-1.465
1572440350.068382,84298.000,14117,8,GY,1,100,-0.366
1572440350.085135,84311.125,14135,8,GY,1,100,0.092
1572440350.101887,84324.250,14135,8,GY,1,100,0.580
1572440350.118639,84337.375,14135,8,GY,1,100,0.458
1572440350.135392,84350.500,14135,8,GY,1,100,-2.747
1572440350.152144,84363.625,14135,8,GY,1,100,-3.632
1572440350.168897,84376.750,14135,8,GY,1,100,-2.716
1572440350.185649,84389.875,14135,8,GY,1,100,-1.831
1572440350.202402,84403.000,14135,8,GY,1,100,-0.305
1572440350.218995,84416.000,14154,8,GY,1,100,1.465
1572440350.235588,84429.000,14154,8,GY,1,100,4.669
1572440350.252181,84442.000,14154,8,GY,1,100,4.944
1572440350.268774,84455.000,14154,8,GY,1,100,3.448
1572440350.285367,84468.000,14154,8,GY,1,100,1.556
1572440350.301960,84481.000,14154,8,GY,1,100,-1.892
1572440350.318552,84494.000,14154,8,GY,1,100,-0.610
1572440350.335145,84507.000,14154,8,GY,1,100,1.007
1572440350.351556,84519.857,14172,7,GY,1,100,1.099
1572440350.367967,84532.714,14172,7,GY,1,100,0.946
1572440350.384377,84545.571,14172,7,GY,1,100,0.031
1572440350.400788,84558.429,14172,7,GY,1,100,0.061
1572440350.417198,84571.286,14172,7,GY,1,100,-0.183
1572440350.433609,84584.143,14172,7,GY,1,100,0.580
1572440350.450020,84597.000,14172,7,GY,1,100,1.373
1572440350.466932,84610.250,14190,8,GY,1,100,2.106
1572440350.483844,84623.500,14190,8,GY,1,100,4.639
1572440350.500756,84636.750,14190,8,GY,1,100,7.721
1572440350.517668,84650.000,14190,8,GY,1,100,9.003
1572440350.534580,84663.250,14190,8,GY,1,100,10.437
1572440350.551492,84676.500,14190,8,GY,1,100,8.911
1572440350.568404,84689.750,14190,8,GY,1,100,5.066
1572440350.585316,84703.000,14190,8,GY,1,100,2.380
1572440350.602068,84716.125,14208,8,GY,1,100,1.434
1572440350.618821,84729.250,14208,8,GY,1,100,1.526
1572440350.635573,84742.375,14208,8,GY,1,100,2.106
1572440350.652326,84755.500,14208,8,GY,1,100,1.923
1572440350.669078,84768.625,14208,8,GY,1,100,3.967
1572440350.685831,84781.750,14208,8,GY,1,100,2.533
1572440350.702583,84794.875,14208,8,GY,1,100,1.587
1572440350.719336,84808.000,14208,8,GY,1,100,4.761
1572440350.736111,84821.143,14225,7,GY,1,100,6.012
1572440350.752886,84834.286,14225,7,GY,1,100,3.845
1572440350.769661,84847.429,14225,7,GY,1,100,3.723
1572440350.786437,84860.571,14225,7,GY,1,100,3.845
1572440350.803212,84873.714,14225,7,GY,1,100,3.204
1572440350.819987,84886.857,14225,7,GY,1,100,6.317
1572440350.836763,84900.000,14225,7,GY,1,100,9.033
1572440350.853515,84913.125,14242,8,GY,1,100,10.010
1572440350.870268,84926.250,14242,8,GY,1,100,9.583
1572440350.887020,84939.375,14242,8,GY,1,100,8.728
1572440350.903773,84952.500,14242,8,GY,1,100,8.484
1572440350.920525,84965.625,14242,8,GY,1,100,5.341
1572440350.937278,84978.750,14242,8,GY,1,100,4.608
1572440350.954030,84991.875,14242,8,GY,1,100,3.876
1572440350.970783,85005.000,14242,8,GY,1,100,7.233
1572440350.987375,85018.000,14260,8,GY,1,100,6.592
1572440351.003968,85031.000,14260,8,GY,1,100,4.059
1572440351.020561,85044.000,14260,8,GY,1,100,5.096
1572440351.037154,85057.000,14260,8,GY,1,100,6.805
1572440351.053747,85070.000,14260,8,GY,1,100,6.256
1572440351.070340,85083.000,14260,8,GY,1,100,3.998
1572440351.086933,85096.000,14260,8,GY,1,100,3.326
1572440351.103526,85109.000,14260,8,GY,1,100,3.510
1572440351.119959,85121.875,14278,8,GY,1,100,2.655
1572440351.136393,85134.750,14278,8,GY,1,100,0.153
1572440351.152826,85147.625,14278,8,GY,1,100,0.946
1572440351.169260,85160.500,14278,8,GY,1,100,0.427
1572440351.185693,85173.375,14278,8,GY,1,100,-0.916
1572440351.202126,85186.250,14278,8,GY,1,100,0.854
1572440351.218560,85199.125,14278,8,GY,1,100,1.709
1572440351.234993,85212.000,14278,8,GY,1,100,2.411
1572440351.251586,85225.000,14297,8,GY,1,100,2.808
1572440351.268179,85238.000,14297,8,GY,1,100,5.005
1572440351.284772,85251.000,14297,8,GY,1,100,6.073
1572440351.301365,85264.000,14297,8,GY,1,100,10.712
1572440351.317958,85277.000,14297,8,GY,1,100,12.329
1572440351.334551,85290.000,14297,8,GY,1,100,5.432
1572440351.351144,85303.000,14297,8,GY,1,100,1.648
1572440351.367737,85316.000,14297,8,GY,1,100,1.160
1572440351.384147,85328.857,14315,7,GY,1,100,1.556
1572440351.400558,85341.714,14315,7,GY,1,100,0.824
1572440351.416968,85354.571,14315,7,GY,1,100,0.916
1572440351.433379,85367.429,14315,7,GY,1,100,2.228
1572440351.449790,85380.286,14315,7,GY,1,100,2.716
1572440351.466200,85393.143,14315,7,GY,1,100,3.876
1572440351.482611,85406.000,14315,7,GY,1,100,3.204
1572440351.499044,85418.875,14333,8,GY,1,100,3.448
1572440351.515478,85431.750,14333,8,GY,1,100,6.409
1572440351.531911,85444.625,14333,8,GY,1,100,2.075
1572440351.548344,85457.500,14333,8,GY,1,100,0.519
1572440351.564778,85470.375,14333,8,GY,1,100,2.594
1572440351.581211,85483.250,14333,8,GY,1,100,1.068
1572440351.597645,85496.125,14333,8,GY,1,100,0.214
1572440351.614078,85509.000,14333,8,GY,1,100,0.397
1572440351.630831,85522.125,14351,8,GY,1,100,-0.061
1572440351.647583,85535.250,14351,8,GY,1,100,1.862
1572440351.664335,85548.375,14351,8,GY,1,100,3.174
1572440351.681088,85561.500,14351,8,GY,1,100,2.563
1572440351.697840,85574.625,14351,8,GY,1,100,2.747
1572440351.714593,85587.750,14351,8,GY,1,100,4.517
1572440351.731345,85600.875,14351,8,GY,1,100,5.066
1572440351.748098,85614.000,14351,8,GY,1,100,0.397
1572440351.764850,85627.125,14369,8,GY,1,100,-0.244
1572440351.781603,85640.250,14369,8,GY,1,100,0.244
1572440351.798355,85653.375,14369,8,GY,1,100,0.732
1572440351.815108,85666.500,14369,8,GY,1,100,3.387
1572440351.831860,85679.625,14369,8,GY,1,100,3.723
1572440351.848613,85692.750,14369,8,GY,1,100,4.242
1572440351.865365,85705.875,14369,8,GY,1,100,5.890
1572440351.882118,85719.000,14369,8,GY,1,100,7.172
1572440351.899075,85732.286,14387,7,GY,1,100,3.571
1572440351.916033,85745.571,14387,7,GY,1,100,5.585
1572440351.932991,85758.857,14387,7,GY,1,100,2.960
1572440351.949948,85772.143,14387,7,GY,1,100,3.662
1572440351.966906,85785.429,14387,7,GY,1,100,0.793
1572440351.983863,85798.714,14387,7,GY,1,100,2.960
1572440352.000821,85812.000,14387,7,GY,1,100,8.087
1572440352.017254,85824.875,14405,8,GY,1,100,12.024
1572440352.033688,85837.750,14405,8,GY,1,100,8.972
1572440352.050121,85850.625,14405,8,GY,1,100,7.935
1572440352.066555,85863.500,14405,8,GY,1,100,8.850
1572440352.082988,85876.375,14405,8,GY,1,100,10.773
1572440352.099421,85889.250,14405,8,GY,1,100,13.672
1572440352.115855,85902.125,14405,8,GY,1,100,12.085
1572440352.132288,85915.000,14405,8,GY,1,100,10.468
1572440352.148881,85928.000,14423,8,GY,1,100,12.756
1572440352.165474,85941.000,14423,8,GY,1,100,12.604
1572440352.182067,85954.000,14423,8,GY,1,100,11.017
1572440352.198660,85967.000,14423,8,GY,1,100,2.655
1572440352.215253,85980.000,14423,8,GY,1,100,-0.427
1572440352.231846,85993.000,14423,8,GY,1,100,-2.716
1572440352.248439,86006.000,14423,8,GY,1,100,-3.876
1572440352.265032,86019.000,14423,8,GY,1,100,-5.554
1572440352.281625,86032.000,14442,8,GY,1,100,-23.682
1572440352.298218,86045.000,14442,8,GY,1,100,-42.389
1572440352.314811,86058.000,14442,8,GY,1,100,-42.725
1572440352.331403,86071.000,14442,8,GY,1,100,-33.081
1572440352.347996,86084.000,14442,8,GY,1,100,-29.114
1572440352.364589,86097.000,14442,8,GY,1,100,-21.790
1572440352.381182,86110.000,14442,8,GY,1,100,-13.397
1572440352.397775,86123.000,14442,8,GY,1,100,-9.125
1572440352.414368,86136.000,14460,7,GY,1,100,-11.871
1572440352.430961,86149.000,14460,7,GY,1,100,-13.245
1572440352.447554,86162.000,14460,7,GY,1,100,-14.679
1572440352.464147,86175.000,14460,7,GY,1,100,-16.541
1572440352.480740,86188.000,14460,7,GY,1,100,-13.611
1572440352.497333,86201.000,14460,7,GY,1,100,-12.451
1572440352.513926,86214.000,14460,7,GY,1,100,-11.658
1572440352.530519,86227.000,14478,8,GY,1,100,-7.721
1572440352.547112,86240.000,14478,8,GY,1,100,-4.547
1572440352.563704,86253.000,14478,8,GY,1,100,0.031
1572440352.580297,86266.000,14478,8,GY,1,100,1.740
1572440352.596890,86279.000,14478,8,GY,1,100,4.883
1572440352.613483,86292.000,14478,8,GY,1,100,4.242
1572440352.630076,86305.000,14478,8,GY,1,100,1.862
1572440352.646669,86318.000,14478,8,GY,1,100,1.038
1572440352.663581,86331.250,14496,8,GY,1,100,3.754
1572440352.680493,86344.500,14496,8,GY,1,100,5.493
1572440352.697405,86357.750,14496,8,GY,1,100,6.500
1572440352.714317,86371.000,14496,8,GY,1,100,7.751
1572440352.731229,86384.250,14496,8,GY,1,100,7.629
1572440352.748142,86397.500,14496,8,GY,1,100,7.660
1572440352.765054,86410.750,14496,8,GY,1,100,10.468
1572440352.781965,86424.000,14496,8,GY,1,100,10.681
1572440352.798853,86437.231,14517,13,GY,1,100,11.322
1572440352.815740,86450.462,14517,13,GY,1,100,13.275
1572440352.832628,86463.692,14517,13,GY,1,100,13.397
1572440352.849515,86476.923,14517,13,GY,1,100,12.024
1572440352.866403,86490.154,14517,13,GY,1,100,3.906
1572440352.883290,86503.385,14517,13,GY,1,100,2.045
1572440352.900178,86516.615,14517,13,GY,1,100,-0.946
1572440352.917065,86529.846,14517,13,GY,1,100,-1.862
1572440352.933953,86543.077,14517,13,GY,1,100,-3.082
1572440352.950840,86556.308,14517,13,GY,1,100,-5.157
1572440352.967728,86569.538,14517,13,GY,1,100,-5.859
1572440352.984615,86582.769,14517,13,GY,1,100,-5.890
1572440353.001503,86596.000,14517,13,GY,1,100,-5.524
1572440353.018308,86609.167,14537,6,GY,1,100,-5.737
1572440353.035114,86622.333,14537,6,GY,1,100,-5.463
1572440353.051920,86635.500,14537,6,GY,1,100,-4.272
1572440353.068726,86648.667,14537,6,GY,1,100,-2.960
1572440353.085531,86661.833,14537,6,GY,1,100,-1.160
1572440353.102337,86675.000,14537,6,GY,1,100,-0.305
1572440353.119089,86688.125,14553,8,GY,1,100,-0.458
1572440353.135842,86701.250,14553,8,GY,1,100,-1.495
1572440353.152594,86714.375,14553,8,GY,1,100,-7.629
1572440353.169347,86727.500,14553,8,GY,1,100,-9.003
1572440353.186099,86740.625,14553,8,GY,1,100,-5.707
1572440353.202852,86753.750,14553,8,GY,1,100,1.770
1572440353.219604,86766.875,14553,8,GY,1,100,5.859
1572440353.236357,86780.000,14553,8,GY,1,100,9.674
1572440353.253269,86793.250,14572,8,GY,1,100,10.101
1572440353.270181,86806.500,14572,8,GY,1,100,12.207
1572440353.287093,86819.750,14572,8,GY,1,100,10.895
1572440353.304005,86833.000,14572,8,GY,1,100,10.864
1572440353.320917,86846.250,14572,8,GY,1,100,8.881
1572440353.337829,86859.500,14572,8,GY,1,100,3.815
1572440353.354741,86872.750,14572,8,GY,1,100,1.068
1572440353.371653,86886.000,14572,8,GY,1,100,0.854
1572440353.388086,86898.875,14590,8,GY,1,100,-1.068
1572440353.404520,86911.750,14590,8,GY,1,100,-1.587
1572440353.420953,86924.625,14590,8,GY,1,100,-0.641
1572440353.437387,86937.500,14590,8,GY,1,100,-3.601
1572440353.453820,86950.375,14590,8,GY,1,100,-3.876
1572440353.470253,86963.250,14590,8,GY,1,100,-4.303
1572440353.486687,86976.125,14590,8,GY,1,100,-6.195
1572440353.503120,86989.000,14590,8,GY,1,100,-5.035
1572440353.519713,87002.000,14608,7,GY,1,100,-5.585
1572440353.536306,87015.000,14608,7,GY,1,100,-3.387
1572440353.552899,87028.000,14608,7,GY,1,100,-2.014
1572440353.569492,87041.000,14608,7,GY,1,100,-2.258
1572440353.586085,87054.000,14608,7,GY,1,100,-1.892
1572440353.602678,87067.000,14608,7,GY,1,100,-0.793
1572440353.619271,87080.000,14608,7,GY,1,100,0.946
1572440353.636023,87093.125,14626,8,GY,1,100,5.524
1572440353.652776,87106.250,14626,8,GY,1,100,6.683
1572440353.669528,87119.375,14626,8,GY,1,100,1.801
1572440353.686280,87132.500,14626,8,GY,1,100,-0.092
1572440353.703033,87145.625,14626,8,GY,1,100,-0.275
1572440353.719785,87158.750,14626,8,GY,1,100,1.312
1572440353.736538,87171.875,14626,8,GY,1,100,-1.526
1572440353.753290,87185.000,14626,8,GY,1,100,-6.195
1572440353.770043,87198.125,14644,8,GY,1,100,-3.754
1572440353.786795,87211.250,14644,8,GY,1,100,-3.937
1572440353.803548,87224.375,14644,8,GY,1,100,-5.066
1572440353.820301,87237.500,14644,8,GY,1,100,-3.845
1572440353.837053,87250.625,14644,8,GY,1,100,-3.265
1572440353.853806,87263.750,14644,8,GY,1,100,-1.007
1572440353.870558,87276.875,14644,8,GY,1,100,0.854
1572440353.887311,87290.000,14644,8,GY,1,100,0.732
1572440353.903903,87303.000,14662,8,GY,1,100,1.068
1572440353.920496,87316.000,14662,8,GY,1,100,1.251
1572440353.937089,87329.000,14662,8,GY,1,100,1.312
1572440353.953682,87342.000,14662,8,GY,1,100,1.862
1572440353.970275,87355.000,14662,8,GY,1,100,2.258
1572440353.986868,87368.000,14662,8,GY,1,100,1.617
1572440354.003461,87381.000,14662,8,GY,1,100,1.892
1572440354.020054,87394.000,14662,8,GY,1,100,1.831
1572440354.036647,87407.000,14680,7,GY,1,100,2.625
1572440354.053240,87420.000,14680,7,GY,1,100,2.472
1572440354.069833,87433.000,14680,7,GY,1,100,2.045
1572440354.086426,87446.000,14680,7,GY,1,100,1.556
1572440354.103019,87459.000,14680,7,GY,1,100,0.397
1572440354.119612,87472.000,14680,7,GY,1,100,-0.275
1572440354.136204,87485.000,14680,7,GY,1,100,-1.740
1572440354.152797,87498.000,14698,8,GY,1,100,-1.984
1572440354.169390,87511.000,14698,8,GY,1,100,-2.655
1572440354.185983,87524.000,14698,8,GY,1,100,-2.045
1572440354.202576,87537.000,14698,8,GY,1,100,-2.228
1572440354.219169,87550.000,14698,8,GY,1,100,-1.190
1572440354.235762,87563.000,14698,8,GY,1,100,0.092
1572440354.252355,87576.000,14698,8,GY,1,100,0.031
1572440354.268948,87589.000,14698,8,GY,1,100,2.106
1572440354.285541,87602.000,14717,8,GY,1,100,4.272
1572440354.302134,87615.000,14717,8,GY,1,100,6.378
1572440354.318727,87628.000,14717,8,GY,1,100,7.538
1572440354.335320,87641.000,14717,8,GY,1,100,2.014
1572440354.351913,87654.000,14717,8,GY,1,100,2.289
1572440354.368505,87667.000,14717,8,GY,1,100,3.082
1572440354.385098,87680.000,14717,8,GY,1,100,1.953
1572440354.401691,87693.000,14717,8,GY,1,100,2.319
1572440354.417965,87705.750,14735,8,GY,1,100,7.477
1572440354.434239,87718.500,14735,8,GY,1,100,1.343
1572440354.450513,87731.250,14735,8,GY,1,100,0.549
1572440354.466787,87744.000,14735,8,GY,1,100,2.686
1572440354.483061,87756.750,14735,8,GY,1,100,2.960
1572440354.499335,87769.500,14735,8,GY,1,100,1.587
1572440354.515608,87782.250,14735,8,GY,1,100,0.214
1572440354.531882,87795.000,14735,8,GY,1,100,-0.580
1572440354.548475,87808.000,14753,8,GY,1,100,-0.824
1572440354.565068,87821.000,14753,8,GY,1,100,-0.427
1572440354.581661,87834.000,14753,8,GY,1,100,-0.275
1572440354.598254,87847.000,14753,8,GY,1,100,-0.793
1572440354.614847,87860.000,14753,8,GY,1,100,-0.244
1572440354.631440,87873.000,14753,8,GY,1,100,-0.061
1572440354.648033,87886.000,14753,8,GY,1,100,0.763
1572440354.664626,87899.000,14753,8,GY,1,100,0.031
1572440354.681036,87911.857,14771,7,GY,1,100,0.366
1572440354.697447,87924.714,14771,7,GY,1,100,0.183
1572440354.713857,87937.571,14771,7,GY,1,100,-0.061
1572440354.730268,87950.429,14771,7,GY,1,100,0.275
1572440354.746679,87963.286,14771,7,GY,1,100,0.092
1572440354.763089,87976.143,14771,7,GY,1,100,0.793
1572440354.779500,87989.000,14771,7,GY,1,100,0.671
1572440354.796412,88002.250,14789,8,GY,1,100,0.671
1572440354.813324,88015.500,14789,8,GY,1,100,0.916
1572440354.830236,88028.750,14789,8,GY,1,100,1.831
1572440354.847148,88042.000,14789,8,GY,1,100,1.465
1572440354.864060,88055.250,14789,8,GY,1,100,1.740
1572440354.880972,88068.500,14789,8,GY,1,100,1.038
1572440354.897884,88081.750,14789,8,GY,1,100,1.434
1572440354.914796,88095.000,14789,8,GY,1,100,1.068
1572440354.931389,88108.000,14807,8,GY,1,100,0.031
1572440354.947982,88121.000,14807,8,GY,1,100,-0.610
1572440354.964575,88134.000,14807,8,GY,1,100,-1.129
1572440354.981168,88147.000,14807,8,GY,1,100,0.092
1572440354.997761,88160.000,14807,8,GY,1,100,-0.610
1572440355.014354,88173.000,14807,8,GY,1,100,-0.214
1572440355.030947,88186.000,14807,8,GY,1,100,-1.129
1572440355.047540,88199.000,14807,8,GY,1,100,-0.275
1572440355.064315,88212.143,14825,7,GY,1,100,0.916
1572440355.081090,88225.286,14825,7,GY,1,100,1.343
1572440355.097866,88238.429,14825,7,GY,1,100,2.686
1572440355.114641,88251.571,14825,7,GY,1,100,3.326
1572440355.131416,88264.714,14825,7,GY,1,100,5.035
1572440355.148191,88277.857,14825,7,GY,1,100,2.899
1572440355.164967,88291.000,14825,7,GY,1,100,-0.427
1572440355.181560,88304.000,14843,8,GY,1,100,-1.190
1572440355.198153,88317.000,14843,8,GY,1,100,-2.502
1572440355.214746,88330.000,14843,8,GY,1,100,-2.563
1572440355.231338,88343.000,14843,8,GY,1,100,-1.862
1572440355.247931,88356.000,14843,8,GY,1,100,-2.014
1572440355.264524,88369.000,14843,8,GY,1,100,-0.397
1572440355.281117,88382.000,14843,8,GY,1,100,2.289
1572440355.297710,88395.000,14843,8,GY,1,100,3.235
1572440355.314463,88408.125,14862,8,GY,1,100,3.296
1572440355.331215,88421.250,14862,8,GY,1,100,4.089
1572440355.347968,88434.375,14862,8,GY,1,100,3.998
1572440355.364720,88447.500,14862,8,GY,1,100,3.235
1572440355.381473,88460.625,14862,8,GY,1,100,2.380
1572440355.398225,88473.750,14862,8,GY,1,100,3.632
1572440355.414978,88486.875,14862,8,GY,1,100,3.174
1572440355.431730,88500.000,14862,8,GY,1,100,0.549
1572440355.448004,88512.750,14880,8,GY,1,100,1.709
1572440355.464278,88525.500,14880,8,GY,1,100,2.106
1572440355.480551,88538.250,14880,8,GY,1,100,0.702
1572440355.496825,88551.000,14880,8,GY,1,100,0.183
1572440355.513099,88563.750,14880,8,GY,1,100,-1.434
1572440355.529373,88576.500,14880,8,GY,1,100,-2.106
1572440355.545647,88589.250,14880,8,GY,1,100,-2.716
1572440355.561921,88602.000,14880,8,GY,1,100,-3.754
1572440355.578696,88615.143,14898,7,GY,1,100,-3.693
1572440355.595471,88628.286,14898,7,GY,1,100,-4.578
1572440355.612247,88641.429,14898,7,GY,1,100,-2.136
1572440355.629022,88654.571,14898,7,GY,1,100,-0.946
1572440355.645797,88667.714,14898,7,GY,1,100,1.770
1572440355.662572,88680.857,14898,7,GY,1,100,3.418
1572440355.679348,88694.000,14898,7,GY,1,100,3.204
1572440355.696100,88707.125,14916,8,GY,1,100,3.296
1572440355.712853,88720.250,14916,8,GY,1,100,3.448
1572440355.729605,88733.375,14916,8,GY,1,100,2.838
1572440355.746358,88746.500,14916,8,GY,1,100,3.510
1572440355.763110,88759.625,14916,8,GY,1,100,2.808
1572440355.779863,88772.750,14916,8,GY,1,100,2.716
1572440355.796615,88785.875,14916,8,GY,1,100,2.136
1572440355.813368,88799.000,14916,8,GY,1,100,1.465
1572440355.830280,88812.250,14934,8,GY,1,100,2.197
1572440355.847192,88825.500,14934,8,GY,1,100,5.280
1572440355.864104,88838.750,14934,8,GY,1,100,2.045
1572440355.881016,88852.000,14934,8,GY,1,100,-0.092
1572440355.897928,88865.250,14934,8,GY,1,100,0.092
1572440355.914840,88878.500,14934,8,GY,1,100,-1.282
1572440355.931752,88891.750,14934,8,GY,1,100,-2.228
1572440355.948664,88905.000,14934,8,GY,1,100,-1.251
1572440355.965416,88918.125,14952,8,GY,1,100,-0.977
1572440355.982169,88931.250,14952,8,GY,1,100,1.892
1572440355.998921,88944.375,14952,8,GY,1,100,0.702
1572440356.015674,88957.500,14952,8,GY,1,100,-0.183
1572440356.032426,88970.625,14952,8,GY,1,100,2.197
1572440356.049179,88983.750,14952,8,GY,1,100,2.960
1572440356.065931,88996.875,14952,8,GY,1,100,6.622
1572440356.082684,89010.000,14952,8,GY,1,100,5.371
1572440356.099459,89023.143,14969,7,GY,1,100,2.380
1572440356.116234,89036.286,14969,7,GY,1,100,1.526
1572440356.133009,89049.429,14969,7,GY,1,100,2.380
1572440356.149785,89062.571,14969,7,GY,1,100,2.350
1572440356.166560,89075.714,14969,7,GY,1,100,1.312
1572440356.183335,89088.857,14969,7,GY,1,100,1.251
1572440356.200111,89102.000,14969,7,GY,1,100,1.160
1572440356.216704,89115.000,14987,8,GY,1,100,3.540
1572440356.233296,89128.000,14987,8,GY,1,100,5.371
1572440356.249889,89141.000,14987,8,GY,1,100,4.059
1572440356.266482,89154.000,14987,8,GY,1,100,3.296
1572440356.283075,89167.000,14987,8,GY,1,100,3.540
1572440356.299668,89180.000,14987,8,GY,1,100,3.265
1572440356.316261,89193.000,14987,8,GY,1,100,2.472
1572440356.332854,89206.000,14987,8,GY,1,100,2.228
1572440356.349447,89219.000,15006,8,GY,1,100,1.923
1572440356.366040,89232.000,15006,8,GY,1,100,0.275
1572440356.382633,89245.000,15006,8,GY,1,100,-0.092
1572440356.399226,89258.000,15006,8,GY,1,100,-0.519
1572440356.415819,89271.000,15006,8,GY,1,100,-0.122
1572440356.432412,89284.000,15006,8,GY,1,100,0.885
1572440356.449005,89297.000,15006,8,GY,1,100,1.007
1572440356.465598,89310.000,15006,8,GY,1,100,1.312
1572440356.482191,89323.000,15024,8,GY,1,100,1.221
1572440356.498784,89336.000,15024,8,GY,1,100,4.150
1572440356.515376,89349.000,15024,8,GY,1,100,1.648
1572440356.531969,89362.000,15024,8,GY,1,100,1.678
1572440356.548562,89375.000,15024,8,GY,1,100,1.984
1572440356.565155,89388.000,15024,8,GY,1,100,0.854
1572440356.581748,89401.000,15024,8,GY,1,100,0.793
1572440356.598341,89414.000,15024,8,GY,1,100,0.214
1572440356.614934,89427.000,15042,7,GY,1,100,-0.458
1572440356.631527,89440.000,15042,7,GY,1,100,-0.336
1572440356.648120,89453.000,15042,7,GY,1,100,0.153
1572440356.664713,89466.000,15042,7,GY,1,100,0.031
1572440356.681306,89479.000,15042,7,GY,1,100,0.153
1572440356.697899,89492.000,15042,7,GY,1,100,0.702
1572440356.714492,89505.000,15042,7,GY,1,100,0.946
1572440356.730925,89517.875,15060,8,GY,1,100,2.838
1572440356.747359,89530.750,15060,8,GY,1,100,1.038
1572440356.763792,89543.625,15060,8,GY,1,100,1.221
1572440356.780225,89556.500,15060,8,GY,1,100,0.916
1572440356.796659,89569.375,15060,8,GY,1,100,-0.946
1572440356.813092,89582.250,15060,8,GY,1,100,-0.916
1572440356.829525,89595.125,15060,8,GY,1,100,-0.641
1572440356.845959,89608.000,15060,8,GY,1,100,-1.068
1572440356.862871,89621.250,15078,8,GY,1,100,-1.190
1572440356.879783,89634.500,15078,8,GY,1,100,-1.251
1572440356.896695,89647.750,15078,8,GY,1,100,-5.615
1572440356.913607,89661.000,15078,8,GY,1,100,-8.728
1572440356.930519,89674.250,15078,8,GY,1,100,-14.954
1572440356.947431,89687.500,15078,8,GY,1,100,-15.045
1572440356.964343,89700.750,15078,8,GY,1,100,-19.165
1572440356.981255,89714.000,15078,8,GY,1,100,-20.508
1572440356.998008,89727.125,15096,8,GY,1,100,-16.663
1572440357.014760,89740.250,15096,8,GY,1,100,-14.862
1572440357.031512,89753.375,15096,8,GY,1,100,-13.123
1572440357.048265,89766.500,15096,8,GY,1,100,-15.320
1572440357.065017,89779.625,15096,8,GY,1,100,-18.494
1572440357.081770,89792.750,15096,8,GY,1,100,-18.036
1572440357.098522,89805.875,15096,8,GY,1,100,-16.479
1572440357.115275,89819.000,15096,8,GY,1,100,-9.857
1572440357.132050,89832.143,15112,7,GY,1,100,-5.676
1572440357.148825,89845.286,15112,7,GY,1,100,-5.859
1572440357.165601,89858.429,15112,7,GY,1,100,-6.866
1572440357.182376,89871.571,15112,7,GY,1,100,-7.477
1572440357.199151,89884.714,15112,7,GY,1,100,-7.324
1572440357.215927,89897.857,15112,7,GY,1,100,-6.927
1572440357.232702,89911.000,15112,7,GY,1,100,-7.446
1572440357.248976,89923.750,15131,8,GY,1,100,-8.118
1572440357.265249,89936.500,15131,8,GY,1,100,-7.416
1572440357.281523,89949.250,15131,8,GY,1,100,-7.690
1572440357.297797,89962.000,15131,8,GY,1,100,-7.355
1572440357.314071,89974.750,15131,8,GY,1,100,-7.324
1572440357.330345,89987.500,15131,8,GY,1,100,-7.599
1572440357.346619,90000.250,15131,8,GY,1,100,-7.568
1572440357.362893,90013.000,15131,8,GY,1,100,-6.561
1572440357.379486,90026.000,15149,8,GY,1,100,-6.439
1572440357.396079,90039.000,15149,8,GY,1,100,-6.317
1572440357.412671,90052.000,15149,8,GY,1,100,-5.310
1572440357.429264,90065.000,15149,8,GY,1,100,-4.822
1572440357.445857,90078.000,15149,8,GY,1,100,-5.157
1572440357.462450,90091.000,15149,8,GY,1,100,-4.242
1572440357.479043,90104.000,15149,8,GY,1,100,-3.784
1572440357.495636,90117.000,15149,8,GY,1,100,-3.052
1572440357.512069,90129.875,15167,8,GY,1,100,-3.601
1572440357.528503,90142.750,15167,8,GY,1,100,-4.578
1572440357.544936,90155.625,15167,8,GY,1,100,-3.326
1572440357.561370,90168.500,15167,8,GY,1,100,-2.686
1572440357.577803,90181.375,15167,8,GY,1,100,-1.892
1572440357.594236,90194.250,15167,8,GY,1,100,-1.526
1572440357.610670,90207.125,15167,8,GY,1,100,-2.502
1572440357.627103,90220.000,15167,8,GY,1,100,-2.380
1572440357.643537,90232.875,15185,8,GY,1,100,-1.862
1572440357.659970,90245.750,15185,8,GY,1,100,-0.671
1572440357.676404,90258.625,15185,8,GY,1,100,0.610
1572440357.692837,90271.500,15185,8,GY,1,100,1.740
1572440357.709270,90284.375,15185,8,GY,1,100,1.862
1572440357.725703,90297.250,15185,8,GY,1,100,0.610
1572440357.742137,90310.125,15185,8,GY,1,100,-1.740
1572440357.758570,90323.000,15185,8,GY,1,100,-0.732
1572440357.775346,90336.143,15203,7,GY,1,100,2.686
1572440357.792121,90349.286,15203,7,GY,1,100,2.258
1572440357.808896,90362.429,15203,7,GY,1,100,2.686
1572440357.825671,90375.571,15203,7,GY,1,100,3.418
1572440357.842447,90388.714,15203,7,GY,1,100,1.373
1572440357.859222,90401.857,15203,7,GY,1,100,-0.366
1572440357.875997,90415.000,15203,7,GY,1,100,-0.549
1572440357.892750,90428.125,15221,8,GY,1,100,-1.404
1572440357.909502,90441.250,15221,8,GY,1,100,-2.167
1572440357.926255,90454.375,15221,8,GY,1,100,-2.625
1572440357.943007,90467.500,15221,8,GY,1,100,-1.892
1572440357.959760,90480.625,15221,8,GY,1,100,-1.740
1572440357.976512,90493.750,15221,8,GY,1,100,-0.031
1572440357.993265,90506.875,15221,8,GY,1,100,-0.275
1572440358.010017,90520.000,15221,8,GY,1,100,-0.122
1572440358.026770,90533.125,15239,8,GY,1,100,0.397
1572440358.043522,90546.250,15239,8,GY,1,100,0.488
1572440358.060275,90559.375,15239,8,GY,1,100,0.000
1572440358.077027,90572.500,15239,8,GY,1,100,-1.099
1572440358.093780,90585.625,15239,8,GY,1,100,-0.946
1572440358.110532,90598.750,15239,8,GY,1,100,-0.305
1572440358.127285,90611.875,15239,8,GY,1,100,0.793
1572440358.144037,90625.000,15239,8,GY,1,100,2.411
1572440358.160995,90638.286,15257,7,GY,1,100,5.951
1572440358.177952,90651.571,15257,7,GY,1,100,7.935
1572440358.194910,90664.857,15257,7,GY,1,100,8.087
1572440358.211868,90678.143,15257,7,GY,1,100,3.632
1572440358.228825,90691.429,15257,7,GY,1,100,2.167
1572440358.245783,90704.714,15257,7,GY,1,100,1.465
1572440358.262740,90718.000,15257,7,GY,1,100,0.488
1572440358.279333,90731.000,15276,8,GY,1,100,1.068
1572440358.295926,90744.000,15276,8,GY,1,100,1.282
1572440358.312519,90757.000,15276,8,GY,1,100,0.458
1572440358.329112,90770.000,15276,8,GY,1,100,2.075
1572440358.345705,90783.000,15276,8,GY,1,100,1.617
1572440358.362298,90796.000,15276,8,GY,1,100,0.427
1572440358.378891,90809.000,15276,8,GY,1,100,0.183
1572440358.395484,90822.000,15276,8,GY,1,100,0.153
1572440358.411917,90834.875,15294,8,GY,1,100,1.953
1572440358.428351,90847.750,15294,8,GY,1,100,2.350
1572440358.444784,90860.625,15294,8,GY,1,100,1.038
1572440358.461217,90873.500,15294,8,GY,1,100,-2.594
1572440358.477651,90886.375,15294,8,GY,1,100,-2.319
1572440358.494084,90899.250,15294,8,GY,1,100,-1.007
1572440358.510518,90912.125,15294,8,GY,1,100,-0.916
1572440358.526951,90925.000,15294,8,GY,1,100,0.763
1572440358.543704,90938.125,15312,8,GY,1,100,2.777
1572440358.560456,90951.250,15312,8,GY,1,100,1.862
1572440358.577209,90964.375,15312,8,GY,1,100,1.648
1572440358.593961,90977.500,15312,8,GY,1,100,1.129
1572440358.610713,90990.625,15312,8,GY,1,100,0.427
1572440358.627466,91003.750,15312,8,GY,1,100,0.214
1572440358.644218,91016.875,15312,8,GY,1,100,-2.563
1572440358.660971,91030.000,15312,8,GY,1,100,-2.350
1572440358.677382,91042.857,15330,7,GY,1,100,-3.174
1572440358.693792,91055.714,15330,7,GY,1,100,-3.937
1572440358.710203,91068.571,15330,7,GY,1,100,-2.960
1572440358.726613,91081.429,15330,7,GY,1,100,-1.465
1572440358.743024,91094.286,15330,7,GY,1,100,0.519
1572440358.759434,91107.143,15330,7,GY,1,100,1.373
1572440358.775845,91120.000,15330,7,GY,1,100,2.991
1572440358.792598,91133.125,15348,8,GY,1,100,2.960
1572440358.809350,91146.250,15348,8,GY,1,100,2.167
1572440358.826102,91159.375,15348,8,GY,1,100,0.946
1572440358.842855,91172.500,15348,8,GY,1,100,-0.305
1572440358.859607,91185.625,15348,8,GY,1,100,-0.977
1572440358.876360,91198.750,15348,8,GY,1,100,-0.824
1572440358.893112,91211.875,15348,8,GY,1,100,-0.549
1572440358.909865,91225.000,15348,8,GY,1,100,-0.854
1572440358.926617,91238.125,15366,8,GY,1,100,-2.991
1572440358.943370,91251.250,15366,8,GY,1,100,-2.899
1572440358.960122,91264.375,15366,8,GY,1,100,-1.617
1572440358.976875,91277.500,15366,8,GY,1,100,-0.702
1572440358.993627,91290.625,15366,8,GY,1,100,-0.824
1572440359.010380,91303.750,15366,8,GY,1,100,1.556
1572440359.027132,91316.875,15366,8,GY,1,100,2.350
1572440359.043885,91330.000,15366,8,GY,1,100,2.136
1572440359.060797,91343.250,15384,8,GY,1,100,1.434
1572440359.077709,91356.500,15384,8,GY,1,100,1.312
1572440359.094621,91369.750,15384,8,GY,1,100,1.923
1572440359.111533,91383.000,15384,8,GY,1,100,-0.916
1572440359.128445,91396.250,15384,8,GY,1,100,-3.296
1572440359.145357,91409.500,15384,8,GY,1,100,-1.526
1572440359.162269,91422.750,15384,8,GY,1,100,-0.305
1572440359.179181,91436.000,15384,8,GY,1,100,1.129
1572440359.195956,91449.143,15402,7,GY,1,100,1.221
1572440359.212732,91462.286,15402,7,GY,1,100,-3.052
1572440359.229507,91475.429,15402,7,GY,1,100,-0.458
1572440359.246282,91488.571,15402,7,GY,1,100,0.671
1572440359.263057,91501.714,15402,7,GY,1,100,3.052
1572440359.279833,91514.857,15402,7,GY,1,100,3.357
1572440359.296608,91528.000,15402,7,GY,1,100,0.061
1572440359.313201,91541.000,15424,13,GY,1,100,0.183
1572440359.329794,91554.000,15424,13,GY,1,100,1.251
1572440359.346387,91567.000,15424,13,GY,1,100,2.380
1572440359.362980,91580.000,15424,13,GY,1,100,1.617
1572440359.379573,91593.000,15424,13,GY,1,100,-0.885
1572440359.396166,91606.000,15424,13,GY,1,100,-0.275
1572440359.412759,91619.000,15424,13,GY,1,100,0.854
1572440359.429352,91632.000,15424,13,GY,1,100,1.495
1572440359.445945,91645.000,15424,13,GY,1,100,1.129
1572440359.462538,91658.000,15424,13,GY,1,100,-0.824
1572440359.479130,91671.000,15424,13,GY,1,100,-1.129
1572440359.495723,91684.000,15424,13,GY,1,100,0.519
1572440359.512316,91697.000,15424,13,GY,1,100,1.129
1572440359.528909,91710.000,15442,7,GY,1,100,1.312
1572440359.545502,91723.000,15442,7,GY,1,100,-0.061
1572440359.562095,91736.000,15442,7,GY,1,100,0.549
1572440359.578688,91749.000,15442,7,GY,1,100,1.312
1572440359.595281,91762.000,15442,7,GY,1,100,1.404
1572440359.611874,91775.000,15442,7,GY,1,100,-0.061
1572440359.628467,91788.000,15442,7,GY,1,100,-0.916
1572440359.645060,91801.000,15460,8,GY,1,100,-1.068
1572440359.661653,91814.000,15460,8,GY,1,100,0.000
1572440359.678246,91827.000,15460,8,GY,1,100,0.305
1572440359.694839,91840.000,15460,8,GY,1,100,-2.197
1572440359.711432,91853.000,15460,8,GY,1,100,-0.793
1572440359.728024,91866.000,15460,8,GY,1,100,0.671
1572440359.744617,91879.000,15460,8,GY,1,100,1.465
1572440359.761210,91892.000,15460,8,GY,1,100,2.380
1572440359.777803,91905.000,15478,8,GY,1,100,1.587
1572440359.794396,91918.000,15478,8,GY,1,100,0.610
1572440359.810989,91931.000,15478,8,GY,1,100,0.458
1572440359.827582,91944.000,15478,8,GY,1,100,0.641
1572440359.844175,91957.000,15478,8,GY,1,100,-1.282
1572440359.860768,91970.000,15478,8,GY,1,100,-1.617
1572440359.877361,91983.000,15478,8,GY,1,100,-0.885
1572440359.893954,91996.000,15478,8,GY,1,100,-0.641
1572440359.910706,92009.125,15496,8,GY,1,100,-1.251
1572440359.927459,92022.250,15496,8,GY,1,100,-0.183
1572440359.944211,92035.375,15496,8,GY,1,100,0.793
1572440359.960964,92048.500,15496,8,GY,1,100,2.441
1572440359.977716,92061.625,15496,8,GY,1,100,2.228
1572440359.994469,92074.750,15496,8,GY,1,100,0.885
1572440360.011221,92087.875,15496,8,GY,1,100,-0.854
1572440360.027974,92101.000,15496,8,GY,1,100,-0.153
1572440360.044567,92114.000,15514,7,GY,1,100,1.190
1572440360.061160,92127.000,15514,7,GY,1,100,0.244
1572440360.077753,92140.000,15514,7,GY,1,100,0.580
1572440360.094345,92153.000,15514,7,GY,1,100,-0.488
1572440360.110938,92166.000,15514,7,GY,1,100,1.617
1572440360.127531,92179.000,15514,7,GY,1,100,1.007
1572440360.144124,92192.000,15514,7,GY,1,100,0.214
1572440360.160877,92205.125,15532,8,GY,1,100,-1.221
1572440360.177629,92218.250,15532,8,GY,1,100,-0.763
1572440360.194382,92231.375,15532,8,GY,1,100,-1.648
1572440360.211134,92244.500,15532,8,GY,1,100,-1.068
1572440360.227887,92257.625,15532,8,GY,1,100,-0.488
1572440360.244639,92270.750,15532,8,GY,1,100,-1.343
1572440360.261392,92283.875,15532,8,GY,1,100,0.488
1572440360.278144,92297.000,15532,8,GY,1,100,1.587
1572440360.294578,92309.875,15551,8,GY,1,100,1.953
1572440360.311011,92322.750,15551,8,GY,1,100,2.136
1572440360.327444,92335.625,15551,8,GY,1,100,1.862
1572440360.343878,92348.500,15551,8,GY,1,100,0.397
1572440360.360311,92361.375,15551,8,GY,1,100,-1.160
1572440360.376745,92374.250,15551,8,GY,1,100,-1.404
1572440360.393178,92387.125,15551,8,GY,1,100,-1.709
1572440360.409611,92400.000,15551,8,GY,1,100,-2.106
1572440360.426204,92413.000,15569,8,GY,1,100,-2.136
1572440360.442797,92426.000,15569,8,GY,1,100,-2.441
1572440360.459390,92439.000,15569,8,GY,1,100,-0.305
1572440360.475983,92452.000,15569,8,GY,1,100,1.434
1572440360.492576,92465.000,15569,8,GY,1,100,2.350
1572440360.509169,92478.000,15569,8,GY,1,100,2.838
1572440360.525762,92491.000,15569,8,GY,1,100,2.502
1572440360.542355,92504.000,15569,8,GY,1,100,2.441
1572440360.558948,92517.000,15587,7,GY,1,100,1.648
1572440360.575541,92530.000,15587,7,GY,1,100,0.275
1572440360.592134,92543.000,15587,7,GY,1,100,-1.343
1572440360.608727,92556.000,15587,7,GY,1,100,-1.495
1572440360.625319,92569.000,15587,7,GY,1,100,-2.808
1572440360.641912,92582.000,15587,7,GY,1,100,-2.289
1572440360.658505,92595.000,15587,7,GY,1,100,-1.434
1572440360.675098,92608.000,15605,8,GY,1,100,0.488
1572440360.691691,92621.000,15605,8,GY,1,100,1.984
1572440360.708284,92634.000,15605,8,GY,1,100,2.533
1572440360.724877,92647.000,15605,8,GY,1,100,1.282
1572440360.741470,92660.000,15605,8,GY,1,100,1.556
1572440360.758063,92673.000,15605,8,GY,1,100,0.549
1572440360.774656,92686.000,15605,8,GY,1,100,0.244
1572440360.791249,92699.000,15605,8,GY,1,100,-0.793
1572440360.807682,92711.875,15623,8,GY,1,100,-1.282
1572440360.824116,92724.750,15623,8,GY,1,100,-1.709
1572440360.840549,92737.625,15623,8,GY,1,100,-1.282
1572440360.856982,92750.500,15623,8,GY,1,100,-3.357
1572440360.873416,92763.375,15623,8,GY,1,100,-0.702
1572440360.889849,92776.250,15623,8,GY,1,100,-0.793
1572440360.906282,92789.125,15623,8,GY,1,100,0.488
1572440360.922716,92802.000,15623,8,GY,1,100,1.892
1572440360.939628,92815.250,15641,8,GY,1,100,1.465
1572440360.956540,92828.500,15641,8,GY,1,100,1.434
1572440360.973452,92841.750,15641,8,GY,1,100,-0.244
1572440360.990364,92855.000,15641,8,GY,1,100,-0.793
1572440361.007276,92868.250,15641,8,GY,1,100,-0.610
1572440361.024188,92881.500,15641,8,GY,1,100,-1.251
1572440361.041100,92894.750,15641,8,GY,1,100,-2.014
1572440361.058012,92908.000,15641,8,GY,1,100,-0.092
1572440361.074605,92921.000,15659,7,GY,1,100,0.244
1572440361.091198,92934.000,15659,7,GY,1,100,1.862
1572440361.107791,92947.000,15659,7,GY,1,100,1.862
1572440361.124384,92960.000,15659,7,GY,1,100,1.282
1572440361.140977,92973.000,15659,7,GY,1,100,0.641
1572440361.157570,92986.000,15659,7,GY,1,100,0.793
1572440361.174163,92999.000,15659,7,GY,1,100,0.702
1572440361.191075,93012.250,15677,8,GY,1,100,-0.336
1572440361.207987,93025.500,15677,8,GY,1,100,-0.336
1572440361.224899,93038.750,15677,8,GY,1,100,-0.580
1572440361.241811,93052.000,15677,8,GY,1,100,-0.458
1572440361.258723,93065.250,15677,8,GY,1,100,0.732
1572440361.275635,93078.500,15677,8,GY,1,100,0.641
1572440361.292547,93091.750,15677,8,GY,1,100,1.526
1572440361.309459,93105.000,15677,8,GY,1,100,1.099
1572440361.326052,93118.000,15696,8,GY,1,100,0.641
1572440361.342645,93131.000,15696,8,GY,1,100,2.350
1572440361.359238,93144.000,15696,8,GY,1,100,1.953
1572440361.375831,93157.000,15696,8,GY,1,100,1.343
1572440361.392424,93170.000,15696,8,GY,1,100,-0.458
1572440361.409017,93183.000,15696,8,GY,1,100,-1.251
1572440361.425610,93196.000,15696,8,GY,1,100,-0.061
1572440361.442203,93209.000,15696,8,GY,1,100,-0.092
1572440361.458796,93222.000,15714,8,GY,1,100,0.305
1572440361.475388,93235.000,15714,8,GY,1,100,-2.686
1572440361.491981,93248.000,15714,8,GY,1,100,-0.610
1572440361.508574,93261.000,15714,8,GY,1,100,0.305
1572440361.525167,93274.000,15714,8,GY,1,100,0.916
1572440361.541760,93287.000,15714,8,GY,1,100,-0.763
1572440361.558353,93300.000,15714,8,GY,1,100,0.275
1572440361.574946,93313.000,15714,8,GY,1,100,-1.465
1572440361.591721,93326.143,15732,7,GY,1,100,1.221
1572440361.608497,93339.286,15732,7,GY,1,100,1.801
1572440361.625272,93352.429,15732,7,GY,1,100,1.953
1572440361.642047,93365.571,15732,7,GY,1,100,1.404
1572440361.658822,93378.714,15732,7,GY,1,100,0.458
1572440361.675598,93391.857,15732,7,GY,1,100,0.946
1572440361.692373,93405.000,15732,7,GY,1,100,0.000
1572440361.709126,93418.125,15750,8,GY,1,100,-1.190
1572440361.725878,93431.250,15750,8,GY,1,100,0.275
1572440361.742630,93444.375,15750,8,GY,1,100,0.732
1572440361.759383,93457.500,15750,8,GY,1,100,0.793
1572440361.776135,93470.625,15750,8,GY,1,100,1.404
1572440361.792888,93483.750,15750,8,GY,1,100,-0.153
1572440361.809640,93496.875,15750,8,GY,1,100,-2.747
1572440361.826393,93510.000,15750,8,GY,1,100,-3.662
1572440361.842667,93522.750,15768,8,GY,1,100,-3.540
1572440361.858941,93535.500,15768,8,GY,1,100,-3.723
1572440361.875214,93548.250,15768,8,GY,1,100,-3.693
1572440361.891488,93561.000,15768,8,GY,1,100,-4.120
1572440361.907762,93573.750,15768,8,GY,1,100,-3.235
1572440361.924036,93586.500,15768,8,GY,1,100,-1.923
1572440361.940310,93599.250,15768,8,GY,1,100,-1.343
1572440361.956583,93612.000,15768,8,GY,1,100,-1.526
1572440361.973336,93625.125,15786,8,GY,1,100,-0.732
1572440361.990088,93638.250,15786,8,GY,1,100,2.075
1572440362.006841,93651.375,15786,8,GY,1,100,1.740
1572440362.023593,93664.500,15786,8,GY,1,100,-0.153
1572440362.040346,93677.625,15786,8,GY,1,100,-0.946
1572440362.057098,93690.750,15786,8,GY,1,100,-1.190
1572440362.073851,93703.875,15786,8,GY,1,100,-1.404
1572440362.090603,93717.000,15786,8,GY,1,100,-2.655
1572440362.107379,93730.143,15804,7,GY,1,100,-2.350
1572440362.124154,93743.286,15804,7,GY,1,100,-2.258
1572440362.140929,93756.429,15804,7,GY,1,100,-0.336
1572440362.157705,93769.571,15804,7,GY,1,100,1.648
1572440362.174480,93782.714,15804,7,GY,1,100,1.892
1572440362.191255,93795.857,15804,7,GY,1,100,2.258
1572440362.208030,93809.000,15804,7,GY,1,100,2.930
1572440362.224942,93822.250,15822,8,GY,1,100,3.479
1572440362.241854,93835.500,15822,8,GY,1,100,6.287
1572440362.258766,93848.750,15822,8,GY,1,100,7.599
1572440362.275679,93862.000,15822,8,GY,1,100,8.453
1572440362.292591,93875.250,15822,8,GY,1,100,9.308
1572440362.309503,93888.500,15822,8,GY,1,100,8.850
1572440362.326415,93901.750,15822,8,GY,1,100,6.226
1572440362.343327,93915.000,15822,8,GY,1,100,3.906
1572440362.360079,93928.125,15841,8,GY,1,100,2.960
1572440362.376832,93941.250,15841,8,GY,1,100,1.038
1572440362.393584,93954.375,15841,8,GY,1,100,-0.885
1572440362.410336,93967.500,15841,8,GY,1,100,-1.373
1572440362.427089,93980.625,15841,8,GY,1,100,-3.021
1572440362.443841,93993.750,15841,8,GY,1,100,-5.920
1572440362.460594,94006.875,15841,8,GY,1,100,-7.385
1572440362.477347,94020.000,15841,8,GY,1,100,-10.162
1572440362.493780,94032.875,15859,8,GY,1,100,-10.834
1572440362.510213,94045.750,15859,8,GY,1,100,-10.925
1572440362.526647,94058.625,15859,8,GY,1,100,-8.911
1572440362.543080,94071.500,15859,8,GY,1,100,-6.470
1572440362.559514,94084.375,15859,8,GY,1,100,-6.256
1572440362.575947,94097.250,15859,8,GY,1,100,-6.378
1572440362.592380,94110.125,15859,8,GY,1,100,-5.432
1572440362.608814,94123.000,15859,8,GY,1,100,-5.035
1572440362.625589,94136.143,15876,7,GY,1,100,-3.357
1572440362.642364,94149.286,15876,7,GY,1,100,-2.319
1572440362.659139,94162.429,15876,7,GY,1,100,-1.373
1572440362.675915,94175.571,15876,7,GY,1,100,-2.869
1572440362.692690,94188.714,15876,7,GY,1,100,-4.364
1572440362.709465,94201.857,15876,7,GY,1,100,-4.822
1572440362.726241,94215.000,15876,7,GY,1,100,-5.188
1572440362.742834,94228.000,15894,8,GY,1,100,-5.219
1572440362.759427,94241.000,15894,8,GY,1,100,-5.768
1572440362.776019,94254.000,15894,8,GY,1,100,-6.042
1572440362.792612,94267.000,15894,8,GY,1,100,-6.500
1572440362.809205,94280.000,15894,8,GY,1,100,-8.362
1572440362.825798,94293.000,15894,8,GY,1,100,-7.782
1572440362.842391,94306.000,15894,8,GY,1,100,-5.798
1572440362.858984,94319.000,15894,8,GY,1,100,-1.709
1572440362.875577,94332.000,15912,8,GY,1,100,-0.031
1572440362.892170,94345.000,15912,8,GY,1,100,0.854
1572440362.908763,94358.000,15912,8,GY,1,100,-0.580
1572440362.925356,94371.000,15912,8,GY,1,100,-0.153
1572440362.941949,94384.000,15912,8,GY,1,100,0.793
1572440362.958542,94397.000,15912,8,GY,1,100,0.916
1572440362.975135,94410.000,15912,8,GY,1,100,0.641
1572440362.991728,94423.000,15912,8,GY,1,100,3.998
1572440363.008321,94436.000,15930,8,GY,1,100,4.608
1572440363.024914,94449.000,15930,8,GY,1,100,3.326
1572440363.041507,94462.000,15930,8,GY,1,100,4.333
1572440363.058099,94475.000,15930,8,GY,1,100,4.578
1572440363.074692,94488.000,15930,8,GY,1,100,3.784
1572440363.091285,94501.000,15930,8,GY,1,100,3.357
1572440363.107878,94514.000,15930,8,GY,1,100,2.960
1572440363.124471,94527.000,15930,8,GY,1,100,2.502
1572440363.140882,94539.857,15948,7,GY,1,100,3.082
1572440363.157292,94552.714,15948,7,GY,1,100,3.265
1572440363.173703,94565.571,15948,7,GY,1,100,3.235
1572440363.190114,94578.429,15948,7,GY,1,100,2.777
1572440363.206524,94591.286,15948,7,GY,1,100,3.082
1572440363.222935,94604.143,15948,7,GY,1,100,2.960
1572440363.239345,94617.000,15948,7,GY,1,100,2.411
1572440363.256257,94630.250,15966,8,GY,1,100,0.214
1572440363.273169,94643.500,15966,8,GY,1,100,-1.404
1572440363.290082,94656.750,15966,8,GY,1,100,-0.977
1572440363.306993,94670.000,15966,8,GY,1,100,0.153
1572440363.323905,94683.250,15966,8,GY,1,100,2.716
1572440363.340817,94696.500,15966,8,GY,1,100,5.280
1572440363.357729,94709.750,15966,8,GY,1,100,4.944
1572440363.374642,94723.000,15966,8,GY,1,100,4.486
1572440363.391394,94736.125,15985,8,GY,1,100,2.838
1572440363.408147,94749.250,15985,8,GY,1,100,2.197
1572440363.424899,94762.375,15985,8,GY,1,100,1.038
1572440363.441652,94775.500,15985,8,GY,1,100,-0.580
1572440363.458404,94788.625,15985,8,GY,1,100,-0.916
1572440363.475157,94801.750,15985,8,GY,1,100,-1.190
1572440363.491909,94814.875,15985,8,GY,1,100,-0.824
1572440363.508662,94828.000,15985,8,GY,1,100,-1.099
1572440363.525095,94840.875,16003,8,GY,1,100,-1.770
1572440363.541528,94853.750,16003,8,GY,1,100,-2.075
1572440363.557962,94866.625,16003,8,GY,1,100,-1.190
1572440363.574395,94879.500,16003,8,GY,1,100,-1.801
1572440363.590828,94892.375,16003,8,GY,1,100,-2.136
1572440363.607262,94905.250,16003,8,GY,1,100,-2.106
1572440363.623695,94918.125,16003,8,GY,1,100,0.397
1572440363.640129,94931.000,16003,8,GY,1,100,0.214
1572440363.656722,94944.000,16019,7,GY,1,100,-1.953
1572440363.673314,94957.000,16019,7,GY,1,100,-2.167
1572440363.689907,94970.000,16019,7,GY,1,100,-1.282
1572440363.706500,94983.000,16019,7,GY,1,100,2.899
1572440363.723093,94996.000,16019,7,GY,1,100,1.678
1572440363.739686,95009.000,16019,7,GY,1,100,0.336
1572440363.756279,95022.000,16019,7,GY,1,100,-1.129
1572440363.772872,95035.000,16037,8,GY,1,100,1.160
1572440363.789465,95048.000,16037,8,GY,1,100,2.441
1572440363.806058,95061.000,16037,8,GY,1,100,2.136
1572440363.822651,95074.000,16037,8,GY,1,100,3.662
1572440363.839244,95087.000,16037,8,GY,1,100,3.754
1572440363.855837,95100.000,16037,8,GY,1,100,1.984
1572440363.872430,95113.000,16037,8,GY,1,100,1.617
1572440363.889023,95126.000,16037,8,GY,1,100,2.319
1572440363.905775,95139.125,16055,8,GY,1,100,3.723
1572440363.922528,95152.250,16055,8,GY,1,100,4.456
1572440363.939280,95165.375,16055,8,GY,1,100,4.761
1572440363.956033,95178.500,16055,8,GY,1,100,2.838
1572440363.972785,95191.625,16055,8,GY,1,100,1.709
1572440363.989537,95204.750,16055,8,GY,1,100,-0.092
1572440364.006290,95217.875,16055,8,GY,1,100,0.397
1572440364.023042,95231.000,16055,8,GY,1,100,0.488
1572440364.039635,95244.000,16073,8,GY,1,100,0.977
1572440364.056228,95257.000,16073,8,GY,1,100,0.427
1572440364.072821,95270.000,16073,8,GY,1,100,0.122
1572440364.089414,95283.000,16073,8,GY,1,100,-3.967
1572440364.106007,95296.000,16073,8,GY,1,100,-6.195
1572440364.122600,95309.000,16073,8,GY,1,100,-7.477
1572440364.139193,95322.000,16073,8,GY,1,100,-9.705
1572440364.155786,95335.000,16073,8,GY,1,100,-12.146
1572440364.172744,95348.286,16091,7,GY,1,100,-10.468
1572440364.189701,95361.571,16091,7,GY,1,100,-4.517
1572440364.206659,95374.857,16091,7,GY,1,100,-1.312
1572440364.223616,95388.143,16091,7,GY,1,100,3.845
1572440364.240574,95401.429,16091,7,GY,1,100,4.578
1572440364.257532,95414.714,16091,7,GY,1,100,4.089
1572440364.274489,95428.000,16091,7,GY,1,100,3.571
1572440364.291242,95441.125,16109,8,GY,1,100,5.981
1572440364.307994,95454.250,16109,8,GY,1,100,6.470
1572440364.324747,95467.375,16109,8,GY,1,100,3.265
1572440364.341499,95480.500,16109,8,GY,1,100,1.617
1572440364.358252,95493.625,16109,8,GY,1,100,2.655
1572440364.375004,95506.750,16109,8,GY,1,100,0.763
1572440364.391757,95519.875,16109,8,GY,1,100,0.122
1572440364.408509,95533.000,16109,8,GY,1,100,0.854
1572440364.425262,95546.125,16128,8,GY,1,100,-0.427
1572440364.442014,95559.250,16128,8,GY,1,100,-0.946
1572440364.458767,95572.375,16128,8,GY,1,100,-1.343
1572440364.475519,95585.500,16128,8,GY,1,100,-3.418
1572440364.492272,95598.625,16128,8,GY,1,100,-4.364
1572440364.509024,95611.750,16128,8,GY,1,100,-4.181
1572440364.525777,95624.875,16128,8,GY,1,100,-3.967
1572440364.542529,95638.000,16128,8,GY,1,100,-4.181
1572440364.559304,95651.143,16146,7,GY,1,100,-3.815
1572440364.576080,95664.286,16146,7,GY,1,100,-2.411
1572440364.592855,95677.429,16146,7,GY,1,100,-1.678
1572440364.609630,95690.571,16146,7,GY,1,100,-0.397
1572440364.626405,95703.714,16146,7,GY,1,100,0.885
1572440364.643181,95716.857,16146,7,GY,1,100,2.106
1572440364.659956,95730.000,16146,7,GY,1,100,3.387
1572440364.676549,95743.000,16164,8,GY,1,100,3.632
1572440364.693142,95756.000,16164,8,GY,1,100,3.998
1572440364.709735,95769.000,16164,8,GY,1,100,6.012
1572440364.726328,95782.000,16164,8,GY,1,100,6.714
1572440364.742921,95795.000,16164,8,GY,1,100,6.470
1572440364.759514,95808.000,16164,8,GY,1,100,6.165
1572440364.776107,95821.000,16164,8,GY,1,100,5.920
1572440364.792700,95834.000,16164,8,GY,1,100,4.974
1572440364.809133,95846.875,16182,8,GY,1,100,5.188
1572440364.825566,95859.750,16182,8,GY,1,100,2.563
1572440364.842000,95872.625,16182,8,GY,1,100,1.404
1572440364.858433,95885.500,16182,8,GY,1,100,0.122
1572440364.874866,95898.375,16182,8,GY,1,100,1.160
1572440364.891300,95911.250,16182,8,GY,1,100,3.967
1572440364.907733,95924.125,16182,8,GY,1,100,0.946
1572440364.924167,95937.000,16182,8,GY,1,100,-0.183
1572440364.940760,95950.000,16200,7,GY,1,100,-3.174
1572440364.957353,95963.000,16200,7,GY,1,100,-2.014
1572440364.973945,95976.000,16200,7,GY,1,100,0.397
1572440364.990538,95989.000,16200,7,GY,1,100,2.380
1572440365.007131,96002.000,16200,7,GY,1,100,-1.190
1572440365.023724,96015.000,16200,7,GY,1,100,-2.777
1572440365.040317,96028.000,16200,7,GY,1,100,-2.319
1572440365.057229,96041.250,16218,8,GY,1,100,-2.136
1572440365.074141,96054.500,16218,8,GY,1,100,-1.099
1572440365.091053,96067.750,16218,8,GY,1,100,-1.801
1572440365.107965,96081.000,16218,8,GY,1,100,-1.434
1572440365.124877,96094.250,16218,8,GY,1,100,-1.007
1572440365.141789,96107.500,16218,8,GY,1,100,-1.068
1572440365.158701,96120.750,16218,8,GY,1,100,-0.763
1572440365.175613,96134.000,16218,8,GY,1,100,-0.793
1572440365.192366,96147.125,16236,8,GY,1,100,0.214
1572440365.209118,96160.250,16236,8,GY,1,100,-0.061
1572440365.225871,96173.375,16236,8,GY,1,100,-0.336
1572440365.242623,96186.500,16236,8,GY,1,100,1.404
1572440365.259376,96199.625,16236,8,GY,1,100,1.678
1572440365.276128,96212.750,16236,8,GY,1,100,1.831
1572440365.292881,96225.875,16236,8,GY,1,100,1.007
1572440365.309633,96239.000,16236,8,GY,1,100,2.167
1572440365.326386,96252.125,16254,8,GY,1,100,2.747
