EpochTimestamp,EmotiBitTimestamp,PacketNumber,DataLength,TypeTag,ProtocolVersion,DataReliability,H0
1572441007.092097,46946.000,7588,1,H0,1,100,94.704
1572441007.224844,47050.000,7606,1,H0,1,100,94.708
1572441007.358868,47155.000,7624,1,H0,1,100,94.704
1572441007.491615,47259.000,7643,1,H0,1,100,94.712
1572441007.625639,47364.000,7661,1,H0,1,100,94.708
1572441007.758386,47468.000,7678,1,H0,1,100,94.719
1572441007.892409,47573.000,7696,1,H0,1,100,94.719
1572441008.023880,47676.000,7714,1,H0,1,100,94.727
1572441008.156627,47780.000,7732,1,H0,1,100,94.727
1572441008.290651,47885.000,7750,1,H0,1,100,94.731
1572441008.424674,47990.000,7768,1,H0,1,100,94.723
1572441008.557421,48094.000,7787,1,H0,1,100,94.727
1572441008.693998,48201.000,7821,1,H0,1,100,94.719
1572441008.828022,48306.000,7839,1,H0,1,100,94.731
1572441008.958216,48408.000,7857,1,H0,1,100,94.731
1572441009.092239,48513.000,7875,1,H0,1,100,94.727
1572441009.226263,48618.000,7893,1,H0,1,100,94.742
1572441009.359010,48722.000,7911,1,H0,1,100,94.731
1572441009.493034,48827.000,7930,1,H0,1,100,94.746
1572441009.629610,48934.000,7948,1,H0,1,100,94.750
1572441009.762357,49038.000,7966,1,H0,1,100,94.750
1572441009.895104,49142.000,7984,1,H0,1,100,94.746
1572441010.027851,49246.000,8002,1,H0,1,100,94.754
1572441010.159322,49349.000,8020,1,H0,1,100,94.754
1572441010.292069,49453.000,8038,1,H0,1,100,94.746
1572441010.426093,49558.000,8056,1,H0,1,100,94.758
1572441010.560116,49663.000,8075,1,H0,1,100,94.758
1572441010.692863,49767.000,8093,1,H0,1,100,94.765
1572441010.826887,49872.000,8111,1,H0,1,100,94.765
1572441010.957081,49974.000,8129,1,H0,1,100,94.769
1572441011.089828,50078.000,8147,1,H0,1,100,94.773
1572441011.221299,50181.000,8165,1,H0,1,100,94.773
1572441011.352770,50284.000,8183,1,H0,1,100,94.780
1572441011.488070,50390.000,8202,1,H0,1,100,94.780
1572441011.622093,50495.000,8220,1,H0,1,100,94.769
1572441011.754841,50599.000,8237,1,H0,1,100,94.769
1572441011.890141,50705.000,8255,1,H0,1,100,94.750
1572441012.024164,50810.000,8273,1,H0,1,100,94.765
1572441012.154358,50912.000,8292,1,H0,1,100,94.727
1572441012.288382,51017.000,8310,1,H0,1,100,94.754
1572441012.422405,51122.000,8328,1,H0,1,100,94.681
1572441012.555153,51226.000,8347,1,H0,1,100,94.674
1572441012.689176,51331.000,8365,1,H0,1,100,94.662
1572441012.825752,51438.000,8399,1,H0,1,100,94.632
1572441012.957223,51541.000,8417,1,H0,1,100,94.639
1572441013.089970,51645.000,8435,1,H0,1,100,94.616
1572441013.222718,51749.000,8453,1,H0,1,100,94.613
1572441013.355465,51853.000,8471,1,H0,1,100,94.609
1572441013.488850,51957.500,8493,2,H0,1,100,94.597
1572441013.622236,52062.000,8493,2,H0,1,100,94.594
1572441013.756259,52167.000,8513,1,H0,1,100,94.597
1572441013.889006,52271.000,8531,1,H0,1,100,94.590
1572441014.023030,52376.000,8549,1,H0,1,100,94.601
1572441014.153224,52478.000,8567,1,H0,1,100,94.597
1572441014.285971,52582.000,8585,1,H0,1,100,94.594
1572441014.417442,52685.000,8603,1,H0,1,100,94.594
1572441014.548913,52788.000,8622,1,H0,1,100,94.594
1572441014.685489,52895.000,8639,1,H0,1,100,94.594
1572441014.819513,53000.000,8657,1,H0,1,100,94.590
1572441014.952260,53104.000,8675,1,H0,1,100,94.597
1572441015.087560,53210.000,8693,1,H0,1,100,94.594
1572441015.221583,53315.000,8711,1,H0,1,100,94.601
1572441015.351778,53417.000,8729,1,H0,1,100,94.605
1572441015.485801,53522.000,8747,1,H0,1,100,94.601
1572441015.619825,53627.000,8782,1,H0,1,100,94.601
1572441015.752572,53731.000,8800,1,H0,1,100,94.597
1572441015.886595,53836.000,8818,1,H0,1,100,94.601
1572441016.023172,53943.000,8836,1,H0,1,100,94.601
1572441016.155919,54047.000,8854,1,H0,1,100,94.605
1572441016.288666,54151.000,8872,1,H0,1,100,94.613
1572441016.421413,54255.000,8890,1,H0,1,100,94.620
1572441016.554160,54359.000,8909,1,H0,1,100,94.616
1572441016.686907,54463.000,8927,1,H0,1,100,94.605
1572441016.820931,54568.000,8945,1,H0,1,100,94.613
1572441016.954954,54673.000,8963,1,H0,1,100,94.620
1572441017.088978,54778.000,8981,1,H0,1,100,94.620
1572441017.220449,54881.000,8999,1,H0,1,100,94.616
1572441017.351919,54984.000,9017,1,H0,1,100,94.624
1572441017.484667,55088.000,9035,1,H0,1,100,94.616
1572441017.618690,55193.000,9054,1,H0,1,100,94.624
1572441017.751437,55297.000,9072,1,H0,1,100,94.616
1572441017.888014,55404.000,9090,1,H0,1,100,94.628
1572441018.022037,55509.000,9108,1,H0,1,100,94.613
1572441018.154784,55613.000,9126,1,H0,1,100,94.628
1572441018.288808,55718.000,9144,1,H0,1,100,94.624
1572441018.422832,55823.000,9161,1,H0,1,100,94.628
1572441018.553026,55925.000,9179,1,H0,1,100,94.624
1572441018.687049,56030.000,9198,1,H0,1,100,94.628
1572441018.823626,56137.000,9216,1,H0,1,100,94.628
1572441018.956373,56241.000,9234,1,H0,1,100,94.628
1572441019.090396,56346.000,9252,1,H0,1,100,94.639
1572441019.224420,56451.000,9270,1,H0,1,100,94.651
1572441019.357167,56555.000,9287,1,H0,1,100,94.647
1572441019.489914,56659.000,9322,1,H0,1,100,94.636
1572441019.622661,56763.000,9341,1,H0,1,100,94.647
1572441019.756685,56868.000,9359,1,H0,1,100,94.643
1572441019.889432,56972.000,9377,1,H0,1,100,94.651
1572441020.023456,57077.000,9398,2,H0,1,100,94.643
1572441020.157479,57182.000,9398,2,H0,1,100,94.658
1572441020.290226,57286.000,9418,1,H0,1,100,94.643
1572441020.421697,57389.000,9436,1,H0,1,100,94.647
1572441020.553168,57492.000,9454,1,H0,1,100,94.655
1572441020.685915,57596.000,9473,1,H0,1,100,94.643
1572441020.819938,57701.000,9491,1,H0,1,100,94.651
1572441020.952686,57805.000,9509,1,H0,1,100,94.658
1572441021.089262,57912.000,9527,1,H0,1,100,94.643
1572441021.223285,58017.000,9544,1,H0,1,100,94.647
1572441021.354756,58120.000,9562,1,H0,1,100,94.639
1572441021.488780,58225.000,9580,1,H0,1,100,94.651
1572441021.622803,58330.000,9598,1,H0,1,100,94.643
1572441021.754274,58433.000,9617,1,H0,1,100,94.651
1572441021.888298,58538.000,9635,1,H0,1,100,94.658
1572441022.024874,58645.000,9669,1,H0,1,100,94.643
1572441022.158898,58750.000,9687,1,H0,1,100,94.639
1572441022.292921,58855.000,9705,1,H0,1,100,94.647
1572441022.426945,58960.000,9723,1,H0,1,100,94.655
1572441022.562245,59066.000,9741,1,H0,1,100,94.655
1572441022.693715,59169.000,9760,1,H0,1,100,94.647
1572441022.827739,59274.000,9778,1,H0,1,100,94.655
1572441022.963039,59380.000,9796,1,H0,1,100,94.651
1572441023.094510,59483.000,9814,1,H0,1,100,94.658
1572441023.228533,59588.000,9832,1,H0,1,100,94.643
1572441023.362557,59693.000,9850,1,H0,1,100,94.647
1572441023.494027,59796.000,9868,1,H0,1,100,94.658
1572441023.625498,59899.000,9886,1,H0,1,100,94.658
1572441023.758245,60003.000,9905,1,H0,1,100,94.655
1572441023.890992,60107.000,9923,1,H0,1,100,94.651
1572441024.023740,60211.000,9941,1,H0,1,100,94.655
1572441024.157763,60316.000,9959,1,H0,1,100,94.655
1572441024.291787,60421.000,9977,1,H0,1,100,94.658
1572441024.425810,60526.000,9995,1,H0,1,100,94.655
1572441024.557281,60629.000,10013,1,H0,1,100,94.658
1572441024.690028,60733.000,10031,1,H0,1,100,94.647
1572441024.824052,60838.000,10050,1,H0,1,100,94.666
1572441024.956799,60942.000,10067,1,H0,1,100,94.662
1572441025.089546,61046.000,10085,1,H0,1,100,94.658
1572441025.226122,61153.000,10103,1,H0,1,100,94.662
1572441025.360146,61258.000,10121,1,H0,1,100,94.658
1572441025.492893,61362.000,10139,1,H0,1,100,94.662
1572441025.626917,61467.000,10157,1,H0,1,100,94.662
1572441025.762217,61573.000,10192,1,H0,1,100,94.658
1572441025.893687,61676.000,10210,1,H0,1,100,94.666
1572441026.027711,61781.000,10228,1,H0,1,100,94.662
1572441026.163011,61887.000,10246,1,H0,1,100,94.662
1572441026.294482,61990.000,10264,1,H0,1,100,94.662
1572441026.428505,62095.000,10282,1,H0,1,100,94.655
1572441026.560614,62198.500,10303,2,H0,1,100,94.662
1572441026.692723,62302.000,10303,2,H0,1,100,94.658
1572441026.824194,62405.000,10323,1,H0,1,100,94.655
1572441026.956941,62509.000,10342,1,H0,1,100,94.670
1572441027.089688,62613.000,10360,1,H0,1,100,94.662
1572441027.222435,62717.000,10378,1,H0,1,100,94.666
1572441027.356459,62822.000,10396,1,H0,1,100,94.670
1572441027.490482,62927.000,10414,1,H0,1,100,94.662
1572441027.624506,63032.000,10432,1,H0,1,100,94.670
1572441027.755976,63135.000,10449,1,H0,1,100,94.666
1572441027.888724,63239.000,10468,1,H0,1,100,94.666
1572441028.022747,63344.000,10486,1,H0,1,100,94.666
1572441028.156771,63449.000,10504,1,H0,1,100,94.674
1572441028.289518,63553.000,10522,1,H0,1,100,94.666
1572441028.426094,63660.000,10540,1,H0,1,100,94.670
1572441028.561394,63766.000,10574,1,H0,1,100,94.666
1572441028.692865,63869.000,10593,1,H0,1,100,94.662
1572441028.826889,63974.000,10611,1,H0,1,100,94.670
1572441028.962188,64080.000,10629,1,H0,1,100,94.670
1572441029.093659,64183.000,10647,1,H0,1,100,94.670
1572441029.227683,64288.000,10665,1,H0,1,100,94.674
1572441029.362983,64394.000,10683,1,H0,1,100,94.658
1572441029.494453,64497.000,10701,1,H0,1,100,94.670
1572441029.627201,64601.000,10719,1,H0,1,100,94.674
1572441029.758671,64704.000,10738,1,H0,1,100,94.662
1572441029.890142,64807.000,10756,1,H0,1,100,94.670
1572441030.021613,64910.000,10774,1,H0,1,100,94.666
1572441030.154360,65014.000,10792,1,H0,1,100,94.674
1572441030.288383,65119.000,10810,1,H0,1,100,94.666
1572441030.421131,65223.000,10828,1,H0,1,100,94.670
1572441030.555154,65328.000,10846,1,H0,1,100,94.670
1572441030.686625,65431.000,10864,1,H0,1,100,94.674
1572441030.820648,65536.000,10883,1,H0,1,100,94.674
1572441030.952119,65639.000,10901,1,H0,1,100,94.674
1572441031.084866,65743.000,10919,1,H0,1,100,94.670
1572441031.218890,65848.000,10937,1,H0,1,100,94.677
1572441031.352913,65953.000,10955,1,H0,1,100,94.670
1572441031.485661,66057.000,10973,1,H0,1,100,94.674
1572441031.622237,66164.000,10990,1,H0,1,100,94.670
1572441031.754984,66268.000,11008,1,H0,1,100,94.670
1572441031.886455,66371.000,11027,1,H0,1,100,94.674
1572441032.020478,66476.000,11045,1,H0,1,100,94.666
1572441032.155778,66582.000,11063,1,H0,1,100,94.670
1572441032.287249,66685.000,11081,1,H0,1,100,94.674
1572441032.421273,66790.000,11099,1,H0,1,100,94.677
1572441032.556572,66896.000,11133,1,H0,1,100,94.681
1572441032.688043,66999.000,11151,1,H0,1,100,94.674
1572441032.819514,67102.000,11170,1,H0,1,100,94.674
1572441032.952261,67206.000,11188,1,H0,1,100,94.681
1572441033.083732,67309.000,11209,2,H0,1,100,94.677
1572441033.215203,67412.000,11209,2,H0,1,100,94.677
1572441033.349226,67517.000,11229,1,H0,1,100,94.681
1572441033.483250,67622.000,11247,1,H0,1,100,94.681
1572441033.615997,67726.000,11265,1,H0,1,100,94.681
1572441033.751297,67832.000,11283,1,H0,1,100,94.685
1572441033.882767,67935.000,11302,1,H0,1,100,94.685
1572441034.016791,68040.000,11320,1,H0,1,100,94.677
1572441034.148262,68143.000,11338,1,H0,1,100,94.681
1572441034.281009,68247.000,11356,1,H0,1,100,94.681
1572441034.416309,68353.000,11373,1,H0,1,100,94.677
1572441034.550333,68458.000,11391,1,H0,1,100,94.681
1572441034.683080,68562.000,11409,1,H0,1,100,94.677
1572441034.818380,68668.000,11427,1,H0,1,100,94.681
1572441034.953680,68774.000,11446,1,H0,1,100,94.685
1572441035.085150,68877.000,11464,1,H0,1,100,94.685
1572441035.219174,68982.000,11481,1,H0,1,100,94.685
1572441035.354474,69088.000,11516,1,H0,1,100,94.685
1572441035.485945,69191.000,11534,1,H0,1,100,94.689
1572441035.619968,69296.000,11552,1,H0,1,100,94.681
1572441035.755268,69402.000,11570,1,H0,1,100,94.681
1572441035.885462,69504.000,11589,1,H0,1,100,94.677
1572441036.016933,69607.000,11607,1,H0,1,100,94.674
1572441036.149680,69711.000,11625,1,H0,1,100,94.674
1572441036.281151,69814.000,11643,1,H0,1,100,94.689
1572441036.413898,69918.000,11661,1,H0,1,100,94.685
1572441036.547922,70023.000,11679,1,H0,1,100,94.681
1572441036.681945,70128.000,11697,1,H0,1,100,94.677
1572441036.814692,70232.000,11715,1,H0,1,100,94.677
1572441036.947439,70336.000,11734,1,H0,1,100,94.685
1572441037.080187,70440.000,11752,1,H0,1,100,94.693
1572441037.214210,70545.000,11770,1,H0,1,100,94.685
1572441037.345681,70648.000,11788,1,H0,1,100,94.677
1572441037.478428,70752.000,11806,1,H0,1,100,94.685
1572441037.615004,70859.000,11824,1,H0,1,100,94.681
1572441037.749028,70964.000,11842,1,H0,1,100,94.681
1572441037.881775,71068.000,11860,1,H0,1,100,94.681
1572441038.015799,71173.000,11879,1,H0,1,100,94.677
1572441038.151099,71279.000,11897,1,H0,1,100,94.685
1572441038.282569,71382.000,11914,1,H0,1,100,94.681
1572441038.416593,71487.000,11932,1,H0,1,100,94.677
1572441038.551893,71593.000,11950,1,H0,1,100,94.689
1572441038.683364,71696.000,11968,1,H0,1,100,94.674
1572441038.817387,71801.000,11986,1,H0,1,100,94.685
1572441038.952687,71907.000,12004,1,H0,1,100,94.681
1572441039.084158,72010.000,12023,1,H0,1,100,94.681
1572441039.215629,72113.000,12040,1,H0,1,100,94.681
1572441039.348376,72217.000,12075,1,H0,1,100,94.685
1572441039.479846,72320.000,12093,1,H0,1,100,94.685
1572441039.613232,72424.500,12114,2,H0,1,100,94.677
1572441039.746617,72529.000,12114,2,H0,1,100,94.681
1572441039.880641,72634.000,12134,1,H0,1,100,94.677
1572441040.015941,72740.000,12153,1,H0,1,100,94.681
1572441040.147411,72843.000,12171,1,H0,1,100,94.681
1572441040.280159,72947.000,12189,1,H0,1,100,94.681
1572441040.414182,73052.000,12207,1,H0,1,100,94.681
1572441040.546929,73156.000,12225,1,H0,1,100,94.677
1572441040.679676,73260.000,12243,1,H0,1,100,94.685
1572441040.816253,73367.000,12261,1,H0,1,100,94.677
1572441040.950276,73472.000,12278,1,H0,1,100,94.681
1572441041.084300,73577.000,12297,1,H0,1,100,94.677
1572441041.218323,73682.000,12315,1,H0,1,100,94.685
1572441041.353623,73788.000,12333,1,H0,1,100,94.681
1572441041.485094,73891.000,12351,1,H0,1,100,94.666
1572441041.619118,73996.000,12369,1,H0,1,100,94.670
1572441041.754418,74102.000,12387,1,H0,1,100,94.674
1572441041.885888,74205.000,12405,1,H0,1,100,94.677
1572441042.019912,74310.000,12440,1,H0,1,100,94.681
1572441042.152659,74414.000,12458,1,H0,1,100,94.674
1572441042.284130,74517.000,12476,1,H0,1,100,94.677
1572441042.415601,74620.000,12494,1,H0,1,100,94.677
1572441042.548348,74724.000,12512,1,H0,1,100,94.674
1572441042.681095,74828.000,12530,1,H0,1,100,94.681
1572441042.813842,74932.000,12548,1,H0,1,100,94.685
1572441042.947865,75037.000,12567,1,H0,1,100,94.677
1572441043.081889,75142.000,12585,1,H0,1,100,94.674
1572441043.215913,75247.000,12603,1,H0,1,100,94.674
1572441043.347383,75350.000,12621,1,H0,1,100,94.689
1572441043.480130,75454.000,12639,1,H0,1,100,94.670
1572441043.614154,75559.000,12657,1,H0,1,100,94.677
1572441043.748178,75664.000,12675,1,H0,1,100,94.681
1572441043.880925,75768.000,12693,1,H0,1,100,94.674
1572441044.017501,75875.000,12712,1,H0,1,100,94.677
1572441044.151525,75980.000,12730,1,H0,1,100,94.681
1572441044.282995,76083.000,12748,1,H0,1,100,94.681
1572441044.417019,76188.000,12766,1,H0,1,100,94.681
1572441044.552319,76294.000,12784,1,H0,1,100,94.681
1572441044.683789,76397.000,12802,1,H0,1,100,94.674
1572441044.817813,76502.000,12819,1,H0,1,100,94.674
1572441044.953113,76608.000,12837,1,H0,1,100,94.674
1572441045.084584,76711.000,12856,1,H0,1,100,94.689
1572441045.218607,76816.000,12874,1,H0,1,100,94.677
1572441045.350078,76919.000,12892,1,H0,1,100,94.677
1572441045.481549,77022.000,12910,1,H0,1,100,94.674
1572441045.613019,77125.000,12928,1,H0,1,100,94.674
1572441045.745767,77229.000,12946,1,H0,1,100,94.670
1572441045.879790,77334.000,12964,1,H0,1,100,94.674
1572441046.012537,77438.000,12999,1,H0,1,100,94.677
1572441046.145923,77542.500,13020,2,H0,1,100,94.674
1572441046.279308,77647.000,13020,2,H0,1,100,94.674
1572441046.413332,77752.000,13040,1,H0,1,100,94.681
1572441046.544802,77855.000,13058,1,H0,1,100,94.674
1572441046.677549,77959.000,13076,1,H0,1,100,94.674
1572441046.811573,78064.000,13094,1,H0,1,100,94.681
1572441046.945597,78169.000,13112,1,H0,1,100,94.674
1572441047.078344,78273.000,13131,1,H0,1,100,94.674
1572441047.214920,78380.000,13149,1,H0,1,100,94.670
1572441047.348944,78485.000,13166,1,H0,1,100,94.674
1572441047.480414,78588.000,13184,1,H0,1,100,94.674
1572441047.614438,78693.000,13202,1,H0,1,100,94.674
1572441047.749738,78799.000,13220,1,H0,1,100,94.677
1572441047.881209,78902.000,13238,1,H0,1,100,94.674
1572441048.015232,79007.000,13256,1,H0,1,100,94.670
1572441048.150532,79113.000,13275,1,H0,1,100,94.677
1572441048.282003,79216.000,13293,1,H0,1,100,94.685
1572441048.414750,79320.000,13327,1,H0,1,100,94.670
1572441048.547497,79424.000,13345,1,H0,1,100,94.677
1572441048.678968,79527.000,13363,1,H0,1,100,94.674
1572441048.810439,79630.000,13381,1,H0,1,100,94.689
1572441048.944462,79735.000,13399,1,H0,1,100,94.685
1572441049.078486,79840.000,13418,1,H0,1,100,94.670
1572441049.211233,79944.000,13436,1,H0,1,100,94.674
1572441049.345256,80049.000,13454,1,H0,1,100,94.681
1572441049.476727,80152.000,13472,1,H0,1,100,94.670
1572441049.610751,80257.000,13490,1,H0,1,100,94.677
1572441049.742221,80360.000,13508,1,H0,1,100,94.677
1572441049.874969,80464.000,13526,1,H0,1,100,94.670
1572441050.010268,80570.000,13544,1,H0,1,100,94.666
1572441050.144292,80675.000,13563,1,H0,1,100,94.681
1572441050.277039,80779.000,13581,1,H0,1,100,94.685
1572441050.412339,80885.000,13599,1,H0,1,100,94.689
1572441050.546363,80990.000,13617,1,H0,1,100,94.681
1572441050.676557,81092.000,13635,1,H0,1,100,94.681
1572441050.810580,81197.000,13653,1,H0,1,100,94.689
1572441050.944604,81302.000,13671,1,H0,1,100,94.681
1572441051.077351,81406.000,13689,1,H0,1,100,94.693
1572441051.211375,81511.000,13708,1,H0,1,100,94.693
1572441051.347951,81618.000,13725,1,H0,1,100,94.681
1572441051.480698,81722.000,13743,1,H0,1,100,94.677
1572441051.612169,81825.000,13761,1,H0,1,100,94.681
1572441051.744916,81929.000,13779,1,H0,1,100,94.674
1572441051.876387,82032.000,13797,1,H0,1,100,94.693
1572441052.009134,82136.000,13815,1,H0,1,100,94.685
1572441052.143158,82241.000,13833,1,H0,1,100,94.685
1572441052.277181,82346.000,13852,1,H0,1,100,94.689
1572441052.409928,82450.000,13886,1,H0,1,100,94.681
1572441052.543952,82555.000,13904,1,H0,1,100,94.689
1572441052.676699,82659.000,13925,2,H0,1,100,94.677
1572441052.809446,82763.000,13925,2,H0,1,100,94.670
1572441052.940917,82866.000,13945,1,H0,1,100,94.681
1572441053.073664,82970.000,13963,1,H0,1,100,94.681
1572441053.208964,83076.000,13982,1,H0,1,100,94.689
1572441053.342988,83181.000,14000,1,H0,1,100,94.677
1572441053.475735,83285.000,14018,1,H0,1,100,94.681
1572441053.611035,83391.000,14036,1,H0,1,100,94.685
1572441053.745058,83496.000,14054,1,H0,1,100,94.674
1572441053.875252,83598.000,14072,1,H0,1,100,94.681
1572441054.009276,83703.000,14090,1,H0,1,100,94.677
1572441054.143300,83808.000,14107,1,H0,1,100,94.681
1572441054.276047,83912.000,14126,1,H0,1,100,94.670
1572441054.410070,84017.000,14144,1,H0,1,100,94.685
1572441054.546647,84124.000,14162,1,H0,1,100,94.681
1572441054.676841,84226.000,14180,1,H0,1,100,94.685
1572441054.808312,84329.000,14198,1,H0,1,100,94.685
1572441054.941059,84433.000,14216,1,H0,1,100,94.685
1572441055.072530,84536.000,14234,1,H0,1,100,94.681
1572441055.205277,84640.000,14269,1,H0,1,100,94.674
1572441055.339300,84745.000,14287,1,H0,1,100,94.666
1572441055.473324,84850.000,14305,1,H0,1,100,94.670
1572441055.606071,84954.000,14323,1,H0,1,100,94.685
1572441055.737542,85057.000,14341,1,H0,1,100,94.677
1572441055.870289,85161.000,14359,1,H0,1,100,94.689
1572441056.004313,85266.000,14377,1,H0,1,100,94.681
1572441056.137059,85370.000,14396,1,H0,1,100,94.674
1572441056.269807,85474.000,14414,1,H0,1,100,94.689
1572441056.406383,85581.000,14432,1,H0,1,100,94.681
1572441056.540407,85686.000,14450,1,H0,1,100,94.674
1572441056.673154,85790.000,14468,1,H0,1,100,94.685
1572441056.807177,85895.000,14486,1,H0,1,100,94.677
1572441056.941201,86000.000,14504,1,H0,1,100,94.677
1572441057.071395,86102.000,14522,1,H0,1,100,94.685
1572441057.205419,86207.000,14541,1,H0,1,100,94.685
1572441057.340719,86313.000,14559,1,H0,1,100,94.681
1572441057.473466,86417.000,14577,1,H0,1,100,94.681
1572441057.607489,86522.000,14595,1,H0,1,100,94.681
1572441057.742789,86628.000,14613,1,H0,1,100,94.674
1572441057.874260,86731.000,14631,1,H0,1,100,94.681
1572441058.005731,86834.000,14649,1,H0,1,100,94.685
1572441058.138478,86938.000,14666,1,H0,1,100,94.670
1572441058.271225,87042.000,14685,1,H0,1,100,94.677
1572441058.403972,87146.000,14703,1,H0,1,100,94.674
1572441058.537996,87251.000,14721,1,H0,1,100,94.666
1572441058.672019,87356.000,14739,1,H0,1,100,94.666
1572441058.806043,87461.000,14757,1,H0,1,100,94.685
1572441058.937514,87564.000,14775,1,H0,1,100,94.674
1572441059.070261,87668.000,14793,1,H0,1,100,94.677
1572441059.204284,87773.000,14831,2,H0,1,100,94.677
1572441059.338308,87878.000,14831,2,H0,1,100,94.681
1572441059.471055,87982.000,14850,1,H0,1,100,94.685
1572441059.607631,88089.000,14869,1,H0,1,100,94.674
1572441059.741655,88194.000,14887,1,H0,1,100,94.677
1572441059.873126,88297.000,14905,1,H0,1,100,94.674
1572441060.007149,88402.000,14923,1,H0,1,100,94.674
1572441060.141173,88507.000,14941,1,H0,1,100,94.674
1572441060.271367,88609.000,14960,1,H0,1,100,94.681
1572441060.405391,88714.000,14978,1,H0,1,100,94.685
1572441060.541967,88821.000,14996,1,H0,1,100,94.674
1572441060.674714,88925.000,15013,1,H0,1,100,94.677
1572441060.808738,89030.000,15031,1,H0,1,100,94.674
1572441060.941485,89134.000,15049,1,H0,1,100,94.670
1572441061.072956,89237.000,15067,1,H0,1,100,94.674
1572441061.204426,89340.000,15085,1,H0,1,100,94.670
1572441061.337173,89444.000,15104,1,H0,1,100,94.677
1572441061.471197,89549.000,15122,1,H0,1,100,94.681
1572441061.603944,89653.000,15140,1,H0,1,100,94.677
1572441061.737968,89758.000,15158,1,H0,1,100,94.670
1572441061.870715,89862.000,15192,1,H0,1,100,94.666
1572441062.004738,89967.000,15210,1,H0,1,100,94.666
1572441062.136209,90070.000,15228,1,H0,1,100,94.674
1572441062.268956,90174.000,15247,1,H0,1,100,94.670
1572441062.402980,90279.000,15265,1,H0,1,100,94.666
1572441062.537003,90384.000,15283,1,H0,1,100,94.670
1572441062.669750,90488.000,15301,1,H0,1,100,94.662
1572441062.806327,90595.000,15319,1,H0,1,100,94.674
1572441062.940351,90700.000,15337,1,H0,1,100,94.674
1572441063.070545,90802.000,15355,1,H0,1,100,94.670
1572441063.204568,90907.000,15373,1,H0,1,100,94.670
1572441063.338592,91012.000,15392,1,H0,1,100,94.666
1572441063.470062,91115.000,15410,1,H0,1,100,94.666
1572441063.604086,91220.000,15428,1,H0,1,100,94.666
1572441063.740663,91327.000,15446,1,H0,1,100,94.670
1572441063.873410,91431.000,15464,1,H0,1,100,94.662
1572441064.007433,91536.000,15482,1,H0,1,100,94.666
1572441064.140180,91640.000,15500,1,H0,1,100,94.662
1572441064.271651,91743.000,15518,1,H0,1,100,94.674
1572441064.403122,91846.000,15537,1,H0,1,100,94.666
1572441064.535869,91950.000,15555,1,H0,1,100,94.662
1572441064.669893,92055.000,15573,1,H0,1,100,94.666
1572441064.802640,92159.000,15590,1,H0,1,100,94.662
1572441064.936663,92264.000,15608,1,H0,1,100,94.666
1572441065.069410,92368.000,15626,1,H0,1,100,94.662
1572441065.203434,92473.000,15644,1,H0,1,100,94.666
1572441065.334905,92576.000,15662,1,H0,1,100,94.670
1572441065.467652,92680.000,15681,1,H0,1,100,94.666
1572441065.601675,92785.000,15699,1,H0,1,100,94.666
1572441065.735699,92890.000,15717,1,H0,1,100,94.666
1572441065.868446,92994.000,15738,1,H0,1,100,94.662
1572441066.005022,93101.000,15758,1,H0,1,100,94.666
1572441066.139046,93206.000,15776,1,H0,1,100,94.666
1572441066.269240,93308.000,15794,1,H0,1,100,94.674
1572441066.403264,93413.000,15813,1,H0,1,100,94.666
1572441066.537287,93518.000,15831,1,H0,1,100,94.662
1572441066.670034,93622.000,15849,1,H0,1,100,94.662
1572441066.804058,93727.000,15867,1,H0,1,100,94.655
1572441066.940634,93834.000,15885,1,H0,1,100,94.670
1572441067.073382,93938.000,15903,1,H0,1,100,94.666
1572441067.204852,94041.000,15921,1,H0,1,100,94.662
1572441067.337600,94145.000,15939,1,H0,1,100,94.658
1572441067.469070,94248.000,15958,1,H0,1,100,94.658
1572441067.601817,94352.000,15976,1,H0,1,100,94.658
1572441067.735841,94457.000,15993,1,H0,1,100,94.662
1572441067.869864,94562.000,16011,1,H0,1,100,94.662
1572441068.002612,94666.000,16029,1,H0,1,100,94.662
1572441068.135359,94770.000,16047,1,H0,1,100,94.662
1572441068.266829,94873.000,16065,1,H0,1,100,94.651
1572441068.400853,94978.000,16083,1,H0,1,100,94.655
1572441068.532324,95081.000,16102,1,H0,1,100,94.658
1572441068.665071,95185.000,16120,1,H0,1,100,94.651
1572441068.801647,95292.000,16154,1,H0,1,100,94.658
1572441068.935671,95397.000,16172,1,H0,1,100,94.658
1572441069.068418,95501.000,16190,1,H0,1,100,94.651
1572441069.202441,95606.000,16208,1,H0,1,100,94.651
1572441069.336465,95711.000,16226,1,H0,1,100,94.655
1572441069.466659,95813.000,16245,1,H0,1,100,94.647
1572441069.600683,95918.000,16263,1,H0,1,100,94.651
1572441069.734706,96023.000,16281,1,H0,1,100,94.647
1572441069.867454,96127.000,16299,1,H0,1,100,94.655
1572441070.001477,96232.000,16317,1,H0,1,100,94.651
1572441070.138053,96339.000,16335,1,H0,1,100,94.651
1572441070.269524,96442.000,16353,1,H0,1,100,94.655
1572441070.400995,96545.000,16372,1,H0,1,100,94.651
1572441070.533742,96649.000,16390,1,H0,1,100,94.658
1572441070.665213,96752.000,16408,1,H0,1,100,94.658
1572441070.797960,96856.000,16426,1,H0,1,100,94.647
1572441070.931983,96961.000,16444,1,H0,1,100,94.655
1572441071.066007,97066.000,16462,1,H0,1,100,94.658
1572441071.198754,97170.000,16480,1,H0,1,100,94.651
1572441071.331501,97274.000,16498,1,H0,1,100,94.658
1572441071.462972,97377.000,16517,1,H0,1,100,94.655
1572441071.596996,97482.000,16535,1,H0,1,100,94.658
1572441071.729743,97586.000,16553,1,H0,1,100,94.655
1572441071.862490,97690.000,16570,1,H0,1,100,94.651
1572441071.999066,97797.000,16588,1,H0,1,100,94.643
1572441072.133090,97902.000,16606,1,H0,1,100,94.655
1572441072.267113,98007.000,16624,1,H0,1,100,94.655
1572441072.401137,98112.000,16645,1,H0,1,100,94.658
1572441072.535161,98217.000,16666,1,H0,1,100,94.658
1572441072.665355,98319.000,16684,1,H0,1,100,94.647
1572441072.799378,98424.000,16702,1,H0,1,100,94.658
1572441072.934678,98530.000,16720,1,H0,1,100,94.651
1572441073.067425,98634.000,16738,1,H0,1,100,94.647
1572441073.201449,98739.000,16756,1,H0,1,100,94.655
1572441073.336749,98845.000,16774,1,H0,1,100,94.651
1572441073.468220,98948.000,16793,1,H0,1,100,94.647
1572441073.599690,99051.000,16811,1,H0,1,100,94.643
1572441073.732438,99155.000,16829,1,H0,1,100,94.651
1572441073.865185,99259.000,16847,1,H0,1,100,94.651
1572441073.997932,99363.000,16865,1,H0,1,100,94.647
1572441074.131955,99468.000,16883,1,H0,1,100,94.643
1572441074.265979,99573.000,16901,1,H0,1,100,94.639
1572441074.400002,99678.000,16919,1,H0,1,100,94.643
1572441074.531473,99781.000,16937,1,H0,1,100,94.655
1572441074.664220,99885.000,16955,1,H0,1,100,94.643
1572441074.798244,99990.000,16973,1,H0,1,100,94.647
1572441074.932267,100095.000,16991,1,H0,1,100,94.651
1572441075.065015,100199.000,17009,1,H0,1,100,94.636
1572441075.201591,100306.000,17027,1,H0,1,100,94.647
1572441075.335614,100411.000,17061,1,H0,1,100,94.651
1572441075.467085,100514.000,17080,1,H0,1,100,94.639
1572441075.601109,100619.000,17098,1,H0,1,100,94.647
1572441075.735132,100724.000,17116,1,H0,1,100,94.639
1572441075.865327,100826.000,17134,1,H0,1,100,94.636
1572441075.999350,100931.000,17152,1,H0,1,100,94.643
1572441076.135927,101038.000,17170,1,H0,1,100,94.643
1572441076.268674,101142.000,17188,1,H0,1,100,94.643
1572441076.402697,101247.000,17206,1,H0,1,100,94.639
1572441076.536721,101352.000,17225,1,H0,1,100,94.647
1572441076.668192,101455.000,17243,1,H0,1,100,94.636
1572441076.799662,101558.000,17261,1,H0,1,100,94.647
1572441076.932410,101662.000,17279,1,H0,1,100,94.639
1572441077.065157,101766.000,17297,1,H0,1,100,94.643
1572441077.197904,101870.000,17315,1,H0,1,100,94.651
1572441077.331927,101975.000,17333,1,H0,1,100,94.639
1572441077.465951,102080.000,17351,1,H0,1,100,94.643
1572441077.598698,102184.000,17370,1,H0,1,100,94.639
1572441077.730169,102287.000,17388,1,H0,1,100,94.651
1572441077.862916,102391.000,17406,1,H0,1,100,94.643
1572441077.996939,102496.000,17424,1,H0,1,100,94.639
1572441078.130963,102601.000,17442,1,H0,1,100,94.639
1572441078.263710,102705.000,17460,1,H0,1,100,94.639
1572441078.400286,102812.000,17477,1,H0,1,100,94.643
1572441078.535586,102918.000,17495,1,H0,1,100,94.647
1572441078.665781,103020.000,17514,1,H0,1,100,94.643
1572441078.799804,103125.000,17532,1,H0,1,100,94.639
1572441078.933828,103230.000,17553,1,H0,1,100,94.651
1572441079.065299,103333.000,17572,1,H0,1,100,94.643
1572441079.199322,103438.000,17591,1,H0,1,100,94.639
1572441079.335899,103545.000,17609,1,H0,1,100,94.636
1572441079.468646,103649.000,17627,1,H0,1,100,94.636
1572441079.601393,103753.000,17646,1,H0,1,100,94.639
1572441079.734140,103857.000,17664,1,H0,1,100,94.636
1572441079.865611,103960.000,17682,1,H0,1,100,94.647
1572441079.997081,104063.000,17700,1,H0,1,100,94.647
1572441080.129828,104167.000,17718,1,H0,1,100,94.643
1572441080.263852,104272.000,17736,1,H0,1,100,94.651
1572441080.396599,104376.000,17754,1,H0,1,100,94.647
1572441080.530623,104481.000,17772,1,H0,1,100,94.643
1572441080.662093,104584.000,17791,1,H0,1,100,94.655
1572441080.794841,104688.000,17809,1,H0,1,100,94.647
1572441080.926311,104791.000,17827,1,H0,1,100,94.647
1572441081.057782,104894.000,17845,1,H0,1,100,94.655
1572441081.191806,104999.000,17863,1,H0,1,100,94.651
1572441081.325829,105104.000,17880,1,H0,1,100,94.655
1572441081.458576,105208.000,17898,1,H0,1,100,94.647
1572441081.595153,105315.000,17916,1,H0,1,100,94.643
1572441081.727900,105419.000,17935,1,H0,1,100,94.647
1572441081.858094,105521.000,17953,1,H0,1,100,94.643
1572441081.992118,105626.000,17971,1,H0,1,100,94.643
1572441082.126141,105731.000,17989,1,H0,1,100,94.639
1572441082.258888,105835.000,18007,1,H0,1,100,94.651
1572441082.392912,105940.000,18041,1,H0,1,100,94.643
1572441082.529488,106047.000,18059,1,H0,1,100,94.643
1572441082.662235,106151.000,18078,1,H0,1,100,94.647
1572441082.796259,106256.000,18096,1,H0,1,100,94.651
1572441082.929006,106360.000,18114,1,H0,1,100,94.655
1572441083.061753,106464.000,18132,1,H0,1,100,94.643
1572441083.194500,106568.000,18150,1,H0,1,100,94.647
1572441083.328524,106673.000,18168,1,H0,1,100,94.647
1572441083.462548,106778.000,18186,1,H0,1,100,94.647
1572441083.595295,106882.000,18205,1,H0,1,100,94.647
1572441083.729318,106987.000,18223,1,H0,1,100,94.647
1572441083.859513,107089.000,18241,1,H0,1,100,94.647
1572441083.992260,107193.000,18259,1,H0,1,100,94.655
1572441084.123730,107296.000,18277,1,H0,1,100,94.647
1572441084.255201,107399.000,18295,1,H0,1,100,94.647
1572441084.390501,107505.000,18313,1,H0,1,100,94.636
1572441084.524525,107610.000,18331,1,H0,1,100,94.655
1572441084.657272,107714.000,18350,1,H0,1,100,94.655
1572441084.792572,107820.000,18368,1,H0,1,100,94.655
1572441084.926595,107925.000,18386,1,H0,1,100,94.651
1572441085.056790,108027.000,18404,1,H0,1,100,94.658
1572441085.190813,108132.000,18422,1,H0,1,100,94.651
1572441085.324837,108237.000,18439,1,H0,1,100,94.647
1572441085.457584,108341.000,18460,1,H0,1,100,94.655
1572441085.591607,108446.000,18480,1,H0,1,100,94.655
1572441085.728184,108553.000,18499,1,H0,1,100,94.651
1572441085.859655,108656.000,18517,1,H0,1,100,94.643
1572441085.992402,108760.000,18535,1,H0,1,100,94.658
1572441086.125149,108864.000,18553,1,H0,1,100,94.639
1572441086.257896,108968.000,18571,1,H0,1,100,94.651
1572441086.390643,109072.000,18589,1,H0,1,100,94.651
1572441086.524667,109177.000,18607,1,H0,1,100,94.651
1572441086.658690,109282.000,18626,1,H0,1,100,94.658
1572441086.791437,109386.000,18644,1,H0,1,100,94.655
1572441086.924185,109490.000,18662,1,H0,1,100,94.647
1572441087.055655,109593.000,18680,1,H0,1,100,94.647
1572441087.188402,109697.000,18698,1,H0,1,100,94.662
1572441087.319873,109800.000,18716,1,H0,1,100,94.651
1572441087.451344,109903.000,18734,1,H0,1,100,94.655
1572441087.587920,110010.000,18752,1,H0,1,100,94.647
1572441087.721944,110115.000,18771,1,H0,1,100,94.658
1572441087.854691,110219.000,18789,1,H0,1,100,94.658
1572441087.988714,110324.000,18807,1,H0,1,100,94.662
1572441088.122738,110429.000,18824,1,H0,1,100,94.651
1572441088.252932,110531.000,18842,1,H0,1,100,94.647
1572441088.386956,110636.000,18860,1,H0,1,100,94.655
1572441088.520979,110741.000,18878,1,H0,1,100,94.643
1572441088.653727,110845.000,18896,1,H0,1,100,94.643
1572441088.787750,110950.000,18915,1,H0,1,100,94.643
1572441088.924326,111057.000,18933,1,H0,1,100,94.651
1572441089.057074,111161.000,18950,1,H0,1,100,94.647
1572441089.189821,111265.000,18985,1,H0,1,100,94.643
1572441089.322568,111369.000,19003,1,H0,1,100,94.643
1572441089.455315,111473.000,19021,1,H0,1,100,94.643
1572441089.588062,111577.000,19039,1,H0,1,100,94.658
1572441089.722086,111682.000,19058,1,H0,1,100,94.643
1572441089.856109,111787.000,19076,1,H0,1,100,94.643
1572441089.990133,111892.000,19094,1,H0,1,100,94.647
1572441090.121603,111995.000,19112,1,H0,1,100,94.636
1572441090.254351,112099.000,19130,1,H0,1,100,94.655
1572441090.385821,112202.000,19148,1,H0,1,100,94.643
1572441090.518569,112306.000,19166,1,H0,1,100,94.658
1572441090.652592,112411.000,19184,1,H0,1,100,94.651
1572441090.786616,112516.000,19203,1,H0,1,100,94.647
1572441090.919363,112620.000,19221,1,H0,1,100,94.655
1572441091.053386,112725.000,19239,1,H0,1,100,94.647
1572441091.184857,112828.000,19257,1,H0,1,100,94.651
1572441091.318881,112933.000,19275,1,H0,1,100,94.658
1572441091.450351,113036.000,19293,1,H0,1,100,94.651
1572441091.583098,113140.000,19311,1,H0,1,100,94.651
1572441091.719675,113247.000,19329,1,H0,1,100,94.651
1572441091.853698,113352.000,19348,1,H0,1,100,94.647
1572441091.986446,113456.000,19369,1,H0,1,100,94.658
1572441092.120469,113561.000,19389,1,H0,1,100,94.651
1572441092.255769,113667.000,19407,1,H0,1,100,94.655
1572441092.387240,113770.000,19425,1,H0,1,100,94.655
1572441092.521263,113875.000,19443,1,H0,1,100,94.639
1572441092.656563,113981.000,19461,1,H0,1,100,94.651
1572441092.788034,114084.000,19480,1,H0,1,100,94.647
1572441092.922058,114189.000,19498,1,H0,1,100,94.658
1572441093.057358,114295.000,19516,1,H0,1,100,94.658
1572441093.187552,114397.000,19534,1,H0,1,100,94.655
1572441093.319023,114500.000,19552,1,H0,1,100,94.658
1572441093.451770,114604.000,19570,1,H0,1,100,94.666
1572441093.583241,114707.000,19588,1,H0,1,100,94.662
1572441093.715988,114811.000,19606,1,H0,1,100,94.662
1572441093.850011,114916.000,19625,1,H0,1,100,94.658
1572441093.984035,115021.000,19643,1,H0,1,100,94.655
1572441094.116782,115125.000,19661,1,H0,1,100,94.647
1572441094.248253,115228.000,19679,1,H0,1,100,94.647
1572441094.381000,115332.000,19697,1,H0,1,100,94.655
1572441094.515023,115437.000,19715,1,H0,1,100,94.662
1572441094.647770,115541.000,19733,1,H0,1,100,94.655
1572441094.780518,115645.000,19751,1,H0,1,100,94.651
1572441094.917094,115752.000,19769,1,H0,1,100,94.658
1572441095.051117,115857.000,19787,1,H0,1,100,94.655
1572441095.185141,115962.000,19805,1,H0,1,100,94.639
1572441095.319165,116067.000,19823,1,H0,1,100,94.662
1572441095.454465,116173.000,19841,1,H0,1,100,94.666
1572441095.585935,116276.000,19859,1,H0,1,100,94.655
1572441095.719959,116381.000,19893,1,H0,1,100,94.655
1572441095.855259,116487.000,19912,1,H0,1,100,94.647
1572441095.986730,116590.000,19930,1,H0,1,100,94.658
1572441096.120753,116695.000,19948,1,H0,1,100,94.655
1572441096.254777,116800.000,19966,1,H0,1,100,94.658
1572441096.386247,116903.000,19984,1,H0,1,100,94.666
1572441096.517718,117006.000,20002,1,H0,1,100,94.666
1572441096.650465,117110.000,20020,1,H0,1,100,94.658
1572441096.783212,117214.000,20038,1,H0,1,100,94.655
1572441096.915960,117318.000,20057,1,H0,1,100,94.658
1572441097.049983,117423.000,20075,1,H0,1,100,94.666
1572441097.184007,117528.000,20093,1,H0,1,100,94.662
1572441097.318030,117633.000,20111,1,H0,1,100,94.658
1572441097.449501,117736.000,20129,1,H0,1,100,94.662
1572441097.582248,117840.000,20147,1,H0,1,100,94.655
1572441097.716272,117945.000,20165,1,H0,1,100,94.643
1572441097.849019,118049.000,20184,1,H0,1,100,94.666
1572441097.981766,118153.000,20202,1,H0,1,100,94.658
1572441098.118342,118260.000,20220,1,H0,1,100,94.655
1572441098.252366,118365.000,20238,1,H0,1,100,94.655
1572441098.385113,118469.000,20256,1,H0,1,100,94.647
1572441098.519136,118574.000,20277,1,H0,1,100,94.655
1572441098.654437,118680.000,20297,1,H0,1,100,94.670
1572441098.785907,118783.000,20315,1,H0,1,100,94.658
1572441098.919931,118888.000,20334,1,H0,1,100,94.658
1572441099.055231,118994.000,20352,1,H0,1,100,94.658
1572441099.186702,119097.000,20370,1,H0,1,100,94.655
1572441099.320725,119202.000,20388,1,H0,1,100,94.670
1572441099.452196,119305.000,20406,1,H0,1,100,94.662
1572441099.583667,119408.000,20424,1,H0,1,100,94.655
1572441099.715137,119511.000,20442,1,H0,1,100,94.651
1572441099.847884,119615.000,20460,1,H0,1,100,94.662
1572441099.981908,119720.000,20479,1,H0,1,100,94.655
1572441100.114655,119824.000,20497,1,H0,1,100,94.655
1572441100.248679,119929.000,20515,1,H0,1,100,94.647
1572441100.381426,120033.000,20533,1,H0,1,100,94.655
1572441100.515449,120138.000,20551,1,H0,1,100,94.662
1572441100.646920,120241.000,20569,1,H0,1,100,94.658
1572441100.779667,120345.000,20587,1,H0,1,100,94.655
1572441100.913691,120450.000,20606,1,H0,1,100,94.651
1572441101.047714,120555.000,20624,1,H0,1,100,94.658
1572441101.180461,120659.000,20642,1,H0,1,100,94.655
1572441101.317038,120766.000,20659,1,H0,1,100,94.651
1572441101.452338,120872.000,20677,1,H0,1,100,94.651
1572441101.583808,120975.000,20695,1,H0,1,100,94.655
1572441101.717832,121080.000,20713,1,H0,1,100,94.651
1572441101.853132,121186.000,20731,1,H0,1,100,94.651
1572441101.984603,121289.000,20750,1,H0,1,100,94.655
1572441102.118626,121394.000,20784,1,H0,1,100,94.651
1572441102.253926,121500.000,20802,1,H0,1,100,94.662
1572441102.385397,121603.000,20820,1,H0,1,100,94.651
1572441102.519421,121708.000,20838,1,H0,1,100,94.651
1572441102.650891,121811.000,20856,1,H0,1,100,94.655
1572441102.782362,121914.000,20874,1,H0,1,100,94.655
1572441102.913833,122017.000,20893,1,H0,1,100,94.651
1572441103.046580,122121.000,20911,1,H0,1,100,94.666
1572441103.180603,122226.000,20929,1,H0,1,100,94.651
1572441103.313350,122330.000,20947,1,H0,1,100,94.655
1572441103.447374,122435.000,20965,1,H0,1,100,94.655
1572441103.580121,122539.000,20983,1,H0,1,100,94.658
1572441103.714145,122644.000,21001,1,H0,1,100,94.662
1572441103.845615,122747.000,21019,1,H0,1,100,94.662
1572441103.978363,122851.000,21038,1,H0,1,100,94.651
1572441104.112386,122956.000,21056,1,H0,1,100,94.658
1572441104.246410,123061.000,21074,1,H0,1,100,94.662
1572441104.379157,123165.000,21092,1,H0,1,100,94.662
1572441104.515733,123272.000,21110,1,H0,1,100,94.666
1572441104.649757,123377.000,21128,1,H0,1,100,94.666
1572441104.781228,123480.000,21146,1,H0,1,100,94.662
1572441104.915251,123585.000,21164,1,H0,1,100,94.662
1572441105.050551,123691.000,21186,1,H0,1,100,94.666
1572441105.182022,123794.000,21205,1,H0,1,100,94.662
1572441105.316045,123899.000,21224,1,H0,1,100,94.658
1572441105.451345,124005.000,21242,1,H0,1,100,94.662
1572441105.582816,124108.000,21260,1,H0,1,100,94.662
1572441105.714287,124211.000,21278,1,H0,1,100,94.651
1572441105.847034,124315.000,21296,1,H0,1,100,94.666
1572441105.978505,124418.000,21315,1,H0,1,100,94.666
1572441106.109975,124521.000,21333,1,H0,1,100,94.658
1572441106.243999,124626.000,21351,1,H0,1,100,94.662
1572441106.378022,124731.000,21369,1,H0,1,100,94.666
1572441106.510770,124835.000,21387,1,H0,1,100,94.666
1572441106.644793,124940.000,21405,1,H0,1,100,94.655
1572441106.776264,125043.000,21423,1,H0,1,100,94.666
1572441106.910287,125148.000,21441,1,H0,1,100,94.658
1572441107.041758,125251.000,21460,1,H0,1,100,94.666
1572441107.174505,125355.000,21478,1,H0,1,100,94.658
1572441107.309805,125461.000,21496,1,H0,1,100,94.674
1572441107.443829,125566.000,21514,1,H0,1,100,94.655
1572441107.576576,125670.000,21532,1,H0,1,100,94.666
1572441107.711876,125776.000,21550,1,H0,1,100,94.658
1572441107.847176,125882.000,21567,1,H0,1,100,94.670
1572441107.978647,125985.000,21585,1,H0,1,100,94.658
1572441108.112670,126090.000,21604,1,H0,1,100,94.662
1572441108.247970,126196.000,21622,1,H0,1,100,94.666
1572441108.379441,126299.000,21640,1,H0,1,100,94.674
1572441108.513464,126404.000,21658,1,H0,1,100,94.666
1572441108.648764,126510.000,21692,1,H0,1,100,94.658
1572441108.780235,126613.000,21710,1,H0,1,100,94.666
1572441108.911706,126716.000,21728,1,H0,1,100,94.658
1572441109.044453,126820.000,21747,1,H0,1,100,94.666
1572441109.175924,126923.000,21765,1,H0,1,100,94.662
1572441109.308671,127027.000,21783,1,H0,1,100,94.666
1572441109.442694,127132.000,21801,1,H0,1,100,94.658
1572441109.576718,127237.000,21819,1,H0,1,100,94.666
1572441109.709465,127341.000,21837,1,H0,1,100,94.666
1572441109.842212,127445.000,21855,1,H0,1,100,94.662
1572441109.974959,127549.000,21873,1,H0,1,100,94.651
1572441110.108983,127654.000,21892,1,H0,1,100,94.662
1572441110.240454,127757.000,21910,1,H0,1,100,94.662
1572441110.373201,127861.000,21928,1,H0,1,100,94.655
1572441110.509777,127968.000,21946,1,H0,1,100,94.662
1572441110.643801,128073.000,21964,1,H0,1,100,94.662
1572441110.777824,128178.000,21982,1,H0,1,100,94.655
1572441110.911848,128283.000,22000,1,H0,1,100,94.662
1572441111.047148,128389.000,22018,1,H0,1,100,94.670
1572441111.178618,128492.000,22037,1,H0,1,100,94.655
1572441111.312642,128597.000,22055,1,H0,1,100,94.670
1572441111.447942,128703.000,22073,1,H0,1,100,94.662
1572441111.579413,128806.000,22094,1,H0,1,100,94.655
1572441111.713436,128911.000,22113,1,H0,1,100,94.666
1572441111.847460,129016.000,22132,1,H0,1,100,94.658
1572441111.978930,129119.000,22150,1,H0,1,100,94.662
1572441112.110401,129222.000,22169,1,H0,1,100,94.670
1572441112.243149,129326.000,22187,1,H0,1,100,94.658
1572441112.374619,129429.000,22205,1,H0,1,100,94.662
1572441112.507366,129533.000,22223,1,H0,1,100,94.647
1572441112.641390,129638.000,22241,1,H0,1,100,94.655
1572441112.775414,129743.000,22259,1,H0,1,100,94.666
1572441112.909437,129848.000,22277,1,H0,1,100,94.666
1572441113.040908,129951.000,22295,1,H0,1,100,94.677
1572441113.172379,130054.000,22314,1,H0,1,100,94.685
1572441113.306402,130159.000,22332,1,H0,1,100,94.681
1572441113.439149,130263.000,22350,1,H0,1,100,94.689
1572441113.571896,130367.000,22368,1,H0,1,100,94.689
1572441113.708473,130474.000,22386,1,H0,1,100,94.685
1572441113.842496,130579.000,22404,1,H0,1,100,94.681
1572441113.975243,130683.000,22422,1,H0,1,100,94.697
1572441114.109267,130788.000,22440,1,H0,1,100,94.697
1572441114.243290,130893.000,22459,1,H0,1,100,94.685
1572441114.373485,130995.000,22477,1,H0,1,100,94.670
1572441114.507508,131100.000,22494,1,H0,1,100,94.674
1572441114.644085,131207.000,22512,1,H0,1,100,94.677
1572441114.776832,131311.000,22530,1,H0,1,100,94.662
1572441114.910855,131416.000,22548,1,H0,1,100,94.662
1572441115.044879,131521.000,22566,1,H0,1,100,94.666
1572441115.176350,131624.000,22585,1,H0,1,100,94.674
1572441115.307820,131727.000,22603,1,H0,1,100,94.666
1572441115.440567,131831.000,22621,1,H0,1,100,94.670
1572441115.573315,131935.000,22655,1,H0,1,100,94.666
1572441115.706062,132039.000,22673,1,H0,1,100,94.666
1572441115.840085,132144.000,22691,1,H0,1,100,94.666
1572441115.974109,132249.000,22709,1,H0,1,100,94.666
1572441116.106856,132353.000,22728,1,H0,1,100,94.666
1572441116.238327,132456.000,22746,1,H0,1,100,94.662
1572441116.371074,132560.000,22764,1,H0,1,100,94.670
1572441116.505097,132665.000,22782,1,H0,1,100,94.666
1572441116.639121,132770.000,22800,1,H0,1,100,94.666
1572441116.771868,132874.000,22818,1,H0,1,100,94.666
1572441116.908445,132981.000,22836,1,H0,1,100,94.658
1572441117.042468,133086.000,22854,1,H0,1,100,94.666
1572441117.172662,133188.000,22873,1,H0,1,100,94.666
1572441117.306686,133293.000,22891,1,H0,1,100,94.662
1572441117.440710,133398.000,22909,1,H0,1,100,94.662
1572441117.572180,133501.000,22927,1,H0,1,100,94.655
1572441117.706204,133606.000,22945,1,H0,1,100,94.658
1572441117.842780,133713.000,22963,1,H0,1,100,94.662
1572441117.975527,133817.000,22981,1,H0,1,100,94.670
1572441118.108274,133921.000,23002,2,H0,1,100,94.666
1572441118.241022,134025.000,23002,2,H0,1,100,94.658
1572441118.372492,134128.000,23022,1,H0,1,100,94.670
1572441118.503963,134231.000,23057,1,H0,1,100,94.662
1572441118.636710,134335.000,23075,1,H0,1,100,94.662
1572441118.770734,134440.000,23093,1,H0,1,100,94.670
1572441118.903481,134544.000,23111,1,H0,1,100,94.670
1572441119.037504,134649.000,23129,1,H0,1,100,94.670
1572441119.168975,134752.000,23148,1,H0,1,100,94.658
1572441119.302999,134857.000,23166,1,H0,1,100,94.658
1572441119.434469,134960.000,23184,1,H0,1,100,94.662
1572441119.567217,135064.000,23202,1,H0,1,100,94.666
1572441119.701240,135169.000,23220,1,H0,1,100,94.666
1572441119.835264,135274.000,23238,1,H0,1,100,94.666
1572441119.968011,135378.000,23256,1,H0,1,100,94.666
1572441120.104587,135485.000,23274,1,H0,1,100,94.662
1572441120.238611,135590.000,23293,1,H0,1,100,94.655
1572441120.368805,135692.000,23311,1,H0,1,100,94.666
1572441120.502829,135797.000,23329,1,H0,1,100,94.670
1572441120.636852,135902.000,23347,1,H0,1,100,94.658
1572441120.769599,136006.000,23365,1,H0,1,100,94.666
1572441120.903623,136111.000,23383,1,H0,1,100,94.666
1572441121.040199,136218.000,23401,1,H0,1,100,94.666
1572441121.172946,136322.000,23418,1,H0,1,100,94.662
1572441121.305694,136426.000,23437,1,H0,1,100,94.670
1572441121.438441,136530.000,23455,1,H0,1,100,94.662
1572441121.569911,136633.000,23473,1,H0,1,100,94.662
1572441121.701382,136736.000,23491,1,H0,1,100,94.662
1572441121.835406,136841.000,23509,1,H0,1,100,94.658
1572441121.969429,136946.000,23527,1,H0,1,100,94.666
1572441122.102176,137050.000,23545,1,H0,1,100,94.670
1572441122.236200,137155.000,23563,1,H0,1,100,94.662
1572441122.367671,137258.000,23581,1,H0,1,100,94.666
1572441122.501694,137363.000,23616,1,H0,1,100,94.666
1572441122.633165,137466.000,23634,1,H0,1,100,94.666
1572441122.765912,137570.000,23652,1,H0,1,100,94.670
1572441122.901212,137676.000,23670,1,H0,1,100,94.670
1572441123.035236,137781.000,23688,1,H0,1,100,94.666
1572441123.167983,137885.000,23706,1,H0,1,100,94.666
1572441123.303283,137991.000,23725,1,H0,1,100,94.674
1572441123.437306,138096.000,23743,1,H0,1,100,94.658
1572441123.567501,138198.000,23761,1,H0,1,100,94.666
1572441123.701524,138303.000,23779,1,H0,1,100,94.666
1572441123.835548,138408.000,23797,1,H0,1,100,94.662
1572441123.968295,138512.000,23815,1,H0,1,100,94.674
1572441124.102318,138617.000,23833,1,H0,1,100,94.666
1572441124.238895,138724.000,23851,1,H0,1,100,94.666
1572441124.370365,138827.000,23870,1,H0,1,100,94.670
1572441124.501836,138930.000,23888,1,H0,1,100,94.666
1572441124.633945,139033.500,23909,2,H0,1,100,94.666
1572441124.766054,139137.000,23909,2,H0,1,100,94.666
1572441124.898801,139241.000,23929,1,H0,1,100,94.662
1572441125.032825,139346.000,23947,1,H0,1,100,94.670
1572441125.166848,139451.000,23965,1,H0,1,100,94.666
1572441125.299595,139555.000,24000,1,H0,1,100,94.670
1572441125.432343,139659.000,24018,1,H0,1,100,94.674
1572441125.565090,139763.000,24036,1,H0,1,100,94.666
1572441125.699113,139868.000,24054,1,H0,1,100,94.670
1572441125.830584,139971.000,24072,1,H0,1,100,94.677
1572441125.963331,140075.000,24090,1,H0,1,100,94.662
1572441126.099907,140182.000,24108,1,H0,1,100,94.670
1572441126.233931,140287.000,24126,1,H0,1,100,94.677
1572441126.366678,140391.000,24145,1,H0,1,100,94.674
1572441126.501978,140497.000,24163,1,H0,1,100,94.670
1572441126.636002,140602.000,24181,1,H0,1,100,94.666
1572441126.766196,140704.000,24199,1,H0,1,100,94.666
1572441126.900220,140809.000,24217,1,H0,1,100,94.674
1572441127.034243,140914.000,24235,1,H0,1,100,94.670
1572441127.166990,141018.000,24253,1,H0,1,100,94.674
1572441127.301014,141123.000,24271,1,H0,1,100,94.662
1572441127.437590,141230.000,24290,1,H0,1,100,94.670
1572441127.569061,141333.000,24308,1,H0,1,100,94.666
1572441127.700532,141436.000,24326,1,H0,1,100,94.666
1572441127.833279,141540.000,24344,1,H0,1,100,94.674
1572441127.964750,141643.000,24362,1,H0,1,100,94.670
1572441128.097497,141747.000,24380,1,H0,1,100,94.674
1572441128.231520,141852.000,24397,1,H0,1,100,94.670
1572441128.365544,141957.000,24416,1,H0,1,100,94.674
1572441128.500844,142063.000,24434,1,H0,1,100,94.677
1572441128.632314,142166.000,24452,1,H0,1,100,94.670
1572441128.765062,142270.000,24470,1,H0,1,100,94.670
1572441128.899085,142375.000,24488,1,H0,1,100,94.666
1572441129.033109,142480.000,24506,1,H0,1,100,94.674
1572441129.165856,142584.000,24540,1,H0,1,100,94.674
1572441129.302432,142691.000,24559,1,H0,1,100,94.674
1572441129.436456,142796.000,24577,1,H0,1,100,94.670
1572441129.569203,142900.000,24595,1,H0,1,100,94.677
1572441129.703227,143005.000,24613,1,H0,1,100,94.677
1572441129.837250,143110.000,24631,1,H0,1,100,94.677
1572441129.967444,143212.000,24649,1,H0,1,100,94.666
1572441130.101468,143317.000,24667,1,H0,1,100,94.670
1572441130.238044,143424.000,24685,1,H0,1,100,94.670
1572441130.370791,143528.000,24704,1,H0,1,100,94.674
1572441130.504815,143633.000,24722,1,H0,1,100,94.677
1572441130.638839,143738.000,24740,1,H0,1,100,94.674
1572441130.770309,143841.000,24758,1,H0,1,100,94.681
1572441130.901780,143944.000,24776,1,H0,1,100,94.670
1572441131.034527,144048.000,24794,1,H0,1,100,94.670
1572441131.167274,144152.000,24815,2,H0,1,100,94.670
1572441131.300021,144256.000,24815,2,H0,1,100,94.674
1572441131.434045,144361.000,24835,1,H0,1,100,94.674
1572441131.568069,144466.000,24854,1,H0,1,100,94.674
1572441131.700816,144570.000,24872,1,H0,1,100,94.670
1572441131.832286,144673.000,24890,1,H0,1,100,94.666
1572441131.965034,144777.000,24908,1,H0,1,100,94.681
1572441132.099057,144882.000,24926,1,H0,1,100,94.677
1572441132.233081,144987.000,24943,1,H0,1,100,94.674
1572441132.365828,145091.000,24979,1,H0,1,100,94.666
1572441132.502404,145198.000,24997,1,H0,1,100,94.666
1572441132.636428,145303.000,25015,1,H0,1,100,94.662
1572441132.767898,145406.000,25033,1,H0,1,100,94.662
1572441132.901922,145511.000,25051,1,H0,1,100,94.666
1572441133.035945,145616.000,25069,1,H0,1,100,94.670
1572441133.167416,145719.000,25087,1,H0,1,100,94.670
1572441133.301440,145824.000,25105,1,H0,1,100,94.662
1572441133.438016,145931.000,25124,1,H0,1,100,94.662
1572441133.570763,146035.000,25142,1,H0,1,100,94.662
1572441133.704787,146140.000,25160,1,H0,1,100,94.658
1572441133.837534,146244.000,25178,1,H0,1,100,94.666
1572441133.969005,146347.000,25196,1,H0,1,100,94.658
1572441134.100476,146450.000,25214,1,H0,1,100,94.666
1572441134.233223,146554.000,25232,1,H0,1,100,94.658
1572441134.367246,146659.000,25250,1,H0,1,100,94.658
1572441134.499993,146763.000,25269,1,H0,1,100,94.651
1572441134.634017,146868.000,25287,1,H0,1,100,94.666
1572441134.766764,146972.000,25305,1,H0,1,100,94.662
1572441134.900788,147077.000,25323,1,H0,1,100,94.666
1572441135.032258,147180.000,25341,1,H0,1,100,94.666
1572441135.165005,147284.000,25358,1,H0,1,100,94.662
1572441135.299029,147389.000,25376,1,H0,1,100,94.658
1572441135.431776,147493.000,25394,1,H0,1,100,94.666
1572441135.564523,147597.000,25413,1,H0,1,100,94.666
1572441135.701100,147704.000,25431,1,H0,1,100,94.666
1572441135.835123,147809.000,25449,1,H0,1,100,94.662
1572441135.965317,147911.000,25467,1,H0,1,100,94.666
1572441136.099341,148016.000,25485,1,H0,1,100,94.674
1572441136.233365,148121.000,25519,1,H0,1,100,94.658
1572441136.366112,148225.000,25537,1,H0,1,100,94.666
1572441136.500135,148330.000,25556,1,H0,1,100,94.666
1572441136.636712,148437.000,25574,1,H0,1,100,94.662
1572441136.769459,148541.000,25592,1,H0,1,100,94.666
1572441136.902206,148645.000,25610,1,H0,1,100,94.662
1572441137.034953,148749.000,25628,1,H0,1,100,94.670
1572441137.166424,148852.000,25646,1,H0,1,100,94.666
1572441137.297894,148955.000,25664,1,H0,1,100,94.662
1572441137.430642,149059.000,25682,1,H0,1,100,94.658
1572441137.564665,149164.000,25701,1,H0,1,100,94.666
1572441137.698050,149268.500,25722,2,H0,1,100,94.666
1572441137.831436,149373.000,25722,2,H0,1,100,94.670
1572441137.962907,149476.000,25740,1,H0,1,100,94.666
1572441138.096930,149581.000,25759,1,H0,1,100,94.666
1572441138.228401,149684.000,25777,1,H0,1,100,94.658
1572441138.361148,149788.000,25795,1,H0,1,100,94.658
1572441138.495172,149893.000,25813,1,H0,1,100,94.670
1572441138.629195,149998.000,25832,1,H0,1,100,94.670
1572441138.761942,150102.000,25850,1,H0,1,100,94.662
1572441138.898519,150209.000,25884,1,H0,1,100,94.670
1572441139.032542,150314.000,25902,1,H0,1,100,94.655
1572441139.162737,150416.000,25920,1,H0,1,100,94.670
1572441139.296760,150521.000,25938,1,H0,1,100,94.670
1572441139.430784,150626.000,25956,1,H0,1,100,94.666
1572441139.563531,150730.000,25975,1,H0,1,100,94.662
1572441139.697554,150835.000,25993,1,H0,1,100,94.662
1572441139.834131,150942.000,26011,1,H0,1,100,94.674
1572441139.966878,151046.000,26029,1,H0,1,100,94.662
1572441140.098349,151149.000,26047,1,H0,1,100,94.670
1572441140.231096,151253.000,26065,1,H0,1,100,94.662
1572441140.362566,151356.000,26083,1,H0,1,100,94.662
1572441140.495314,151460.000,26101,1,H0,1,100,94.670
1572441140.629337,151565.000,26120,1,H0,1,100,94.662
1572441140.763361,151670.000,26138,1,H0,1,100,94.670
1572441140.896108,151774.000,26156,1,H0,1,100,94.662
1572441141.030131,151879.000,26174,1,H0,1,100,94.670
1572441141.161602,151982.000,26192,1,H0,1,100,94.670
1572441141.295626,152087.000,26210,1,H0,1,100,94.670
1572441141.427096,152190.000,26228,1,H0,1,100,94.662
1572441141.559844,152294.000,26247,1,H0,1,100,94.662
1572441141.696420,152401.000,26265,1,H0,1,100,94.666
1572441141.830443,152506.000,26282,1,H0,1,100,94.666
1572441141.963191,152610.000,26300,1,H0,1,100,94.670
1572441142.098491,152716.000,26318,1,H0,1,100,94.662
1572441142.232514,152821.000,26336,1,H0,1,100,94.674
1572441142.362709,152923.000,26354,1,H0,1,100,94.666
1572441142.496732,153028.000,26372,1,H0,1,100,94.666
1572441142.630756,153133.000,26391,1,H0,1,100,94.666
1572441142.763503,153237.000,26425,1,H0,1,100,94.666
1572441142.897526,153342.000,26443,1,H0,1,100,94.674
1572441143.034103,153449.000,26461,1,H0,1,100,94.666
1572441143.164297,153551.000,26479,1,H0,1,100,94.670
1572441143.295768,153654.000,26497,1,H0,1,100,94.670
1572441143.428515,153758.000,26515,1,H0,1,100,94.662
1572441143.559986,153861.000,26534,1,H0,1,100,94.662
1572441143.692733,153965.000,26552,1,H0,1,100,94.662
1572441143.826756,154070.000,26570,1,H0,1,100,94.666
1572441143.960780,154175.000,26588,1,H0,1,100,94.662
1572441144.093527,154279.000,26606,1,H0,1,100,94.658
1572441144.225636,154382.500,26627,2,H0,1,100,94.670
1572441144.357745,154486.000,26627,2,H0,1,100,94.666
1572441144.491768,154591.000,26646,1,H0,1,100,94.666
1572441144.624516,154695.000,26665,1,H0,1,100,94.666
1572441144.757263,154799.000,26683,1,H0,1,100,94.658
1572441144.893839,154906.000,26701,1,H0,1,100,94.666
1572441145.027863,155011.000,26719,1,H0,1,100,94.670
1572441145.161886,155116.000,26737,1,H0,1,100,94.666
1572441145.295910,155221.000,26755,1,H0,1,100,94.666
1572441145.429933,155326.000,26789,1,H0,1,100,94.666
1572441145.560127,155428.000,26808,1,H0,1,100,94.666
1572441145.694151,155533.000,26826,1,H0,1,100,94.662
1572441145.829451,155639.000,26844,1,H0,1,100,94.666
1572441145.962198,155743.000,26862,1,H0,1,100,94.666
1572441146.096222,155848.000,26880,1,H0,1,100,94.666
1572441146.231522,155954.000,26898,1,H0,1,100,94.662
1572441146.364269,156058.000,26916,1,H0,1,100,94.670
1572441146.497016,156162.000,26934,1,H0,1,100,94.666
1572441146.629763,156266.000,26953,1,H0,1,100,94.666
1572441146.763787,156371.000,26971,1,H0,1,100,94.670
1572441146.896534,156475.000,26989,1,H0,1,100,94.658
1572441147.030557,156580.000,27007,1,H0,1,100,94.670
1572441147.164581,156685.000,27025,1,H0,1,100,94.666
1572441147.297328,156789.000,27043,1,H0,1,100,94.662
1572441147.428799,156892.000,27061,1,H0,1,100,94.666
1572441147.560270,156995.000,27079,1,H0,1,100,94.670
1572441147.693017,157099.000,27098,1,H0,1,100,94.658
1572441147.827040,157204.000,27116,1,H0,1,100,94.670
1572441147.959787,157308.000,27134,1,H0,1,100,94.670
1572441148.096364,157415.000,27152,1,H0,1,100,94.658
1572441148.230387,157520.000,27170,1,H0,1,100,94.670
1572441148.361858,157623.000,27187,1,H0,1,100,94.666
1572441148.495882,157728.000,27205,1,H0,1,100,94.662
1572441148.629905,157833.000,27223,1,H0,1,100,94.666
1572441148.760099,157935.000,27242,1,H0,1,100,94.670
1572441148.894123,158040.000,27260,1,H0,1,100,94.674
1572441149.030699,158147.000,27278,1,H0,1,100,94.670
1572441149.163446,158251.000,27296,1,H0,1,100,94.666
1572441149.297470,158356.000,27330,1,H0,1,100,94.666
1572441149.430217,158460.000,27348,1,H0,1,100,94.670
1572441149.562964,158564.000,27366,1,H0,1,100,94.662
1572441149.695711,158668.000,27385,1,H0,1,100,94.666
1572441149.828459,158772.000,27403,1,H0,1,100,94.666
1572441149.962482,158877.000,27421,1,H0,1,100,94.662
1572441150.095229,158981.000,27439,1,H0,1,100,94.662
1572441150.229253,159086.000,27457,1,H0,1,100,94.666
1572441150.362000,159190.000,27475,1,H0,1,100,94.666
1572441150.494747,159294.000,27493,1,H0,1,100,94.658
1572441150.626218,159397.000,27511,1,H0,1,100,94.662
1572441150.758327,159500.500,27533,2,H0,1,100,94.666
1572441150.890436,159604.000,27533,2,H0,1,100,94.658
1572441151.024459,159709.000,27552,1,H0,1,100,94.658
1572441151.157207,159813.000,27571,1,H0,1,100,94.655
1572441151.293783,159920.000,27589,1,H0,1,100,94.658
1572441151.429083,160026.000,27607,1,H0,1,100,94.662
1572441151.559277,160128.000,27624,1,H0,1,100,94.658
1572441151.693301,160233.000,27642,1,H0,1,100,94.662
1572441151.827324,160338.000,27661,1,H0,1,100,94.662
1572441151.958795,160441.000,27679,1,H0,1,100,94.658
1572441152.092818,160546.000,27697,1,H0,1,100,94.658
1572441152.229395,160653.000,27715,1,H0,1,100,94.666
1572441152.362142,160757.000,27733,1,H0,1,100,94.655
1572441152.497442,160863.000,27767,1,H0,1,100,94.658
1572441152.630189,160967.000,27785,1,H0,1,100,94.651
1572441152.762936,161071.000,27804,1,H0,1,100,94.658
1572441152.895683,161175.000,27822,1,H0,1,100,94.655
1572441153.028430,161279.000,27840,1,H0,1,100,94.658
1572441153.162454,161384.000,27858,1,H0,1,100,94.651
1572441153.295201,161488.000,27876,1,H0,1,100,94.658
1572441153.429225,161593.000,27894,1,H0,1,100,94.666
1572441153.560695,161696.000,27912,1,H0,1,100,94.662
1572441153.693443,161800.000,27930,1,H0,1,100,94.658
1572441153.824913,161903.000,27949,1,H0,1,100,94.655
1572441153.956384,162006.000,27967,1,H0,1,100,94.655
1572441154.090408,162111.000,27985,1,H0,1,100,94.651
1572441154.224431,162216.000,28003,1,H0,1,100,94.662
1572441154.357178,162320.000,28021,1,H0,1,100,94.651
1572441154.493755,162427.000,28039,1,H0,1,100,94.647
1572441154.627778,162532.000,28057,1,H0,1,100,94.655
1572441154.757972,162634.000,28076,1,H0,1,100,94.655
1572441154.891996,162739.000,28094,1,H0,1,100,94.655
1572441155.026020,162844.000,28112,1,H0,1,100,94.651
1572441155.160043,162949.000,28130,1,H0,1,100,94.651
1572441155.292790,163053.000,28148,1,H0,1,100,94.655
1572441155.429367,163160.000,28165,1,H0,1,100,94.658
1572441155.563390,163265.000,28183,1,H0,1,100,94.655
1572441155.694861,163368.000,28201,1,H0,1,100,94.655
1572441155.828885,163473.000,28220,1,H0,1,100,94.651
1572441155.964185,163579.000,28238,1,H0,1,100,94.643
1572441156.095655,163682.000,28256,1,H0,1,100,94.658
1572441156.229679,163787.000,28274,1,H0,1,100,94.651
1572441156.364979,163893.000,28308,1,H0,1,100,94.651
1572441156.496449,163996.000,28326,1,H0,1,100,94.651
1572441156.629197,164100.000,28344,1,H0,1,100,94.651
1572441156.760667,164203.000,28363,1,H0,1,100,94.651
1572441156.892138,164306.000,28381,1,H0,1,100,94.655
1572441157.023609,164409.000,28399,1,H0,1,100,94.655
1572441157.156356,164513.000,28417,1,H0,1,100,94.655
1572441157.289741,164617.500,28438,2,H0,1,100,94.655
1572441157.423127,164722.000,28438,2,H0,1,100,94.651
1572441157.557150,164827.000,28457,1,H0,1,100,94.655
1572441157.689897,164931.000,28476,1,H0,1,100,94.655
1572441157.823921,165036.000,28495,1,H0,1,100,94.647
1572441157.955392,165139.000,28513,1,H0,1,100,94.655
1572441158.088139,165243.000,28531,1,H0,1,100,94.655
1572441158.222162,165348.000,28549,1,H0,1,100,94.651
1572441158.356186,165453.000,28567,1,H0,1,100,94.651
1572441158.488933,165557.000,28585,1,H0,1,100,94.651
1572441158.625510,165664.000,28602,1,H0,1,100,94.643
1572441158.759533,165769.000,28620,1,H0,1,100,94.651
1572441158.891004,165872.000,28639,1,H0,1,100,94.647
1572441159.025027,165977.000,28657,1,H0,1,100,94.658
1572441159.160327,166083.000,28675,1,H0,1,100,94.647
1572441159.291798,166186.000,28693,1,H0,1,100,94.651
1572441159.425822,166291.000,28710,1,H0,1,100,94.647
1572441159.561121,166397.000,28745,1,H0,1,100,94.643
1572441159.692592,166500.000,28763,1,H0,1,100,94.643
1572441159.825339,166604.000,28782,1,H0,1,100,94.655
1572441159.958086,166708.000,28800,1,H0,1,100,94.651
1572441160.089557,166811.000,28818,1,H0,1,100,94.651
1572441160.221028,166914.000,28836,1,H0,1,100,94.647
1572441160.355052,167019.000,28854,1,H0,1,100,94.655
1572441160.489075,167124.000,28872,1,H0,1,100,94.655
1572441160.621822,167228.000,28890,1,H0,1,100,94.655
1572441160.755846,167333.000,28908,1,H0,1,100,94.647
1572441160.886040,167435.000,28927,1,H0,1,100,94.658
1572441161.020064,167540.000,28945,1,H0,1,100,94.655
1572441161.151534,167643.000,28963,1,H0,1,100,94.647
1572441161.284281,167747.000,28981,1,H0,1,100,94.651
1572441161.419581,167853.000,28999,1,H0,1,100,94.651
1572441161.553605,167958.000,29017,1,H0,1,100,94.643
1572441161.686352,168062.000,29035,1,H0,1,100,94.655
1572441161.821652,168168.000,29053,1,H0,1,100,94.655
1572441161.956952,168274.000,29072,1,H0,1,100,94.647
1572441162.088423,168377.000,29090,1,H0,1,100,94.655
1572441162.222446,168482.000,29108,1,H0,1,100,94.658
1572441162.357746,168588.000,29126,1,H0,1,100,94.651
1572441162.489217,168691.000,29143,1,H0,1,100,94.651
1572441162.623240,168796.000,29161,1,H0,1,100,94.655
1572441162.758541,168902.000,29179,1,H0,1,100,94.670
1572441162.890011,169005.000,29197,1,H0,1,100,94.658
1572441163.021482,169108.000,29216,1,H0,1,100,94.666
1572441163.154229,169212.000,29234,1,H0,1,100,94.658
1572441163.285700,169315.000,29252,1,H0,1,100,94.662
1572441163.418447,169419.000,29270,1,H0,1,100,94.655
1572441163.552470,169524.000,29304,1,H0,1,100,94.666
1572441163.686494,169629.000,29322,1,H0,1,100,94.658
1572441163.819880,169733.500,29343,2,H0,1,100,94.658
1572441163.953265,169838.000,29343,2,H0,1,100,94.662
1572441164.084736,169941.000,29363,1,H0,1,100,94.658
1572441164.218759,170046.000,29382,1,H0,1,100,94.658
1572441164.350230,170149.000,29400,1,H0,1,100,94.662
1572441164.482977,170253.000,29418,1,H0,1,100,94.662
1572441164.619553,170360.000,29436,1,H0,1,100,94.655
1572441164.753577,170465.000,29454,1,H0,1,100,94.658
1572441164.886324,170569.000,29472,1,H0,1,100,94.662
1572441165.021624,170675.000,29491,1,H0,1,100,94.655
1572441165.156924,170781.000,29508,1,H0,1,100,94.662
1572441165.288395,170884.000,29526,1,H0,1,100,94.662
1572441165.422418,170989.000,29544,1,H0,1,100,94.662
1572441165.557718,171095.000,29562,1,H0,1,100,94.662
1572441165.689189,171198.000,29580,1,H0,1,100,94.662
1572441165.823212,171303.000,29598,1,H0,1,100,94.666
1572441165.958513,171409.000,29616,1,H0,1,100,94.662
1572441166.089983,171512.000,29635,1,H0,1,100,94.666
1572441166.221454,171615.000,29669,1,H0,1,100,94.662
1572441166.354201,171719.000,29687,1,H0,1,100,94.662
1572441166.485672,171822.000,29705,1,H0,1,100,94.674
1572441166.618419,171926.000,29723,1,H0,1,100,94.666
1572441166.752442,172031.000,29741,1,H0,1,100,94.666
1572441166.886466,172136.000,29759,1,H0,1,100,94.666
1572441167.020489,172241.000,29778,1,H0,1,100,94.674
1572441167.151960,172344.000,29796,1,H0,1,100,94.674
1572441167.284707,172448.000,29814,1,H0,1,100,94.681
1572441167.418731,172553.000,29832,1,H0,1,100,94.677
1572441167.551478,172657.000,29850,1,H0,1,100,94.677
1572441167.684225,172761.000,29868,1,H0,1,100,94.677
1572441167.820802,172868.000,29886,1,H0,1,100,94.677
1572441167.954825,172973.000,29905,1,H0,1,100,94.677
1572441168.087572,173077.000,29923,1,H0,1,100,94.677
1572441168.221596,173182.000,29941,1,H0,1,100,94.677
1572441168.356896,173288.000,29959,1,H0,1,100,94.677
1572441168.488367,173391.000,29977,1,H0,1,100,94.681
1572441168.622390,173496.000,29995,1,H0,1,100,94.681
1572441168.757690,173602.000,30013,1,H0,1,100,94.685
1572441168.889161,173705.000,30031,1,H0,1,100,94.681
1572441169.023184,173810.000,30049,1,H0,1,100,94.681
1572441169.155931,173914.000,30067,1,H0,1,100,94.681
1572441169.287402,174017.000,30085,1,H0,1,100,94.681
1572441169.418873,174120.000,30103,1,H0,1,100,94.681
1572441169.551620,174224.000,30121,1,H0,1,100,94.681
1572441169.684367,174328.000,30139,1,H0,1,100,94.677
1572441169.817114,174432.000,30157,1,H0,1,100,94.689
1572441169.951138,174537.000,30175,1,H0,1,100,94.681
1572441170.085161,174642.000,30194,1,H0,1,100,94.685
1572441170.219185,174747.000,30228,1,H0,1,100,94.697
1572441170.351294,174850.500,30249,2,H0,1,100,94.689
1572441170.483403,174954.000,30249,2,H0,1,100,94.689
1572441170.617426,175059.000,30268,1,H0,1,100,94.689
1572441170.751450,175164.000,30287,1,H0,1,100,94.685
1572441170.884197,175268.000,30305,1,H0,1,100,94.693
1572441171.020774,175375.000,30324,1,H0,1,100,94.689
1572441171.154797,175480.000,30342,1,H0,1,100,94.697
1572441171.287544,175584.000,30360,1,H0,1,100,94.689
1572441171.421568,175689.000,30378,1,H0,1,100,94.693
1572441171.556868,175795.000,30396,1,H0,1,100,94.693
1572441171.688339,175898.000,30414,1,H0,1,100,94.681
1572441171.822362,176003.000,30432,1,H0,1,100,94.685
1572441171.957662,176109.000,30450,1,H0,1,100,94.689
1572441172.089133,176212.000,30468,1,H0,1,100,94.689
1572441172.223156,176317.000,30486,1,H0,1,100,94.697
1572441172.354627,176420.000,30504,1,H0,1,100,94.685
1572441172.486098,176523.000,30522,1,H0,1,100,94.693
1572441172.617568,176626.000,30540,1,H0,1,100,94.693
1572441172.750316,176730.000,30558,1,H0,1,100,94.697
1572441172.884339,176835.000,30576,1,H0,1,100,94.693
1572441173.017086,176939.000,30594,1,H0,1,100,94.689
1572441173.151110,177044.000,30629,1,H0,1,100,94.689
1572441173.283857,177148.000,30647,1,H0,1,100,94.697
1572441173.417881,177253.000,30665,1,H0,1,100,94.697
1572441173.549351,177356.000,30683,1,H0,1,100,94.689
1572441173.682098,177460.000,30701,1,H0,1,100,94.693
1572441173.816122,177565.000,30719,1,H0,1,100,94.697
1572441173.950145,177670.000,30737,1,H0,1,100,94.685
1572441174.082893,177774.000,30756,1,H0,1,100,94.693
1572441174.219469,177881.000,30774,1,H0,1,100,94.689
1572441174.353492,177986.000,30792,1,H0,1,100,94.693
1572441174.484963,178089.000,30810,1,H0,1,100,94.693
1572441174.618987,178194.000,30828,1,H0,1,100,94.693
1572441174.754287,178300.000,30846,1,H0,1,100,94.693
1572441174.885757,178403.000,30864,1,H0,1,100,94.693
1572441175.019781,178508.000,30882,1,H0,1,100,94.689
1572441175.155081,178614.000,30901,1,H0,1,100,94.693
1572441175.286552,178717.000,30919,1,H0,1,100,94.689
1572441175.419299,178821.000,30937,1,H0,1,100,94.689
1572441175.552046,178925.000,30955,1,H0,1,100,94.693
1572441175.683517,179028.000,30973,1,H0,1,100,94.693
1572441175.814987,179131.000,30991,1,H0,1,100,94.697
1572441175.947735,179235.000,31009,1,H0,1,100,94.693
1572441176.081758,179340.000,31027,1,H0,1,100,94.697
1572441176.214505,179444.000,31045,1,H0,1,100,94.693
1572441176.348529,179549.000,31063,1,H0,1,100,94.693
1572441176.481276,179653.000,31081,1,H0,1,100,94.700
1572441176.615300,179758.000,31099,1,H0,1,100,94.693
1572441176.746770,179861.000,31117,1,H0,1,100,94.689
1572441176.879518,179965.000,31135,1,H0,1,100,94.693
1572441177.013541,180070.000,31156,1,H0,1,100,94.689
1572441177.147565,180175.000,31176,1,H0,1,100,94.693
1572441177.280312,180279.000,31195,1,H0,1,100,94.689
1572441177.416888,180386.000,31213,1,H0,1,100,94.681
1572441177.552188,180492.000,31231,1,H0,1,100,94.689
1572441177.683659,180595.000,31249,1,H0,1,100,94.697
1572441177.817682,180700.000,31267,1,H0,1,100,94.697
1572441177.952982,180806.000,31285,1,H0,1,100,94.697
1572441178.084453,180909.000,31303,1,H0,1,100,94.689
1572441178.218477,181014.000,31322,1,H0,1,100,94.681
1572441178.353776,181120.000,31340,1,H0,1,100,94.693
1572441178.486524,181224.000,31358,1,H0,1,100,94.697
1572441178.617994,181327.000,31376,1,H0,1,100,94.693
1572441178.750741,181431.000,31393,1,H0,1,100,94.697
1572441178.882212,181534.000,31411,1,H0,1,100,94.697
1572441179.014959,181638.000,31429,1,H0,1,100,94.697
1572441179.148983,181743.000,31447,1,H0,1,100,94.693
1572441179.283006,181848.000,31466,1,H0,1,100,94.697
1572441179.415754,181952.000,31484,1,H0,1,100,94.697
1572441179.549777,182057.000,31502,1,H0,1,100,94.693
1572441179.681248,182160.000,31520,1,H0,1,100,94.697
1572441179.815272,182265.000,31554,1,H0,1,100,94.697
1572441179.946742,182368.000,31572,1,H0,1,100,94.697
1572441180.079489,182472.000,31590,1,H0,1,100,94.693
1572441180.216066,182579.000,31609,1,H0,1,100,94.693
1572441180.350089,182684.000,31627,1,H0,1,100,94.693
1572441180.482836,182788.000,31645,1,H0,1,100,94.697
1572441180.616860,182893.000,31663,1,H0,1,100,94.697
1572441180.752160,182999.000,31681,1,H0,1,100,94.693
1572441180.883631,183102.000,31699,1,H0,1,100,94.697
1572441181.017654,183207.000,31717,1,H0,1,100,94.689
1572441181.152954,183313.000,31736,1,H0,1,100,94.697
1572441181.284425,183416.000,31754,1,H0,1,100,94.693
1572441181.418448,183521.000,31772,1,H0,1,100,94.697
1572441181.553748,183627.000,31790,1,H0,1,100,94.697
1572441181.683943,183729.000,31808,1,H0,1,100,94.693
1572441181.815413,183832.000,31826,1,H0,1,100,94.700
1572441181.948161,183936.000,31844,1,H0,1,100,94.697
1572441182.079631,184039.000,31862,1,H0,1,100,94.700
1572441182.212379,184143.000,31881,1,H0,1,100,94.697
1572441182.346402,184248.000,31899,1,H0,1,100,94.697
1572441182.480426,184353.000,31917,1,H0,1,100,94.693
1572441182.613173,184457.000,31935,1,H0,1,100,94.693
1572441182.745920,184561.000,31952,1,H0,1,100,94.700
1572441182.878667,184665.000,31970,1,H0,1,100,94.693
1572441183.012691,184770.000,31988,1,H0,1,100,94.697
1572441183.145438,184874.000,32006,1,H0,1,100,94.697
1572441183.278185,184978.000,32025,1,H0,1,100,94.697
1572441183.414761,185085.000,32043,1,H0,1,100,94.697
1572441183.548785,185190.000,32064,1,H0,1,100,94.689
1572441183.682808,185295.000,32083,1,H0,1,100,94.697
1572441183.816832,185400.000,32102,1,H0,1,100,94.693
1572441183.952132,185506.000,32120,1,H0,1,100,94.697
1572441184.083603,185609.000,32138,1,H0,1,100,94.697
1572441184.217626,185714.000,32157,1,H0,1,100,94.693
1572441184.352926,185820.000,32175,1,H0,1,100,94.697
1572441184.484397,185923.000,32193,1,H0,1,100,94.693
1572441184.618420,186028.000,32211,1,H0,1,100,94.700
1572441184.752444,186133.000,32229,1,H0,1,100,94.697
1572441184.883915,186236.000,32247,1,H0,1,100,94.693
1572441185.015385,186339.000,32265,1,H0,1,100,94.697
1572441185.148133,186443.000,32283,1,H0,1,100,94.700
1572441185.280880,186547.000,32302,1,H0,1,100,94.689
1572441185.413627,186651.000,32320,1,H0,1,100,94.697
1572441185.547650,186756.000,32338,1,H0,1,100,94.700
1572441185.681674,186861.000,32356,1,H0,1,100,94.689
1572441185.815697,186966.000,32374,1,H0,1,100,94.697
1572441185.947168,187069.000,32392,1,H0,1,100,94.689
1572441186.079915,187173.000,32410,1,H0,1,100,94.697
1572441186.213939,187278.000,32427,1,H0,1,100,94.693
1572441186.347962,187383.000,32446,1,H0,1,100,94.697
1572441186.480710,187487.000,32464,1,H0,1,100,94.693
1572441186.617286,187594.000,32482,1,H0,1,100,94.697
1572441186.751310,187699.000,32500,1,H0,1,100,94.693
1572441186.884057,187803.000,32518,1,H0,1,100,94.693
1572441187.018080,187908.000,32552,1,H0,1,100,94.693
1572441187.153380,188014.000,32570,1,H0,1,100,94.697
1572441187.284851,188117.000,32589,1,H0,1,100,94.685
1572441187.418875,188222.000,32607,1,H0,1,100,94.697
1572441187.554174,188328.000,32625,1,H0,1,100,94.693
1572441187.685645,188431.000,32643,1,H0,1,100,94.685
1572441187.819669,188536.000,32661,1,H0,1,100,94.685
1572441187.951139,188639.000,32679,1,H0,1,100,94.689
1572441188.082610,188742.000,32697,1,H0,1,100,94.685
1572441188.214081,188845.000,32715,1,H0,1,100,94.685
1572441188.346828,188949.000,32734,1,H0,1,100,94.685
1572441188.479575,189053.000,32752,1,H0,1,100,94.685
1572441188.612322,189157.000,32770,1,H0,1,100,94.685
1572441188.746346,189262.000,32788,1,H0,1,100,94.681
1572441188.880369,189367.000,32806,1,H0,1,100,94.685
1572441189.014393,189472.000,32824,1,H0,1,100,94.681
1572441189.145864,189575.000,32842,1,H0,1,100,94.681
1572441189.278611,189679.000,32860,1,H0,1,100,94.685
1572441189.412634,189784.000,32879,1,H0,1,100,94.685
1572441189.546658,189889.000,32897,1,H0,1,100,94.685
1572441189.679405,189993.000,32915,1,H0,1,100,94.677
1572441189.815981,190100.000,32933,1,H0,1,100,94.674
1572441189.951281,190206.000,32950,1,H0,1,100,94.677
1572441190.081476,190308.000,32971,1,H0,1,100,94.674
1572441190.215499,190413.000,32991,1,H0,1,100,94.674
1572441190.349523,190518.000,33010,1,H0,1,100,94.670
1572441190.480994,190621.000,33028,1,H0,1,100,94.674
1572441190.615017,190726.000,33046,1,H0,1,100,94.670
1572441190.751594,190833.000,33064,1,H0,1,100,94.670
1572441190.884341,190937.000,33082,1,H0,1,100,94.662
1572441191.018364,191042.000,33100,1,H0,1,100,94.674
1572441191.151111,191146.000,33118,1,H0,1,100,94.674
1572441191.282582,191249.000,33136,1,H0,1,100,94.662
1572441191.414053,191352.000,33155,1,H0,1,100,94.662
1572441191.546800,191456.000,33173,1,H0,1,100,94.662
1572441191.680824,191561.000,33191,1,H0,1,100,94.655
1572441191.813570,191665.000,33209,1,H0,1,100,94.662
1572441191.947594,191770.000,33227,1,H0,1,100,94.666
1572441192.079065,191873.000,33245,1,H0,1,100,94.662
1572441192.213089,191978.000,33263,1,H0,1,100,94.655
1572441192.344559,192081.000,33281,1,H0,1,100,94.658
1572441192.477306,192185.000,33300,1,H0,1,100,94.662
1572441192.611330,192290.000,33318,1,H0,1,100,94.655
1572441192.745353,192395.000,33335,1,H0,1,100,94.655
1572441192.878101,192499.000,33353,1,H0,1,100,94.647
1572441193.014677,192606.000,33371,1,H0,1,100,94.651
1572441193.148700,192711.000,33389,1,H0,1,100,94.647
1572441193.278895,192813.000,33407,1,H0,1,100,94.651
1572441193.412918,192918.000,33425,1,H0,1,100,94.647
1572441193.546942,193023.000,33444,1,H0,1,100,94.639
1572441193.679689,193127.000,33461,1,H0,1,100,94.636
1572441193.813713,193232.000,33496,1,H0,1,100,94.636
1572441193.950289,193339.000,33514,1,H0,1,100,94.639
1572441194.083036,193443.000,33532,1,H0,1,100,94.647
1572441194.214507,193546.000,33550,1,H0,1,100,94.643
1572441194.347254,193650.000,33569,1,H0,1,100,94.636
1572441194.478725,193753.000,33587,1,H0,1,100,94.643
1572441194.610195,193856.000,33605,1,H0,1,100,94.636
1572441194.744219,193961.000,33623,1,H0,1,100,94.628
1572441194.878242,194066.000,33641,1,H0,1,100,94.628
1572441195.010990,194170.000,33659,1,H0,1,100,94.632
1572441195.146290,194276.000,33677,1,H0,1,100,94.628
1572441195.277760,194379.000,33695,1,H0,1,100,94.639
1572441195.411784,194484.000,33714,1,H0,1,100,94.639
1572441195.543255,194587.000,33732,1,H0,1,100,94.628
1572441195.676002,194691.000,33750,1,H0,1,100,94.624
1572441195.811302,194797.000,33768,1,H0,1,100,94.624
1572441195.945325,194902.000,33786,1,H0,1,100,94.632
1572441196.078073,195006.000,33804,1,H0,1,100,94.620
1572441196.213372,195112.000,33822,1,H0,1,100,94.624
1572441196.347396,195217.000,33840,1,H0,1,100,94.624
1572441196.477590,195319.000,33859,1,H0,1,100,94.620
1572441196.611614,195424.000,33880,1,H0,1,100,94.624
1572441196.745637,195529.000,33899,1,H0,1,100,94.624
1572441196.878385,195633.000,33918,1,H0,1,100,94.616
1572441197.012408,195738.000,33936,1,H0,1,100,94.616
1572441197.148984,195845.000,33954,1,H0,1,100,94.613
1572441197.280455,195948.000,33972,1,H0,1,100,94.620
1572441197.411926,196051.000,33991,1,H0,1,100,94.609
1572441197.544673,196155.000,34009,1,H0,1,100,94.613
1572441197.676144,196258.000,34027,1,H0,1,100,94.624
1572441197.808891,196362.000,34045,1,H0,1,100,94.624
1572441197.942914,196467.000,34063,1,H0,1,100,94.616
1572441198.076938,196572.000,34081,1,H0,1,100,94.609
1572441198.209685,196676.000,34099,1,H0,1,100,94.616
1572441198.342432,196780.000,34117,1,H0,1,100,94.616
1572441198.475179,196884.000,34136,1,H0,1,100,94.613
1572441198.609203,196989.000,34154,1,H0,1,100,94.605
1572441198.740674,197092.000,34172,1,H0,1,100,94.609
1572441198.873421,197196.000,34190,1,H0,1,100,94.609
1572441199.009997,197303.000,34208,1,H0,1,100,94.616
1572441199.144021,197408.000,34226,1,H0,1,100,94.609
1572441199.276768,197512.000,34243,1,H0,1,100,94.609
1572441199.410791,197617.000,34261,1,H0,1,100,94.620
1572441199.544815,197722.000,34280,1,H0,1,100,94.605
1572441199.675009,197824.000,34298,1,H0,1,100,94.601
1572441199.809033,197929.000,34316,1,H0,1,100,94.613
1572441199.943057,198034.000,34334,1,H0,1,100,94.613
1572441200.075804,198138.000,34352,1,H0,1,100,94.609
1572441200.209827,198243.000,34370,1,H0,1,100,94.613
1572441200.345127,198349.000,34404,1,H0,1,100,94.616
1572441200.476598,198452.000,34423,1,H0,1,100,94.601
1572441200.608068,198555.000,34441,1,H0,1,100,94.594
1572441200.740816,198659.000,34459,1,H0,1,100,94.597
1572441200.872287,198762.000,34477,1,H0,1,100,94.605
1572441201.005033,198866.000,34495,1,H0,1,100,94.613
1572441201.139057,198971.000,34513,1,H0,1,100,94.597
1572441201.273081,199076.000,34531,1,H0,1,100,94.594
1572441201.408381,199182.000,34549,1,H0,1,100,94.601
1572441201.539851,199285.000,34568,1,H0,1,100,94.601
1572441201.672599,199389.000,34586,1,H0,1,100,94.605
1572441201.806622,199494.000,34604,1,H0,1,100,94.601
1572441201.940646,199599.000,34622,1,H0,1,100,94.605
1572441202.073393,199703.000,34640,1,H0,1,100,94.597
1572441202.209969,199810.000,34658,1,H0,1,100,94.601
1572441202.343993,199915.000,34676,1,H0,1,100,94.601
1572441202.476740,200019.000,34694,1,H0,1,100,94.594
1572441202.610763,200124.000,34713,1,H0,1,100,94.597
1572441202.744787,200229.000,34731,1,H0,1,100,94.597
1572441202.874981,200331.000,34749,1,H0,1,100,94.597
1572441203.009005,200436.000,34767,1,H0,1,100,94.594
1572441203.145581,200543.000,34788,1,H0,1,100,94.601
1572441203.278328,200647.000,34808,1,H0,1,100,94.586
1572441203.412352,200752.000,34826,1,H0,1,100,94.582
1572441203.546376,200857.000,34845,1,H0,1,100,94.594
1572441203.677846,200960.000,34863,1,H0,1,100,94.597
1572441203.809317,201063.000,34881,1,H0,1,100,94.594
1572441203.942064,201167.000,34899,1,H0,1,100,94.590
1572441204.074811,201271.000,34917,1,H0,1,100,94.597
1572441204.207558,201375.000,34935,1,H0,1,100,94.597
1572441204.341582,201480.000,34953,1,H0,1,100,94.590
1572441204.475605,201585.000,34971,1,H0,1,100,94.590
1572441204.608353,201689.000,34990,1,H0,1,100,94.582
1572441204.739823,201792.000,35008,1,H0,1,100,94.594
1572441204.872571,201896.000,35026,1,H0,1,100,94.601
1572441205.006594,202001.000,35044,1,H0,1,100,94.590
1572441205.140618,202106.000,35062,1,H0,1,100,94.590
1572441205.273365,202210.000,35080,1,H0,1,100,94.590
1572441205.409941,202317.000,35098,1,H0,1,100,94.594
1572441205.543965,202422.000,35116,1,H0,1,100,94.594
1572441205.674159,202524.000,35134,1,H0,1,100,94.590
1572441205.808182,202629.000,35152,1,H0,1,100,94.586
1572441205.942206,202734.000,35170,1,H0,1,100,94.597
1572441206.073677,202837.000,35188,1,H0,1,100,94.590
1572441206.207700,202942.000,35206,1,H0,1,100,94.594
1572441206.344277,203049.000,35224,1,H0,1,100,94.594
1572441206.477024,203153.000,35242,1,H0,1,100,94.594
1572441206.609771,203257.000,35277,1,H0,1,100,94.582
1572441206.742518,203361.000,35295,1,H0,1,100,94.597
1572441206.873989,203464.000,35313,1,H0,1,100,94.597
1572441207.005460,203567.000,35331,1,H0,1,100,94.594
1572441207.138207,203671.000,35349,1,H0,1,100,94.597
1572441207.272230,203776.000,35367,1,H0,1,100,94.590
1572441207.404977,203880.000,35385,1,H0,1,100,94.590
1572441207.539001,203985.000,35403,1,H0,1,100,94.594
1572441207.671748,204089.000,35422,1,H0,1,100,94.582
1572441207.805772,204194.000,35440,1,H0,1,100,94.582
1572441207.937242,204297.000,35458,1,H0,1,100,94.590
1572441208.069989,204401.000,35476,1,H0,1,100,94.590
1572441208.204013,204506.000,35494,1,H0,1,100,94.582
1572441208.338037,204611.000,35512,1,H0,1,100,94.582
1572441208.470784,204715.000,35530,1,H0,1,100,94.578
1572441208.607360,204822.000,35549,1,H0,1,100,94.597
1572441208.741384,204927.000,35567,1,H0,1,100,94.578
1572441208.871578,205029.000,35585,1,H0,1,100,94.586
1572441209.005602,205134.000,35603,1,H0,1,100,94.578
1572441209.139625,205239.000,35621,1,H0,1,100,94.582
1572441209.272372,205343.000,35639,1,H0,1,100,94.586
1572441209.406396,205448.000,35657,1,H0,1,100,94.586
1572441209.542972,205555.000,35674,1,H0,1,100,94.582
1572441209.675719,205659.000,35696,1,H0,1,100,94.590
1572441209.808466,205763.000,35715,1,H0,1,100,94.586
1572441209.941214,205867.000,35734,1,H0,1,100,94.578
1572441210.072684,205970.000,35752,1,H0,1,100,94.578
1572441210.204155,206073.000,35770,1,H0,1,100,94.582
1572441210.338179,206178.000,35788,1,H0,1,100,94.578
1572441210.472202,206283.000,35806,1,H0,1,100,94.582
1572441210.604949,206387.000,35824,1,H0,1,100,94.590
1572441210.738973,206492.000,35843,1,H0,1,100,94.582
1572441210.870444,206595.000,35861,1,H0,1,100,94.582
1572441211.004467,206700.000,35879,1,H0,1,100,94.578
1572441211.135938,206803.000,35897,1,H0,1,100,94.586
1572441211.268685,206907.000,35915,1,H0,1,100,94.578
1572441211.403985,207013.000,35933,1,H0,1,100,94.574
1572441211.538008,207118.000,35951,1,H0,1,100,94.578
1572441211.670756,207222.000,35970,1,H0,1,100,94.578
1572441211.806056,207328.000,35988,1,H0,1,100,94.567
1572441211.940079,207433.000,36006,1,H0,1,100,94.578
1572441212.070273,207535.000,36024,1,H0,1,100,94.586
1572441212.204297,207640.000,36042,1,H0,1,100,94.578
1572441212.338320,207745.000,36059,1,H0,1,100,94.578
1572441212.471068,207849.000,36077,1,H0,1,100,94.578
1572441212.605091,207954.000,36095,1,H0,1,100,94.586
1572441212.741668,208061.000,36114,1,H0,1,100,94.582
1572441212.873138,208164.000,36132,1,H0,1,100,94.578
1572441213.004609,208267.000,36150,1,H0,1,100,94.574
1572441213.137356,208371.000,36168,1,H0,1,100,94.578
1572441213.268827,208474.000,36186,1,H0,1,100,94.582
1572441213.401574,208578.000,36220,1,H0,1,100,94.578
1572441213.535598,208683.000,36238,1,H0,1,100,94.574
1572441213.669621,208788.000,36257,1,H0,1,100,94.578
1572441213.802368,208892.000,36275,1,H0,1,100,94.578
1572441213.936392,208997.000,36293,1,H0,1,100,94.578
1572441214.067863,209100.000,36311,1,H0,1,100,94.586
1572441214.201886,209205.000,36329,1,H0,1,100,94.578
1572441214.333357,209308.000,36347,1,H0,1,100,94.574
1572441214.466104,209412.000,36365,1,H0,1,100,94.578
1572441214.602680,209519.000,36383,1,H0,1,100,94.582
1572441214.736704,209624.000,36402,1,H0,1,100,94.574
1572441214.869451,209728.000,36420,1,H0,1,100,94.582
1572441215.004751,209834.000,36438,1,H0,1,100,94.586
1572441215.138775,209939.000,36456,1,H0,1,100,94.582
1572441215.268969,210041.000,36474,1,H0,1,100,94.582
1572441215.402992,210146.000,36492,1,H0,1,100,94.578
1572441215.537016,210251.000,36510,1,H0,1,100,94.582
1572441215.669763,210355.000,36528,1,H0,1,100,94.582
1572441215.803787,210460.000,36547,1,H0,1,100,94.582
1572441215.940363,210567.000,36565,1,H0,1,100,94.586
1572441216.071834,210670.000,36583,1,H0,1,100,94.586
1572441216.203305,210773.000,36604,1,H0,1,100,94.582
1572441216.336052,210877.000,36624,1,H0,1,100,94.578
1572441216.467522,210980.000,36642,1,H0,1,100,94.582
1572441216.600270,211084.000,36660,1,H0,1,100,94.582
1572441216.734293,211189.000,36679,1,H0,1,100,94.582
1572441216.868317,211294.000,36697,1,H0,1,100,94.574
1572441217.002340,211399.000,36715,1,H0,1,100,94.586
1572441217.133811,211502.000,36733,1,H0,1,100,94.578
1572441217.266558,211606.000,36751,1,H0,1,100,94.574
1572441217.400582,211711.000,36769,1,H0,1,100,94.582
1572441217.534605,211816.000,36787,1,H0,1,100,94.582
1572441217.667352,211920.000,36805,1,H0,1,100,94.582
1572441217.803929,212027.000,36824,1,H0,1,100,94.578
1572441217.937952,212132.000,36842,1,H0,1,100,94.582
1572441218.070699,212236.000,36860,1,H0,1,100,94.574
1572441218.204723,212341.000,36878,1,H0,1,100,94.586
1572441218.338747,212446.000,36896,1,H0,1,100,94.574
1572441218.468941,212548.000,36914,1,H0,1,100,94.590
1572441218.602964,212653.000,36932,1,H0,1,100,94.578
1572441218.738264,212759.000,36949,1,H0,1,100,94.574
1572441218.871011,212863.000,36968,1,H0,1,100,94.574
1572441219.005035,212968.000,36986,1,H0,1,100,94.582
1572441219.139059,213073.000,37004,1,H0,1,100,94.582
1572441219.270529,213176.000,37022,1,H0,1,100,94.571
1572441219.402000,213279.000,37040,1,H0,1,100,94.582
1572441219.534747,213383.000,37058,1,H0,1,100,94.586
1572441219.667494,213487.000,37076,1,H0,1,100,94.574
1572441219.800241,213591.000,37093,1,H0,1,100,94.578
1572441219.934265,213696.000,37129,1,H0,1,100,94.582
1572441220.068289,213801.000,37147,1,H0,1,100,94.574
1572441220.202312,213906.000,37165,1,H0,1,100,94.578
1572441220.333783,214009.000,37183,1,H0,1,100,94.578
1572441220.466530,214113.000,37201,1,H0,1,100,94.578
1572441220.600554,214218.000,37219,1,H0,1,100,94.586
1572441220.734577,214323.000,37237,1,H0,1,100,94.571
1572441220.867324,214427.000,37256,1,H0,1,100,94.582
1572441221.003901,214534.000,37274,1,H0,1,100,94.574
1572441221.137924,214639.000,37292,1,H0,1,100,94.574
1572441221.269395,214742.000,37310,1,H0,1,100,94.567
1572441221.403419,214847.000,37328,1,H0,1,100,94.571
1572441221.537442,214952.000,37346,1,H0,1,100,94.567
1572441221.668913,215055.000,37364,1,H0,1,100,94.578
1572441221.802936,215160.000,37382,1,H0,1,100,94.574
1572441221.939513,215267.000,37401,1,H0,1,100,94.582
1572441222.072260,215371.000,37419,1,H0,1,100,94.582
1572441222.206283,215476.000,37437,1,H0,1,100,94.567
1572441222.339031,215580.000,37455,1,H0,1,100,94.578
1572441222.470501,215683.000,37473,1,H0,1,100,94.574
1572441222.601972,215786.000,37491,1,H0,1,100,94.574
1572441222.734719,215890.000,37512,1,H0,1,100,94.582
1572441222.868743,215995.000,37532,1,H0,1,100,94.586
1572441223.001490,216099.000,37551,1,H0,1,100,94.578
1572441223.135513,216204.000,37569,1,H0,1,100,94.578
1572441223.268260,216308.000,37587,1,H0,1,100,94.574
1572441223.402284,216413.000,37605,1,H0,1,100,94.582
1572441223.533755,216516.000,37623,1,H0,1,100,94.574
1572441223.666502,216620.000,37641,1,H0,1,100,94.578
1572441223.800525,216725.000,37659,1,H0,1,100,94.574
1572441223.934549,216830.000,37678,1,H0,1,100,94.578
1572441224.067296,216934.000,37696,1,H0,1,100,94.567
1572441224.203872,217041.000,37714,1,H0,1,100,94.578
1572441224.337896,217146.000,37732,1,H0,1,100,94.574
1572441224.468090,217248.000,37750,1,H0,1,100,94.578
1572441224.602114,217353.000,37768,1,H0,1,100,94.578
1572441224.736138,217458.000,37786,1,H0,1,100,94.582
1572441224.867608,217561.000,37804,1,H0,1,100,94.574
1572441225.001632,217666.000,37823,1,H0,1,100,94.574
1572441225.138208,217773.000,37841,1,H0,1,100,94.574
1572441225.270955,217877.000,37858,1,H0,1,100,94.574
1572441225.404979,217982.000,37876,1,H0,1,100,94.574
1572441225.537726,218086.000,37894,1,H0,1,100,94.574
1572441225.670473,218190.000,37912,1,H0,1,100,94.574
1572441225.803220,218294.000,37930,1,H0,1,100,94.574
1572441225.935967,218398.000,37948,1,H0,1,100,94.578
1572441226.069991,218503.000,37967,1,H0,1,100,94.578
1572441226.202738,218607.000,37985,1,H0,1,100,94.574
1572441226.336762,218712.000,38019,1,H0,1,100,94.574
1572441226.468232,218815.000,38037,1,H0,1,100,94.571
1572441226.600980,218919.000,38055,1,H0,1,100,94.571
1572441226.732450,219022.000,38073,1,H0,1,100,94.574
1572441226.863921,219125.000,38092,1,H0,1,100,94.578
1572441226.997945,219230.000,38110,1,H0,1,100,94.578
1572441227.131968,219335.000,38128,1,H0,1,100,94.574
1572441227.264715,219439.000,38146,1,H0,1,100,94.578
1572441227.401292,219546.000,38164,1,H0,1,100,94.574
1572441227.535315,219651.000,38182,1,H0,1,100,94.578
1572441227.665509,219753.000,38200,1,H0,1,100,94.578
1572441227.799533,219858.000,38218,1,H0,1,100,94.586
1572441227.933557,219963.000,38237,1,H0,1,100,94.578
1572441228.066304,220067.000,38255,1,H0,1,100,94.582
1572441228.200327,220172.000,38273,1,H0,1,100,94.578
1572441228.336904,220279.000,38291,1,H0,1,100,94.574
1572441228.469651,220383.000,38309,1,H0,1,100,94.578
1572441228.602398,220487.000,38327,1,H0,1,100,94.578
1572441228.735145,220591.000,38345,1,H0,1,100,94.582
1572441228.867892,220695.000,38363,1,H0,1,100,94.578
1572441229.000639,220799.000,38382,1,H0,1,100,94.578
1572441229.134663,220904.000,38400,1,H0,1,100,94.582
1572441229.268687,221009.000,38421,1,H0,1,100,94.578
1572441229.401434,221113.000,38441,1,H0,1,100,94.574
1572441229.534181,221217.000,38459,1,H0,1,100,94.582
1572441229.664375,221319.000,38477,1,H0,1,100,94.574
1572441229.797122,221423.000,38495,1,H0,1,100,94.574
1572441229.928593,221526.000,38514,1,H0,1,100,94.578
1572441230.060064,221629.000,38532,1,H0,1,100,94.571
1572441230.196640,221736.000,38550,1,H0,1,100,94.574
1572441230.330664,221841.000,38568,1,H0,1,100,94.582
1572441230.463411,221945.000,38586,1,H0,1,100,94.578
1572441230.597434,222050.000,38604,1,H0,1,100,94.574
1572441230.731458,222155.000,38622,1,H0,1,100,94.578
1572441230.861652,222257.000,38640,1,H0,1,100,94.578
1572441230.995676,222362.000,38659,1,H0,1,100,94.574
1572441231.129699,222467.000,38677,1,H0,1,100,94.578
1572441231.262446,222571.000,38695,1,H0,1,100,94.574
1572441231.396470,222676.000,38713,1,H0,1,100,94.578
1572441231.533046,222783.000,38731,1,H0,1,100,94.578
1572441231.663241,222885.000,38749,1,H0,1,100,94.574
1572441231.795988,222989.000,38767,1,H0,1,100,94.578
1572441231.928735,223093.000,38785,1,H0,1,100,94.571
1572441232.061482,223197.000,38804,1,H0,1,100,94.574
1572441232.194229,223301.000,38821,1,H0,1,100,94.578
1572441232.328253,223406.000,38839,1,H0,1,100,94.574
1572441232.462276,223511.000,38857,1,H0,1,100,94.574
1572441232.595023,223615.000,38875,1,H0,1,100,94.574
1572441232.727771,223719.000,38893,1,H0,1,100,94.574
1572441232.859241,223822.000,38911,1,H0,1,100,94.574
1572441232.991988,223926.000,38929,1,H0,1,100,94.578
1572441233.124736,224030.000,38948,1,H0,1,100,94.571
1572441233.257483,224134.000,38982,1,H0,1,100,94.571
1572441233.394059,224241.000,39000,1,H0,1,100,94.578
1572441233.528083,224346.000,39018,1,H0,1,100,94.582
1572441233.662106,224451.000,39036,1,H0,1,100,94.574
1572441233.796130,224556.000,39054,1,H0,1,100,94.574
1572441233.930153,224661.000,39072,1,H0,1,100,94.574
1572441234.060348,224763.000,39091,1,H0,1,100,94.574
1572441234.194371,224868.000,39109,1,H0,1,100,94.578
1572441234.329671,224974.000,39127,1,H0,1,100,94.582
1572441234.463695,225079.000,39145,1,H0,1,100,94.578
1572441234.596442,225183.000,39163,1,H0,1,100,94.571
1572441234.731742,225289.000,39181,1,H0,1,100,94.582
1572441234.867042,225395.000,39199,1,H0,1,100,94.574
1572441234.998513,225498.000,39217,1,H0,1,100,94.574
1572441235.132536,225603.000,39236,1,H0,1,100,94.586
1572441235.267836,225709.000,39254,1,H0,1,100,94.571
1572441235.399307,225812.000,39272,1,H0,1,100,94.578
1572441235.533330,225917.000,39290,1,H0,1,100,94.578
1572441235.668630,226023.000,39308,1,H0,1,100,94.582
1572441235.800101,226126.000,39329,1,H0,1,100,94.571
1572441235.931572,226229.000,39348,1,H0,1,100,94.571
1572441236.064319,226333.000,39368,1,H0,1,100,94.574
1572441236.195790,226436.000,39386,1,H0,1,100,94.574
1572441236.328537,226540.000,39404,1,H0,1,100,94.574
1572441236.462560,226645.000,39422,1,H0,1,100,94.574
1572441236.596584,226750.000,39440,1,H0,1,100,94.578
1572441236.729331,226854.000,39458,1,H0,1,100,94.574
1572441236.862078,226958.000,39476,1,H0,1,100,94.578
1572441236.994825,227062.000,39494,1,H0,1,100,94.574
1572441237.128849,227167.000,39513,1,H0,1,100,94.574
1572441237.260319,227270.000,39531,1,H0,1,100,94.574
1572441237.393067,227374.000,39549,1,H0,1,100,94.574
1572441237.529643,227481.000,39567,1,H0,1,100,94.571
1572441237.663667,227586.000,39585,1,H0,1,100,94.578
1572441237.796414,227690.000,39603,1,H0,1,100,94.574
1572441237.930437,227795.000,39621,1,H0,1,100,94.582
1572441238.065737,227901.000,39639,1,H0,1,100,94.578
1572441238.197208,228004.000,39658,1,H0,1,100,94.578
1572441238.331232,228109.000,39676,1,H0,1,100,94.571
1572441238.466532,228215.000,39694,1,H0,1,100,94.586
1572441238.598002,228318.000,39712,1,H0,1,100,94.578
1572441238.732026,228423.000,39729,1,H0,1,100,94.578
1572441238.867326,228529.000,39747,1,H0,1,100,94.571
1572441238.998796,228632.000,39765,1,H0,1,100,94.574
1572441239.130267,228735.000,39783,1,H0,1,100,94.571
1572441239.263014,228839.000,39802,1,H0,1,100,94.574
1572441239.394485,228942.000,39820,1,H0,1,100,94.574
1572441239.527232,229046.000,39838,1,H0,1,100,94.578
1572441239.661256,229151.000,39856,1,H0,1,100,94.578
1572441239.795279,229256.000,39874,1,H0,1,100,94.574
1572441239.930579,229362.000,39908,1,H0,1,100,94.574
1572441240.062050,229465.000,39927,1,H0,1,100,94.578
1572441240.194797,229569.000,39945,1,H0,1,100,94.578
1572441240.328821,229674.000,39963,1,H0,1,100,94.582
1572441240.461568,229778.000,39981,1,H0,1,100,94.578
1572441240.594315,229882.000,39999,1,H0,1,100,94.574
1572441240.730891,229989.000,40017,1,H0,1,100,94.590
1572441240.864915,230094.000,40035,1,H0,1,100,94.574
1572441240.998939,230199.000,40053,1,H0,1,100,94.574
1572441241.132962,230304.000,40072,1,H0,1,100,94.578
1572441241.268262,230410.000,40090,1,H0,1,100,94.574
1572441241.399733,230513.000,40108,1,H0,1,100,94.571
1572441241.533756,230618.000,40126,1,H0,1,100,94.574
1572441241.669056,230724.000,40144,1,H0,1,100,94.574
1572441241.800527,230827.000,40162,1,H0,1,100,94.574
1572441241.934551,230932.000,40180,1,H0,1,100,94.578
1572441242.067298,231036.000,40198,1,H0,1,100,94.578
1572441242.198768,231139.000,40217,1,H0,1,100,94.582
1572441242.330877,231242.500,40238,2,H0,1,100,94.578
1572441242.462986,231346.000,40238,2,H0,1,100,94.574
1572441242.595733,231450.000,40274,1,H0,1,100,94.586
1572441242.728481,231554.000,40292,1,H0,1,100,94.574
1572441242.862504,231659.000,40310,1,H0,1,100,94.578
1572441242.996528,231764.000,40328,1,H0,1,100,94.582
1572441243.130551,231869.000,40347,1,H0,1,100,94.582
1572441243.262022,231972.000,40365,1,H0,1,100,94.578
1572441243.394769,232076.000,40383,1,H0,1,100,94.582
1572441243.528793,232181.000,40401,1,H0,1,100,94.590
1572441243.662816,232286.000,40419,1,H0,1,100,94.582
1572441243.795563,232390.000,40437,1,H0,1,100,94.578
1572441243.932140,232497.000,40455,1,H0,1,100,94.582
1572441244.066163,232602.000,40473,1,H0,1,100,94.586
1572441244.196357,232704.000,40492,1,H0,1,100,94.578
1572441244.330381,232809.000,40510,1,H0,1,100,94.578
1572441244.465681,232915.000,40528,1,H0,1,100,94.586
1572441244.597152,233018.000,40546,1,H0,1,100,94.582
1572441244.731175,233123.000,40564,1,H0,1,100,94.586
1572441244.866475,233229.000,40582,1,H0,1,100,94.586
1572441244.997946,233332.000,40600,1,H0,1,100,94.586
1572441245.131970,233437.000,40618,1,H0,1,100,94.582
1572441245.263440,233540.000,40637,1,H0,1,100,94.578
1572441245.394911,233643.000,40655,1,H0,1,100,94.586
1572441245.526382,233746.000,40672,1,H0,1,100,94.582
1572441245.659129,233850.000,40690,1,H0,1,100,94.586
1572441245.793153,233955.000,40708,1,H0,1,100,94.582
1572441245.925900,234059.000,40726,1,H0,1,100,94.578
1572441246.059923,234164.000,40744,1,H0,1,100,94.586
1572441246.192670,234268.000,40762,1,H0,1,100,94.578
1572441246.326694,234373.000,40781,1,H0,1,100,94.590
1572441246.458164,234476.000,40799,1,H0,1,100,94.586
1572441246.590912,234580.000,40833,1,H0,1,100,94.590
1572441246.724935,234685.000,40851,1,H0,1,100,94.590
1572441246.858959,234790.000,40869,1,H0,1,100,94.582
1572441246.991706,234894.000,40887,1,H0,1,100,94.586
1572441247.128282,235001.000,40905,1,H0,1,100,94.578
1572441247.262306,235106.000,40924,1,H0,1,100,94.590
1572441247.393777,235209.000,40942,1,H0,1,100,94.582
1572441247.527800,235314.000,40960,1,H0,1,100,94.582
1572441247.663100,235420.000,40978,1,H0,1,100,94.582
1572441247.794571,235523.000,40996,1,H0,1,100,94.586
1572441247.928594,235628.000,41014,1,H0,1,100,94.582
1572441248.063894,235734.000,41032,1,H0,1,100,94.586
1572441248.195365,235837.000,41050,1,H0,1,100,94.586
1572441248.328112,235941.000,41069,1,H0,1,100,94.582
1572441248.460859,236045.000,41087,1,H0,1,100,94.582
1572441248.592330,236148.000,41105,1,H0,1,100,94.582
1572441248.723801,236251.000,41123,1,H0,1,100,94.578
1572441248.857824,236356.000,41144,2,H0,1,100,94.586
1572441248.991848,236461.000,41144,2,H0,1,100,94.586
1572441249.124595,236565.000,41163,1,H0,1,100,94.586
1572441249.258619,236670.000,41199,1,H0,1,100,94.582
1572441249.390089,236773.000,41217,1,H0,1,100,94.582
1572441249.524113,236878.000,41235,1,H0,1,100,94.586
1572441249.655584,236981.000,41253,1,H0,1,100,94.582
1572441249.788331,237085.000,41271,1,H0,1,100,94.586
1572441249.922354,237190.000,41289,1,H0,1,100,94.582
1572441250.056378,237295.000,41307,1,H0,1,100,94.578
1572441250.189125,237399.000,41325,1,H0,1,100,94.586
1572441250.324425,237505.000,41344,1,H0,1,100,94.586
1572441250.459725,237611.000,41362,1,H0,1,100,94.586
1572441250.591196,237714.000,41380,1,H0,1,100,94.582
1572441250.725219,237819.000,41398,1,H0,1,100,94.586
1572441250.860519,237925.000,41416,1,H0,1,100,94.590
1572441250.991990,238028.000,41434,1,H0,1,100,94.590
1572441251.126014,238133.000,41452,1,H0,1,100,94.582
1572441251.261313,238239.000,41470,1,H0,1,100,94.578
1572441251.394061,238343.000,41489,1,H0,1,100,94.586
1572441251.525531,238446.000,41507,1,H0,1,100,94.582
1572441251.658278,238550.000,41525,1,H0,1,100,94.590
1572441251.789749,238653.000,41543,1,H0,1,100,94.582
1572441251.922496,238757.000,41561,1,H0,1,100,94.582
1572441252.056520,238862.000,41579,1,H0,1,100,94.586
1572441252.190543,238967.000,41597,1,H0,1,100,94.586
1572441252.323291,239071.000,41614,1,H0,1,100,94.578
1572441252.457314,239176.000,41633,1,H0,1,100,94.590
1572441252.588785,239279.000,41651,1,H0,1,100,94.586
1572441252.722808,239384.000,41669,1,H0,1,100,94.586
1572441252.854279,239487.000,41687,1,H0,1,100,94.582
1572441252.987026,239591.000,41705,1,H0,1,100,94.582
1572441253.123603,239698.000,41723,1,H0,1,100,94.578
1572441253.257626,239803.000,41757,1,H0,1,100,94.586
1572441253.390373,239907.000,41776,1,H0,1,100,94.586
1572441253.525673,240013.000,41794,1,H0,1,100,94.590
1572441253.660973,240119.000,41812,1,H0,1,100,94.590
1572441253.792444,240222.000,41830,1,H0,1,100,94.586
1572441253.926468,240327.000,41848,1,H0,1,100,94.578
1572441254.061768,240433.000,41866,1,H0,1,100,94.590
1572441254.193238,240536.000,41884,1,H0,1,100,94.578
1572441254.327262,240641.000,41903,1,H0,1,100,94.590
1572441254.462562,240747.000,41921,1,H0,1,100,94.594
1572441254.592756,240849.000,41939,1,H0,1,100,94.590
1572441254.724227,240952.000,41957,1,H0,1,100,94.597
1572441254.856974,241056.000,41975,1,H0,1,100,94.590
1572441254.988445,241159.000,41993,1,H0,1,100,94.594
1572441255.121192,241263.000,42011,1,H0,1,100,94.594
1572441255.255215,241368.000,42029,1,H0,1,100,94.578
1572441255.388601,241472.500,42051,2,H0,1,100,94.590
1572441255.521986,241577.000,42051,2,H0,1,100,94.590
1572441255.653457,241680.000,42070,1,H0,1,100,94.586
1572441255.786204,241784.000,42089,1,H0,1,100,94.586
1572441255.920228,241889.000,42123,1,H0,1,100,94.594
1572441256.052975,241993.000,42141,1,H0,1,100,94.582
1572441256.185722,242097.000,42159,1,H0,1,100,94.582
1572441256.322298,242204.000,42177,1,H0,1,100,94.586
1572441256.456322,242309.000,42196,1,H0,1,100,94.582
1572441256.589069,242413.000,42214,1,H0,1,100,94.590
1572441256.723092,242518.000,42232,1,H0,1,100,94.582
1572441256.858392,242624.000,42250,1,H0,1,100,94.590
1572441256.989863,242727.000,42268,1,H0,1,100,94.582
1572441257.123887,242832.000,42286,1,H0,1,100,94.586
1572441257.259187,242938.000,42304,1,H0,1,100,94.586
1572441257.390657,243041.000,42323,1,H0,1,100,94.582
1572441257.524681,243146.000,42341,1,H0,1,100,94.590
1572441257.658705,243251.000,42359,1,H0,1,100,94.586
1572441257.790175,243354.000,42377,1,H0,1,100,94.578
1572441257.921646,243457.000,42395,1,H0,1,100,94.586
1572441258.054393,243561.000,42413,1,H0,1,100,94.594
1572441258.187140,243665.000,42431,1,H0,1,100,94.590
1572441258.319887,243769.000,42449,1,H0,1,100,94.590
1572441258.453911,243874.000,42468,1,H0,1,100,94.582
1572441258.587934,243979.000,42486,1,H0,1,100,94.582
1572441258.721958,244084.000,42504,1,H0,1,100,94.586
1572441258.853429,244187.000,42521,1,H0,1,100,94.586
1572441258.986176,244291.000,42539,1,H0,1,100,94.586
1572441259.120199,244396.000,42557,1,H0,1,100,94.574
1572441259.254223,244501.000,42575,1,H0,1,100,94.590
1572441259.386970,244605.000,42593,1,H0,1,100,94.586
1572441259.523546,244712.000,42612,1,H0,1,100,94.590
1572441259.657570,244817.000,42646,1,H0,1,100,94.586
1572441259.790317,244921.000,42664,1,H0,1,100,94.586
1572441259.924341,245026.000,42682,1,H0,1,100,94.586
1572441260.059641,245132.000,42700,1,H0,1,100,94.586
1572441260.191111,245235.000,42718,1,H0,1,100,94.586
1572441260.325135,245340.000,42736,1,H0,1,100,94.590
1572441260.460435,245446.000,42755,1,H0,1,100,94.590
1572441260.591906,245549.000,42773,1,H0,1,100,94.586
1572441260.725929,245654.000,42791,1,H0,1,100,94.586
1572441260.857400,245757.000,42809,1,H0,1,100,94.586
1572441260.988871,245860.000,42827,1,H0,1,100,94.590
1572441261.120341,245963.000,42845,1,H0,1,100,94.586
1572441261.253088,246067.000,42863,1,H0,1,100,94.590
1572441261.387112,246172.000,42881,1,H0,1,100,94.590
1572441261.519859,246276.000,42900,1,H0,1,100,94.586
1572441261.653883,246381.000,42918,1,H0,1,100,94.594
1572441261.786630,246485.000,42936,1,H0,1,100,94.590
1572441261.919377,246589.000,42957,2,H0,1,100,94.590
1572441262.052124,246693.000,42957,2,H0,1,100,94.586
1572441262.184871,246797.000,42976,1,H0,1,100,94.586
1572441262.318895,246902.000,42995,1,H0,1,100,94.590
1572441262.452919,247007.000,43013,1,H0,1,100,94.578
1572441262.585665,247111.000,43032,1,H0,1,100,94.586
1572441262.722242,247218.000,43066,1,H0,1,100,94.594
1572441262.856266,247323.000,43084,1,H0,1,100,94.586
1572441262.986460,247425.000,43102,1,H0,1,100,94.590
1572441263.120483,247530.000,43120,1,H0,1,100,94.586
1572441263.254507,247635.000,43138,1,H0,1,100,94.590
1572441263.385978,247738.000,43156,1,H0,1,100,94.597
1572441263.520001,247843.000,43175,1,H0,1,100,94.586
1572441263.656578,247950.000,43193,1,H0,1,100,94.594
1572441263.789325,248054.000,43211,1,H0,1,100,94.594
1572441263.923348,248159.000,43229,1,H0,1,100,94.582
1572441264.056095,248263.000,43247,1,H0,1,100,94.594
1572441264.187566,248366.000,43265,1,H0,1,100,94.594
1572441264.319037,248469.000,43283,1,H0,1,100,94.594
1572441264.451784,248573.000,43301,1,H0,1,100,94.590
1572441264.585808,248678.000,43320,1,H0,1,100,94.601
1572441264.718555,248782.000,43338,1,H0,1,100,94.586
1572441264.852578,248887.000,43356,1,H0,1,100,94.594
1572441264.985325,248991.000,43374,1,H0,1,100,94.594
1572441265.119349,249096.000,43392,1,H0,1,100,94.590
1572441265.250820,249199.000,43410,1,H0,1,100,94.590
1572441265.383567,249303.000,43428,1,H0,1,100,94.590
1572441265.517590,249408.000,43446,1,H0,1,100,94.597
1572441265.651614,249513.000,43465,1,H0,1,100,94.594
1572441265.784361,249617.000,43482,1,H0,1,100,94.597
1572441265.920938,249724.000,43500,1,H0,1,100,94.590
1572441266.054961,249829.000,43518,1,H0,1,100,94.594
1572441266.185155,249931.000,43536,1,H0,1,100,94.594
1572441266.319179,250036.000,43554,1,H0,1,100,94.590
1572441266.453202,250141.000,43572,1,H0,1,100,94.594
1572441266.585949,250245.000,43590,1,H0,1,100,94.590
1572441266.719973,250350.000,43625,1,H0,1,100,94.594
1572441266.856550,250457.000,43643,1,H0,1,100,94.597
1572441266.989297,250561.000,43661,1,H0,1,100,94.594
1572441267.120767,250664.000,43679,1,H0,1,100,94.586
1572441267.253515,250768.000,43697,1,H0,1,100,94.594
1572441267.384985,250871.000,43715,1,H0,1,100,94.594
1572441267.517732,250975.000,43734,1,H0,1,100,94.597
1572441267.651756,251080.000,43752,1,H0,1,100,94.594
1572441267.785779,251185.000,43770,1,H0,1,100,94.586
1572441267.918527,251289.000,43788,1,H0,1,100,94.594
1572441268.051274,251393.000,43806,1,H0,1,100,94.590
1572441268.182745,251496.000,43824,1,H0,1,100,94.597
1572441268.316768,251601.000,43842,1,H0,1,100,94.601
1572441268.448877,251704.500,43863,2,H0,1,100,94.597
1572441268.580986,251808.000,43863,2,H0,1,100,94.590
1572441268.717562,251915.000,43883,1,H0,1,100,94.590
1572441268.851586,252020.000,43902,1,H0,1,100,94.594
1572441268.984333,252124.000,43920,1,H0,1,100,94.597
1572441269.118356,252229.000,43938,1,H0,1,100,94.597
1572441269.252380,252334.000,43972,1,H0,1,100,94.597
1572441269.382574,252436.000,43990,1,H0,1,100,94.597
1572441269.516598,252541.000,44008,1,H0,1,100,94.597
1572441269.650621,252646.000,44027,1,H0,1,100,94.597
1572441269.783369,252750.000,44045,1,H0,1,100,94.594
1572441269.917392,252855.000,44063,1,H0,1,100,94.594
1572441270.053968,252962.000,44081,1,H0,1,100,94.597
1572441270.185439,253065.000,44099,1,H0,1,100,94.597
1572441270.316910,253168.000,44117,1,H0,1,100,94.594
1572441270.449657,253272.000,44135,1,H0,1,100,94.594
1572441270.581128,253375.000,44154,1,H0,1,100,94.590
1572441270.713875,253479.000,44172,1,H0,1,100,94.590
1572441270.847898,253584.000,44190,1,H0,1,100,94.609
1572441270.981922,253689.000,44208,1,H0,1,100,94.594
1572441271.114669,253793.000,44226,1,H0,1,100,94.594
1572441271.247416,253897.000,44244,1,H0,1,100,94.594
1572441271.380163,254001.000,44262,1,H0,1,100,94.594
1572441271.514187,254106.000,44280,1,H0,1,100,94.594
1572441271.645658,254209.000,44299,1,H0,1,100,94.594
1572441271.778405,254313.000,44317,1,H0,1,100,94.597
1572441271.914981,254420.000,44335,1,H0,1,100,94.590
1572441272.049005,254525.000,44353,1,H0,1,100,94.594
1572441272.183028,254630.000,44370,1,H0,1,100,94.601
1572441272.317052,254735.000,44388,1,H0,1,100,94.590
1572441272.451076,254840.000,44406,1,H0,1,100,94.590
1572441272.581270,254942.000,44424,1,H0,1,100,94.590
1572441272.715293,255047.000,44443,1,H0,1,100,94.594
1572441272.850593,255153.000,44461,1,H0,1,100,94.601
1572441272.983341,255257.000,44479,1,H0,1,100,94.597
1572441273.117364,255362.000,44513,1,H0,1,100,94.597
1572441273.252664,255468.000,44531,1,H0,1,100,94.586
1572441273.384135,255571.000,44549,1,H0,1,100,94.590
1572441273.515605,255674.000,44567,1,H0,1,100,94.590
1572441273.648353,255778.000,44586,1,H0,1,100,94.594
1572441273.781100,255882.000,44604,1,H0,1,100,94.601
1572441273.913847,255986.000,44622,1,H0,1,100,94.605
1572441274.047870,256091.000,44640,1,H0,1,100,94.601
1572441274.181894,256196.000,44658,1,H0,1,100,94.597
1572441274.315917,256301.000,44676,1,H0,1,100,94.594
1572441274.447388,256404.000,44694,1,H0,1,100,94.597
1572441274.580135,256508.000,44712,1,H0,1,100,94.597
1572441274.714159,256613.000,44731,1,H0,1,100,94.597
1572441274.848182,256718.000,44749,1,H0,1,100,94.597
1572441274.982844,256823.500,44770,2,H0,1,100,94.597
1572441275.117506,256929.000,44770,2,H0,1,100,94.590
1572441275.251530,257034.000,44789,1,H0,1,100,94.594
1572441275.383000,257137.000,44808,1,H0,1,100,94.590
1572441275.517024,257242.000,44826,1,H0,1,100,94.601
1572441275.651047,257347.000,44844,1,H0,1,100,94.597
1572441275.781242,257449.000,44863,1,H0,1,100,94.601
1572441275.915265,257554.000,44897,1,H0,1,100,94.597
1572441276.051842,257661.000,44915,1,H0,1,100,94.605
1572441276.184589,257765.000,44933,1,H0,1,100,94.594
1572441276.318612,257870.000,44951,1,H0,1,100,94.601
1572441276.452636,257975.000,44969,1,H0,1,100,94.597
1572441276.584107,258078.000,44987,1,H0,1,100,94.605
1572441276.715577,258181.000,45006,1,H0,1,100,94.597
1572441276.848325,258285.000,45024,1,H0,1,100,94.601
1572441276.981072,258389.000,45042,1,H0,1,100,94.594
1572441277.113819,258493.000,45060,1,H0,1,100,94.601
1572441277.247842,258598.000,45078,1,H0,1,100,94.601
1572441277.381866,258703.000,45096,1,H0,1,100,94.597
1572441277.515889,258808.000,45114,1,H0,1,100,94.605
1572441277.647360,258911.000,45132,1,H0,1,100,94.601
1572441277.780107,259015.000,45151,1,H0,1,100,94.609
1572441277.914131,259120.000,45169,1,H0,1,100,94.601
1572441278.048154,259225.000,45187,1,H0,1,100,94.597
1572441278.180902,259329.000,45205,1,H0,1,100,94.597
1572441278.317478,259436.000,45223,1,H0,1,100,94.601
1572441278.452778,259542.000,45241,1,H0,1,100,94.590
1572441278.582972,259644.000,45259,1,H0,1,100,94.590
1572441278.716996,259749.000,45277,1,H0,1,100,94.597
1572441278.851019,259854.000,45295,1,H0,1,100,94.594
1572441278.982490,259957.000,45313,1,H0,1,100,94.594
1572441279.116514,260062.000,45331,1,H0,1,100,94.594
1572441279.253090,260169.000,45349,1,H0,1,100,94.590
1572441279.385837,260273.000,45367,1,H0,1,100,94.597
1572441279.518584,260377.000,45385,1,H0,1,100,94.594
1572441279.651331,260481.000,45419,1,H0,1,100,94.601
1572441279.782802,260584.000,45438,1,H0,1,100,94.594
1572441279.914273,260687.000,45456,1,H0,1,100,94.594
1572441280.047020,260791.000,45474,1,H0,1,100,94.594
1572441280.181044,260896.000,45492,1,H0,1,100,94.594
1572441280.313791,261000.000,45510,1,H0,1,100,94.594
1572441280.447814,261105.000,45528,1,H0,1,100,94.597
1572441280.579285,261208.000,45546,1,H0,1,100,94.601
1572441280.713309,261313.000,45564,1,H0,1,100,94.594
1572441280.844779,261416.000,45583,1,H0,1,100,94.594
1572441280.977526,261520.000,45601,1,H0,1,100,94.590
1572441281.111550,261625.000,45619,1,H0,1,100,94.594
1572441281.245574,261730.000,45637,1,H0,1,100,94.597
1572441281.378321,261834.000,45655,1,H0,1,100,94.590
1572441281.512982,261939.500,45676,2,H0,1,100,94.597
1572441281.647644,262045.000,45676,2,H0,1,100,94.590
1572441281.777838,262147.000,45696,1,H0,1,100,94.582
1572441281.911862,262252.000,45715,1,H0,1,100,94.594
1572441282.045886,262357.000,45733,1,H0,1,100,94.594
1572441282.178633,262461.000,45751,1,H0,1,100,94.578
1572441282.312656,262566.000,45769,1,H0,1,100,94.590
1572441282.449233,262673.000,45803,1,H0,1,100,94.582
1572441282.581980,262777.000,45821,1,H0,1,100,94.597
1572441282.714727,262881.000,45839,1,H0,1,100,94.590
1572441282.847474,262985.000,45858,1,H0,1,100,94.590
1572441282.978945,263088.000,45876,1,H0,1,100,94.586
1572441283.110415,263191.000,45894,1,H0,1,100,94.582
1572441283.244439,263296.000,45912,1,H0,1,100,94.586
1572441283.378463,263401.000,45930,1,H0,1,100,94.586
1572441283.511210,263505.000,45948,1,H0,1,100,94.586
1572441283.645233,263610.000,45966,1,H0,1,100,94.578
1572441283.776704,263713.000,45984,1,H0,1,100,94.578
1572441283.910728,263818.000,46003,1,H0,1,100,94.586
1572441284.042198,263921.000,46021,1,H0,1,100,94.578
1572441284.174945,264025.000,46039,1,H0,1,100,94.582
1572441284.310246,264131.000,46057,1,H0,1,100,94.578
1572441284.444269,264236.000,46075,1,H0,1,100,94.574
1572441284.577016,264340.000,46093,1,H0,1,100,94.590
1572441284.712316,264446.000,46111,1,H0,1,100,94.590
1572441284.846340,264551.000,46130,1,H0,1,100,94.582
1572441284.976534,264653.000,46148,1,H0,1,100,94.571
1572441285.110558,264758.000,46166,1,H0,1,100,94.586
1572441285.244581,264863.000,46184,1,H0,1,100,94.574
1572441285.377328,264967.000,46201,1,H0,1,100,94.563
1572441285.511352,265072.000,46219,1,H0,1,100,94.578
1572441285.647928,265179.000,46237,1,H0,1,100,94.574
1572441285.779399,265282.000,46255,1,H0,1,100,94.567
1572441285.910870,265385.000,46274,1,H0,1,100,94.578
1572441286.043617,265489.000,46292,1,H0,1,100,94.582
1572441286.175087,265592.000,46310,1,H0,1,100,94.571
1572441286.307835,265696.000,46328,1,H0,1,100,94.574
1572441286.441858,265801.000,46346,1,H0,1,100,94.578
1572441286.575882,265906.000,46380,1,H0,1,100,94.574
1572441286.708629,266010.000,46398,1,H0,1,100,94.567
1572441286.841376,266114.000,46417,1,H0,1,100,94.578
1572441286.974123,266218.000,46435,1,H0,1,100,94.578
1572441287.108147,266323.000,46453,1,H0,1,100,94.571
1572441287.239617,266426.000,46471,1,H0,1,100,94.571
1572441287.372365,266530.000,46489,1,H0,1,100,94.578
1572441287.508941,266637.000,46507,1,H0,1,100,94.578
1572441287.642964,266742.000,46525,1,H0,1,100,94.571
1572441287.775712,266846.000,46543,1,H0,1,100,94.571
1572441287.909735,266951.000,46562,1,H0,1,100,94.574
1572441288.041844,267054.500,46583,2,H0,1,100,94.571
1572441288.173953,267158.000,46583,2,H0,1,100,94.571
1572441288.307976,267263.000,46601,1,H0,1,100,94.574
1572441288.442000,267368.000,46620,1,H0,1,100,94.571
1572441288.574747,267472.000,46638,1,H0,1,100,94.571
1572441288.708771,267577.000,46656,1,H0,1,100,94.567
1572441288.845347,267684.000,46674,1,H0,1,100,94.559
1572441288.975542,267786.000,46693,1,H0,1,100,94.559
1572441289.107012,267889.000,46710,1,H0,1,100,94.571
1572441289.239759,267993.000,46745,1,H0,1,100,94.567
1572441289.371230,268096.000,46763,1,H0,1,100,94.555
1572441289.503977,268200.000,46781,1,H0,1,100,94.567
1572441289.638001,268305.000,46799,1,H0,1,100,94.563
1572441289.772024,268410.000,46817,1,H0,1,100,94.563
1572441289.907324,268516.000,46836,1,H0,1,100,94.563
1572441290.038795,268619.000,46854,1,H0,1,100,94.571
1572441290.171542,268723.000,46872,1,H0,1,100,94.574
1572441290.305566,268828.000,46890,1,H0,1,100,94.574
1572441290.439589,268933.000,46908,1,H0,1,100,94.571
1572441290.572336,269037.000,46926,1,H0,1,100,94.567
1572441290.708913,269144.000,46944,1,H0,1,100,94.574
1572441290.842936,269249.000,46962,1,H0,1,100,94.567
1572441290.975683,269353.000,46981,1,H0,1,100,94.574
1572441291.109707,269458.000,46999,1,H0,1,100,94.567
1572441291.243731,269563.000,47017,1,H0,1,100,94.582
1572441291.373925,269665.000,47035,1,H0,1,100,94.574
1572441291.507948,269770.000,47053,1,H0,1,100,94.567
1572441291.644525,269877.000,47071,1,H0,1,100,94.578
1572441291.777272,269981.000,47089,1,H0,1,100,94.574
1572441291.911296,270086.000,47107,1,H0,1,100,94.571
1572441292.045319,270191.000,47125,1,H0,1,100,94.567
1572441292.176790,270294.000,47143,1,H0,1,100,94.574
1572441292.308261,270397.000,47161,1,H0,1,100,94.574
1572441292.441008,270501.000,47179,1,H0,1,100,94.582
1572441292.573755,270605.000,47197,1,H0,1,100,94.578
1572441292.706502,270709.000,47215,1,H0,1,100,94.582
1572441292.840526,270814.000,47233,1,H0,1,100,94.571
1572441292.974549,270919.000,47251,1,H0,1,100,94.578
1572441293.107296,271023.000,47286,1,H0,1,100,94.578
1572441293.238767,271126.000,47304,1,H0,1,100,94.578
1572441293.371514,271230.000,47322,1,H0,1,100,94.590
1572441293.505538,271335.000,47340,1,H0,1,100,94.582
1572441293.639561,271440.000,47358,1,H0,1,100,94.578
1572441293.772308,271544.000,47376,1,H0,1,100,94.578
1572441293.908885,271651.000,47394,1,H0,1,100,94.578
1572441294.042908,271756.000,47413,1,H0,1,100,94.590
1572441294.173103,271858.000,47431,1,H0,1,100,94.582
1572441294.307126,271963.000,47449,1,H0,1,100,94.582
1572441294.441150,272068.000,47467,1,H0,1,100,94.590
1572441294.573897,272172.000,47488,2,H0,1,100,94.590
1572441294.706644,272276.000,47488,2,H0,1,100,94.586
1572441294.843220,272383.000,47507,1,H0,1,100,94.582
1572441294.975967,272487.000,47525,1,H0,1,100,94.578
1572441295.109991,272592.000,47544,1,H0,1,100,94.578
1572441295.242738,272696.000,47562,1,H0,1,100,94.582
1572441295.374209,272799.000,47580,1,H0,1,100,94.578
1572441295.505680,272902.000,47598,1,H0,1,100,94.586
1572441295.638427,273006.000,47616,1,H0,1,100,94.574
1572441295.772450,273111.000,47634,1,H0,1,100,94.578
1572441295.905197,273215.000,47652,1,H0,1,100,94.574
1572441296.039221,273320.000,47687,1,H0,1,100,94.574
1572441296.171968,273424.000,47705,1,H0,1,100,94.567
1572441296.305992,273529.000,47723,1,H0,1,100,94.574
1572441296.437462,273632.000,47741,1,H0,1,100,94.571
1572441296.570210,273736.000,47759,1,H0,1,100,94.574
1572441296.704233,273841.000,47777,1,H0,1,100,94.582
1572441296.838257,273946.000,47795,1,H0,1,100,94.574
1572441296.971004,274050.000,47813,1,H0,1,100,94.574
1572441297.107580,274157.000,47832,1,H0,1,100,94.578
1572441297.241604,274262.000,47850,1,H0,1,100,94.578
1572441297.371798,274364.000,47868,1,H0,1,100,94.578
1572441297.505822,274469.000,47886,1,H0,1,100,94.578
1572441297.639845,274574.000,47904,1,H0,1,100,94.582
1572441297.772592,274678.000,47922,1,H0,1,100,94.582
1572441297.906616,274783.000,47940,1,H0,1,100,94.586
1572441298.043192,274890.000,47958,1,H0,1,100,94.582
1572441298.175939,274994.000,47977,1,H0,1,100,94.586
1572441298.309963,275099.000,47995,1,H0,1,100,94.586
1572441298.442710,275203.000,48013,1,H0,1,100,94.582
1572441298.575457,275307.000,48031,1,H0,1,100,94.574
1572441298.708204,275411.000,48049,1,H0,1,100,94.586
1572441298.842228,275516.000,48066,1,H0,1,100,94.582
1572441298.976251,275621.000,48084,1,H0,1,100,94.586
1572441299.108999,275725.000,48103,1,H0,1,100,94.601
1572441299.243022,275830.000,48121,1,H0,1,100,94.586
1572441299.373216,275932.000,48139,1,H0,1,100,94.586
1572441299.505964,276036.000,48157,1,H0,1,100,94.590
1572441299.637434,276139.000,48175,1,H0,1,100,94.582
1572441299.768905,276242.000,48193,1,H0,1,100,94.582
1572441299.904205,276348.000,48211,1,H0,1,100,94.586
1572441300.038229,276453.000,48246,1,H0,1,100,94.574
1572441300.170976,276557.000,48264,1,H0,1,100,94.574
1572441300.306276,276663.000,48282,1,H0,1,100,94.578
1572441300.440299,276768.000,48300,1,H0,1,100,94.578
1572441300.570493,276870.000,48318,1,H0,1,100,94.590
1572441300.704517,276975.000,48336,1,H0,1,100,94.582
1572441300.838541,277080.000,48354,1,H0,1,100,94.590
1572441300.971288,277184.000,48372,1,H0,1,100,94.582
1572441301.106588,277290.000,48394,2,H0,1,100,94.582
1572441301.241888,277396.000,48394,2,H0,1,100,94.582
1572441301.374635,277500.000,48413,1,H0,1,100,94.578
1572441301.507382,277604.000,48431,1,H0,1,100,94.594
1572441301.640129,277708.000,48449,1,H0,1,100,94.582
1572441301.772876,277812.000,48467,1,H0,1,100,94.590
1572441301.905623,277916.000,48485,1,H0,1,100,94.597
1572441302.039647,278021.000,48503,1,H0,1,100,94.594
1572441302.172181,278124.833,48522,6,H0,1,100,94.582
1572441302.304716,278228.667,48522,6,H0,1,100,94.597
1572441302.437250,278332.500,48522,6,H0,1,100,94.597
1572441302.569785,278436.333,48522,6,H0,1,100,94.590
1572441302.702319,278540.167,48522,6,H0,1,100,94.590
1572441302.834853,278644.000,48522,6,H0,1,100,94.590
1572441302.968664,278748.833,48540,12,H0,1,100,94.590
1572441303.102475,278853.667,48540,12,H0,1,100,94.586
1572441303.236286,278958.500,48540,12,H0,1,100,94.582
1572441303.370097,279063.333,48540,12,H0,1,100,94.590
1572441303.503907,279168.167,48540,12,H0,1,100,94.597
1572441303.637718,279273.000,48540,12,H0,1,100,94.601
1572441303.771529,279377.833,48540,12,H0,1,100,94.586
1572441303.905340,279482.667,48540,12,H0,1,100,94.590
1572441304.039151,279587.500,48540,12,H0,1,100,94.594
1572441304.172962,279692.333,48540,12,H0,1,100,94.597
1572441304.306772,279797.167,48540,12,H0,1,100,94.597
1572441304.440583,279902.000,48540,12,H0,1,100,94.590
1572441304.573075,280005.800,48560,10,H0,1,100,94.594
1572441304.705567,280109.600,48560,10,H0,1,100,94.590
1572441304.838059,280213.400,48560,10,H0,1,100,94.594
1572441304.970551,280317.200,48560,10,H0,1,100,94.586
1572441305.103043,280421.000,48560,10,H0,1,100,94.578
1572441305.235534,280524.800,48560,10,H0,1,100,94.594
1572441305.368026,280628.600,48560,10,H0,1,100,94.601
1572441305.500518,280732.400,48560,10,H0,1,100,94.590
1572441305.633010,280836.200,48560,10,H0,1,100,94.582
1572441305.765502,280940.000,48560,10,H0,1,100,94.586
1572441305.898978,281044.571,48580,14,H0,1,100,94.586
1572441306.032455,281149.143,48580,14,H0,1,100,94.594
1572441306.165931,281253.714,48580,14,H0,1,100,94.594
1572441306.299408,281358.286,48580,14,H0,1,100,94.586
1572441306.432884,281462.857,48580,14,H0,1,100,94.594
1572441306.566361,281567.429,48580,14,H0,1,100,94.597
1572441306.699837,281672.000,48580,14,H0,1,100,94.597
1572441306.833314,281776.571,48580,14,H0,1,100,94.586
1572441306.966790,281881.143,48580,14,H0,1,100,94.594
1572441307.100267,281985.714,48580,14,H0,1,100,94.594
1572441307.233743,282090.286,48580,14,H0,1,100,94.590
1572441307.367220,282194.857,48580,14,H0,1,100,94.601
1572441307.500696,282299.429,48580,14,H0,1,100,94.586
1572441307.634173,282404.000,48580,14,H0,1,100,94.582
1572441307.767159,282508.188,48603,16,H0,1,100,94.594
1572441307.900146,282612.375,48603,16,H0,1,100,94.597
1572441308.033133,282716.563,48603,16,H0,1,100,94.590
1572441308.166119,282820.750,48603,16,H0,1,100,94.597
1572441308.299105,282924.938,48603,16,H0,1,100,94.594
1572441308.432092,283029.125,48603,16,H0,1,100,94.594
1572441308.565078,283133.313,48603,16,H0,1,100,94.590
1572441308.698065,283237.500,48603,16,H0,1,100,94.590
1572441308.831051,283341.688,48603,16,H0,1,100,94.597
1572441308.964038,283445.875,48603,16,H0,1,100,94.594
1572441309.097024,283550.063,48603,16,H0,1,100,94.597
1572441309.230011,283654.250,48603,16,H0,1,100,94.594
1572441309.362997,283758.438,48603,16,H0,1,100,94.590
1572441309.495984,283862.625,48603,16,H0,1,100,94.590
1572441309.628970,283966.813,48603,16,H0,1,100,94.601
1572441309.761956,284071.000,48603,16,H0,1,100,94.597
1572441309.895489,284175.615,48624,13,H0,1,100,94.590
