EpochTimestamp,EmotiBitTimestamp,PacketNumber,DataLength,TypeTag,ProtocolVersion,DataReliability,MX
1572440326.908470,66153.000,10896,12,MX,1,100,-66
1572440326.908470,66153.000,10896,12,MX,1,100,-66
1572440326.908470,66153.000,10896,12,MX,1,100,-66
1572440326.908470,66153.000,10896,12,MX,1,100,-67
1572440326.908470,66153.000,10896,12,MX,1,100,-67
1572440326.908470,66153.000,10896,12,MX,1,100,-67
1572440326.908470,66153.000,10896,12,MX,1,100,-67
1572440326.908470,66153.000,10896,12,MX,1,100,-67
1572440326.908470,66153.000,10896,12,MX,1,100,-67
1572440326.908470,66153.000,10896,12,MX,1,100,-67
1572440326.908470,66153.000,10896,12,MX,1,100,-67
1572440326.908470,66153.000,10896,12,MX,1,100,-67
1572440326.924881,66165.857,10914,7,MX,1,100,-67
1572440326.941292,66178.714,10914,7,MX,1,100,-68
1572440326.957702,66191.571,10914,7,MX,1,100,-68
1572440326.974113,66204.429,10914,7,MX,1,100,-67
1572440326.990523,66217.286,10914,7,MX,1,100,-67
1572440327.006934,66230.143,10914,7,MX,1,100,-67
1572440327.023345,66243.000,10914,7,MX,1,100,-67
1572440327.039937,66256.000,10932,8,MX,1,100,-67
1572440327.056530,66269.000,10932,8,MX,1,100,-66
1572440327.073123,66282.000,10932,8,MX,1,100,-66
1572440327.089716,66295.000,10932,8,MX,1,100,-67
1572440327.106309,66308.000,10932,8,MX,1,100,-67
1572440327.122902,66321.000,10932,8,MX,1,100,-67
1572440327.139495,66334.000,10932,8,MX,1,100,-67
1572440327.156088,66347.000,10932,8,MX,1,100,-67
1572440327.172863,66360.143,10950,7,MX,1,100,-67
1572440327.189639,66373.286,10950,7,MX,1,100,-67
1572440327.206414,66386.429,10950,7,MX,1,100,-67
1572440327.223189,66399.571,10950,7,MX,1,100,-67
1572440327.239964,66412.714,10950,7,MX,1,100,-67
1572440327.256740,66425.857,10950,7,MX,1,100,-68
1572440327.273515,66439.000,10950,7,MX,1,100,-68
1572440327.290108,66452.000,10968,8,MX,1,100,-68
1572440327.306701,66465.000,10968,8,MX,1,100,-67
1572440327.323294,66478.000,10968,8,MX,1,100,-67
1572440327.339887,66491.000,10968,8,MX,1,100,-68
1572440327.356480,66504.000,10968,8,MX,1,100,-68
1572440327.373073,66517.000,10968,8,MX,1,100,-67
1572440327.389665,66530.000,10968,8,MX,1,100,-67
1572440327.406258,66543.000,10968,8,MX,1,100,-67
1572440327.422851,66556.000,10986,8,MX,1,100,-67
1572440327.439444,66569.000,10986,8,MX,1,100,-67
1572440327.456037,66582.000,10986,8,MX,1,100,-68
1572440327.472630,66595.000,10986,8,MX,1,100,-68
1572440327.489223,66608.000,10986,8,MX,1,100,-68
1572440327.505816,66621.000,10986,8,MX,1,100,-67
1572440327.522409,66634.000,10986,8,MX,1,100,-67
1572440327.539002,66647.000,10986,8,MX,1,100,-67
1572440327.555595,66660.000,11004,7,MX,1,100,-67
1572440327.572188,66673.000,11004,7,MX,1,100,-68
1572440327.588781,66686.000,11004,7,MX,1,100,-68
1572440327.605374,66699.000,11004,7,MX,1,100,-68
1572440327.621967,66712.000,11004,7,MX,1,100,-67
1572440327.638560,66725.000,11004,7,MX,1,100,-67
1572440327.655153,66738.000,11004,7,MX,1,100,-67
1572440327.672065,66751.250,11022,8,MX,1,100,-67
1572440327.688977,66764.500,11022,8,MX,1,100,-67
1572440327.705889,66777.750,11022,8,MX,1,100,-67
1572440327.722800,66791.000,11022,8,MX,1,100,-67
1572440327.739713,66804.250,11022,8,MX,1,100,-67
1572440327.756625,66817.500,11022,8,MX,1,100,-67
1572440327.773537,66830.750,11022,8,MX,1,100,-67
1572440327.790449,66844.000,11022,8,MX,1,100,-67
1572440327.807201,66857.125,11039,8,MX,1,100,-67
1572440327.823954,66870.250,11039,8,MX,1,100,-66
1572440327.840706,66883.375,11039,8,MX,1,100,-66
1572440327.857459,66896.500,11039,8,MX,1,100,-66
1572440327.874211,66909.625,11039,8,MX,1,100,-67
1572440327.890964,66922.750,11039,8,MX,1,100,-67
1572440327.907716,66935.875,11039,8,MX,1,100,-69
1572440327.924469,66949.000,11039,8,MX,1,100,-69
1572440327.941609,66962.429,11057,7,MX,1,100,-68
1572440327.958749,66975.857,11057,7,MX,1,100,-68
1572440327.975888,66989.286,11057,7,MX,1,100,-68
1572440327.993028,67002.714,11057,7,MX,1,100,-67
1572440328.010168,67016.143,11057,7,MX,1,100,-67
1572440328.027308,67029.571,11057,7,MX,1,100,-68
1572440328.044448,67043.000,11057,7,MX,1,100,-68
1572440328.061360,67056.250,11075,8,MX,1,100,-68
1572440328.078272,67069.500,11075,8,MX,1,100,-67
1572440328.095184,67082.750,11075,8,MX,1,100,-67
1572440328.112097,67096.000,11075,8,MX,1,100,-67
1572440328.129009,67109.250,11075,8,MX,1,100,-67
1572440328.145921,67122.500,11075,8,MX,1,100,-67
1572440328.162832,67135.750,11075,8,MX,1,100,-67
1572440328.179744,67149.000,11075,8,MX,1,100,-67
1572440328.196178,67161.875,11093,8,MX,1,100,-67
1572440328.212611,67174.750,11093,8,MX,1,100,-67
1572440328.229045,67187.625,11093,8,MX,1,100,-67
1572440328.245478,67200.500,11093,8,MX,1,100,-67
1572440328.261912,67213.375,11093,8,MX,1,100,-67
1572440328.278345,67226.250,11093,8,MX,1,100,-67
1572440328.294778,67239.125,11093,8,MX,1,100,-67
1572440328.311212,67252.000,11093,8,MX,1,100,-68
1572440328.327964,67265.125,11111,8,MX,1,100,-68
1572440328.344717,67278.250,11111,8,MX,1,100,-68
1572440328.361469,67291.375,11111,8,MX,1,100,-67
1572440328.378222,67304.500,11111,8,MX,1,100,-67
1572440328.394974,67317.625,11111,8,MX,1,100,-68
1572440328.411727,67330.750,11111,8,MX,1,100,-68
1572440328.428479,67343.875,11111,8,MX,1,100,-67
1572440328.445232,67357.000,11111,8,MX,1,100,-67
1572440328.461824,67370.000,11129,7,MX,1,100,-67
1572440328.478417,67383.000,11129,7,MX,1,100,-68
1572440328.495010,67396.000,11129,7,MX,1,100,-68
1572440328.511603,67409.000,11129,7,MX,1,100,-69
1572440328.528196,67422.000,11129,7,MX,1,100,-69
1572440328.544789,67435.000,11129,7,MX,1,100,-69
1572440328.561382,67448.000,11129,7,MX,1,100,-69
1572440328.578135,67461.125,11147,8,MX,1,100,-69
1572440328.594887,67474.250,11147,8,MX,1,100,-68
1572440328.611639,67487.375,11147,8,MX,1,100,-68
1572440328.628392,67500.500,11147,8,MX,1,100,-68
1572440328.645144,67513.625,11147,8,MX,1,100,-68
1572440328.661897,67526.750,11147,8,MX,1,100,-68
1572440328.678649,67539.875,11147,8,MX,1,100,-68
1572440328.695402,67553.000,11147,8,MX,1,100,-68
1572440328.711995,67566.000,11165,8,MX,1,100,-69
1572440328.728588,67579.000,11165,8,MX,1,100,-69
1572440328.745181,67592.000,11165,8,MX,1,100,-69
1572440328.761774,67605.000,11165,8,MX,1,100,-70
1572440328.778367,67618.000,11165,8,MX,1,100,-70
1572440328.794960,67631.000,11165,8,MX,1,100,-69
1572440328.811553,67644.000,11165,8,MX,1,100,-69
1572440328.828146,67657.000,11165,8,MX,1,100,-69
1572440328.844921,67670.143,11184,7,MX,1,100,-68
1572440328.861696,67683.286,11184,7,MX,1,100,-68
1572440328.878471,67696.429,11184,7,MX,1,100,-68
1572440328.895247,67709.571,11184,7,MX,1,100,-68
1572440328.912022,67722.714,11184,7,MX,1,100,-68
1572440328.928797,67735.857,11184,7,MX,1,100,-68
1572440328.945572,67749.000,11184,7,MX,1,100,-68
1572440328.962485,67762.250,11202,8,MX,1,100,-68
1572440328.979397,67775.500,11202,8,MX,1,100,-68
1572440328.996309,67788.750,11202,8,MX,1,100,-69
1572440329.013221,67802.000,11202,8,MX,1,100,-69
1572440329.030133,67815.250,11202,8,MX,1,100,-69
1572440329.047045,67828.500,11202,8,MX,1,100,-69
1572440329.063957,67841.750,11202,8,MX,1,100,-69
1572440329.080869,67855.000,11202,8,MX,1,100,-69
1572440329.097462,67868.000,11220,8,MX,1,100,-69
1572440329.114055,67881.000,11220,8,MX,1,100,-69
1572440329.130648,67894.000,11220,8,MX,1,100,-68
1572440329.147240,67907.000,11220,8,MX,1,100,-68
1572440329.163833,67920.000,11220,8,MX,1,100,-68
1572440329.180426,67933.000,11220,8,MX,1,100,-68
1572440329.197019,67946.000,11220,8,MX,1,100,-68
1572440329.213612,67959.000,11220,8,MX,1,100,-69
1572440329.229886,67971.750,11238,8,MX,1,100,-69
1572440329.246160,67984.500,11238,8,MX,1,100,-69
1572440329.262434,67997.250,11238,8,MX,1,100,-69
1572440329.278708,68010.000,11238,8,MX,1,100,-67
1572440329.294981,68022.750,11238,8,MX,1,100,-67
1572440329.311255,68035.500,11238,8,MX,1,100,-67
1572440329.327529,68048.250,11238,8,MX,1,100,-68
1572440329.343803,68061.000,11238,8,MX,1,100,-68
1572440329.360396,68074.000,11256,8,MX,1,100,-68
1572440329.376989,68087.000,11256,8,MX,1,100,-68
1572440329.393582,68100.000,11256,8,MX,1,100,-68
1572440329.410175,68113.000,11256,8,MX,1,100,-69
1572440329.426768,68126.000,11256,8,MX,1,100,-69
1572440329.443361,68139.000,11256,8,MX,1,100,-68
1572440329.459954,68152.000,11256,8,MX,1,100,-68
1572440329.476547,68165.000,11256,8,MX,1,100,-67
1572440329.492775,68177.714,11274,7,MX,1,100,-67
1572440329.509003,68190.429,11274,7,MX,1,100,-67
1572440329.525231,68203.143,11274,7,MX,1,100,-66
1572440329.541460,68215.857,11274,7,MX,1,100,-66
1572440329.557688,68228.571,11274,7,MX,1,100,-66
1572440329.573916,68241.286,11274,7,MX,1,100,-66
1572440329.590144,68254.000,11274,7,MX,1,100,-66
1572440329.607056,68267.250,11292,8,MX,1,100,-67
1572440329.623968,68280.500,11292,8,MX,1,100,-67
1572440329.640880,68293.750,11292,8,MX,1,100,-68
1572440329.657792,68307.000,11292,8,MX,1,100,-68
1572440329.674705,68320.250,11292,8,MX,1,100,-68
1572440329.691617,68333.500,11292,8,MX,1,100,-66
1572440329.708529,68346.750,11292,8,MX,1,100,-66
1572440329.725441,68360.000,11292,8,MX,1,100,-61
1572440329.741874,68372.875,11310,8,MX,1,100,-61
1572440329.758307,68385.750,11310,8,MX,1,100,-61
1572440329.774741,68398.625,11310,8,MX,1,100,-65
1572440329.791174,68411.500,11310,8,MX,1,100,-65
1572440329.807607,68424.375,11310,8,MX,1,100,-64
1572440329.824041,68437.250,11310,8,MX,1,100,-64
1572440329.840474,68450.125,11310,8,MX,1,100,-65
1572440329.856908,68463.000,11310,8,MX,1,100,-65
1572440329.873501,68476.000,11329,8,MX,1,100,-65
1572440329.890094,68489.000,11329,8,MX,1,100,-66
1572440329.906687,68502.000,11329,8,MX,1,100,-66
1572440329.923280,68515.000,11329,8,MX,1,100,-65
1572440329.939872,68528.000,11329,8,MX,1,100,-65
1572440329.956465,68541.000,11329,8,MX,1,100,-65
1572440329.973058,68554.000,11329,8,MX,1,100,-64
1572440329.989651,68567.000,11329,8,MX,1,100,-64
1572440330.006563,68580.250,11347,8,MX,1,100,-64
1572440330.023475,68593.500,11347,8,MX,1,100,-64
1572440330.040387,68606.750,11347,8,MX,1,100,-64
1572440330.057299,68620.000,11347,8,MX,1,100,-64
1572440330.074211,68633.250,11347,8,MX,1,100,-64
1572440330.091123,68646.500,11347,8,MX,1,100,-63
1572440330.108035,68659.750,11347,8,MX,1,100,-63
1572440330.124947,68673.000,11347,8,MX,1,100,-65
1572440330.141723,68686.143,11366,7,MX,1,100,-65
1572440330.158498,68699.286,11366,7,MX,1,100,-65
1572440330.175273,68712.429,11366,7,MX,1,100,-64
1572440330.192049,68725.571,11366,7,MX,1,100,-64
1572440330.208824,68738.714,11366,7,MX,1,100,-64
1572440330.225599,68751.857,11366,7,MX,1,100,-64
1572440330.242374,68765.000,11366,7,MX,1,100,-64
1572440330.258808,68777.875,11384,8,MX,1,100,-64
1572440330.275241,68790.750,11384,8,MX,1,100,-64
1572440330.291675,68803.625,11384,8,MX,1,100,-63
1572440330.308108,68816.500,11384,8,MX,1,100,-63
1572440330.324541,68829.375,11384,8,MX,1,100,-63
1572440330.340975,68842.250,11384,8,MX,1,100,-63
1572440330.357408,68855.125,11384,8,MX,1,100,-63
1572440330.373842,68868.000,11384,8,MX,1,100,-63
1572440330.390435,68881.000,11402,8,MX,1,100,-63
1572440330.407027,68894.000,11402,8,MX,1,100,-64
1572440330.423620,68907.000,11402,8,MX,1,100,-64
1572440330.440213,68920.000,11402,8,MX,1,100,-64
1572440330.456806,68933.000,11402,8,MX,1,100,-66
1572440330.473399,68946.000,11402,8,MX,1,100,-66
1572440330.489992,68959.000,11402,8,MX,1,100,-67
1572440330.506585,68972.000,11402,8,MX,1,100,-67
1572440330.523337,68985.125,11420,8,MX,1,100,-67
1572440330.540090,68998.250,11420,8,MX,1,100,-67
1572440330.556842,69011.375,11420,8,MX,1,100,-67
1572440330.573595,69024.500,11420,8,MX,1,100,-67
1572440330.590347,69037.625,11420,8,MX,1,100,-67
1572440330.607100,69050.750,11420,8,MX,1,100,-65
1572440330.623852,69063.875,11420,8,MX,1,100,-65
1572440330.640605,69077.000,11420,8,MX,1,100,-65
1572440330.657198,69090.000,11438,7,MX,1,100,-64
1572440330.673791,69103.000,11438,7,MX,1,100,-64
1572440330.690384,69116.000,11438,7,MX,1,100,-61
1572440330.706977,69129.000,11438,7,MX,1,100,-61
1572440330.723570,69142.000,11438,7,MX,1,100,-61
1572440330.740162,69155.000,11438,7,MX,1,100,-59
1572440330.756755,69168.000,11438,7,MX,1,100,-59
1572440330.773508,69181.125,11456,8,MX,1,100,-55
1572440330.790260,69194.250,11456,8,MX,1,100,-55
1572440330.807013,69207.375,11456,8,MX,1,100,-55
1572440330.823765,69220.500,11456,8,MX,1,100,-54
1572440330.840518,69233.625,11456,8,MX,1,100,-54
1572440330.857270,69246.750,11456,8,MX,1,100,-51
1572440330.874023,69259.875,11456,8,MX,1,100,-51
1572440330.890775,69273.000,11456,8,MX,1,100,-53
1572440330.907733,69286.286,11474,7,MX,1,100,-53
1572440330.924690,69299.571,11474,7,MX,1,100,-53
1572440330.941648,69312.857,11474,7,MX,1,100,-54
1572440330.958606,69326.143,11474,7,MX,1,100,-54
1572440330.975563,69339.429,11474,7,MX,1,100,-54
1572440330.992521,69352.714,11474,7,MX,1,100,-54
1572440331.009479,69366.000,11474,7,MX,1,100,-54
1572440331.026231,69379.125,11492,8,MX,1,100,-53
1572440331.042984,69392.250,11492,8,MX,1,100,-53
1572440331.059736,69405.375,11492,8,MX,1,100,-56
1572440331.076488,69418.500,11492,8,MX,1,100,-56
1572440331.093241,69431.625,11492,8,MX,1,100,-56
1572440331.109993,69444.750,11492,8,MX,1,100,-56
1572440331.126746,69457.875,11492,8,MX,1,100,-56
1572440331.143498,69471.000,11492,8,MX,1,100,-56
1572440331.160091,69484.000,11510,8,MX,1,100,-56
1572440331.176684,69497.000,11510,8,MX,1,100,-58
1572440331.193277,69510.000,11510,8,MX,1,100,-58
1572440331.209870,69523.000,11510,8,MX,1,100,-58
1572440331.226463,69536.000,11510,8,MX,1,100,-57
1572440331.243056,69549.000,11510,8,MX,1,100,-57
1572440331.259649,69562.000,11510,8,MX,1,100,-58
1572440331.276242,69575.000,11510,8,MX,1,100,-58
1572440331.292835,69588.000,11528,7,MX,1,100,-58
1572440331.309428,69601.000,11528,7,MX,1,100,-57
1572440331.326021,69614.000,11528,7,MX,1,100,-57
1572440331.342614,69627.000,11528,7,MX,1,100,-58
1572440331.359207,69640.000,11528,7,MX,1,100,-58
1572440331.375800,69653.000,11528,7,MX,1,100,-58
1572440331.392393,69666.000,11528,7,MX,1,100,-58
1572440331.409145,69679.125,11546,8,MX,1,100,-58
1572440331.425898,69692.250,11546,8,MX,1,100,-57
1572440331.442650,69705.375,11546,8,MX,1,100,-57
1572440331.459403,69718.500,11546,8,MX,1,100,-56
1572440331.476155,69731.625,11546,8,MX,1,100,-56
1572440331.492908,69744.750,11546,8,MX,1,100,-56
1572440331.509660,69757.875,11546,8,MX,1,100,-58
1572440331.526412,69771.000,11546,8,MX,1,100,-58
1572440331.542846,69783.875,11564,8,MX,1,100,-57
1572440331.559279,69796.750,11564,8,MX,1,100,-57
1572440331.575713,69809.625,11564,8,MX,1,100,-57
1572440331.592146,69822.500,11564,8,MX,1,100,-56
1572440331.608579,69835.375,11564,8,MX,1,100,-56
1572440331.625013,69848.250,11564,8,MX,1,100,-55
1572440331.641446,69861.125,11564,8,MX,1,100,-55
1572440331.657880,69874.000,11564,8,MX,1,100,-55
1572440331.674792,69887.250,11580,8,MX,1,100,-56
1572440331.691704,69900.500,11580,8,MX,1,100,-56
1572440331.708616,69913.750,11580,8,MX,1,100,-56
1572440331.725528,69927.000,11580,8,MX,1,100,-56
1572440331.742440,69940.250,11580,8,MX,1,100,-56
1572440331.759352,69953.500,11580,8,MX,1,100,-56
1572440331.776264,69966.750,11580,8,MX,1,100,-56
1572440331.793176,69980.000,11580,8,MX,1,100,-57
1572440331.809928,69993.125,11598,8,MX,1,100,-57
1572440331.826681,70006.250,11598,8,MX,1,100,-55
1572440331.843433,70019.375,11598,8,MX,1,100,-55
1572440331.860186,70032.500,11598,8,MX,1,100,-55
1572440331.876938,70045.625,11598,8,MX,1,100,-56
1572440331.893691,70058.750,11598,8,MX,1,100,-56
1572440331.910443,70071.875,11598,8,MX,1,100,-57
1572440331.927196,70085.000,11598,8,MX,1,100,-57
1572440331.943971,70098.143,11617,7,MX,1,100,-57
1572440331.960746,70111.286,11617,7,MX,1,100,-57
1572440331.977522,70124.429,11617,7,MX,1,100,-57
1572440331.994297,70137.571,11617,7,MX,1,100,-57
1572440332.011072,70150.714,11617,7,MX,1,100,-57
1572440332.027847,70163.857,11617,7,MX,1,100,-57
1572440332.044623,70177.000,11617,7,MX,1,100,-57
1572440332.061535,70190.250,11635,8,MX,1,100,-57
1572440332.078447,70203.500,11635,8,MX,1,100,-59
1572440332.095359,70216.750,11635,8,MX,1,100,-59
1572440332.112271,70230.000,11635,8,MX,1,100,-59
1572440332.129183,70243.250,11635,8,MX,1,100,-59
1572440332.146095,70256.500,11635,8,MX,1,100,-59
1572440332.163007,70269.750,11635,8,MX,1,100,-60
1572440332.179919,70283.000,11635,8,MX,1,100,-60
1572440332.196352,70295.875,11653,8,MX,1,100,-60
1572440332.212786,70308.750,11653,8,MX,1,100,-60
1572440332.229219,70321.625,11653,8,MX,1,100,-58
1572440332.245652,70334.500,11653,8,MX,1,100,-58
1572440332.262086,70347.375,11653,8,MX,1,100,-58
1572440332.278519,70360.250,11653,8,MX,1,100,-59
1572440332.294953,70373.125,11653,8,MX,1,100,-59
1572440332.311386,70386.000,11653,8,MX,1,100,-59
1572440332.327819,70398.875,11671,8,MX,1,100,-59
1572440332.344253,70411.750,11671,8,MX,1,100,-59
1572440332.360686,70424.625,11671,8,MX,1,100,-60
1572440332.377120,70437.500,11671,8,MX,1,100,-60
1572440332.393553,70450.375,11671,8,MX,1,100,-58
1572440332.409986,70463.250,11671,8,MX,1,100,-58
1572440332.426420,70476.125,11671,8,MX,1,100,-58
1572440332.442853,70489.000,11671,8,MX,1,100,-60
1572440332.459264,70501.857,11689,7,MX,1,100,-60
1572440332.475674,70514.714,11689,7,MX,1,100,-59
1572440332.492085,70527.571,11689,7,MX,1,100,-59
1572440332.508496,70540.429,11689,7,MX,1,100,-59
1572440332.524906,70553.286,11689,7,MX,1,100,-59
1572440332.541317,70566.143,11689,7,MX,1,100,-59
1572440332.557727,70579.000,11689,7,MX,1,100,-60
1572440332.574320,70592.000,11707,8,MX,1,100,-60
1572440332.590913,70605.000,11707,8,MX,1,100,-60
1572440332.607506,70618.000,11707,8,MX,1,100,-60
1572440332.624099,70631.000,11707,8,MX,1,100,-60
1572440332.640692,70644.000,11707,8,MX,1,100,-60
1572440332.657285,70657.000,11707,8,MX,1,100,-60
1572440332.673878,70670.000,11707,8,MX,1,100,-61
1572440332.690471,70683.000,11707,8,MX,1,100,-61
1572440332.706904,70695.875,11725,8,MX,1,100,-59
1572440332.723338,70708.750,11725,8,MX,1,100,-59
1572440332.739771,70721.625,11725,8,MX,1,100,-59
1572440332.756204,70734.500,11725,8,MX,1,100,-60
1572440332.772638,70747.375,11725,8,MX,1,100,-60
1572440332.789071,70760.250,11725,8,MX,1,100,-59
1572440332.805505,70773.125,11725,8,MX,1,100,-59
1572440332.821938,70786.000,11725,8,MX,1,100,-59
1572440332.838691,70799.125,11743,8,MX,1,100,-60
1572440332.855443,70812.250,11743,8,MX,1,100,-60
1572440332.872195,70825.375,11743,8,MX,1,100,-61
1572440332.888948,70838.500,11743,8,MX,1,100,-61
1572440332.905700,70851.625,11743,8,MX,1,100,-61
1572440332.922453,70864.750,11743,8,MX,1,100,-60
1572440332.939205,70877.875,11743,8,MX,1,100,-60
1572440332.955958,70891.000,11743,8,MX,1,100,-60
1572440332.972733,70904.143,11762,7,MX,1,100,-60
1572440332.989508,70917.286,11762,7,MX,1,100,-60
1572440333.006284,70930.429,11762,7,MX,1,100,-61
1572440333.023059,70943.571,11762,7,MX,1,100,-61
1572440333.039834,70956.714,11762,7,MX,1,100,-61
1572440333.056609,70969.857,11762,7,MX,1,100,-61
1572440333.073385,70983.000,11762,7,MX,1,100,-62
1572440333.090137,70996.125,11780,8,MX,1,100,-62
1572440333.106890,71009.250,11780,8,MX,1,100,-62
1572440333.123642,71022.375,11780,8,MX,1,100,-61
1572440333.140395,71035.500,11780,8,MX,1,100,-61
1572440333.157147,71048.625,11780,8,MX,1,100,-61
1572440333.173900,71061.750,11780,8,MX,1,100,-61
1572440333.190652,71074.875,11780,8,MX,1,100,-61
1572440333.207405,71088.000,11780,8,MX,1,100,-62
1572440333.224089,71101.071,11801,14,MX,1,100,-62
1572440333.240773,71114.143,11801,14,MX,1,100,-61
1572440333.257457,71127.214,11801,14,MX,1,100,-61
1572440333.274141,71140.286,11801,14,MX,1,100,-61
1572440333.290825,71153.357,11801,14,MX,1,100,-61
1572440333.307509,71166.429,11801,14,MX,1,100,-61
1572440333.324193,71179.500,11801,14,MX,1,100,-62
1572440333.340878,71192.571,11801,14,MX,1,100,-62
1572440333.357562,71205.643,11801,14,MX,1,100,-62
1572440333.374246,71218.714,11801,14,MX,1,100,-62
1572440333.390930,71231.786,11801,14,MX,1,100,-62
1572440333.407614,71244.857,11801,14,MX,1,100,-62
1572440333.424298,71257.929,11801,14,MX,1,100,-62
1572440333.440982,71271.000,11801,14,MX,1,100,-62
1572440333.457150,71283.667,11820,6,MX,1,100,-62
1572440333.473317,71296.333,11820,6,MX,1,100,-62
1572440333.489485,71309.000,11820,6,MX,1,100,-63
1572440333.505652,71321.667,11820,6,MX,1,100,-63
1572440333.521820,71334.333,11820,6,MX,1,100,-61
1572440333.537987,71347.000,11820,6,MX,1,100,-61
1572440333.554739,71360.125,11838,8,MX,1,100,-61
1572440333.571492,71373.250,11838,8,MX,1,100,-61
1572440333.588244,71386.375,11838,8,MX,1,100,-61
1572440333.604997,71399.500,11838,8,MX,1,100,-61
1572440333.621749,71412.625,11838,8,MX,1,100,-61
1572440333.638502,71425.750,11838,8,MX,1,100,-62
1572440333.655254,71438.875,11838,8,MX,1,100,-62
1572440333.672007,71452.000,11838,8,MX,1,100,-62
1572440333.688759,71465.125,11856,8,MX,1,100,-63
1572440333.705512,71478.250,11856,8,MX,1,100,-63
1572440333.722264,71491.375,11856,8,MX,1,100,-62
1572440333.739017,71504.500,11856,8,MX,1,100,-62
1572440333.755769,71517.625,11856,8,MX,1,100,-62
1572440333.772522,71530.750,11856,8,MX,1,100,-62
1572440333.789274,71543.875,11856,8,MX,1,100,-62
1572440333.806027,71557.000,11856,8,MX,1,100,-62
1572440333.822779,71570.125,11874,8,MX,1,100,-62
1572440333.839532,71583.250,11874,8,MX,1,100,-61
1572440333.856284,71596.375,11874,8,MX,1,100,-61
1572440333.873037,71609.500,11874,8,MX,1,100,-61
1572440333.889789,71622.625,11874,8,MX,1,100,-61
1572440333.906542,71635.750,11874,8,MX,1,100,-61
1572440333.923294,71648.875,11874,8,MX,1,100,-61
1572440333.940047,71662.000,11874,8,MX,1,100,-61
1572440333.956640,71675.000,11893,7,MX,1,100,-61
1572440333.973233,71688.000,11893,7,MX,1,100,-61
1572440333.989825,71701.000,11893,7,MX,1,100,-61
1572440334.006418,71714.000,11893,7,MX,1,100,-61
1572440334.023011,71727.000,11893,7,MX,1,100,-61
1572440334.039604,71740.000,11893,7,MX,1,100,-61
1572440334.056197,71753.000,11893,7,MX,1,100,-61
1572440334.073109,71766.250,11910,8,MX,1,100,-61
1572440334.090021,71779.500,11910,8,MX,1,100,-61
1572440334.106933,71792.750,11910,8,MX,1,100,-61
1572440334.123845,71806.000,11910,8,MX,1,100,-61
1572440334.140757,71819.250,11910,8,MX,1,100,-61
1572440334.157670,71832.500,11910,8,MX,1,100,-61
1572440334.174582,71845.750,11910,8,MX,1,100,-61
1572440334.191494,71859.000,11910,8,MX,1,100,-61
1572440334.208405,71872.250,11927,8,MX,1,100,-62
1572440334.225317,71885.500,11927,8,MX,1,100,-62
1572440334.242230,71898.750,11927,8,MX,1,100,-62
1572440334.259142,71912.000,11927,8,MX,1,100,-61
1572440334.276054,71925.250,11927,8,MX,1,100,-61
1572440334.292966,71938.500,11927,8,MX,1,100,-61
1572440334.309878,71951.750,11927,8,MX,1,100,-61
1572440334.326790,71965.000,11927,8,MX,1,100,-61
1572440334.343565,71978.143,11945,7,MX,1,100,-62
1572440334.360340,71991.286,11945,7,MX,1,100,-62
1572440334.377115,72004.429,11945,7,MX,1,100,-62
1572440334.393891,72017.571,11945,7,MX,1,100,-62
1572440334.410666,72030.714,11945,7,MX,1,100,-61
1572440334.427441,72043.857,11945,7,MX,1,100,-61
1572440334.444217,72057.000,11945,7,MX,1,100,-61
1572440334.461129,72070.250,11963,8,MX,1,100,-61
1572440334.478041,72083.500,11963,8,MX,1,100,-61
1572440334.494953,72096.750,11963,8,MX,1,100,-62
1572440334.511865,72110.000,11963,8,MX,1,100,-62
1572440334.528777,72123.250,11963,8,MX,1,100,-62
1572440334.545689,72136.500,11963,8,MX,1,100,-62
1572440334.562601,72149.750,11963,8,MX,1,100,-62
1572440334.579513,72163.000,11963,8,MX,1,100,-61
1572440334.595946,72175.875,11981,8,MX,1,100,-61
1572440334.612380,72188.750,11981,8,MX,1,100,-61
1572440334.628813,72201.625,11981,8,MX,1,100,-63
1572440334.645247,72214.500,11981,8,MX,1,100,-63
1572440334.661680,72227.375,11981,8,MX,1,100,-62
1572440334.678113,72240.250,11981,8,MX,1,100,-62
1572440334.694547,72253.125,11981,8,MX,1,100,-61
1572440334.710980,72266.000,11981,8,MX,1,100,-61
1572440334.727573,72279.000,11999,7,MX,1,100,-61
1572440334.744166,72292.000,11999,7,MX,1,100,-62
1572440334.760759,72305.000,11999,7,MX,1,100,-62
1572440334.777352,72318.000,11999,7,MX,1,100,-61
1572440334.793945,72331.000,11999,7,MX,1,100,-61
1572440334.810538,72344.000,11999,7,MX,1,100,-61
1572440334.827131,72357.000,11999,7,MX,1,100,-62
1572440334.843883,72370.125,12017,8,MX,1,100,-62
1572440334.860636,72383.250,12017,8,MX,1,100,-61
1572440334.877388,72396.375,12017,8,MX,1,100,-61
1572440334.894140,72409.500,12017,8,MX,1,100,-61
1572440334.910893,72422.625,12017,8,MX,1,100,-61
1572440334.927645,72435.750,12017,8,MX,1,100,-61
1572440334.944398,72448.875,12017,8,MX,1,100,-61
1572440334.961151,72462.000,12017,8,MX,1,100,-61
1572440334.977903,72475.125,12036,8,MX,1,100,-62
1572440334.994656,72488.250,12036,8,MX,1,100,-62
1572440335.011408,72501.375,12036,8,MX,1,100,-62
1572440335.028161,72514.500,12036,8,MX,1,100,-63
1572440335.044913,72527.625,12036,8,MX,1,100,-63
1572440335.061666,72540.750,12036,8,MX,1,100,-62
1572440335.078418,72553.875,12036,8,MX,1,100,-62
1572440335.095170,72567.000,12036,8,MX,1,100,-62
1572440335.111763,72580.000,12054,8,MX,1,100,-63
1572440335.128356,72593.000,12054,8,MX,1,100,-63
1572440335.144949,72606.000,12054,8,MX,1,100,-62
1572440335.161542,72619.000,12054,8,MX,1,100,-62
1572440335.178135,72632.000,12054,8,MX,1,100,-61
1572440335.194728,72645.000,12054,8,MX,1,100,-61
1572440335.211321,72658.000,12054,8,MX,1,100,-61
1572440335.227914,72671.000,12054,8,MX,1,100,-63
1572440335.244689,72684.143,12072,7,MX,1,100,-63
1572440335.261464,72697.286,12072,7,MX,1,100,-61
1572440335.278240,72710.429,12072,7,MX,1,100,-61
1572440335.295015,72723.571,12072,7,MX,1,100,-61
1572440335.311790,72736.714,12072,7,MX,1,100,-62
1572440335.328566,72749.857,12072,7,MX,1,100,-62
1572440335.345341,72763.000,12072,7,MX,1,100,-62
1572440335.361934,72776.000,12090,8,MX,1,100,-62
1572440335.378527,72789.000,12090,8,MX,1,100,-62
1572440335.395120,72802.000,12090,8,MX,1,100,-63
1572440335.411713,72815.000,12090,8,MX,1,100,-63
1572440335.428306,72828.000,12090,8,MX,1,100,-60
1572440335.444898,72841.000,12090,8,MX,1,100,-60
1572440335.461491,72854.000,12090,8,MX,1,100,-60
1572440335.478084,72867.000,12090,8,MX,1,100,-61
1572440335.494677,72880.000,12108,8,MX,1,100,-61
1572440335.511270,72893.000,12108,8,MX,1,100,-63
1572440335.527863,72906.000,12108,8,MX,1,100,-63
1572440335.544456,72919.000,12108,8,MX,1,100,-62
1572440335.561049,72932.000,12108,8,MX,1,100,-62
1572440335.577642,72945.000,12108,8,MX,1,100,-62
1572440335.594235,72958.000,12108,8,MX,1,100,-62
1572440335.610828,72971.000,12108,8,MX,1,100,-62
1572440335.627102,72983.750,12126,8,MX,1,100,-62
1572440335.643376,72996.500,12126,8,MX,1,100,-62
1572440335.659649,73009.250,12126,8,MX,1,100,-62
1572440335.675923,73022.000,12126,8,MX,1,100,-63
1572440335.692197,73034.750,12126,8,MX,1,100,-63
1572440335.708471,73047.500,12126,8,MX,1,100,-62
1572440335.724745,73060.250,12126,8,MX,1,100,-62
1572440335.741019,73073.000,12126,8,MX,1,100,-62
1572440335.757612,73086.000,12144,8,MX,1,100,-62
1572440335.774204,73099.000,12144,8,MX,1,100,-62
1572440335.790797,73112.000,12144,8,MX,1,100,-63
1572440335.807390,73125.000,12144,8,MX,1,100,-63
1572440335.823983,73138.000,12144,8,MX,1,100,-63
1572440335.840576,73151.000,12144,8,MX,1,100,-63
1572440335.857169,73164.000,12144,8,MX,1,100,-63
1572440335.873762,73177.000,12144,8,MX,1,100,-63
1572440335.890173,73189.857,12162,7,MX,1,100,-63
1572440335.906583,73202.714,12162,7,MX,1,100,-62
1572440335.922994,73215.571,12162,7,MX,1,100,-62
1572440335.939404,73228.429,12162,7,MX,1,100,-62
1572440335.955815,73241.286,12162,7,MX,1,100,-63
1572440335.972226,73254.143,12162,7,MX,1,100,-63
1572440335.988636,73267.000,12162,7,MX,1,100,-63
1572440336.005548,73280.250,12181,8,MX,1,100,-63
1572440336.022460,73293.500,12181,8,MX,1,100,-63
1572440336.039372,73306.750,12181,8,MX,1,100,-63
1572440336.056284,73320.000,12181,8,MX,1,100,-63
1572440336.073196,73333.250,12181,8,MX,1,100,-63
1572440336.090108,73346.500,12181,8,MX,1,100,-63
1572440336.107021,73359.750,12181,8,MX,1,100,-64
1572440336.123933,73373.000,12181,8,MX,1,100,-64
1572440336.140526,73386.000,12199,8,MX,1,100,-64
1572440336.157118,73399.000,12199,8,MX,1,100,-62
1572440336.173711,73412.000,12199,8,MX,1,100,-62
1572440336.190304,73425.000,12199,8,MX,1,100,-63
1572440336.206897,73438.000,12199,8,MX,1,100,-63
1572440336.223490,73451.000,12199,8,MX,1,100,-63
1572440336.240083,73464.000,12199,8,MX,1,100,-63
1572440336.256676,73477.000,12199,8,MX,1,100,-63
1572440336.273634,73490.286,12217,7,MX,1,100,-63
1572440336.290591,73503.571,12217,7,MX,1,100,-63
1572440336.307549,73516.857,12217,7,MX,1,100,-63
1572440336.324507,73530.143,12217,7,MX,1,100,-63
1572440336.341464,73543.429,12217,7,MX,1,100,-63
1572440336.358422,73556.714,12217,7,MX,1,100,-62
1572440336.375379,73570.000,12217,7,MX,1,100,-62
1572440336.391972,73583.000,12235,8,MX,1,100,-63
1572440336.408565,73596.000,12235,8,MX,1,100,-63
1572440336.425158,73609.000,12235,8,MX,1,100,-63
1572440336.441751,73622.000,12235,8,MX,1,100,-61
1572440336.458344,73635.000,12235,8,MX,1,100,-61
1572440336.474937,73648.000,12235,8,MX,1,100,-62
1572440336.491530,73661.000,12235,8,MX,1,100,-62
1572440336.508123,73674.000,12235,8,MX,1,100,-62
1572440336.524875,73687.125,12253,8,MX,1,100,-63
1572440336.541628,73700.250,12253,8,MX,1,100,-63
1572440336.558380,73713.375,12253,8,MX,1,100,-63
1572440336.575133,73726.500,12253,8,MX,1,100,-63
1572440336.591885,73739.625,12253,8,MX,1,100,-63
1572440336.608638,73752.750,12253,8,MX,1,100,-63
1572440336.625390,73765.875,12253,8,MX,1,100,-63
1572440336.642143,73779.000,12253,8,MX,1,100,-63
1572440336.658576,73791.875,12271,8,MX,1,100,-63
1572440336.675009,73804.750,12271,8,MX,1,100,-63
1572440336.691443,73817.625,12271,8,MX,1,100,-63
1572440336.707876,73830.500,12271,8,MX,1,100,-63
1572440336.724310,73843.375,12271,8,MX,1,100,-63
1572440336.740743,73856.250,12271,8,MX,1,100,-63
1572440336.757176,73869.125,12271,8,MX,1,100,-63
1572440336.773610,73882.000,12271,8,MX,1,100,-63
1572440336.790203,73895.000,12289,7,MX,1,100,-63
1572440336.806796,73908.000,12289,7,MX,1,100,-64
1572440336.823389,73921.000,12289,7,MX,1,100,-64
1572440336.839982,73934.000,12289,7,MX,1,100,-63
1572440336.856575,73947.000,12289,7,MX,1,100,-63
1572440336.873168,73960.000,12289,7,MX,1,100,-63
1572440336.889760,73973.000,12289,7,MX,1,100,-63
1572440336.906353,73986.000,12307,8,MX,1,100,-63
1572440336.922946,73999.000,12307,8,MX,1,100,-63
1572440336.939539,74012.000,12307,8,MX,1,100,-63
1572440336.956132,74025.000,12307,8,MX,1,100,-64
1572440336.972725,74038.000,12307,8,MX,1,100,-64
1572440336.989318,74051.000,12307,8,MX,1,100,-64
1572440337.005911,74064.000,12307,8,MX,1,100,-63
1572440337.022504,74077.000,12307,8,MX,1,100,-63
1572440337.039416,74090.250,12326,8,MX,1,100,-63
1572440337.056328,74103.500,12326,8,MX,1,100,-63
1572440337.073240,74116.750,12326,8,MX,1,100,-63
1572440337.090152,74130.000,12326,8,MX,1,100,-64
1572440337.107064,74143.250,12326,8,MX,1,100,-64
1572440337.123976,74156.500,12326,8,MX,1,100,-63
1572440337.140888,74169.750,12326,8,MX,1,100,-63
1572440337.157800,74183.000,12326,8,MX,1,100,-64
1572440337.174576,74196.143,12343,7,MX,1,100,-64
1572440337.191351,74209.286,12343,7,MX,1,100,-64
1572440337.208126,74222.429,12343,7,MX,1,100,-63
1572440337.224901,74235.571,12343,7,MX,1,100,-63
1572440337.241677,74248.714,12343,7,MX,1,100,-63
1572440337.258452,74261.857,12343,7,MX,1,100,-63
1572440337.275227,74275.000,12343,7,MX,1,100,-63
1572440337.292139,74288.250,12361,8,MX,1,100,-62
1572440337.309051,74301.500,12361,8,MX,1,100,-62
1572440337.325963,74314.750,12361,8,MX,1,100,-63
1572440337.342875,74328.000,12361,8,MX,1,100,-63
1572440337.359787,74341.250,12361,8,MX,1,100,-63
1572440337.376699,74354.500,12361,8,MX,1,100,-62
1572440337.393611,74367.750,12361,8,MX,1,100,-62
1572440337.410523,74381.000,12361,8,MX,1,100,-62
1572440337.427116,74394.000,12379,8,MX,1,100,-62
1572440337.443709,74407.000,12379,8,MX,1,100,-62
1572440337.460302,74420.000,12379,8,MX,1,100,-62
1572440337.476895,74433.000,12379,8,MX,1,100,-62
1572440337.493488,74446.000,12379,8,MX,1,100,-62
1572440337.510081,74459.000,12379,8,MX,1,100,-62
1572440337.526674,74472.000,12379,8,MX,1,100,-63
1572440337.543267,74485.000,12379,8,MX,1,100,-63
1572440337.560019,74498.125,12397,8,MX,1,100,-63
1572440337.576772,74511.250,12397,8,MX,1,100,-62
1572440337.593524,74524.375,12397,8,MX,1,100,-62
1572440337.610277,74537.500,12397,8,MX,1,100,-62
1572440337.627029,74550.625,12397,8,MX,1,100,-62
1572440337.643782,74563.750,12397,8,MX,1,100,-61
1572440337.660534,74576.875,12397,8,MX,1,100,-61
1572440337.677287,74590.000,12397,8,MX,1,100,-61
1572440337.693880,74603.000,12415,7,MX,1,100,-62
1572440337.710473,74616.000,12415,7,MX,1,100,-62
1572440337.727066,74629.000,12415,7,MX,1,100,-62
1572440337.743659,74642.000,12415,7,MX,1,100,-62
1572440337.760252,74655.000,12415,7,MX,1,100,-62
1572440337.776845,74668.000,12415,7,MX,1,100,-61
1572440337.793437,74681.000,12415,7,MX,1,100,-61
1572440337.810190,74694.125,12433,8,MX,1,100,-62
1572440337.826942,74707.250,12433,8,MX,1,100,-62
1572440337.843695,74720.375,12433,8,MX,1,100,-62
1572440337.860447,74733.500,12433,8,MX,1,100,-61
1572440337.877200,74746.625,12433,8,MX,1,100,-61
1572440337.893952,74759.750,12433,8,MX,1,100,-61
1572440337.910705,74772.875,12433,8,MX,1,100,-61
1572440337.927457,74786.000,12433,8,MX,1,100,-61
1572440337.943891,74798.875,12452,8,MX,1,100,-62
1572440337.960324,74811.750,12452,8,MX,1,100,-62
1572440337.976757,74824.625,12452,8,MX,1,100,-63
1572440337.993191,74837.500,12452,8,MX,1,100,-63
1572440338.009624,74850.375,12452,8,MX,1,100,-62
1572440338.026057,74863.250,12452,8,MX,1,100,-62
1572440338.042491,74876.125,12452,8,MX,1,100,-62
1572440338.058924,74889.000,12452,8,MX,1,100,-62
1572440338.076247,74902.571,12468,7,MX,1,100,-62
1572440338.093569,74916.143,12468,7,MX,1,100,-62
1572440338.110891,74929.714,12468,7,MX,1,100,-62
1572440338.128214,74943.286,12468,7,MX,1,100,-62
1572440338.145536,74956.857,12468,7,MX,1,100,-61
1572440338.162858,74970.429,12468,7,MX,1,100,-61
1572440338.180180,74984.000,12468,7,MX,1,100,-62
1572440338.196614,74996.875,12486,8,MX,1,100,-62
1572440338.213047,75009.750,12486,8,MX,1,100,-61
1572440338.229481,75022.625,12486,8,MX,1,100,-61
1572440338.245914,75035.500,12486,8,MX,1,100,-61
1572440338.262347,75048.375,12486,8,MX,1,100,-63
1572440338.278781,75061.250,12486,8,MX,1,100,-63
1572440338.295214,75074.125,12486,8,MX,1,100,-62
1572440338.311648,75087.000,12486,8,MX,1,100,-62
1572440338.328400,75100.125,12504,8,MX,1,100,-62
1572440338.345153,75113.250,12504,8,MX,1,100,-62
1572440338.361905,75126.375,12504,8,MX,1,100,-62
1572440338.378658,75139.500,12504,8,MX,1,100,-63
1572440338.395410,75152.625,12504,8,MX,1,100,-63
1572440338.412163,75165.750,12504,8,MX,1,100,-63
1572440338.428915,75178.875,12504,8,MX,1,100,-62
1572440338.445668,75192.000,12504,8,MX,1,100,-62
1572440338.462260,75205.000,12522,8,MX,1,100,-63
1572440338.478853,75218.000,12522,8,MX,1,100,-63
1572440338.495446,75231.000,12522,8,MX,1,100,-63
1572440338.512039,75244.000,12522,8,MX,1,100,-63
1572440338.528632,75257.000,12522,8,MX,1,100,-63
1572440338.545225,75270.000,12522,8,MX,1,100,-61
1572440338.561818,75283.000,12522,8,MX,1,100,-61
1572440338.578411,75296.000,12522,8,MX,1,100,-61
1572440338.594844,75308.875,12540,8,MX,1,100,-61
1572440338.611278,75321.750,12540,8,MX,1,100,-61
1572440338.627711,75334.625,12540,8,MX,1,100,-63
1572440338.644145,75347.500,12540,8,MX,1,100,-63
1572440338.660578,75360.375,12540,8,MX,1,100,-63
1572440338.677011,75373.250,12540,8,MX,1,100,-63
1572440338.693445,75386.125,12540,8,MX,1,100,-63
1572440338.709878,75399.000,12540,8,MX,1,100,-61
1572440338.726311,75411.875,12558,8,MX,1,100,-61
1572440338.742745,75424.750,12558,8,MX,1,100,-61
1572440338.759178,75437.625,12558,8,MX,1,100,-61
1572440338.775612,75450.500,12558,8,MX,1,100,-61
1572440338.792045,75463.375,12558,8,MX,1,100,-61
1572440338.808478,75476.250,12558,8,MX,1,100,-61
1572440338.824912,75489.125,12558,8,MX,1,100,-63
1572440338.841345,75502.000,12558,8,MX,1,100,-63
1572440338.857756,75514.857,12576,7,MX,1,100,-62
1572440338.874166,75527.714,12576,7,MX,1,100,-62
1572440338.890577,75540.571,12576,7,MX,1,100,-62
1572440338.906988,75553.429,12576,7,MX,1,100,-62
1572440338.923398,75566.286,12576,7,MX,1,100,-62
1572440338.939809,75579.143,12576,7,MX,1,100,-63
1572440338.956219,75592.000,12576,7,MX,1,100,-63
1572440338.972812,75605.000,12595,8,MX,1,100,-63
1572440338.989405,75618.000,12595,8,MX,1,100,-62
1572440339.005998,75631.000,12595,8,MX,1,100,-62
1572440339.022591,75644.000,12595,8,MX,1,100,-62
1572440339.039184,75657.000,12595,8,MX,1,100,-62
1572440339.055777,75670.000,12595,8,MX,1,100,-61
1572440339.072370,75683.000,12595,8,MX,1,100,-61
1572440339.088963,75696.000,12595,8,MX,1,100,-61
1572440339.105556,75709.000,12613,8,MX,1,100,-63
1572440339.122149,75722.000,12613,8,MX,1,100,-63
1572440339.138742,75735.000,12613,8,MX,1,100,-61
1572440339.155335,75748.000,12613,8,MX,1,100,-61
1572440339.171927,75761.000,12613,8,MX,1,100,-61
1572440339.188520,75774.000,12613,8,MX,1,100,-62
1572440339.205113,75787.000,12613,8,MX,1,100,-62
1572440339.221706,75800.000,12613,8,MX,1,100,-62
1572440339.238459,75813.125,12631,8,MX,1,100,-62
1572440339.255211,75826.250,12631,8,MX,1,100,-62
1572440339.271964,75839.375,12631,8,MX,1,100,-61
1572440339.288716,75852.500,12631,8,MX,1,100,-61
1572440339.305469,75865.625,12631,8,MX,1,100,-63
1572440339.322221,75878.750,12631,8,MX,1,100,-63
1572440339.338974,75891.875,12631,8,MX,1,100,-62
1572440339.355726,75905.000,12631,8,MX,1,100,-62
1572440339.372502,75918.143,12649,7,MX,1,100,-62
1572440339.389277,75931.286,12649,7,MX,1,100,-62
1572440339.406052,75944.429,12649,7,MX,1,100,-62
1572440339.422827,75957.571,12649,7,MX,1,100,-64
1572440339.439603,75970.714,12649,7,MX,1,100,-64
1572440339.456378,75983.857,12649,7,MX,1,100,-64
1572440339.473153,75997.000,12649,7,MX,1,100,-62
1572440339.489906,76010.125,12667,8,MX,1,100,-62
1572440339.506658,76023.250,12667,8,MX,1,100,-62
1572440339.523411,76036.375,12667,8,MX,1,100,-62
1572440339.540163,76049.500,12667,8,MX,1,100,-61
1572440339.556916,76062.625,12667,8,MX,1,100,-61
1572440339.573668,76075.750,12667,8,MX,1,100,-61
1572440339.590420,76088.875,12667,8,MX,1,100,-60
1572440339.607173,76102.000,12667,8,MX,1,100,-60
1572440339.623606,76114.875,12685,8,MX,1,100,-60
1572440339.640040,76127.750,12685,8,MX,1,100,-60
1572440339.656473,76140.625,12685,8,MX,1,100,-60
1572440339.672907,76153.500,12685,8,MX,1,100,-62
1572440339.689340,76166.375,12685,8,MX,1,100,-62
1572440339.705773,76179.250,12685,8,MX,1,100,-61
1572440339.722207,76192.125,12685,8,MX,1,100,-61
1572440339.738640,76205.000,12685,8,MX,1,100,-61
1572440339.755324,76218.071,12706,14,MX,1,100,-62
1572440339.772008,76231.143,12706,14,MX,1,100,-62
1572440339.788692,76244.214,12706,14,MX,1,100,-62
1572440339.805377,76257.286,12706,14,MX,1,100,-62
1572440339.822061,76270.357,12706,14,MX,1,100,-62
1572440339.838745,76283.429,12706,14,MX,1,100,-63
1572440339.855429,76296.500,12706,14,MX,1,100,-63
1572440339.872113,76309.571,12706,14,MX,1,100,-63
1572440339.888797,76322.643,12706,14,MX,1,100,-63
1572440339.905481,76335.714,12706,14,MX,1,100,-63
1572440339.922165,76348.786,12706,14,MX,1,100,-63
1572440339.938849,76361.857,12706,14,MX,1,100,-63
1572440339.955534,76374.929,12706,14,MX,1,100,-65
1572440339.972218,76388.000,12706,14,MX,1,100,-65
1572440339.988811,76401.000,12727,6,MX,1,100,-64
1572440340.005404,76414.000,12727,6,MX,1,100,-64
1572440340.021996,76427.000,12727,6,MX,1,100,-64
1572440340.038589,76440.000,12727,6,MX,1,100,-65
1572440340.055182,76453.000,12727,6,MX,1,100,-65
1572440340.071775,76466.000,12727,6,MX,1,100,-65
1572440340.088687,76479.250,12745,8,MX,1,100,-65
1572440340.105599,76492.500,12745,8,MX,1,100,-65
1572440340.122511,76505.750,12745,8,MX,1,100,-65
1572440340.139423,76519.000,12745,8,MX,1,100,-65
1572440340.156335,76532.250,12745,8,MX,1,100,-66
1572440340.173248,76545.500,12745,8,MX,1,100,-66
1572440340.190160,76558.750,12745,8,MX,1,100,-65
1572440340.207072,76572.000,12745,8,MX,1,100,-65
1572440340.223665,76585.000,12763,7,MX,1,100,-65
1572440340.240258,76598.000,12763,7,MX,1,100,-65
1572440340.256850,76611.000,12763,7,MX,1,100,-65
1572440340.273443,76624.000,12763,7,MX,1,100,-67
1572440340.290036,76637.000,12763,7,MX,1,100,-67
1572440340.306629,76650.000,12763,7,MX,1,100,-67
1572440340.323222,76663.000,12763,7,MX,1,100,-66
1572440340.339975,76676.125,12781,8,MX,1,100,-66
1572440340.356727,76689.250,12781,8,MX,1,100,-67
1572440340.373480,76702.375,12781,8,MX,1,100,-67
1572440340.390232,76715.500,12781,8,MX,1,100,-67
1572440340.406985,76728.625,12781,8,MX,1,100,-66
1572440340.423737,76741.750,12781,8,MX,1,100,-66
1572440340.440490,76754.875,12781,8,MX,1,100,-66
1572440340.457242,76768.000,12781,8,MX,1,100,-66
1572440340.474564,76781.571,12797,7,MX,1,100,-67
1572440340.491887,76795.143,12797,7,MX,1,100,-67
1572440340.509209,76808.714,12797,7,MX,1,100,-67
1572440340.526531,76822.286,12797,7,MX,1,100,-66
1572440340.543854,76835.857,12797,7,MX,1,100,-66
1572440340.561176,76849.429,12797,7,MX,1,100,-66
1572440340.578498,76863.000,12797,7,MX,1,100,-66
1572440340.594949,76875.889,12815,9,MX,1,100,-66
1572440340.611400,76888.778,12815,9,MX,1,100,-67
1572440340.627851,76901.667,12815,9,MX,1,100,-67
1572440340.644303,76914.556,12815,9,MX,1,100,-67
1572440340.660754,76927.444,12815,9,MX,1,100,-67
1572440340.677205,76940.333,12815,9,MX,1,100,-66
1572440340.693656,76953.222,12815,9,MX,1,100,-66
1572440340.710107,76966.111,12815,9,MX,1,100,-66
1572440340.726558,76979.000,12815,9,MX,1,100,-67
1572440340.743333,76992.143,12833,7,MX,1,100,-67
1572440340.760109,77005.286,12833,7,MX,1,100,-66
1572440340.776884,77018.429,12833,7,MX,1,100,-66
1572440340.793659,77031.571,12833,7,MX,1,100,-66
1572440340.810435,77044.714,12833,7,MX,1,100,-66
1572440340.827210,77057.857,12833,7,MX,1,100,-66
1572440340.843985,77071.000,12833,7,MX,1,100,-67
1572440340.860897,77084.250,12851,8,MX,1,100,-67
1572440340.877809,77097.500,12851,8,MX,1,100,-67
1572440340.894721,77110.750,12851,8,MX,1,100,-66
1572440340.911633,77124.000,12851,8,MX,1,100,-66
1572440340.928545,77137.250,12851,8,MX,1,100,-66
1572440340.945457,77150.500,12851,8,MX,1,100,-66
1572440340.962369,77163.750,12851,8,MX,1,100,-65
1572440340.979281,77177.000,12851,8,MX,1,100,-65
1572440340.995715,77189.875,12869,8,MX,1,100,-65
1572440341.012148,77202.750,12869,8,MX,1,100,-65
1572440341.028582,77215.625,12869,8,MX,1,100,-65
1572440341.045015,77228.500,12869,8,MX,1,100,-66
1572440341.061448,77241.375,12869,8,MX,1,100,-66
1572440341.077882,77254.250,12869,8,MX,1,100,-66
1572440341.094315,77267.125,12869,8,MX,1,100,-67
1572440341.110749,77280.000,12869,8,MX,1,100,-67
1572440341.127342,77293.000,12888,7,MX,1,100,-66
1572440341.143934,77306.000,12888,7,MX,1,100,-66
1572440341.160527,77319.000,12888,7,MX,1,100,-66
1572440341.177120,77332.000,12888,7,MX,1,100,-65
1572440341.193713,77345.000,12888,7,MX,1,100,-65
1572440341.210306,77358.000,12888,7,MX,1,100,-65
1572440341.226899,77371.000,12888,7,MX,1,100,-65
1572440341.243652,77384.125,12906,8,MX,1,100,-66
1572440341.260404,77397.250,12906,8,MX,1,100,-66
1572440341.277157,77410.375,12906,8,MX,1,100,-66
1572440341.293909,77423.500,12906,8,MX,1,100,-65
1572440341.310662,77436.625,12906,8,MX,1,100,-65
1572440341.327414,77449.750,12906,8,MX,1,100,-66
1572440341.344167,77462.875,12906,8,MX,1,100,-66
1572440341.360919,77476.000,12906,8,MX,1,100,-66
1572440341.377671,77489.125,12924,8,MX,1,100,-64
1572440341.394424,77502.250,12924,8,MX,1,100,-64
1572440341.411176,77515.375,12924,8,MX,1,100,-64
1572440341.427929,77528.500,12924,8,MX,1,100,-64
1572440341.444681,77541.625,12924,8,MX,1,100,-63
1572440341.461434,77554.750,12924,8,MX,1,100,-63
1572440341.478186,77567.875,12924,8,MX,1,100,-63
1572440341.494939,77581.000,12924,8,MX,1,100,-65
1572440341.511714,77594.143,12942,7,MX,1,100,-65
1572440341.528489,77607.286,12942,7,MX,1,100,-64
1572440341.545265,77620.429,12942,7,MX,1,100,-64
1572440341.562040,77633.571,12942,7,MX,1,100,-64
1572440341.578815,77646.714,12942,7,MX,1,100,-63
1572440341.595590,77659.857,12942,7,MX,1,100,-63
1572440341.612366,77673.000,12942,7,MX,1,100,-64
1572440341.628533,77685.667,12960,9,MX,1,100,-64
1572440341.644701,77698.333,12960,9,MX,1,100,-64
1572440341.660868,77711.000,12960,9,MX,1,100,-64
1572440341.677036,77723.667,12960,9,MX,1,100,-64
1572440341.693203,77736.333,12960,9,MX,1,100,-64
1572440341.709371,77749.000,12960,9,MX,1,100,-64
1572440341.725538,77761.667,12960,9,MX,1,100,-64
1572440341.741706,77774.333,12960,9,MX,1,100,-64
1572440341.757873,77787.000,12960,9,MX,1,100,-64
1572440341.774466,77800.000,12978,7,MX,1,100,-65
1572440341.791059,77813.000,12978,7,MX,1,100,-65
1572440341.807652,77826.000,12978,7,MX,1,100,-66
1572440341.824245,77839.000,12978,7,MX,1,100,-66
1572440341.840838,77852.000,12978,7,MX,1,100,-66
1572440341.857431,77865.000,12978,7,MX,1,100,-64
1572440341.874024,77878.000,12978,7,MX,1,100,-64
1572440341.890617,77891.000,12996,8,MX,1,100,-65
1572440341.907209,77904.000,12996,8,MX,1,100,-65
1572440341.923802,77917.000,12996,8,MX,1,100,-65
1572440341.940395,77930.000,12996,8,MX,1,100,-64
1572440341.956988,77943.000,12996,8,MX,1,100,-64
1572440341.973581,77956.000,12996,8,MX,1,100,-64
1572440341.990174,77969.000,12996,8,MX,1,100,-64
1572440342.006767,77982.000,12996,8,MX,1,100,-64
1572440342.023041,77994.750,13015,8,MX,1,100,-64
1572440342.039315,78007.500,13015,8,MX,1,100,-64
1572440342.055589,78020.250,13015,8,MX,1,100,-64
1572440342.071862,78033.000,13015,8,MX,1,100,-64
1572440342.088136,78045.750,13015,8,MX,1,100,-64
1572440342.104410,78058.500,13015,8,MX,1,100,-64
1572440342.120684,78071.250,13015,8,MX,1,100,-64
1572440342.136958,78084.000,13015,8,MX,1,100,-64
1572440342.153710,78097.125,13033,8,MX,1,100,-64
1572440342.170463,78110.250,13033,8,MX,1,100,-64
1572440342.187215,78123.375,13033,8,MX,1,100,-64
1572440342.203968,78136.500,13033,8,MX,1,100,-64
1572440342.220720,78149.625,13033,8,MX,1,100,-65
1572440342.237473,78162.750,13033,8,MX,1,100,-65
1572440342.254225,78175.875,13033,8,MX,1,100,-64
1572440342.270978,78189.000,13033,8,MX,1,100,-64
1572440342.287388,78201.857,13051,7,MX,1,100,-64
1572440342.303799,78214.714,13051,7,MX,1,100,-66
1572440342.320210,78227.571,13051,7,MX,1,100,-66
1572440342.336620,78240.429,13051,7,MX,1,100,-65
1572440342.353031,78253.286,13051,7,MX,1,100,-65
1572440342.369441,78266.143,13051,7,MX,1,100,-65
1572440342.385852,78279.000,13051,7,MX,1,100,-65
1572440342.402764,78292.250,13069,8,MX,1,100,-65
1572440342.419676,78305.500,13069,8,MX,1,100,-65
1572440342.436588,78318.750,13069,8,MX,1,100,-65
1572440342.453500,78332.000,13069,8,MX,1,100,-65
1572440342.470412,78345.250,13069,8,MX,1,100,-65
1572440342.487324,78358.500,13069,8,MX,1,100,-65
1572440342.504236,78371.750,13069,8,MX,1,100,-64
1572440342.521148,78385.000,13069,8,MX,1,100,-64
1572440342.537581,78397.875,13087,8,MX,1,100,-65
1572440342.554015,78410.750,13087,8,MX,1,100,-65
1572440342.570448,78423.625,13087,8,MX,1,100,-65
1572440342.586882,78436.500,13087,8,MX,1,100,-65
1572440342.603315,78449.375,13087,8,MX,1,100,-65
1572440342.619749,78462.250,13087,8,MX,1,100,-64
1572440342.636182,78475.125,13087,8,MX,1,100,-64
1572440342.652615,78488.000,13087,8,MX,1,100,-64
1572440342.669208,78501.000,13105,8,MX,1,100,-64
1572440342.685801,78514.000,13105,8,MX,1,100,-64
1572440342.702394,78527.000,13105,8,MX,1,100,-64
1572440342.718987,78540.000,13105,8,MX,1,100,-64
1572440342.735580,78553.000,13105,8,MX,1,100,-65
1572440342.752173,78566.000,13105,8,MX,1,100,-65
1572440342.768766,78579.000,13105,8,MX,1,100,-65
1572440342.785359,78592.000,13105,8,MX,1,100,-64
1572440342.802134,78605.143,13123,7,MX,1,100,-64
1572440342.818909,78618.286,13123,7,MX,1,100,-65
1572440342.835685,78631.429,13123,7,MX,1,100,-65
1572440342.852460,78644.571,13123,7,MX,1,100,-64
1572440342.869235,78657.714,13123,7,MX,1,100,-64
1572440342.886010,78670.857,13123,7,MX,1,100,-64
1572440342.902786,78684.000,13123,7,MX,1,100,-64
1572440342.919538,78697.125,13141,8,MX,1,100,-64
1572440342.936291,78710.250,13141,8,MX,1,100,-65
1572440342.953043,78723.375,13141,8,MX,1,100,-65
1572440342.969796,78736.500,13141,8,MX,1,100,-65
1572440342.986548,78749.625,13141,8,MX,1,100,-64
1572440343.003301,78762.750,13141,8,MX,1,100,-64
1572440343.020053,78775.875,13141,8,MX,1,100,-64
1572440343.036806,78789.000,13141,8,MX,1,100,-64
1572440343.053239,78801.875,13160,8,MX,1,100,-64
1572440343.069672,78814.750,13160,8,MX,1,100,-65
1572440343.086106,78827.625,13160,8,MX,1,100,-65
1572440343.102539,78840.500,13160,8,MX,1,100,-64
1572440343.118973,78853.375,13160,8,MX,1,100,-64
1572440343.135406,78866.250,13160,8,MX,1,100,-64
1572440343.151839,78879.125,13160,8,MX,1,100,-64
1572440343.168273,78892.000,13160,8,MX,1,100,-64
1572440343.184866,78905.000,13178,8,MX,1,100,-65
1572440343.201459,78918.000,13178,8,MX,1,100,-65
1572440343.218051,78931.000,13178,8,MX,1,100,-65
1572440343.234644,78944.000,13178,8,MX,1,100,-65
1572440343.251237,78957.000,13178,8,MX,1,100,-65
1572440343.267830,78970.000,13178,8,MX,1,100,-65
1572440343.284423,78983.000,13178,8,MX,1,100,-65
1572440343.301016,78996.000,13178,8,MX,1,100,-65
1572440343.317791,79009.143,13196,7,MX,1,100,-65
1572440343.334567,79022.286,13196,7,MX,1,100,-65
1572440343.351342,79035.429,13196,7,MX,1,100,-65
1572440343.368117,79048.571,13196,7,MX,1,100,-65
1572440343.384893,79061.714,13196,7,MX,1,100,-65
1572440343.401668,79074.857,13196,7,MX,1,100,-65
1572440343.418443,79088.000,13196,7,MX,1,100,-65
1572440343.435355,79101.250,13214,8,MX,1,100,-65
1572440343.452267,79114.500,13214,8,MX,1,100,-65
1572440343.469179,79127.750,13214,8,MX,1,100,-64
1572440343.486091,79141.000,13214,8,MX,1,100,-64
1572440343.503003,79154.250,13214,8,MX,1,100,-64
1572440343.519915,79167.500,13214,8,MX,1,100,-64
1572440343.536827,79180.750,13214,8,MX,1,100,-64
1572440343.553740,79194.000,13214,8,MX,1,100,-63
1572440343.570332,79207.000,13231,8,MX,1,100,-63
1572440343.586925,79220.000,13231,8,MX,1,100,-63
1572440343.603518,79233.000,13231,8,MX,1,100,-63
1572440343.620111,79246.000,13231,8,MX,1,100,-63
1572440343.636704,79259.000,13231,8,MX,1,100,-63
1572440343.653297,79272.000,13231,8,MX,1,100,-63
1572440343.669890,79285.000,13231,8,MX,1,100,-61
1572440343.686483,79298.000,13231,8,MX,1,100,-61
1572440343.703076,79311.000,13249,8,MX,1,100,-62
1572440343.719669,79324.000,13249,8,MX,1,100,-62
1572440343.736262,79337.000,13249,8,MX,1,100,-62
1572440343.752855,79350.000,13249,8,MX,1,100,-61
1572440343.769448,79363.000,13249,8,MX,1,100,-61
1572440343.786041,79376.000,13249,8,MX,1,100,-61
1572440343.802634,79389.000,13249,8,MX,1,100,-61
1572440343.819227,79402.000,13249,8,MX,1,100,-61
1572440343.836002,79415.143,13267,7,MX,1,100,-61
1572440343.852777,79428.286,13267,7,MX,1,100,-61
1572440343.869552,79441.429,13267,7,MX,1,100,-60
1572440343.886328,79454.571,13267,7,MX,1,100,-60
1572440343.903103,79467.714,13267,7,MX,1,100,-60
1572440343.919878,79480.857,13267,7,MX,1,100,-60
1572440343.936653,79494.000,13267,7,MX,1,100,-60
1572440343.953406,79507.125,13285,8,MX,1,100,-60
1572440343.970158,79520.250,13285,8,MX,1,100,-60
1572440343.986911,79533.375,13285,8,MX,1,100,-60
1572440344.003663,79546.500,13285,8,MX,1,100,-60
1572440344.020416,79559.625,13285,8,MX,1,100,-60
1572440344.037168,79572.750,13285,8,MX,1,100,-60
1572440344.053921,79585.875,13285,8,MX,1,100,-60
1572440344.070673,79599.000,13285,8,MX,1,100,-60
1572440344.087266,79612.000,13304,7,MX,1,100,-60
1572440344.103859,79625.000,13304,7,MX,1,100,-60
1572440344.120452,79638.000,13304,7,MX,1,100,-60
1572440344.137045,79651.000,13304,7,MX,1,100,-60
1572440344.153638,79664.000,13304,7,MX,1,100,-60
1572440344.170231,79677.000,13304,7,MX,1,100,-60
1572440344.186824,79690.000,13304,7,MX,1,100,-60
1572440344.203576,79703.125,13322,8,MX,1,100,-60
1572440344.220329,79716.250,13322,8,MX,1,100,-60
1572440344.237081,79729.375,13322,8,MX,1,100,-58
1572440344.253834,79742.500,13322,8,MX,1,100,-58
1572440344.270586,79755.625,13322,8,MX,1,100,-59
1572440344.287339,79768.750,13322,8,MX,1,100,-59
1572440344.304091,79781.875,13322,8,MX,1,100,-59
1572440344.320844,79795.000,13322,8,MX,1,100,-59
1572440344.337277,79807.875,13340,8,MX,1,100,-59
1572440344.353710,79820.750,13340,8,MX,1,100,-59
1572440344.370144,79833.625,13340,8,MX,1,100,-59
1572440344.386577,79846.500,13340,8,MX,1,100,-59
1572440344.403011,79859.375,13340,8,MX,1,100,-57
1572440344.419444,79872.250,13340,8,MX,1,100,-57
1572440344.435877,79885.125,13340,8,MX,1,100,-57
1572440344.452311,79898.000,13340,8,MX,1,100,-57
1572440344.469223,79911.250,13356,8,MX,1,100,-58
1572440344.486135,79924.500,13356,8,MX,1,100,-58
1572440344.503047,79937.750,13356,8,MX,1,100,-58
1572440344.519959,79951.000,13356,8,MX,1,100,-58
1572440344.536871,79964.250,13356,8,MX,1,100,-58
1572440344.553783,79977.500,13356,8,MX,1,100,-57
1572440344.570695,79990.750,13356,8,MX,1,100,-57
1572440344.587607,80004.000,13356,8,MX,1,100,-57
1572440344.604200,80017.000,13374,8,MX,1,100,-58
1572440344.620793,80030.000,13374,8,MX,1,100,-58
1572440344.637386,80043.000,13374,8,MX,1,100,-59
1572440344.653979,80056.000,13374,8,MX,1,100,-59
1572440344.670572,80069.000,13374,8,MX,1,100,-59
1572440344.687165,80082.000,13374,8,MX,1,100,-57
1572440344.703758,80095.000,13374,8,MX,1,100,-57
1572440344.720351,80108.000,13374,8,MX,1,100,-57
1572440344.737126,80121.143,13392,7,MX,1,100,-57
1572440344.753901,80134.286,13392,7,MX,1,100,-57
1572440344.770676,80147.429,13392,7,MX,1,100,-58
1572440344.787452,80160.571,13392,7,MX,1,100,-58
1572440344.804227,80173.714,13392,7,MX,1,100,-57
1572440344.821002,80186.857,13392,7,MX,1,100,-57
1572440344.837778,80200.000,13392,7,MX,1,100,-57
1572440344.854370,80213.000,13410,8,MX,1,100,-57
1572440344.870963,80226.000,13410,8,MX,1,100,-57
1572440344.887556,80239.000,13410,8,MX,1,100,-57
1572440344.904149,80252.000,13410,8,MX,1,100,-57
1572440344.920742,80265.000,13410,8,MX,1,100,-58
1572440344.937335,80278.000,13410,8,MX,1,100,-58
1572440344.953928,80291.000,13410,8,MX,1,100,-58
1572440344.970521,80304.000,13410,8,MX,1,100,-58
1572440344.986954,80316.875,13428,8,MX,1,100,-58
1572440345.003388,80329.750,13428,8,MX,1,100,-59
1572440345.019821,80342.625,13428,8,MX,1,100,-59
1572440345.036255,80355.500,13428,8,MX,1,100,-60
1572440345.052688,80368.375,13428,8,MX,1,100,-60
1572440345.069121,80381.250,13428,8,MX,1,100,-60
1572440345.085555,80394.125,13428,8,MX,1,100,-60
1572440345.101988,80407.000,13428,8,MX,1,100,-60
1572440345.118422,80419.875,13447,8,MX,1,100,-61
1572440345.134855,80432.750,13447,8,MX,1,100,-61
1572440345.151288,80445.625,13447,8,MX,1,100,-61
1572440345.167722,80458.500,13447,8,MX,1,100,-61
1572440345.184155,80471.375,13447,8,MX,1,100,-61
1572440345.200588,80484.250,13447,8,MX,1,100,-61
1572440345.217022,80497.125,13447,8,MX,1,100,-61
1572440345.233455,80510.000,13447,8,MX,1,100,-61
1572440345.250048,80523.000,13465,7,MX,1,100,-63
1572440345.266641,80536.000,13465,7,MX,1,100,-63
1572440345.283234,80549.000,13465,7,MX,1,100,-63
1572440345.299827,80562.000,13465,7,MX,1,100,-63
1572440345.316420,80575.000,13465,7,MX,1,100,-62
1572440345.333013,80588.000,13465,7,MX,1,100,-62
1572440345.349606,80601.000,13465,7,MX,1,100,-62
1572440345.366358,80614.125,13483,8,MX,1,100,-63
1572440345.383111,80627.250,13483,8,MX,1,100,-63
1572440345.399863,80640.375,13483,8,MX,1,100,-63
1572440345.416616,80653.500,13483,8,MX,1,100,-63
1572440345.433368,80666.625,13483,8,MX,1,100,-63
1572440345.450121,80679.750,13483,8,MX,1,100,-64
1572440345.466873,80692.875,13483,8,MX,1,100,-64
1572440345.483626,80706.000,13483,8,MX,1,100,-63
1572440345.500219,80719.000,13501,8,MX,1,100,-63
1572440345.516812,80732.000,13501,8,MX,1,100,-63
1572440345.533405,80745.000,13501,8,MX,1,100,-63
1572440345.549998,80758.000,13501,8,MX,1,100,-63
1572440345.566590,80771.000,13501,8,MX,1,100,-61
1572440345.583183,80784.000,13501,8,MX,1,100,-61
1572440345.599776,80797.000,13501,8,MX,1,100,-61
1572440345.616369,80810.000,13501,8,MX,1,100,-61
1572440345.633281,80823.250,13519,8,MX,1,100,-61
1572440345.650193,80836.500,13519,8,MX,1,100,-61
1572440345.667105,80849.750,13519,8,MX,1,100,-61
1572440345.684017,80863.000,13519,8,MX,1,100,-62
1572440345.700929,80876.250,13519,8,MX,1,100,-62
1572440345.717841,80889.500,13519,8,MX,1,100,-62
1572440345.734753,80902.750,13519,8,MX,1,100,-63
1572440345.751665,80916.000,13519,8,MX,1,100,-63
1572440345.768258,80929.000,13537,7,MX,1,100,-61
1572440345.784851,80942.000,13537,7,MX,1,100,-61
1572440345.801444,80955.000,13537,7,MX,1,100,-61
1572440345.818037,80968.000,13537,7,MX,1,100,-62
1572440345.834630,80981.000,13537,7,MX,1,100,-62
1572440345.851223,80994.000,13537,7,MX,1,100,-62
1572440345.867816,81007.000,13537,7,MX,1,100,-62
1572440345.884409,81020.000,13555,8,MX,1,100,-62
1572440345.901002,81033.000,13555,8,MX,1,100,-62
1572440345.917595,81046.000,13555,8,MX,1,100,-62
1572440345.934188,81059.000,13555,8,MX,1,100,-61
1572440345.950781,81072.000,13555,8,MX,1,100,-61
1572440345.967374,81085.000,13555,8,MX,1,100,-61
1572440345.983967,81098.000,13555,8,MX,1,100,-61
1572440346.000560,81111.000,13555,8,MX,1,100,-61
1572440346.016993,81123.875,13573,8,MX,1,100,-62
1572440346.033426,81136.750,13573,8,MX,1,100,-62
1572440346.049860,81149.625,13573,8,MX,1,100,-62
1572440346.066293,81162.500,13573,8,MX,1,100,-62
1572440346.082726,81175.375,13573,8,MX,1,100,-62
1572440346.099160,81188.250,13573,8,MX,1,100,-61
1572440346.115593,81201.125,13573,8,MX,1,100,-61
1572440346.132027,81214.000,13573,8,MX,1,100,-63
1572440346.148779,81227.125,13592,8,MX,1,100,-63
1572440346.165532,81240.250,13592,8,MX,1,100,-64
1572440346.182284,81253.375,13592,8,MX,1,100,-64
1572440346.199037,81266.500,13592,8,MX,1,100,-64
1572440346.215789,81279.625,13592,8,MX,1,100,-63
1572440346.232542,81292.750,13592,8,MX,1,100,-63
1572440346.249294,81305.875,13592,8,MX,1,100,-64
1572440346.266047,81319.000,13592,8,MX,1,100,-64
1572440346.282738,81332.077,13613,13,MX,1,100,-64
1572440346.299429,81345.154,13613,13,MX,1,100,-63
1572440346.316120,81358.231,13613,13,MX,1,100,-63
1572440346.332811,81371.308,13613,13,MX,1,100,-63
1572440346.349502,81384.385,13613,13,MX,1,100,-63
1572440346.366193,81397.462,13613,13,MX,1,100,-64
1572440346.382884,81410.538,13613,13,MX,1,100,-64
1572440346.399575,81423.615,13613,13,MX,1,100,-64
1572440346.416267,81436.692,13613,13,MX,1,100,-63
1572440346.432958,81449.769,13613,13,MX,1,100,-63
1572440346.449649,81462.846,13613,13,MX,1,100,-62
1572440346.466340,81475.923,13613,13,MX,1,100,-62
1572440346.483031,81489.000,13613,13,MX,1,100,-62
1572440346.499989,81502.286,13633,7,MX,1,100,-63
1572440346.516946,81515.571,13633,7,MX,1,100,-63
1572440346.533904,81528.857,13633,7,MX,1,100,-63
1572440346.550862,81542.143,13633,7,MX,1,100,-63
1572440346.567819,81555.429,13633,7,MX,1,100,-63
1572440346.584777,81568.714,13633,7,MX,1,100,-62
1572440346.601734,81582.000,13633,7,MX,1,100,-62
1572440346.618327,81595.000,13651,7,MX,1,100,-63
1572440346.634920,81608.000,13651,7,MX,1,100,-63
1572440346.651513,81621.000,13651,7,MX,1,100,-63
1572440346.668106,81634.000,13651,7,MX,1,100,-63
1572440346.684699,81647.000,13651,7,MX,1,100,-63
1572440346.701292,81660.000,13651,7,MX,1,100,-63
1572440346.717885,81673.000,13651,7,MX,1,100,-63
1572440346.734478,81686.000,13669,8,MX,1,100,-64
1572440346.751071,81699.000,13669,8,MX,1,100,-64
1572440346.767664,81712.000,13669,8,MX,1,100,-64
1572440346.784257,81725.000,13669,8,MX,1,100,-62
1572440346.800850,81738.000,13669,8,MX,1,100,-62
1572440346.817443,81751.000,13669,8,MX,1,100,-62
1572440346.834036,81764.000,13669,8,MX,1,100,-62
1572440346.850628,81777.000,13669,8,MX,1,100,-62
1572440346.867541,81790.250,13685,8,MX,1,100,-63
1572440346.884453,81803.500,13685,8,MX,1,100,-63
1572440346.901365,81816.750,13685,8,MX,1,100,-63
1572440346.918277,81830.000,13685,8,MX,1,100,-63
1572440346.935189,81843.250,13685,8,MX,1,100,-61
1572440346.952101,81856.500,13685,8,MX,1,100,-61
1572440346.969013,81869.750,13685,8,MX,1,100,-61
1572440346.985925,81883.000,13685,8,MX,1,100,-62
1572440347.002677,81896.125,13703,8,MX,1,100,-62
1572440347.019430,81909.250,13703,8,MX,1,100,-62
1572440347.036182,81922.375,13703,8,MX,1,100,-62
1572440347.052935,81935.500,13703,8,MX,1,100,-62
1572440347.069687,81948.625,13703,8,MX,1,100,-61
1572440347.086440,81961.750,13703,8,MX,1,100,-61
1572440347.103192,81974.875,13703,8,MX,1,100,-63
1572440347.119945,81988.000,13703,8,MX,1,100,-63
1572440347.136720,82001.143,13722,7,MX,1,100,-63
1572440347.153495,82014.286,13722,7,MX,1,100,-61
1572440347.170270,82027.429,13722,7,MX,1,100,-61
1572440347.187046,82040.571,13722,7,MX,1,100,-62
1572440347.203821,82053.714,13722,7,MX,1,100,-62
1572440347.220596,82066.857,13722,7,MX,1,100,-63
1572440347.237372,82080.000,13722,7,MX,1,100,-63
1572440347.254284,82093.250,13740,8,MX,1,100,-63
1572440347.271196,82106.500,13740,8,MX,1,100,-65
1572440347.288108,82119.750,13740,8,MX,1,100,-65
1572440347.305020,82133.000,13740,8,MX,1,100,-67
1572440347.321932,82146.250,13740,8,MX,1,100,-67
1572440347.338844,82159.500,13740,8,MX,1,100,-67
1572440347.355756,82172.750,13740,8,MX,1,100,-65
1572440347.372668,82186.000,13740,8,MX,1,100,-65
1572440347.389101,82198.875,13758,8,MX,1,100,-66
1572440347.405535,82211.750,13758,8,MX,1,100,-66
1572440347.421968,82224.625,13758,8,MX,1,100,-66
1572440347.438401,82237.500,13758,8,MX,1,100,-67
1572440347.454835,82250.375,13758,8,MX,1,100,-67
1572440347.471268,82263.250,13758,8,MX,1,100,-67
1572440347.487702,82276.125,13758,8,MX,1,100,-67
1572440347.504135,82289.000,13758,8,MX,1,100,-65
1572440347.520728,82302.000,13776,7,MX,1,100,-65
1572440347.537321,82315.000,13776,7,MX,1,100,-65
1572440347.553914,82328.000,13776,7,MX,1,100,-67
1572440347.570507,82341.000,13776,7,MX,1,100,-67
1572440347.587100,82354.000,13776,7,MX,1,100,-66
1572440347.603693,82367.000,13776,7,MX,1,100,-66
1572440347.620286,82380.000,13776,7,MX,1,100,-66
1572440347.637038,82393.125,13794,8,MX,1,100,-67
1572440347.653790,82406.250,13794,8,MX,1,100,-67
1572440347.670543,82419.375,13794,8,MX,1,100,-66
1572440347.687295,82432.500,13794,8,MX,1,100,-66
1572440347.704048,82445.625,13794,8,MX,1,100,-65
1572440347.720800,82458.750,13794,8,MX,1,100,-65
1572440347.737553,82471.875,13794,8,MX,1,100,-65
1572440347.754305,82485.000,13794,8,MX,1,100,-66
1572440347.771058,82498.125,13812,8,MX,1,100,-66
1572440347.787810,82511.250,13812,8,MX,1,100,-65
1572440347.804563,82524.375,13812,8,MX,1,100,-65
1572440347.821315,82537.500,13812,8,MX,1,100,-65
1572440347.838068,82550.625,13812,8,MX,1,100,-65
1572440347.854820,82563.750,13812,8,MX,1,100,-65
1572440347.871573,82576.875,13812,8,MX,1,100,-65
1572440347.888325,82590.000,13812,8,MX,1,100,-65
1572440347.904599,82602.750,13830,8,MX,1,100,-65
1572440347.920873,82615.500,13830,8,MX,1,100,-64
1572440347.937147,82628.250,13830,8,MX,1,100,-64
1572440347.953421,82641.000,13830,8,MX,1,100,-65
1572440347.969694,82653.750,13830,8,MX,1,100,-65
1572440347.985968,82666.500,13830,8,MX,1,100,-65
1572440348.002242,82679.250,13830,8,MX,1,100,-64
1572440348.018516,82692.000,13830,8,MX,1,100,-64
1572440348.035109,82705.000,13848,8,MX,1,100,-65
1572440348.051702,82718.000,13848,8,MX,1,100,-65
1572440348.068295,82731.000,13848,8,MX,1,100,-65
1572440348.084888,82744.000,13848,8,MX,1,100,-65
1572440348.101481,82757.000,13848,8,MX,1,100,-65
1572440348.118074,82770.000,13848,8,MX,1,100,-65
1572440348.134667,82783.000,13848,8,MX,1,100,-65
1572440348.151259,82796.000,13848,8,MX,1,100,-64
1572440348.167852,82809.000,13867,7,MX,1,100,-64
1572440348.184445,82822.000,13867,7,MX,1,100,-64
1572440348.201038,82835.000,13867,7,MX,1,100,-65
1572440348.217631,82848.000,13867,7,MX,1,100,-65
1572440348.234224,82861.000,13867,7,MX,1,100,-65
1572440348.250817,82874.000,13867,7,MX,1,100,-65
1572440348.267410,82887.000,13867,7,MX,1,100,-65
1572440348.284003,82900.000,13885,8,MX,1,100,-65
1572440348.300596,82913.000,13885,8,MX,1,100,-65
1572440348.317189,82926.000,13885,8,MX,1,100,-65
1572440348.333782,82939.000,13885,8,MX,1,100,-65
1572440348.350375,82952.000,13885,8,MX,1,100,-65
1572440348.366968,82965.000,13885,8,MX,1,100,-65
1572440348.383561,82978.000,13885,8,MX,1,100,-65
1572440348.400154,82991.000,13885,8,MX,1,100,-65
1572440348.416747,83004.000,13903,8,MX,1,100,-65
1572440348.433339,83017.000,13903,8,MX,1,100,-65
1572440348.449932,83030.000,13903,8,MX,1,100,-65
1572440348.466525,83043.000,13903,8,MX,1,100,-65
1572440348.483118,83056.000,13903,8,MX,1,100,-65
1572440348.499711,83069.000,13903,8,MX,1,100,-65
1572440348.516304,83082.000,13903,8,MX,1,100,-65
1572440348.532897,83095.000,13903,8,MX,1,100,-65
1572440348.549649,83108.125,13921,8,MX,1,100,-65
1572440348.566402,83121.250,13921,8,MX,1,100,-67
1572440348.583154,83134.375,13921,8,MX,1,100,-67
1572440348.599907,83147.500,13921,8,MX,1,100,-66
1572440348.616659,83160.625,13921,8,MX,1,100,-66
1572440348.633412,83173.750,13921,8,MX,1,100,-65
1572440348.650164,83186.875,13921,8,MX,1,100,-65
1572440348.666917,83200.000,13921,8,MX,1,100,-65
1572440348.683328,83212.857,13939,7,MX,1,100,-67
1572440348.699738,83225.714,13939,7,MX,1,100,-67
1572440348.716149,83238.571,13939,7,MX,1,100,-65
1572440348.732559,83251.429,13939,7,MX,1,100,-65
1572440348.748970,83264.286,13939,7,MX,1,100,-65
1572440348.765381,83277.143,13939,7,MX,1,100,-66
1572440348.781791,83290.000,13939,7,MX,1,100,-66
1572440348.798544,83303.125,13957,8,MX,1,100,-67
1572440348.815296,83316.250,13957,8,MX,1,100,-67
1572440348.832049,83329.375,13957,8,MX,1,100,-65
1572440348.848801,83342.500,13957,8,MX,1,100,-65
1572440348.865554,83355.625,13957,8,MX,1,100,-65
1572440348.882306,83368.750,13957,8,MX,1,100,-65
1572440348.899059,83381.875,13957,8,MX,1,100,-65
1572440348.915811,83395.000,13957,8,MX,1,100,-66
1572440348.932404,83408.000,13975,8,MX,1,100,-66
1572440348.948997,83421.000,13975,8,MX,1,100,-66
1572440348.965590,83434.000,13975,8,MX,1,100,-65
1572440348.982183,83447.000,13975,8,MX,1,100,-65
1572440348.998776,83460.000,13975,8,MX,1,100,-66
1572440349.015369,83473.000,13975,8,MX,1,100,-66
1572440349.031962,83486.000,13975,8,MX,1,100,-66
1572440349.048554,83499.000,13975,8,MX,1,100,-65
1572440349.065147,83512.000,13993,8,MX,1,100,-65
1572440349.081740,83525.000,13993,8,MX,1,100,-66
1572440349.098333,83538.000,13993,8,MX,1,100,-66
1572440349.114926,83551.000,13993,8,MX,1,100,-66
1572440349.131519,83564.000,13993,8,MX,1,100,-65
1572440349.148112,83577.000,13993,8,MX,1,100,-65
1572440349.164705,83590.000,13993,8,MX,1,100,-64
1572440349.181298,83603.000,13993,8,MX,1,100,-64
1572440349.198073,83616.143,14012,7,MX,1,100,-65
1572440349.214849,83629.286,14012,7,MX,1,100,-65
1572440349.231624,83642.429,14012,7,MX,1,100,-65
1572440349.248399,83655.571,14012,7,MX,1,100,-64
1572440349.265174,83668.714,14012,7,MX,1,100,-64
1572440349.281950,83681.857,14012,7,MX,1,100,-64
1572440349.298725,83695.000,14012,7,MX,1,100,-64
1572440349.315477,83708.125,14030,8,MX,1,100,-64
1572440349.332230,83721.250,14030,8,MX,1,100,-65
1572440349.348982,83734.375,14030,8,MX,1,100,-65
1572440349.365735,83747.500,14030,8,MX,1,100,-64
1572440349.382487,83760.625,14030,8,MX,1,100,-64
1572440349.399240,83773.750,14030,8,MX,1,100,-65
1572440349.415992,83786.875,14030,8,MX,1,100,-65
1572440349.432745,83800.000,14030,8,MX,1,100,-65
1572440349.449497,83813.125,14048,8,MX,1,100,-64
1572440349.466250,83826.250,14048,8,MX,1,100,-64
1572440349.483002,83839.375,14048,8,MX,1,100,-64
1572440349.499755,83852.500,14048,8,MX,1,100,-64
1572440349.516507,83865.625,14048,8,MX,1,100,-64
1572440349.533260,83878.750,14048,8,MX,1,100,-64
1572440349.550012,83891.875,14048,8,MX,1,100,-64
1572440349.566765,83905.000,14048,8,MX,1,100,-64
1572440349.583358,83918.000,14066,7,MX,1,100,-64
1572440349.599951,83931.000,14066,7,MX,1,100,-64
1572440349.616544,83944.000,14066,7,MX,1,100,-63
1572440349.633137,83957.000,14066,7,MX,1,100,-63
1572440349.649729,83970.000,14066,7,MX,1,100,-63
1572440349.666322,83983.000,14066,7,MX,1,100,-63
1572440349.682915,83996.000,14066,7,MX,1,100,-64
1572440349.699668,84009.125,14084,8,MX,1,100,-64
1572440349.716420,84022.250,14084,8,MX,1,100,-64
1572440349.733173,84035.375,14084,8,MX,1,100,-63
1572440349.749925,84048.500,14084,8,MX,1,100,-63
1572440349.766678,84061.625,14084,8,MX,1,100,-64
1572440349.783430,84074.750,14084,8,MX,1,100,-64
1572440349.800183,84087.875,14084,8,MX,1,100,-64
1572440349.816935,84101.000,14084,8,MX,1,100,-64
1572440349.833688,84114.125,14102,8,MX,1,100,-64
1572440349.850440,84127.250,14102,8,MX,1,100,-64
1572440349.867193,84140.375,14102,8,MX,1,100,-64
1572440349.883945,84153.500,14102,8,MX,1,100,-64
1572440349.900698,84166.625,14102,8,MX,1,100,-63
1572440349.917450,84179.750,14102,8,MX,1,100,-63
1572440349.934203,84192.875,14102,8,MX,1,100,-63
1572440349.950955,84206.000,14102,8,MX,1,100,-63
1572440349.967730,84219.143,14119,7,MX,1,100,-63
1572440349.984506,84232.286,14119,7,MX,1,100,-63
1572440350.001281,84245.429,14119,7,MX,1,100,-63
1572440350.018056,84258.571,14119,7,MX,1,100,-64
1572440350.034832,84271.714,14119,7,MX,1,100,-64
1572440350.051607,84284.857,14119,7,MX,1,100,-62
1572440350.068382,84298.000,14119,7,MX,1,100,-62
1572440350.085135,84311.125,14137,8,MX,1,100,-62
1572440350.101887,84324.250,14137,8,MX,1,100,-63
1572440350.118639,84337.375,14137,8,MX,1,100,-63
1572440350.135392,84350.500,14137,8,MX,1,100,-64
1572440350.152144,84363.625,14137,8,MX,1,100,-64
1572440350.168897,84376.750,14137,8,MX,1,100,-62
1572440350.185649,84389.875,14137,8,MX,1,100,-62
1572440350.202402,84403.000,14137,8,MX,1,100,-62
1572440350.218995,84416.000,14156,8,MX,1,100,-64
1572440350.235588,84429.000,14156,8,MX,1,100,-64
1572440350.252181,84442.000,14156,8,MX,1,100,-63
1572440350.268774,84455.000,14156,8,MX,1,100,-63
1572440350.285367,84468.000,14156,8,MX,1,100,-63
1572440350.301960,84481.000,14156,8,MX,1,100,-63
1572440350.318552,84494.000,14156,8,MX,1,100,-63
1572440350.335145,84507.000,14156,8,MX,1,100,-63
1572440350.351898,84520.125,14174,8,MX,1,100,-63
1572440350.368650,84533.250,14174,8,MX,1,100,-63
1572440350.385403,84546.375,14174,8,MX,1,100,-63
1572440350.402155,84559.500,14174,8,MX,1,100,-63
1572440350.418908,84572.625,14174,8,MX,1,100,-62
1572440350.435660,84585.750,14174,8,MX,1,100,-62
1572440350.452413,84598.875,14174,8,MX,1,100,-62
1572440350.469165,84612.000,14174,8,MX,1,100,-63
1572440350.485758,84625.000,14192,7,MX,1,100,-63
1572440350.502351,84638.000,14192,7,MX,1,100,-63
1572440350.518944,84651.000,14192,7,MX,1,100,-63
1572440350.535537,84664.000,14192,7,MX,1,100,-63
1572440350.552130,84677.000,14192,7,MX,1,100,-63
1572440350.568723,84690.000,14192,7,MX,1,100,-63
1572440350.585316,84703.000,14192,7,MX,1,100,-63
1572440350.602068,84716.125,14210,8,MX,1,100,-63
1572440350.618821,84729.250,14210,8,MX,1,100,-63
1572440350.635573,84742.375,14210,8,MX,1,100,-63
1572440350.652326,84755.500,14210,8,MX,1,100,-63
1572440350.669078,84768.625,14210,8,MX,1,100,-63
1572440350.685831,84781.750,14210,8,MX,1,100,-63
1572440350.702583,84794.875,14210,8,MX,1,100,-63
1572440350.719336,84808.000,14210,8,MX,1,100,-63
1572440350.735769,84820.875,14227,8,MX,1,100,-63
1572440350.752203,84833.750,14227,8,MX,1,100,-63
1572440350.768636,84846.625,14227,8,MX,1,100,-63
1572440350.785069,84859.500,14227,8,MX,1,100,-63
1572440350.801503,84872.375,14227,8,MX,1,100,-63
1572440350.817936,84885.250,14227,8,MX,1,100,-62
1572440350.834369,84898.125,14227,8,MX,1,100,-62
1572440350.850803,84911.000,14227,8,MX,1,100,-62
1572440350.867943,84924.429,14244,7,MX,1,100,-63
1572440350.885083,84937.857,14244,7,MX,1,100,-63
1572440350.902223,84951.286,14244,7,MX,1,100,-63
1572440350.919363,84964.714,14244,7,MX,1,100,-63
1572440350.936503,84978.143,14244,7,MX,1,100,-63
1572440350.953643,84991.571,14244,7,MX,1,100,-63
1572440350.970783,85005.000,14244,7,MX,1,100,-63
1572440350.987375,85018.000,14262,8,MX,1,100,-63
1572440351.003968,85031.000,14262,8,MX,1,100,-63
1572440351.020561,85044.000,14262,8,MX,1,100,-63
1572440351.037154,85057.000,14262,8,MX,1,100,-63
1572440351.053747,85070.000,14262,8,MX,1,100,-63
1572440351.070340,85083.000,14262,8,MX,1,100,-63
1572440351.086933,85096.000,14262,8,MX,1,100,-63
1572440351.103526,85109.000,14262,8,MX,1,100,-63
1572440351.119959,85121.875,14280,8,MX,1,100,-63
1572440351.136393,85134.750,14280,8,MX,1,100,-63
1572440351.152826,85147.625,14280,8,MX,1,100,-62
1572440351.169260,85160.500,14280,8,MX,1,100,-62
1572440351.185693,85173.375,14280,8,MX,1,100,-61
1572440351.202126,85186.250,14280,8,MX,1,100,-61
1572440351.218560,85199.125,14280,8,MX,1,100,-61
1572440351.234993,85212.000,14280,8,MX,1,100,-63
1572440351.251586,85225.000,14299,8,MX,1,100,-63
1572440351.268179,85238.000,14299,8,MX,1,100,-64
1572440351.284772,85251.000,14299,8,MX,1,100,-64
1572440351.301365,85264.000,14299,8,MX,1,100,-63
1572440351.317958,85277.000,14299,8,MX,1,100,-63
1572440351.334551,85290.000,14299,8,MX,1,100,-63
1572440351.351144,85303.000,14299,8,MX,1,100,-63
1572440351.367737,85316.000,14299,8,MX,1,100,-63
1572440351.384170,85328.875,14317,8,MX,1,100,-63
1572440351.400604,85341.750,14317,8,MX,1,100,-63
1572440351.417037,85354.625,14317,8,MX,1,100,-63
1572440351.433470,85367.500,14317,8,MX,1,100,-63
1572440351.449903,85380.375,14317,8,MX,1,100,-63
1572440351.466337,85393.250,14317,8,MX,1,100,-63
1572440351.482770,85406.125,14317,8,MX,1,100,-63
1572440351.499204,85419.000,14317,8,MX,1,100,-63
1572440351.515614,85431.857,14335,7,MX,1,100,-64
1572440351.532025,85444.714,14335,7,MX,1,100,-64
1572440351.548435,85457.571,14335,7,MX,1,100,-64
1572440351.564846,85470.429,14335,7,MX,1,100,-64
1572440351.581257,85483.286,14335,7,MX,1,100,-63
1572440351.597667,85496.143,14335,7,MX,1,100,-63
1572440351.614078,85509.000,14335,7,MX,1,100,-63
1572440351.630831,85522.125,14353,8,MX,1,100,-64
1572440351.647583,85535.250,14353,8,MX,1,100,-64
1572440351.664335,85548.375,14353,8,MX,1,100,-64
1572440351.681088,85561.500,14353,8,MX,1,100,-64
1572440351.697840,85574.625,14353,8,MX,1,100,-64
1572440351.714593,85587.750,14353,8,MX,1,100,-64
1572440351.731345,85600.875,14353,8,MX,1,100,-64
1572440351.748098,85614.000,14353,8,MX,1,100,-62
1572440351.764850,85627.125,14371,8,MX,1,100,-62
1572440351.781603,85640.250,14371,8,MX,1,100,-62
1572440351.798355,85653.375,14371,8,MX,1,100,-62
1572440351.815108,85666.500,14371,8,MX,1,100,-62
1572440351.831860,85679.625,14371,8,MX,1,100,-62
1572440351.848613,85692.750,14371,8,MX,1,100,-62
1572440351.865365,85705.875,14371,8,MX,1,100,-63
1572440351.882118,85719.000,14371,8,MX,1,100,-63
1572440351.898870,85732.125,14389,8,MX,1,100,-63
1572440351.915623,85745.250,14389,8,MX,1,100,-63
1572440351.932375,85758.375,14389,8,MX,1,100,-63
1572440351.949128,85771.500,14389,8,MX,1,100,-63
1572440351.965880,85784.625,14389,8,MX,1,100,-63
1572440351.982633,85797.750,14389,8,MX,1,100,-63
1572440351.999385,85810.875,14389,8,MX,1,100,-63
1572440352.016138,85824.000,14389,8,MX,1,100,-63
1572440352.032731,85837.000,14407,8,MX,1,100,-63
1572440352.049324,85850.000,14407,8,MX,1,100,-63
1572440352.065916,85863.000,14407,8,MX,1,100,-63
1572440352.082509,85876.000,14407,8,MX,1,100,-63
1572440352.099102,85889.000,14407,8,MX,1,100,-63
1572440352.115695,85902.000,14407,8,MX,1,100,-61
1572440352.132288,85915.000,14407,8,MX,1,100,-61
1572440352.148881,85928.000,14407,8,MX,1,100,-62
1572440352.165474,85941.000,14425,7,MX,1,100,-62
1572440352.182067,85954.000,14425,7,MX,1,100,-62
1572440352.198660,85967.000,14425,7,MX,1,100,-63
1572440352.215253,85980.000,14425,7,MX,1,100,-63
1572440352.231846,85993.000,14425,7,MX,1,100,-62
1572440352.248439,86006.000,14425,7,MX,1,100,-62
1572440352.265032,86019.000,14425,7,MX,1,100,-62
1572440352.281625,86032.000,14444,8,MX,1,100,-61
1572440352.298218,86045.000,14444,8,MX,1,100,-61
1572440352.314811,86058.000,14444,8,MX,1,100,-61
1572440352.331403,86071.000,14444,8,MX,1,100,-61
1572440352.347996,86084.000,14444,8,MX,1,100,-61
1572440352.364589,86097.000,14444,8,MX,1,100,-61
1572440352.381182,86110.000,14444,8,MX,1,100,-61
1572440352.397775,86123.000,14444,8,MX,1,100,-60
1572440352.414368,86136.000,14462,8,MX,1,100,-60
1572440352.430961,86149.000,14462,8,MX,1,100,-61
1572440352.447554,86162.000,14462,8,MX,1,100,-61
1572440352.464147,86175.000,14462,8,MX,1,100,-61
1572440352.480740,86188.000,14462,8,MX,1,100,-61
1572440352.497333,86201.000,14462,8,MX,1,100,-61
1572440352.513926,86214.000,14462,8,MX,1,100,-60
1572440352.530519,86227.000,14462,8,MX,1,100,-60
1572440352.547112,86240.000,14480,7,MX,1,100,-60
1572440352.563704,86253.000,14480,7,MX,1,100,-61
1572440352.580297,86266.000,14480,7,MX,1,100,-61
1572440352.596890,86279.000,14480,7,MX,1,100,-61
1572440352.613483,86292.000,14480,7,MX,1,100,-61
1572440352.630076,86305.000,14480,7,MX,1,100,-61
1572440352.646669,86318.000,14480,7,MX,1,100,-61
1572440352.663581,86331.250,14498,8,MX,1,100,-61
1572440352.680493,86344.500,14498,8,MX,1,100,-60
1572440352.697405,86357.750,14498,8,MX,1,100,-60
1572440352.714317,86371.000,14498,8,MX,1,100,-60
1572440352.731229,86384.250,14498,8,MX,1,100,-60
1572440352.748142,86397.500,14498,8,MX,1,100,-60
1572440352.765054,86410.750,14498,8,MX,1,100,-61
1572440352.781965,86424.000,14498,8,MX,1,100,-61
1572440352.798853,86437.231,14519,13,MX,1,100,-60
1572440352.815740,86450.462,14519,13,MX,1,100,-60
1572440352.832628,86463.692,14519,13,MX,1,100,-60
1572440352.849515,86476.923,14519,13,MX,1,100,-61
1572440352.866403,86490.154,14519,13,MX,1,100,-61
1572440352.883290,86503.385,14519,13,MX,1,100,-60
1572440352.900178,86516.615,14519,13,MX,1,100,-60
1572440352.917065,86529.846,14519,13,MX,1,100,-60
1572440352.933953,86543.077,14519,13,MX,1,100,-61
1572440352.950840,86556.308,14519,13,MX,1,100,-61
1572440352.967728,86569.538,14519,13,MX,1,100,-61
1572440352.984615,86582.769,14519,13,MX,1,100,-61
1572440353.001503,86596.000,14519,13,MX,1,100,-61
1572440353.018278,86609.143,14539,7,MX,1,100,-61
1572440353.035053,86622.286,14539,7,MX,1,100,-61
1572440353.051829,86635.429,14539,7,MX,1,100,-60
1572440353.068604,86648.571,14539,7,MX,1,100,-60
1572440353.085379,86661.714,14539,7,MX,1,100,-59
1572440353.102154,86674.857,14539,7,MX,1,100,-59
1572440353.118930,86688.000,14539,7,MX,1,100,-59
1572440353.135363,86700.875,14555,8,MX,1,100,-60
1572440353.151797,86713.750,14555,8,MX,1,100,-60
1572440353.168230,86726.625,14555,8,MX,1,100,-60
1572440353.184663,86739.500,14555,8,MX,1,100,-60
1572440353.201097,86752.375,14555,8,MX,1,100,-59
1572440353.217530,86765.250,14555,8,MX,1,100,-59
1572440353.233963,86778.125,14555,8,MX,1,100,-59
1572440353.250397,86791.000,14555,8,MX,1,100,-59
1572440353.267719,86804.571,14574,7,MX,1,100,-59
1572440353.285042,86818.143,14574,7,MX,1,100,-59
1572440353.302364,86831.714,14574,7,MX,1,100,-59
1572440353.319686,86845.286,14574,7,MX,1,100,-59
1572440353.337008,86858.857,14574,7,MX,1,100,-58
1572440353.354331,86872.429,14574,7,MX,1,100,-58
1572440353.371653,86886.000,14574,7,MX,1,100,-59
1572440353.388086,86898.875,14592,8,MX,1,100,-59
1572440353.404520,86911.750,14592,8,MX,1,100,-59
1572440353.420953,86924.625,14592,8,MX,1,100,-59
1572440353.437387,86937.500,14592,8,MX,1,100,-59
1572440353.453820,86950.375,14592,8,MX,1,100,-58
1572440353.470253,86963.250,14592,8,MX,1,100,-58
1572440353.486687,86976.125,14592,8,MX,1,100,-60
1572440353.503120,86989.000,14592,8,MX,1,100,-60
1572440353.519873,87002.125,14610,8,MX,1,100,-60
1572440353.536625,87015.250,14610,8,MX,1,100,-60
1572440353.553378,87028.375,14610,8,MX,1,100,-60
1572440353.570130,87041.500,14610,8,MX,1,100,-59
1572440353.586883,87054.625,14610,8,MX,1,100,-59
1572440353.603635,87067.750,14610,8,MX,1,100,-59
1572440353.620388,87080.875,14610,8,MX,1,100,-59
1572440353.637140,87094.000,14610,8,MX,1,100,-59
1572440353.653733,87107.000,14628,7,MX,1,100,-60
1572440353.670326,87120.000,14628,7,MX,1,100,-60
1572440353.686919,87133.000,14628,7,MX,1,100,-60
1572440353.703512,87146.000,14628,7,MX,1,100,-59
1572440353.720105,87159.000,14628,7,MX,1,100,-59
1572440353.736698,87172.000,14628,7,MX,1,100,-59
1572440353.753290,87185.000,14628,7,MX,1,100,-59
1572440353.770043,87198.125,14646,8,MX,1,100,-59
1572440353.786795,87211.250,14646,8,MX,1,100,-59
1572440353.803548,87224.375,14646,8,MX,1,100,-59
1572440353.820301,87237.500,14646,8,MX,1,100,-60
1572440353.837053,87250.625,14646,8,MX,1,100,-60
1572440353.853806,87263.750,14646,8,MX,1,100,-59
1572440353.870558,87276.875,14646,8,MX,1,100,-59
1572440353.887311,87290.000,14646,8,MX,1,100,-59
1572440353.903903,87303.000,14664,8,MX,1,100,-60
1572440353.920496,87316.000,14664,8,MX,1,100,-60
1572440353.937089,87329.000,14664,8,MX,1,100,-60
1572440353.953682,87342.000,14664,8,MX,1,100,-60
1572440353.970275,87355.000,14664,8,MX,1,100,-59
1572440353.986868,87368.000,14664,8,MX,1,100,-59
1572440354.003461,87381.000,14664,8,MX,1,100,-59
1572440354.020054,87394.000,14664,8,MX,1,100,-59
1572440354.036647,87407.000,14682,8,MX,1,100,-59
1572440354.053240,87420.000,14682,8,MX,1,100,-59
1572440354.069833,87433.000,14682,8,MX,1,100,-59
1572440354.086426,87446.000,14682,8,MX,1,100,-59
1572440354.103019,87459.000,14682,8,MX,1,100,-60
1572440354.119612,87472.000,14682,8,MX,1,100,-60
1572440354.136204,87485.000,14682,8,MX,1,100,-60
1572440354.152797,87498.000,14682,8,MX,1,100,-60
1572440354.169390,87511.000,14700,7,MX,1,100,-60
1572440354.185983,87524.000,14700,7,MX,1,100,-60
1572440354.202576,87537.000,14700,7,MX,1,100,-60
1572440354.219169,87550.000,14700,7,MX,1,100,-58
1572440354.235762,87563.000,14700,7,MX,1,100,-58
1572440354.252355,87576.000,14700,7,MX,1,100,-58
1572440354.268948,87589.000,14700,7,MX,1,100,-60
1572440354.285541,87602.000,14719,8,MX,1,100,-60
1572440354.302134,87615.000,14719,8,MX,1,100,-59
1572440354.318727,87628.000,14719,8,MX,1,100,-59
1572440354.335320,87641.000,14719,8,MX,1,100,-59
1572440354.351913,87654.000,14719,8,MX,1,100,-59
1572440354.368505,87667.000,14719,8,MX,1,100,-59
1572440354.385098,87680.000,14719,8,MX,1,100,-59
1572440354.401691,87693.000,14719,8,MX,1,100,-59
1572440354.417965,87705.750,14737,8,MX,1,100,-59
1572440354.434239,87718.500,14737,8,MX,1,100,-59
1572440354.450513,87731.250,14737,8,MX,1,100,-59
1572440354.466787,87744.000,14737,8,MX,1,100,-58
1572440354.483061,87756.750,14737,8,MX,1,100,-58
1572440354.499335,87769.500,14737,8,MX,1,100,-60
1572440354.515608,87782.250,14737,8,MX,1,100,-60
1572440354.531882,87795.000,14737,8,MX,1,100,-60
1572440354.548475,87808.000,14755,8,MX,1,100,-60
1572440354.565068,87821.000,14755,8,MX,1,100,-60
1572440354.581661,87834.000,14755,8,MX,1,100,-60
1572440354.598254,87847.000,14755,8,MX,1,100,-60
1572440354.614847,87860.000,14755,8,MX,1,100,-58
1572440354.631440,87873.000,14755,8,MX,1,100,-58
1572440354.648033,87886.000,14755,8,MX,1,100,-58
1572440354.664626,87899.000,14755,8,MX,1,100,-58
1572440354.681378,87912.125,14773,8,MX,1,100,-58
1572440354.698131,87925.250,14773,8,MX,1,100,-60
1572440354.714883,87938.375,14773,8,MX,1,100,-60
1572440354.731636,87951.500,14773,8,MX,1,100,-60
1572440354.748388,87964.625,14773,8,MX,1,100,-60
1572440354.765141,87977.750,14773,8,MX,1,100,-60
1572440354.781893,87990.875,14773,8,MX,1,100,-59
1572440354.798645,88004.000,14773,8,MX,1,100,-59
1572440354.815238,88017.000,14791,7,MX,1,100,-59
1572440354.831831,88030.000,14791,7,MX,1,100,-59
1572440354.848424,88043.000,14791,7,MX,1,100,-59
1572440354.865017,88056.000,14791,7,MX,1,100,-59
1572440354.881610,88069.000,14791,7,MX,1,100,-59
1572440354.898203,88082.000,14791,7,MX,1,100,-59
1572440354.914796,88095.000,14791,7,MX,1,100,-59
1572440354.931389,88108.000,14809,8,MX,1,100,-59
1572440354.947982,88121.000,14809,8,MX,1,100,-59
1572440354.964575,88134.000,14809,8,MX,1,100,-59
1572440354.981168,88147.000,14809,8,MX,1,100,-59
1572440354.997761,88160.000,14809,8,MX,1,100,-59
1572440355.014354,88173.000,14809,8,MX,1,100,-59
1572440355.030947,88186.000,14809,8,MX,1,100,-59
1572440355.047540,88199.000,14809,8,MX,1,100,-59
1572440355.064292,88212.125,14827,8,MX,1,100,-60
1572440355.081045,88225.250,14827,8,MX,1,100,-60
1572440355.097797,88238.375,14827,8,MX,1,100,-59
1572440355.114550,88251.500,14827,8,MX,1,100,-59
1572440355.131302,88264.625,14827,8,MX,1,100,-59
1572440355.148055,88277.750,14827,8,MX,1,100,-59
1572440355.164807,88290.875,14827,8,MX,1,100,-59
1572440355.181560,88304.000,14827,8,MX,1,100,-60
1572440355.197993,88316.875,14845,8,MX,1,100,-60
1572440355.214426,88329.750,14845,8,MX,1,100,-60
1572440355.230860,88342.625,14845,8,MX,1,100,-59
1572440355.247293,88355.500,14845,8,MX,1,100,-59
1572440355.263726,88368.375,14845,8,MX,1,100,-59
1572440355.280160,88381.250,14845,8,MX,1,100,-59
1572440355.296593,88394.125,14845,8,MX,1,100,-59
1572440355.313027,88407.000,14845,8,MX,1,100,-60
1572440355.329984,88420.286,14864,7,MX,1,100,-60
1572440355.346942,88433.571,14864,7,MX,1,100,-60
1572440355.363899,88446.857,14864,7,MX,1,100,-60
1572440355.380857,88460.143,14864,7,MX,1,100,-60
1572440355.397815,88473.429,14864,7,MX,1,100,-59
1572440355.414772,88486.714,14864,7,MX,1,100,-59
1572440355.431730,88500.000,14864,7,MX,1,100,-59
1572440355.448004,88512.750,14882,8,MX,1,100,-59
1572440355.464278,88525.500,14882,8,MX,1,100,-59
1572440355.480551,88538.250,14882,8,MX,1,100,-59
1572440355.496825,88551.000,14882,8,MX,1,100,-59
1572440355.513099,88563.750,14882,8,MX,1,100,-60
1572440355.529373,88576.500,14882,8,MX,1,100,-60
1572440355.545647,88589.250,14882,8,MX,1,100,-60
1572440355.561921,88602.000,14882,8,MX,1,100,-60
1572440355.578673,88615.125,14900,8,MX,1,100,-60
1572440355.595426,88628.250,14900,8,MX,1,100,-60
1572440355.612178,88641.375,14900,8,MX,1,100,-60
1572440355.628931,88654.500,14900,8,MX,1,100,-60
1572440355.645683,88667.625,14900,8,MX,1,100,-60
1572440355.662436,88680.750,14900,8,MX,1,100,-60
1572440355.679188,88693.875,14900,8,MX,1,100,-60
1572440355.695940,88707.000,14900,8,MX,1,100,-60
1572440355.713012,88720.375,14918,8,MX,1,100,-59
1572440355.730084,88733.750,14918,8,MX,1,100,-59
1572440355.747155,88747.125,14918,8,MX,1,100,-60
1572440355.764227,88760.500,14918,8,MX,1,100,-60
1572440355.781298,88773.875,14918,8,MX,1,100,-60
1572440355.798370,88787.250,14918,8,MX,1,100,-59
1572440355.815442,88800.625,14918,8,MX,1,100,-59
1572440355.832513,88814.000,14918,8,MX,1,100,-60
1572440355.849106,88827.000,14936,7,MX,1,100,-60
1572440355.865699,88840.000,14936,7,MX,1,100,-60
1572440355.882292,88853.000,14936,7,MX,1,100,-61
1572440355.898885,88866.000,14936,7,MX,1,100,-61
1572440355.915478,88879.000,14936,7,MX,1,100,-60
1572440355.932071,88892.000,14936,7,MX,1,100,-60
1572440355.948664,88905.000,14936,7,MX,1,100,-59
1572440355.965416,88918.125,14954,8,MX,1,100,-59
1572440355.982169,88931.250,14954,8,MX,1,100,-59
1572440355.998921,88944.375,14954,8,MX,1,100,-59
1572440356.015674,88957.500,14954,8,MX,1,100,-59
1572440356.032426,88970.625,14954,8,MX,1,100,-60
1572440356.049179,88983.750,14954,8,MX,1,100,-60
1572440356.065931,88996.875,14954,8,MX,1,100,-60
1572440356.082684,89010.000,14954,8,MX,1,100,-60
1572440356.099277,89023.000,14971,8,MX,1,100,-60
1572440356.115870,89036.000,14971,8,MX,1,100,-59
1572440356.132463,89049.000,14971,8,MX,1,100,-59
1572440356.149055,89062.000,14971,8,MX,1,100,-59
1572440356.165648,89075.000,14971,8,MX,1,100,-59
1572440356.182241,89088.000,14971,8,MX,1,100,-59
1572440356.198834,89101.000,14971,8,MX,1,100,-59
1572440356.215427,89114.000,14971,8,MX,1,100,-59
1572440356.232180,89127.125,14989,8,MX,1,100,-59
1572440356.248932,89140.250,14989,8,MX,1,100,-59
1572440356.265685,89153.375,14989,8,MX,1,100,-59
1572440356.282437,89166.500,14989,8,MX,1,100,-60
1572440356.299190,89179.625,14989,8,MX,1,100,-60
1572440356.315942,89192.750,14989,8,MX,1,100,-60
1572440356.332695,89205.875,14989,8,MX,1,100,-60
1572440356.349447,89219.000,14989,8,MX,1,100,-60
1572440356.366040,89232.000,15008,7,MX,1,100,-59
1572440356.382633,89245.000,15008,7,MX,1,100,-59
1572440356.399226,89258.000,15008,7,MX,1,100,-59
1572440356.415819,89271.000,15008,7,MX,1,100,-59
1572440356.432412,89284.000,15008,7,MX,1,100,-60
1572440356.449005,89297.000,15008,7,MX,1,100,-60
1572440356.465598,89310.000,15008,7,MX,1,100,-60
1572440356.482191,89323.000,15026,8,MX,1,100,-60
1572440356.498784,89336.000,15026,8,MX,1,100,-60
1572440356.515376,89349.000,15026,8,MX,1,100,-58
1572440356.531969,89362.000,15026,8,MX,1,100,-58
1572440356.548562,89375.000,15026,8,MX,1,100,-58
1572440356.565155,89388.000,15026,8,MX,1,100,-60
1572440356.581748,89401.000,15026,8,MX,1,100,-60
1572440356.598341,89414.000,15026,8,MX,1,100,-59
1572440356.614934,89427.000,15044,8,MX,1,100,-59
1572440356.631527,89440.000,15044,8,MX,1,100,-59
1572440356.648120,89453.000,15044,8,MX,1,100,-59
1572440356.664713,89466.000,15044,8,MX,1,100,-59
1572440356.681306,89479.000,15044,8,MX,1,100,-60
1572440356.697899,89492.000,15044,8,MX,1,100,-60
1572440356.714492,89505.000,15044,8,MX,1,100,-60
1572440356.731085,89518.000,15044,8,MX,1,100,-59
1572440356.747837,89531.125,15062,8,MX,1,100,-59
1572440356.764590,89544.250,15062,8,MX,1,100,-60
1572440356.781342,89557.375,15062,8,MX,1,100,-60
1572440356.798095,89570.500,15062,8,MX,1,100,-60
1572440356.814847,89583.625,15062,8,MX,1,100,-60
1572440356.831599,89596.750,15062,8,MX,1,100,-60
1572440356.848352,89609.875,15062,8,MX,1,100,-60
1572440356.865104,89623.000,15062,8,MX,1,100,-60
1572440356.881697,89636.000,15080,7,MX,1,100,-59
1572440356.898290,89649.000,15080,7,MX,1,100,-59
1572440356.914883,89662.000,15080,7,MX,1,100,-59
1572440356.931476,89675.000,15080,7,MX,1,100,-59
1572440356.948069,89688.000,15080,7,MX,1,100,-59
1572440356.964662,89701.000,15080,7,MX,1,100,-59
1572440356.981255,89714.000,15080,7,MX,1,100,-59
1572440356.998008,89727.125,15098,8,MX,1,100,-60
1572440357.014760,89740.250,15098,8,MX,1,100,-60
1572440357.031512,89753.375,15098,8,MX,1,100,-60
1572440357.048265,89766.500,15098,8,MX,1,100,-61
1572440357.065017,89779.625,15098,8,MX,1,100,-61
1572440357.081770,89792.750,15098,8,MX,1,100,-60
1572440357.098522,89805.875,15098,8,MX,1,100,-60
1572440357.115275,89819.000,15098,8,MX,1,100,-60
1572440357.131708,89831.875,15114,8,MX,1,100,-62
1572440357.148142,89844.750,15114,8,MX,1,100,-62
1572440357.164575,89857.625,15114,8,MX,1,100,-62
1572440357.181009,89870.500,15114,8,MX,1,100,-62
1572440357.197442,89883.375,15114,8,MX,1,100,-62
1572440357.213875,89896.250,15114,8,MX,1,100,-61
1572440357.230309,89909.125,15114,8,MX,1,100,-61
1572440357.246742,89922.000,15114,8,MX,1,100,-61
1572440357.263175,89934.875,15133,8,MX,1,100,-61
1572440357.279609,89947.750,15133,8,MX,1,100,-61
1572440357.296042,89960.625,15133,8,MX,1,100,-63
1572440357.312476,89973.500,15133,8,MX,1,100,-63
1572440357.328909,89986.375,15133,8,MX,1,100,-62
1572440357.345342,89999.250,15133,8,MX,1,100,-62
1572440357.361776,90012.125,15133,8,MX,1,100,-62
1572440357.378209,90025.000,15133,8,MX,1,100,-62
1572440357.394984,90038.143,15151,7,MX,1,100,-62
1572440357.411760,90051.286,15151,7,MX,1,100,-63
1572440357.428535,90064.429,15151,7,MX,1,100,-63
1572440357.445310,90077.571,15151,7,MX,1,100,-63
1572440357.462085,90090.714,15151,7,MX,1,100,-63
1572440357.478861,90103.857,15151,7,MX,1,100,-63
1572440357.495636,90117.000,15151,7,MX,1,100,-63
1572440357.512069,90129.875,15169,8,MX,1,100,-63
1572440357.528503,90142.750,15169,8,MX,1,100,-64
1572440357.544936,90155.625,15169,8,MX,1,100,-64
1572440357.561370,90168.500,15169,8,MX,1,100,-63
1572440357.577803,90181.375,15169,8,MX,1,100,-63
1572440357.594236,90194.250,15169,8,MX,1,100,-63
1572440357.610670,90207.125,15169,8,MX,1,100,-63
1572440357.627103,90220.000,15169,8,MX,1,100,-63
1572440357.643537,90232.875,15187,8,MX,1,100,-63
1572440357.659970,90245.750,15187,8,MX,1,100,-63
1572440357.676404,90258.625,15187,8,MX,1,100,-63
1572440357.692837,90271.500,15187,8,MX,1,100,-64
1572440357.709270,90284.375,15187,8,MX,1,100,-64
1572440357.725703,90297.250,15187,8,MX,1,100,-63
1572440357.742137,90310.125,15187,8,MX,1,100,-63
1572440357.758570,90323.000,15187,8,MX,1,100,-63
1572440357.775482,90336.250,15205,8,MX,1,100,-63
1572440357.792394,90349.500,15205,8,MX,1,100,-63
1572440357.809306,90362.750,15205,8,MX,1,100,-63
1572440357.826219,90376.000,15205,8,MX,1,100,-63
1572440357.843131,90389.250,15205,8,MX,1,100,-63
1572440357.860043,90402.500,15205,8,MX,1,100,-63
1572440357.876955,90415.750,15205,8,MX,1,100,-63
1572440357.893867,90429.000,15205,8,MX,1,100,-63
1572440357.910460,90442.000,15223,7,MX,1,100,-63
1572440357.927052,90455.000,15223,7,MX,1,100,-63
1572440357.943645,90468.000,15223,7,MX,1,100,-63
1572440357.960238,90481.000,15223,7,MX,1,100,-63
1572440357.976831,90494.000,15223,7,MX,1,100,-63
1572440357.993424,90507.000,15223,7,MX,1,100,-63
1572440358.010017,90520.000,15223,7,MX,1,100,-64
1572440358.026770,90533.125,15241,8,MX,1,100,-64
1572440358.043522,90546.250,15241,8,MX,1,100,-64
1572440358.060275,90559.375,15241,8,MX,1,100,-63
1572440358.077027,90572.500,15241,8,MX,1,100,-63
1572440358.093780,90585.625,15241,8,MX,1,100,-64
1572440358.110532,90598.750,15241,8,MX,1,100,-64
1572440358.127285,90611.875,15241,8,MX,1,100,-63
1572440358.144037,90625.000,15241,8,MX,1,100,-63
1572440358.160949,90638.250,15259,8,MX,1,100,-63
1572440358.177861,90651.500,15259,8,MX,1,100,-64
1572440358.194773,90664.750,15259,8,MX,1,100,-64
1572440358.211685,90678.000,15259,8,MX,1,100,-64
1572440358.228597,90691.250,15259,8,MX,1,100,-64
1572440358.245509,90704.500,15259,8,MX,1,100,-64
1572440358.262421,90717.750,15259,8,MX,1,100,-63
1572440358.279333,90731.000,15259,8,MX,1,100,-63
1572440358.295926,90744.000,15278,7,MX,1,100,-63
1572440358.312519,90757.000,15278,7,MX,1,100,-63
1572440358.329112,90770.000,15278,7,MX,1,100,-63
1572440358.345705,90783.000,15278,7,MX,1,100,-63
1572440358.362298,90796.000,15278,7,MX,1,100,-63
1572440358.378891,90809.000,15278,7,MX,1,100,-63
1572440358.395484,90822.000,15278,7,MX,1,100,-63
1572440358.411917,90834.875,15296,8,MX,1,100,-64
1572440358.428351,90847.750,15296,8,MX,1,100,-64
1572440358.444784,90860.625,15296,8,MX,1,100,-64
1572440358.461217,90873.500,15296,8,MX,1,100,-63
1572440358.477651,90886.375,15296,8,MX,1,100,-63
1572440358.494084,90899.250,15296,8,MX,1,100,-63
1572440358.510518,90912.125,15296,8,MX,1,100,-63
1572440358.526951,90925.000,15296,8,MX,1,100,-63
1572440358.543704,90938.125,15314,8,MX,1,100,-64
1572440358.560456,90951.250,15314,8,MX,1,100,-64
1572440358.577209,90964.375,15314,8,MX,1,100,-64
1572440358.593961,90977.500,15314,8,MX,1,100,-64
1572440358.610713,90990.625,15314,8,MX,1,100,-64
1572440358.627466,91003.750,15314,8,MX,1,100,-64
1572440358.644218,91016.875,15314,8,MX,1,100,-64
1572440358.660971,91030.000,15314,8,MX,1,100,-62
1572440358.677564,91043.000,15332,8,MX,1,100,-62
1572440358.694157,91056.000,15332,8,MX,1,100,-63
1572440358.710750,91069.000,15332,8,MX,1,100,-63
1572440358.727343,91082.000,15332,8,MX,1,100,-63
1572440358.743936,91095.000,15332,8,MX,1,100,-63
1572440358.760529,91108.000,15332,8,MX,1,100,-63
1572440358.777122,91121.000,15332,8,MX,1,100,-64
1572440358.793714,91134.000,15332,8,MX,1,100,-64
1572440358.810467,91147.125,15350,8,MX,1,100,-64
1572440358.827219,91160.250,15350,8,MX,1,100,-63
1572440358.843972,91173.375,15350,8,MX,1,100,-63
1572440358.860724,91186.500,15350,8,MX,1,100,-64
1572440358.877477,91199.625,15350,8,MX,1,100,-64
1572440358.894229,91212.750,15350,8,MX,1,100,-63
1572440358.910982,91225.875,15350,8,MX,1,100,-63
1572440358.927734,91239.000,15350,8,MX,1,100,-63
1572440358.944327,91252.000,15368,7,MX,1,100,-64
1572440358.960920,91265.000,15368,7,MX,1,100,-64
1572440358.977513,91278.000,15368,7,MX,1,100,-64
1572440358.994106,91291.000,15368,7,MX,1,100,-64
1572440359.010699,91304.000,15368,7,MX,1,100,-64
1572440359.027292,91317.000,15368,7,MX,1,100,-63
1572440359.043885,91330.000,15368,7,MX,1,100,-63
1572440359.060797,91343.250,15386,8,MX,1,100,-64
1572440359.077709,91356.500,15386,8,MX,1,100,-64
1572440359.094621,91369.750,15386,8,MX,1,100,-64
1572440359.111533,91383.000,15386,8,MX,1,100,-64
1572440359.128445,91396.250,15386,8,MX,1,100,-64
1572440359.145357,91409.500,15386,8,MX,1,100,-64
1572440359.162269,91422.750,15386,8,MX,1,100,-64
1572440359.179181,91436.000,15386,8,MX,1,100,-64
1572440359.195934,91449.125,15404,8,MX,1,100,-64
1572440359.212686,91462.250,15404,8,MX,1,100,-64
1572440359.229439,91475.375,15404,8,MX,1,100,-64
1572440359.246191,91488.500,15404,8,MX,1,100,-64
1572440359.262944,91501.625,15404,8,MX,1,100,-62
1572440359.279696,91514.750,15404,8,MX,1,100,-62
1572440359.296448,91527.875,15404,8,MX,1,100,-62
1572440359.313201,91541.000,15404,8,MX,1,100,-64
1572440359.329794,91554.000,15426,13,MX,1,100,-64
1572440359.346387,91567.000,15426,13,MX,1,100,-63
1572440359.362980,91580.000,15426,13,MX,1,100,-63
1572440359.379573,91593.000,15426,13,MX,1,100,-63
1572440359.396166,91606.000,15426,13,MX,1,100,-63
1572440359.412759,91619.000,15426,13,MX,1,100,-63
1572440359.429352,91632.000,15426,13,MX,1,100,-64
1572440359.445945,91645.000,15426,13,MX,1,100,-64
1572440359.462538,91658.000,15426,13,MX,1,100,-64
1572440359.479130,91671.000,15426,13,MX,1,100,-64
1572440359.495723,91684.000,15426,13,MX,1,100,-64
1572440359.512316,91697.000,15426,13,MX,1,100,-64
1572440359.528909,91710.000,15426,13,MX,1,100,-64
1572440359.545137,91722.714,15444,7,MX,1,100,-63
1572440359.561366,91735.429,15444,7,MX,1,100,-63
1572440359.577594,91748.143,15444,7,MX,1,100,-63
1572440359.593822,91760.857,15444,7,MX,1,100,-63
1572440359.610050,91773.571,15444,7,MX,1,100,-63
1572440359.626279,91786.286,15444,7,MX,1,100,-63
1572440359.642507,91799.000,15444,7,MX,1,100,-63
1572440359.659260,91812.125,15462,8,MX,1,100,-63
1572440359.676012,91825.250,15462,8,MX,1,100,-63
1572440359.692765,91838.375,15462,8,MX,1,100,-63
1572440359.709517,91851.500,15462,8,MX,1,100,-63
1572440359.726269,91864.625,15462,8,MX,1,100,-63
1572440359.743022,91877.750,15462,8,MX,1,100,-63
1572440359.759774,91890.875,15462,8,MX,1,100,-64
1572440359.776527,91904.000,15462,8,MX,1,100,-64
1572440359.793302,91917.143,15480,7,MX,1,100,-63
1572440359.810077,91930.286,15480,7,MX,1,100,-63
1572440359.826853,91943.429,15480,7,MX,1,100,-64
1572440359.843628,91956.571,15480,7,MX,1,100,-64
1572440359.860403,91969.714,15480,7,MX,1,100,-64
1572440359.877178,91982.857,15480,7,MX,1,100,-64
1572440359.893954,91996.000,15480,7,MX,1,100,-64
1572440359.910706,92009.125,15498,8,MX,1,100,-63
1572440359.927459,92022.250,15498,8,MX,1,100,-63
1572440359.944211,92035.375,15498,8,MX,1,100,-63
1572440359.960964,92048.500,15498,8,MX,1,100,-63
1572440359.977716,92061.625,15498,8,MX,1,100,-63
1572440359.994469,92074.750,15498,8,MX,1,100,-64
1572440360.011221,92087.875,15498,8,MX,1,100,-64
1572440360.027974,92101.000,15498,8,MX,1,100,-64
1572440360.044726,92114.125,15516,8,MX,1,100,-64
1572440360.061479,92127.250,15516,8,MX,1,100,-64
1572440360.078231,92140.375,15516,8,MX,1,100,-65
1572440360.094984,92153.500,15516,8,MX,1,100,-65
1572440360.111736,92166.625,15516,8,MX,1,100,-63
1572440360.128489,92179.750,15516,8,MX,1,100,-63
1572440360.145241,92192.875,15516,8,MX,1,100,-63
1572440360.161994,92206.000,15516,8,MX,1,100,-64
1572440360.178586,92219.000,15534,7,MX,1,100,-64
1572440360.195179,92232.000,15534,7,MX,1,100,-63
1572440360.211772,92245.000,15534,7,MX,1,100,-63
1572440360.228365,92258.000,15534,7,MX,1,100,-63
1572440360.244958,92271.000,15534,7,MX,1,100,-64
1572440360.261551,92284.000,15534,7,MX,1,100,-64
1572440360.278144,92297.000,15534,7,MX,1,100,-63
1572440360.294578,92309.875,15553,8,MX,1,100,-63
1572440360.311011,92322.750,15553,8,MX,1,100,-64
1572440360.327444,92335.625,15553,8,MX,1,100,-64
1572440360.343878,92348.500,15553,8,MX,1,100,-64
1572440360.360311,92361.375,15553,8,MX,1,100,-64
1572440360.376745,92374.250,15553,8,MX,1,100,-64
1572440360.393178,92387.125,15553,8,MX,1,100,-64
1572440360.409611,92400.000,15553,8,MX,1,100,-64
1572440360.426204,92413.000,15571,8,MX,1,100,-64
1572440360.442797,92426.000,15571,8,MX,1,100,-63
1572440360.459390,92439.000,15571,8,MX,1,100,-63
1572440360.475983,92452.000,15571,8,MX,1,100,-64
1572440360.492576,92465.000,15571,8,MX,1,100,-64
1572440360.509169,92478.000,15571,8,MX,1,100,-64
1572440360.525762,92491.000,15571,8,MX,1,100,-63
1572440360.542355,92504.000,15571,8,MX,1,100,-63
1572440360.558948,92517.000,15589,8,MX,1,100,-63
1572440360.575541,92530.000,15589,8,MX,1,100,-63
1572440360.592134,92543.000,15589,8,MX,1,100,-64
1572440360.608727,92556.000,15589,8,MX,1,100,-64
1572440360.625319,92569.000,15589,8,MX,1,100,-64
1572440360.641912,92582.000,15589,8,MX,1,100,-65
1572440360.658505,92595.000,15589,8,MX,1,100,-65
1572440360.675098,92608.000,15589,8,MX,1,100,-64
1572440360.691372,92620.750,15607,8,MX,1,100,-64
1572440360.707646,92633.500,15607,8,MX,1,100,-64
1572440360.723920,92646.250,15607,8,MX,1,100,-63
1572440360.740194,92659.000,15607,8,MX,1,100,-63
1572440360.756467,92671.750,15607,8,MX,1,100,-63
1572440360.772741,92684.500,15607,8,MX,1,100,-63
1572440360.789015,92697.250,15607,8,MX,1,100,-64
1572440360.805289,92710.000,15607,8,MX,1,100,-64
1572440360.822064,92723.143,15625,7,MX,1,100,-64
1572440360.838840,92736.286,15625,7,MX,1,100,-64
1572440360.855615,92749.429,15625,7,MX,1,100,-64
1572440360.872390,92762.571,15625,7,MX,1,100,-63
1572440360.889165,92775.714,15625,7,MX,1,100,-63
1572440360.905941,92788.857,15625,7,MX,1,100,-63
1572440360.922716,92802.000,15625,7,MX,1,100,-63
1572440360.939628,92815.250,15643,8,MX,1,100,-63
1572440360.956540,92828.500,15643,8,MX,1,100,-63
1572440360.973452,92841.750,15643,8,MX,1,100,-63
1572440360.990364,92855.000,15643,8,MX,1,100,-63
1572440361.007276,92868.250,15643,8,MX,1,100,-63
1572440361.024188,92881.500,15643,8,MX,1,100,-63
1572440361.041100,92894.750,15643,8,MX,1,100,-63
1572440361.058012,92908.000,15643,8,MX,1,100,-63
1572440361.074924,92921.250,15661,8,MX,1,100,-63
1572440361.091836,92934.500,15661,8,MX,1,100,-63
1572440361.108748,92947.750,15661,8,MX,1,100,-63
1572440361.125660,92961.000,15661,8,MX,1,100,-63
1572440361.142572,92974.250,15661,8,MX,1,100,-63
1572440361.159484,92987.500,15661,8,MX,1,100,-64
1572440361.176396,93000.750,15661,8,MX,1,100,-64
1572440361.193308,93014.000,15661,8,MX,1,100,-64
1572440361.209901,93027.000,15679,7,MX,1,100,-63
1572440361.226494,93040.000,15679,7,MX,1,100,-63
1572440361.243087,93053.000,15679,7,MX,1,100,-63
1572440361.259680,93066.000,15679,7,MX,1,100,-63
1572440361.276273,93079.000,15679,7,MX,1,100,-63
1572440361.292866,93092.000,15679,7,MX,1,100,-63
1572440361.309459,93105.000,15679,7,MX,1,100,-63
1572440361.326052,93118.000,15698,8,MX,1,100,-64
1572440361.342645,93131.000,15698,8,MX,1,100,-64
1572440361.359238,93144.000,15698,8,MX,1,100,-64
1572440361.375831,93157.000,15698,8,MX,1,100,-64
1572440361.392424,93170.000,15698,8,MX,1,100,-64
1572440361.409017,93183.000,15698,8,MX,1,100,-63
1572440361.425610,93196.000,15698,8,MX,1,100,-63
1572440361.442203,93209.000,15698,8,MX,1,100,-63
1572440361.458796,93222.000,15716,8,MX,1,100,-63
1572440361.475388,93235.000,15716,8,MX,1,100,-63
1572440361.491981,93248.000,15716,8,MX,1,100,-63
1572440361.508574,93261.000,15716,8,MX,1,100,-63
1572440361.525167,93274.000,15716,8,MX,1,100,-63
1572440361.541760,93287.000,15716,8,MX,1,100,-63
1572440361.558353,93300.000,15716,8,MX,1,100,-63
1572440361.574946,93313.000,15716,8,MX,1,100,-63
1572440361.591539,93326.000,15734,8,MX,1,100,-63
1572440361.608132,93339.000,15734,8,MX,1,100,-63
1572440361.624725,93352.000,15734,8,MX,1,100,-63
1572440361.641318,93365.000,15734,8,MX,1,100,-63
1572440361.657911,93378.000,15734,8,MX,1,100,-62
1572440361.674504,93391.000,15734,8,MX,1,100,-62
1572440361.691097,93404.000,15734,8,MX,1,100,-64
1572440361.707690,93417.000,15734,8,MX,1,100,-64
1572440361.724647,93430.286,15752,7,MX,1,100,-64
1572440361.741605,93443.571,15752,7,MX,1,100,-64
1572440361.758562,93456.857,15752,7,MX,1,100,-64
1572440361.775520,93470.143,15752,7,MX,1,100,-63
1572440361.792478,93483.429,15752,7,MX,1,100,-63
1572440361.809435,93496.714,15752,7,MX,1,100,-63
1572440361.826393,93510.000,15752,7,MX,1,100,-63
1572440361.842667,93522.750,15770,8,MX,1,100,-63
1572440361.858941,93535.500,15770,8,MX,1,100,-63
1572440361.875214,93548.250,15770,8,MX,1,100,-63
1572440361.891488,93561.000,15770,8,MX,1,100,-63
1572440361.907762,93573.750,15770,8,MX,1,100,-63
1572440361.924036,93586.500,15770,8,MX,1,100,-63
1572440361.940310,93599.250,15770,8,MX,1,100,-63
1572440361.956583,93612.000,15770,8,MX,1,100,-63
1572440361.973336,93625.125,15788,8,MX,1,100,-64
1572440361.990088,93638.250,15788,8,MX,1,100,-64
1572440362.006841,93651.375,15788,8,MX,1,100,-63
1572440362.023593,93664.500,15788,8,MX,1,100,-63
1572440362.040346,93677.625,15788,8,MX,1,100,-63
1572440362.057098,93690.750,15788,8,MX,1,100,-63
1572440362.073851,93703.875,15788,8,MX,1,100,-63
1572440362.090603,93717.000,15788,8,MX,1,100,-64
1572440362.107675,93730.375,15806,8,MX,1,100,-64
1572440362.124747,93743.750,15806,8,MX,1,100,-64
1572440362.141818,93757.125,15806,8,MX,1,100,-64
1572440362.158890,93770.500,15806,8,MX,1,100,-64
1572440362.175961,93783.875,15806,8,MX,1,100,-63
1572440362.193033,93797.250,15806,8,MX,1,100,-63
1572440362.210104,93810.625,15806,8,MX,1,100,-64
1572440362.227176,93824.000,15806,8,MX,1,100,-64
1572440362.243769,93837.000,15824,7,MX,1,100,-64
1572440362.260362,93850.000,15824,7,MX,1,100,-64
1572440362.276955,93863.000,15824,7,MX,1,100,-64
1572440362.293548,93876.000,15824,7,MX,1,100,-65
1572440362.310141,93889.000,15824,7,MX,1,100,-65
1572440362.326734,93902.000,15824,7,MX,1,100,-65
1572440362.343327,93915.000,15824,7,MX,1,100,-63
1572440362.360079,93928.125,15843,8,MX,1,100,-63
1572440362.376832,93941.250,15843,8,MX,1,100,-65
1572440362.393584,93954.375,15843,8,MX,1,100,-65
1572440362.410336,93967.500,15843,8,MX,1,100,-65
1572440362.427089,93980.625,15843,8,MX,1,100,-63
1572440362.443841,93993.750,15843,8,MX,1,100,-63
1572440362.460594,94006.875,15843,8,MX,1,100,-63
1572440362.477347,94020.000,15843,8,MX,1,100,-63
1572440362.493780,94032.875,15861,8,MX,1,100,-64
1572440362.510213,94045.750,15861,8,MX,1,100,-64
1572440362.526647,94058.625,15861,8,MX,1,100,-64
1572440362.543080,94071.500,15861,8,MX,1,100,-63
1572440362.559514,94084.375,15861,8,MX,1,100,-63
1572440362.575947,94097.250,15861,8,MX,1,100,-63
1572440362.592380,94110.125,15861,8,MX,1,100,-63
1572440362.608814,94123.000,15861,8,MX,1,100,-63
1572440362.625566,94136.125,15878,8,MX,1,100,-63
1572440362.642319,94149.250,15878,8,MX,1,100,-63
1572440362.659071,94162.375,15878,8,MX,1,100,-63
1572440362.675824,94175.500,15878,8,MX,1,100,-63
1572440362.692576,94188.625,15878,8,MX,1,100,-63
1572440362.709329,94201.750,15878,8,MX,1,100,-63
1572440362.726081,94214.875,15878,8,MX,1,100,-63
1572440362.742834,94228.000,15878,8,MX,1,100,-63
1572440362.759427,94241.000,15896,7,MX,1,100,-63
1572440362.776019,94254.000,15896,7,MX,1,100,-63
1572440362.792612,94267.000,15896,7,MX,1,100,-63
1572440362.809205,94280.000,15896,7,MX,1,100,-63
1572440362.825798,94293.000,15896,7,MX,1,100,-63
1572440362.842391,94306.000,15896,7,MX,1,100,-63
1572440362.858984,94319.000,15896,7,MX,1,100,-64
1572440362.875577,94332.000,15914,8,MX,1,100,-64
1572440362.892170,94345.000,15914,8,MX,1,100,-64
1572440362.908763,94358.000,15914,8,MX,1,100,-62
1572440362.925356,94371.000,15914,8,MX,1,100,-62
1572440362.941949,94384.000,15914,8,MX,1,100,-64
1572440362.958542,94397.000,15914,8,MX,1,100,-64
1572440362.975135,94410.000,15914,8,MX,1,100,-64
1572440362.991728,94423.000,15914,8,MX,1,100,-63
1572440363.008321,94436.000,15932,8,MX,1,100,-63
1572440363.024914,94449.000,15932,8,MX,1,100,-64
1572440363.041507,94462.000,15932,8,MX,1,100,-64
1572440363.058099,94475.000,15932,8,MX,1,100,-64
1572440363.074692,94488.000,15932,8,MX,1,100,-64
1572440363.091285,94501.000,15932,8,MX,1,100,-64
1572440363.107878,94514.000,15932,8,MX,1,100,-63
1572440363.124471,94527.000,15932,8,MX,1,100,-63
1572440363.141224,94540.125,15950,8,MX,1,100,-64
1572440363.157976,94553.250,15950,8,MX,1,100,-64
1572440363.174729,94566.375,15950,8,MX,1,100,-64
1572440363.191481,94579.500,15950,8,MX,1,100,-63
1572440363.208234,94592.625,15950,8,MX,1,100,-63
1572440363.224986,94605.750,15950,8,MX,1,100,-64
1572440363.241739,94618.875,15950,8,MX,1,100,-64
1572440363.258491,94632.000,15950,8,MX,1,100,-64
1572440363.275084,94645.000,15968,7,MX,1,100,-64
1572440363.291677,94658.000,15968,7,MX,1,100,-64
1572440363.308270,94671.000,15968,7,MX,1,100,-64
1572440363.324863,94684.000,15968,7,MX,1,100,-64
1572440363.341456,94697.000,15968,7,MX,1,100,-64
1572440363.358049,94710.000,15968,7,MX,1,100,-64
1572440363.374642,94723.000,15968,7,MX,1,100,-64
1572440363.391394,94736.125,15987,8,MX,1,100,-64
1572440363.408147,94749.250,15987,8,MX,1,100,-64
1572440363.424899,94762.375,15987,8,MX,1,100,-64
1572440363.441652,94775.500,15987,8,MX,1,100,-64
1572440363.458404,94788.625,15987,8,MX,1,100,-64
1572440363.475157,94801.750,15987,8,MX,1,100,-64
1572440363.491909,94814.875,15987,8,MX,1,100,-64
1572440363.508662,94828.000,15987,8,MX,1,100,-63
1572440363.525095,94840.875,16005,8,MX,1,100,-63
1572440363.541528,94853.750,16005,8,MX,1,100,-63
1572440363.557962,94866.625,16005,8,MX,1,100,-63
1572440363.574395,94879.500,16005,8,MX,1,100,-63
1572440363.590828,94892.375,16005,8,MX,1,100,-63
1572440363.607262,94905.250,16005,8,MX,1,100,-63
1572440363.623695,94918.125,16005,8,MX,1,100,-63
1572440363.640129,94931.000,16005,8,MX,1,100,-63
1572440363.656562,94943.875,16021,8,MX,1,100,-63
1572440363.672995,94956.750,16021,8,MX,1,100,-63
1572440363.689429,94969.625,16021,8,MX,1,100,-63
1572440363.705862,94982.500,16021,8,MX,1,100,-65
1572440363.722296,94995.375,16021,8,MX,1,100,-65
1572440363.738729,95008.250,16021,8,MX,1,100,-65
1572440363.755162,95021.125,16021,8,MX,1,100,-63
1572440363.771596,95034.000,16021,8,MX,1,100,-63
1572440363.788189,95047.000,16039,8,MX,1,100,-64
1572440363.804781,95060.000,16039,8,MX,1,100,-64
1572440363.821374,95073.000,16039,8,MX,1,100,-63
1572440363.837967,95086.000,16039,8,MX,1,100,-63
1572440363.854560,95099.000,16039,8,MX,1,100,-63
1572440363.871153,95112.000,16039,8,MX,1,100,-64
1572440363.887746,95125.000,16039,8,MX,1,100,-64
1572440363.904339,95138.000,16039,8,MX,1,100,-63
1572440363.921297,95151.286,16057,7,MX,1,100,-63
1572440363.938254,95164.571,16057,7,MX,1,100,-63
1572440363.955212,95177.857,16057,7,MX,1,100,-64
1572440363.972170,95191.143,16057,7,MX,1,100,-64
1572440363.989127,95204.429,16057,7,MX,1,100,-64
1572440364.006085,95217.714,16057,7,MX,1,100,-64
1572440364.023042,95231.000,16057,7,MX,1,100,-64
1572440364.039635,95244.000,16075,8,MX,1,100,-64
1572440364.056228,95257.000,16075,8,MX,1,100,-64
1572440364.072821,95270.000,16075,8,MX,1,100,-64
1572440364.089414,95283.000,16075,8,MX,1,100,-64
1572440364.106007,95296.000,16075,8,MX,1,100,-64
1572440364.122600,95309.000,16075,8,MX,1,100,-64
1572440364.139193,95322.000,16075,8,MX,1,100,-64
1572440364.155786,95335.000,16075,8,MX,1,100,-63
1572440364.172744,95348.286,16093,7,MX,1,100,-63
1572440364.189701,95361.571,16093,7,MX,1,100,-64
1572440364.206659,95374.857,16093,7,MX,1,100,-64
1572440364.223616,95388.143,16093,7,MX,1,100,-64
1572440364.240574,95401.429,16093,7,MX,1,100,-64
1572440364.257532,95414.714,16093,7,MX,1,100,-64
1572440364.274489,95428.000,16093,7,MX,1,100,-64
1572440364.291242,95441.125,16111,8,MX,1,100,-64
1572440364.307994,95454.250,16111,8,MX,1,100,-64
1572440364.324747,95467.375,16111,8,MX,1,100,-64
1572440364.341499,95480.500,16111,8,MX,1,100,-64
1572440364.358252,95493.625,16111,8,MX,1,100,-63
1572440364.375004,95506.750,16111,8,MX,1,100,-63
1572440364.391757,95519.875,16111,8,MX,1,100,-64
1572440364.408509,95533.000,16111,8,MX,1,100,-64
1572440364.425262,95546.125,16130,8,MX,1,100,-64
1572440364.442014,95559.250,16130,8,MX,1,100,-64
1572440364.458767,95572.375,16130,8,MX,1,100,-64
1572440364.475519,95585.500,16130,8,MX,1,100,-65
1572440364.492272,95598.625,16130,8,MX,1,100,-65
1572440364.509024,95611.750,16130,8,MX,1,100,-65
1572440364.525777,95624.875,16130,8,MX,1,100,-64
1572440364.542529,95638.000,16130,8,MX,1,100,-64
1572440364.559282,95651.125,16148,8,MX,1,100,-64
1572440364.576034,95664.250,16148,8,MX,1,100,-64
1572440364.592787,95677.375,16148,8,MX,1,100,-64
1572440364.609539,95690.500,16148,8,MX,1,100,-64
1572440364.626292,95703.625,16148,8,MX,1,100,-64
1572440364.643044,95716.750,16148,8,MX,1,100,-64
1572440364.659796,95729.875,16148,8,MX,1,100,-64
1572440364.676549,95743.000,16148,8,MX,1,100,-64
1572440364.693142,95756.000,16166,7,MX,1,100,-64
1572440364.709735,95769.000,16166,7,MX,1,100,-64
1572440364.726328,95782.000,16166,7,MX,1,100,-65
1572440364.742921,95795.000,16166,7,MX,1,100,-65
1572440364.759514,95808.000,16166,7,MX,1,100,-64
1572440364.776107,95821.000,16166,7,MX,1,100,-64
1572440364.792700,95834.000,16166,7,MX,1,100,-64
1572440364.809133,95846.875,16184,8,MX,1,100,-63
1572440364.825566,95859.750,16184,8,MX,1,100,-63
1572440364.842000,95872.625,16184,8,MX,1,100,-64
1572440364.858433,95885.500,16184,8,MX,1,100,-64
1572440364.874866,95898.375,16184,8,MX,1,100,-64
1572440364.891300,95911.250,16184,8,MX,1,100,-64
1572440364.907733,95924.125,16184,8,MX,1,100,-64
1572440364.924167,95937.000,16184,8,MX,1,100,-63
1572440364.940919,95950.125,16202,8,MX,1,100,-63
1572440364.957672,95963.250,16202,8,MX,1,100,-64
1572440364.974424,95976.375,16202,8,MX,1,100,-64
1572440364.991177,95989.500,16202,8,MX,1,100,-64
1572440365.007929,96002.625,16202,8,MX,1,100,-64
1572440365.024682,96015.750,16202,8,MX,1,100,-64
1572440365.041434,96028.875,16202,8,MX,1,100,-64
1572440365.058187,96042.000,16202,8,MX,1,100,-64
1572440365.075099,96055.250,16220,8,MX,1,100,-64
1572440365.092010,96068.500,16220,8,MX,1,100,-64
1572440365.108923,96081.750,16220,8,MX,1,100,-64
1572440365.125835,96095.000,16220,8,MX,1,100,-63
1572440365.142747,96108.250,16220,8,MX,1,100,-63
1572440365.159659,96121.500,16220,8,MX,1,100,-63
1572440365.176571,96134.750,16220,8,MX,1,100,-63
1572440365.193483,96148.000,16220,8,MX,1,100,-63
1572440365.210076,96161.000,16238,7,MX,1,100,-64
1572440365.226669,96174.000,16238,7,MX,1,100,-64
1572440365.243262,96187.000,16238,7,MX,1,100,-63
1572440365.259855,96200.000,16238,7,MX,1,100,-63
1572440365.276448,96213.000,16238,7,MX,1,100,-63
1572440365.293041,96226.000,16238,7,MX,1,100,-64
1572440365.309633,96239.000,16238,7,MX,1,100,-64
1572440365.326386,96252.125,16256,8,MX,1,100,-64
1572440365.343138,96265.250,16256,8,MX,1,100,-64
1572440365.359891,96278.375,16256,8,MX,1,100,-64
1572440365.376643,96291.500,16256,8,MX,1,100,-63
1572440365.393396,96304.625,16256,8,MX,1,100,-63
1572440365.410148,96317.750,16256,8,MX,1,100,-63
1572440365.426901,96330.875,16256,8,MX,1,100,-63
1572440365.443653,96344.000,16256,8,MX,1,100,-63
1572440365.460406,96357.125,16275,8,MX,1,100,-63
1572440365.477158,96370.250,16275,8,MX,1,100,-63
1572440365.493911,96383.375,16275,8,MX,1,100,-64
1572440365.510663,96396.500,16275,8,MX,1,100,-64
1572440365.527416,96409.625,16275,8,MX,1,100,-63
1572440365.544168,96422.750,16275,8,MX,1,100,-63
1572440365.560921,96435.875,16275,8,MX,1,100,-63
1572440365.577673,96449.000,16275,8,MX,1,100,-63
1572440365.594448,96462.143,16293,7,MX,1,100,-63
1572440365.611224,96475.286,16293,7,MX,1,100,-63
1572440365.627999,96488.429,16293,7,MX,1,100,-63
1572440365.644774,96501.571,16293,7,MX,1,100,-63
1572440365.661550,96514.714,16293,7,MX,1,100,-63
1572440365.678325,96527.857,16293,7,MX,1,100,-63
1572440365.695100,96541.000,16293,7,MX,1,100,-63
1572440365.711693,96554.000,16311,8,MX,1,100,-63
1572440365.728286,96567.000,16311,8,MX,1,100,-62
1572440365.744879,96580.000,16311,8,MX,1,100,-62
1572440365.761472,96593.000,16311,8,MX,1,100,-62
1572440365.778065,96606.000,16311,8,MX,1,100,-62
1572440365.794658,96619.000,16311,8,MX,1,100,-62
1572440365.811251,96632.000,16311,8,MX,1,100,-63
1572440365.827844,96645.000,16311,8,MX,1,100,-63
1572440365.844240,96657.846,16332,13,MX,1,100,-63
1572440365.860637,96670.692,16332,13,MX,1,100,-62
1572440365.877033,96683.538,16332,13,MX,1,100,-62
1572440365.893430,96696.385,16332,13,MX,1,100,-64
1572440365.909827,96709.231,16332,13,MX,1,100,-64
1572440365.926223,96722.077,16332,13,MX,1,100,-64
1572440365.942620,96734.923,16332,13,MX,1,100,-62
1572440365.959016,96747.769,16332,13,MX,1,100,-62
1572440365.975413,96760.615,16332,13,MX,1,100,-63
1572440365.991809,96773.462,16332,13,MX,1,100,-63
1572440366.008206,96786.308,16332,13,MX,1,100,-63
1572440366.024602,96799.154,16332,13,MX,1,100,-62
1572440366.040999,96812.000,16332,13,MX,1,100,-62
1572440366.058139,96825.429,16352,7,MX,1,100,-63
1572440366.075279,96838.857,16352,7,MX,1,100,-63
1572440366.092419,96852.286,16352,7,MX,1,100,-62
1572440366.109559,96865.714,16352,7,MX,1,100,-62
1572440366.126699,96879.143,16352,7,MX,1,100,-62
1572440366.143839,96892.571,16352,7,MX,1,100,-63
1572440366.160979,96906.000,16352,7,MX,1,100,-63
1572440366.177572,96919.000,16370,8,MX,1,100,-63
1572440366.194165,96932.000,16370,8,MX,1,100,-63
1572440366.210757,96945.000,16370,8,MX,1,100,-63
1572440366.227350,96958.000,16370,8,MX,1,100,-63
1572440366.243943,96971.000,16370,8,MX,1,100,-63
1572440366.260536,96984.000,16370,8,MX,1,100,-63
1572440366.277129,96997.000,16370,8,MX,1,100,-63
1572440366.293722,97010.000,16370,8,MX,1,100,-63
1572440366.310475,97023.125,16388,8,MX,1,100,-63
1572440366.327227,97036.250,16388,8,MX,1,100,-63
1572440366.343980,97049.375,16388,8,MX,1,100,-63
1572440366.360732,97062.500,16388,8,MX,1,100,-63
1572440366.377485,97075.625,16388,8,MX,1,100,-63
1572440366.394237,97088.750,16388,8,MX,1,100,-63
1572440366.410990,97101.875,16388,8,MX,1,100,-63
1572440366.427742,97115.000,16388,8,MX,1,100,-62
1572440366.444335,97128.000,16407,7,MX,1,100,-62
1572440366.460928,97141.000,16407,7,MX,1,100,-63
1572440366.477521,97154.000,16407,7,MX,1,100,-63
1572440366.494114,97167.000,16407,7,MX,1,100,-63
1572440366.510707,97180.000,16407,7,MX,1,100,-61
1572440366.527300,97193.000,16407,7,MX,1,100,-61
1572440366.543893,97206.000,16407,7,MX,1,100,-62
1572440366.560486,97219.000,16425,8,MX,1,100,-62
1572440366.577079,97232.000,16425,8,MX,1,100,-61
1572440366.593672,97245.000,16425,8,MX,1,100,-61
1572440366.610264,97258.000,16425,8,MX,1,100,-61
1572440366.626857,97271.000,16425,8,MX,1,100,-62
1572440366.643450,97284.000,16425,8,MX,1,100,-62
1572440366.660043,97297.000,16425,8,MX,1,100,-63
1572440366.676636,97310.000,16425,8,MX,1,100,-63
1572440366.692910,97322.750,16443,8,MX,1,100,-63
1572440366.709184,97335.500,16443,8,MX,1,100,-61
1572440366.725458,97348.250,16443,8,MX,1,100,-61
1572440366.741731,97361.000,16443,8,MX,1,100,-62
1572440366.758005,97373.750,16443,8,MX,1,100,-62
1572440366.774279,97386.500,16443,8,MX,1,100,-62
1572440366.790553,97399.250,16443,8,MX,1,100,-61
1572440366.806827,97412.000,16443,8,MX,1,100,-61
1572440366.823420,97425.000,16461,8,MX,1,100,-61
1572440366.840013,97438.000,16461,8,MX,1,100,-61
1572440366.856606,97451.000,16461,8,MX,1,100,-62
1572440366.873199,97464.000,16461,8,MX,1,100,-62
1572440366.889791,97477.000,16461,8,MX,1,100,-62
1572440366.906384,97490.000,16461,8,MX,1,100,-62
1572440366.922977,97503.000,16461,8,MX,1,100,-62
1572440366.939570,97516.000,16461,8,MX,1,100,-63
1572440366.956163,97529.000,16479,8,MX,1,100,-63
1572440366.972756,97542.000,16479,8,MX,1,100,-63
1572440366.989349,97555.000,16479,8,MX,1,100,-62
1572440367.005942,97568.000,16479,8,MX,1,100,-62
1572440367.022535,97581.000,16479,8,MX,1,100,-62
1572440367.039128,97594.000,16479,8,MX,1,100,-62
1572440367.055721,97607.000,16479,8,MX,1,100,-62
1572440367.072314,97620.000,16479,8,MX,1,100,-62
1572440367.089089,97633.143,16497,7,MX,1,100,-62
1572440367.105865,97646.286,16497,7,MX,1,100,-62
1572440367.122640,97659.429,16497,7,MX,1,100,-62
1572440367.139415,97672.571,16497,7,MX,1,100,-63
1572440367.156190,97685.714,16497,7,MX,1,100,-63
1572440367.172966,97698.857,16497,7,MX,1,100,-63
1572440367.189741,97712.000,16497,7,MX,1,100,-62
1572440367.206334,97725.000,16515,8,MX,1,100,-62
1572440367.222927,97738.000,16515,8,MX,1,100,-63
1572440367.239520,97751.000,16515,8,MX,1,100,-63
1572440367.256113,97764.000,16515,8,MX,1,100,-63
1572440367.272706,97777.000,16515,8,MX,1,100,-63
1572440367.289299,97790.000,16515,8,MX,1,100,-63
1572440367.305891,97803.000,16515,8,MX,1,100,-61
1572440367.322484,97816.000,16515,8,MX,1,100,-61
1572440367.339396,97829.250,16533,8,MX,1,100,-61
1572440367.356308,97842.500,16533,8,MX,1,100,-63
1572440367.373220,97855.750,16533,8,MX,1,100,-63
1572440367.390132,97869.000,16533,8,MX,1,100,-61
1572440367.407044,97882.250,16533,8,MX,1,100,-61
1572440367.423956,97895.500,16533,8,MX,1,100,-63
1572440367.440869,97908.750,16533,8,MX,1,100,-63
