EpochTimestamp,EmotiBitTimestamp,PacketNumber,DataLength,TypeTag,ProtocolVersion,DataReliability,T0
1574714555.734744,171488.000,29569,2,T0,1,100,30.403
1574714555.734744,171488.000,29569,2,T0,1,100,30.371
1574714555.873928,171605.000,29603,1,T0,1,100,30.381
1574714555.998837,171710.000,29621,1,T0,1,100,30.424
1574714556.132072,171822.000,29639,1,T0,1,100,30.371
1574714556.266498,171935.000,29657,1,T0,1,100,30.387
1574714556.403303,172050.000,29675,1,T0,1,100,30.381
1574714556.535349,172161.000,29694,1,T0,1,100,30.392
1574714556.663826,172269.000,29712,1,T0,1,100,30.349
1574714556.791114,172376.000,29730,1,T0,1,100,30.344
1574714556.921971,172486.000,29748,1,T0,1,100,30.381
1574714557.057586,172600.000,29765,1,T0,1,100,30.424
1574714557.192012,172713.000,29783,1,T0,1,100,30.419
1574714557.331196,172830.000,29817,1,T0,1,100,30.403
1574714557.458483,172937.000,29836,1,T0,1,100,30.360
1574714557.584582,173043.000,29854,1,T0,1,100,30.381
1574714557.723766,173160.000,29872,1,T0,1,100,30.392
1574714557.858191,173273.000,29890,1,T0,1,100,30.414
1574714557.992617,173386.000,29908,1,T0,1,100,30.403
1574714558.134180,173505.000,29926,1,T0,1,100,30.414
1574714558.261468,173612.000,29943,1,T0,1,100,30.398
1574714558.386377,173717.000,29961,1,T0,1,100,30.398
1574714558.523181,173832.000,29996,1,T0,1,100,30.387
1574714558.661176,173948.000,30014,1,T0,1,100,30.392
1574714558.795601,174061.000,30032,1,T0,1,100,30.387
1574714558.922889,174168.000,30050,1,T0,1,100,30.392
1574714559.054935,174279.000,30068,1,T0,1,100,30.360
1574714559.194119,174396.000,30086,1,T0,1,100,30.414
1574714559.330924,174511.000,30104,1,T0,1,100,30.376
1574714559.464160,174623.000,30121,1,T0,1,100,30.371
1574714559.589069,174728.000,30140,1,T0,1,100,30.392
1574714559.727063,174844.000,30174,1,T0,1,100,30.349
1574714559.860299,174956.000,30192,1,T0,1,100,30.387
1574714559.998293,175072.000,30210,1,T0,1,100,30.392
1574714560.123202,175177.000,30228,1,T0,1,100,30.381
1574714560.251679,175285.000,30246,1,T0,1,100,30.355
1574714560.387295,175399.000,30264,1,T0,1,100,30.376
1574714560.526479,175516.000,30283,1,T0,1,100,30.381
1574714560.663283,175631.000,30300,1,T0,1,100,30.392
1574714560.802467,175748.000,30334,1,T0,1,100,30.387
1574714560.935703,175860.000,30352,1,T0,1,100,30.376
1574714561.065370,175969.000,30370,1,T0,1,100,30.360
1574714561.192658,176076.000,30388,1,T0,1,100,30.355
1574714561.324704,176187.000,30406,1,T0,1,100,30.365
1574714561.460320,176301.000,30425,1,T0,1,100,30.360
1574714561.594745,176414.000,30443,1,T0,1,100,30.360
1574714561.731550,176529.000,30464,1,T0,1,100,30.398
1574714561.860027,176637.000,30484,1,T0,1,100,30.365
1574714561.987315,176744.000,30502,1,T0,1,100,30.403
1574714562.125310,176860.000,30520,1,T0,1,100,30.392
1574714562.265683,176978.000,30538,1,T0,1,100,30.376
1574714562.392971,177085.000,30556,1,T0,1,100,30.355
1574714562.523828,177195.000,30575,1,T0,1,100,30.381
1574714562.658253,177308.000,30592,1,T0,1,100,30.398
1574714562.795058,177423.000,30626,1,T0,1,100,30.376
1574714562.933052,177539.000,30644,1,T0,1,100,30.424
1574714563.059151,177645.000,30662,1,T0,1,100,30.387
1574714563.187628,177753.000,30680,1,T0,1,100,30.392
1574714563.323243,177867.000,30698,1,T0,1,100,30.387
1574714563.462427,177984.000,30717,1,T0,1,100,30.387
1574714563.594474,178095.000,30735,1,T0,1,100,30.360
1574714563.720572,178201.000,30753,1,T0,1,100,30.365
1574714563.852618,178312.000,30770,1,T0,1,100,30.387
1574714563.989423,178427.000,30788,1,T0,1,100,30.371
1574714564.127417,178543.000,30822,1,T0,1,100,30.387
1574714564.258274,178653.000,30840,1,T0,1,100,30.381
1574714564.384372,178759.000,30859,1,T0,1,100,30.403
1574714564.521177,178874.000,30877,1,T0,1,100,30.403
1574714564.655602,178987.000,30895,1,T0,1,100,30.398
1574714564.779321,179091.000,30913,1,T0,1,100,30.403
1574714564.916126,179206.000,30931,1,T0,1,100,30.365
1574714565.052931,179321.000,30949,1,T0,1,100,30.381
1574714565.192115,179438.000,30966,1,T0,1,100,30.365
1574714565.320592,179546.000,31000,1,T0,1,100,30.403
1574714565.451449,179656.000,31019,1,T0,1,100,30.387
1574714565.582306,179766.000,31037,1,T0,1,100,30.381
1574714565.721490,179883.000,31055,1,T0,1,100,30.387
1574714565.858294,179998.000,31073,1,T0,1,100,30.355
1574714565.982014,180102.000,31091,1,T0,1,100,30.387
1574714566.114060,180213.000,31109,1,T0,1,100,30.414
1574714566.250865,180328.000,31127,1,T0,1,100,30.424
1574714566.384101,180440.000,31144,1,T0,1,100,30.355
1574714566.518526,180553.000,31179,1,T0,1,100,30.344
1574714566.647004,180661.000,31197,1,T0,1,100,30.408
1574714566.777860,180771.000,31215,1,T0,1,100,30.408
1574714566.913476,180885.000,31233,1,T0,1,100,30.360
1574714567.055039,181004.000,31251,1,T0,1,100,30.392
1574714567.182327,181111.000,31269,1,T0,1,100,30.392
1574714567.311994,181220.000,31287,1,T0,1,100,30.387
1574714567.446419,181333.000,31306,1,T0,1,100,30.424
1574714567.583224,181448.000,31323,1,T0,1,100,30.408
1574714567.714675,181558.500,31360,2,T0,1,100,30.424
1574714567.846127,181669.000,31360,2,T0,1,100,30.371
1574714567.971036,181774.000,31380,1,T0,1,100,30.387
1574714568.109030,181890.000,31398,1,T0,1,100,30.355
1574714568.248214,182007.000,31416,1,T0,1,100,30.398
1574714568.385019,182122.000,31433,1,T0,1,100,30.403
1574714568.528961,182243.000,31468,1,T0,1,100,30.371
1574714568.666955,182359.000,31486,1,T0,1,100,30.398
1574714568.801381,182472.000,31504,1,T0,1,100,30.392
1574714568.928669,182579.000,31522,1,T0,1,100,30.381
1574714569.060715,182690.000,31540,1,T0,1,100,30.371
1574714569.195141,182803.000,31558,1,T0,1,100,30.381
1574714569.336704,182922.000,31575,1,T0,1,100,30.387
1574714569.467561,183032.000,31610,1,T0,1,100,30.371
1574714569.606745,183149.000,31628,1,T0,1,100,30.408
1574714569.734032,183256.000,31646,1,T0,1,100,30.381
1574714569.863699,183365.000,31664,1,T0,1,100,30.371
1574714569.996935,183477.000,31682,1,T0,1,100,30.344
1574714570.134930,183593.000,31700,1,T0,1,100,30.355
1574714570.268166,183705.000,31718,1,T0,1,100,30.376
1574714570.391885,183809.000,31736,1,T0,1,100,30.387
1574714570.526310,183922.000,31755,1,T0,1,100,30.365
1574714570.664304,184038.000,31772,1,T0,1,100,30.355
1574714570.802299,184154.000,31806,1,T0,1,100,30.371
1574714570.930776,184262.000,31824,1,T0,1,100,30.403
1574714571.058064,184369.000,31842,1,T0,1,100,30.360
1574714571.193679,184483.000,31860,1,T0,1,100,30.419
1574714571.329295,184597.000,31878,1,T0,1,100,30.403
1574714571.466099,184712.000,31897,1,T0,1,100,30.387
1574714571.591008,184817.000,31915,1,T0,1,100,30.349
1574714571.724244,184929.000,31933,1,T0,1,100,30.392
1574714571.858670,185042.000,31950,1,T0,1,100,30.339
1574714571.996664,185158.000,31984,1,T0,1,100,30.355
1574714572.128710,185269.000,32002,1,T0,1,100,30.403
1574714572.257188,185377.000,32020,1,T0,1,100,30.387
1574714572.383286,185483.000,32039,1,T0,1,100,30.371
1574714572.514143,185593.000,32057,1,T0,1,100,30.392
1574714572.649758,185707.000,32075,1,T0,1,100,30.365
1574714572.784183,185820.000,32093,1,T0,1,100,30.355
1574714572.922178,185936.000,32111,1,T0,1,100,30.365
1574714573.049465,186043.000,32128,1,T0,1,100,30.371
1574714573.181512,186154.000,32146,1,T0,1,100,30.376
1574714573.309989,186262.000,32164,1,T0,1,100,30.365
1574714573.444415,186375.000,32199,1,T0,1,100,30.398
1574714573.577651,186487.000,32217,1,T0,1,100,30.398
1574714573.719214,186606.000,32235,1,T0,1,100,30.365
1574714573.845312,186712.000,32256,2,T0,1,100,30.398
1574714573.971411,186818.000,32256,2,T0,1,100,30.381
1574714574.108215,186933.000,32292,1,T0,1,100,30.371
1574714574.245020,187048.000,32310,1,T0,1,100,30.371
1574714574.378256,187160.000,32329,1,T0,1,100,30.376
1574714574.506733,187268.000,32347,1,T0,1,100,30.419
1574714574.641159,187381.000,32365,1,T0,1,100,30.392
1574714574.779153,187497.000,32383,1,T0,1,100,30.381
1574714574.915958,187612.000,32401,1,T0,1,100,30.360
1574714575.049194,187724.000,32418,1,T0,1,100,30.371
1574714575.172913,187828.000,32436,1,T0,1,100,30.349
1574714575.312097,187945.000,32470,1,T0,1,100,30.371
1574714575.445333,188057.000,32489,1,T0,1,100,30.376
1574714575.583327,188173.000,32507,1,T0,1,100,30.339
1574714575.708236,188278.000,32525,1,T0,1,100,30.381
1574714575.836713,188386.000,32543,1,T0,1,100,30.360
1574714575.972328,188500.000,32561,1,T0,1,100,30.376
1574714576.113892,188619.000,32579,1,T0,1,100,30.392
1574714576.248317,188732.000,32596,1,T0,1,100,30.376
1574714576.386312,188848.000,32632,1,T0,1,100,30.333
1574714576.525496,188965.000,32649,1,T0,1,100,30.376
1574714576.663490,189081.000,32667,1,T0,1,100,30.381
1574714576.788399,189186.000,32685,1,T0,1,100,30.360
1574714576.921634,189298.000,32703,1,T0,1,100,30.381
1574714577.058439,189413.000,32721,1,T0,1,100,30.328
1574714577.192865,189526.000,32739,1,T0,1,100,30.381
1574714577.328480,189640.000,32756,1,T0,1,100,30.371
1574714577.456957,189748.000,32774,1,T0,1,100,30.392
1574714577.584245,189855.000,32793,1,T0,1,100,30.360
1574714577.722239,189971.000,32827,1,T0,1,100,30.312
1574714577.862613,190089.000,32845,1,T0,1,100,30.365
1574714577.989901,190196.000,32863,1,T0,1,100,30.376
1574714578.120758,190306.000,32881,1,T0,1,100,30.355
1574714578.256373,190420.000,32899,1,T0,1,100,30.339
1574714578.393178,190535.000,32917,1,T0,1,100,30.312
1574714578.529982,190650.000,32935,1,T0,1,100,30.344
1574714578.657270,190757.000,32953,1,T0,1,100,30.371
1574714578.785748,190865.000,32971,1,T0,1,100,30.360
1574714578.921363,190979.000,33005,1,T0,1,100,30.387
1574714579.061736,191097.000,33023,1,T0,1,100,30.349
1574714579.192593,191207.000,33041,1,T0,1,100,30.371
1574714579.318691,191313.000,33059,1,T0,1,100,30.365
1574714579.449548,191423.000,33078,1,T0,1,100,30.339
1574714579.586353,191538.000,33096,1,T0,1,100,30.339
1574714579.724347,191654.000,33114,1,T0,1,100,30.355
1574714579.854014,191763.000,33131,1,T0,1,100,30.381
1574714579.980113,191869.000,33152,1,T0,1,100,30.349
1574714580.116917,191984.000,33172,1,T0,1,100,30.360
1574714580.252532,192098.000,33190,1,T0,1,100,30.365
1574714580.376251,192202.000,33208,1,T0,1,100,30.339
1574714580.513056,192317.000,33227,1,T0,1,100,30.371
1574714580.649861,192432.000,33244,1,T0,1,100,30.328
1574714580.787855,192548.000,33278,1,T0,1,100,30.328
1574714580.916333,192656.000,33296,1,T0,1,100,30.349
1574714581.047189,192766.000,33314,1,T0,1,100,30.360
1574714581.179236,192877.000,33332,1,T0,1,100,30.381
1574714581.318420,192994.000,33350,1,T0,1,100,30.365
1574714581.455225,193109.000,33369,1,T0,1,100,30.349
1574714581.577754,193212.000,33387,1,T0,1,100,30.344
1574714581.709800,193323.000,33405,1,T0,1,100,30.365
1574714581.846605,193438.000,33422,1,T0,1,100,30.349
1574714581.979841,193550.000,33440,1,T0,1,100,30.360
1574714582.114266,193663.000,33474,1,T0,1,100,30.344
1574714582.241554,193770.000,33492,1,T0,1,100,30.317
1574714582.374790,193882.000,33511,1,T0,1,100,30.355
1574714582.510405,193996.000,33529,1,T0,1,100,30.339
1574714582.651968,194115.000,33547,1,T0,1,100,30.322
1574714582.778067,194221.000,33565,1,T0,1,100,30.339
1574714582.907734,194330.000,33583,1,T0,1,100,30.306
1574714583.042160,194443.000,33601,1,T0,1,100,30.339
1574714583.178964,194558.000,33618,1,T0,1,100,30.365
1574714583.315769,194673.000,33652,1,T0,1,100,30.322
1574714583.441867,194779.000,33671,1,T0,1,100,30.355
1574714583.567966,194885.000,33689,1,T0,1,100,30.360
1574714583.705960,195001.000,33707,1,T0,1,100,30.360
1574714583.845144,195118.000,33725,1,T0,1,100,30.312
1574714583.980759,195232.000,33743,1,T0,1,100,30.355
1574714584.124701,195353.000,33761,1,T0,1,100,30.376
1574714584.262696,195469.000,33778,1,T0,1,100,30.328
1574714584.395932,195581.000,33813,1,T0,1,100,30.349
1574714584.524409,195689.000,33831,1,T0,1,100,30.306
1574714584.656456,195800.000,33849,1,T0,1,100,30.333
1574714584.790881,195913.000,33867,1,T0,1,100,30.339
1574714584.933634,196033.000,33885,1,T0,1,100,30.317
1574714585.071628,196149.000,33903,1,T0,1,100,30.376
1574714585.208433,196264.000,33920,1,T0,1,100,30.360
1574714585.335721,196371.000,33938,1,T0,1,100,30.339
1574714585.465388,196480.000,33974,1,T0,1,100,30.333
1574714585.597434,196591.000,33991,1,T0,1,100,30.365
1574714585.734239,196706.000,34009,1,T0,1,100,30.355
1574714585.867475,196818.000,34027,1,T0,1,100,30.339
1574714585.996547,196926.500,34048,2,T0,1,100,30.333
1574714586.125619,197035.000,34048,2,T0,1,100,30.339
1574714586.263614,197151.000,34084,1,T0,1,100,30.365
1574714586.401608,197267.000,34103,1,T0,1,100,30.349
1574714586.528896,197374.000,34121,1,T0,1,100,30.301
1574714586.658563,197483.000,34139,1,T0,1,100,30.306
1574714586.791799,197595.000,34157,1,T0,1,100,30.355
1574714586.927414,197709.000,34175,1,T0,1,100,30.339
1574714587.064219,197824.000,34193,1,T0,1,100,30.365
1574714587.189127,197929.000,34211,1,T0,1,100,30.296
1574714587.322363,198041.000,34228,1,T0,1,100,30.312
1574714587.456789,198154.000,34263,1,T0,1,100,30.333
1574714587.594783,198270.000,34281,1,T0,1,100,30.339
1574714587.725640,198380.000,34299,1,T0,1,100,30.339
1574714587.855307,198489.000,34317,1,T0,1,100,30.312
1574714587.981405,198595.000,34335,1,T0,1,100,30.306
1574714588.111073,198704.000,34353,1,T0,1,100,30.306
1574714588.249067,198820.000,34371,1,T0,1,100,30.290
1574714588.378734,198929.000,34389,1,T0,1,100,30.290
1574714588.517918,199046.000,34408,1,T0,1,100,30.322
1574714588.657102,199163.000,34425,1,T0,1,100,30.301
1574714588.786769,199272.000,34459,1,T0,1,100,30.312
1574714588.916436,199381.000,34477,1,T0,1,100,30.322
1574714589.050862,199494.000,34495,1,T0,1,100,30.306
1574714589.184098,199606.000,34513,1,T0,1,100,30.301
1574714589.324471,199724.000,34531,1,T0,1,100,30.344
1574714589.450569,199830.000,34550,1,T0,1,100,30.285
1574714589.576668,199936.000,34568,1,T0,1,100,30.306
1574714589.713472,200051.000,34586,1,T0,1,100,30.290
1574714589.851467,200167.000,34603,1,T0,1,100,30.322
1574714589.988271,200282.000,34637,1,T0,1,100,30.355
1574714590.113180,200387.000,34655,1,T0,1,100,30.339
1574714590.247606,200500.000,34673,1,T0,1,100,30.296
1574714590.385600,200616.000,34691,1,T0,1,100,30.333
1574714590.522405,200731.000,34710,1,T0,1,100,30.306
1574714590.654451,200842.000,34728,1,T0,1,100,30.290
1574714590.778170,200946.000,34746,1,T0,1,100,30.322
1574714590.918544,201064.000,34764,1,T0,1,100,30.317
1574714591.051780,201176.000,34781,1,T0,1,100,30.296
1574714591.189774,201292.000,34815,1,T0,1,100,30.328
1574714591.314683,201397.000,34833,1,T0,1,100,30.317
1574714591.444350,201506.000,34852,1,T0,1,100,30.274
1574714591.577586,201618.000,34870,1,T0,1,100,30.322
1574714591.719149,201737.000,34888,1,T0,1,100,30.285
1574714591.852385,201849.000,34906,1,T0,1,100,30.328
1574714591.990379,201965.000,34924,1,T0,1,100,30.306
1574714592.129563,202082.000,34944,1,T0,1,100,30.285
1574714592.267557,202198.000,34962,1,T0,1,100,30.269
1574714592.392466,202303.000,34982,1,T0,1,100,30.322
1574714592.525702,202415.000,35001,1,T0,1,100,30.285
1574714592.662507,202530.000,35019,1,T0,1,100,30.344
1574714592.796932,202643.000,35036,1,T0,1,100,30.312
1574714592.932547,202757.000,35070,1,T0,1,100,30.290
1574714593.058646,202863.000,35088,1,T0,1,100,30.280
1574714593.187123,202971.000,35106,1,T0,1,100,30.290
1574714593.325118,203087.000,35124,1,T0,1,100,30.301
1574714593.465491,203205.000,35143,1,T0,1,100,30.317
1574714593.590400,203310.000,35161,1,T0,1,100,30.333
1574714593.720067,203419.000,35179,1,T0,1,100,30.322
1574714593.855682,203533.000,35197,1,T0,1,100,30.280
1574714593.992487,203648.000,35215,1,T0,1,100,30.322
1574714594.129292,203763.000,35232,1,T0,1,100,30.312
1574714594.256579,203870.000,35266,1,T0,1,100,30.312
1574714594.386246,203979.000,35285,1,T0,1,100,30.290
1574714594.521862,204093.000,35303,1,T0,1,100,30.296
1574714594.661046,204210.000,35321,1,T0,1,100,30.317
1574714594.793092,204321.000,35339,1,T0,1,100,30.258
1574714594.919190,204427.000,35357,1,T0,1,100,30.306
1574714595.050047,204537.000,35375,1,T0,1,100,30.306
1574714595.186852,204652.000,35393,1,T0,1,100,30.312
1574714595.324846,204768.000,35410,1,T0,1,100,30.290
1574714595.456892,204879.000,35445,1,T0,1,100,30.274
1574714595.591318,204992.000,35463,1,T0,1,100,30.317
1574714595.716226,205097.000,35481,1,T0,1,100,30.274
1574714595.851841,205211.000,35499,1,T0,1,100,30.290
1574714595.976750,205316.000,35517,1,T0,1,100,30.269
1574714596.113555,205431.000,35535,1,T0,1,100,30.312
1574714596.250360,205546.000,35553,1,T0,1,100,30.312
1574714596.389544,205663.000,35571,1,T0,1,100,30.290
1574714596.516832,205770.000,35589,1,T0,1,100,30.301
1574714596.647688,205880.000,35607,1,T0,1,100,30.312
1574714596.780924,205992.000,35641,1,T0,1,100,30.274
1574714596.920108,206109.000,35659,1,T0,1,100,30.274
1574714597.056913,206224.000,35677,1,T0,1,100,30.306
1574714597.179442,206327.000,35695,1,T0,1,100,30.306
1574714597.312678,206439.000,35713,1,T0,1,100,30.290
1574714597.449483,206554.000,35732,1,T0,1,100,30.322
1574714597.582719,206666.000,35750,1,T0,1,100,30.296
1574714597.715955,206778.000,35767,1,T0,1,100,30.280
1574714597.844432,206886.000,35785,1,T0,1,100,30.290
1574714597.977668,206998.000,35803,1,T0,1,100,30.285
1574714598.116257,207114.500,35840,2,T0,1,100,30.296
1574714598.254847,207231.000,35840,2,T0,1,100,30.306
1574714598.380945,207337.000,35858,1,T0,1,100,30.296
1574714598.510612,207446.000,35878,1,T0,1,100,30.280
1574714598.645037,207559.000,35896,1,T0,1,100,30.290
1574714598.781842,207674.000,35930,1,T0,1,100,30.247
1574714598.917457,207788.000,35948,1,T0,1,100,30.210
1574714599.043555,207894.000,35966,1,T0,1,100,30.274
1574714599.170844,208001.000,35984,1,T0,1,100,30.263
1574714599.308838,208117.000,36002,1,T0,1,100,30.253
1574714599.448022,208234.000,36021,1,T0,1,100,30.285
1574714599.583637,208348.000,36039,1,T0,1,100,30.258
1574714599.726390,208468.000,36056,1,T0,1,100,30.280
1574714599.864384,208584.000,36090,1,T0,1,100,30.269
1574714599.997620,208696.000,36108,1,T0,1,100,30.280
1574714600.124908,208803.000,36126,1,T0,1,100,30.263
1574714600.258144,208915.000,36144,1,T0,1,100,30.285
1574714600.392569,209028.000,36162,1,T0,1,100,30.247
1574714600.535322,209148.000,36181,1,T0,1,100,30.242
1574714600.673316,209264.000,36199,1,T0,1,100,30.269
1574714600.810121,209379.000,36216,1,T0,1,100,30.247
1574714600.937409,209486.000,36250,1,T0,1,100,30.258
1574714601.068266,209596.000,36268,1,T0,1,100,30.247
1574714601.202691,209709.000,36286,1,T0,1,100,30.253
1574714601.340686,209825.000,36304,1,T0,1,100,30.290
1574714601.472732,209936.000,36323,1,T0,1,100,30.269
1574714601.596451,210040.000,36341,1,T0,1,100,30.285
1574714601.730876,210153.000,36359,1,T0,1,100,30.274
1574714601.868871,210269.000,36377,1,T0,1,100,30.280
1574714602.008055,210386.000,36394,1,T0,1,100,30.269
1574714602.135343,210493.000,36428,1,T0,1,100,30.301
1574714602.266199,210603.000,36446,1,T0,1,100,30.247
1574714602.400625,210716.000,36465,1,T0,1,100,30.280
1574714602.536240,210830.000,36483,1,T0,1,100,30.280
1574714602.671855,210944.000,36501,1,T0,1,100,30.242
1574714602.796764,211049.000,36519,1,T0,1,100,30.301
1574714602.931190,211162.000,36537,1,T0,1,100,30.263
1574714603.065615,211275.000,36555,1,T0,1,100,30.263
1574714603.203609,211391.000,36572,1,T0,1,100,30.258
1574714603.334466,211501.000,36590,1,T0,1,100,30.290
1574714603.464133,211610.000,36625,1,T0,1,100,30.269
1574714603.589042,211715.000,36643,1,T0,1,100,30.253
1574714603.719898,211825.000,36661,1,T0,1,100,30.242
1574714603.855514,211939.000,36679,1,T0,1,100,30.231
1574714603.989939,212052.000,36697,1,T0,1,100,30.280
1574714604.132692,212172.000,36715,1,T0,1,100,30.253
1574714604.271876,212289.000,36734,1,T0,1,100,30.258
1574714604.400353,212397.000,36753,1,T0,1,100,30.285
1574714604.530020,212506.000,36771,1,T0,1,100,30.247
1574714604.664446,212619.000,36793,1,T0,1,100,30.285
1574714604.797682,212731.000,36811,1,T0,1,100,30.258
1574714604.939245,212850.000,36829,1,T0,1,100,30.280
1574714605.064154,212955.000,36846,1,T0,1,100,30.301
1574714605.191442,213062.000,36864,1,T0,1,100,30.269
1574714605.329436,213178.000,36899,1,T0,1,100,30.242
1574714605.467430,213294.000,36917,1,T0,1,100,30.221
1574714605.603045,213408.000,36935,1,T0,1,100,30.258
1574714605.729144,213514.000,36953,1,T0,1,100,30.231
1574714605.863569,213627.000,36971,1,T0,1,100,30.258
1574714606.001564,213743.000,36989,1,T0,1,100,30.242
1574714606.138368,213858.000,37007,1,T0,1,100,30.285
1574714606.270415,213969.000,37024,1,T0,1,100,30.285
1574714606.395323,214074.000,37042,1,T0,1,100,30.263
1574714606.534507,214191.000,37077,1,T0,1,100,30.285
1574714606.667743,214303.000,37095,1,T0,1,100,30.274
1574714606.805737,214419.000,37113,1,T0,1,100,30.269
1574714606.929457,214523.000,37131,1,T0,1,100,30.253
1574714607.059124,214632.000,37149,1,T0,1,100,30.226
1574714607.193549,214745.000,37167,1,T0,1,100,30.263
1574714607.335112,214864.000,37185,1,T0,1,100,30.253
1574714607.468348,214976.000,37204,1,T0,1,100,30.258
1574714607.606343,215092.000,37221,1,T0,1,100,30.258
1574714607.744337,215208.000,37255,1,T0,1,100,30.263
1574714607.881142,215323.000,37273,1,T0,1,100,30.296
1574714608.006051,215428.000,37291,1,T0,1,100,30.269
1574714608.139286,215540.000,37309,1,T0,1,100,30.231
1574714608.276091,215655.000,37327,1,T0,1,100,30.247
1574714608.410517,215768.000,37345,1,T0,1,100,30.269
1574714608.544942,215881.000,37364,1,T0,1,100,30.231
1574714608.673420,215989.000,37381,1,T0,1,100,30.215
1574714608.801897,216097.000,37399,1,T0,1,100,30.258
1574714608.939892,216213.000,37433,1,T0,1,100,30.290
1574714609.080265,216331.000,37451,1,T0,1,100,30.258
1574714609.206363,216437.000,37469,1,T0,1,100,30.231
1574714609.334841,216545.000,37487,1,T0,1,100,30.274
1574714609.470456,216659.000,37506,1,T0,1,100,30.280
1574714609.607261,216774.000,37524,1,T0,1,100,30.242
1574714609.744066,216889.000,37542,1,T0,1,100,30.237
1574714609.871353,216996.000,37559,1,T0,1,100,30.263
1574714610.001020,217105.000,37577,1,T0,1,100,30.258
1574714610.135446,217218.000,37611,1,T0,1,100,30.263
1574714610.271061,217332.000,37630,2,T0,1,100,30.253
1574714610.406676,217446.000,37630,2,T0,1,100,30.258
1574714610.532774,217552.000,37653,1,T0,1,100,30.237
1574714610.664821,217663.000,37670,1,T0,1,100,30.274
1574714610.801625,217778.000,37688,1,T0,1,100,30.242
1574714610.939620,217894.000,37722,1,T0,1,100,30.280
1574714611.068097,218002.000,37740,1,T0,1,100,30.274
1574714611.194196,218108.000,37758,1,T0,1,100,30.280
1574714611.331001,218223.000,37776,1,T0,1,100,30.290
1574714611.466616,218337.000,37795,1,T0,1,100,30.242
1574714611.591524,218442.000,37813,1,T0,1,100,30.263
1574714611.728329,218557.000,37831,1,T0,1,100,30.237
1574714611.866323,218673.000,37849,1,T0,1,100,30.247
1574714612.004318,218789.000,37866,1,T0,1,100,30.258
1574714612.131606,218896.000,37900,1,T0,1,100,30.215
1574714612.262462,219006.000,37918,1,T0,1,100,30.253
1574714612.395698,219118.000,37937,1,T0,1,100,30.247
1574714612.536072,219236.000,37955,1,T0,1,100,30.258
1574714612.672877,219351.000,37973,1,T0,1,100,30.221
1574714612.795406,219454.000,37991,1,T0,1,100,30.258
1574714612.928642,219566.000,38009,1,T0,1,100,30.237
1574714613.065447,219681.000,38027,1,T0,1,100,30.247
1574714613.198683,219793.000,38044,1,T0,1,100,30.242
1574714613.331918,219905.000,38078,1,T0,1,100,30.221
1574714613.460396,220013.000,38097,1,T0,1,100,30.269
1574714613.593632,220125.000,38115,1,T0,1,100,30.231
1574714613.729247,220239.000,38133,1,T0,1,100,30.247
1574714613.872000,220359.000,38151,1,T0,1,100,30.237
1574714613.996908,220464.000,38169,1,T0,1,100,30.263
1574714614.126575,220573.000,38187,1,T0,1,100,30.215
1574714614.261001,220686.000,38205,1,T0,1,100,30.269
1574714614.396616,220800.000,38222,1,T0,1,100,30.226
1574714614.532231,220914.000,38257,1,T0,1,100,30.231
1574714614.658330,221020.000,38275,1,T0,1,100,30.226
1574714614.785618,221127.000,38293,1,T0,1,100,30.263
1574714614.924802,221244.000,38311,1,T0,1,100,30.258
1574714615.063985,221361.000,38329,1,T0,1,100,30.226
1574714615.199600,221475.000,38347,1,T0,1,100,30.199
1574714615.342353,221595.000,38365,1,T0,1,100,30.226
1574714615.480348,221711.000,38383,1,T0,1,100,30.237
1574714615.612394,221822.000,38417,1,T0,1,100,30.258
1574714615.740871,221930.000,38435,1,T0,1,100,30.231
1574714615.874107,222042.000,38453,1,T0,1,100,30.204
1574714616.008533,222155.000,38471,1,T0,1,100,30.210
1574714616.151286,222275.000,38489,1,T0,1,100,30.274
1574714616.289280,222391.000,38507,1,T0,1,100,30.231
1574714616.424895,222505.000,38528,1,T0,1,100,30.258
1574714616.552183,222612.000,38549,1,T0,1,100,30.247
1574714616.683040,222722.000,38567,1,T0,1,100,30.237
1574714616.817465,222835.000,38585,1,T0,1,100,30.237
1574714616.955460,222951.000,38603,1,T0,1,100,30.210
1574714617.087506,223062.000,38621,1,T0,1,100,30.242
1574714617.211225,223166.000,38639,1,T0,1,100,30.237
1574714617.345651,223279.000,38656,1,T0,1,100,30.194
1574714617.482455,223394.000,38691,1,T0,1,100,30.210
1574714617.621639,223511.000,38709,1,T0,1,100,30.231
1574714617.747738,223617.000,38727,1,T0,1,100,30.285
1574714617.878594,223727.000,38745,1,T0,1,100,30.258
1574714618.013020,223840.000,38763,1,T0,1,100,30.247
1574714618.147445,223953.000,38781,1,T0,1,100,30.237
1574714618.283061,224067.000,38799,1,T0,1,100,30.237
1574714618.407969,224172.000,38817,1,T0,1,100,30.263
1574714618.542395,224285.000,38836,1,T0,1,100,30.215
1574714618.676820,224398.000,38853,1,T0,1,100,30.215
1574714618.814815,224514.000,38887,1,T0,1,100,30.253
1574714618.944482,224623.000,38905,1,T0,1,100,30.231
1574714619.074149,224732.000,38923,1,T0,1,100,30.194
1574714619.199057,224837.000,38941,1,T0,1,100,30.199
1574714619.331104,224948.000,38959,1,T0,1,100,30.199
1574714619.466719,225062.000,38978,1,T0,1,100,30.226
1574714619.601144,225175.000,38996,1,T0,1,100,30.199
1574714619.743897,225295.000,39014,1,T0,1,100,30.194
1574714619.883081,225412.000,39047,1,T0,1,100,30.221
1574714620.011559,225520.000,39065,1,T0,1,100,30.188
1574714620.141226,225629.000,39083,1,T0,1,100,30.215
1574714620.275651,225742.000,39101,1,T0,1,100,30.215
1574714620.408887,225854.000,39120,1,T0,1,100,30.194
1574714620.549261,225972.000,39138,1,T0,1,100,30.178
1574714620.675359,226078.000,39156,1,T0,1,100,30.231
1574714620.802647,226185.000,39174,1,T0,1,100,30.204
1574714620.940641,226301.000,39192,1,T0,1,100,30.215
1574714621.078635,226417.000,39209,1,T0,1,100,30.210
1574714621.210682,226528.000,39243,1,T0,1,100,30.215
1574714621.339159,226636.000,39261,1,T0,1,100,30.226
1574714621.472395,226748.000,39280,1,T0,1,100,30.204
1574714621.610390,226864.000,39298,1,T0,1,100,30.199
1574714621.747194,226979.000,39316,1,T0,1,100,30.204
1574714621.878051,227089.000,39334,1,T0,1,100,30.215
1574714622.004149,227195.000,39352,1,T0,1,100,30.204
1574714622.143333,227312.000,39370,1,T0,1,100,30.215
1574714622.277759,227425.000,39387,1,T0,1,100,30.194
1574714622.408616,227535.000,39425,2,T0,1,100,30.199
1574714622.539472,227645.000,39425,2,T0,1,100,30.188
1574714622.669139,227754.000,39445,1,T0,1,100,30.162
1574714622.805944,227869.000,39463,1,T0,1,100,30.215
1574714622.947507,227988.000,39480,1,T0,1,100,30.162
1574714623.080743,228100.000,39514,1,T0,1,100,30.204
1574714623.219927,228217.000,39532,1,T0,1,100,30.199
1574714623.359111,228334.000,39550,1,T0,1,100,30.194
1574714623.494726,228448.000,39569,1,T0,1,100,30.226
1574714623.619635,228553.000,39587,1,T0,1,100,30.167
1574714623.752871,228665.000,39605,1,T0,1,100,30.183
1574714623.889676,228780.000,39623,1,T0,1,100,30.188
1574714624.024101,228893.000,39640,1,T0,1,100,30.210
1574714624.158527,229006.000,39674,1,T0,1,100,30.199
1574714624.285815,229113.000,39692,1,T0,1,100,30.226
1574714624.415482,229222.000,39711,1,T0,1,100,30.162
1574714624.553476,229338.000,39729,1,T0,1,100,30.204
1574714624.693850,229456.000,39747,1,T0,1,100,30.172
1574714624.818758,229561.000,39765,1,T0,1,100,30.215
1574714624.949615,229671.000,39783,1,T0,1,100,30.210
1574714625.085230,229785.000,39801,1,T0,1,100,30.194
1574714625.222035,229900.000,39819,1,T0,1,100,30.162
1574714625.358840,230015.000,39853,1,T0,1,100,30.167
1574714625.486127,230122.000,39871,1,T0,1,100,30.188
1574714625.615794,230231.000,39889,1,T0,1,100,30.151
1574714625.750220,230344.000,39907,1,T0,1,100,30.210
1574714625.890594,230462.000,39925,1,T0,1,100,30.199
1574714626.019071,230570.000,39943,1,T0,1,100,30.172
1574714626.145169,230676.000,39961,1,T0,1,100,30.167
1574714626.278405,230788.000,39979,1,T0,1,100,30.178
1574714626.416400,230904.000,39997,1,T0,1,100,30.183
1574714626.554394,231020.000,40015,1,T0,1,100,30.188
1574714626.682872,231128.000,40049,1,T0,1,100,30.167
1574714626.810159,231235.000,40067,1,T0,1,100,30.199
1574714626.946964,231350.000,40085,1,T0,1,100,30.194
1574714627.082579,231464.000,40103,1,T0,1,100,30.221
1574714627.208678,231570.000,40121,1,T0,1,100,30.156
1574714627.347862,231687.000,40139,1,T0,1,100,30.145
1574714627.485856,231803.000,40158,1,T0,1,100,30.172
1574714627.623850,231919.000,40176,1,T0,1,100,30.151
1574714627.751138,232026.000,40193,1,T0,1,100,30.151
1574714627.881995,232136.000,40227,1,T0,1,100,30.151
1574714628.015231,232248.000,40245,1,T0,1,100,30.178
1574714628.155604,232366.000,40263,1,T0,1,100,30.172
1574714628.291219,232480.000,40281,1,T0,1,100,30.151
1574714628.414938,232584.000,40299,1,T0,1,100,30.156
1574714628.548174,232696.000,40321,1,T0,1,100,30.151
1574714628.684979,232811.000,40341,1,T0,1,100,30.162
1574714628.818215,232923.000,40359,1,T0,1,100,30.151
1574714628.950261,233034.000,40377,1,T0,1,100,30.167
1574714629.078739,233142.000,40395,1,T0,1,100,30.172
1574714629.211975,233254.000,40413,1,T0,1,100,30.151
1574714629.347590,233368.000,40431,1,T0,1,100,30.183
1574714629.490343,233488.000,40450,1,T0,1,100,30.156
1574714629.615251,233593.000,40467,1,T0,1,100,30.162
1574714629.746108,233703.000,40485,1,T0,1,100,30.167
1574714629.881723,233817.000,40519,1,T0,1,100,30.129
1574714630.018528,233932.000,40537,1,T0,1,100,30.178
1574714630.152953,234045.000,40555,1,T0,1,100,30.129
1574714630.279052,234151.000,40573,1,T0,1,100,30.178
1574714630.407529,234259.000,40591,1,T0,1,100,30.113
1574714630.546713,234376.000,40610,1,T0,1,100,30.129
1574714630.685897,234493.000,40628,1,T0,1,100,30.167
1574714630.822702,234608.000,40645,1,T0,1,100,30.162
1574714630.964265,234727.000,40679,1,T0,1,100,30.172
1574714631.098691,234840.000,40697,1,T0,1,100,30.145
1574714631.233116,234953.000,40715,1,T0,1,100,30.145
1574714631.361593,235061.000,40733,1,T0,1,100,30.135
1574714631.496019,235174.000,40752,1,T0,1,100,30.140
1574714631.630445,235287.000,40770,1,T0,1,100,30.162
1574714631.772008,235406.000,40788,1,T0,1,100,30.167
1574714631.900485,235514.000,40805,1,T0,1,100,30.156
1574714632.025394,235619.000,40823,1,T0,1,100,30.145
1574714632.163388,235735.000,40857,1,T0,1,100,30.124
1574714632.301383,235851.000,40875,1,T0,1,100,30.113
1574714632.435808,235964.000,40894,1,T0,1,100,30.108
1574714632.563096,236071.000,40912,1,T0,1,100,30.178
1574714632.695142,236182.000,40930,1,T0,1,100,30.135
1574714632.833137,236298.000,40948,1,T0,1,100,30.135
1574714632.968752,236412.000,40966,1,T0,1,100,30.113
1574714633.103177,236525.000,40983,1,T0,1,100,30.156
1574714633.228086,236630.000,41001,1,T0,1,100,30.156
1574714633.361322,236742.000,41035,1,T0,1,100,30.183
1574714633.500506,236859.000,41054,1,T0,1,100,30.140
1574714633.637311,236974.000,41072,1,T0,1,100,30.172
1574714633.765788,237082.000,41090,1,T0,1,100,30.178
1574714633.894266,237190.000,41108,1,T0,1,100,30.135
1574714634.026312,237301.000,41126,1,T0,1,100,30.162
1574714634.165496,237418.000,41144,1,T0,1,100,30.140
1574714634.302301,237533.000,41161,1,T0,1,100,30.145
1574714634.426020,237637.000,41179,1,T0,1,100,30.124
1574714634.555687,237746.000,41198,1,T0,1,100,30.145
1574714634.685354,237855.000,41219,1,T0,1,100,30.151
1574714634.810263,237960.000,41239,1,T0,1,100,30.119
1574714634.942309,238071.000,41257,1,T0,1,100,30.162
1574714635.077924,238185.000,41275,1,T0,1,100,30.145
1574714635.212350,238298.000,41292,1,T0,1,100,30.167
1574714635.350344,238414.000,41326,1,T0,1,100,30.204
1574714635.477632,238521.000,41345,1,T0,1,100,30.145
1574714635.604920,238628.000,41363,1,T0,1,100,30.135
1574714635.746483,238747.000,41381,1,T0,1,100,30.156
1574714635.880908,238860.000,41399,1,T0,1,100,30.108
1574714636.014144,238972.000,41417,1,T0,1,100,30.129
1574714636.154518,239090.000,41435,1,T0,1,100,30.145
1574714636.280616,239196.000,41453,1,T0,1,100,30.199
1574714636.407904,239303.000,41470,1,T0,1,100,30.145
1574714636.545898,239419.000,41489,1,T0,1,100,30.135
1574714636.683893,239535.000,41523,1,T0,1,100,30.108
1574714636.815939,239646.000,41541,1,T0,1,100,30.129
1574714636.944417,239754.000,41559,1,T0,1,100,30.135
1574714637.076463,239865.000,41577,1,T0,1,100,30.108
1574714637.215647,239982.000,41595,1,T0,1,100,30.151
1574714637.352452,240097.000,41613,1,T0,1,100,30.145
1574714637.483308,240207.000,41632,1,T0,1,100,30.086
1574714637.609406,240313.000,41650,1,T0,1,100,30.145
1574714637.748590,240430.000,41667,1,T0,1,100,30.113
1574714637.884206,240544.000,41701,1,T0,1,100,30.129
1574714638.021010,240659.000,41719,1,T0,1,100,30.103
1574714638.144729,240763.000,41737,1,T0,1,100,30.140
1574714638.274397,240872.000,41755,1,T0,1,100,30.113
1574714638.412391,240988.000,41773,1,T0,1,100,30.145
1574714638.551575,241105.000,41792,1,T0,1,100,30.129
1574714638.686000,241218.000,41810,1,T0,1,100,30.129
1574714638.825184,241335.000,41827,1,T0,1,100,30.124
1574714638.954851,241444.000,41861,1,T0,1,100,30.151
1574714639.084518,241553.000,41879,1,T0,1,100,30.145
1574714639.215375,241663.000,41897,1,T0,1,100,30.103
1574714639.358128,241783.000,41915,1,T0,1,100,30.124
1574714639.494933,241898.000,41934,1,T0,1,100,30.124
1574714639.630548,242012.000,41952,1,T0,1,100,30.119
1574714639.763784,242124.000,41970,1,T0,1,100,30.156
1574714639.892261,242232.000,41987,1,T0,1,100,30.113
1574714640.021928,242341.000,42005,1,T0,1,100,30.119
1574714640.159923,242457.000,42039,1,T0,1,100,30.129
1574714640.300296,242575.000,42057,1,T0,1,100,30.135
1574714640.425205,242680.000,42076,1,T0,1,100,30.119
1574714640.556062,242790.000,42094,1,T0,1,100,30.129
1574714640.692272,242904.500,42115,2,T0,1,100,30.119
1574714640.828481,243019.000,42115,2,T0,1,100,30.119
1574714640.964097,243133.000,42151,1,T0,1,100,30.156
1574714641.091385,243240.000,42169,1,T0,1,100,30.124
1574714641.221052,243349.000,42187,1,T0,1,100,30.097
1574714641.355477,243462.000,42205,1,T0,1,100,30.140
1574714641.495851,243580.000,42224,1,T0,1,100,30.129
1574714641.626708,243690.000,42242,1,T0,1,100,30.124
1574714641.753995,243797.000,42260,1,T0,1,100,30.081
1574714641.888421,243910.000,42277,1,T0,1,100,30.081
1574714642.026415,244026.000,42295,1,T0,1,100,30.108
1574714642.164410,244142.000,42329,1,T0,1,100,30.113
1574714642.291698,244249.000,42347,1,T0,1,100,30.103
1574714642.416606,244354.000,42366,1,T0,1,100,30.070
1574714642.553411,244469.000,42384,1,T0,1,100,30.092
1574714642.690216,244584.000,42402,1,T0,1,100,30.092
1574714642.816314,244690.000,42420,1,T0,1,100,30.108
1574714642.956687,244808.000,42438,1,T0,1,100,30.113
1574714643.094682,244924.000,42455,1,T0,1,100,30.097
1574714643.232676,245040.000,42489,1,T0,1,100,30.097
1574714643.359964,245147.000,42507,1,T0,1,100,30.092
1574714643.490821,245257.000,42526,1,T0,1,100,30.119
1574714643.622867,245368.000,42544,1,T0,1,100,30.076
1574714643.762051,245485.000,42562,1,T0,1,100,30.140
1574714643.896477,245598.000,42580,1,T0,1,100,30.086
1574714644.020196,245702.000,42598,1,T0,1,100,30.081
1574714644.153431,245814.000,42616,1,T0,1,100,30.119
1574714644.287857,245927.000,42634,1,T0,1,100,30.124
1574714644.422283,246040.000,42651,1,T0,1,100,30.076
1574714644.554329,246151.000,42686,1,T0,1,100,30.097
1574714644.683996,246260.000,42704,1,T0,1,100,30.086
1574714644.817232,246372.000,42722,1,T0,1,100,30.103
1574714644.952847,246486.000,42740,1,T0,1,100,30.113
1574714645.094410,246605.000,42758,1,T0,1,100,30.103
1574714645.219319,246710.000,42776,1,T0,1,100,30.065
1574714645.346607,246817.000,42794,1,T0,1,100,30.097
1574714645.483412,246932.000,42813,1,T0,1,100,30.103
1574714645.621406,247048.000,42830,1,T0,1,100,30.076
1574714645.754642,247160.000,42864,1,T0,1,100,30.033
1574714645.880740,247266.000,42882,1,T0,1,100,30.038
1574714646.009218,247374.000,42900,1,T0,1,100,30.124
1574714646.148401,247491.000,42918,1,T0,1,100,30.076
1574714646.287585,247608.000,42936,1,T0,1,100,30.076
1574714646.424390,247723.000,42954,1,T0,1,100,30.076
1574714646.562385,247839.000,42973,1,T0,1,100,30.086
1574714646.689672,247946.000,42990,1,T0,1,100,30.092
1574714646.819340,248055.000,43011,1,T0,1,100,30.070
1574714646.947817,248163.000,43031,1,T0,1,100,30.044
1574714647.082242,248276.000,43049,1,T0,1,100,30.108
1574714647.216668,248389.000,43067,1,T0,1,100,30.065
1574714647.358231,248508.000,43085,1,T0,1,100,30.076
1574714647.487898,248617.000,43103,1,T0,1,100,30.113
1574714647.612807,248722.000,43121,1,T0,1,100,30.113
1574714647.749612,248837.000,43155,1,T0,1,100,30.070
1574714647.887606,248953.000,43173,1,T0,1,100,30.060
1574714648.022032,249066.000,43191,1,T0,1,100,30.049
1574714648.149320,249173.000,43209,1,T0,1,100,30.086
1574714648.281366,249284.000,43227,1,T0,1,100,30.070
1574714648.414602,249396.000,43245,1,T0,1,100,30.038
1574714648.552596,249512.000,43264,1,T0,1,100,30.054
1574714648.687022,249625.000,43281,1,T0,1,100,30.049
1574714648.811930,249730.000,43299,1,T0,1,100,30.076
1574714648.945166,249842.000,43333,1,T0,1,100,30.060
1574714649.084350,249959.000,43351,1,T0,1,100,30.038
1574714649.221155,250074.000,43369,1,T0,1,100,30.086
1574714649.348443,250181.000,43387,1,T0,1,100,30.070
1574714649.474541,250287.000,43406,1,T0,1,100,30.097
1574714649.610156,250401.000,43424,1,T0,1,100,30.070
1574714649.749340,250518.000,43442,1,T0,1,100,30.065
1574714649.886145,250633.000,43459,1,T0,1,100,30.054
1574714650.009864,250737.000,43477,1,T0,1,100,30.054
1574714650.143100,250849.000,43495,1,T0,1,100,30.065
1574714650.282284,250966.000,43529,1,T0,1,100,30.081
1574714650.416709,251079.000,43548,1,T0,1,100,30.027
1574714650.559462,251199.000,43566,1,T0,1,100,30.065
1574714650.693888,251312.000,43584,1,T0,1,100,30.044
1574714650.831882,251428.000,43602,1,T0,1,100,30.097
1574714650.968687,251543.000,43619,1,T0,1,100,30.065
1574714651.095975,251650.000,43637,1,T0,1,100,30.060
1574714651.223263,251757.000,43655,1,T0,1,100,30.027
1574714651.362447,251874.000,43689,1,T0,1,100,30.070
1574714651.500441,251990.000,43708,1,T0,1,100,30.065
1574714651.628918,252098.000,43726,1,T0,1,100,30.108
1574714651.759775,252208.000,43744,1,T0,1,100,30.049
1574714651.893011,252320.000,43762,1,T0,1,100,30.049
1574714652.026247,252432.000,43780,1,T0,1,100,30.049
1574714652.167810,252551.000,43798,1,T0,1,100,30.049
1574714652.293908,252657.000,43815,1,T0,1,100,30.081
1574714652.423575,252766.000,43833,1,T0,1,100,30.065
1574714652.559191,252880.000,43868,1,T0,1,100,30.033
1574714652.699564,252998.000,43886,1,T0,1,100,30.049
1574714652.829231,253107.000,43907,2,T0,1,100,30.065
1574714652.958898,253216.000,43907,2,T0,1,100,30.054
1574714653.093324,253329.000,43925,1,T0,1,100,30.038
1574714653.231318,253445.000,43961,1,T0,1,100,30.006
1574714653.369313,253561.000,43979,1,T0,1,100,30.081
1574714653.495411,253667.000,43998,1,T0,1,100,30.060
1574714653.619130,253771.000,44016,1,T0,1,100,30.060
1574714653.758314,253888.000,44034,1,T0,1,100,30.060
1574714653.891550,254000.000,44052,1,T0,1,100,30.065
1574714654.029544,254116.000,44070,1,T0,1,100,30.049
1574714654.166349,254231.000,44087,1,T0,1,100,30.033
1574714654.296016,254340.000,44105,1,T0,1,100,30.076
1574714654.420925,254445.000,44140,1,T0,1,100,30.033
1574714654.556540,254559.000,44158,1,T0,1,100,30.027
1574714654.694534,254675.000,44176,1,T0,1,100,30.027
1574714654.827770,254787.000,44194,1,T0,1,100,30.022
1574714654.966954,254904.000,44212,1,T0,1,100,30.022
1574714655.104948,255020.000,44230,1,T0,1,100,30.081
1574714655.229857,255125.000,44248,1,T0,1,100,30.049
1574714655.361903,255236.000,44265,1,T0,1,100,30.065
1574714655.498708,255351.000,44284,1,T0,1,100,30.060
1574714655.633134,255464.000,44318,1,T0,1,100,30.065
1574714655.768749,255578.000,44336,1,T0,1,100,30.049
1574714655.894847,255684.000,44354,1,T0,1,100,30.044
1574714656.024514,255793.000,44372,1,T0,1,100,30.049
1574714656.162508,255909.000,44390,1,T0,1,100,30.038
1574714656.302882,256027.000,44408,1,T0,1,100,30.017
1574714656.431360,256135.000,44426,1,T0,1,100,30.070
1574714656.559837,256243.000,44444,1,T0,1,100,30.038
1574714656.695452,256357.000,44462,1,T0,1,100,30.022
1574714656.833447,256473.000,44496,1,T0,1,100,30.033
1574714656.970251,256588.000,44514,1,T0,1,100,30.060
1574714657.097539,256695.000,44532,1,T0,1,100,30.060
1574714657.227206,256804.000,44550,1,T0,1,100,30.033
1574714657.367580,256922.000,44568,1,T0,1,100,30.044
1574714657.502005,257035.000,44587,1,T0,1,100,30.038
1574714657.632862,257145.000,44605,1,T0,1,100,30.065
1574714657.760150,257252.000,44622,1,T0,1,100,30.038
1574714657.892196,257363.000,44640,1,T0,1,100,30.038
1574714658.030190,257479.000,44674,1,T0,1,100,30.049
1574714658.172943,257599.000,44692,1,T0,1,100,30.044
1574714658.307369,257712.000,44710,1,T0,1,100,30.033
1574714658.446553,257829.000,44728,1,T0,1,100,30.033
1574714658.573841,257936.000,44747,1,T0,1,100,30.044
1574714658.705887,258047.000,44765,1,T0,1,100,30.049
1574714658.839123,258159.000,44783,1,T0,1,100,30.044
1574714658.979496,258277.000,44803,1,T0,1,100,30.054
1574714659.111543,258388.000,44823,1,T0,1,100,30.001
1574714659.253106,258507.000,44841,1,T0,1,100,30.049
1574714659.380394,258614.000,44859,1,T0,1,100,30.044
1574714659.511250,258724.000,44878,1,T0,1,100,30.017
1574714659.643297,258835.000,44895,1,T0,1,100,30.049
1574714659.780102,258950.000,44929,1,T0,1,100,30.006
1574714659.915717,259064.000,44947,1,T0,1,100,30.060
1574714660.039436,259168.000,44965,1,T0,1,100,30.033
1574714660.172672,259280.000,44983,1,T0,1,100,30.049
1574714660.308287,259394.000,45001,1,T0,1,100,30.033
1574714660.446281,259510.000,45019,1,T0,1,100,30.049
1574714660.577138,259620.000,45038,1,T0,1,100,30.049
1574714660.704426,259727.000,45056,1,T0,1,100,30.011
1574714660.838851,259840.000,45073,1,T0,1,100,30.011
1574714660.974467,259954.000,45091,1,T0,1,100,30.022
1574714661.114840,260072.000,45125,1,T0,1,100,30.044
1574714661.242128,260179.000,45143,1,T0,1,100,30.001
1574714661.372985,260289.000,45161,1,T0,1,100,30.038
1574714661.507410,260402.000,45180,1,T0,1,100,30.054
1574714661.645405,260518.000,45198,1,T0,1,100,30.044
1574714661.779830,260631.000,45216,1,T0,1,100,30.065
1574714661.903549,260735.000,45234,1,T0,1,100,30.022
1574714662.034406,260845.000,45252,1,T0,1,100,30.054
1574714662.172400,260961.000,45269,1,T0,1,100,30.033
1574714662.310395,261077.000,45303,1,T0,1,100,30.038
1574714662.443630,261189.000,45322,1,T0,1,100,30.038
1574714662.585194,261308.000,45340,1,T0,1,100,30.070
1574714662.712481,261415.000,45358,1,T0,1,100,30.022
1574714662.838580,261521.000,45376,1,T0,1,100,30.001
1574714662.976574,261637.000,45394,1,T0,1,100,30.033
1574714663.114568,261753.000,45412,1,T0,1,100,30.033
1574714663.248994,261866.000,45429,1,T0,1,100,30.017
1574714663.377471,261974.000,45447,1,T0,1,100,30.086
1574714663.510707,262086.000,45482,1,T0,1,100,30.038
1574714663.643943,262198.000,45500,1,T0,1,100,30.044
1574714663.783127,262315.000,45518,1,T0,1,100,30.076
1574714663.915174,262426.000,45536,1,T0,1,100,30.022
1574714664.040082,262531.000,45554,1,T0,1,100,30.038
1574714664.174508,262644.000,45572,1,T0,1,100,30.028
1574714664.313692,262761.000,45590,1,T0,1,100,29.985
1574714664.451686,262877.000,45607,1,T0,1,100,30.033
1574714664.577784,262983.000,45626,1,T0,1,100,30.027
1574714664.708641,263093.000,45660,1,T0,1,100,30.011
1574714664.843067,263206.000,45678,1,T0,1,100,30.001
1574714664.979276,263320.500,45699,2,T0,1,100,30.017
1574714665.115486,263435.000,45699,2,T0,1,100,30.049
1574714665.239206,263539.000,45717,1,T0,1,100,30.044
1574714665.371252,263650.000,45737,1,T0,1,100,30.033
1574714665.505677,263763.000,45772,1,T0,1,100,30.027
1574714665.642482,263878.000,45790,1,T0,1,100,30.054
1574714665.776908,263991.000,45808,1,T0,1,100,29.985
1574714665.906575,264100.000,45826,1,T0,1,100,30.049
1574714666.031483,264205.000,45844,1,T0,1,100,30.022
1574714666.161150,264314.000,45862,1,T0,1,100,29.995
1574714666.288438,264421.000,45880,1,T0,1,100,30.001
1574714666.416916,264529.000,45898,1,T0,1,100,30.049
1574714666.556100,264646.000,45917,1,T0,1,100,30.006
1574714666.696473,264764.000,45950,1,T0,1,100,29.995
1574714666.823761,264871.000,45968,1,T0,1,100,29.979
1574714666.954618,264981.000,45986,1,T0,1,100,30.033
1574714667.089044,265094.000,46004,1,T0,1,100,30.038
1574714667.223469,265207.000,46022,1,T0,1,100,30.049
1574714667.363843,265325.000,46040,1,T0,1,100,30.017
1574714667.489941,265431.000,46059,1,T0,1,100,29.985
1574714667.617229,265538.000,46077,1,T0,1,100,30.006
1574714667.755223,265654.000,46095,1,T0,1,100,30.017
1574714667.894407,265771.000,46128,1,T0,1,100,29.963
1574714668.027643,265883.000,46146,1,T0,1,100,30.006
1574714668.152552,265988.000,46164,1,T0,1,100,30.033
1574714668.286977,266101.000,46182,1,T0,1,100,30.049
1574714668.424972,266217.000,46200,1,T0,1,100,30.011
1574714668.561776,266332.000,46219,1,T0,1,100,30.011
1574714668.692633,266442.000,46237,1,T0,1,100,30.022
1574714668.818731,266548.000,46255,1,T0,1,100,30.006
1574714668.959105,266666.000,46273,1,T0,1,100,30.044
1574714669.093530,266779.000,46290,1,T0,1,100,30.017
1574714669.230335,266894.000,46324,1,T0,1,100,30.001
1574714669.354054,266998.000,46342,1,T0,1,100,30.011
1574714669.483721,267107.000,46361,1,T0,1,100,29.985
1574714669.618147,267220.000,46379,1,T0,1,100,30.011
1574714669.759710,267339.000,46397,1,T0,1,100,30.001
1574714669.892946,267451.000,46415,1,T0,1,100,29.985
1574714670.030940,267567.000,46433,1,T0,1,100,30.001
1574714670.167745,267682.000,46450,1,T0,1,100,29.969
1574714670.303360,267796.000,46484,1,T0,1,100,30.006
1574714670.428269,267901.000,46503,1,T0,1,100,30.044
1574714670.562694,268014.000,46521,1,T0,1,100,30.049
1574714670.699499,268129.000,46539,1,T0,1,100,30.028
1574714670.835114,268243.000,46557,1,T0,1,100,29.990
1574714670.968350,268355.000,46575,1,T0,1,100,30.017
1574714671.096828,268463.000,46596,1,T0,1,100,30.006
1574714671.226495,268572.000,46616,1,T0,1,100,29.985
1574714671.364489,268688.000,46634,1,T0,1,100,30.044
1574714671.503673,268805.000,46653,1,T0,1,100,29.985
1574714671.628582,268910.000,46671,1,T0,1,100,29.974
1574714671.759438,269020.000,46689,1,T0,1,100,30.049
1574714671.893864,269133.000,46707,1,T0,1,100,29.995
1574714672.031858,269249.000,46725,1,T0,1,100,29.985
1574714672.167473,269363.000,46742,1,T0,1,100,29.974
1574714672.294761,269470.000,46776,1,T0,1,100,30.006
1574714672.424428,269579.000,46795,1,T0,1,100,30.001
1574714672.558854,269692.000,46813,1,T0,1,100,30.011
1574714672.699228,269810.000,46831,1,T0,1,100,30.006
1574714672.831274,269921.000,46849,1,T0,1,100,30.022
1574714672.958562,270028.000,46867,1,T0,1,100,29.990
1574714673.092987,270141.000,46885,1,T0,1,100,30.017
1574714673.230982,270257.000,46903,1,T0,1,100,30.022
1574714673.368976,270373.000,46920,1,T0,1,100,30.017
1574714673.500546,270483.600,46955,5,T0,1,100,29.985
1574714673.632117,270594.200,46955,5,T0,1,100,30.022
1574714673.763687,270704.800,46955,5,T0,1,100,29.985
1574714673.895258,270815.400,46955,5,T0,1,100,30.033
1574714674.026828,270926.000,46955,5,T0,1,100,30.033
1574714674.161254,271039.000,46973,6,T0,1,100,30.011
1574714674.295679,271152.000,46973,6,T0,1,100,29.995
1574714674.430105,271265.000,46973,6,T0,1,100,29.995
1574714674.564530,271378.000,46973,6,T0,1,100,30.028
1574714674.698956,271491.000,46973,6,T0,1,100,30.017
1574714674.833381,271604.000,46973,6,T0,1,100,29.990
1574714674.965874,271715.375,46992,8,T0,1,100,30.001
1574714675.098366,271826.750,46992,8,T0,1,100,29.990
1574714675.230859,271938.125,46992,8,T0,1,100,30.033
1574714675.363351,272049.500,46992,8,T0,1,100,29.990
1574714675.495843,272160.875,46992,8,T0,1,100,30.017
1574714675.628336,272272.250,46992,8,T0,1,100,30.001
1574714675.760828,272383.625,46992,8,T0,1,100,30.001
1574714675.893321,272495.000,46992,8,T0,1,100,30.022
1574714676.026896,272607.286,47014,14,T0,1,100,30.006
1574714676.160472,272719.571,47014,14,T0,1,100,29.958
1574714676.294048,272831.857,47014,14,T0,1,100,30.017
1574714676.427624,272944.143,47014,14,T0,1,100,30.011
1574714676.561200,273056.429,47014,14,T0,1,100,29.979
1574714676.694776,273168.714,47014,14,T0,1,100,30.006
1574714676.828351,273281.000,47014,14,T0,1,100,29.979
1574714676.961927,273393.286,47014,14,T0,1,100,29.985
1574714677.095503,273505.571,47014,14,T0,1,100,30.022
1574714677.229079,273617.857,47014,14,T0,1,100,30.033
1574714677.362655,273730.143,47014,14,T0,1,100,29.995
1574714677.496230,273842.429,47014,14,T0,1,100,29.990
1574714677.629806,273954.714,47014,14,T0,1,100,29.979
1574714677.763382,274067.000,47014,14,T0,1,100,29.995
1574714677.898336,274180.444,47034,18,T0,1,100,29.985
1574714678.033291,274293.889,47034,18,T0,1,100,29.990
1574714678.168245,274407.333,47034,18,T0,1,100,29.995
1574714678.303199,274520.778,47034,18,T0,1,100,29.974
1574714678.438153,274634.222,47034,18,T0,1,100,30.022
1574714678.573107,274747.667,47034,18,T0,1,100,30.001
1574714678.708062,274861.111,47034,18,T0,1,100,29.995
1574714678.843016,274974.556,47034,18,T0,1,100,29.979
1574714678.977970,275088.000,47034,18,T0,1,100,29.979
1574714679.112925,275201.444,47034,18,T0,1,100,30.006
1574714679.247879,275314.889,47034,18,T0,1,100,29.979
1574714679.382833,275428.333,47034,18,T0,1,100,30.011
1574714679.517787,275541.778,47034,18,T0,1,100,29.963
1574714679.652741,275655.222,47034,18,T0,1,100,29.990
1574714679.787696,275768.667,47034,18,T0,1,100,29.974
1574714679.922650,275882.111,47034,18,T0,1,100,29.979
1574714680.057604,275995.556,47034,18,T0,1,100,30.017
1574714680.192558,276109.000,47034,18,T0,1,100,29.985
1574714680.334176,276228.045,47055,22,T0,1,100,30.001
1574714680.475793,276347.091,47055,22,T0,1,100,29.979
1574714680.617410,276466.136,47055,22,T0,1,100,29.979
1574714680.759027,276585.182,47055,22,T0,1,100,30.011
1574714680.900645,276704.227,47055,22,T0,1,100,29.963
1574714681.042262,276823.273,47055,22,T0,1,100,29.969
1574714681.183879,276942.318,47055,22,T0,1,100,29.990
1574714681.325496,277061.364,47055,22,T0,1,100,29.990
1574714681.467113,277180.409,47055,22,T0,1,100,29.974
1574714681.608731,277299.455,47055,22,T0,1,100,29.969
1574714681.750348,277418.500,47055,22,T0,1,100,29.947
1574714681.891965,277537.545,47055,22,T0,1,100,29.990
1574714682.033582,277656.591,47055,22,T0,1,100,29.995
1574714682.175200,277775.636,47055,22,T0,1,100,29.969
1574714682.316817,277894.682,47055,22,T0,1,100,29.985
1574714682.458434,278013.727,47055,22,T0,1,100,29.995
1574714682.600051,278132.773,47055,22,T0,1,100,29.974
1574714682.741669,278251.818,47055,22,T0,1,100,29.990
1574714682.883286,278370.864,47055,22,T0,1,100,29.985
1574714683.024903,278489.909,47055,22,T0,1,100,29.969
1574714683.166520,278608.955,47055,22,T0,1,100,29.958
1574714683.308138,278728.000,47055,22,T0,1,100,29.985
1574714683.443158,278841.500,47078,6,T0,1,100,29.963
1574714683.578178,278955.000,47078,6,T0,1,100,30.001
1574714683.713199,279068.500,47078,6,T0,1,100,29.990
1574714683.848219,279182.000,47078,6,T0,1,100,29.926
1574714683.983239,279295.500,47078,6,T0,1,100,29.963
1574714684.118260,279409.000,47078,6,T0,1,100,29.958
1574714684.257444,279526.000,47097,1,T0,1,100,29.990
1574714684.394248,279641.000,47116,1,T0,1,100,29.969
1574714684.525105,279751.000,47134,1,T0,1,100,29.963
1574714684.650014,279856.000,47153,1,T0,1,100,29.952
1574714684.790387,279974.000,47171,1,T0,1,100,30.044
1574714684.923623,280086.000,47189,1,T0,1,100,29.979
1574714685.061618,280202.000,47207,1,T0,1,100,29.974
1574714685.185337,280306.000,47224,1,T0,1,100,29.958
1574714685.315004,280415.000,47242,1,T0,1,100,29.969
1574714685.452998,280531.000,47260,1,T0,1,100,29.958
1574714685.594561,280650.000,47294,1,T0,1,100,29.969
1574714685.731366,280765.000,47313,1,T0,1,100,29.958
1574714685.866981,280879.000,47331,1,T0,1,100,29.942
1574714685.997838,280989.000,47349,1,T0,1,100,29.952
1574714686.126315,281097.000,47367,1,T0,1,100,29.979
1574714686.257172,281207.000,47385,1,T0,1,100,29.979
1574714686.396356,281324.000,47403,1,T0,1,100,29.958
1574714686.536730,281442.000,47436,1,T0,1,100,29.979
1574714686.674724,281558.000,47455,1,T0,1,100,29.936
1574714686.809149,281671.000,47473,1,T0,1,100,29.952
1574714686.935248,281777.000,47491,1,T0,1,100,29.947
1574714687.064915,281886.000,47509,1,T0,1,100,30.001
1574714687.202909,282002.000,47527,1,T0,1,100,29.969
1574714687.343283,282120.000,47545,1,T0,1,100,29.985
1574714687.469381,282226.000,47562,1,T0,1,100,30.006
1574714687.600238,282336.000,47580,1,T0,1,100,29.963
1574714687.737042,282451.000,47615,1,T0,1,100,29.942
1574714687.875037,282567.000,47633,1,T0,1,100,29.969
1574714688.011842,282682.000,47651,1,T0,1,100,29.995
1574714688.137940,282788.000,47669,1,T0,1,100,29.995
1574714688.268796,282898.000,47687,1,T0,1,100,29.952
1574714688.403222,283011.000,47705,1,T0,1,100,29.952
1574714688.542406,283128.000,47723,1,T0,1,100,29.963
1574714688.673263,283238.000,47740,1,T0,1,100,29.958
1574714688.800550,283345.000,47759,1,T0,1,100,29.985
1574714688.933786,283457.000,47777,1,T0,1,100,29.947
1574714689.071781,283573.000,47811,1,T0,1,100,29.926
1574714689.209775,283689.000,47829,1,T0,1,100,29.974
1574714689.338253,283797.000,47847,1,T0,1,100,30.001
1574714689.472678,283910.000,47865,1,T0,1,100,29.952
1574714689.597587,284015.000,47883,1,T0,1,100,29.920
1574714689.729633,284126.000,47902,1,T0,1,100,29.963
1574714689.864059,284239.000,47920,1,T0,1,100,30.011
1574714690.004432,284357.000,47938,1,T0,1,100,29.979
1574714690.137668,284469.000,47958,1,T0,1,100,29.947
1574714690.262577,284574.000,47978,1,T0,1,100,29.969
1574714690.398192,284688.000,47996,1,T0,1,100,30.006
1574714690.533807,284802.000,48014,1,T0,1,100,29.942
1574714690.671802,284918.000,48032,1,T0,1,100,29.952
1574714690.801469,285027.000,48050,1,T0,1,100,29.942
1574714690.931136,285136.000,48084,1,T0,1,100,29.974
1574714691.060803,285245.000,48102,1,T0,1,100,29.985
1574714691.198797,285361.000,48120,1,T0,1,100,29.947
1574714691.336792,285477.000,48138,1,T0,1,100,29.985
1574714691.461700,285582.000,48156,1,T0,1,100,29.974
1574714691.590178,285690.000,48174,1,T0,1,100,29.979
1574714691.729362,285807.000,48193,1,T0,1,100,29.947
1574714691.866166,285922.000,48211,1,T0,1,100,29.985
1574714691.999402,286034.000,48228,1,T0,1,100,29.990
1574714692.127880,286142.000,48246,1,T0,1,100,29.963
1574714692.259926,286253.000,48280,1,T0,1,100,29.969
1574714692.399110,286370.000,48298,1,T0,1,100,29.990
1574714692.534725,286484.000,48316,1,T0,1,100,29.974
1574714692.662013,286591.000,48334,1,T0,1,100,29.985
1574714692.791680,286700.000,48353,1,T0,1,100,30.001
1574714692.924916,286812.000,48371,1,T0,1,100,29.958
1574714693.060531,286926.000,48389,1,T0,1,100,29.963
1574714693.202094,287045.000,48406,1,T0,1,100,29.947
1574714693.341278,287162.000,48440,1,T0,1,100,29.990
1574714693.476893,287276.000,48458,1,T0,1,100,29.958
1574714693.617267,287394.000,48476,1,T0,1,100,29.990
1574714693.744555,287501.000,48495,1,T0,1,100,29.985
1574714693.870653,287607.000,48513,1,T0,1,100,29.990
1574714694.009837,287724.000,48531,1,T0,1,100,29.963
1574714694.147831,287840.000,48549,1,T0,1,100,29.952
1574714694.282257,287953.000,48566,1,T0,1,100,29.963
1574714694.409545,288060.000,48584,1,T0,1,100,29.969
1574714694.540401,288170.000,48618,1,T0,1,100,29.969
1574714694.674827,288283.000,48637,1,T0,1,100,29.931
1574714694.814011,288400.000,48655,1,T0,1,100,29.963
1574714694.944868,288510.000,48673,1,T0,1,100,29.942
1574714695.068587,288614.000,48691,1,T0,1,100,29.979
1574714695.204202,288728.000,48709,1,T0,1,100,29.958
1574714695.341007,288843.000,48727,1,T0,1,100,29.979
1574714695.480191,288960.000,48745,1,T0,1,100,29.985
1574714695.605099,289065.000,48762,1,T0,1,100,29.974
1574714695.735956,289175.000,48798,1,T0,1,100,29.942
1574714695.870382,289288.000,48815,1,T0,1,100,29.969
1574714696.004807,289401.000,48833,1,T0,1,100,29.979
1574714696.135069,289510.500,48854,2,T0,1,100,29.995
1574714696.265331,289620.000,48854,2,T0,1,100,30.001
1574714696.400946,289734.000,48872,1,T0,1,100,29.942
1574714696.535372,289847.000,48908,1,T0,1,100,29.963
1574714696.673366,289963.000,48927,1,T0,1,100,29.958
1574714696.801843,290071.000,48945,1,T0,1,100,29.969
1574714696.927942,290177.000,48963,1,T0,1,100,29.947
1574714697.064746,290292.000,48981,1,T0,1,100,29.963
1574714697.207499,290412.000,48999,1,T0,1,100,29.963
1574714697.344304,290527.000,49017,1,T0,1,100,29.952
1574714697.478729,290640.000,49034,1,T0,1,100,29.985
1574714697.615534,290755.000,49068,1,T0,1,100,29.969
1574714697.742822,290862.000,49087,1,T0,1,100,29.952
1574714697.870110,290969.000,49105,1,T0,1,100,29.952
1574714698.010484,291087.000,49123,1,T0,1,100,29.974
1574714698.146099,291201.000,49141,1,T0,1,100,29.963
1574714698.280524,291314.000,49159,1,T0,1,100,29.969
1574714698.419708,291431.000,49177,1,T0,1,100,29.969
1574714698.545806,291537.000,49194,1,T0,1,100,29.947
1574714698.673094,291644.000,49212,1,T0,1,100,29.985
1574714698.809899,291759.000,49231,1,T0,1,100,29.969
1574714698.947893,291875.000,49265,1,T0,1,100,29.958
1574714699.079940,291986.000,49283,1,T0,1,100,29.985
1574714699.208417,292094.000,49301,1,T0,1,100,29.963
1574714699.341653,292206.000,49319,1,T0,1,100,29.947
1574714699.480837,292323.000,49337,1,T0,1,100,29.942
1574714699.617642,292438.000,49355,1,T0,1,100,29.947
1574714699.746119,292546.000,49373,1,T0,1,100,29.952
1574714699.874597,292654.000,49391,1,T0,1,100,29.952
1574714700.009022,292767.000,49409,1,T0,1,100,29.979
1574714700.148206,292884.000,49443,1,T0,1,100,29.969
1574714700.285011,292999.000,49461,1,T0,1,100,29.958
1574714700.408730,293103.000,49479,1,T0,1,100,29.974
1574714700.538397,293212.000,49497,1,T0,1,100,29.969
1574714700.676392,293328.000,49515,1,T0,1,100,29.985
1574714700.814386,293444.000,49534,1,T0,1,100,29.969
1574714700.947622,293556.000,49552,1,T0,1,100,29.952
1574714701.085616,293672.000,49569,1,T0,1,100,29.969
1574714701.210525,293777.000,49587,1,T0,1,100,29.947
1574714701.341382,293887.000,49621,1,T0,1,100,29.963
1574714701.472238,293997.000,49639,1,T0,1,100,29.974
1574714701.612612,294115.000,49657,1,T0,1,100,29.942
1574714701.750606,294231.000,49676,1,T0,1,100,29.979
1574714701.875515,294336.000,49694,1,T0,1,100,29.958
1574714702.008751,294448.000,49712,1,T0,1,100,29.963
1574714702.144366,294562.000,49730,1,T0,1,100,29.958
1574714702.278791,294675.000,49750,1,T0,1,100,29.974
1574714702.414407,294789.000,49770,1,T0,1,100,29.969
1574714702.541694,294896.000,49788,1,T0,1,100,29.931
1574714702.668982,295003.000,49806,1,T0,1,100,29.942
1574714702.806977,295119.000,49825,1,T0,1,100,29.942
1574714702.948540,295238.000,49843,1,T0,1,100,29.947
1574714703.075828,295345.000,49860,1,T0,1,100,29.952
1574714703.203116,295452.000,49878,1,T0,1,100,29.969
1574714703.341110,295568.000,49912,1,T0,1,100,29.979
1574714703.477915,295683.000,49930,1,T0,1,100,29.979
1574714703.614719,295798.000,49948,1,T0,1,100,29.958
1574714703.742007,295905.000,49967,1,T0,1,100,29.963
1574714703.869295,296012.000,49985,1,T0,1,100,29.947
1574714704.009669,296130.000,50003,1,T0,1,100,29.974
1574714704.145284,296244.000,50021,1,T0,1,100,29.947
1574714704.277330,296355.000,50038,1,T0,1,100,29.979
1574714704.402239,296460.000,50056,1,T0,1,100,29.952
1574714704.533096,296570.000,50090,1,T0,1,100,29.942
1574714704.669900,296685.000,50109,1,T0,1,100,29.963
1574714704.812653,296805.000,50127,1,T0,1,100,29.969
1574714704.950647,296921.000,50145,1,T0,1,100,29.936
1574714705.087452,297036.000,50163,1,T0,1,100,29.926
1574714705.226636,297153.000,50181,1,T0,1,100,29.920
1574714705.358682,297264.000,50198,1,T0,1,100,29.963
1574714705.483591,297369.000,50216,1,T0,1,100,29.920
1574714705.620396,297484.000,50250,1,T0,1,100,29.888
1574714705.757201,297599.000,50269,1,T0,1,100,29.969
1574714705.896384,297716.000,50287,1,T0,1,100,29.931
1574714706.023673,297823.000,50305,1,T0,1,100,29.931
1574714706.152150,297931.000,50323,1,T0,1,100,29.915
1574714706.285386,298043.000,50341,1,T0,1,100,29.936
1574714706.423380,298159.000,50359,1,T0,1,100,29.979
1574714706.558995,298273.000,50376,1,T0,1,100,29.947
1574714706.682714,298377.000,50394,1,T0,1,100,29.947
1574714706.815950,298489.000,50429,1,T0,1,100,29.942
1574714706.953945,298605.000,50447,1,T0,1,100,29.969
1574714707.090750,298720.000,50465,1,T0,1,100,29.926
1574714707.221606,298830.000,50483,1,T0,1,100,29.915
1574714707.350084,298938.000,50501,1,T0,1,100,29.920
1574714707.483320,299050.000,50519,1,T0,1,100,29.931
1574714707.618935,299164.000,50537,1,T0,1,100,29.936
1574714707.758119,299281.000,50555,1,T0,1,100,29.936
1574714707.884217,299387.000,50573,1,T0,1,100,29.920
1574714708.015074,299497.000,50607,1,T0,1,100,29.915
1574714708.149499,299610.000,50625,1,T0,1,100,29.947
1574714708.285709,299724.500,50645,2,T0,1,100,29.910
1574714708.421919,299839.000,50645,2,T0,1,100,29.947
1574714708.546828,299944.000,50666,1,T0,1,100,29.936
1574714708.677684,300054.000,50684,1,T0,1,100,29.947
1574714708.815679,300170.000,50719,1,T0,1,100,29.926
1574714708.951294,300284.000,50737,1,T0,1,100,29.974
1574714709.084530,300396.000,50755,1,T0,1,100,29.936
1574714709.226093,300515.000,50773,1,T0,1,100,29.936
1574714709.364087,300631.000,50791,1,T0,1,100,29.926
1574714709.497323,300743.000,50809,1,T0,1,100,29.920
1574714709.625801,300851.000,50826,1,T0,1,100,29.936
1574714709.759037,300963.000,50845,1,T0,1,100,29.931
1574714709.893462,301076.000,50879,1,T0,1,100,29.915
1574714710.035025,301195.000,50897,1,T0,1,100,29.920
1574714710.163503,301303.000,50915,1,T0,1,100,29.947
1574714710.288412,301408.000,50933,1,T0,1,100,29.958
1574714710.425216,301523.000,50951,1,T0,1,100,29.942
1574714710.562021,301638.000,50969,1,T0,1,100,29.931
1574714710.697636,301752.000,50987,1,T0,1,100,29.947
1574714710.824924,301859.000,51005,1,T0,1,100,29.936
1574714710.953402,301967.000,51023,1,T0,1,100,29.910
1574714711.091396,302083.000,51057,1,T0,1,100,29.915
1574714711.227011,302197.000,51075,1,T0,1,100,29.958
1574714711.361437,302310.000,51093,1,T0,1,100,29.920
1574714711.487535,302416.000,51111,1,T0,1,100,29.936
1574714711.619581,302527.000,51129,1,T0,1,100,29.926
1574714711.756386,302642.000,51148,1,T0,1,100,29.947
1574714711.894380,302758.000,51166,1,T0,1,100,29.899
1574714712.021668,302865.000,51183,1,T0,1,100,29.899
1574714712.147766,302971.000,51201,1,T0,1,100,29.888
1574714712.283381,303085.000,51219,1,T0,1,100,29.877
1574714712.422565,303202.000,51253,1,T0,1,100,29.936
1574714712.556991,303315.000,51271,1,T0,1,100,29.888
1574714712.684279,303422.000,51290,1,T0,1,100,29.942
1574714712.813946,303531.000,51308,1,T0,1,100,29.904
1574714712.942424,303639.000,51326,1,T0,1,100,29.910
1574714713.070901,303747.000,51344,1,T0,1,100,29.877
1574714713.210085,303864.000,51362,1,T0,1,100,29.915
1574714713.350458,303982.000,51380,1,T0,1,100,29.947
1574714713.477746,304089.000,51397,1,T0,1,100,29.910
1574714713.608603,304199.000,51432,1,T0,1,100,29.899
1574714713.743029,304312.000,51450,1,T0,1,100,29.904
1574714713.876265,304424.000,51468,1,T0,1,100,29.888
1574714714.016638,304542.000,51486,1,T0,1,100,29.926
1574714714.143926,304649.000,51504,1,T0,1,100,29.915
1574714714.268835,304754.000,51522,1,T0,1,100,29.872
1574714714.406829,304870.000,51543,1,T0,1,100,29.872
1574714714.546013,304987.000,51563,1,T0,1,100,29.883
1574714714.679249,305099.000,51581,1,T0,1,100,29.877
1574714714.805347,305205.000,51600,1,T0,1,100,29.904
1574714714.939773,305318.000,51618,1,T0,1,100,29.915
1574714715.077767,305434.000,51636,1,T0,1,100,29.867
1574714715.214572,305549.000,51654,1,T0,1,100,29.910
1574714715.345428,305659.000,51671,1,T0,1,100,29.877
1574714715.471527,305765.000,51689,1,T0,1,100,29.904
1574714715.611900,305883.000,51723,1,T0,1,100,29.877
1574714715.746326,305996.000,51742,1,T0,1,100,29.904
1574714715.883131,306111.000,51760,1,T0,1,100,29.920
1574714716.006850,306215.000,51778,1,T0,1,100,29.867
1574714716.136517,306324.000,51796,1,T0,1,100,29.888
1574714716.270942,306437.000,51814,1,T0,1,100,29.872
1574714716.413695,306557.000,51832,1,T0,1,100,29.877
1574714716.550500,306672.000,51849,1,T0,1,100,29.910
1574714716.686115,306786.000,51884,1,T0,1,100,29.888
1574714716.822920,306901.000,51902,1,T0,1,100,29.856
1574714716.959724,307016.000,51920,1,T0,1,100,29.818
1574714717.084633,307121.000,51938,1,T0,1,100,29.856
1574714717.219059,307234.000,51956,1,T0,1,100,29.893
1574714717.355863,307349.000,51974,1,T0,1,100,29.893
1574714717.491478,307463.000,51992,1,T0,1,100,29.867
1574714717.624714,307575.000,52009,1,T0,1,100,29.877
1574714717.750813,307681.000,52027,1,T0,1,100,29.872
1574714717.880480,307790.000,52046,1,T0,1,100,29.899
1574714718.018474,307906.000,52080,1,T0,1,100,29.883
1574714718.158848,308024.000,52098,1,T0,1,100,29.851
1574714718.283756,308129.000,52116,1,T0,1,100,29.872
1574714718.414613,308239.000,52134,1,T0,1,100,29.910
1574714718.549039,308352.000,52152,1,T0,1,100,29.883
1574714718.687033,308468.000,52170,1,T0,1,100,29.872
1574714718.822648,308582.000,52189,1,T0,1,100,29.915
1574714718.949936,308689.000,52206,1,T0,1,100,29.926
1574714719.079603,308798.000,52224,1,T0,1,100,29.829
1574714719.214029,308911.000,52258,1,T0,1,100,29.867
1574714719.354402,309029.000,52276,1,T0,1,100,29.872
1574714719.485259,309139.000,52294,1,T0,1,100,29.829
1574714719.612547,309246.000,52312,1,T0,1,100,29.888
1574714719.746972,309359.000,52331,1,T0,1,100,29.888
1574714719.884967,309475.000,52349,1,T0,1,100,29.872
1574714720.022961,309591.000,52367,1,T0,1,100,29.861
1574714720.147870,309696.000,52384,1,T0,1,100,29.883
1574714720.273968,309802.000,52402,1,T0,1,100,29.872
1574714720.409583,309916.000,52439,2,T0,1,100,29.888
1574714720.545198,310030.000,52439,2,T0,1,100,29.867
1574714720.679624,310143.000,52459,1,T0,1,100,29.861
1574714720.819997,310261.000,52477,1,T0,1,100,29.872
1574714720.952044,310372.000,52495,1,T0,1,100,29.856
1574714721.075763,310476.000,52529,1,T0,1,100,29.845
1574714721.212567,310591.000,52547,1,T0,1,100,29.829
1574714721.350562,310707.000,52565,1,T0,1,100,29.867
1574714721.486177,310821.000,52583,1,T0,1,100,29.818
1574714721.626550,310939.000,52601,1,T0,1,100,29.840
1574714721.760976,311052.000,52620,1,T0,1,100,29.851
1574714721.884695,311156.000,52638,1,T0,1,100,29.845
1574714722.017931,311268.000,52655,1,T0,1,100,29.867
1574714722.152356,311381.000,52673,1,T0,1,100,29.877
1574714722.286782,311494.000,52707,1,T0,1,100,29.877
1574714722.418828,311605.000,52725,1,T0,1,100,29.856
1574714722.544927,311711.000,52743,1,T0,1,100,29.861
1574714722.680542,311825.000,52762,1,T0,1,100,29.840
1574714722.816157,311939.000,52780,1,T0,1,100,29.851
1574714722.956530,312057.000,52798,1,T0,1,100,29.845
1574714723.082629,312163.000,52816,1,T0,1,100,29.851
1574714723.211106,312271.000,52834,1,T0,1,100,29.834
1574714723.347911,312386.000,52851,1,T0,1,100,29.851
1574714723.485905,312502.000,52885,1,T0,1,100,29.861
1574714723.619141,312614.000,52903,1,T0,1,100,29.824
1574714723.744050,312719.000,52922,1,T0,1,100,29.851
1574714723.877286,312831.000,52940,1,T0,1,100,29.813
1574714724.016470,312948.000,52958,1,T0,1,100,29.888
1574714724.150895,313061.000,52976,1,T0,1,100,29.861
1574714724.279373,313169.000,52994,1,T0,1,100,29.856
1574714724.413798,313282.000,53012,1,T0,1,100,29.877
1574714724.539896,313388.000,53029,1,T0,1,100,29.851
1574714724.665995,313494.000,53047,1,T0,1,100,29.861
1574714724.805179,313611.000,53082,1,T0,1,100,29.813
1574714724.943173,313727.000,53100,1,T0,1,100,29.813
1574714725.076409,313839.000,53118,1,T0,1,100,29.834
1574714725.204887,313947.000,53136,1,T0,1,100,29.845
1574714725.336933,314058.000,53154,1,T0,1,100,29.851
1574714725.471359,314171.000,53172,1,T0,1,100,29.813
1574714725.610542,314288.000,53190,1,T0,1,100,29.845
1574714725.740210,314397.000,53208,1,T0,1,100,29.851
1574714725.865118,314502.000,53226,1,T0,1,100,29.818
1574714726.001923,314617.000,53261,1,T0,1,100,29.851
1574714726.138728,314732.000,53278,1,T0,1,100,29.845
1574714726.276722,314848.000,53296,1,T0,1,100,29.813
1574714726.401631,314953.000,53314,1,T0,1,100,29.851
1574714726.536056,315066.000,53335,2,T0,1,100,29.834
1574714726.670482,315179.000,53335,2,T0,1,100,29.802
1574714726.806097,315293.000,53372,1,T0,1,100,29.818
1574714726.942902,315408.000,53390,1,T0,1,100,29.845
1574714727.067810,315513.000,53408,1,T0,1,100,29.834
1574714727.204615,315628.000,53426,1,T0,1,100,29.834
1574714727.339041,315741.000,53444,1,T0,1,100,29.818
1574714727.477035,315857.000,53462,1,T0,1,100,29.834
1574714727.604323,315964.000,53480,1,T0,1,100,29.824
1574714727.730421,316070.000,53498,1,T0,1,100,29.786
1574714727.866036,316184.000,53516,1,T0,1,100,29.856
1574714728.008789,316304.000,53550,1,T0,1,100,29.829
1574714728.143214,316417.000,53568,1,T0,1,100,29.813
1574714728.281209,316533.000,53586,1,T0,1,100,29.813
1574714728.416824,316647.000,53604,1,T0,1,100,29.845
1574714728.544112,316754.000,53622,1,T0,1,100,29.808
1574714728.671400,316861.000,53640,1,T0,1,100,29.792
1574714728.810584,316978.000,53659,1,T0,1,100,29.834
1574714728.950957,317096.000,53676,1,T0,1,100,29.818
1574714729.088952,317212.000,53710,1,T0,1,100,29.808
1574714729.226946,317328.000,53728,1,T0,1,100,29.797
1574714729.354234,317435.000,53746,1,T0,1,100,29.840
1574714729.481522,317542.000,53764,1,T0,1,100,29.818
1574714729.618326,317657.000,53782,1,T0,1,100,29.829
1574714729.756321,317773.000,53801,1,T0,1,100,29.840
1574714729.887177,317883.000,53819,1,T0,1,100,29.818
1574714730.016845,317992.000,53836,1,T0,1,100,29.797
1574714730.150080,318104.000,53854,1,T0,1,100,29.840
1574714730.289264,318221.000,53888,1,T0,1,100,29.802
1574714730.427259,318337.000,53906,1,T0,1,100,29.802
1574714730.555736,318445.000,53924,1,T0,1,100,29.845
1574714730.683024,318552.000,53942,1,T0,1,100,29.840
1574714730.817450,318665.000,53961,1,T0,1,100,29.845
1574714730.955444,318781.000,53979,1,T0,1,100,29.813
1574714731.093438,318897.000,53997,1,T0,1,100,29.813
1574714731.217158,319001.000,54014,1,T0,1,100,29.813
1574714731.348014,319111.000,54032,1,T0,1,100,29.775
1574714731.486009,319227.000,54066,1,T0,1,100,29.786
1574714731.624003,319343.000,54084,1,T0,1,100,29.824
1574714731.752480,319451.000,54103,1,T0,1,100,29.834
1574714731.877389,319556.000,54121,1,T0,1,100,29.797
1574714732.013004,319670.000,54139,1,T0,1,100,29.792
1574714732.142671,319779.000,54157,1,T0,1,100,29.834
1574714732.278286,319893.000,54175,1,T0,1,100,29.765
1574714732.417470,320010.000,54193,1,T0,1,100,29.824
1574714732.554275,320125.000,54210,1,T0,1,100,29.845
1574714732.679184,320230.000,54231,1,T0,1,100,29.834
1574714732.812420,320342.000,54252,1,T0,1,100,29.802
1574714732.949224,320457.000,54270,1,T0,1,100,29.792
1574714733.083650,320570.000,54288,1,T0,1,100,29.813
1574714733.218076,320683.000,54305,1,T0,1,100,29.813
1574714733.344174,320789.000,54323,1,T0,1,100,29.786
1574714733.473841,320898.000,54357,1,T0,1,100,29.818
1574714733.611835,321014.000,54375,1,T0,1,100,29.845
1574714733.752209,321132.000,54394,1,T0,1,100,29.797
1574714733.875928,321236.000,54412,1,T0,1,100,29.824
1574714734.004405,321344.000,54430,1,T0,1,100,29.808
1574714734.142400,321460.000,54448,1,T0,1,100,29.834
1574714734.279204,321575.000,54466,1,T0,1,100,29.813
1574714734.416009,321690.000,54483,1,T0,1,100,29.797
1574714734.543297,321797.000,54501,1,T0,1,100,29.802
1574714734.672964,321906.000,54536,1,T0,1,100,29.856
1574714734.810959,322022.000,54554,1,T0,1,100,29.781
1574714734.946574,322136.000,54572,1,T0,1,100,29.781
1574714735.077430,322246.000,54590,1,T0,1,100,29.840
1574714735.204718,322353.000,54608,1,T0,1,100,29.813
1574714735.337954,322465.000,54626,1,T0,1,100,29.824
1574714735.475949,322581.000,54644,1,T0,1,100,29.834
1574714735.613943,322697.000,54662,1,T0,1,100,29.883
1574714735.742420,322805.000,54679,1,T0,1,100,29.834
1574714735.875656,322917.000,54714,1,T0,1,100,29.824
1574714736.002944,323024.000,54732,1,T0,1,100,29.861
1574714736.138559,323138.000,54750,1,T0,1,100,29.818
1574714736.263468,323243.000,54768,1,T0,1,100,29.781
1574714736.401462,323359.000,54786,1,T0,1,100,29.786
1574714736.539457,323475.000,54804,1,T0,1,100,29.824
1574714736.677451,323591.000,54822,1,T0,1,100,29.829
1574714736.804739,323698.000,54841,1,T0,1,100,29.802
1574714736.935596,323808.000,54858,1,T0,1,100,29.834
1574714737.068831,323920.000,54876,1,T0,1,100,29.824
1574714737.208015,324037.000,54910,1,T0,1,100,29.797
1574714737.343631,324151.000,54928,1,T0,1,100,29.813
1574714737.467350,324255.000,54946,1,T0,1,100,29.786
1574714737.600586,324367.000,54964,1,T0,1,100,29.802
1574714737.736201,324481.000,54983,1,T0,1,100,29.829
1574714737.870626,324594.000,55001,1,T0,1,100,29.802
1574714738.002673,324705.000,55019,1,T0,1,100,29.797
1574714738.129961,324812.000,55036,1,T0,1,100,29.808
1574714738.265576,324926.000,55054,1,T0,1,100,29.781
1574714738.401191,325040.000,55088,1,T0,1,100,29.834
1574714738.543943,325160.000,55106,1,T0,1,100,29.834
1574714738.671826,325267.500,55128,2,T0,1,100,29.808
1574714738.799709,325375.000,55128,2,T0,1,100,29.818
1574714738.934134,325488.000,55148,1,T0,1,100,29.840
1574714739.072129,325604.000,55182,1,T0,1,100,29.840
1574714739.205365,325716.000,55200,1,T0,1,100,29.818
1574714739.330273,325821.000,55218,1,T0,1,100,29.813
1574714739.462320,325932.000,55236,1,T0,1,100,29.775
1574714739.601504,326049.000,55254,1,T0,1,100,29.792
1574714739.740688,326166.000,55273,1,T0,1,100,29.792
1574714739.877492,326281.000,55291,1,T0,1,100,29.781
1574714740.017866,326399.000,55308,1,T0,1,100,29.818
1574714740.145154,326506.000,55326,1,T0,1,100,29.775
1574714740.271252,326612.000,55360,1,T0,1,100,29.797
1574714740.410436,326729.000,55378,1,T0,1,100,29.765
1574714740.548430,326845.000,55396,1,T0,1,100,29.840
1574714740.682856,326958.000,55414,1,T0,1,100,29.851
1574714740.810144,327065.000,55433,1,T0,1,100,29.792
1574714740.943380,327177.000,55451,1,T0,1,100,29.786
1574714741.076616,327289.000,55469,1,T0,1,100,29.786
1574714741.215800,327406.000,55486,1,T0,1,100,29.813
1574714741.346656,327516.000,55520,1,T0,1,100,29.808
1574714741.469186,327619.000,55538,1,T0,1,100,29.808
1574714741.607180,327735.000,55556,1,T0,1,100,29.813
1574714741.747554,327853.000,55575,1,T0,1,100,29.781
1574714741.885548,327969.000,55593,1,T0,1,100,29.802
1574714742.010457,328074.000,55611,1,T0,1,100,29.770
1574714742.142503,328185.000,55629,1,T0,1,100,29.818
1574714742.278118,328299.000,55647,1,T0,1,100,29.775
1574714742.413733,328413.000,55664,1,T0,1,100,29.792
1574714742.546969,328525.000,55699,1,T0,1,100,29.797
1574714742.671878,328630.000,55717,1,T0,1,100,29.802
1574714742.807493,328744.000,55735,1,T0,1,100,29.802
1574714742.941918,328857.000,55753,1,T0,1,100,29.775
1574714743.078723,328972.000,55771,1,T0,1,100,29.802
1574714743.209580,329082.000,55789,1,T0,1,100,29.813
1574714743.339247,329191.000,55807,1,T0,1,100,29.765
1574714743.464156,329296.000,55825,1,T0,1,100,29.770
1574714743.598581,329409.000,55843,1,T0,1,100,29.813
1574714743.737765,329526.000,55861,1,T0,1,100,29.802
1574714743.871001,329638.000,55895,1,T0,1,100,29.797
1574714744.010185,329755.000,55913,1,T0,1,100,29.802
1574714744.150559,329873.000,55931,1,T0,1,100,29.802
1574714744.276657,329979.000,55949,1,T0,1,100,29.818
1574714744.406324,330088.000,55967,1,T0,1,100,29.818
1574714744.541939,330202.000,55985,1,T0,1,100,29.781
1574714744.675175,330314.000,56003,1,T0,1,100,29.781
1574714744.814359,330431.000,56025,1,T0,1,100,29.802
1574714744.940457,330537.000,56045,1,T0,1,100,29.797
1574714745.068935,330645.000,56063,1,T0,1,100,29.759
1574714745.205739,330760.000,56081,1,T0,1,100,29.754
1574714745.343734,330876.000,56099,1,T0,1,100,29.754
1574714745.474591,330986.000,56117,1,T0,1,100,29.792
1574714745.604258,331095.000,56134,1,T0,1,100,29.802
1574714745.736304,331206.000,56152,1,T0,1,100,29.775
1574714745.875488,331323.000,56187,1,T0,1,100,29.781
1574714746.012293,331438.000,56205,1,T0,1,100,29.781
1574714746.141960,331547.000,56223,1,T0,1,100,29.802
1574714746.269248,331654.000,56241,1,T0,1,100,29.802
1574714746.404863,331768.000,56259,1,T0,1,100,29.808
1574714746.544047,331885.000,56277,1,T0,1,100,29.775
1574714746.679662,331999.000,56295,1,T0,1,100,29.781
1574714746.803381,332103.000,56313,1,T0,1,100,29.781
1574714746.933048,332212.000,56331,1,T0,1,100,29.797
1574714747.069853,332327.000,56365,1,T0,1,100,29.775
1574714747.207847,332443.000,56383,1,T0,1,100,29.759
1574714747.341083,332555.000,56401,1,T0,1,100,29.818
1574714747.479077,332671.000,56419,1,T0,1,100,29.797
1574714747.606365,332778.000,56437,1,T0,1,100,29.775
1574714747.737222,332888.000,56456,1,T0,1,100,29.792
1574714747.868079,332998.000,56474,1,T0,1,100,29.775
1574714748.007263,333115.000,56492,1,T0,1,100,29.765
1574714748.145257,333231.000,56525,1,T0,1,100,29.781
1574714748.270166,333336.000,56543,1,T0,1,100,29.781
1574714748.403402,333448.000,56561,1,T0,1,100,29.792
1574714748.539017,333562.000,56579,1,T0,1,100,29.808
1574714748.673442,333675.000,56597,1,T0,1,100,29.770
1574714748.807868,333788.000,56616,1,T0,1,100,29.781
1574714748.933966,333894.000,56634,1,T0,1,100,29.754
1574714749.063633,334003.000,56652,1,T0,1,100,29.765
1574714749.201627,334119.000,56670,1,T0,1,100,29.765
1574714749.343191,334238.000,56687,1,T0,1,100,29.749
1574714749.470479,334345.000,56721,1,T0,1,100,29.770
1574714749.596577,334451.000,56739,1,T0,1,100,29.802
1574714749.734571,334567.000,56758,1,T0,1,100,29.808
1574714749.871376,334682.000,56776,1,T0,1,100,29.781
1574714750.008181,334797.000,56794,1,T0,1,100,29.786
1574714750.135468,334904.000,56812,1,T0,1,100,29.813
1574714750.262757,335011.000,56830,1,T0,1,100,29.754
1574714750.401940,335128.000,56848,1,T0,1,100,29.770
1574714750.536366,335241.000,56865,1,T0,1,100,29.781
1574714750.667223,335351.000,56901,1,T0,1,100,29.765
1574714750.797485,335460.500,56921,2,T0,1,100,29.733
1574714750.927747,335570.000,56921,2,T0,1,100,29.754
1574714751.065741,335686.000,56939,1,T0,1,100,29.749
1574714751.208493,335806.000,56958,1,T0,1,100,29.770
1574714751.346488,335922.000,56992,1,T0,1,100,29.813
1574714751.483293,336037.000,57010,1,T0,1,100,29.781
1574714751.610580,336144.000,57028,1,T0,1,100,29.792
1574714751.745006,336257.000,57047,1,T0,1,100,29.813
1574714751.872294,336364.000,57065,1,T0,1,100,29.749
1574714752.009099,336479.000,57083,1,T0,1,100,29.792
1574714752.147093,336595.000,57101,1,T0,1,100,29.792
1574714752.285087,336711.000,57118,1,T0,1,100,29.770
1574714752.412375,336818.000,57136,1,T0,1,100,29.770
1574714752.540853,336926.000,57170,1,T0,1,100,29.770
1574714752.674089,337038.000,57189,1,T0,1,100,29.743
1574714752.812083,337154.000,57207,1,T0,1,100,29.765
1574714752.947698,337268.000,57225,1,T0,1,100,29.792
1574714753.071417,337372.000,57243,1,T0,1,100,29.733
1574714753.204653,337484.000,57261,1,T0,1,100,29.749
1574714753.340268,337598.000,57279,1,T0,1,100,29.738
1574714753.478263,337714.000,57297,1,T0,1,100,29.754
1574714753.609119,337824.000,57314,1,T0,1,100,29.749
1574714753.736407,337931.000,57332,1,T0,1,100,29.781
1574714753.872022,338045.000,57367,1,T0,1,100,29.754
1574714754.007638,338159.000,57385,1,T0,1,100,29.786
1574714754.149201,338278.000,57403,1,T0,1,100,29.743
1574714754.272920,338382.000,57421,1,T0,1,100,29.781
1574714754.403776,338492.000,57439,1,T0,1,100,29.711
1574714754.538202,338605.000,57457,1,T0,1,100,29.749
1574714754.675007,338720.000,57475,1,T0,1,100,29.759
1574714754.809432,338833.000,57493,1,T0,1,100,29.749
1574714754.933151,338937.000,57511,1,T0,1,100,29.749
1574714755.065198,339048.000,57545,1,T0,1,100,29.738
1574714755.203192,339164.000,57563,1,T0,1,100,29.743
1574714755.341186,339280.000,57581,1,T0,1,100,29.738
1574714755.474422,339392.000,57599,1,T0,1,100,29.770
1574714755.615985,339511.000,57617,1,T0,1,100,29.716
1574714755.743273,339618.000,57636,1,T0,1,100,29.770
1574714755.869372,339724.000,57654,1,T0,1,100,29.743
1574714756.008556,339841.000,57671,1,T0,1,100,29.711
1574714756.146550,339957.000,57705,1,T0,1,100,29.765
1574714756.279786,340069.000,57723,1,T0,1,100,29.716
1574714756.408263,340177.000,57741,1,T0,1,100,29.733
1574714756.539120,340287.000,57759,1,T0,1,100,29.754
1574714756.673546,340400.000,57777,1,T0,1,100,29.722
1574714756.812730,340517.000,57796,1,T0,1,100,29.749
1574714756.944776,340628.000,57817,1,T0,1,100,29.754
1574714757.070874,340734.000,57837,1,T0,1,100,29.749
1574714757.206489,340848.000,57855,1,T0,1,100,29.749
1574714757.345673,340965.000,57873,1,T0,1,100,29.706
1574714757.483668,341081.000,57891,1,T0,1,100,29.716
1574714757.608576,341186.000,57909,1,T0,1,100,29.727
1574714757.739433,341296.000,57928,1,T0,1,100,29.781
1574714757.873858,341409.000,57946,1,T0,1,100,29.722
1574714758.011853,341525.000,57963,1,T0,1,100,29.727
1574714758.142709,341635.000,57997,1,T0,1,100,29.716
1574714758.267618,341740.000,58015,1,T0,1,100,29.759
1574714758.403233,341854.000,58033,1,T0,1,100,29.733
1574714758.537659,341967.000,58051,1,T0,1,100,29.722
1574714758.675653,342083.000,58069,1,T0,1,100,29.716
1574714758.817216,342202.000,58088,1,T0,1,100,29.711
1574714758.951642,342315.000,58106,1,T0,1,100,29.706
1574714759.076550,342420.000,58123,1,T0,1,100,29.775
1574714759.208597,342531.000,58141,1,T0,1,100,29.716
1574714759.344212,342645.000,58175,1,T0,1,100,29.733
1574714759.478637,342758.000,58193,1,T0,1,100,29.716
1574714759.621390,342878.000,58211,1,T0,1,100,29.743
1574714759.760574,342995.000,58230,1,T0,1,100,29.754
1574714759.887862,343102.000,58248,1,T0,1,100,29.754
1574714760.017529,343211.000,58266,1,T0,1,100,29.722
1574714760.153144,343325.000,58284,1,T0,1,100,29.711
1574714760.287570,343438.000,58301,1,T0,1,100,29.727
1574714760.426754,343555.000,58335,1,T0,1,100,29.706
1574714760.552852,343661.000,58353,1,T0,1,100,29.716
1574714760.680140,343768.000,58372,1,T0,1,100,29.743
1574714760.816945,343883.000,58390,1,T0,1,100,29.722
1574714760.954939,343999.000,58408,1,T0,1,100,29.738
1574714761.089365,344112.000,58426,1,T0,1,100,29.754
1574714761.215463,344218.000,58444,1,T0,1,100,29.711
1574714761.348699,344330.000,58462,1,T0,1,100,29.706
1574714761.487883,344447.000,58479,1,T0,1,100,29.733
1574714761.624687,344562.000,58513,1,T0,1,100,29.743
1574714761.753165,344670.000,58532,1,T0,1,100,29.690
1574714761.881643,344778.000,58550,1,T0,1,100,29.695
1574714762.022016,344896.000,58568,1,T0,1,100,29.716
1574714762.156442,345009.000,58586,1,T0,1,100,29.722
1574714762.293246,345124.000,58604,1,T0,1,100,29.733
1574714762.416965,345228.000,58622,1,T0,1,100,29.722
1574714762.546633,345337.000,58640,1,T0,1,100,29.722
1574714762.684627,345453.000,58657,1,T0,1,100,29.727
1574714762.827380,345573.000,58692,1,T0,1,100,29.722
1574714762.963589,345687.500,58713,2,T0,1,100,29.700
1574714763.099799,345802.000,58713,2,T0,1,100,29.770
1574714763.229467,345911.000,58733,1,T0,1,100,29.733
1574714763.360323,346021.000,58750,1,T0,1,100,29.700
1574714763.491180,346131.000,58768,1,T0,1,100,29.711
1574714763.631554,346249.000,58802,1,T0,1,100,29.738
1574714763.769548,346365.000,58821,1,T0,1,100,29.716
1574714763.893267,346469.000,58839,1,T0,1,100,29.743
1574714764.025313,346580.000,58857,1,T0,1,100,29.743
1574714764.160928,346694.000,58875,1,T0,1,100,29.716
1574714764.295354,346807.000,58893,1,T0,1,100,29.695
1574714764.430969,346921.000,58910,1,T0,1,100,29.733
1574714764.558257,347028.000,58928,1,T0,1,100,29.695
1574714764.685545,347135.000,58946,1,T0,1,100,29.727
1574714764.823539,347251.000,58981,1,T0,1,100,29.668
1574714764.965102,347370.000,58999,1,T0,1,100,29.754
1574714765.092390,347477.000,59017,1,T0,1,100,29.695
1574714765.219678,347584.000,59035,1,T0,1,100,29.706
1574714765.357672,347700.000,59053,1,T0,1,100,29.711
1574714765.494477,347815.000,59071,1,T0,1,100,29.711
1574714765.631282,347930.000,59089,1,T0,1,100,29.722
1574714765.753811,348033.000,59107,1,T0,1,100,29.700
1574714765.883479,348142.000,59125,1,T0,1,100,29.706
1574714766.023852,348260.000,59159,1,T0,1,100,29.716
1574714766.158278,348373.000,59177,1,T0,1,100,29.711
1574714766.291513,348485.000,59195,1,T0,1,100,29.727
1574714766.416422,348590.000,59213,1,T0,1,100,29.716
1574714766.553227,348705.000,59231,1,T0,1,100,29.711
1574714766.679325,348811.000,59249,1,T0,1,100,29.722
1574714766.817320,348927.000,59268,1,T0,1,100,29.733
1574714766.955314,349043.000,59286,1,T0,1,100,29.668
1574714767.092119,349158.000,59303,1,T0,1,100,29.706
1574714767.232492,349276.000,59337,1,T0,1,100,29.716
1574714767.364538,349387.000,59355,1,T0,1,100,29.711
1574714767.489447,349492.000,59373,1,T0,1,100,29.690
1574714767.626252,349607.000,59391,1,T0,1,100,29.722
1574714767.763057,349722.000,59410,1,T0,1,100,29.690
1574714767.901051,349838.000,59428,1,T0,1,100,29.711
1574714768.028339,349945.000,59446,1,T0,1,100,29.706
1574714768.156816,350053.000,59463,1,T0,1,100,29.738
1574714768.290052,350165.000,59481,1,T0,1,100,29.711
1574714768.428047,350281.000,59515,1,T0,1,100,29.743
1574714768.563662,350395.000,59533,1,T0,1,100,29.738
1574714768.687381,350499.000,59552,1,T0,1,100,29.668
1574714768.819427,350610.000,59570,1,T0,1,100,29.700
1574714768.957422,350726.000,59588,1,T0,1,100,29.684
1574714769.095416,350842.000,59609,1,T0,1,100,29.716
1574714769.226273,350952.000,59629,1,T0,1,100,29.711
1574714769.354750,351060.000,59647,1,T0,1,100,29.700
1574714769.487986,351172.000,59665,1,T0,1,100,29.743
1574714769.627170,351289.000,59683,1,T0,1,100,29.711
1574714769.762785,351403.000,59702,1,T0,1,100,29.700
1574714769.888883,351509.000,59720,1,T0,1,100,29.722
1574714770.019740,351619.000,59738,1,T0,1,100,29.716
1574714770.154166,351732.000,59755,1,T0,1,100,29.700
1574714770.292160,351848.000,59789,1,T0,1,100,29.674
1574714770.426585,351961.000,59807,1,T0,1,100,29.690
1574714770.555063,352069.000,59825,1,T0,1,100,29.711
1574714770.683541,352177.000,59844,1,T0,1,100,29.695
1574714770.813208,352286.000,59862,1,T0,1,100,29.668
1574714770.947633,352399.000,59880,1,T0,1,100,29.749
1574714771.080869,352511.000,59898,1,T0,1,100,29.695
1574714771.222432,352630.000,59916,1,T0,1,100,29.706
1574714771.348531,352736.000,59933,1,T0,1,100,29.695
1574714771.474629,352842.000,59951,1,T0,1,100,29.711
1574714771.612623,352958.000,59985,1,T0,1,100,29.695
1574714771.750618,353074.000,60004,1,T0,1,100,29.684
1574714771.883853,353186.000,60022,1,T0,1,100,29.690
1574714772.011141,353293.000,60040,1,T0,1,100,29.674
1574714772.144377,353405.000,60058,1,T0,1,100,29.684
1574714772.277613,353517.000,60076,1,T0,1,100,29.700
1574714772.416797,353634.000,60094,1,T0,1,100,29.679
1574714772.548843,353745.000,60111,1,T0,1,100,29.727
1574714772.672562,353849.000,60129,1,T0,1,100,29.684
1574714772.806988,353962.000,60148,1,T0,1,100,29.684
1574714772.946172,354079.000,60182,1,T0,1,100,29.711
1574714773.082977,354194.000,60200,1,T0,1,100,29.668
1574714773.209075,354300.000,60218,1,T0,1,100,29.695
1574714773.339932,354410.000,60236,1,T0,1,100,29.700
1574714773.475547,354524.000,60254,1,T0,1,100,29.690
1574714773.613541,354640.000,60272,1,T0,1,100,29.700
1574714773.747967,354753.000,60291,1,T0,1,100,29.652
1574714773.871686,354857.000,60308,1,T0,1,100,29.684
1574714774.004922,354969.000,60326,1,T0,1,100,29.700
1574714774.142916,355085.000,60360,1,T0,1,100,29.684
1574714774.277342,355198.000,60378,1,T0,1,100,29.706
1574714774.416525,355315.000,60396,1,T0,1,100,29.684
1574714774.555709,355432.000,60414,1,T0,1,100,29.711
1574714774.692514,355547.000,60432,1,T0,1,100,29.727
1574714774.828129,355661.000,60451,1,T0,1,100,29.690
1574714774.956607,355769.000,60468,1,T0,1,100,29.690
1574714775.085084,355877.000,60486,1,T0,1,100,29.679
1574714775.224268,355994.000,60507,1,T0,1,100,29.663
1574714775.364642,356112.000,60525,1,T0,1,100,29.668
1574714775.491930,356219.000,60543,1,T0,1,100,29.674
1574714775.621597,356328.000,60561,1,T0,1,100,29.700
1574714775.754833,356440.000,60581,1,T0,1,100,29.684
1574714775.889258,356553.000,60615,1,T0,1,100,29.668
1574714776.029632,356671.000,60633,1,T0,1,100,29.690
1574714776.155730,356777.000,60651,1,T0,1,100,29.679
1574714776.281828,356883.000,60669,1,T0,1,100,29.668
1574714776.419823,356999.000,60687,1,T0,1,100,29.674
1574714776.559007,357116.000,60705,1,T0,1,100,29.668
1574714776.693432,357229.000,60723,1,T0,1,100,29.668
1574714776.820720,357336.000,60741,1,T0,1,100,29.695
1574714776.952766,357447.000,60759,1,T0,1,100,29.690
1574714777.091950,357564.000,60793,1,T0,1,100,29.663
1574714777.228755,357679.000,60811,1,T0,1,100,29.695
1574714777.358422,357788.000,60829,1,T0,1,100,29.690
1574714777.484520,357894.000,60847,1,T0,1,100,29.636
1574714777.624894,358012.000,60865,1,T0,1,100,29.674
1574714777.759320,358125.000,60884,1,T0,1,100,29.695
1574714777.896124,358240.000,60902,1,T0,1,100,29.647
1574714778.019843,358344.000,60919,1,T0,1,100,29.690
1574714778.154269,358457.000,60937,1,T0,1,100,29.695
1574714778.279178,358562.000,60955,1,T0,1,100,29.690
1574714778.418361,358679.000,60989,1,T0,1,100,29.695
1574714778.555166,358794.000,61007,1,T0,1,100,29.695
1574714778.691971,358909.000,61026,1,T0,1,100,29.695
1574714778.821638,359018.000,61044,1,T0,1,100,29.684
1574714778.951305,359127.000,61062,1,T0,1,100,29.668
1574714779.082162,359237.000,61080,1,T0,1,100,29.690
1574714779.221346,359354.000,61098,1,T0,1,100,29.631
1574714779.359340,359470.000,61115,1,T0,1,100,29.695
1574714779.483059,359574.000,61133,1,T0,1,100,29.706
1574714779.615106,359685.000,61167,1,T0,1,100,29.674
1574714779.751910,359800.000,61186,1,T0,1,100,29.625
1574714779.885146,359912.000,61204,1,T0,1,100,29.690
1574714780.020761,360026.000,61222,1,T0,1,100,29.695
1574714780.148049,360133.000,61240,1,T0,1,100,29.690
1574714780.278906,360243.000,61258,1,T0,1,100,29.663
1574714780.414521,360357.000,61276,1,T0,1,100,29.663
1574714780.556084,360476.000,61293,1,T0,1,100,29.657
1574714780.684562,360584.000,61311,1,T0,1,100,29.679
1574714780.811850,360691.000,61346,1,T0,1,100,29.690
1574714780.949844,360807.000,61364,1,T0,1,100,29.668
1574714781.086649,360922.000,61382,1,T0,1,100,29.690
1574714781.216316,361031.000,61403,2,T0,1,100,29.652
1574714781.345983,361140.000,61403,2,T0,1,100,29.674
1574714781.475650,361249.000,61421,1,T0,1,100,29.641
1574714781.616024,361367.000,61457,1,T0,1,100,29.695
1574714781.751639,361481.000,61476,1,T0,1,100,29.657
1574714781.883685,361592.000,61494,1,T0,1,100,29.679
1574714782.019300,361706.000,61512,1,T0,1,100,29.684
1574714782.146588,361813.000,61530,1,T0,1,100,29.641
1574714782.271497,361918.000,61548,1,T0,1,100,29.652
1574714782.407112,362032.000,61566,1,T0,1,100,29.647
1574714782.539158,362143.000,61584,1,T0,1,100,29.690
1574714782.673584,362256.000,61601,1,T0,1,100,29.679
1574714782.813957,362374.000,61636,1,T0,1,100,29.700
1574714782.946004,362485.000,61654,1,T0,1,100,29.663
1574714783.069723,362589.000,61672,1,T0,1,100,29.679
1574714783.206527,362704.000,61690,1,T0,1,100,29.668
1574714783.342143,362818.000,61708,1,T0,1,100,29.641
1574714783.480137,362934.000,61726,1,T0,1,100,29.647
1574714783.608614,363042.000,61744,1,T0,1,100,29.684
1574714783.737092,363150.000,61763,1,T0,1,100,29.668
1574714783.869138,363261.000,61780,1,T0,1,100,29.652
1574714784.005943,363376.000,61814,1,T0,1,100,29.695
1574714784.141558,363490.000,61832,1,T0,1,100,29.625
1574714784.267656,363596.000,61850,1,T0,1,100,29.679
1574714784.398513,363706.000,61868,1,T0,1,100,29.690
1574714784.536507,363822.000,61886,1,T0,1,100,29.679
1574714784.674502,363938.000,61904,1,T0,1,100,29.684
1574714784.806548,364049.000,61923,1,T0,1,100,29.668
1574714784.935025,364157.000,61941,1,T0,1,100,29.641
1574714785.069451,364270.000,61958,1,T0,1,100,29.668
1574714785.208635,364387.000,61992,1,T0,1,100,29.609
1574714785.344250,364501.000,62010,1,T0,1,100,29.652
1574714785.470348,364607.000,62028,1,T0,1,100,29.657
1574714785.601205,364717.000,62046,1,T0,1,100,29.690
1574714785.735631,364830.000,62065,1,T0,1,100,29.657
1574714785.873625,364946.000,62083,1,T0,1,100,29.695
1574714786.016378,365066.000,62101,1,T0,1,100,29.652
1574714786.154372,365182.000,62118,1,T0,1,100,29.679
1574714786.284039,365291.000,62136,1,T0,1,100,29.657
1574714786.411327,365398.000,62170,1,T0,1,100,29.652
1574714786.545753,365511.000,62188,1,T0,1,100,29.636
1574714786.678988,365623.000,62207,1,T0,1,100,29.636
1574714786.820552,365742.000,62225,1,T0,1,100,29.631
1574714786.949029,365850.000,62243,1,T0,1,100,29.657
1574714787.073938,365955.000,62261,1,T0,1,100,29.652
1574714787.210743,366070.000,62279,1,T0,1,100,29.684
1574714787.349927,366187.000,62298,1,T0,1,100,29.684
1574714787.481973,366298.000,62320,1,T0,1,100,29.636
1574714787.609261,366405.000,62338,1,T0,1,100,29.636
1574714787.741307,366516.000,62357,1,T0,1,100,29.684
1574714787.879302,366632.000,62375,1,T0,1,100,29.668
1574714788.016106,366747.000,62393,1,T0,1,100,29.663
1574714788.149342,366859.000,62410,1,T0,1,100,29.652
1574714788.273061,366963.000,62428,1,T0,1,100,29.684
1574714788.407487,367076.000,62462,1,T0,1,100,29.609
1574714788.546671,367193.000,62480,1,T0,1,100,29.641
1574714788.684665,367309.000,62498,1,T0,1,100,29.690
1574714788.809574,367414.000,62517,1,T0,1,100,29.636
1574714788.938051,367522.000,62535,1,T0,1,100,29.647
1574714789.073666,367636.000,62553,1,T0,1,100,29.631
1574714789.211661,367752.000,62571,1,T0,1,100,29.647
1574714789.348465,367867.000,62588,1,T0,1,100,29.657
1574714789.472184,367971.000,62606,1,T0,1,100,29.625
1574714789.603041,368081.000,62640,1,T0,1,100,29.625
1574714789.729140,368187.000,62659,1,T0,1,100,29.631
1574714789.864755,368301.000,62677,1,T0,1,100,29.652
1574714790.007507,368421.000,62695,1,T0,1,100,29.636
1574714790.145502,368537.000,62713,1,T0,1,100,29.647
1574714790.279927,368650.000,62731,1,T0,1,100,29.620
1574714790.415542,368764.000,62749,1,T0,1,100,29.641
1574714790.542830,368871.000,62766,1,T0,1,100,29.631
1574714790.670118,368978.000,62784,1,T0,1,100,29.625
1574714790.809302,369095.000,62819,1,T0,1,100,29.625
1574714790.948486,369212.000,62837,1,T0,1,100,29.625
1574714791.075774,369319.000,62855,1,T0,1,100,29.604
1574714791.206631,369429.000,62873,1,T0,1,100,29.663
1574714791.339867,369541.000,62891,1,T0,1,100,29.625
1574714791.473103,369653.000,62909,1,T0,1,100,29.674
1574714791.613476,369771.000,62927,1,T0,1,100,29.636
1574714791.739574,369877.000,62945,1,T0,1,100,29.615
1574714791.871621,369988.000,62963,1,T0,1,100,29.620
1574714792.007236,370102.000,62997,1,T0,1,100,29.604
1574714792.146420,370219.000,63015,1,T0,1,100,29.615
1574714792.282035,370333.000,63033,1,T0,1,100,29.604
1574714792.408133,370439.000,63051,1,T0,1,100,29.615
1574714792.542559,370552.000,63069,1,T0,1,100,29.620
1574714792.680553,370668.000,63087,1,T0,1,100,29.609
1574714792.818547,370784.000,63106,1,T0,1,100,29.641
1574714792.944646,370890.000,63123,1,T0,1,100,29.609
1574714793.069554,370995.000,63141,1,T0,1,100,29.641
1574714793.209928,371113.000,63175,1,T0,1,100,29.636
1574714793.346138,371227.500,63194,2,T0,1,100,29.652
1574714793.482348,371342.000,63194,2,T0,1,100,29.690
1574714793.608446,371448.000,63216,1,T0,1,100,29.625
1574714793.742872,371561.000,63234,1,T0,1,100,29.615
1574714793.867780,371666.000,63252,1,T0,1,100,29.593
1574714794.003395,371780.000,63286,1,T0,1,100,29.636
1574714794.140200,371895.000,63304,1,T0,1,100,29.609
1574714794.275815,372009.000,63322,1,T0,1,100,29.598
1574714794.406672,372119.000,63340,1,T0,1,100,29.625
1574714794.536339,372228.000,63358,1,T0,1,100,29.588
1574714794.667196,372338.000,63376,1,T0,1,100,29.615
1574714794.807569,372456.000,63395,1,T0,1,100,29.604
1574714794.945564,372572.000,63412,1,T0,1,100,29.604
1574714795.069283,372676.000,63430,1,T0,1,100,29.620
1574714795.200140,372786.000,63464,1,T0,1,100,29.625
1574714795.336944,372901.000,63482,1,T0,1,100,29.609
1574714795.470180,373013.000,63500,1,T0,1,100,29.620
1574714795.602226,373124.000,63518,3,T0,1,100,29.631
1574714795.734273,373235.000,63518,3,T0,1,100,29.620
1574714795.866319,373346.000,63518,3,T0,1,100,29.631
1574714796.000031,373458.400,63537,5,T0,1,100,29.636
1574714796.133743,373570.800,63537,5,T0,1,100,29.609
1574714796.267454,373683.200,63537,5,T0,1,100,29.609
1574714796.401166,373795.600,63537,5,T0,1,100,29.604
1574714796.534878,373908.000,63537,5,T0,1,100,29.593
1574714796.669473,374021.143,63556,7,T0,1,100,29.652
1574714796.804069,374134.286,63556,7,T0,1,100,29.582
1574714796.938664,374247.429,63556,7,T0,1,100,29.598
1574714797.073260,374360.571,63556,7,T0,1,100,29.588
1574714797.207855,374473.714,63556,7,T0,1,100,29.582
1574714797.342451,374586.857,63556,7,T0,1,100,29.615
1574714797.477046,374700.000,63556,7,T0,1,100,29.631
1574714797.610282,374812.000,63574,10,T0,1,100,29.631
1574714797.743518,374924.000,63574,10,T0,1,100,29.588
1574714797.876754,375036.000,63574,10,T0,1,100,29.588
1574714798.009990,375148.000,63574,10,T0,1,100,29.615
1574714798.143226,375260.000,63574,10,T0,1,100,29.588
1574714798.276462,375372.000,63574,10,T0,1,100,29.598
1574714798.409698,375484.000,63574,10,T0,1,100,29.598
1574714798.542933,375596.000,63574,10,T0,1,100,29.566
1574714798.676169,375708.000,63574,10,T0,1,100,29.625
1574714798.809405,375820.000,63574,10,T0,1,100,29.625
1574714798.942641,375932.000,63596,11,T0,1,100,29.604
1574714799.075877,376044.000,63596,11,T0,1,100,29.572
1574714799.209113,376156.000,63596,11,T0,1,100,29.598
1574714799.342349,376268.000,63596,11,T0,1,100,29.577
1574714799.475585,376380.000,63596,11,T0,1,100,29.620
1574714799.608821,376492.000,63596,11,T0,1,100,29.577
1574714799.742057,376604.000,63596,11,T0,1,100,29.556
1574714799.875293,376716.000,63596,11,T0,1,100,29.609
1574714800.008529,376828.000,63596,11,T0,1,100,29.577
1574714800.141765,376940.000,63596,11,T0,1,100,29.615
1574714800.275001,377052.000,63596,11,T0,1,100,29.550
1574714800.404073,377160.500,63615,2,T0,1,100,29.545
1574714800.533145,377269.000,63615,2,T0,1,100,29.588
1574714800.667571,377382.000,63635,1,T0,1,100,29.620
1574714800.806755,377499.000,63653,1,T0,1,100,29.561
1574714800.942370,377613.000,63671,1,T0,1,100,29.545
1574714801.069658,377720.000,63689,1,T0,1,100,29.572
1574714801.200514,377830.000,63707,1,T0,1,100,29.598
1574714801.339698,377947.000,63724,1,T0,1,100,29.577
1574714801.470555,378057.000,63758,1,T0,1,100,29.534
1574714801.609739,378174.000,63776,1,T0,1,100,29.572
1574714801.747733,378290.000,63795,1,T0,1,100,29.577
1574714801.878590,378400.000,63813,1,T0,1,100,29.561
1574714802.007067,378508.000,63831,1,T0,1,100,29.550
1574714802.141493,378621.000,63849,1,T0,1,100,29.545
1574714802.275918,378734.000,63867,1,T0,1,100,29.550
1574714802.417482,378853.000,63884,1,T0,1,100,29.577
1574714802.545959,378961.000,63918,1,T0,1,100,29.577
1574714802.670868,379066.000,63937,1,T0,1,100,29.550
1574714802.807673,379181.000,63955,1,T0,1,100,29.572
1574714802.945667,379297.000,63973,1,T0,1,100,29.561
1574714803.080092,379410.000,63991,1,T0,1,100,29.566
1574714803.207380,379517.000,64009,1,T0,1,100,29.523
1574714803.339427,379628.000,64027,1,T0,1,100,29.545
1574714803.477421,379744.000,64045,1,T0,1,100,29.582
1574714803.614226,379859.000,64062,1,T0,1,100,29.556
1574714803.747462,379971.000,64097,1,T0,1,100,29.572
1574714803.872370,380076.000,64115,1,T0,1,100,29.582
1574714804.006796,380189.000,64133,1,T0,1,100,29.556
1574714804.145980,380306.000,64151,1,T0,1,100,29.577
1574714804.283974,380422.000,64169,1,T0,1,100,29.582
1574714804.408883,380527.000,64187,1,T0,1,100,29.561
1574714804.537360,380635.000,64205,1,T0,1,100,29.588
1574714804.672976,380749.000,64223,1,T0,1,100,29.598
1574714804.812159,380866.000,64242,1,T0,1,100,29.550
1574714804.944206,380977.000,64259,1,T0,1,100,29.561
1574714805.069114,381082.000,64294,1,T0,1,100,29.545
1574714805.199971,381192.000,64311,1,T0,1,100,29.556
1574714805.328449,381300.000,64329,1,T0,1,100,29.540
1574714805.459305,381410.000,64347,1,T0,1,100,29.550
1574714805.598489,381527.000,64365,1,T0,1,100,29.588
1574714805.737673,381644.000,64384,1,T0,1,100,29.561
1574714805.862582,381749.000,64402,1,T0,1,100,29.588
1574714805.995818,381861.000,64420,1,T0,1,100,29.545
1574714806.124295,381969.000,64438,1,T0,1,100,29.534
1574714806.251583,382076.000,64458,1,T0,1,100,29.545
1574714806.390767,382193.000,64478,1,T0,1,100,29.523
1574714806.531141,382311.000,64496,1,T0,1,100,29.545
1574714806.658429,382418.000,64514,1,T0,1,100,29.561
1574714806.789285,382528.000,64533,1,T0,1,100,29.582
1574714806.922521,382640.000,64551,1,T0,1,100,29.545
1574714807.055757,382752.000,64569,1,T0,1,100,29.540
1574714807.197320,382871.000,64586,1,T0,1,100,29.550
1574714807.322229,382976.000,64604,1,T0,1,100,29.561
1574714807.454275,383087.000,64638,1,T0,1,100,29.561
1574714807.589890,383201.000,64656,1,T0,1,100,29.561
1574714807.729074,383318.000,64675,1,T0,1,100,29.534
1574714807.864690,383432.000,64693,1,T0,1,100,29.561
1574714807.990788,383538.000,64711,1,T0,1,100,29.556
1574714808.122834,383649.000,64729,1,T0,1,100,29.550
1574714808.262018,383766.000,64747,1,T0,1,100,29.566
1574714808.400012,383882.000,64764,1,T0,1,100,29.588
1574714808.526111,383988.000,64782,1,T0,1,100,29.556
1574714808.651019,384093.000,64817,1,T0,1,100,29.529
1574714808.791393,384211.000,64835,1,T0,1,100,29.582
1574714808.924629,384323.000,64853,1,T0,1,100,29.572
1574714809.062623,384439.000,64871,1,T0,1,100,29.566
1574714809.197049,384552.000,64889,1,T0,1,100,29.588
1574714809.326716,384661.000,64907,1,T0,1,100,29.529
1574714809.454004,384768.000,64925,1,T0,1,100,29.566
1574714809.589619,384882.000,64943,1,T0,1,100,29.566
1574714809.726424,384997.000,64960,1,T0,1,100,29.593
1574714809.862039,385111.000,64995,1,T0,1,100,29.540
1574714809.992895,385221.000,65013,1,T0,1,100,29.566
1574714810.121373,385329.000,65031,1,T0,1,100,29.572
1574714810.252230,385439.000,65049,1,T0,1,100,29.566
1574714810.390224,385555.000,65067,1,T0,1,100,29.556
1574714810.529408,385672.000,65085,1,T0,1,100,29.550
1574714810.653127,385776.000,65103,1,T0,1,100,29.572
1574714810.785173,385887.000,65122,1,T0,1,100,29.566
1574714810.919599,386000.000,65139,1,T0,1,100,29.550
1574714811.054024,386113.000,65173,1,T0,1,100,29.556
1574714811.190829,386228.000,65191,1,T0,1,100,29.566
1574714811.318117,386335.000,65209,1,T0,1,100,29.556
1574714811.447784,386444.000,65227,1,T0,1,100,29.572
1574714811.583399,386558.000,65245,1,T0,1,100,29.561
1574714811.724962,386677.000,65264,1,T0,1,100,29.550
1574714811.854630,386786.000,65282,1,T0,1,100,29.566
1574714811.981917,386893.000,65300,1,T0,1,100,29.582
1574714812.116343,387006.000,65317,1,T0,1,100,29.561
1574714812.253148,387121.000,65335,1,T0,1,100,29.550
1574714812.391142,387237.000,65356,1,T0,1,100,29.566
1574714812.514861,387341.000,65376,1,T0,1,100,29.534
1574714812.643339,387449.000,65394,1,T0,1,100,29.556
1574714812.783712,387567.000,65413,1,T0,1,100,29.550
1574714812.922896,387684.000,65446,1,T0,1,100,29.588
1574714813.059701,387799.000,65464,1,T0,1,100,29.566
1574714813.201264,387918.000,65482,1,T0,1,100,29.540
1574714813.330931,388027.000,65500,1,T0,1,100,29.561
1574714813.455840,388132.000,65518,1,T0,1,100,29.540
1574714813.593834,388248.000,0,1,T0,1,100,29.566
1574714813.731828,388364.000,19,1,T0,1,100,29.529
1574714813.869823,388480.000,36,1,T0,1,100,29.556
1574714813.997111,388587.000,54,1,T0,1,100,29.550
1574714814.129157,388698.000,88,1,T0,1,100,29.550
1574714814.260014,388808.000,106,1,T0,1,100,29.550
1574714814.398008,388924.000,124,1,T0,1,100,29.598
1574714814.533623,389038.000,142,1,T0,1,100,29.561
1574714814.656153,389141.000,160,1,T0,1,100,29.593
1574714814.790578,389254.000,179,1,T0,1,100,29.518
1574714814.928572,389370.000,197,1,T0,1,100,29.572
1574714815.065377,389485.000,215,1,T0,1,100,29.545
1574714815.195044,389594.000,232,1,T0,1,100,29.561
1574714815.324712,389703.000,266,1,T0,1,100,29.550
1574714815.457947,389815.000,284,1,T0,1,100,29.566
1574714815.593563,389929.000,302,1,T0,1,100,29.518
1574714815.732746,390046.000,321,1,T0,1,100,29.556
1574714815.857655,390151.000,339,1,T0,1,100,29.556
1574714815.989702,390262.000,357,1,T0,1,100,29.534
1574714816.124127,390375.000,375,1,T0,1,100,29.593
1574714816.262121,390491.000,393,1,T0,1,100,29.550
1574714816.396547,390604.000,410,1,T0,1,100,29.593
1574714816.522645,390710.000,428,1,T0,1,100,29.561
1574714816.653502,390820.000,463,1,T0,1,100,29.572
1574714816.792686,390937.000,481,1,T0,1,100,29.545
1574714816.929491,391052.000,499,1,T0,1,100,29.534
1574714817.060347,391162.000,517,1,T0,1,100,29.566
1574714817.199531,391279.000,535,1,T0,1,100,29.572
1574714817.337526,391395.000,553,1,T0,1,100,29.582
1574714817.468382,391505.000,570,1,T0,1,100,29.561
1574714817.596860,391613.000,588,1,T0,1,100,29.518
1574714817.731285,391726.000,623,1,T0,1,100,29.561
1574714817.865711,391839.000,641,1,T0,1,100,29.556
1574714818.007274,391958.000,659,1,T0,1,100,29.561
1574714818.135751,392066.000,677,1,T0,1,100,29.604
1574714818.260660,392171.000,695,1,T0,1,100,29.561
1574714818.397465,392286.000,716,1,T0,1,100,29.550
1574714818.534270,392401.000,736,1,T0,1,100,29.545
1574714818.668695,392514.000,755,1,T0,1,100,29.588
1574714818.795983,392621.000,773,1,T0,1,100,29.561
1574714818.926840,392731.000,791,1,T0,1,100,29.577
1574714819.064834,392847.000,809,1,T0,1,100,29.523
1574714819.200449,392961.000,827,1,T0,1,100,29.561
1574714819.333685,393073.000,844,1,T0,1,100,29.545
1574714819.459783,393179.000,862,1,T0,1,100,29.577
1574714819.594209,393292.000,880,1,T0,1,100,29.572
1574714819.733393,393409.000,915,1,T0,1,100,29.577
1574714819.870198,393524.000,933,1,T0,1,100,29.604
1574714819.995106,393629.000,951,1,T0,1,100,29.572
1574714820.122394,393736.000,969,1,T0,1,100,29.572
1574714820.258009,393850.000,987,1,T0,1,100,29.561
1574714820.397193,393967.000,1005,1,T0,1,100,29.529
1574714820.530429,394079.000,1023,1,T0,1,100,29.556
1574714820.655338,394184.000,1040,1,T0,1,100,29.582
1574714820.786195,394294.000,1059,1,T0,1,100,29.566
1574714820.914672,394402.000,1077,1,T0,1,100,29.556
1574714821.044339,394511.000,1111,1,T0,1,100,29.572
1574714821.183523,394628.000,1129,1,T0,1,100,29.540
1574714821.323897,394746.000,1147,1,T0,1,100,29.550
1574714821.449995,394852.000,1165,1,T0,1,100,29.550
1574714821.579662,394961.000,1183,1,T0,1,100,29.577
1574714821.715277,395075.000,1202,1,T0,1,100,29.534
1574714821.849703,395188.000,1220,1,T0,1,100,29.540
1574714821.988887,395305.000,1237,1,T0,1,100,29.572
1574714822.116175,395412.000,1255,1,T0,1,100,29.540
1574714822.242273,395518.000,1289,1,T0,1,100,29.545
1574714822.379078,395633.000,1307,1,T0,1,100,29.588
1574714822.518262,395750.000,1325,1,T0,1,100,29.561
1574714822.650308,395861.000,1343,1,T0,1,100,29.556
1574714822.776406,395967.000,1362,1,T0,1,100,29.566
1574714822.912021,396081.000,1380,1,T0,1,100,29.566
1574714823.050016,396197.000,1398,1,T0,1,100,29.556
1574714823.188010,396313.000,1415,1,T0,1,100,29.550
1574714823.316488,396421.000,1433,1,T0,1,100,29.497
1574714823.443775,396528.000,1467,1,T0,1,100,29.561
1574714823.584149,396646.000,1485,1,T0,1,100,29.540
1574714823.718575,396759.000,1504,1,T0,1,100,29.572
1574714823.854190,396873.000,1522,1,T0,1,100,29.534
1574714823.977909,396977.000,1540,1,T0,1,100,29.550
1574714824.108765,397087.000,1558,1,T0,1,100,29.540
1574714824.244380,397201.000,1576,1,T0,1,100,29.566
1574714824.383564,397318.000,1594,1,T0,1,100,29.545
1574714824.515611,397429.000,1614,1,T0,1,100,29.588
1574714824.654795,397546.000,1635,1,T0,1,100,29.540
1574714824.791600,397661.000,1653,1,T0,1,100,29.566
1574714824.923646,397772.000,1671,1,T0,1,100,29.540
1574714825.048554,397877.000,1688,1,T0,1,100,29.566
1574714825.184170,397991.000,1706,1,T0,1,100,29.556
1574714825.319785,398105.000,1740,1,T0,1,100,29.550
1574714825.455400,398219.000,1758,1,T0,1,100,29.545
1574714825.587446,398330.000,1776,1,T0,1,100,29.540
1574714825.715924,398438.000,1795,1,T0,1,100,29.540
1574714825.846780,398548.000,1813,1,T0,1,100,29.545
1574714825.984775,398664.000,1831,1,T0,1,100,29.561
1574714826.123959,398781.000,1849,1,T0,1,100,29.556
1574714826.247678,398885.000,1866,1,T0,1,100,29.577
1574714826.379724,398996.000,1884,1,T0,1,100,29.545
1574714826.514150,399109.000,1918,1,T0,1,100,29.561
1574714826.650954,399224.000,1937,1,T0,1,100,29.593
1574714826.785380,399337.000,1955,1,T0,1,100,29.534
1574714826.911478,399443.000,1973,1,T0,1,100,29.529
1574714827.044714,399555.000,1991,1,T0,1,100,29.577
1574714827.180329,399669.000,2009,1,T0,1,100,29.523
1574714827.320703,399787.000,2027,1,T0,1,100,29.540
1574714827.451560,399897.000,2044,1,T0,1,100,29.572
1574714827.577658,400003.000,2062,1,T0,1,100,29.582
1574714827.712083,400116.000,2081,1,T0,1,100,29.545
1574714827.848888,400231.000,2115,1,T0,1,100,29.523
1574714827.986882,400347.000,2133,1,T0,1,100,29.582
1574714828.110601,400451.000,2151,1,T0,1,100,29.566
1574714828.237889,400558.000,2169,1,T0,1,100,29.582
1574714828.378263,400676.000,2187,1,T0,1,100,29.561
1574714828.517447,400793.000,2205,1,T0,1,100,29.540
1574714828.654252,400908.000,2223,1,T0,1,100,29.545
1574714828.795815,401027.000,2241,1,T0,1,100,29.545
1574714828.926672,401137.000,2275,1,T0,1,100,29.534
1574714829.051580,401242.000,2293,1,T0,1,100,29.534
1574714829.189574,401358.000,2311,1,T0,1,100,29.540
1574714829.327569,401474.000,2329,1,T0,1,100,29.545
1574714829.465563,401590.000,2347,1,T0,1,100,29.550
1574714829.592851,401697.000,2365,1,T0,1,100,29.556
1574714829.721328,401805.000,2384,1,T0,1,100,29.588
1574714829.853375,401916.000,2402,1,T0,1,100,29.566
1574714829.990180,402031.000,2419,1,T0,1,100,29.550
1574714830.125795,402145.000,2453,1,T0,1,100,29.572
1574714830.249514,402249.000,2471,1,T0,1,100,29.529
1574714830.383939,402362.000,2489,1,T0,1,100,29.545
1574714830.522528,402478.500,2510,2,T0,1,100,29.507
1574714830.661118,402595.000,2510,2,T0,1,100,29.577
1574714830.790785,402704.000,2547,1,T0,1,100,29.534
1574714830.919262,402812.000,2565,1,T0,1,100,29.572
1574714831.052498,402924.000,2583,1,T0,1,100,29.540
1574714831.188113,403038.000,2601,1,T0,1,100,29.582
1574714831.328487,403156.000,2619,1,T0,1,100,29.540
1574714831.453395,403261.000,2637,1,T0,1,100,29.545
1574714831.585442,403372.000,2655,1,T0,1,100,29.566
1574714831.719867,403485.000,2674,1,T0,1,100,29.577
1574714831.857862,403601.000,2691,1,T0,1,100,29.561
1574714831.991098,403713.000,2725,1,T0,1,100,29.513
1574714832.116006,403818.000,2743,1,T0,1,100,29.523
1574714832.250432,403931.000,2761,1,T0,1,100,29.550
1574714832.389616,404048.000,2779,1,T0,1,100,29.556
1574714832.525231,404162.000,2797,1,T0,1,100,29.540
1574714832.658467,404274.000,2815,1,T0,1,100,29.545
1574714832.798840,404392.000,2834,1,T0,1,100,29.507
1574714832.926128,404499.000,2851,1,T0,1,100,29.540
1574714833.053416,404606.000,2869,1,T0,1,100,29.502
1574714833.192600,404723.000,2903,1,T0,1,100,29.529
1574714833.327026,404836.000,2921,1,T0,1,100,29.507
1574714833.461451,404949.000,2939,1,T0,1,100,29.534
1574714833.603014,405068.000,2957,1,T0,1,100,29.518
1574714833.731492,405176.000,2976,1,T0,1,100,29.534
1574714833.856400,405281.000,2994,1,T0,1,100,29.561
1574714833.993205,405396.000,3012,1,T0,1,100,29.545
1574714834.131200,405512.000,3030,1,T0,1,100,29.523
1574714834.266815,405626.000,3047,1,T0,1,100,29.534
1574714834.394103,405733.000,3081,1,T0,1,100,29.577
1574714834.523770,405842.000,3099,1,T0,1,100,29.550
1574714834.661764,405958.000,3118,1,T0,1,100,29.540
1574714834.797379,406072.000,3136,1,T0,1,100,29.545
1574714834.930615,406184.000,3154,1,T0,1,100,29.545
1574714835.056713,406290.000,3172,1,T0,1,100,29.523
1574714835.189949,406402.000,3190,1,T0,1,100,29.540
1574714835.327944,406518.000,3208,1,T0,1,100,29.566
1574714835.465938,406634.000,3225,1,T0,1,100,29.534
1574714835.592036,406740.000,3243,1,T0,1,100,29.534
1574714835.719324,406847.000,3278,1,T0,1,100,29.523
1574714835.854939,406961.000,3296,1,T0,1,100,29.545
1574714835.994123,407078.000,3314,1,T0,1,100,29.550
1574714836.127359,407190.000,3332,1,T0,1,100,29.561
1574714836.252268,407295.000,3350,1,T0,1,100,29.529
1574714836.381935,407404.000,3368,1,T0,1,100,29.513
1574714836.509223,407511.000,3386,1,T0,1,100,29.534
1574714836.638890,407620.000,3407,1,T0,1,100,29.523
1574714836.778074,407737.000,3428,1,T0,1,100,29.561
1574714836.918447,407855.000,3446,1,T0,1,100,29.513
1574714837.044546,407961.000,3464,1,T0,1,100,29.507
1574714837.174213,408070.000,3482,1,T0,1,100,29.502
1574714837.309828,408184.000,3500,1,T0,1,100,29.534
1574714837.444253,408297.000,3518,1,T0,1,100,29.572
1574714837.583437,408414.000,3535,1,T0,1,100,29.556
1574714837.709536,408520.000,3570,1,T0,1,100,29.550
1574714837.838013,408628.000,3588,1,T0,1,100,29.556
1574714837.974818,408743.000,3606,1,T0,1,100,29.529
1574714838.112812,408859.000,3624,1,T0,1,100,29.518
1574714838.243669,408969.000,3642,1,T0,1,100,29.556
1574714838.372146,409077.000,3660,1,T0,1,100,29.556
1574714838.505382,409189.000,3678,1,T0,1,100,29.561
1574714838.644566,409306.000,3696,1,T0,1,100,29.534
1574714838.781371,409421.000,3714,1,T0,1,100,29.529
1574714838.909849,409529.000,3748,1,T0,1,100,29.513
1574714839.038326,409637.000,3766,1,T0,1,100,29.572
1574714839.176320,409753.000,3784,1,T0,1,100,29.502
1574714839.311936,409867.000,3802,1,T0,1,100,29.491
1574714839.447551,409981.000,3820,1,T0,1,100,29.540
1574714839.571270,410085.000,3838,1,T0,1,100,29.540
1574714839.700937,410194.000,3857,1,T0,1,100,29.529
1574714839.837742,410309.000,3875,1,T0,1,100,29.545
1574714839.975736,410425.000,3892,1,T0,1,100,29.486
1574714840.108972,410537.000,3926,1,T0,1,100,29.518
1574714840.246966,410653.000,3944,1,T0,1,100,29.523
1574714840.374254,410760.000,3962,1,T0,1,100,29.529
1574714840.505111,410870.000,3980,1,T0,1,100,29.534
1574714840.635967,410980.000,3999,1,T0,1,100,29.518
1574714840.775151,411097.000,4017,1,T0,1,100,29.529
1574714840.913146,411213.000,4035,1,T0,1,100,29.523
1574714841.038054,411318.000,4053,1,T0,1,100,29.545
1574714841.171290,411430.000,4070,1,T0,1,100,29.497
1574714841.306906,411544.000,4088,1,T0,1,100,29.518
1574714841.441331,411657.000,4122,1,T0,1,100,29.518
1574714841.575757,411770.000,4140,1,T0,1,100,29.518
1574714841.701855,411876.000,4159,1,T0,1,100,29.481
1574714841.831522,411985.000,4177,1,T0,1,100,29.529
1574714841.969516,412101.000,4195,1,T0,1,100,29.502
1574714842.109890,412219.000,4213,1,T0,1,100,29.518
1574714842.238367,412327.000,4231,1,T0,1,100,29.523
1574714842.364466,412433.000,4249,1,T0,1,100,29.486
1574714842.502460,412549.000,4266,1,T0,1,100,29.502
1574714842.639265,412664.000,4304,2,T0,1,100,29.523
1574714842.776069,412779.000,4304,2,T0,1,100,29.491
1574714842.903357,412886.000,4324,1,T0,1,100,29.502
1574714843.030645,412993.000,4342,1,T0,1,100,29.502
1574714843.169829,413110.000,4359,1,T0,1,100,29.529
1574714843.304255,413223.000,4393,1,T0,1,100,29.513
1574714843.435112,413333.000,4411,1,T0,1,100,29.491
1574714843.562399,413440.000,4429,1,T0,1,100,29.540
1574714843.695635,413552.000,4448,1,T0,1,100,29.507
1574714843.833630,413668.000,4466,1,T0,1,100,29.507
1574714843.976382,413788.000,4484,1,T0,1,100,29.534
1574714844.114377,413904.000,4502,1,T0,1,100,29.518
1574714844.251181,414019.000,4519,1,T0,1,100,29.497
1574714844.378469,414126.000,4537,1,T0,1,100,29.513
1574714844.510516,414237.000,4571,1,T0,1,100,29.502
1574714844.644941,414350.000,4590,1,T0,1,100,29.481
1574714844.785315,414468.000,4608,1,T0,1,100,29.513
1574714844.918551,414580.000,4626,1,T0,1,100,29.523
1574714845.042270,414684.000,4644,1,T0,1,100,29.545
1574714845.176695,414797.000,4662,1,T0,1,100,29.507
1574714845.313500,414912.000,4680,1,T0,1,100,29.502
1574714845.449115,415026.000,4697,1,T0,1,100,29.486
1574714845.578782,415135.000,4715,1,T0,1,100,29.507
1574714845.708449,415244.000,4750,1,T0,1,100,29.475
1574714845.841685,415356.000,4768,1,T0,1,100,29.502
1574714845.977300,415470.000,4786,1,T0,1,100,29.491
1574714846.116484,415587.000,4804,1,T0,1,100,29.475
1574714846.241393,415692.000,4822,1,T0,1,100,29.502
1574714846.371060,415801.000,4840,1,T0,1,100,29.513
1574714846.510244,415918.000,4858,1,T0,1,100,29.491
1574714846.647049,416033.000,4876,1,T0,1,100,29.491
1574714846.779095,416144.000,4894,1,T0,1,100,29.518
1574714846.905193,416250.000,4912,1,T0,1,100,29.513
1574714847.039619,416363.000,4946,1,T0,1,100,29.502
1574714847.178803,416480.000,4964,1,T0,1,100,29.481
1574714847.314418,416594.000,4982,1,T0,1,100,29.497
1574714847.441706,416701.000,5000,1,T0,1,100,29.486
1574714847.571373,416810.000,5018,1,T0,1,100,29.486
1574714847.710557,416927.000,5037,1,T0,1,100,29.497
1574714847.841414,417037.000,5055,1,T0,1,100,29.491
1574714847.979408,417153.000,5072,1,T0,1,100,29.475
1574714848.117402,417269.000,5106,1,T0,1,100,29.502
1574714848.248259,417379.000,5124,1,T0,1,100,29.481
1574714848.375547,417486.000,5142,1,T0,1,100,29.475
1574714848.513541,417602.000,5160,1,T0,1,100,29.507
1574714848.642019,417710.000,5178,1,T0,1,100,29.497
1574714848.781203,417827.000,5200,1,T0,1,100,29.523
1574714848.919197,417943.000,5220,1,T0,1,100,29.475
1574714849.052433,418055.000,5238,1,T0,1,100,29.432
1574714849.179721,418162.000,5256,1,T0,1,100,29.470
1574714849.310578,418272.000,5274,1,T0,1,100,29.481
1574714849.445003,418385.000,5292,1,T0,1,100,29.438
1574714849.584187,418502.000,5310,1,T0,1,100,29.497
1574714849.715044,418612.000,5328,1,T0,1,100,29.507
1574714849.838763,418716.000,5346,1,T0,1,100,29.443
1574714849.974378,418830.000,5364,1,T0,1,100,29.497
1574714850.112372,418946.000,5398,1,T0,1,100,29.481
1574714850.251556,419063.000,5416,1,T0,1,100,29.507
1574714850.376465,419168.000,5434,1,T0,1,100,29.497
1574714850.506132,419277.000,5452,1,T0,1,100,29.502
1574714850.644126,419393.000,5470,1,T0,1,100,29.502
1574714850.783310,419510.000,5489,1,T0,1,100,29.475
1574714850.914167,419620.000,5507,1,T0,1,100,29.513
1574714851.039076,419725.000,5524,1,T0,1,100,29.497
1574714851.174691,419839.000,5542,1,T0,1,100,29.481
1574714851.309116,419952.000,5576,1,T0,1,100,29.448
1574714851.447111,420068.000,5594,1,T0,1,100,29.486
1574714851.575588,420176.000,5612,1,T0,1,100,29.513
1574714851.705255,420285.000,5631,1,T0,1,100,29.507
1574714851.830164,420390.000,5649,1,T0,1,100,29.475
1574714851.963400,420502.000,5667,1,T0,1,100,29.481
1574714852.099015,420616.000,5685,1,T0,1,100,29.481
1574714852.233441,420729.000,5703,1,T0,1,100,29.459
1574714852.370245,420844.000,5720,1,T0,1,100,29.470
1574714852.497533,420951.000,5738,1,T0,1,100,29.502
1574714852.624821,421058.000,5773,1,T0,1,100,29.481
1574714852.764005,421175.000,5791,1,T0,1,100,29.475
1574714852.903189,421292.000,5809,1,T0,1,100,29.513
1574714853.031667,421400.000,5827,1,T0,1,100,29.502
1574714853.162523,421510.000,5845,1,T0,1,100,29.475
1574714853.295759,421622.000,5863,1,T0,1,100,29.486
1574714853.428995,421734.000,5881,1,T0,1,100,29.475
1574714853.569369,421852.000,5898,1,T0,1,100,29.481
1574714853.695467,421958.000,5916,1,T0,1,100,29.464
1574714853.826324,422068.000,5951,1,T0,1,100,29.491
1574714853.960749,422181.000,5969,1,T0,1,100,29.481
1574714854.099933,422298.000,5987,1,T0,1,100,29.497
1574714854.235548,422412.000,6005,1,T0,1,100,29.481
1574714854.360457,422517.000,6023,1,T0,1,100,29.486
1574714854.494882,422630.000,6041,1,T0,1,100,29.464
1574714854.632877,422746.000,6059,1,T0,1,100,29.486
1574714854.770871,422862.000,6077,1,T0,1,100,29.475
1574714854.896969,422968.000,6098,1,T0,1,100,29.513
1574714855.020689,423072.000,6118,1,T0,1,100,29.470
1574714855.161062,423190.000,6136,1,T0,1,100,29.475
1574714855.294298,423302.000,6154,1,T0,1,100,29.481
1574714855.432292,423418.000,6172,1,T0,1,100,29.507
1574714855.567908,423532.000,6189,1,T0,1,100,29.448
1574714855.699954,423643.000,6224,1,T0,1,100,29.470
1574714855.824862,423748.000,6242,1,T0,1,100,29.464
1574714855.960478,423862.000,6260,1,T0,1,100,29.464
1574714856.096093,423976.000,6278,1,T0,1,100,29.502
1574714856.231708,424090.000,6296,1,T0,1,100,29.491
1574714856.363754,424201.000,6314,1,T0,1,100,29.464
1574714856.492232,424309.000,6332,1,T0,1,100,29.470
1574714856.623088,424419.000,6350,1,T0,1,100,29.518
1574714856.761083,424535.000,6368,1,T0,1,100,29.507
1574714856.900267,424652.000,6402,1,T0,1,100,29.459
1574714857.023986,424756.000,6420,1,T0,1,100,29.486
1574714857.156032,424867.000,6438,1,T0,1,100,29.459
1574714857.291647,424981.000,6456,1,T0,1,100,29.502
1574714857.424883,425093.000,6474,1,T0,1,100,29.459
1574714857.562877,425209.000,6492,1,T0,1,100,29.464
1574714857.690165,425316.000,6511,1,T0,1,100,29.513
1574714857.819832,425425.000,6529,1,T0,1,100,29.475
1574714857.955448,425539.000,6547,1,T0,1,100,29.491
1574714858.097011,425658.000,6581,1,T0,1,100,29.459
