EpochTimestamp,EmotiBitTimestamp,PacketNumber,DataLength,TypeTag,ProtocolVersion,DataReliability,H0
1572449217.578748,69226.000,11590,2,H0,1,100,97.722
1572449217.578748,69226.000,11590,2,H0,1,100,97.714
1572449217.712774,69331.000,11609,1,H0,1,100,97.706
1572449217.848076,69437.000,11627,1,H0,1,100,97.718
1572449217.979549,69540.000,11645,1,H0,1,100,97.714
1572449218.113575,69645.000,11662,1,H0,1,100,97.714
1572449218.248878,69751.000,11697,1,H0,1,100,97.706
1572449218.380350,69854.000,11715,1,H0,1,100,97.699
1572449218.514376,69959.000,11734,1,H0,1,100,97.699
1572449218.645849,70062.000,11752,1,H0,1,100,97.691
1572449218.777322,70165.000,11770,1,H0,1,100,97.691
1572449218.908795,70268.000,11788,1,H0,1,100,97.695
1572449219.041545,70372.000,11806,1,H0,1,100,97.683
1572449219.175570,70477.000,11824,1,H0,1,100,97.699
1572449219.308320,70581.000,11842,1,H0,1,100,97.683
1572449219.442346,70686.000,11860,1,H0,1,100,97.683
1572449219.573819,70789.000,11879,1,H0,1,100,97.691
1572449219.707844,70894.000,11897,1,H0,1,100,97.687
1572449219.839317,70997.000,11915,1,H0,1,100,97.691
1572449219.972067,71101.000,11933,1,H0,1,100,97.683
1572449220.106093,71206.000,11951,1,H0,1,100,97.672
1572449220.240119,71311.000,11969,1,H0,1,100,97.680
1572449220.372868,71415.000,11987,1,H0,1,100,97.668
1572449220.509447,71522.000,12005,1,H0,1,100,97.676
1572449220.643472,71627.000,12024,1,H0,1,100,97.672
1572449220.774945,71730.000,12042,1,H0,1,100,97.664
1572449220.908971,71835.000,12060,1,H0,1,100,97.676
1572449221.044274,71941.000,12078,1,H0,1,100,97.664
1572449221.175746,72044.000,12095,1,H0,1,100,97.668
1572449221.309772,72149.000,12113,1,H0,1,100,97.664
1572449221.445075,72255.000,12131,1,H0,1,100,97.664
1572449221.576548,72358.000,12149,1,H0,1,100,97.657
1572449221.708020,72461.000,12168,1,H0,1,100,97.653
1572449221.840770,72565.000,12186,1,H0,1,100,97.653
1572449221.972243,72668.000,12204,1,H0,1,100,97.642
1572449222.103716,72771.000,12222,1,H0,1,100,97.642
1572449222.237742,72876.000,12257,1,H0,1,100,97.653
1572449222.371768,72981.000,12275,1,H0,1,100,97.672
1572449222.504517,73085.000,12293,1,H0,1,100,97.687
1572449222.639819,73191.000,12312,1,H0,1,100,97.706
1572449222.771292,73294.000,12330,1,H0,1,100,97.725
1572449222.905318,73399.000,12348,1,H0,1,100,97.722
1572449223.036791,73502.000,12366,1,H0,1,100,97.729
1572449223.169540,73606.000,12384,1,H0,1,100,97.725
1572449223.304843,73712.000,12402,1,H0,1,100,97.729
1572449223.438869,73817.000,12420,1,H0,1,100,97.729
1572449223.571618,73921.000,12438,1,H0,1,100,97.722
1572449223.706920,74027.000,12457,1,H0,1,100,97.733
1572449223.842222,74133.000,12475,1,H0,1,100,97.710
1572449223.974972,74237.000,12496,2,H0,1,100,97.714
1572449224.107721,74341.000,12496,2,H0,1,100,97.710
1572449224.243023,74447.000,12516,1,H0,1,100,97.714
1572449224.374496,74550.000,12534,1,H0,1,100,97.699
1572449224.508522,74655.000,12552,1,H0,1,100,97.691
1572449224.643825,74761.000,12570,1,H0,1,100,97.703
1572449224.775297,74864.000,12589,1,H0,1,100,97.687
1572449224.906770,74967.000,12623,1,H0,1,100,97.695
1572449225.039520,75071.000,12641,1,H0,1,100,97.691
1572449225.170993,75174.000,12659,1,H0,1,100,97.695
1572449225.303742,75278.000,12677,1,H0,1,100,97.687
1572449225.437768,75383.000,12695,1,H0,1,100,97.687
1572449225.571794,75488.000,12713,1,H0,1,100,97.680
1572449225.704543,75592.000,12732,1,H0,1,100,97.680
1572449225.837293,75696.000,12750,1,H0,1,100,97.680
1572449225.970042,75800.000,12768,1,H0,1,100,97.672
1572449226.104068,75905.000,12786,1,H0,1,100,97.668
1572449226.235541,76008.000,12804,1,H0,1,100,97.672
1572449226.368290,76112.000,12822,1,H0,1,100,97.657
1572449226.504869,76219.000,12840,1,H0,1,100,97.668
1572449226.638895,76324.000,12858,1,H0,1,100,97.657
1572449226.771644,76428.000,12877,1,H0,1,100,97.657
1572449226.905670,76533.000,12895,1,H0,1,100,97.661
1572449227.040972,76639.000,12913,1,H0,1,100,97.672
1572449227.172445,76742.000,12931,1,H0,1,100,97.664
1572449227.306471,76847.000,12949,1,H0,1,100,97.664
1572449227.441773,76953.000,12967,1,H0,1,100,97.676
1572449227.573246,77056.000,12985,1,H0,1,100,97.676
1572449227.707272,77161.000,13003,1,H0,1,100,97.661
1572449227.841298,77266.000,13021,1,H0,1,100,97.668
1572449227.972771,77369.000,13039,1,H0,1,100,97.653
1572449228.104244,77472.000,13057,1,H0,1,100,97.661
1572449228.236993,77576.000,13075,1,H0,1,100,97.657
1572449228.368466,77679.000,13093,1,H0,1,100,97.657
1572449228.501216,77783.000,13111,1,H0,1,100,97.649
1572449228.635242,77888.000,13129,1,H0,1,100,97.653
1572449228.769267,77993.000,13147,1,H0,1,100,97.653
1572449228.904570,78099.000,13182,1,H0,1,100,97.645
1572449229.036043,78202.000,13200,1,H0,1,100,97.661
1572449229.168792,78306.000,13218,1,H0,1,100,97.645
1572449229.302818,78411.000,13236,1,H0,1,100,97.653
1572449229.435567,78515.000,13254,1,H0,1,100,97.664
1572449229.568317,78619.000,13272,1,H0,1,100,97.653
1572449229.704895,78726.000,13290,1,H0,1,100,97.661
1572449229.838921,78831.000,13309,1,H0,1,100,97.661
1572449229.972947,78936.000,13327,1,H0,1,100,97.653
1572449230.106973,79041.000,13345,1,H0,1,100,97.657
1572449230.242275,79147.000,13363,1,H0,1,100,97.653
1572449230.373748,79250.000,13381,1,H0,1,100,97.664
1572449230.508412,79355.500,13402,2,H0,1,100,97.657
1572449230.643076,79461.000,13402,2,H0,1,100,97.657
1572449230.774549,79564.000,13422,1,H0,1,100,97.657
1572449230.908575,79669.000,13441,1,H0,1,100,97.657
1572449231.041324,79773.000,13459,1,H0,1,100,97.653
1572449231.172797,79876.000,13477,1,H0,1,100,97.661
1572449231.304271,79979.000,13511,1,H0,1,100,97.645
1572449231.437020,80083.000,13529,1,H0,1,100,97.657
1572449231.569769,80187.000,13547,1,H0,1,100,97.649
1572449231.702519,80291.000,13565,1,H0,1,100,97.649
1572449231.836545,80396.000,13584,1,H0,1,100,97.653
1572449231.970570,80501.000,13602,1,H0,1,100,97.649
1572449232.104596,80606.000,13620,1,H0,1,100,97.649
1572449232.236069,80709.000,13638,1,H0,1,100,97.661
1572449232.368819,80813.000,13656,1,H0,1,100,97.657
1572449232.502844,80918.000,13674,1,H0,1,100,97.664
1572449232.636870,81023.000,13692,1,H0,1,100,97.661
1572449232.769619,81127.000,13711,1,H0,1,100,97.653
1572449232.906198,81234.000,13729,1,H0,1,100,97.649
1572449233.040224,81339.000,13747,1,H0,1,100,97.645
1572449233.171697,81442.000,13765,1,H0,1,100,97.661
1572449233.305723,81547.000,13783,1,H0,1,100,97.657
1572449233.441025,81653.000,13801,1,H0,1,100,97.653
1572449233.572498,81756.000,13819,1,H0,1,100,97.664
1572449233.706524,81861.000,13837,1,H0,1,100,97.661
1572449233.841826,81967.000,13856,1,H0,1,100,97.657
1572449233.973299,82070.000,13874,1,H0,1,100,97.653
1572449234.106049,82174.000,13892,1,H0,1,100,97.657
1572449234.237522,82277.000,13910,1,H0,1,100,97.657
1572449234.368994,82380.000,13928,1,H0,1,100,97.657
1572449234.500468,82483.000,13945,1,H0,1,100,97.657
1572449234.633217,82587.000,13963,1,H0,1,100,97.657
1572449234.767243,82692.000,13981,1,H0,1,100,97.657
1572449234.899992,82796.000,14000,1,H0,1,100,97.672
1572449235.034018,82901.000,14018,1,H0,1,100,97.661
1572449235.166767,83005.000,14036,1,H0,1,100,97.661
1572449235.300793,83110.000,14054,1,H0,1,100,97.657
1572449235.432266,83213.000,14088,1,H0,1,100,97.661
1572449235.565016,83317.000,14106,1,H0,1,100,97.664
1572449235.699041,83422.000,14124,1,H0,1,100,97.657
1572449235.833067,83527.000,14143,1,H0,1,100,97.664
1572449235.965816,83631.000,14161,1,H0,1,100,97.664
1572449236.102395,83738.000,14179,1,H0,1,100,97.668
1572449236.236421,83843.000,14197,1,H0,1,100,97.664
1572449236.367894,83946.000,14215,1,H0,1,100,97.661
1572449236.501920,84051.000,14233,1,H0,1,100,97.676
1572449236.637222,84157.000,14251,1,H0,1,100,97.649
1572449236.768695,84260.000,14269,1,H0,1,100,97.668
1572449236.902721,84365.000,14288,1,H0,1,100,97.661
1572449237.036109,84469.500,14309,2,H0,1,100,97.668
1572449237.169496,84574.000,14309,2,H0,1,100,97.672
1572449237.302246,84678.000,14329,1,H0,1,100,97.672
1572449237.434995,84782.000,14347,1,H0,1,100,97.657
1572449237.566468,84885.000,14365,1,H0,1,100,97.668
1572449237.697941,84988.000,14383,1,H0,1,100,97.653
1572449237.831967,85093.000,14401,1,H0,1,100,97.668
1572449237.965993,85198.000,14419,1,H0,1,100,97.664
1572449238.098742,85302.000,14454,1,H0,1,100,97.661
1572449238.234044,85408.000,14472,1,H0,1,100,97.664
1572449238.365517,85511.000,14490,1,H0,1,100,97.653
1572449238.499543,85616.000,14508,1,H0,1,100,97.649
1572449238.631016,85719.000,14526,1,H0,1,100,97.664
1572449238.763766,85823.000,14544,1,H0,1,100,97.668
1572449238.899068,85929.000,14563,1,H0,1,100,97.664
1572449239.033094,86034.000,14581,1,H0,1,100,97.664
1572449239.165843,86138.000,14599,1,H0,1,100,97.664
1572449239.301145,86244.000,14617,1,H0,1,100,97.672
1572449239.436448,86350.000,14635,1,H0,1,100,97.664
1572449239.567920,86453.000,14653,1,H0,1,100,97.664
1572449239.701946,86558.000,14671,1,H0,1,100,97.664
1572449239.837249,86664.000,14689,1,H0,1,100,97.672
1572449239.968722,86767.000,14708,1,H0,1,100,97.661
1572449240.102747,86872.000,14726,1,H0,1,100,97.664
1572449240.238050,86978.000,14744,1,H0,1,100,97.668
1572449240.369523,87081.000,14762,1,H0,1,100,97.661
1572449240.500996,87184.000,14780,1,H0,1,100,97.664
1572449240.633745,87288.000,14798,1,H0,1,100,97.661
1572449240.765218,87391.000,14816,1,H0,1,100,97.657
1572449240.897967,87495.000,14833,1,H0,1,100,97.661
1572449241.031993,87600.000,14852,1,H0,1,100,97.661
1572449241.166019,87705.000,14870,1,H0,1,100,97.668
1572449241.298769,87809.000,14888,1,H0,1,100,97.664
1572449241.432794,87914.000,14906,1,H0,1,100,97.661
1572449241.564267,88017.000,14924,1,H0,1,100,97.664
1572449241.698293,88122.000,14942,1,H0,1,100,97.653
1572449241.829766,88225.000,14960,1,H0,1,100,97.657
1572449241.962515,88329.000,14977,1,H0,1,100,97.653
1572449242.099094,88436.000,15013,1,H0,1,100,97.657
1572449242.233120,88541.000,15031,1,H0,1,100,97.657
1572449242.365870,88645.000,15049,1,H0,1,100,97.664
1572449242.501172,88751.000,15067,1,H0,1,100,97.657
1572449242.636474,88857.000,15085,1,H0,1,100,97.657
1572449242.767947,88960.000,15103,1,H0,1,100,97.653
1572449242.901973,89065.000,15121,1,H0,1,100,97.661
1572449243.037275,89171.000,15140,1,H0,1,100,97.657
1572449243.168748,89274.000,15158,1,H0,1,100,97.653
1572449243.302774,89379.000,15176,1,H0,1,100,97.649
1572449243.438076,89485.000,15194,1,H0,1,100,97.653
1572449243.569549,89588.000,15215,2,H0,1,100,97.653
1572449243.701022,89691.000,15215,2,H0,1,100,97.653
1572449243.833771,89795.000,15235,1,H0,1,100,97.645
1572449243.965244,89898.000,15253,1,H0,1,100,97.642
1572449244.097994,90002.000,15272,1,H0,1,100,97.645
1572449244.232020,90107.000,15290,1,H0,1,100,97.642
1572449244.366045,90212.000,15308,1,H0,1,100,97.642
1572449244.498795,90316.000,15342,1,H0,1,100,97.634
1572449244.630268,90419.000,15360,1,H0,1,100,97.645
1572449244.763017,90523.000,15378,1,H0,1,100,97.642
1572449244.897043,90628.000,15396,1,H0,1,100,97.638
1572449245.029793,90732.000,15415,1,H0,1,100,97.634
1572449245.162542,90836.000,15433,1,H0,1,100,97.642
1572449245.299121,90943.000,15451,1,H0,1,100,97.645
1572449245.433146,91048.000,15469,1,H0,1,100,97.634
1572449245.565896,91152.000,15487,1,H0,1,100,97.642
1572449245.699922,91257.000,15505,1,H0,1,100,97.638
1572449245.835224,91363.000,15523,1,H0,1,100,97.630
1572449245.966697,91466.000,15541,1,H0,1,100,97.638
1572449246.100723,91571.000,15560,1,H0,1,100,97.634
1572449246.236025,91677.000,15578,1,H0,1,100,97.630
1572449246.367498,91780.000,15596,1,H0,1,100,97.630
1572449246.501524,91885.000,15614,1,H0,1,100,97.626
1572449246.634273,91989.000,15632,1,H0,1,100,97.630
1572449246.765746,92092.000,15650,1,H0,1,100,97.638
1572449246.897219,92195.000,15668,1,H0,1,100,97.630
1572449247.029969,92299.000,15687,1,H0,1,100,97.630
1572449247.162718,92403.000,15705,1,H0,1,100,97.630
1572449247.295467,92507.000,15723,1,H0,1,100,97.634
1572449247.429493,92612.000,15741,1,H0,1,100,97.638
1572449247.563519,92717.000,15758,1,H0,1,100,97.630
1572449247.697545,92822.000,15776,1,H0,1,100,97.634
1572449247.829018,92925.000,15794,1,H0,1,100,97.630
1572449247.961767,93029.000,15812,1,H0,1,100,97.622
1572449248.095793,93134.000,15831,1,H0,1,100,97.622
1572449248.229819,93239.000,15849,1,H0,1,100,97.615
1572449248.362568,93343.000,15867,1,H0,1,100,97.619
1572449248.499147,93450.000,15901,1,H0,1,100,97.622
1572449248.633173,93555.000,15919,1,H0,1,100,97.622
1572449248.765922,93659.000,15937,1,H0,1,100,97.626
1572449248.899948,93764.000,15955,1,H0,1,100,97.622
1572449249.035250,93870.000,15974,1,H0,1,100,97.626
1572449249.166723,93973.000,15992,1,H0,1,100,97.622
1572449249.300749,94078.000,16010,1,H0,1,100,97.619
1572449249.436051,94184.000,16028,1,H0,1,100,97.622
1572449249.567524,94287.000,16046,1,H0,1,100,97.622
1572449249.701550,94392.000,16064,1,H0,1,100,97.626
1572449249.833023,94495.000,16082,1,H0,1,100,97.626
1572449249.964496,94598.000,16100,1,H0,1,100,97.626
1572449250.096607,94701.500,16122,2,H0,1,100,97.619
1572449250.228719,94805.000,16122,2,H0,1,100,97.619
1572449250.362744,94910.000,16141,1,H0,1,100,97.622
1572449250.495494,95014.000,16159,1,H0,1,100,97.619
1572449250.629519,95119.000,16177,1,H0,1,100,97.615
1572449250.762269,95223.000,16195,1,H0,1,100,97.615
1572449250.896295,95328.000,16213,1,H0,1,100,97.619
1572449251.027768,95431.000,16231,1,H0,1,100,97.619
1572449251.160517,95535.000,16250,1,H0,1,100,97.611
1572449251.294543,95640.000,16284,1,H0,1,100,97.615
1572449251.428569,95745.000,16302,1,H0,1,100,97.615
1572449251.561318,95849.000,16320,1,H0,1,100,97.611
1572449251.697897,95956.000,16338,1,H0,1,100,97.615
1572449251.831923,96061.000,16356,1,H0,1,100,97.615
1572449251.963396,96164.000,16374,1,H0,1,100,97.615
1572449252.097422,96269.000,16393,1,H0,1,100,97.615
1572449252.232724,96375.000,16411,1,H0,1,100,97.607
1572449252.364197,96478.000,16429,1,H0,1,100,97.607
1572449252.498223,96583.000,16447,1,H0,1,100,97.611
1572449252.633525,96689.000,16465,1,H0,1,100,97.603
1572449252.764998,96792.000,16483,1,H0,1,100,97.600
1572449252.897747,96896.000,16501,1,H0,1,100,97.600
1572449253.030497,97000.000,16519,1,H0,1,100,97.596
1572449253.161970,97103.000,16538,1,H0,1,100,97.603
1572449253.293442,97206.000,16556,1,H0,1,100,97.603
1572449253.426192,97310.000,16574,1,H0,1,100,97.611
1572449253.560218,97415.000,16592,1,H0,1,100,97.600
1572449253.692967,97519.000,16610,1,H0,1,100,97.600
1572449253.826993,97624.000,16628,1,H0,1,100,97.603
1572449253.959743,97728.000,16646,1,H0,1,100,97.600
1572449254.093768,97833.000,16664,1,H0,1,100,97.588
1572449254.225241,97936.000,16682,1,H0,1,100,97.600
1572449254.357991,98040.000,16700,1,H0,1,100,97.592
1572449254.492017,98145.000,16718,1,H0,1,100,97.592
1572449254.626042,98250.000,16736,1,H0,1,100,97.596
1572449254.758792,98354.000,16754,1,H0,1,100,97.584
1572449254.895370,98461.000,16772,1,H0,1,100,97.580
1572449255.030673,98567.000,16806,1,H0,1,100,97.580
1572449255.162146,98670.000,16825,1,H0,1,100,97.584
1572449255.296171,98775.000,16843,1,H0,1,100,97.577
1572449255.431474,98881.000,16861,1,H0,1,100,97.580
1572449255.562947,98984.000,16879,1,H0,1,100,97.584
1572449255.696973,99089.000,16897,1,H0,1,100,97.580
1572449255.832275,99195.000,16915,1,H0,1,100,97.580
1572449255.965024,99299.000,16933,1,H0,1,100,97.569
1572449256.096497,99402.000,16951,1,H0,1,100,97.580
1572449256.229247,99506.000,16970,1,H0,1,100,97.577
1572449256.360720,99609.000,16988,1,H0,1,100,97.573
1572449256.493469,99713.000,17006,1,H0,1,100,97.561
1572449256.627495,99818.000,17027,2,H0,1,100,97.569
1572449256.761521,99923.000,17027,2,H0,1,100,97.565
1572449256.894270,100027.000,17046,1,H0,1,100,97.561
1572449257.028296,100132.000,17064,1,H0,1,100,97.573
1572449257.159769,100235.000,17082,1,H0,1,100,97.558
1572449257.293795,100340.000,17101,1,H0,1,100,97.569
1572449257.425268,100443.000,17119,1,H0,1,100,97.558
1572449257.558017,100547.000,17137,1,H0,1,100,97.569
1572449257.694596,100654.000,17155,1,H0,1,100,97.565
1572449257.828622,100759.000,17189,1,H0,1,100,97.558
1572449257.961371,100863.000,17207,1,H0,1,100,97.550
1572449258.095397,100968.000,17225,1,H0,1,100,97.565
1572449258.230699,101074.000,17244,1,H0,1,100,97.558
1572449258.362172,101177.000,17262,1,H0,1,100,97.558
1572449258.496198,101282.000,17280,1,H0,1,100,97.550
1572449258.631500,101388.000,17298,1,H0,1,100,97.561
1572449258.762973,101491.000,17316,1,H0,1,100,97.554
1572449258.896999,101596.000,17334,1,H0,1,100,97.546
1572449259.032301,101702.000,17352,1,H0,1,100,97.550
1572449259.162498,101804.000,17370,1,H0,1,100,97.550
1572449259.293971,101907.000,17389,1,H0,1,100,97.546
1572449259.426720,102011.000,17407,1,H0,1,100,97.542
1572449259.558193,102114.000,17425,1,H0,1,100,97.550
1572449259.690943,102218.000,17443,1,H0,1,100,97.546
1572449259.824968,102323.000,17461,1,H0,1,100,97.539
1572449259.958994,102428.000,17479,1,H0,1,100,97.542
1572449260.091743,102532.000,17497,1,H0,1,100,97.535
1572449260.223217,102635.000,17515,1,H0,1,100,97.535
1572449260.355966,102739.000,17534,1,H0,1,100,97.542
1572449260.489992,102844.000,17552,1,H0,1,100,97.535
1572449260.622741,102948.000,17570,1,H0,1,100,97.539
1572449260.755491,103052.000,17588,1,H0,1,100,97.531
1572449260.892069,103159.000,17605,1,H0,1,100,97.539
1572449261.026095,103264.000,17623,1,H0,1,100,97.539
1572449261.160121,103369.000,17641,1,H0,1,100,97.523
1572449261.292870,103473.000,17660,1,H0,1,100,97.535
1572449261.428173,103579.000,17678,1,H0,1,100,97.535
1572449261.559646,103682.000,17696,1,H0,1,100,97.539
1572449261.693671,103787.000,17714,1,H0,1,100,97.527
1572449261.828974,103893.000,17748,1,H0,1,100,97.535
1572449261.960447,103996.000,17766,1,H0,1,100,97.535
1572449262.094472,104101.000,17784,1,H0,1,100,97.535
1572449262.228498,104206.000,17803,1,H0,1,100,97.535
1572449262.359971,104309.000,17821,1,H0,1,100,97.527
1572449262.491444,104412.000,17839,1,H0,1,100,97.531
1572449262.624194,104516.000,17857,1,H0,1,100,97.527
1572449262.756943,104620.000,17875,1,H0,1,100,97.523
1572449262.889693,104724.000,17893,1,H0,1,100,97.527
1572449263.023718,104829.000,17911,1,H0,1,100,97.523
1572449263.157744,104934.000,17932,2,H0,1,100,97.527
1572449263.291770,105039.000,17932,2,H0,1,100,97.523
1572449263.423243,105142.000,17952,1,H0,1,100,97.519
1572449263.555992,105246.000,17971,1,H0,1,100,97.527
1572449263.690018,105351.000,17989,1,H0,1,100,97.523
1572449263.822767,105455.000,18007,1,H0,1,100,97.531
1572449263.955517,105559.000,18024,1,H0,1,100,97.523
1572449264.092096,105666.000,18042,1,H0,1,100,97.523
1572449264.226121,105771.000,18060,1,H0,1,100,97.504
1572449264.358871,105875.000,18079,1,H0,1,100,97.508
1572449264.492897,105980.000,18097,1,H0,1,100,97.500
1572449264.628199,106086.000,18115,1,H0,1,100,97.504
1572449264.759672,106189.000,18132,1,H0,1,100,97.493
1572449264.893698,106294.000,18167,1,H0,1,100,97.493
1572449265.029000,106400.000,18185,1,H0,1,100,97.497
1572449265.160473,106503.000,18203,1,H0,1,100,97.497
1572449265.294499,106608.000,18222,1,H0,1,100,97.489
1572449265.425972,106711.000,18240,1,H0,1,100,97.493
1572449265.557445,106814.000,18258,1,H0,1,100,97.485
1572449265.688918,106917.000,18276,1,H0,1,100,97.477
1572449265.821667,107021.000,18294,1,H0,1,100,97.493
1572449265.954417,107125.000,18312,1,H0,1,100,97.489
1572449266.087166,107229.000,18330,1,H0,1,100,97.489
1572449266.221192,107334.000,18348,1,H0,1,100,97.489
1572449266.355218,107439.000,18367,1,H0,1,100,97.481
1572449266.489244,107544.000,18385,1,H0,1,100,97.485
1572449266.620717,107647.000,18403,1,H0,1,100,97.481
1572449266.753466,107751.000,18421,1,H0,1,100,97.481
1572449266.887492,107856.000,18439,1,H0,1,100,97.481
1572449267.021518,107961.000,18457,1,H0,1,100,97.474
1572449267.154267,108065.000,18475,1,H0,1,100,97.466
1572449267.290846,108172.000,18493,1,H0,1,100,97.485
1572449267.426148,108278.000,18512,1,H0,1,100,97.474
1572449267.557621,108381.000,18530,1,H0,1,100,97.474
1572449267.691647,108486.000,18547,1,H0,1,100,97.466
1572449267.826949,108592.000,18565,1,H0,1,100,97.466
1572449267.958422,108695.000,18583,1,H0,1,100,97.470
1572449268.092448,108800.000,18601,1,H0,1,100,97.474
1572449268.227750,108906.000,18619,1,H0,1,100,97.462
1572449268.359223,109009.000,18637,1,H0,1,100,97.455
1572449268.493249,109114.000,18656,1,H0,1,100,97.462
1572449268.624722,109217.000,18673,1,H0,1,100,97.466
1572449268.756195,109320.000,18691,1,H0,1,100,97.477
1572449268.887668,109423.000,18725,1,H0,1,100,97.458
1572449269.020417,109527.000,18743,1,H0,1,100,97.470
1572449269.154443,109632.000,18761,1,H0,1,100,97.455
1572449269.287192,109736.000,18779,1,H0,1,100,97.462
1572449269.421218,109841.000,18798,1,H0,1,100,97.466
1572449269.552691,109944.000,18816,1,H0,1,100,97.447
1572449269.685441,110048.000,18837,2,H0,1,100,97.443
1572449269.818190,110152.000,18837,2,H0,1,100,97.447
1572449269.950939,110256.000,18856,1,H0,1,100,97.447
1572449270.084965,110361.000,18875,1,H0,1,100,97.447
1572449270.218991,110466.000,18893,1,H0,1,100,97.424
1572449270.351740,110570.000,18911,1,H0,1,100,97.428
1572449270.488319,110677.000,18930,1,H0,1,100,97.432
1572449270.622345,110782.000,18947,1,H0,1,100,97.428
1572449270.753818,110885.000,18965,1,H0,1,100,97.420
1572449270.887844,110990.000,18983,1,H0,1,100,97.420
1572449271.023146,111096.000,19001,1,H0,1,100,97.413
1572449271.154619,111199.000,19019,1,H0,1,100,97.420
1572449271.288645,111304.000,19037,1,H0,1,100,97.420
1572449271.423947,111410.000,19055,1,H0,1,100,97.413
1572449271.555420,111513.000,19074,1,H0,1,100,97.413
1572449271.686893,111616.000,19108,1,H0,1,100,97.409
1572449271.819643,111720.000,19126,1,H0,1,100,97.401
1572449271.951115,111823.000,19144,1,H0,1,100,97.401
1572449272.082588,111926.000,19162,1,H0,1,100,97.401
1572449272.216614,112031.000,19180,1,H0,1,100,97.401
1572449272.350640,112136.000,19198,1,H0,1,100,97.405
1572449272.483389,112240.000,19217,1,H0,1,100,97.394
1572449272.618692,112346.000,19235,1,H0,1,100,97.394
1572449272.750165,112449.000,19253,1,H0,1,100,97.394
1572449272.884191,112554.000,19271,1,H0,1,100,97.390
1572449273.015663,112657.000,19289,1,H0,1,100,97.390
1572449273.148413,112761.000,19307,1,H0,1,100,97.382
1572449273.283715,112867.000,19325,1,H0,1,100,97.386
1572449273.417741,112972.000,19343,1,H0,1,100,97.378
1572449273.550490,113076.000,19362,1,H0,1,100,97.382
1572449273.685793,113182.000,19380,1,H0,1,100,97.382
1572449273.821095,113288.000,19398,1,H0,1,100,97.371
1572449273.952568,113391.000,19416,1,H0,1,100,97.378
1572449274.086594,113496.000,19434,1,H0,1,100,97.367
1572449274.221896,113602.000,19452,1,H0,1,100,97.367
1572449274.353369,113705.000,19470,1,H0,1,100,97.374
1572449274.487395,113810.000,19488,1,H0,1,100,97.367
1572449274.622697,113916.000,19506,1,H0,1,100,97.359
1572449274.754170,114019.000,19524,1,H0,1,100,97.367
1572449274.885643,114122.000,19542,1,H0,1,100,97.359
1572449275.018392,114226.000,19560,1,H0,1,100,97.352
1572449275.149865,114329.000,19578,1,H0,1,100,97.355
1572449275.282615,114433.000,19596,1,H0,1,100,97.340
1572449275.416641,114538.000,19614,1,H0,1,100,97.352
1572449275.550667,114643.000,19633,1,H0,1,100,97.348
1572449275.683416,114747.000,19667,1,H0,1,100,97.344
1572449275.816165,114851.000,19685,1,H0,1,100,97.340
1572449275.948915,114955.000,19703,1,H0,1,100,97.336
1572449276.082941,115060.000,19721,1,H0,1,100,97.340
1572449276.215052,115163.500,19742,2,H0,1,100,97.333
1572449276.347163,115267.000,19742,2,H0,1,100,97.329
1572449276.483742,115374.000,19762,1,H0,1,100,97.333
1572449276.617767,115479.000,19781,1,H0,1,100,97.333
1572449276.750517,115583.000,19799,1,H0,1,100,97.325
1572449276.884543,115688.000,19817,1,H0,1,100,97.329
1572449277.019845,115794.000,19835,1,H0,1,100,97.325
1572449277.151318,115897.000,19853,1,H0,1,100,97.310
1572449277.285344,116002.000,19871,1,H0,1,100,97.317
1572449277.420646,116108.000,19889,1,H0,1,100,97.317
1572449277.552119,116211.000,19908,1,H0,1,100,97.313
1572449277.686145,116316.000,19925,1,H0,1,100,97.302
1572449277.820171,116421.000,19943,1,H0,1,100,97.302
1572449277.951644,116524.000,19961,1,H0,1,100,97.298
1572449278.083117,116627.000,19979,1,H0,1,100,97.302
1572449278.215866,116731.000,19997,1,H0,1,100,97.294
1572449278.347339,116834.000,20015,1,H0,1,100,97.294
1572449278.480088,116938.000,20033,1,H0,1,100,97.287
1572449278.614114,117043.000,20051,1,H0,1,100,97.291
1572449278.748140,117148.000,20086,1,H0,1,100,97.291
1572449278.883442,117254.000,20104,1,H0,1,100,97.287
1572449279.014915,117357.000,20122,1,H0,1,100,97.283
1572449279.147665,117461.000,20140,1,H0,1,100,97.279
1572449279.281690,117566.000,20158,1,H0,1,100,97.283
1572449279.414440,117670.000,20176,1,H0,1,100,97.283
1572449279.547189,117774.000,20195,1,H0,1,100,97.275
1572449279.683768,117881.000,20213,1,H0,1,100,97.279
1572449279.817794,117986.000,20231,1,H0,1,100,97.271
1572449279.951820,118091.000,20249,1,H0,1,100,97.268
1572449280.085845,118196.000,20267,1,H0,1,100,97.271
1572449280.221148,118302.000,20285,1,H0,1,100,97.268
1572449280.352621,118405.000,20303,1,H0,1,100,97.279
1572449280.486647,118510.000,20321,1,H0,1,100,97.271
1572449280.621949,118616.000,20340,1,H0,1,100,97.279
1572449280.753422,118719.000,20358,1,H0,1,100,97.275
1572449280.887448,118824.000,20376,1,H0,1,100,97.264
1572449281.020197,118928.000,20394,1,H0,1,100,97.264
1572449281.151670,119031.000,20412,1,H0,1,100,97.264
1572449281.283143,119134.000,20430,1,H0,1,100,97.268
1572449281.415892,119238.000,20448,1,H0,1,100,97.256
1572449281.547365,119341.000,20466,1,H0,1,100,97.252
1572449281.680115,119445.000,20484,1,H0,1,100,97.249
1572449281.814141,119550.000,20502,1,H0,1,100,97.249
1572449281.948166,119655.000,20520,1,H0,1,100,97.237
1572449282.082192,119760.000,20538,1,H0,1,100,97.245
1572449282.213665,119863.000,20556,1,H0,1,100,97.245
1572449282.346415,119967.000,20574,1,H0,1,100,97.252
1572449282.480440,120072.000,20592,1,H0,1,100,97.230
1572449282.613190,120176.000,20627,1,H0,1,100,97.237
1572449282.747854,120281.500,20648,2,H0,1,100,97.233
1572449282.882518,120387.000,20648,2,H0,1,100,97.233
1572449283.016544,120492.000,20667,1,H0,1,100,97.233
1572449283.148017,120595.000,20686,1,H0,1,100,97.230
1572449283.282043,120700.000,20704,1,H0,1,100,97.230
1572449283.417345,120806.000,20722,1,H0,1,100,97.230
1572449283.548818,120909.000,20740,1,H0,1,100,97.230
1572449283.682844,121014.000,20759,1,H0,1,100,97.241
1572449283.818146,121120.000,20777,1,H0,1,100,97.230
1572449283.949619,121223.000,20795,1,H0,1,100,97.226
1572449284.082368,121327.000,20813,1,H0,1,100,97.230
1572449284.213841,121430.000,20831,1,H0,1,100,97.230
1572449284.345314,121533.000,20849,1,H0,1,100,97.230
1572449284.476787,121636.000,20867,1,H0,1,100,97.230
1572449284.609537,121740.000,20885,1,H0,1,100,97.230
1572449284.743562,121845.000,20904,1,H0,1,100,97.226
1572449284.876312,121949.000,20921,1,H0,1,100,97.218
1572449285.010338,122054.000,20939,1,H0,1,100,97.222
1572449285.143087,122158.000,20957,1,H0,1,100,97.222
1572449285.277113,122263.000,20975,1,H0,1,100,97.218
1572449285.408586,122366.000,20993,1,H0,1,100,97.218
1572449285.541335,122470.000,21011,1,H0,1,100,97.226
1572449285.675361,122575.000,21029,1,H0,1,100,97.218
1572449285.809387,122680.000,21064,1,H0,1,100,97.222
1572449285.942136,122784.000,21082,1,H0,1,100,97.214
1572449286.078715,122891.000,21100,1,H0,1,100,97.203
1572449286.212741,122996.000,21118,1,H0,1,100,97.218
1572449286.344214,123099.000,21136,1,H0,1,100,97.218
1572449286.478240,123204.000,21154,1,H0,1,100,97.210
1572449286.613542,123310.000,21172,1,H0,1,100,97.218
1572449286.745015,123413.000,21191,1,H0,1,100,97.210
1572449286.879041,123518.000,21209,1,H0,1,100,97.210
1572449287.014343,123624.000,21227,1,H0,1,100,97.203
1572449287.145816,123727.000,21245,1,H0,1,100,97.207
1572449287.278565,123831.000,21263,1,H0,1,100,97.210
1572449287.411315,123935.000,21281,1,H0,1,100,97.199
1572449287.542788,124038.000,21299,1,H0,1,100,97.207
1572449287.674261,124141.000,21318,1,H0,1,100,97.207
1572449287.808286,124246.000,21336,1,H0,1,100,97.199
1572449287.942312,124351.000,21354,1,H0,1,100,97.210
1572449288.075062,124455.000,21372,1,H0,1,100,97.203
1572449288.209088,124560.000,21390,1,H0,1,100,97.207
1572449288.340560,124663.000,21408,1,H0,1,100,97.207
1572449288.474586,124768.000,21426,1,H0,1,100,97.203
1572449288.606059,124871.000,21444,1,H0,1,100,97.199
1572449288.738809,124975.000,21463,1,H0,1,100,97.191
1572449288.874111,125081.000,21480,1,H0,1,100,97.195
1572449289.008137,125186.000,21498,1,H0,1,100,97.188
1572449289.140886,125290.000,21516,1,H0,1,100,97.188
1572449289.276189,125396.000,21534,1,H0,1,100,97.195
1572449289.411491,125502.000,21555,1,H0,1,100,97.184
1572449289.542964,125605.000,21575,1,H0,1,100,97.184
1572449289.676990,125710.000,21594,1,H0,1,100,97.176
1572449289.812292,125816.000,21612,1,H0,1,100,97.172
1572449289.943765,125919.000,21630,1,H0,1,100,97.168
1572449290.077791,126024.000,21648,1,H0,1,100,97.180
1572449290.213093,126130.000,21666,1,H0,1,100,97.168
1572449290.344566,126233.000,21684,1,H0,1,100,97.168
1572449290.476039,126336.000,21702,1,H0,1,100,97.165
1572449290.608788,126440.000,21720,1,H0,1,100,97.165
1572449290.740261,126543.000,21739,1,H0,1,100,97.165
1572449290.873011,126647.000,21757,1,H0,1,100,97.161
1572449291.007036,126752.000,21775,1,H0,1,100,97.165
1572449291.141062,126857.000,21793,1,H0,1,100,97.168
1572449291.273812,126961.000,21811,1,H0,1,100,97.168
1572449291.407838,127066.000,21829,1,H0,1,100,97.161
1572449291.539310,127169.000,21847,1,H0,1,100,97.161
1572449291.673336,127274.000,21865,1,H0,1,100,97.161
1572449291.804809,127377.000,21883,1,H0,1,100,97.161
1572449291.937559,127481.000,21901,1,H0,1,100,97.157
1572449292.074137,127588.000,21919,1,H0,1,100,97.165
1572449292.208163,127693.000,21937,1,H0,1,100,97.157
1572449292.340913,127797.000,21955,1,H0,1,100,97.165
1572449292.476215,127903.000,21973,1,H0,1,100,97.161
1572449292.611517,128009.000,22007,1,H0,1,100,97.157
1572449292.742990,128112.000,22026,1,H0,1,100,97.149
1572449292.877016,128217.000,22044,1,H0,1,100,97.153
1572449293.012318,128323.000,22062,1,H0,1,100,97.153
1572449293.143791,128426.000,22080,1,H0,1,100,97.153
1572449293.277817,128531.000,22098,1,H0,1,100,97.153
1572449293.413119,128637.000,22116,1,H0,1,100,97.149
1572449293.544592,128740.000,22134,1,H0,1,100,97.146
1572449293.676065,128843.000,22152,1,H0,1,100,97.153
1572449293.808815,128947.000,22171,1,H0,1,100,97.153
1572449293.940288,129050.000,22189,1,H0,1,100,97.146
1572449294.073037,129154.000,22207,1,H0,1,100,97.138
1572449294.207063,129259.000,22225,1,H0,1,100,97.149
1572449294.341089,129364.000,22243,1,H0,1,100,97.138
1572449294.475115,129469.000,22261,1,H0,1,100,97.142
1572449294.606587,129572.000,22279,1,H0,1,100,97.142
1572449294.739337,129676.000,22297,1,H0,1,100,97.149
1572449294.873363,129781.000,22316,1,H0,1,100,97.138
1572449295.006112,129885.000,22334,1,H0,1,100,97.142
1572449295.138862,129989.000,22352,1,H0,1,100,97.134
1572449295.275440,130096.000,22370,1,H0,1,100,97.138
1572449295.409466,130201.000,22388,1,H0,1,100,97.142
1572449295.542216,130305.000,22406,1,H0,1,100,97.134
1572449295.676241,130410.000,22423,1,H0,1,100,97.142
1572449295.811544,130516.000,22441,1,H0,1,100,97.134
1572449295.943017,130619.000,22463,1,H0,1,100,97.127
1572449296.077042,130724.000,22482,1,H0,1,100,97.130
1572449296.212345,130830.000,22501,1,H0,1,100,97.134
1572449296.343818,130933.000,22519,1,H0,1,100,97.134
1572449296.477844,131038.000,22537,1,H0,1,100,97.127
1572449296.610593,131142.000,22555,1,H0,1,100,97.130
1572449296.742066,131245.000,22573,1,H0,1,100,97.127
1572449296.873539,131348.000,22592,1,H0,1,100,97.123
1572449297.006288,131452.000,22610,1,H0,1,100,97.123
1572449297.139038,131556.000,22628,1,H0,1,100,97.127
1572449297.271787,131660.000,22646,1,H0,1,100,97.127
1572449297.405813,131765.000,22664,1,H0,1,100,97.123
1572449297.539839,131870.000,22682,1,H0,1,100,97.127
1572449297.673865,131975.000,22700,1,H0,1,100,97.123
1572449297.805337,132078.000,22718,1,H0,1,100,97.123
1572449297.938087,132182.000,22737,1,H0,1,100,97.119
1572449298.072113,132287.000,22755,1,H0,1,100,97.119
1572449298.206139,132392.000,22773,1,H0,1,100,97.123
1572449298.338888,132496.000,22790,1,H0,1,100,97.111
1572449298.475467,132603.000,22808,1,H0,1,100,97.115
1572449298.609493,132708.000,22826,1,H0,1,100,97.115
1572449298.742242,132812.000,22844,1,H0,1,100,97.111
1572449298.876268,132917.000,22862,1,H0,1,100,97.111
1572449299.011570,133023.000,22881,1,H0,1,100,97.111
1572449299.143043,133126.000,22899,1,H0,1,100,97.111
1572449299.277069,133231.000,22933,1,H0,1,100,97.115
1572449299.412371,133337.000,22951,1,H0,1,100,97.111
1572449299.543844,133440.000,22969,1,H0,1,100,97.107
1572449299.677870,133545.000,22987,1,H0,1,100,97.100
1572449299.809343,133648.000,23005,1,H0,1,100,97.107
1572449299.939539,133750.000,23024,1,H0,1,100,97.100
1572449300.071012,133853.000,23042,1,H0,1,100,97.104
1572449300.203762,133957.000,23060,1,H0,1,100,97.096
1572449300.337788,134062.000,23078,1,H0,1,100,97.096
1572449300.470537,134166.000,23096,1,H0,1,100,97.100
1572449300.604563,134271.000,23114,1,H0,1,100,97.096
1572449300.737312,134375.000,23132,1,H0,1,100,97.104
1572449300.871338,134480.000,23151,1,H0,1,100,97.100
1572449301.002811,134583.000,23169,1,H0,1,100,97.096
1572449301.135560,134687.000,23187,1,H0,1,100,97.085
1572449301.269586,134792.000,23205,1,H0,1,100,97.088
1572449301.403612,134897.000,23223,1,H0,1,100,97.092
1572449301.536361,135001.000,23241,1,H0,1,100,97.081
1572449301.672940,135108.000,23259,1,H0,1,100,97.088
1572449301.806966,135213.000,23277,1,H0,1,100,97.088
1572449301.938439,135316.000,23296,1,H0,1,100,97.096
1572449302.072465,135421.000,23314,1,H0,1,100,97.088
1572449302.207767,135527.000,23331,1,H0,1,100,97.085
1572449302.339240,135630.000,23349,1,H0,1,100,97.085
1572449302.473266,135735.000,23370,1,H0,1,100,97.088
1572449302.608568,135841.000,23389,1,H0,1,100,97.088
1572449302.740041,135944.000,23408,1,H0,1,100,97.081
1572449302.872791,136048.000,23426,1,H0,1,100,97.085
1572449303.004263,136151.000,23445,1,H0,1,100,97.085
1572449303.135736,136254.000,23463,1,H0,1,100,97.081
1572449303.267209,136357.000,23481,1,H0,1,100,97.088
1572449303.399959,136461.000,23499,1,H0,1,100,97.081
1572449303.533985,136566.000,23517,1,H0,1,100,97.085
1572449303.666734,136670.000,23535,1,H0,1,100,97.073
1572449303.800760,136775.000,23553,1,H0,1,100,97.065
1572449303.933509,136879.000,23572,1,H0,1,100,97.069
1572449304.067535,136984.000,23590,1,H0,1,100,97.085
1572449304.199008,137087.000,23608,1,H0,1,100,97.081
1572449304.331758,137191.000,23626,1,H0,1,100,97.077
1572449304.465783,137296.000,23644,1,H0,1,100,97.073
1572449304.599809,137401.000,23662,1,H0,1,100,97.062
1572449304.732558,137505.000,23680,1,H0,1,100,97.065
1572449304.869137,137612.000,23698,1,H0,1,100,97.062
1572449305.003163,137717.000,23716,1,H0,1,100,97.062
1572449305.134636,137820.000,23734,1,H0,1,100,97.065
1572449305.268662,137925.000,23752,1,H0,1,100,97.065
1572449305.403964,138031.000,23770,1,H0,1,100,97.062
1572449305.535437,138134.000,23788,1,H0,1,100,97.065
1572449305.669463,138239.000,23806,1,H0,1,100,97.062
1572449305.804765,138345.000,23824,1,H0,1,100,97.054
1572449305.937515,138449.000,23841,1,H0,1,100,97.065
1572449306.068988,138552.000,23877,1,H0,1,100,97.062
1572449306.201737,138656.000,23895,1,H0,1,100,97.065
1572449306.333210,138759.000,23913,1,H0,1,100,97.062
1572449306.465959,138863.000,23931,1,H0,1,100,97.058
1572449306.599985,138968.000,23949,1,H0,1,100,97.062
1572449306.734011,139073.000,23967,1,H0,1,100,97.054
1572449306.866760,139177.000,23985,1,H0,1,100,97.046
1572449307.000786,139282.000,24004,1,H0,1,100,97.046
1572449307.132259,139385.000,24022,1,H0,1,100,97.050
1572449307.266285,139490.000,24040,1,H0,1,100,97.050
1572449307.397758,139593.000,24058,1,H0,1,100,97.054
1572449307.530507,139697.000,24076,1,H0,1,100,97.054
1572449307.667086,139804.000,24094,1,H0,1,100,97.043
1572449307.801112,139909.000,24112,1,H0,1,100,97.043
1572449307.933861,140013.000,24130,1,H0,1,100,97.039
1572449308.067887,140118.000,24149,1,H0,1,100,97.043
1572449308.203189,140224.000,24167,1,H0,1,100,97.039
1572449308.334662,140327.000,24185,1,H0,1,100,97.043
1572449308.468688,140432.000,24203,1,H0,1,100,97.043
1572449308.603991,140538.000,24221,1,H0,1,100,97.035
1572449308.735464,140641.000,24239,1,H0,1,100,97.031
1572449308.869489,140746.000,24256,1,H0,1,100,97.039
1572449309.004792,140852.000,24277,1,H0,1,100,97.035
1572449309.134988,140954.000,24297,1,H0,1,100,97.039
1572449309.266461,141057.000,24316,1,H0,1,100,97.039
1572449309.399210,141161.000,24334,1,H0,1,100,97.039
1572449309.530684,141264.000,24352,1,H0,1,100,97.039
1572449309.663433,141368.000,24370,1,H0,1,100,97.031
1572449309.797459,141473.000,24388,1,H0,1,100,97.031
1572449309.931484,141578.000,24406,1,H0,1,100,97.031
1572449310.064234,141682.000,24425,1,H0,1,100,97.035
1572449310.196983,141786.000,24443,1,H0,1,100,97.027
1572449310.329733,141890.000,24461,1,H0,1,100,97.024
1572449310.463759,141995.000,24479,1,H0,1,100,97.027
1572449310.596508,142099.000,24497,1,H0,1,100,97.024
1572449310.729257,142203.000,24515,1,H0,1,100,97.024
1572449310.865836,142310.000,24533,1,H0,1,100,97.016
1572449310.999862,142415.000,24551,1,H0,1,100,97.020
1572449311.133888,142520.000,24570,1,H0,1,100,97.027
1572449311.267914,142625.000,24588,1,H0,1,100,97.020
1572449311.403216,142731.000,24606,1,H0,1,100,97.012
1572449311.534689,142834.000,24624,1,H0,1,100,97.008
1572449311.668715,142939.000,24641,1,H0,1,100,97.004
1572449311.804017,143045.000,24659,1,H0,1,100,97.012
1572449311.935490,143148.000,24677,1,H0,1,100,97.012
1572449312.069516,143253.000,24695,1,H0,1,100,97.001
1572449312.203542,143358.000,24714,1,H0,1,100,97.008
1572449312.335015,143461.000,24732,1,H0,1,100,97.001
1572449312.466487,143564.000,24750,1,H0,1,100,97.004
1572449312.599237,143668.000,24768,1,H0,1,100,97.004
1572449312.731986,143772.000,24786,1,H0,1,100,97.004
1572449312.864736,143876.000,24820,1,H0,1,100,96.993
1572449312.998762,143981.000,24838,1,H0,1,100,97.004
1572449313.132787,144086.000,24857,1,H0,1,100,97.001
1572449313.266813,144191.000,24875,1,H0,1,100,96.997
1572449313.398286,144294.000,24893,1,H0,1,100,96.997
1572449313.531036,144398.000,24911,1,H0,1,100,96.997
1572449313.665061,144503.000,24929,1,H0,1,100,97.001
1572449313.799087,144608.000,24947,1,H0,1,100,96.989
1572449313.931837,144712.000,24965,1,H0,1,100,96.985
1572449314.068415,144819.000,24984,1,H0,1,100,96.989
1572449314.202441,144924.000,25002,1,H0,1,100,96.982
1572449314.335191,145028.000,25020,1,H0,1,100,96.982
1572449314.469216,145133.000,25038,1,H0,1,100,96.982
1572449314.604519,145239.000,25056,1,H0,1,100,96.974
1572449314.735992,145342.000,25074,1,H0,1,100,96.970
1572449314.870018,145447.000,25092,1,H0,1,100,96.985
1572449315.005320,145553.000,25110,1,H0,1,100,96.978
1572449315.136793,145656.000,25129,1,H0,1,100,96.974
1572449315.270818,145761.000,25147,1,H0,1,100,96.970
1572449315.402292,145864.000,25165,1,H0,1,100,96.970
1572449315.533765,145967.000,25186,1,H0,1,100,96.966
1572449315.665237,146070.000,25205,1,H0,1,100,96.962
1572449315.797987,146174.000,25224,1,H0,1,100,96.955
1572449315.930736,146278.000,25242,1,H0,1,100,96.955
1572449316.063486,146382.000,25260,1,H0,1,100,96.959
1572449316.197511,146487.000,25279,1,H0,1,100,96.955
1572449316.331537,146592.000,25297,1,H0,1,100,96.955
1572449316.465563,146697.000,25315,1,H0,1,100,96.951
1572449316.597036,146800.000,25333,1,H0,1,100,96.951
1572449316.729785,146904.000,25351,1,H0,1,100,96.947
1572449316.863811,147009.000,25369,1,H0,1,100,96.951
1572449316.997837,147114.000,25387,1,H0,1,100,96.951
1572449317.130587,147218.000,25406,1,H0,1,100,96.936
1572449317.267165,147325.000,25424,1,H0,1,100,96.940
1572449317.402467,147431.000,25442,1,H0,1,100,96.943
1572449317.533941,147534.000,25460,1,H0,1,100,96.943
1572449317.667966,147639.000,25478,1,H0,1,100,96.943
1572449317.803269,147745.000,25496,1,H0,1,100,96.936
1572449317.934742,147848.000,25514,1,H0,1,100,96.936
1572449318.068768,147953.000,25532,1,H0,1,100,96.932
1572449318.204070,148059.000,25550,1,H0,1,100,96.936
1572449318.335543,148162.000,25568,1,H0,1,100,96.932
1572449318.469568,148267.000,25586,1,H0,1,100,96.932
1572449318.601042,148370.000,25604,1,H0,1,100,96.921
1572449318.732514,148473.000,25622,1,H0,1,100,96.924
1572449318.863987,148576.000,25640,1,H0,1,100,96.921
1572449318.996737,148680.000,25658,1,H0,1,100,96.921
1572449319.130763,148785.000,25676,1,H0,1,100,96.917
1572449319.263512,148889.000,25695,1,H0,1,100,96.913
1572449319.397538,148994.000,25729,1,H0,1,100,96.913
1572449319.529011,149097.000,25747,1,H0,1,100,96.917
1572449319.663037,149202.000,25765,1,H0,1,100,96.909
1572449319.794510,149305.000,25783,1,H0,1,100,96.913
1572449319.927259,149409.000,25801,1,H0,1,100,96.905
1572449320.061285,149514.000,25819,1,H0,1,100,96.901
1572449320.194034,149618.000,25838,1,H0,1,100,96.909
1572449320.326784,149722.000,25856,1,H0,1,100,96.898
1572449320.463362,149829.000,25874,1,H0,1,100,96.898
1572449320.597388,149934.000,25892,1,H0,1,100,96.898
1572449320.728861,150037.000,25910,1,H0,1,100,96.898
1572449320.862887,150142.000,25928,1,H0,1,100,96.890
1572449320.998189,150248.000,25946,1,H0,1,100,96.890
1572449321.129662,150351.000,25964,1,H0,1,100,96.886
1572449321.263688,150456.000,25983,1,H0,1,100,96.882
1572449321.398990,150562.000,26001,1,H0,1,100,96.879
1572449321.530463,150665.000,26019,1,H0,1,100,96.898
1572449321.661936,150768.000,26037,1,H0,1,100,96.875
1572449321.794686,150872.000,26055,1,H0,1,100,96.879
1572449321.926159,150975.000,26073,1,H0,1,100,96.890
1572449322.058908,151079.000,26094,2,H0,1,100,96.867
1572449322.191658,151183.000,26094,2,H0,1,100,96.867
1572449322.325683,151288.000,26114,1,H0,1,100,96.875
1572449322.458433,151392.000,26149,1,H0,1,100,96.871
1572449322.593735,151498.000,26167,1,H0,1,100,96.867
1572449322.725208,151601.000,26185,1,H0,1,100,96.867
1572449322.859234,151706.000,26203,1,H0,1,100,96.859
1572449322.990707,151809.000,26221,1,H0,1,100,96.856
1572449323.123456,151913.000,26239,1,H0,1,100,96.863
1572449323.258759,152019.000,26258,1,H0,1,100,96.856
1572449323.392784,152124.000,26276,1,H0,1,100,96.863
1572449323.525534,152228.000,26294,1,H0,1,100,96.867
1572449323.660836,152334.000,26312,1,H0,1,100,96.859
1572449323.796138,152440.000,26330,1,H0,1,100,96.852
1572449323.927611,152543.000,26348,1,H0,1,100,96.848
1572449324.061637,152648.000,26366,1,H0,1,100,96.844
1572449324.196939,152754.000,26384,1,H0,1,100,96.833
1572449324.328412,152857.000,26403,1,H0,1,100,96.844
1572449324.462438,152962.000,26421,1,H0,1,100,96.837
1572449324.597740,153068.000,26439,1,H0,1,100,96.829
1572449324.729213,153171.000,26457,1,H0,1,100,96.825
1572449324.860686,153274.000,26475,1,H0,1,100,96.821
1572449324.993436,153378.000,26493,1,H0,1,100,96.837
1572449325.124909,153481.000,26511,1,H0,1,100,96.818
1572449325.256382,153584.000,26528,1,H0,1,100,96.810
1572449325.390407,153689.000,26547,1,H0,1,100,96.818
1572449325.524433,153794.000,26565,1,H0,1,100,96.810
1572449325.657183,153898.000,26583,1,H0,1,100,96.814
1572449325.789932,154002.000,26601,1,H0,1,100,96.821
1572449325.922682,154106.000,26619,1,H0,1,100,96.810
1572449326.056707,154211.000,26637,1,H0,1,100,96.802
1572449326.188180,154314.000,26655,1,H0,1,100,96.806
1572449326.320930,154418.000,26672,1,H0,1,100,96.795
1572449326.457508,154525.000,26708,1,H0,1,100,96.795
1572449326.591534,154630.000,26726,1,H0,1,100,96.798
1572449326.724284,154734.000,26744,1,H0,1,100,96.791
1572449326.858310,154839.000,26762,1,H0,1,100,96.791
1572449326.993612,154945.000,26780,1,H0,1,100,96.787
1572449327.125085,155048.000,26798,1,H0,1,100,96.791
1572449327.259110,155153.000,26816,1,H0,1,100,96.779
1572449327.394413,155259.000,26835,1,H0,1,100,96.776
1572449327.525886,155362.000,26853,1,H0,1,100,96.776
1572449327.659912,155467.000,26871,1,H0,1,100,96.768
1572449327.793937,155572.000,26889,1,H0,1,100,96.776
1572449327.925411,155675.000,26907,1,H0,1,100,96.764
1572449328.056883,155778.000,26925,1,H0,1,100,96.757
1572449328.189633,155882.000,26943,1,H0,1,100,96.760
1572449328.321106,155985.000,26962,1,H0,1,100,96.745
1572449328.453855,156089.000,26980,1,H0,1,100,96.764
1572449328.587881,156194.000,27001,2,H0,1,100,96.757
1572449328.721907,156299.000,27001,2,H0,1,100,96.753
1572449328.857209,156405.000,27020,1,H0,1,100,96.741
1572449328.988682,156508.000,27039,1,H0,1,100,96.745
1572449329.121431,156612.000,27057,1,H0,1,100,96.722
1572449329.255457,156717.000,27075,1,H0,1,100,96.726
1572449329.388207,156821.000,27110,1,H0,1,100,96.734
1572449329.520956,156925.000,27128,1,H0,1,100,96.734
1572449329.657535,157032.000,27146,1,H0,1,100,96.726
1572449329.791561,157137.000,27164,1,H0,1,100,96.715
1572449329.924310,157241.000,27182,1,H0,1,100,96.718
1572449330.058336,157346.000,27200,1,H0,1,100,96.711
1572449330.192362,157451.000,27218,1,H0,1,100,96.711
1572449330.322558,157553.000,27237,1,H0,1,100,96.707
1572449330.456584,157658.000,27255,1,H0,1,100,96.695
1572449330.593163,157765.000,27273,1,H0,1,100,96.695
1572449330.725912,157869.000,27291,1,H0,1,100,96.688
1572449330.859938,157974.000,27309,1,H0,1,100,96.699
1572449330.993964,158079.000,27327,1,H0,1,100,96.692
1572449331.125437,158182.000,27345,1,H0,1,100,96.680
1572449331.256910,158285.000,27363,1,H0,1,100,96.684
1572449331.389659,158389.000,27382,1,H0,1,100,96.684
1572449331.522408,158493.000,27400,1,H0,1,100,96.669
1572449331.655158,158597.000,27418,1,H0,1,100,96.665
1572449331.789184,158702.000,27436,1,H0,1,100,96.665
1572449331.923210,158807.000,27454,1,H0,1,100,96.676
1572449332.057235,158912.000,27472,1,H0,1,100,96.669
1572449332.188709,159015.000,27490,1,H0,1,100,96.665
1572449332.321458,159119.000,27508,1,H0,1,100,96.661
1572449332.455484,159224.000,27526,1,H0,1,100,96.650
1572449332.589509,159329.000,27544,1,H0,1,100,96.650
1572449332.722259,159433.000,27562,1,H0,1,100,96.650
1572449332.858838,159540.000,27580,1,H0,1,100,96.642
1572449332.992863,159645.000,27598,1,H0,1,100,96.642
1572449333.123060,159747.000,27616,1,H0,1,100,96.638
1572449333.257086,159852.000,27650,1,H0,1,100,96.642
1572449333.391112,159957.000,27669,1,H0,1,100,96.642
1572449333.522585,160060.000,27687,1,H0,1,100,96.638
1572449333.656610,160165.000,27705,1,H0,1,100,96.627
1572449333.793189,160272.000,27723,1,H0,1,100,96.623
1572449333.925939,160376.000,27741,1,H0,1,100,96.612
1572449334.058688,160480.000,27759,1,H0,1,100,96.615
1572449334.191437,160584.000,27777,1,H0,1,100,96.612
1572449334.322910,160687.000,27795,1,H0,1,100,96.619
1572449334.454383,160790.000,27814,1,H0,1,100,96.608
1572449334.587133,160894.000,27832,1,H0,1,100,96.608
1572449334.721159,160999.000,27850,1,H0,1,100,96.596
1572449334.853908,161103.000,27868,1,H0,1,100,96.592
1572449334.987934,161208.000,27886,1,H0,1,100,96.592
1572449335.121321,161312.500,27907,2,H0,1,100,96.581
1572449335.254709,161417.000,27907,2,H0,1,100,96.581
1572449335.386182,161520.000,27926,1,H0,1,100,96.581
1572449335.518931,161624.000,27946,1,H0,1,100,96.577
1572449335.652957,161729.000,27964,1,H0,1,100,96.573
1572449335.786983,161834.000,27982,1,H0,1,100,96.570
1572449335.919732,161938.000,28000,1,H0,1,100,96.554
1572449336.056311,162045.000,28034,1,H0,1,100,96.566
1572449336.190337,162150.000,28052,1,H0,1,100,96.562
1572449336.320534,162252.000,28070,1,H0,1,100,96.562
1572449336.454559,162357.000,28089,1,H0,1,100,96.558
1572449336.588585,162462.000,28107,1,H0,1,100,96.554
1572449336.721334,162566.000,28125,1,H0,1,100,96.554
1572449336.855361,162671.000,28143,1,H0,1,100,96.551
1572449336.991939,162778.000,28161,1,H0,1,100,96.543
1572449337.124689,162882.000,28179,1,H0,1,100,96.539
1572449337.257438,162986.000,28197,1,H0,1,100,96.535
1572449337.390187,163090.000,28215,1,H0,1,100,96.535
1572449337.521660,163193.000,28234,1,H0,1,100,96.528
1572449337.653133,163296.000,28252,1,H0,1,100,96.528
1572449337.787159,163401.000,28270,1,H0,1,100,96.524
1572449337.921185,163506.000,28288,1,H0,1,100,96.524
1572449338.053934,163610.000,28306,1,H0,1,100,96.509
1572449338.189237,163716.000,28324,1,H0,1,100,96.520
1572449338.320709,163819.000,28342,1,H0,1,100,96.509
1572449338.454735,163924.000,28360,1,H0,1,100,96.509
1572449338.586208,164027.000,28379,1,H0,1,100,96.501
1572449338.718958,164131.000,28397,1,H0,1,100,96.505
1572449338.852983,164236.000,28415,1,H0,1,100,96.501
1572449338.987010,164341.000,28432,1,H0,1,100,96.493
1572449339.119759,164445.000,28450,1,H0,1,100,96.493
1572449339.255061,164551.000,28468,1,H0,1,100,96.489
1572449339.389087,164656.000,28486,1,H0,1,100,96.493
1572449339.519284,164758.000,28504,1,H0,1,100,96.493
1572449339.653309,164863.000,28523,1,H0,1,100,96.489
1572449339.787335,164968.000,28541,1,H0,1,100,96.482
1572449339.920084,165072.000,28559,1,H0,1,100,96.478
1572449340.054110,165177.000,28593,1,H0,1,100,96.474
1572449340.190689,165284.000,28611,1,H0,1,100,96.467
1572449340.322162,165387.000,28629,1,H0,1,100,96.467
1572449340.453635,165490.000,28647,1,H0,1,100,96.470
1572449340.586384,165594.000,28666,1,H0,1,100,96.459
1572449340.717857,165697.000,28684,1,H0,1,100,96.459
1572449340.850607,165801.000,28702,1,H0,1,100,96.451
1572449340.984632,165906.000,28720,1,H0,1,100,96.448
1572449341.118659,166011.000,28738,1,H0,1,100,96.448
1572449341.251408,166115.000,28756,1,H0,1,100,96.440
1572449341.385434,166220.000,28774,1,H0,1,100,96.436
1572449341.516907,166323.000,28793,1,H0,1,100,96.432
1572449341.649656,166427.000,28814,2,H0,1,100,96.436
1572449341.782405,166531.000,28814,2,H0,1,100,96.432
1572449341.915155,166635.000,28833,1,H0,1,100,96.428
1572449342.051733,166742.000,28851,1,H0,1,100,96.428
1572449342.185759,166847.000,28869,1,H0,1,100,96.428
1572449342.318509,166951.000,28887,1,H0,1,100,96.421
1572449342.453811,167057.000,28905,1,H0,1,100,96.421
1572449342.587837,167162.000,28923,1,H0,1,100,96.409
1572449342.718033,167264.000,28942,1,H0,1,100,96.413
1572449342.852059,167369.000,28976,1,H0,1,100,96.409
1572449342.986085,167474.000,28994,1,H0,1,100,96.406
1572449343.118834,167578.000,29012,1,H0,1,100,96.402
1572449343.252860,167683.000,29030,1,H0,1,100,96.402
1572449343.389439,167790.000,29048,1,H0,1,100,96.394
1572449343.520912,167893.000,29067,1,H0,1,100,96.402
1572449343.652385,167996.000,29085,1,H0,1,100,96.394
1572449343.785134,168100.000,29103,1,H0,1,100,96.386
1572449343.916607,168203.000,29121,1,H0,1,100,96.386
1572449344.049357,168307.000,29139,1,H0,1,100,96.383
1572449344.183383,168412.000,29157,1,H0,1,100,96.375
1572449344.317408,168517.000,29175,1,H0,1,100,96.379
1572449344.450158,168621.000,29193,1,H0,1,100,96.371
1572449344.581631,168724.000,29212,1,H0,1,100,96.364
1572449344.714380,168828.000,29230,1,H0,1,100,96.367
1572449344.848406,168933.000,29248,1,H0,1,100,96.360
1572449344.981155,169037.000,29266,1,H0,1,100,96.367
1572449345.113905,169141.000,29284,1,H0,1,100,96.360
1572449345.250484,169248.000,29302,1,H0,1,100,96.352
1572449345.384509,169353.000,29320,1,H0,1,100,96.360
1572449345.517259,169457.000,29338,1,H0,1,100,96.360
1572449345.651284,169562.000,29357,1,H0,1,100,96.348
1572449345.785311,169667.000,29374,1,H0,1,100,96.352
1572449345.915507,169769.000,29392,1,H0,1,100,96.352
1572449346.049533,169874.000,29410,1,H0,1,100,96.333
1572449346.184835,169980.000,29428,1,H0,1,100,96.341
1572449346.317585,170084.000,29446,1,H0,1,100,96.333
1572449346.451610,170189.000,29464,1,H0,1,100,96.329
1572449346.585636,170294.000,29482,1,H0,1,100,96.341
1572449346.717109,170397.000,29501,1,H0,1,100,96.325
1572449346.848582,170500.000,29518,1,H0,1,100,96.325
1572449346.981331,170604.000,29553,1,H0,1,100,96.325
1572449347.114081,170708.000,29571,1,H0,1,100,96.310
1572449347.246830,170812.000,29589,1,H0,1,100,96.306
1572449347.380856,170917.000,29607,1,H0,1,100,96.318
1572449347.514882,171022.000,29625,1,H0,1,100,96.314
1572449347.647631,171126.000,29644,1,H0,1,100,96.303
1572449347.779104,171229.000,29662,1,H0,1,100,96.299
1572449347.911854,171333.000,29680,1,H0,1,100,96.303
1572449348.045880,171438.000,29698,1,H0,1,100,96.291
1572449348.179267,171542.500,29719,2,H0,1,100,96.299
1572449348.312655,171647.000,29719,2,H0,1,100,96.291
1572449348.449234,171754.000,29738,1,H0,1,100,96.287
1572449348.583259,171859.000,29756,1,H0,1,100,96.283
1572449348.714732,171962.000,29775,1,H0,1,100,96.272
1572449348.848758,172067.000,29793,1,H0,1,100,96.283
1572449348.982784,172172.000,29811,1,H0,1,100,96.283
1572449349.114257,172275.000,29829,1,H0,1,100,96.264
1572449349.248283,172380.000,29847,1,H0,1,100,96.272
1572449349.384861,172487.000,29865,1,H0,1,100,96.276
1572449349.517611,172591.000,29899,1,H0,1,100,96.276
1572449349.651637,172696.000,29918,1,H0,1,100,96.264
1572449349.784386,172800.000,29936,1,H0,1,100,96.261
1572449349.915859,172903.000,29954,1,H0,1,100,96.261
1572449350.047332,173006.000,29972,1,H0,1,100,96.264
1572449350.180081,173110.000,29990,1,H0,1,100,96.253
1572449350.314107,173215.000,30008,1,H0,1,100,96.249
1572449350.446857,173319.000,30026,1,H0,1,100,96.245
1572449350.580883,173424.000,30044,1,H0,1,100,96.249
1572449350.713632,173528.000,30063,1,H0,1,100,96.245
1572449350.847658,173633.000,30081,1,H0,1,100,96.242
1572449350.979131,173736.000,30099,1,H0,1,100,96.234
1572449351.111880,173840.000,30117,1,H0,1,100,96.242
1572449351.245906,173945.000,30135,1,H0,1,100,96.245
1572449351.379932,174050.000,30153,1,H0,1,100,96.242
1572449351.512681,174154.000,30171,1,H0,1,100,96.222
1572449351.649260,174261.000,30189,1,H0,1,100,96.226
1572449351.783286,174366.000,30208,1,H0,1,100,96.219
1572449351.913482,174468.000,30226,1,H0,1,100,96.219
1572449352.047508,174573.000,30244,1,H0,1,100,96.222
1572449352.181534,174678.000,30262,1,H0,1,100,96.226
1572449352.313007,174781.000,30280,1,H0,1,100,96.215
1572449352.447033,174886.000,30297,1,H0,1,100,96.211
1572449352.583611,174993.000,30315,1,H0,1,100,96.219
1572449352.716361,175097.000,30333,1,H0,1,100,96.207
1572449352.849110,175201.000,30352,1,H0,1,100,96.203
1572449352.981860,175305.000,30370,1,H0,1,100,96.203
1572449353.113333,175408.000,30388,1,H0,1,100,96.203
1572449353.244806,175511.000,30406,1,H0,1,100,96.200
1572449353.377555,175615.000,30424,1,H0,1,100,96.196
1572449353.511581,175720.000,30442,1,H0,1,100,96.188
1572449353.644330,175824.000,30476,1,H0,1,100,96.192
1572449353.778356,175929.000,30495,1,H0,1,100,96.184
1572449353.911105,176033.000,30513,1,H0,1,100,96.192
1572449354.045131,176138.000,30531,1,H0,1,100,96.184
1572449354.176604,176241.000,30549,1,H0,1,100,96.184
1572449354.309354,176345.000,30567,1,H0,1,100,96.188
1572449354.443379,176450.000,30585,1,H0,1,100,96.180
1572449354.577405,176555.000,30603,1,H0,1,100,96.173
1572449354.712069,176660.500,30625,2,H0,1,100,96.173
1572449354.846733,176766.000,30625,2,H0,1,100,96.173
1572449354.980759,176871.000,30645,1,H0,1,100,96.165
1572449355.110956,176973.000,30663,1,H0,1,100,96.173
1572449355.244982,177078.000,30680,1,H0,1,100,96.169
1572449355.379007,177183.000,30698,1,H0,1,100,96.165
1572449355.511757,177287.000,30716,1,H0,1,100,96.150
1572449355.645783,177392.000,30734,1,H0,1,100,96.150
1572449355.782361,177499.000,30752,1,H0,1,100,96.150
1572449355.915111,177603.000,30771,1,H0,1,100,96.154
1572449356.046584,177706.000,30789,1,H0,1,100,96.139
1572449356.179333,177810.000,30823,1,H0,1,100,96.146
1572449356.310806,177913.000,30841,1,H0,1,100,96.139
1572449356.443556,178017.000,30859,1,H0,1,100,96.139
1572449356.577581,178122.000,30877,1,H0,1,100,96.135
1572449356.711607,178227.000,30895,1,H0,1,100,96.142
1572449356.844357,178331.000,30914,1,H0,1,100,96.127
1572449356.978382,178436.000,30932,1,H0,1,100,96.123
1572449357.109855,178539.000,30950,1,H0,1,100,96.127
1572449357.243881,178644.000,30968,1,H0,1,100,96.123
1572449357.375354,178747.000,30986,1,H0,1,100,96.116
1572449357.508104,178851.000,31004,1,H0,1,100,96.123
1572449357.644682,178958.000,31022,1,H0,1,100,96.119
1572449357.778708,179063.000,31041,1,H0,1,100,96.116
1572449357.911458,179167.000,31059,1,H0,1,100,96.112
1572449358.045483,179272.000,31077,1,H0,1,100,96.097
1572449358.179509,179377.000,31095,1,H0,1,100,96.112
1572449358.309706,179479.000,31113,1,H0,1,100,96.104
1572449358.443732,179584.000,31131,1,H0,1,100,96.100
1572449358.577757,179689.000,31149,1,H0,1,100,96.100
1572449358.710507,179793.000,31167,1,H0,1,100,96.093
1572449358.844532,179898.000,31186,1,H0,1,100,96.089
1572449358.981111,180005.000,31204,1,H0,1,100,96.089
1572449359.111308,180107.000,31222,1,H0,1,100,96.077
1572449359.242781,180210.000,31239,1,H0,1,100,96.081
1572449359.375530,180314.000,31257,1,H0,1,100,96.077
1572449359.507003,180417.000,31275,1,H0,1,100,96.077
1572449359.639753,180521.000,31293,1,H0,1,100,96.074
1572449359.773778,180626.000,31311,1,H0,1,100,96.066
1572449359.907804,180731.000,31330,1,H0,1,100,96.066
1572449360.040554,180835.000,31348,1,H0,1,100,96.066
1572449360.173303,180939.000,31366,1,H0,1,100,96.058
1572449360.306052,181043.000,31400,1,H0,1,100,96.062
1572449360.440078,181148.000,31418,1,H0,1,100,96.058
1572449360.572828,181252.000,31436,1,H0,1,100,96.055
1572449360.705577,181356.000,31454,1,H0,1,100,96.051
1572449360.842156,181463.000,31473,1,H0,1,100,96.055
1572449360.976182,181568.000,31491,1,H0,1,100,96.047
1572449361.110208,181673.000,31509,1,H0,1,100,96.043
1572449361.244233,181778.000,31530,2,H0,1,100,96.047
1572449361.378259,181883.000,31530,2,H0,1,100,96.043
1572449361.508456,181985.000,31549,1,H0,1,100,96.036
1572449361.642482,182090.000,31568,1,H0,1,100,96.036
1572449361.777784,182196.000,31585,1,H0,1,100,96.028
1572449361.910533,182300.000,31604,1,H0,1,100,96.020
1572449362.044559,182405.000,31622,1,H0,1,100,96.024
1572449362.179861,182511.000,31640,1,H0,1,100,96.020
1572449362.311334,182614.000,31658,1,H0,1,100,96.016
1572449362.442807,182717.000,31676,1,H0,1,100,96.016
1572449362.575557,182821.000,31694,1,H0,1,100,96.005
1572449362.708306,182925.000,31712,1,H0,1,100,96.009
1572449362.841055,183029.000,31747,1,H0,1,100,95.997
1572449362.975081,183134.000,31765,1,H0,1,100,95.997
1572449363.109107,183239.000,31783,1,H0,1,100,96.001
1572449363.243133,183344.000,31801,1,H0,1,100,95.994
1572449363.374606,183447.000,31819,1,H0,1,100,95.994
1572449363.507355,183551.000,31837,1,H0,1,100,95.997
1572449363.641381,183656.000,31855,1,H0,1,100,95.986
1572449363.775407,183761.000,31873,1,H0,1,100,95.994
1572449363.908156,183865.000,31892,1,H0,1,100,95.994
1572449364.044735,183972.000,31910,1,H0,1,100,95.990
1572449364.178761,184077.000,31928,1,H0,1,100,95.978
1572449364.310234,184180.000,31946,1,H0,1,100,95.978
1572449364.444260,184285.000,31964,1,H0,1,100,95.978
1572449364.578285,184390.000,31982,1,H0,1,100,95.978
1572449364.708482,184492.000,32000,1,H0,1,100,95.971
1572449364.842508,184597.000,32018,1,H0,1,100,95.963
1572449364.977810,184703.000,32037,1,H0,1,100,95.959
1572449365.110559,184807.000,32055,1,H0,1,100,95.967
1572449365.244586,184912.000,32073,1,H0,1,100,95.959
1572449365.377335,185016.000,32091,1,H0,1,100,95.952
1572449365.508808,185119.000,32109,1,H0,1,100,95.955
1572449365.640281,185222.000,32127,1,H0,1,100,95.959
1572449365.773030,185326.000,32144,1,H0,1,100,95.948
1572449365.907056,185431.000,32162,1,H0,1,100,95.952
1572449366.039805,185535.000,32181,1,H0,1,100,95.940
1572449366.173831,185640.000,32199,1,H0,1,100,95.940
1572449366.307857,185745.000,32217,1,H0,1,100,95.936
1572449366.441883,185850.000,32235,1,H0,1,100,95.933
1572449366.573356,185953.000,32253,1,H0,1,100,95.936
1572449366.706105,186057.000,32271,1,H0,1,100,95.929
1572449366.840131,186162.000,32305,1,H0,1,100,95.933
1572449366.974157,186267.000,32324,1,H0,1,100,95.929
1572449367.106906,186371.000,32342,1,H0,1,100,95.929
1572449367.243485,186478.000,32360,1,H0,1,100,95.925
1572449367.378787,186584.000,32378,1,H0,1,100,95.921
1572449367.508984,186686.000,32396,1,H0,1,100,95.921
1572449367.643010,186791.000,32414,1,H0,1,100,95.913
1572449367.775759,186895.000,32435,2,H0,1,100,95.921
1572449367.908509,186999.000,32435,2,H0,1,100,95.910
1572449368.042534,187104.000,32455,1,H0,1,100,95.913
1572449368.179113,187211.000,32474,1,H0,1,100,95.913
1572449368.311862,187315.000,32491,1,H0,1,100,95.913
1572449368.445888,187420.000,32509,1,H0,1,100,95.906
1572449368.578638,187524.000,32527,1,H0,1,100,95.902
1572449368.710111,187627.000,32545,1,H0,1,100,95.902
1572449368.841583,187730.000,32563,1,H0,1,100,95.898
1572449368.974333,187834.000,32581,1,H0,1,100,95.894
1572449369.108359,187939.000,32600,1,H0,1,100,95.898
1572449369.241108,188043.000,32618,1,H0,1,100,95.883
1572449369.375134,188148.000,32636,1,H0,1,100,95.894
1572449369.506607,188251.000,32653,1,H0,1,100,95.883
1572449369.640633,188356.000,32688,1,H0,1,100,95.883
1572449369.772106,188459.000,32706,1,H0,1,100,95.883
1572449369.904855,188563.000,32724,1,H0,1,100,95.883
1572449370.038881,188668.000,32743,1,H0,1,100,95.871
1572449370.172907,188773.000,32761,1,H0,1,100,95.875
1572449370.305656,188877.000,32779,1,H0,1,100,95.879
1572449370.442235,188984.000,32797,1,H0,1,100,95.883
1572449370.576261,189089.000,32815,1,H0,1,100,95.875
1572449370.706457,189191.000,32833,1,H0,1,100,95.868
1572449370.840483,189296.000,32851,1,H0,1,100,95.868
1572449370.974509,189401.000,32869,1,H0,1,100,95.875
1572449371.107258,189505.000,32888,1,H0,1,100,95.864
1572449371.241284,189610.000,32906,1,H0,1,100,95.864
1572449371.377863,189717.000,32924,1,H0,1,100,95.856
1572449371.510612,189821.000,32942,1,H0,1,100,95.864
1572449371.642085,189924.000,32960,1,H0,1,100,95.860
1572449371.774835,190028.000,32978,1,H0,1,100,95.860
1572449371.906308,190131.000,32996,1,H0,1,100,95.849
1572449372.037781,190234.000,33015,1,H0,1,100,95.856
1572449372.171807,190339.000,33033,1,H0,1,100,95.856
1572449372.305832,190444.000,33051,1,H0,1,100,95.852
1572449372.438582,190548.000,33069,1,H0,1,100,95.849
1572449372.572608,190653.000,33086,1,H0,1,100,95.845
1572449372.704081,190756.000,33104,1,H0,1,100,95.841
1572449372.838106,190861.000,33122,1,H0,1,100,95.845
1572449372.969579,190964.000,33140,1,H0,1,100,95.837
1572449373.102329,191068.000,33159,1,H0,1,100,95.833
1572449373.237631,191174.000,33177,1,H0,1,100,95.841
1572449373.371657,191279.000,33195,1,H0,1,100,95.833
1572449373.504406,191383.000,33212,1,H0,1,100,95.837
1572449373.639709,191489.000,33247,1,H0,1,100,95.830
1572449373.773734,191594.000,33265,1,H0,1,100,95.833
1572449373.903931,191696.000,33283,1,H0,1,100,95.830
1572449374.037957,191801.000,33302,1,H0,1,100,95.826
1572449374.171983,191906.000,33320,1,H0,1,100,95.822
1572449374.305370,192010.500,33341,2,H0,1,100,95.826
1572449374.438758,192115.000,33341,2,H0,1,100,95.818
1572449374.575336,192222.000,33360,1,H0,1,100,95.822
1572449374.706810,192325.000,33379,1,H0,1,100,95.826
1572449374.838282,192428.000,33397,1,H0,1,100,95.814
1572449374.971032,192532.000,33415,1,H0,1,100,95.814
1572449375.102505,192635.000,33434,1,H0,1,100,95.803
1572449375.235254,192739.000,33452,1,H0,1,100,95.803
1572449375.369280,192844.000,33470,1,H0,1,100,95.807
1572449375.503306,192949.000,33487,1,H0,1,100,95.807
1572449375.636055,193053.000,33505,1,H0,1,100,95.803
1572449375.768805,193157.000,33523,1,H0,1,100,95.791
1572449375.901554,193261.000,33541,1,H0,1,100,95.803
1572449376.035580,193366.000,33559,1,H0,1,100,95.795
1572449376.167053,193469.000,33578,1,H0,1,100,95.795
1572449376.299802,193573.000,33596,1,H0,1,100,95.799
1572449376.436381,193680.000,33614,1,H0,1,100,95.791
1572449376.570407,193785.000,33648,1,H0,1,100,95.791
1572449376.704433,193890.000,33666,1,H0,1,100,95.791
1572449376.838459,193995.000,33684,1,H0,1,100,95.788
1572449376.972484,194100.000,33702,1,H0,1,100,95.784
1572449377.102681,194202.000,33721,1,H0,1,100,95.776
1572449377.236707,194307.000,33739,1,H0,1,100,95.784
1572449377.372009,194413.000,33757,1,H0,1,100,95.784
1572449377.504758,194517.000,33775,1,H0,1,100,95.791
1572449377.638784,194622.000,33793,1,H0,1,100,95.780
1572449377.774086,194728.000,33811,1,H0,1,100,95.780
1572449377.905559,194831.000,33829,1,H0,1,100,95.776
1572449378.037032,194934.000,33847,1,H0,1,100,95.772
1572449378.169782,195038.000,33866,1,H0,1,100,95.776
1572449378.301255,195141.000,33884,1,H0,1,100,95.776
1572449378.434004,195245.000,33902,1,H0,1,100,95.776
1572449378.568030,195350.000,33920,1,H0,1,100,95.768
1572449378.702056,195455.000,33938,1,H0,1,100,95.772
1572449378.837358,195561.000,33956,1,H0,1,100,95.776
1572449378.968831,195664.000,33974,1,H0,1,100,95.765
1572449379.101580,195768.000,33992,1,H0,1,100,95.765
1572449379.235606,195873.000,34011,1,H0,1,100,95.765
1572449379.369632,195978.000,34029,1,H0,1,100,95.757
1572449379.502382,196082.000,34046,1,H0,1,100,95.757
1572449379.638960,196189.000,34064,1,H0,1,100,95.765
1572449379.772986,196294.000,34082,1,H0,1,100,95.761
1572449379.905735,196398.000,34100,1,H0,1,100,95.761
1572449380.039761,196503.000,34118,1,H0,1,100,95.746
1572449380.173787,196608.000,34136,1,H0,1,100,95.749
1572449380.303984,196710.000,34155,1,H0,1,100,95.753
1572449380.438010,196815.000,34189,1,H0,1,100,95.749
1572449380.574588,196922.000,34207,1,H0,1,100,95.753
1572449380.707338,197026.000,34225,1,H0,1,100,95.742
1572449380.841363,197131.000,34246,2,H0,1,100,95.749
1572449380.975389,197236.000,34246,2,H0,1,100,95.749
1572449381.106862,197339.000,34265,1,H0,1,100,95.738
1572449381.238335,197442.000,34285,1,H0,1,100,95.734
1572449381.371085,197546.000,34303,1,H0,1,100,95.734
1572449381.503834,197650.000,34321,1,H0,1,100,95.738
1572449381.636583,197754.000,34339,1,H0,1,100,95.738
1572449381.770609,197859.000,34357,1,H0,1,100,95.730
1572449381.904635,197964.000,34375,1,H0,1,100,95.730
1572449382.037385,198068.000,34393,1,H0,1,100,95.730
1572449382.168857,198171.000,34411,1,H0,1,100,95.719
1572449382.301607,198275.000,34430,1,H0,1,100,95.727
1572449382.435633,198380.000,34447,1,H0,1,100,95.719
1572449382.569659,198485.000,34465,1,H0,1,100,95.723
1572449382.702408,198589.000,34483,1,H0,1,100,95.719
1572449382.838987,198696.000,34501,1,H0,1,100,95.719
1572449382.973012,198801.000,34519,1,H0,1,100,95.704
1572449383.103209,198903.000,34537,1,H0,1,100,95.723
1572449383.237235,199008.000,34555,1,H0,1,100,95.715
1572449383.371261,199113.000,34590,1,H0,1,100,95.715
1572449383.502734,199216.000,34608,1,H0,1,100,95.723
1572449383.636760,199321.000,34626,1,H0,1,100,95.704
1572449383.773338,199428.000,34644,1,H0,1,100,95.707
1572449383.906088,199532.000,34662,1,H0,1,100,95.711
1572449384.038837,199636.000,34680,1,H0,1,100,95.707
1572449384.171586,199740.000,34699,1,H0,1,100,95.711
1572449384.303059,199843.000,34717,1,H0,1,100,95.707
1572449384.434532,199946.000,34735,1,H0,1,100,95.704
1572449384.567282,200050.000,34753,1,H0,1,100,95.692
1572449384.701308,200155.000,34771,1,H0,1,100,95.696
1572449384.834057,200259.000,34789,1,H0,1,100,95.700
1572449384.968083,200364.000,34807,1,H0,1,100,95.696
1572449385.100832,200468.000,34825,1,H0,1,100,95.700
1572449385.234858,200573.000,34844,1,H0,1,100,95.696
1572449385.366331,200676.000,34862,1,H0,1,100,95.696
1572449385.499080,200780.000,34880,1,H0,1,100,95.696
1572449385.633106,200885.000,34898,1,H0,1,100,95.688
1572449385.767132,200990.000,34916,1,H0,1,100,95.688
1572449385.899881,201094.000,34934,1,H0,1,100,95.688
1572449386.036460,201201.000,34952,1,H0,1,100,95.685
1572449386.170486,201306.000,34970,1,H0,1,100,95.688
1572449386.300683,201408.000,34988,1,H0,1,100,95.681
1572449386.434708,201513.000,35006,1,H0,1,100,95.688
1572449386.568734,201618.000,35024,1,H0,1,100,95.685
1572449386.701483,201722.000,35042,1,H0,1,100,95.673
1572449386.835509,201827.000,35060,1,H0,1,100,95.681
1572449386.972088,201934.000,35078,1,H0,1,100,95.673
1572449387.104837,202038.000,35096,1,H0,1,100,95.677
1572449387.237587,202142.000,35131,1,H0,1,100,95.673
1572449387.369698,202245.500,35152,2,H0,1,100,95.673
1572449387.501809,202349.000,35152,2,H0,1,100,95.669
1572449387.633282,202452.000,35171,1,H0,1,100,95.669
1572449387.767308,202557.000,35190,1,H0,1,100,95.662
1572449387.901334,202662.000,35208,1,H0,1,100,95.658
1572449388.034083,202766.000,35226,1,H0,1,100,95.669
1572449388.168109,202871.000,35244,1,H0,1,100,95.665
1572449388.299582,202974.000,35263,1,H0,1,100,95.662
1572449388.433608,203079.000,35281,1,H0,1,100,95.654
1572449388.565081,203182.000,35299,1,H0,1,100,95.662
1572449388.697830,203286.000,35317,1,H0,1,100,95.658
1572449388.833133,203392.000,35335,1,H0,1,100,95.654
1572449388.967158,203497.000,35353,1,H0,1,100,95.665
1572449389.099908,203601.000,35370,1,H0,1,100,95.650
1572449389.235210,203707.000,35388,1,H0,1,100,95.654
1572449389.369236,203812.000,35407,1,H0,1,100,95.654
1572449389.499433,203914.000,35425,1,H0,1,100,95.650
1572449389.633458,204019.000,35443,1,H0,1,100,95.650
1572449389.767484,204124.000,35461,1,H0,1,100,95.650
1572449389.900234,204228.000,35479,1,H0,1,100,95.639
1572449390.034259,204333.000,35496,1,H0,1,100,95.650
1572449390.170838,204440.000,35531,1,H0,1,100,95.631
1572449390.302311,204543.000,35550,1,H0,1,100,95.643
1572449390.433784,204646.000,35568,1,H0,1,100,95.639
1572449390.566533,204750.000,35586,1,H0,1,100,95.635
1572449390.698006,204853.000,35604,1,H0,1,100,95.639
1572449390.830756,204957.000,35622,1,H0,1,100,95.639
1572449390.964782,205062.000,35640,1,H0,1,100,95.643
1572449391.098807,205167.000,35658,1,H0,1,100,95.635
1572449391.231557,205271.000,35676,1,H0,1,100,95.631
1572449391.365583,205376.000,35695,1,H0,1,100,95.631
1572449391.497056,205479.000,35713,1,H0,1,100,95.635
1572449391.631082,205584.000,35731,1,H0,1,100,95.631
1572449391.762554,205687.000,35749,1,H0,1,100,95.631
1572449391.895304,205791.000,35767,1,H0,1,100,95.627
1572449392.031883,205898.000,35785,1,H0,1,100,95.624
1572449392.165908,206003.000,35803,1,H0,1,100,95.627
1572449392.298658,206107.000,35821,1,H0,1,100,95.624
1572449392.433960,206213.000,35840,1,H0,1,100,95.627
1572449392.567986,206318.000,35858,1,H0,1,100,95.620
1572449392.698182,206420.000,35876,1,H0,1,100,95.620
1572449392.832208,206525.000,35894,1,H0,1,100,95.635
1572449392.966234,206630.000,35912,1,H0,1,100,95.616
1572449393.098984,206734.000,35929,1,H0,1,100,95.620
1572449393.233009,206839.000,35947,1,H0,1,100,95.608
1572449393.369588,206946.000,35965,1,H0,1,100,95.612
1572449393.501061,207049.000,35984,1,H0,1,100,95.616
1572449393.632534,207152.000,36002,1,H0,1,100,95.616
1572449393.765283,207256.000,36020,1,H0,1,100,95.608
1572449393.896756,207359.000,36038,1,H0,1,100,95.608
1572449394.029506,207463.000,36059,1,H0,1,100,95.604
1572449394.163532,207568.000,36079,1,H0,1,100,95.597
1572449394.297557,207673.000,36097,1,H0,1,100,95.612
1572449394.431583,207778.000,36116,1,H0,1,100,95.601
1572449394.563056,207881.000,36134,1,H0,1,100,95.597
1572449394.695806,207985.000,36152,1,H0,1,100,95.593
1572449394.829831,208090.000,36170,1,H0,1,100,95.593
1572449394.963857,208195.000,36188,1,H0,1,100,95.589
1572449395.096607,208299.000,36206,1,H0,1,100,95.589
1572449395.233185,208406.000,36224,1,H0,1,100,95.593
1572449395.367211,208511.000,36242,1,H0,1,100,95.589
1572449395.499961,208615.000,36261,1,H0,1,100,95.585
1572449395.633986,208720.000,36279,1,H0,1,100,95.593
1572449395.768012,208825.000,36296,1,H0,1,100,95.585
1572449395.898209,208927.000,36314,1,H0,1,100,95.585
1572449396.032235,209032.000,36332,1,H0,1,100,95.585
1572449396.167537,209138.000,36350,1,H0,1,100,95.582
1572449396.300286,209242.000,36368,1,H0,1,100,95.574
1572449396.434312,209347.000,36386,1,H0,1,100,95.578
1572449396.568338,209452.000,36421,1,H0,1,100,95.582
1572449396.699811,209555.000,36439,1,H0,1,100,95.582
1572449396.831284,209658.000,36457,1,H0,1,100,95.570
1572449396.964033,209762.000,36475,1,H0,1,100,95.582
1572449397.096783,209866.000,36493,1,H0,1,100,95.566
1572449397.229532,209970.000,36511,1,H0,1,100,95.578
1572449397.363558,210075.000,36529,1,H0,1,100,95.574
1572449397.497584,210180.000,36548,1,H0,1,100,95.574
1572449397.631610,210285.000,36566,1,H0,1,100,95.566
1572449397.763083,210388.000,36584,1,H0,1,100,95.574
1572449397.895832,210492.000,36602,1,H0,1,100,95.562
1572449398.029858,210597.000,36620,1,H0,1,100,95.566
1572449398.163884,210702.000,36638,1,H0,1,100,95.562
1572449398.296633,210806.000,36656,1,H0,1,100,95.570
1572449398.433212,210913.000,36675,1,H0,1,100,95.547
1572449398.567238,211018.000,36693,1,H0,1,100,95.559
1572449398.698711,211121.000,36711,1,H0,1,100,95.570
1572449398.832736,211226.000,36729,1,H0,1,100,95.559
1572449398.966762,211331.000,36747,1,H0,1,100,95.559
1572449399.098235,211434.000,36765,1,H0,1,100,95.543
1572449399.232261,211539.000,36783,1,H0,1,100,95.551
1572449399.368840,211646.000,36801,1,H0,1,100,95.555
1572449399.501589,211750.000,36819,1,H0,1,100,95.551
1572449399.635615,211855.000,36837,1,H0,1,100,95.551
1572449399.768364,211959.000,36855,1,H0,1,100,95.551
1572449399.899837,212062.000,36873,1,H0,1,100,95.547
1572449400.031310,212165.000,36891,1,H0,1,100,95.547
1572449400.164060,212269.000,36909,1,H0,1,100,95.543
1572449400.298085,212374.000,36927,1,H0,1,100,95.540
1572449400.430835,212478.000,36945,1,H0,1,100,95.547
1572449400.564861,212583.000,36967,1,H0,1,100,95.536
1572449400.697610,212687.000,36987,1,H0,1,100,95.536
1572449400.831636,212792.000,37005,1,H0,1,100,95.528
1572449400.963109,212895.000,37023,1,H0,1,100,95.532
1572449401.095858,212999.000,37041,1,H0,1,100,95.524
1572449401.229884,213104.000,37059,1,H0,1,100,95.532
1572449401.363910,213209.000,37077,1,H0,1,100,95.528
1572449401.496660,213313.000,37096,1,H0,1,100,95.528
1572449401.633238,213420.000,37114,1,H0,1,100,95.532
1572449401.767264,213525.000,37132,1,H0,1,100,95.521
1572449401.897460,213627.000,37150,1,H0,1,100,95.528
1572449402.031486,213732.000,37168,1,H0,1,100,95.517
1572449402.165512,213837.000,37186,1,H0,1,100,95.521
1572449402.296985,213940.000,37203,1,H0,1,100,95.524
1572449402.431011,214045.000,37221,1,H0,1,100,95.521
1572449402.567590,214152.000,37240,1,H0,1,100,95.513
1572449402.700339,214256.000,37258,1,H0,1,100,95.517
1572449402.833088,214360.000,37276,1,H0,1,100,95.513
1572449402.965838,214464.000,37294,1,H0,1,100,95.505
1572449403.097311,214567.000,37312,1,H0,1,100,95.509
1572449403.228784,214670.000,37330,1,H0,1,100,95.509
1572449403.361533,214774.000,37348,1,H0,1,100,95.509
1572449403.495559,214879.000,37383,1,H0,1,100,95.505
1572449403.628309,214983.000,37401,1,H0,1,100,95.498
1572449403.762334,215088.000,37419,1,H0,1,100,95.505
1572449403.895084,215192.000,37437,1,H0,1,100,95.498
1572449404.029109,215297.000,37455,1,H0,1,100,95.505
1572449404.160583,215400.000,37473,1,H0,1,100,95.505
1572449404.293332,215504.000,37491,1,H0,1,100,95.498
1572449404.427358,215609.000,37509,1,H0,1,100,95.498
1572449404.561383,215714.000,37528,1,H0,1,100,95.494
1572449404.694133,215818.000,37546,1,H0,1,100,95.498
1572449404.830712,215925.000,37564,1,H0,1,100,95.494
1572449404.964737,216030.000,37582,1,H0,1,100,95.494
1572449405.094934,216132.000,37600,1,H0,1,100,95.490
1572449405.228960,216237.000,37618,1,H0,1,100,95.494
1572449405.362986,216342.000,37636,1,H0,1,100,95.494
1572449405.495735,216446.000,37654,1,H0,1,100,95.498
1572449405.629761,216551.000,37673,1,H0,1,100,95.479
1572449405.766340,216658.000,37691,1,H0,1,100,95.479
1572449405.899089,216762.000,37709,1,H0,1,100,95.479
1572449406.031838,216866.000,37727,1,H0,1,100,95.467
1572449406.164588,216970.000,37745,1,H0,1,100,95.475
1572449406.297337,217074.000,37762,1,H0,1,100,95.467
1572449406.430087,217178.000,37780,1,H0,1,100,95.471
1572449406.564112,217283.000,37798,1,H0,1,100,95.479
1572449406.698138,217388.000,37817,1,H0,1,100,95.463
1572449406.830888,217492.000,37835,1,H0,1,100,95.471
1572449406.963637,217596.000,37853,1,H0,1,100,95.471
1572449407.093834,217698.000,37874,1,H0,1,100,95.471
1572449407.226583,217802.000,37894,1,H0,1,100,95.460
1572449407.358056,217905.000,37912,1,H0,1,100,95.471
1572449407.489529,218008.000,37930,1,H0,1,100,95.463
1572449407.626108,218115.000,37949,1,H0,1,100,95.460
1572449407.760134,218220.000,37967,1,H0,1,100,95.460
1572449407.892883,218324.000,37985,1,H0,1,100,95.456
1572449408.026909,218429.000,38003,1,H0,1,100,95.460
1572449408.160935,218534.000,38021,1,H0,1,100,95.456
1572449408.291131,218636.000,38039,1,H0,1,100,95.452
1572449408.425157,218741.000,38057,1,H0,1,100,95.448
1572449408.559183,218846.000,38075,1,H0,1,100,95.452
1572449408.691932,218950.000,38094,1,H0,1,100,95.456
1572449408.825958,219055.000,38112,1,H0,1,100,95.448
1572449408.962537,219162.000,38129,1,H0,1,100,95.440
1572449409.092733,219264.000,38147,1,H0,1,100,95.452
1572449409.225483,219368.000,38165,1,H0,1,100,95.448
1572449409.358232,219472.000,38183,1,H0,1,100,95.448
1572449409.490982,219576.000,38201,1,H0,1,100,95.444
1572449409.623731,219680.000,38219,1,H0,1,100,95.440
1572449409.757757,219785.000,38238,1,H0,1,100,95.440
1572449409.891783,219890.000,38256,1,H0,1,100,95.444
1572449410.024532,219994.000,38274,1,H0,1,100,95.437
1572449410.157281,220098.000,38308,1,H0,1,100,95.429
1572449410.288754,220201.000,38326,1,H0,1,100,95.440
1572449410.421504,220305.000,38344,1,H0,1,100,95.437
1572449410.554253,220409.000,38362,1,H0,1,100,95.440
1572449410.687002,220513.000,38381,1,H0,1,100,95.433
1572449410.823581,220620.000,38399,1,H0,1,100,95.433
1572449410.957607,220725.000,38417,1,H0,1,100,95.440
1572449411.091633,220830.000,38435,1,H0,1,100,95.425
1572449411.225659,220935.000,38453,1,H0,1,100,95.425
1572449411.359684,221040.000,38471,1,H0,1,100,95.429
1572449411.489881,221142.000,38489,1,H0,1,100,95.421
1572449411.623907,221247.000,38507,1,H0,1,100,95.425
1572449411.759209,221353.000,38526,1,H0,1,100,95.421
1572449411.891959,221457.000,38544,1,H0,1,100,95.421
1572449412.025985,221562.000,38562,1,H0,1,100,95.421
1572449412.161287,221668.000,38580,1,H0,1,100,95.421
1572449412.294036,221772.000,38598,1,H0,1,100,95.418
1572449412.426785,221876.000,38616,1,H0,1,100,95.414
1572449412.559535,221980.000,38634,1,H0,1,100,95.418
1572449412.693561,222085.000,38653,1,H0,1,100,95.418
1572449412.826310,222189.000,38671,1,H0,1,100,95.406
1572449412.960336,222294.000,38688,1,H0,1,100,95.410
1572449413.094362,222399.000,38706,1,H0,1,100,95.410
1572449413.227111,222503.000,38724,1,H0,1,100,95.406
1572449413.358584,222606.000,38742,1,H0,1,100,95.414
1572449413.490057,222709.000,38760,1,H0,1,100,95.406
1572449413.622807,222813.000,38781,1,H0,1,100,95.398
1572449413.756832,222918.000,38802,1,H0,1,100,95.410
1572449413.889582,223022.000,38820,1,H0,1,100,95.406
1572449414.026160,223129.000,38838,1,H0,1,100,95.402
1572449414.160186,223234.000,38856,1,H0,1,100,95.402
1572449414.291659,223337.000,38874,1,H0,1,100,95.410
1572449414.425685,223442.000,38892,1,H0,1,100,95.398
1572449414.559711,223547.000,38910,1,H0,1,100,95.391
1572449414.689908,223649.000,38928,1,H0,1,100,95.398
1572449414.823933,223754.000,38947,1,H0,1,100,95.391
1572449414.960512,223861.000,38965,1,H0,1,100,95.387
1572449415.093261,223965.000,38983,1,H0,1,100,95.391
1572449415.227287,224070.000,39001,1,H0,1,100,95.387
1572449415.360037,224174.000,39019,1,H0,1,100,95.379
1572449415.492786,224278.000,39036,1,H0,1,100,95.391
1572449415.625535,224382.000,39054,1,H0,1,100,95.383
1572449415.758285,224486.000,39073,1,H0,1,100,95.383
1572449415.892311,224591.000,39091,1,H0,1,100,95.383
1572449416.025060,224695.000,39109,1,H0,1,100,95.379
1572449416.159086,224800.000,39127,1,H0,1,100,95.383
1572449416.293112,224905.000,39145,1,H0,1,100,95.383
1572449416.425861,225009.000,39163,1,H0,1,100,95.376
1572449416.557334,225112.000,39197,1,H0,1,100,95.376
1572449416.688807,225215.000,39216,1,H0,1,100,95.387
1572449416.821557,225319.000,39234,1,H0,1,100,95.376
1572449416.955582,225424.000,39252,1,H0,1,100,95.383
1572449417.088332,225528.000,39270,1,H0,1,100,95.383
1572449417.224910,225635.000,39288,1,H0,1,100,95.372
1572449417.360213,225741.000,39306,1,H0,1,100,95.368
1572449417.490409,225843.000,39324,1,H0,1,100,95.372
1572449417.624435,225948.000,39342,1,H0,1,100,95.379
1572449417.758461,226053.000,39361,1,H0,1,100,95.376
1572449417.889934,226156.000,39379,1,H0,1,100,95.360
1572449418.023960,226261.000,39397,1,H0,1,100,95.368
1572449418.160538,226368.000,39415,1,H0,1,100,95.372
1572449418.293288,226472.000,39433,1,H0,1,100,95.372
1572449418.428590,226578.000,39451,1,H0,1,100,95.364
1572449418.561340,226682.000,39469,1,H0,1,100,95.372
1572449418.694089,226786.000,39487,1,H0,1,100,95.360
1572449418.826838,226890.000,39506,1,H0,1,100,95.364
1572449418.959588,226994.000,39524,1,H0,1,100,95.357
1572449419.093614,227099.000,39542,1,H0,1,100,95.364
1572449419.226363,227203.000,39560,1,H0,1,100,95.357
1572449419.360389,227308.000,39577,1,H0,1,100,95.357
1572449419.491862,227411.000,39595,1,H0,1,100,95.364
1572449419.624611,227515.000,39613,1,H0,1,100,95.357
1572449419.756084,227618.000,39631,1,H0,1,100,95.353
1572449419.887557,227721.000,39650,1,H0,1,100,95.357
1572449420.021583,227826.000,39668,1,H0,1,100,95.353
1572449420.155609,227931.000,39689,1,H0,1,100,95.349
1572449420.288358,228035.000,39709,1,H0,1,100,95.349
1572449420.424937,228142.000,39727,1,H0,1,100,95.349
1572449420.558963,228247.000,39745,1,H0,1,100,95.337
1572449420.689159,228349.000,39763,1,H0,1,100,95.341
1572449420.823185,228454.000,39782,1,H0,1,100,95.341
1572449420.957211,228559.000,39800,1,H0,1,100,95.345
1572449421.089960,228663.000,39818,1,H0,1,100,95.345
1572449421.223986,228768.000,39836,1,H0,1,100,95.345
1572449421.360565,228875.000,39854,1,H0,1,100,95.337
1572449421.493314,228979.000,39872,1,H0,1,100,95.337
1572449421.626064,229083.000,39890,1,H0,1,100,95.341
1572449421.758813,229187.000,39908,1,H0,1,100,95.334
1572449421.891562,229291.000,39927,1,H0,1,100,95.341
1572449422.024312,229395.000,39944,1,H0,1,100,95.334
1572449422.158338,229500.000,39962,1,H0,1,100,95.341
1572449422.292363,229605.000,39980,1,H0,1,100,95.341
1572449422.425113,229709.000,39998,1,H0,1,100,95.326
1572449422.559139,229814.000,40016,1,H0,1,100,95.334
1572449422.689335,229916.000,40034,1,H0,1,100,95.330
1572449422.822085,230020.000,40052,1,H0,1,100,95.337
1572449422.953558,230123.000,40071,1,H0,1,100,95.337
1572449423.086732,230227.333,40105,3,H0,1,100,95.334
1572449423.219907,230331.667,40105,3,H0,1,100,95.330
1572449423.353082,230436.000,40105,3,H0,1,100,95.334
1572449423.486379,230540.429,40123,7,H0,1,100,95.326
1572449423.619675,230644.857,40123,7,H0,1,100,95.322
1572449423.752972,230749.286,40123,7,H0,1,100,95.334
1572449423.886268,230853.714,40123,7,H0,1,100,95.318
1572449424.019564,230958.143,40123,7,H0,1,100,95.326
1572449424.152861,231062.571,40123,7,H0,1,100,95.322
1572449424.286157,231167.000,40123,7,H0,1,100,95.322
1572449424.420609,231272.333,40142,3,H0,1,100,95.318
1572449424.555060,231377.667,40142,3,H0,1,100,95.315
1572449424.689511,231483.000,40142,3,H0,1,100,95.315
1572449424.822261,231587.000,40161,2,H0,1,100,95.318
1572449424.955010,231691.000,40161,2,H0,1,100,95.322
1572449425.090312,231797.000,40178,1,H0,1,100,95.322
1572449425.221785,231900.000,40196,1,H0,1,100,95.318
1572449425.355811,232005.000,40214,1,H0,1,100,95.315
1572449425.491113,232111.000,40232,1,H0,1,100,95.315
1572449425.622586,232214.000,40250,1,H0,1,100,95.315
1572449425.755336,232318.000,40268,1,H0,1,100,95.311
1572449425.887447,232421.500,40303,2,H0,1,100,95.315
1572449426.019558,232525.000,40303,2,H0,1,100,95.311
1572449426.151031,232628.000,40338,1,H0,1,100,95.318
1572449426.285057,232733.000,40356,1,H0,1,100,95.307
1572449426.419083,232838.000,40374,1,H0,1,100,95.307
1572449426.552470,232942.500,40395,2,H0,1,100,95.311
1572449426.685858,233047.000,40395,2,H0,1,100,95.307
1572449426.817331,233150.000,40414,1,H0,1,100,95.295
1572449426.950080,233254.000,40434,1,H0,1,100,95.307
1572449427.081553,233357.000,40452,1,H0,1,100,95.299
1572449427.214303,233461.000,40470,1,H0,1,100,95.303
1572449427.348329,233566.000,40488,1,H0,1,100,95.303
1572449427.482354,233671.000,40506,1,H0,1,100,95.292
1572449427.615104,233775.000,40524,1,H0,1,100,95.295
1572449427.750406,233881.000,40542,1,H0,1,100,95.295
1572449427.884432,233986.000,40560,1,H0,1,100,95.292
1572449428.015905,234089.000,40579,1,H0,1,100,95.299
1572449428.149931,234194.000,40597,1,H0,1,100,95.295
1572449428.285233,234300.000,40615,1,H0,1,100,95.292
1572449428.416706,234403.000,40633,1,H0,1,100,95.288
1572449428.550732,234508.000,40651,1,H0,1,100,95.295
1572449428.686034,234614.000,40668,1,H0,1,100,95.299
1572449428.818784,234718.000,40686,1,H0,1,100,95.280
1572449428.950256,234821.000,40704,1,H0,1,100,95.292
1572449429.083006,234925.000,40723,1,H0,1,100,95.284
1572449429.214479,235028.000,40741,1,H0,1,100,95.299
1572449429.347228,235132.000,40759,1,H0,1,100,95.284
1572449429.481254,235237.000,40777,1,H0,1,100,95.284
1572449429.615280,235342.000,40795,1,H0,1,100,95.280
1572449429.748029,235446.000,40829,1,H0,1,100,95.284
1572449429.882055,235551.000,40848,1,H0,1,100,95.280
1572449430.013528,235654.000,40866,1,H0,1,100,95.284
1572449430.147554,235759.000,40884,1,H0,1,100,95.295
1572449430.279027,235862.000,40902,1,H0,1,100,95.280
1572449430.411776,235966.000,40920,1,H0,1,100,95.280
1572449430.548355,236073.000,40938,1,H0,1,100,95.280
1572449430.682381,236178.000,40956,1,H0,1,100,95.276
1572449430.815130,236282.000,40974,1,H0,1,100,95.284
1572449430.950433,236388.000,40993,1,H0,1,100,95.273
1572449431.085735,236494.000,41011,1,H0,1,100,95.280
1572449431.217208,236597.000,41029,1,H0,1,100,95.269
1572449431.351233,236702.000,41047,1,H0,1,100,95.276
1572449431.486536,236808.000,41065,1,H0,1,100,95.276
1572449431.618009,236911.000,41083,1,H0,1,100,95.276
1572449431.752035,237016.000,41101,1,H0,1,100,95.269
1572449431.887337,237122.000,41119,1,H0,1,100,95.269
1572449432.017534,237224.000,41138,1,H0,1,100,95.265
1572449432.149006,237327.000,41156,1,H0,1,100,95.269
1572449432.281756,237431.000,41174,1,H0,1,100,95.273
1572449432.413229,237534.000,41192,1,H0,1,100,95.261
1572449432.545978,237638.000,41210,1,H0,1,100,95.273
1572449432.680004,237743.000,41227,1,H0,1,100,95.276
1572449432.814030,237848.000,41245,1,H0,1,100,95.265
1572449432.946779,237952.000,41263,1,H0,1,100,95.265
1572449433.078252,238055.000,41282,1,H0,1,100,95.269
1572449433.211002,238159.000,41303,1,H0,1,100,95.261
1572449433.345027,238264.000,41322,1,H0,1,100,95.273
1572449433.477777,238368.000,41341,1,H0,1,100,95.254
1572449433.610526,238472.000,41359,1,H0,1,100,95.254
1572449433.747105,238579.000,41377,1,H0,1,100,95.265
1572449433.881131,238684.000,41395,1,H0,1,100,95.269
1572449434.013880,238788.000,41414,1,H0,1,100,95.257
1572449434.147906,238893.000,41432,1,H0,1,100,95.254
1572449434.283208,238999.000,41450,1,H0,1,100,95.254
1572449434.414681,239102.000,41468,1,H0,1,100,95.261
1572449434.548707,239207.000,41486,1,H0,1,100,95.261
1572449434.684009,239313.000,41504,1,H0,1,100,95.254
1572449434.815482,239416.000,41522,1,H0,1,100,95.250
1572449434.949508,239521.000,41540,1,H0,1,100,95.257
1572449435.083534,239626.000,41559,1,H0,1,100,95.250
1572449435.215007,239729.000,41577,1,H0,1,100,95.254
1572449435.346480,239832.000,41595,1,H0,1,100,95.250
1572449435.479229,239936.000,41613,1,H0,1,100,95.242
1572449435.611979,240040.000,41631,1,H0,1,100,95.242
1572449435.744728,240144.000,41649,1,H0,1,100,95.246
1572449435.878754,240249.000,41667,1,H0,1,100,95.250
1572449436.012780,240354.000,41684,1,H0,1,100,95.250
1572449436.146806,240459.000,41703,1,H0,1,100,95.238
1572449436.278279,240562.000,41721,1,H0,1,100,95.238
1572449436.411028,240666.000,41739,1,H0,1,100,95.246
1572449436.545054,240771.000,41757,1,H0,1,100,95.238
1572449436.679080,240876.000,41775,1,H0,1,100,95.246
1572449436.811829,240980.000,41793,1,H0,1,100,95.238
1572449436.948408,241087.000,41827,1,H0,1,100,95.238
1572449437.082434,241192.000,41846,1,H0,1,100,95.231
1572449437.215183,241296.000,41864,1,H0,1,100,95.238
1572449437.349209,241401.000,41882,1,H0,1,100,95.234
1572449437.484511,241507.000,41900,1,H0,1,100,95.242
1572449437.615984,241610.000,41918,1,H0,1,100,95.231
1572449437.750010,241715.000,41936,1,H0,1,100,95.234
1572449437.885312,241821.000,41954,1,H0,1,100,95.227
1572449438.016785,241924.000,41972,1,H0,1,100,95.231
1572449438.150811,242029.000,41991,1,H0,1,100,95.227
1572449438.282284,242132.000,42009,1,H0,1,100,95.223
1572449438.413757,242235.000,42027,1,H0,1,100,95.238
1572449438.545230,242338.000,42045,1,H0,1,100,95.219
1572449438.677979,242442.000,42063,1,H0,1,100,95.231
1572449438.812005,242547.000,42081,1,H0,1,100,95.223
1572449438.944755,242651.000,42099,1,H0,1,100,95.238
1572449439.078780,242756.000,42117,1,H0,1,100,95.215
1572449439.211530,242860.000,42136,1,H0,1,100,95.223
1572449439.345556,242965.000,42154,1,H0,1,100,95.223
1572449439.477029,243068.000,42172,1,H0,1,100,95.223
1572449439.609778,243172.000,42190,1,H0,1,100,95.215
1572449439.743804,243277.000,42211,2,H0,1,100,95.215
1572449439.877830,243382.000,42211,2,H0,1,100,95.212
1572449440.010579,243486.000,42230,1,H0,1,100,95.212
1572449440.147158,243593.000,42266,1,H0,1,100,95.215
1572449440.281183,243698.000,42284,1,H0,1,100,95.212
1572449440.412657,243801.000,42302,1,H0,1,100,95.212
1572449440.546682,243906.000,42320,1,H0,1,100,95.219
1572449440.681985,244012.000,42338,1,H0,1,100,95.212
1572449440.813458,244115.000,42356,1,H0,1,100,95.212
1572449440.947484,244220.000,42374,1,H0,1,100,95.208
1572449441.082786,244326.000,42392,1,H0,1,100,95.204
1572449441.214259,244429.000,42411,1,H0,1,100,95.212
1572449441.348284,244534.000,42429,1,H0,1,100,95.196
1572449441.479758,244637.000,42447,1,H0,1,100,95.192
1572449441.611230,244740.000,42465,1,H0,1,100,95.204
1572449441.742703,244843.000,42483,1,H0,1,100,95.200
1572449441.875453,244947.000,42501,1,H0,1,100,95.192
1572449442.009479,245052.000,42519,1,H0,1,100,95.192
1572449442.142228,245156.000,42538,1,H0,1,100,95.196
1572449442.276254,245261.000,42556,1,H0,1,100,95.196
1572449442.409003,245365.000,42574,1,H0,1,100,95.204
1572449442.543029,245470.000,42592,1,H0,1,100,95.200
1572449442.674502,245573.000,42610,1,H0,1,100,95.189
1572449442.807251,245677.000,42628,1,H0,1,100,95.192
1572449442.941277,245782.000,42646,1,H0,1,100,95.185
1572449443.075303,245887.000,42663,1,H0,1,100,95.189
1572449443.208053,245991.000,42682,1,H0,1,100,95.189
1572449443.344631,246098.000,42700,1,H0,1,100,95.200
1572449443.479934,246204.000,42718,1,H0,1,100,95.185
1572449443.611407,246307.000,42736,1,H0,1,100,95.181
1572449443.745432,246412.000,42754,1,H0,1,100,95.185
1572449443.880735,246518.000,42788,1,H0,1,100,95.185
1572449444.012208,246621.000,42806,1,H0,1,100,95.185
1572449444.146233,246726.000,42825,1,H0,1,100,95.185
1572449444.281536,246832.000,42843,1,H0,1,100,95.181
1572449444.414285,246936.000,42861,1,H0,1,100,95.177
1572449444.545758,247039.000,42879,1,H0,1,100,95.181
1572449444.678508,247143.000,42897,1,H0,1,100,95.189
1572449444.809980,247246.000,42915,1,H0,1,100,95.189
1572449444.942730,247350.000,42933,1,H0,1,100,95.173
1572449445.076756,247455.000,42951,1,H0,1,100,95.177
1572449445.210782,247560.000,42970,1,H0,1,100,95.173
1572449445.343531,247664.000,42988,1,H0,1,100,95.181
1572449445.477557,247769.000,43006,1,H0,1,100,95.170
1572449445.609030,247872.000,43024,1,H0,1,100,95.177
1572449445.743056,247977.000,43042,1,H0,1,100,95.173
1572449445.874528,248080.000,43060,1,H0,1,100,95.177
1572449446.007278,248184.000,43078,1,H0,1,100,95.177
1572449446.142580,248290.000,43096,1,H0,1,100,95.173
1572449446.275968,248394.500,43118,2,H0,1,100,95.185
1572449446.409355,248499.000,43118,2,H0,1,100,95.170
1572449446.543381,248604.000,43137,1,H0,1,100,95.162
1572449446.678684,248710.000,43155,1,H0,1,100,95.170
1572449446.810157,248813.000,43173,1,H0,1,100,95.173
1572449446.944182,248918.000,43191,1,H0,1,100,95.162
1572449447.079485,249024.000,43209,1,H0,1,100,95.162
1572449447.210958,249127.000,43227,1,H0,1,100,95.158
1572449447.344983,249232.000,43246,1,H0,1,100,95.170
1572449447.480286,249338.000,43280,1,H0,1,100,95.173
1572449447.611759,249441.000,43298,1,H0,1,100,95.162
1572449447.743232,249544.000,43316,1,H0,1,100,95.162
1572449447.875981,249648.000,43334,1,H0,1,100,95.154
1572449448.007454,249751.000,43352,1,H0,1,100,95.154
1572449448.140203,249855.000,43370,1,H0,1,100,95.158
1572449448.272953,249959.000,43389,1,H0,1,100,95.154
1572449448.406979,250064.000,43407,1,H0,1,100,95.162
1572449448.539728,250168.000,43425,1,H0,1,100,95.158
1572449448.672477,250272.000,43443,1,H0,1,100,95.162
1572449448.805227,250376.000,43461,1,H0,1,100,95.158
1572449448.939253,250481.000,43479,1,H0,1,100,95.151
1572449449.072002,250585.000,43497,1,H0,1,100,95.151
1572449449.204751,250689.000,43515,1,H0,1,100,95.154
1572449449.340054,250795.000,43534,1,H0,1,100,95.147
1572449449.474080,250900.000,43552,1,H0,1,100,95.147
1572449449.608105,251005.000,43570,1,H0,1,100,95.147
1572449449.742131,251110.000,43588,1,H0,1,100,95.147
1572449449.877434,251216.000,43606,1,H0,1,100,95.139
1572449450.008906,251319.000,43624,1,H0,1,100,95.139
1572449450.142932,251424.000,43642,1,H0,1,100,95.135
1572449450.278234,251530.000,43660,1,H0,1,100,95.139
1572449450.409708,251633.000,43679,1,H0,1,100,95.154
1572449450.543733,251738.000,43696,1,H0,1,100,95.135
1572449450.677759,251843.000,43714,1,H0,1,100,95.143
1572449450.809232,251946.000,43732,1,H0,1,100,95.139
1572449450.940705,252049.000,43750,1,H0,1,100,95.139
1572449451.073455,252153.000,43768,1,H0,1,100,95.131
1572449451.206204,252257.000,43786,1,H0,1,100,95.135
1572449451.338953,252361.000,43805,1,H0,1,100,95.139
1572449451.472979,252466.000,43822,1,H0,1,100,95.135
1572449451.607005,252571.000,43857,1,H0,1,100,95.135
1572449451.741031,252676.000,43875,1,H0,1,100,95.135
1572449451.872504,252779.000,43893,1,H0,1,100,95.128
1572449452.005253,252883.000,43911,1,H0,1,100,95.128
1572449452.139279,252988.000,43929,1,H0,1,100,95.124
1572449452.272028,253092.000,43948,1,H0,1,100,95.131
1572449452.404778,253196.000,43966,1,H0,1,100,95.128
1572449452.541357,253303.000,43984,1,H0,1,100,95.120
1572449452.675382,253408.000,44002,1,H0,1,100,95.131
1572449452.808770,253512.500,44023,2,H0,1,100,95.131
1572449452.942158,253617.000,44023,2,H0,1,100,95.120
1572449453.077460,253723.000,44042,1,H0,1,100,95.128
1572449453.208933,253826.000,44061,1,H0,1,100,95.128
1572449453.342959,253931.000,44080,1,H0,1,100,95.105
1572449453.478261,254037.000,44098,1,H0,1,100,95.124
1572449453.609734,254140.000,44116,1,H0,1,100,95.112
1572449453.743760,254245.000,44133,1,H0,1,100,95.120
1572449453.876509,254349.000,44151,1,H0,1,100,95.112
1572449454.007982,254452.000,44169,1,H0,1,100,95.120
1572449454.139455,254555.000,44187,1,H0,1,100,95.112
1572449454.272204,254659.000,44205,1,H0,1,100,95.120
1572449454.404954,254763.000,44224,1,H0,1,100,95.116
1572449454.538342,254867.500,44242,2,H0,1,100,95.112
1572449454.671729,254972.000,44242,2,H0,1,100,95.116
1572449454.805755,255077.000,44260,2,H0,1,100,95.116
1572449454.939781,255182.000,44260,2,H0,1,100,95.112
1572449455.071254,255285.000,44278,1,H0,1,100,95.105
1572449455.204003,255389.000,44296,1,H0,1,100,95.116
1572449455.338029,255494.000,44314,1,H0,1,100,95.101
1572449455.472055,255599.000,44332,1,H0,1,100,95.105
1572449455.604804,255703.000,44350,1,H0,1,100,95.105
1572449455.741383,255810.000,44368,1,H0,1,100,95.097
1572449455.876685,255916.000,44386,1,H0,1,100,95.101
1572449456.008158,256019.000,44404,1,H0,1,100,95.105
1572449456.142184,256124.000,44422,1,H0,1,100,95.101
1572449456.277486,256230.000,44456,1,H0,1,100,95.101
1572449456.408959,256333.000,44475,1,H0,1,100,95.101
1572449456.542985,256438.000,44493,1,H0,1,100,95.105
1572449456.678287,256544.000,44511,1,H0,1,100,95.101
1572449456.809760,256647.000,44529,1,H0,1,100,95.093
1572449456.942510,256751.000,44547,1,H0,1,100,95.101
1572449457.073983,256854.000,44565,1,H0,1,100,95.086
1572449457.205456,256957.000,44583,1,H0,1,100,95.093
1572449457.336929,257060.000,44602,1,H0,1,100,95.097
1572449457.469678,257164.000,44620,1,H0,1,100,95.097
1572449457.603704,257269.000,44638,1,H0,1,100,95.089
1572449457.736453,257373.000,44656,1,H0,1,100,95.093
1572449457.870479,257478.000,44674,1,H0,1,100,95.093
1572449458.001952,257581.000,44692,1,H0,1,100,95.089
1572449458.135978,257686.000,44710,1,H0,1,100,95.082
1572449458.267451,257789.000,44728,1,H0,1,100,95.086
1572449458.400200,257893.000,44747,1,H0,1,100,95.086
1572449458.534226,257998.000,44765,1,H0,1,100,95.093
1572449458.668252,258103.000,44783,1,H0,1,100,95.086
1572449458.801001,258207.000,44801,1,H0,1,100,95.089
1572449458.937580,258314.000,44819,1,H0,1,100,95.089
1572449459.070329,258418.000,44837,1,H0,1,100,95.082
1572449459.201802,258521.000,44855,1,H0,1,100,95.078
1572449459.335828,258626.000,44873,1,H0,1,100,95.086
1572449459.469216,258730.500,44895,2,H0,1,100,95.074
1572449459.602603,258835.000,44895,2,H0,1,100,95.086
1572449459.736629,258940.000,44914,1,H0,1,100,95.086
1572449459.871932,259046.000,44949,1,H0,1,100,95.086
1572449460.003405,259149.000,44967,1,H0,1,100,95.078
1572449460.136154,259253.000,44985,1,H0,1,100,95.078
1572449460.268903,259357.000,45003,1,H0,1,100,95.067
1572449460.400376,259460.000,45022,1,H0,1,100,95.078
1572449460.531849,259563.000,45040,1,H0,1,100,95.082
1572449460.665875,259668.000,45058,1,H0,1,100,95.070
1572449460.799901,259773.000,45076,1,H0,1,100,95.074
1572449460.932650,259877.000,45094,1,H0,1,100,95.074
1572449461.067953,259983.000,45112,1,H0,1,100,95.078
1572449461.199425,260086.000,45130,1,H0,1,100,95.074
1572449461.333451,260191.000,45148,1,H0,1,100,95.074
1572449461.464924,260294.000,45167,1,H0,1,100,95.070
1572449461.597674,260398.000,45185,1,H0,1,100,95.070
1572449461.732976,260504.000,45203,1,H0,1,100,95.063
1572449461.867002,260609.000,45221,1,H0,1,100,95.070
1572449461.999751,260713.000,45239,1,H0,1,100,95.070
1572449462.135054,260819.000,45257,1,H0,1,100,95.063
1572449462.270356,260925.000,45275,1,H0,1,100,95.063
1572449462.401829,261028.000,45293,1,H0,1,100,95.063
1572449462.535855,261133.000,45312,1,H0,1,100,95.070
1572449462.671157,261239.000,45330,1,H0,1,100,95.063
1572449462.802630,261342.000,45347,1,H0,1,100,95.063
1572449462.936656,261447.000,45365,1,H0,1,100,95.063
1572449463.071958,261553.000,45383,1,H0,1,100,95.055
1572449463.203431,261656.000,45401,1,H0,1,100,95.059
1572449463.334904,261759.000,45419,1,H0,1,100,95.059
1572449463.467653,261863.000,45437,1,H0,1,100,95.055
1572449463.599126,261966.000,45456,1,H0,1,100,95.055
1572449463.731876,262070.000,45474,1,H0,1,100,95.048
1572449463.865901,262175.000,45508,1,H0,1,100,95.051
1572449463.999927,262280.000,45526,1,H0,1,100,95.059
1572449464.132677,262384.000,45544,1,H0,1,100,95.051
1572449464.265426,262488.000,45562,1,H0,1,100,95.055
1572449464.398175,262592.000,45580,1,H0,1,100,95.055
1572449464.532201,262697.000,45599,1,H0,1,100,95.059
1572449464.663674,262800.000,45617,1,H0,1,100,95.051
1572449464.796424,262904.000,45635,1,H0,1,100,95.051
1572449464.933002,263011.000,45653,1,H0,1,100,95.051
1572449465.067028,263116.000,45671,1,H0,1,100,95.051
1572449465.199778,263220.000,45689,1,H0,1,100,95.055
1572449465.333803,263325.000,45707,1,H0,1,100,95.055
1572449465.469106,263431.000,45725,1,H0,1,100,95.044
1572449465.600579,263534.000,45744,1,H0,1,100,95.044
1572449465.734605,263639.000,45762,1,H0,1,100,95.044
1572449465.869907,263745.000,45780,1,H0,1,100,95.044
1572449466.002656,263849.000,45801,2,H0,1,100,95.048
1572449466.135406,263953.000,45801,2,H0,1,100,95.044
1572449466.270708,264059.000,45820,1,H0,1,100,95.036
1572449466.402181,264162.000,45839,1,H0,1,100,95.048
1572449466.533654,264265.000,45856,1,H0,1,100,95.036
1572449466.666403,264369.000,45892,1,H0,1,100,95.048
1572449466.797876,264472.000,45910,1,H0,1,100,95.036
1572449466.930626,264576.000,45928,1,H0,1,100,95.044
1572449467.064651,264681.000,45946,1,H0,1,100,95.040
1572449467.198677,264786.000,45964,1,H0,1,100,95.040
1572449467.333980,264892.000,45982,1,H0,1,100,95.036
1572449467.465452,264995.000,46000,1,H0,1,100,95.044
1572449467.598202,265099.000,46019,1,H0,1,100,95.036
1572449467.732228,265204.000,46037,1,H0,1,100,95.040
1572449467.864977,265308.000,46055,1,H0,1,100,95.032
1572449467.997726,265412.000,46073,1,H0,1,100,95.032
1572449468.134305,265519.000,46091,1,H0,1,100,95.036
1572449468.268331,265624.000,46109,1,H0,1,100,95.036
1572449468.402357,265729.000,46127,1,H0,1,100,95.036
1572449468.536383,265834.000,46145,1,H0,1,100,95.036
1572449468.671685,265940.000,46164,1,H0,1,100,95.032
1572449468.803158,266043.000,46182,1,H0,1,100,95.032
1572449468.937184,266148.000,46200,1,H0,1,100,95.032
1572449469.072486,266254.000,46218,1,H0,1,100,95.040
1572449469.203959,266357.000,46236,1,H0,1,100,95.040
1572449469.337985,266462.000,46254,1,H0,1,100,95.028
1572449469.470734,266566.000,46271,1,H0,1,100,95.032
1572449469.602207,266669.000,46289,1,H0,1,100,95.017
1572449469.733680,266772.000,46308,1,H0,1,100,95.028
1572449469.866430,266876.000,46326,1,H0,1,100,95.040
1572449469.999179,266980.000,46344,1,H0,1,100,95.025
1572449470.131928,267084.000,46362,1,H0,1,100,95.017
1572449470.265954,267189.000,46380,1,H0,1,100,95.032
1572449470.399980,267294.000,46398,1,H0,1,100,95.025
1572449470.534006,267399.000,46433,1,H0,1,100,95.032
1572449470.665479,267502.000,46451,1,H0,1,100,95.028
1572449470.798228,267606.000,46469,1,H0,1,100,95.017
1572449470.932254,267711.000,46487,1,H0,1,100,95.025
1572449471.066280,267816.000,46505,1,H0,1,100,95.017
1572449471.199029,267920.000,46523,1,H0,1,100,95.013
1572449471.335608,268027.000,46541,1,H0,1,100,95.025
1572449471.469634,268132.000,46559,1,H0,1,100,95.025
1572449471.599830,268234.000,46578,1,H0,1,100,95.009
1572449471.733856,268339.000,46596,1,H0,1,100,95.017
1572449471.869159,268445.000,46614,1,H0,1,100,95.013
1572449472.000632,268548.000,46632,1,H0,1,100,95.021
1572449472.134657,268653.000,46650,1,H0,1,100,95.013
1572449472.269960,268759.000,46668,1,H0,1,100,95.013
1572449472.401433,268862.000,46686,1,H0,1,100,95.025
1572449472.534182,268966.000,46707,2,H0,1,100,95.013
1572449472.666931,269070.000,46707,2,H0,1,100,95.013
1572449472.798404,269173.000,46727,1,H0,1,100,95.009
1572449472.929877,269276.000,46745,1,H0,1,100,95.013
1572449473.062627,269380.000,46763,1,H0,1,100,95.009
1572449473.196653,269485.000,46781,1,H0,1,100,95.006
1572449473.329402,269589.000,46799,1,H0,1,100,95.013
1572449473.463428,269694.000,46817,1,H0,1,100,94.998
1572449473.596177,269798.000,46835,1,H0,1,100,95.006
1572449473.730203,269903.000,46854,1,H0,1,100,95.006
1572449473.861676,270006.000,46872,1,H0,1,100,95.009
1572449473.994425,270110.000,46889,1,H0,1,100,95.002
1572449474.128451,270215.000,46924,1,H0,1,100,94.998
1572449474.262477,270320.000,46942,1,H0,1,100,94.998
1572449474.395226,270424.000,46960,1,H0,1,100,95.006
1572449474.531805,270531.000,46978,1,H0,1,100,94.998
1572449474.665831,270636.000,46997,1,H0,1,100,94.998
1572449474.797304,270739.000,47015,1,H0,1,100,95.009
1572449474.931330,270844.000,47033,1,H0,1,100,94.998
1572449475.066632,270950.000,47051,1,H0,1,100,94.998
1572449475.198105,271053.000,47069,1,H0,1,100,95.002
1572449475.332131,271158.000,47087,1,H0,1,100,94.998
1572449475.467433,271264.000,47105,1,H0,1,100,94.994
1572449475.598906,271367.000,47123,1,H0,1,100,94.998
1572449475.731656,271471.000,47142,1,H0,1,100,94.998
1572449475.864405,271575.000,47160,1,H0,1,100,94.994
1572449475.995878,271678.000,47178,1,H0,1,100,94.990
1572449476.127351,271781.000,47196,1,H0,1,100,95.002
1572449476.261377,271886.000,47214,1,H0,1,100,94.994
1572449476.395402,271991.000,47232,1,H0,1,100,94.990
1572449476.528152,272095.000,47250,1,H0,1,100,94.983
1572449476.662178,272200.000,47268,1,H0,1,100,94.986
1572449476.793651,272303.000,47287,1,H0,1,100,94.994
1572449476.927676,272408.000,47304,1,H0,1,100,94.983
1572449477.059150,272511.000,47322,1,H0,1,100,94.983
1572449477.191899,272615.000,47340,1,H0,1,100,94.986
1572449477.325925,272720.000,47358,1,H0,1,100,94.990
1572449477.459951,272825.000,47376,1,H0,1,100,94.979
1572449477.592700,272929.000,47394,1,H0,1,100,94.975
1572449477.728002,273035.000,47412,1,H0,1,100,94.983
1572449477.863305,273141.000,47447,1,H0,1,100,94.979
1572449477.994777,273244.000,47465,1,H0,1,100,94.979
1572449478.128803,273349.000,47483,1,H0,1,100,94.979
1572449478.264106,273455.000,47501,1,H0,1,100,94.979
1572449478.395579,273558.000,47519,1,H0,1,100,94.975
1572449478.529604,273663.000,47537,1,H0,1,100,94.979
1572449478.664907,273769.000,47555,1,H0,1,100,94.979
1572449478.797656,273873.000,47574,1,H0,1,100,94.971
1572449478.929129,273976.000,47592,1,H0,1,100,94.971
1572449479.061240,274079.500,47613,2,H0,1,100,94.967
1572449479.193351,274183.000,47613,2,H0,1,100,94.975
1572449479.326101,274287.000,47632,1,H0,1,100,94.971
1572449479.460127,274392.000,47651,1,H0,1,100,94.975
1572449479.594152,274497.000,47669,1,H0,1,100,94.975
1572449479.726902,274601.000,47687,1,H0,1,100,94.979
1572449479.860928,274706.000,47706,1,H0,1,100,94.975
1572449479.992401,274809.000,47724,1,H0,1,100,94.971
1572449480.126426,274914.000,47742,1,H0,1,100,94.975
1572449480.257900,275017.000,47760,1,H0,1,100,94.971
1572449480.390649,275121.000,47777,1,H0,1,100,94.971
1572449480.527228,275228.000,47795,1,H0,1,100,94.971
1572449480.661253,275333.000,47813,1,H0,1,100,94.967
1572449480.794003,275437.000,47832,1,H0,1,100,94.971
1572449480.929305,275543.000,47850,1,H0,1,100,94.971
1572449481.063331,275648.000,47868,1,H0,1,100,94.975
1572449481.193527,275750.000,47886,1,H0,1,100,94.964
1572449481.327553,275855.000,47920,1,H0,1,100,94.960
1572449481.461579,275960.000,47938,1,H0,1,100,94.952
1572449481.594328,276064.000,47956,1,H0,1,100,94.964
1572449481.728354,276169.000,47975,1,H0,1,100,94.956
1572449481.864933,276276.000,47993,1,H0,1,100,94.967
1572449481.995130,276378.000,48011,1,H0,1,100,94.952
1572449482.126603,276481.000,48029,1,H0,1,100,94.956
1572449482.259352,276585.000,48047,1,H0,1,100,94.960
1572449482.390825,276688.000,48065,1,H0,1,100,94.952
1572449482.523574,276792.000,48083,1,H0,1,100,94.952
1572449482.657600,276897.000,48101,1,H0,1,100,94.952
1572449482.791626,277002.000,48120,1,H0,1,100,94.948
1572449482.924375,277106.000,48138,1,H0,1,100,94.945
1572449483.055848,277209.000,48156,1,H0,1,100,94.956
1572449483.188598,277313.000,48174,1,H0,1,100,94.945
1572449483.322623,277418.000,48192,1,H0,1,100,94.945
1572449483.455373,277522.000,48210,1,H0,1,100,94.952
1572449483.588122,277626.000,48228,1,H0,1,100,94.948
1572449483.724701,277733.000,48246,1,H0,1,100,94.945
1572449483.858727,277838.000,48265,1,H0,1,100,94.952
1572449483.991476,277942.000,48283,1,H0,1,100,94.941
1572449484.125502,278047.000,48301,1,H0,1,100,94.960
1572449484.259528,278152.000,48318,1,H0,1,100,94.948
1572449484.389724,278254.000,48336,1,H0,1,100,94.941
1572449484.523750,278359.000,48354,1,H0,1,100,94.945
1572449484.659053,278465.000,48372,1,H0,1,100,94.945
1572449484.791802,278569.000,48390,1,H0,1,100,94.945
1572449484.925828,278674.000,48409,1,H0,1,100,94.945
1572449485.061130,278780.000,48427,1,H0,1,100,94.941
1572449485.192603,278883.000,48445,1,H0,1,100,94.941
1572449485.324076,278986.000,48479,1,H0,1,100,94.945
1572449485.456825,279090.000,48497,1,H0,1,100,94.933
1572449485.589575,279194.000,48518,2,H0,1,100,94.929
1572449485.722324,279298.000,48518,2,H0,1,100,94.929
1572449485.856350,279403.000,48538,1,H0,1,100,94.941
1572449485.990376,279508.000,48557,1,H0,1,100,94.941
1572449486.124402,279613.000,48575,1,H0,1,100,94.941
1572449486.255875,279716.000,48593,1,H0,1,100,94.937
1572449486.388624,279820.000,48611,1,H0,1,100,94.941
1572449486.522650,279925.000,48629,1,H0,1,100,94.933
1572449486.656676,280030.000,48647,1,H0,1,100,94.933
1572449486.789425,280134.000,48665,1,H0,1,100,94.941
1572449486.926004,280241.000,48684,1,H0,1,100,94.933
1572449487.060030,280346.000,48702,1,H0,1,100,94.929
1572449487.191503,280449.000,48720,1,H0,1,100,94.925
1572449487.325529,280554.000,48738,1,H0,1,100,94.929
1572449487.459554,280659.000,48756,1,H0,1,100,94.937
1572449487.589751,280761.000,48774,1,H0,1,100,94.937
1572449487.723777,280866.000,48792,1,H0,1,100,94.925
1572449487.860355,280973.000,48809,1,H0,1,100,94.914
1572449487.993105,281077.000,48828,1,H0,1,100,94.929
1572449488.127131,281182.000,48846,1,H0,1,100,94.922
1572449488.259880,281286.000,48864,1,H0,1,100,94.929
1572449488.391353,281389.000,48882,1,H0,1,100,94.937
1572449488.522826,281492.000,48900,1,H0,1,100,94.914
1572449488.655576,281596.000,48918,1,H0,1,100,94.918
1572449488.789601,281701.000,48936,1,H0,1,100,94.922
1572449488.922351,281805.000,48971,1,H0,1,100,94.918
1572449489.056376,281910.000,48989,1,H0,1,100,94.918
1572449489.189126,282014.000,49007,1,H0,1,100,94.918
1572449489.323152,282119.000,49025,1,H0,1,100,94.914
1572449489.454625,282222.000,49043,1,H0,1,100,94.918
1572449489.587374,282326.000,49061,1,H0,1,100,94.914
1572449489.721400,282431.000,49079,1,H0,1,100,94.918
1572449489.855426,282536.000,49097,1,H0,1,100,94.918
1572449489.988175,282640.000,49116,1,H0,1,100,94.914
1572449490.124754,282747.000,49134,1,H0,1,100,94.918
1572449490.258780,282852.000,49152,1,H0,1,100,94.918
1572449490.388976,282954.000,49170,1,H0,1,100,94.910
1572449490.523002,283059.000,49188,1,H0,1,100,94.914
1572449490.657028,283164.000,49206,1,H0,1,100,94.914
1572449490.788501,283267.000,49224,1,H0,1,100,94.903
1572449490.922527,283372.000,49243,1,H0,1,100,94.918
1572449491.059105,283479.000,49261,1,H0,1,100,94.910
1572449491.191855,283583.000,49279,1,H0,1,100,94.910
1572449491.325881,283688.000,49297,1,H0,1,100,94.914
1572449491.458630,283792.000,49315,1,H0,1,100,94.914
1572449491.590103,283895.000,49333,1,H0,1,100,94.914
1572449491.721576,283998.000,49351,1,H0,1,100,94.914
1572449491.854325,284102.000,49368,1,H0,1,100,94.906
1572449491.987075,284206.000,49387,1,H0,1,100,94.903
1572449492.119824,284310.000,49405,1,H0,1,100,94.906
1572449492.253850,284415.000,49426,1,H0,1,100,94.906
1572449492.386599,284519.000,49445,1,H0,1,100,94.903
1572449492.520625,284624.000,49464,1,H0,1,100,94.906
1572449492.652098,284727.000,49482,1,H0,1,100,94.906
1572449492.784848,284831.000,49500,1,H0,1,100,94.895
1572449492.918874,284936.000,49519,1,H0,1,100,94.906
1572449493.052899,285041.000,49537,1,H0,1,100,94.899
1572449493.185649,285145.000,49555,1,H0,1,100,94.906
1572449493.322227,285252.000,49573,1,H0,1,100,94.903
1572449493.456253,285357.000,49591,1,H0,1,100,94.903
1572449493.586450,285459.000,49609,1,H0,1,100,94.891
1572449493.720476,285564.000,49627,1,H0,1,100,94.895
1572449493.854501,285669.000,49645,1,H0,1,100,94.891
1572449493.985974,285772.000,49664,1,H0,1,100,94.903
1572449494.120000,285877.000,49682,1,H0,1,100,94.899
1572449494.256579,285984.000,49700,1,H0,1,100,94.899
1572449494.389328,286088.000,49718,1,H0,1,100,94.891
1572449494.520801,286191.000,49736,1,H0,1,100,94.891
1572449494.653551,286295.000,49754,1,H0,1,100,94.891
1572449494.785024,286398.000,49772,1,H0,1,100,94.887
1572449494.917773,286502.000,49790,1,H0,1,100,94.891
1572449495.051799,286607.000,49809,1,H0,1,100,94.883
1572449495.185825,286712.000,49826,1,H0,1,100,94.880
1572449495.318574,286816.000,49844,1,H0,1,100,94.880
1572449495.451324,286920.000,49862,1,H0,1,100,94.887
1572449495.582797,287023.000,49880,1,H0,1,100,94.883
1572449495.716822,287128.000,49898,1,H0,1,100,94.887
1572449495.848295,287231.000,49916,1,H0,1,100,94.880
1572449495.981045,287335.000,49934,1,H0,1,100,94.876
1572449496.116347,287441.000,49953,1,H0,1,100,94.883
1572449496.250373,287546.000,49971,1,H0,1,100,94.883
1572449496.383122,287650.000,50005,1,H0,1,100,94.880
1572449496.517148,287755.000,50023,1,H0,1,100,94.880
1572449496.651174,287860.000,50041,1,H0,1,100,94.880
1572449496.781370,287962.000,50059,1,H0,1,100,94.883
1572449496.915396,288067.000,50077,1,H0,1,100,94.880
1572449497.049422,288172.000,50096,1,H0,1,100,94.887
1572449497.182172,288276.000,50114,1,H0,1,100,94.880
1572449497.316197,288381.000,50132,1,H0,1,100,94.876
1572449497.452776,288488.000,50150,1,H0,1,100,94.876
1572449497.584249,288591.000,50168,1,H0,1,100,94.876
1572449497.715722,288694.000,50186,1,H0,1,100,94.868
1572449497.848471,288798.000,50204,1,H0,1,100,94.872
1572449497.979944,288901.000,50222,1,H0,1,100,94.872
1572449498.112694,289005.000,50241,1,H0,1,100,94.872
1572449498.246720,289110.000,50259,1,H0,1,100,94.868
1572449498.380745,289215.000,50277,1,H0,1,100,94.872
1572449498.513495,289319.000,50295,1,H0,1,100,94.872
1572449498.646244,289423.000,50313,1,H0,1,100,94.864
1572449498.779632,289527.500,50334,2,H0,1,100,94.868
1572449498.913019,289632.000,50334,2,H0,1,100,94.864
1572449499.045769,289736.000,50353,1,H0,1,100,94.861
1572449499.178518,289840.000,50373,1,H0,1,100,94.864
1572449499.315097,289947.000,50391,1,H0,1,100,94.868
1572449499.449123,290052.000,50425,1,H0,1,100,94.864
1572449499.583149,290157.000,50443,1,H0,1,100,94.864
1572449499.717175,290262.000,50461,1,H0,1,100,94.864
1572449499.851200,290367.000,50479,1,H0,1,100,94.861
1572449499.981397,290469.000,50497,1,H0,1,100,94.857
1572449500.115423,290574.000,50516,1,H0,1,100,94.857
1572449500.250725,290680.000,50534,1,H0,1,100,94.861
1572449500.383474,290784.000,50552,1,H0,1,100,94.861
1572449500.517500,290889.000,50570,1,H0,1,100,94.857
1572449500.652802,290995.000,50588,1,H0,1,100,94.857
1572449500.784275,291098.000,50606,1,H0,1,100,94.849
1572449500.915748,291201.000,50624,1,H0,1,100,94.845
1572449501.048498,291305.000,50642,1,H0,1,100,94.849
1572449501.179971,291408.000,50661,1,H0,1,100,94.845
1572449501.312720,291512.000,50679,1,H0,1,100,94.849
1572449501.446746,291617.000,50697,1,H0,1,100,94.849
1572449501.580772,291722.000,50715,1,H0,1,100,94.849
1572449501.714798,291827.000,50733,1,H0,1,100,94.845
1572449501.846271,291930.000,50751,1,H0,1,100,94.842
1572449501.979020,292034.000,50769,1,H0,1,100,94.849
1572449502.113046,292139.000,50788,1,H0,1,100,94.845
1572449502.247072,292244.000,50806,1,H0,1,100,94.845
1572449502.379821,292348.000,50823,1,H0,1,100,94.845
1572449502.516400,292455.000,50841,1,H0,1,100,94.849
1572449502.650426,292560.000,50859,1,H0,1,100,94.849
1572449502.781898,292663.000,50877,1,H0,1,100,94.845
1572449502.915924,292768.000,50895,1,H0,1,100,94.838
1572449503.049950,292873.000,50913,1,H0,1,100,94.838
1572449503.180147,292975.000,50932,1,H0,1,100,94.842
1572449503.314173,293080.000,50966,1,H0,1,100,94.842
1572449503.450751,293187.000,50984,1,H0,1,100,94.842
1572449503.583501,293291.000,51002,1,H0,1,100,94.845
1572449503.717526,293396.000,51020,1,H0,1,100,94.838
1572449503.851552,293501.000,51038,1,H0,1,100,94.834
1572449503.983025,293604.000,51056,1,H0,1,100,94.842
1572449504.114498,293707.000,51075,1,H0,1,100,94.842
1572449504.247248,293811.000,51093,1,H0,1,100,94.838
1572449504.379997,293915.000,51111,1,H0,1,100,94.834
1572449504.512747,294019.000,51129,1,H0,1,100,94.838
1572449504.646772,294124.000,51147,1,H0,1,100,94.838
1572449504.780798,294229.000,51165,1,H0,1,100,94.834
1572449504.914824,294334.000,51183,1,H0,1,100,94.842
1572449505.046297,294437.000,51201,1,H0,1,100,94.834
1572449505.179046,294541.000,51220,1,H0,1,100,94.838
1572449505.313072,294646.000,51241,2,H0,1,100,94.826
1572449505.447098,294751.000,51241,2,H0,1,100,94.834
1572449505.579848,294855.000,51260,1,H0,1,100,94.826
1572449505.716426,294962.000,51279,1,H0,1,100,94.830
1572449505.851728,295068.000,51297,1,H0,1,100,94.826
1572449505.981925,295170.000,51315,1,H0,1,100,94.834
1572449506.115951,295275.000,51333,1,H0,1,100,94.830
1572449506.249977,295380.000,51352,1,H0,1,100,94.830
1572449506.381450,295483.000,51370,1,H0,1,100,94.830
1572449506.515476,295588.000,51404,1,H0,1,100,94.830
1572449506.652054,295695.000,51422,1,H0,1,100,94.826
1572449506.784804,295799.000,51440,1,H0,1,100,94.830
1572449506.917553,295903.000,51458,1,H0,1,100,94.822
1572449507.050302,296007.000,51476,1,H0,1,100,94.822
1572449507.181775,296110.000,51495,1,H0,1,100,94.826
1572449507.313248,296213.000,51513,1,H0,1,100,94.822
1572449507.445998,296317.000,51531,1,H0,1,100,94.830
1572449507.580024,296422.000,51549,1,H0,1,100,94.815
1572449507.712773,296526.000,51567,1,H0,1,100,94.826
1572449507.846799,296631.000,51585,1,H0,1,100,94.822
1572449507.978272,296734.000,51603,1,H0,1,100,94.815
1572449508.112298,296839.000,51621,1,H0,1,100,94.815
1572449508.243771,296942.000,51640,1,H0,1,100,94.819
1572449508.376520,297046.000,51658,1,H0,1,100,94.811
1572449508.510546,297151.000,51676,1,H0,1,100,94.822
1572449508.644572,297256.000,51694,1,H0,1,100,94.815
1572449508.777321,297360.000,51712,1,H0,1,100,94.822
1572449508.913900,297467.000,51730,1,H0,1,100,94.811
1572449509.046649,297571.000,51748,1,H0,1,100,94.807
1572449509.176846,297673.000,51766,1,H0,1,100,94.815
1572449509.310871,297778.000,51785,1,H0,1,100,94.807
1572449509.444897,297883.000,51802,1,H0,1,100,94.815
1572449509.577647,297987.000,51820,1,H0,1,100,94.811
1572449509.711673,298092.000,51838,1,H0,1,100,94.807
1572449509.848251,298199.000,51856,1,H0,1,100,94.815
1572449509.981001,298303.000,51874,1,H0,1,100,94.815
1572449510.113750,298407.000,51892,1,H0,1,100,94.803
1572449510.246500,298511.000,51910,1,H0,1,100,94.811
1572449510.377972,298614.000,51929,1,H0,1,100,94.819
1572449510.509445,298717.000,51963,1,H0,1,100,94.815
1572449510.643471,298822.000,51981,1,H0,1,100,94.807
1572449510.777497,298927.000,51999,1,H0,1,100,94.803
1572449510.910246,299031.000,52017,1,H0,1,100,94.803
1572449511.044272,299136.000,52035,1,H0,1,100,94.800
1572449511.175745,299239.000,52053,1,H0,1,100,94.811
1572449511.308495,299343.000,52072,1,H0,1,100,94.803
1572449511.439968,299446.000,52090,1,H0,1,100,94.807
1572449511.572717,299550.000,52108,1,H0,1,100,94.807
1572449511.708019,299656.000,52126,1,H0,1,100,94.803
1572449511.841407,299760.500,52147,2,H0,1,100,94.811
1572449511.974794,299865.000,52147,2,H0,1,100,94.807
1572449512.110097,299971.000,52166,1,H0,1,100,94.800
1572449512.244123,300076.000,52185,1,H0,1,100,94.803
1572449512.374319,300178.000,52204,1,H0,1,100,94.807
1572449512.508345,300283.000,52222,1,H0,1,100,94.800
1572449512.642371,300388.000,52240,1,H0,1,100,94.800
1572449512.775120,300492.000,52257,1,H0,1,100,94.803
1572449512.909146,300597.000,52275,1,H0,1,100,94.788
1572449513.045725,300704.000,52293,1,H0,1,100,94.792
1572449513.177198,300807.000,52311,1,H0,1,100,94.792
1572449513.308671,300910.000,52329,1,H0,1,100,94.792
1572449513.441420,301014.000,52348,1,H0,1,100,94.788
1572449513.572893,301117.000,52366,1,H0,1,100,94.792
1572449513.705642,301221.000,52384,1,H0,1,100,94.792
1572449513.839668,301326.000,52418,1,H0,1,100,94.796
1572449513.973694,301431.000,52436,1,H0,1,100,94.788
1572449514.106443,301535.000,52454,1,H0,1,100,94.788
1572449514.239193,301639.000,52473,1,H0,1,100,94.788
1572449514.370666,301742.000,52491,1,H0,1,100,94.788
1572449514.504692,301847.000,52509,1,H0,1,100,94.784
1572449514.636165,301950.000,52527,1,H0,1,100,94.784
1572449514.768914,302054.000,52545,1,H0,1,100,94.788
1572449514.905493,302161.000,52563,1,H0,1,100,94.788
1572449515.039519,302266.000,52581,1,H0,1,100,94.784
1572449515.172268,302370.000,52599,1,H0,1,100,94.784
1572449515.306294,302475.000,52618,1,H0,1,100,94.773
1572449515.440320,302580.000,52636,1,H0,1,100,94.784
1572449515.570516,302682.000,52654,1,H0,1,100,94.777
1572449515.704542,302787.000,52672,1,H0,1,100,94.777
1572449515.838568,302892.000,52690,1,H0,1,100,94.777
1572449515.971317,302996.000,52708,1,H0,1,100,94.777
1572449516.105343,303101.000,52726,1,H0,1,100,94.773
1572449516.241922,303208.000,52744,1,H0,1,100,94.777
1572449516.373395,303311.000,52763,1,H0,1,100,94.777
1572449516.504868,303414.000,52781,1,H0,1,100,94.777
1572449516.637617,303518.000,52799,1,H0,1,100,94.777
1572449516.769090,303621.000,52817,1,H0,1,100,94.773
1572449516.901839,303725.000,52834,1,H0,1,100,94.777
1572449517.035865,303830.000,52852,1,H0,1,100,94.773
1572449517.169891,303935.000,52870,1,H0,1,100,94.780
1572449517.303917,304040.000,52888,1,H0,1,100,94.777
1572449517.435390,304143.000,52907,1,H0,1,100,94.773
1572449517.568139,304247.000,52925,1,H0,1,100,94.773
1572449517.702165,304352.000,52943,1,H0,1,100,94.777
1572449517.836191,304457.000,52977,1,H0,1,100,94.765
1572449517.968940,304561.000,52995,1,H0,1,100,94.761
1572449518.105519,304668.000,53013,1,H0,1,100,94.765
1572449518.239545,304773.000,53031,1,H0,1,100,94.761
1572449518.372933,304877.500,53053,2,H0,1,100,94.765
1572449518.506320,304982.000,53053,2,H0,1,100,94.765
1572449518.640346,305087.000,53072,1,H0,1,100,94.758
1572449518.770543,305189.000,53091,1,H0,1,100,94.765
1572449518.904568,305294.000,53109,1,H0,1,100,94.758
1572449519.041147,305401.000,53127,1,H0,1,100,94.761
1572449519.173897,305505.000,53145,1,H0,1,100,94.765
1572449519.307922,305610.000,53163,1,H0,1,100,94.761
1572449519.441948,305715.000,53182,1,H0,1,100,94.758
