EpochTimestamp,EmotiBitTimestamp,PacketNumber,DataLength,TypeTag,ProtocolVersion,DataReliability,PI
1572448506.172508,4166541.000,17695,7,PI,1,100,182544
1572448506.172508,4166541.000,17695,7,PI,1,100,182540
1572448506.172508,4166541.000,17695,7,PI,1,100,182561
1572448506.172508,4166541.000,17695,7,PI,1,100,182579
1572448506.172508,4166541.000,17695,7,PI,1,100,182586
1572448506.172508,4166541.000,17695,7,PI,1,100,182459
1572448506.172508,4166541.000,17695,7,PI,1,100,182626
1572448506.211187,4166571.333,17713,3,PI,1,100,182652
1572448506.249866,4166601.667,17713,3,PI,1,100,182655
1572448506.288544,4166632.000,17713,3,PI,1,100,182688
1572448506.332749,4166666.667,17731,3,PI,1,100,182709
1572448506.376953,4166701.333,17731,3,PI,1,100,182777
1572448506.421157,4166736.000,17731,3,PI,1,100,182795
1572448506.458773,4166765.500,17749,4,PI,1,100,182833
1572448506.496389,4166795.000,17749,4,PI,1,100,182828
1572448506.534005,4166824.500,17749,4,PI,1,100,182681
1572448506.571622,4166854.000,17749,4,PI,1,100,182487
1572448506.616676,4166889.333,17767,3,PI,1,100,182384
1572448506.661730,4166924.667,17767,3,PI,1,100,182463
1572448506.706784,4166960.000,17767,3,PI,1,100,182483
1572448506.745038,4166990.000,17785,3,PI,1,100,182558
1572448506.783292,4167020.000,17785,3,PI,1,100,182565
1572448506.821546,4167050.000,17785,3,PI,1,100,182557
1572448506.860224,4167080.333,17803,3,PI,1,100,182500
1572448506.898903,4167110.667,17803,3,PI,1,100,182508
1572448506.937582,4167141.000,17803,3,PI,1,100,182468
1572448506.975410,4167170.667,17821,3,PI,1,100,182589
1572448507.013239,4167200.333,17821,3,PI,1,100,182588
1572448507.051068,4167230.000,17821,3,PI,1,100,182622
1572448507.092509,4167262.500,17837,4,PI,1,100,182652
1572448507.133950,4167295.000,17837,4,PI,1,100,182654
1572448507.175392,4167327.500,17837,4,PI,1,100,182697
1572448507.216833,4167360.000,17837,4,PI,1,100,182739
1572448507.255512,4167390.333,17855,3,PI,1,100,182705
1572448507.294191,4167420.667,17855,3,PI,1,100,182736
1572448507.332870,4167451.000,17855,3,PI,1,100,182771
1572448507.371548,4167481.333,17874,3,PI,1,100,182775
1572448507.410227,4167511.667,17874,3,PI,1,100,182819
1572448507.448906,4167542.000,17874,3,PI,1,100,182854
1572448507.488009,4167572.667,17892,3,PI,1,100,182870
1572448507.527113,4167603.333,17892,3,PI,1,100,182807
1572448507.566217,4167634.000,17892,3,PI,1,100,182600
1572448507.607977,4167666.750,17910,4,PI,1,100,182507
1572448507.649738,4167699.500,17910,4,PI,1,100,182538
1572448507.691498,4167732.250,17910,4,PI,1,100,182587
1572448507.733258,4167765.000,17910,4,PI,1,100,182653
1572448507.771937,4167795.333,17928,3,PI,1,100,182685
1572448507.810615,4167825.667,17928,3,PI,1,100,182675
1572448507.849294,4167856.000,17928,3,PI,1,100,182634
1572448507.888398,4167886.667,17946,3,PI,1,100,182631
1572448507.927502,4167917.333,17946,3,PI,1,100,182633
1572448507.966605,4167948.000,17946,3,PI,1,100,182684
1572448508.010385,4167982.333,17964,3,PI,1,100,182712
1572448508.054164,4168016.667,17964,3,PI,1,100,182753
1572448508.097943,4168051.000,17964,3,PI,1,100,182760
1572448508.134922,4168080.000,17982,4,PI,1,100,182804
1572448508.171900,4168109.000,17982,4,PI,1,100,182807
1572448508.208879,4168138.000,17982,4,PI,1,100,182861
1572448508.245857,4168167.000,17982,4,PI,1,100,182869
1572448508.285386,4168198.000,18000,3,PI,1,100,182877
1572448508.324915,4168229.000,18000,3,PI,1,100,182851
1572448508.364444,4168260.000,18000,3,PI,1,100,182905
1572448508.409073,4168295.000,18019,3,PI,1,100,182929
1572448508.453702,4168330.000,18019,3,PI,1,100,182968
1572448508.498331,4168365.000,18019,3,PI,1,100,182996
1572448508.537010,4168395.333,18037,3,PI,1,100,182891
1572448508.575689,4168425.667,18037,3,PI,1,100,182658
1572448508.614367,4168456.000,18037,3,PI,1,100,182556
1572448508.652621,4168486.000,18055,4,PI,1,100,182587
1572448508.690875,4168516.000,18055,4,PI,1,100,182666
1572448508.729129,4168546.000,18055,4,PI,1,100,182695
1572448508.767382,4168576.000,18055,4,PI,1,100,182739
1572448508.808186,4168608.000,18073,2,PI,1,100,182703
1572448508.848990,4168640.000,18073,2,PI,1,100,182645
1572448508.891069,4168673.000,18091,4,PI,1,100,182630
1572448508.933148,4168706.000,18091,4,PI,1,100,182633
1572448508.975227,4168739.000,18091,4,PI,1,100,182675
1572448509.017306,4168772.000,18091,4,PI,1,100,182735
1572448509.056410,4168802.667,18109,3,PI,1,100,182768
1572448509.095514,4168833.333,18109,3,PI,1,100,182784
1572448509.134617,4168864.000,18109,3,PI,1,100,182835
1572448509.173296,4168894.333,18127,3,PI,1,100,182817
1572448509.211975,4168924.667,18127,3,PI,1,100,182824
1572448509.250654,4168955.000,18127,3,PI,1,100,182771
1572448509.289757,4168985.667,18146,3,PI,1,100,182777
1572448509.328861,4169016.333,18146,3,PI,1,100,182779
1572448509.367965,4169047.000,18146,3,PI,1,100,182769
1572448509.409725,4169079.750,18164,4,PI,1,100,182753
1572448509.451485,4169112.500,18164,4,PI,1,100,182753
1572448509.493246,4169145.250,18164,4,PI,1,100,182736
1572448509.535006,4169178.000,18164,4,PI,1,100,182767
1572448509.573684,4169208.333,18182,3,PI,1,100,182701
1572448509.612363,4169238.667,18182,3,PI,1,100,182568
1572448509.651042,4169269.000,18182,3,PI,1,100,182520
1572448509.690146,4169299.667,18200,3,PI,1,100,182572
1572448509.729249,4169330.333,18200,3,PI,1,100,182630
1572448509.768353,4169361.000,18200,3,PI,1,100,182672
1572448509.813408,4169396.333,18218,3,PI,1,100,182467
1572448509.858462,4169431.667,18218,3,PI,1,100,182663
1572448509.903516,4169467.000,18218,3,PI,1,100,182388
1572448509.940176,4169495.750,18235,4,PI,1,100,182444
1572448509.976836,4169524.500,18235,4,PI,1,100,182433
1572448510.013495,4169553.250,18235,4,PI,1,100,182514
1572448510.050155,4169582.000,18235,4,PI,1,100,182558
1572448510.094360,4169616.667,18253,3,PI,1,100,182574
1572448510.138564,4169651.333,18253,3,PI,1,100,182603
1572448510.182768,4169686.000,18253,3,PI,1,100,182704
1572448510.221447,4169716.333,18271,3,PI,1,100,182688
1572448510.260125,4169746.667,18271,3,PI,1,100,182645
1572448510.298804,4169777.000,18271,3,PI,1,100,182498
1572448510.337058,4169807.000,18290,3,PI,1,100,182463
1572448510.375311,4169837.000,18290,3,PI,1,100,182496
1572448510.413565,4169867.000,18290,3,PI,1,100,182552
1572448510.452244,4169897.333,18308,3,PI,1,100,182608
1572448510.490923,4169927.667,18308,3,PI,1,100,182640
1572448510.529601,4169958.000,18308,3,PI,1,100,182684
1572448510.571362,4169990.750,18326,4,PI,1,100,182663
1572448510.613122,4170023.500,18326,4,PI,1,100,182656
1572448510.654882,4170056.250,18326,4,PI,1,100,183030
1572448510.696642,4170089.000,18326,4,PI,1,100,182600
1572448510.735321,4170119.333,18344,3,PI,1,100,182553
1572448510.774000,4170149.667,18344,3,PI,1,100,182570
1572448510.812678,4170180.000,18344,3,PI,1,100,182571
1572448510.852207,4170211.000,18362,3,PI,1,100,182644
1572448510.891736,4170242.000,18362,3,PI,1,100,182658
1572448510.931265,4170273.000,18362,3,PI,1,100,182709
1572448510.969094,4170302.667,18380,3,PI,1,100,182759
1572448511.006922,4170332.333,18380,3,PI,1,100,182808
1572448511.044751,4170362.000,18380,3,PI,1,100,182791
1572448511.086511,4170394.750,18396,4,PI,1,100,182829
1572448511.128271,4170427.500,18396,4,PI,1,100,182885
1572448511.170032,4170460.250,18396,4,PI,1,100,182922
1572448511.211792,4170493.000,18396,4,PI,1,100,182856
1572448511.250470,4170523.333,18414,3,PI,1,100,182888
1572448511.289149,4170553.667,18414,3,PI,1,100,182880
1572448511.327828,4170584.000,18414,3,PI,1,100,182912
1572448511.372882,4170619.333,18433,3,PI,1,100,182911
1572448511.417937,4170654.667,18433,3,PI,1,100,182883
1572448511.462991,4170690.000,18433,3,PI,1,100,182774
1572448511.501670,4170720.333,18451,3,PI,1,100,182639
1572448511.540348,4170750.667,18451,3,PI,1,100,182577
1572448511.579027,4170781.000,18451,3,PI,1,100,182632
1572448511.616962,4170810.750,18469,4,PI,1,100,182628
1572448511.654897,4170840.500,18469,4,PI,1,100,182744
1572448511.692832,4170870.250,18469,4,PI,1,100,182714
1572448511.730767,4170900.000,18469,4,PI,1,100,182698
1572448511.772208,4170932.500,18487,2,PI,1,100,182662
1572448511.813649,4170965.000,18487,2,PI,1,100,182713
1572448511.855729,4170998.000,18505,4,PI,1,100,182731
1572448511.897808,4171031.000,18505,4,PI,1,100,182767
1572448511.939887,4171064.000,18505,4,PI,1,100,182760
1572448511.981966,4171097.000,18505,4,PI,1,100,182764
1572448512.021494,4171128.000,18523,3,PI,1,100,182797
1572448512.061023,4171159.000,18523,3,PI,1,100,182852
1572448512.100552,4171190.000,18523,3,PI,1,100,182870
1572448512.138381,4171219.667,18541,3,PI,1,100,182902
1572448512.176209,4171249.333,18541,3,PI,1,100,182883
1572448512.214038,4171279.000,18541,3,PI,1,100,182893
1572448512.253142,4171309.667,18559,3,PI,1,100,182903
1572448512.292245,4171340.333,18559,3,PI,1,100,182908
1572448512.331349,4171371.000,18559,3,PI,1,100,182751
1572448512.373109,4171403.750,18578,4,PI,1,100,182650
1572448512.414870,4171436.500,18578,4,PI,1,100,182601
1572448512.456630,4171469.250,18578,4,PI,1,100,182654
1572448512.498390,4171502.000,18578,4,PI,1,100,182699
1572448512.538429,4171533.400,18599,5,PI,1,100,182707
1572448512.578468,4171564.800,18599,5,PI,1,100,182734
1572448512.618507,4171596.200,18599,5,PI,1,100,182697
1572448512.658545,4171627.600,18599,5,PI,1,100,182651
1572448512.698584,4171659.000,18599,5,PI,1,100,182652
1572448512.737263,4171689.333,18619,3,PI,1,100,182680
1572448512.775942,4171719.667,18619,3,PI,1,100,182704
1572448512.814620,4171750.000,18619,3,PI,1,100,182751
1572448512.853724,4171780.667,18637,3,PI,1,100,182714
1572448512.892828,4171811.333,18637,3,PI,1,100,182748
1572448512.931932,4171842.000,18637,3,PI,1,100,182774
1572448512.973692,4171874.750,18655,4,PI,1,100,182778
1572448513.015452,4171907.500,18655,4,PI,1,100,182804
1572448513.057213,4171940.250,18655,4,PI,1,100,182829
1572448513.098973,4171973.000,18655,4,PI,1,100,182811
1572448513.137227,4172003.000,18673,3,PI,1,100,182800
1572448513.175480,4172033.000,18673,3,PI,1,100,182653
1572448513.213734,4172063.000,18673,3,PI,1,100,182513
1572448513.252413,4172093.333,18691,3,PI,1,100,182503
1572448513.291091,4172123.667,18691,3,PI,1,100,182558
1572448513.329770,4172154.000,18691,3,PI,1,100,182609
1572448513.373549,4172188.333,18710,3,PI,1,100,182620
1572448513.417328,4172222.667,18710,3,PI,1,100,182630
1572448513.461107,4172257.000,18710,3,PI,1,100,182603
1572448513.498086,4172286.000,18728,4,PI,1,100,182500
1572448513.535065,4172315.000,18728,4,PI,1,100,182570
1572448513.572043,4172344.000,18728,4,PI,1,100,182603
1572448513.609022,4172373.000,18728,4,PI,1,100,182659
1572448513.648125,4172403.667,18745,3,PI,1,100,182679
1572448513.687229,4172434.333,18745,3,PI,1,100,182671
1572448513.726333,4172465.000,18745,3,PI,1,100,182696
1572448513.770962,4172500.000,18762,3,PI,1,100,182696
1572448513.815592,4172535.000,18762,3,PI,1,100,182689
1572448513.860221,4172570.000,18762,3,PI,1,100,182733
1572448513.898900,4172600.333,18780,3,PI,1,100,182717
1572448513.937578,4172630.667,18780,3,PI,1,100,182764
1572448513.976257,4172661.000,18780,3,PI,1,100,182764
1572448514.013873,4172690.500,18798,4,PI,1,100,182628
1572448514.051489,4172720.000,18798,4,PI,1,100,182469
1572448514.089105,4172749.500,18798,4,PI,1,100,182477
1572448514.126721,4172779.000,18798,4,PI,1,100,182447
1572448514.171351,4172814.000,18816,3,PI,1,100,182518
1572448514.215980,4172849.000,18816,3,PI,1,100,182486
1572448514.260609,4172884.000,18816,3,PI,1,100,182542
1572448514.298863,4172914.000,18834,3,PI,1,100,182516
1572448514.337116,4172944.000,18834,3,PI,1,100,182472
1572448514.375370,4172974.000,18834,3,PI,1,100,182479
1572448514.414049,4173004.333,18853,3,PI,1,100,182485
1572448514.452728,4173034.667,18853,3,PI,1,100,182500
1572448514.491406,4173065.000,18853,3,PI,1,100,182537
1572448514.530085,4173095.333,18871,3,PI,1,100,182547
1572448514.568764,4173125.667,18871,3,PI,1,100,182568
1572448514.607443,4173156.000,18871,3,PI,1,100,182597
1572448514.649522,4173189.000,18889,4,PI,1,100,182608
1572448514.691601,4173222.000,18889,4,PI,1,100,182586
1572448514.733680,4173255.000,18889,4,PI,1,100,182594
1572448514.775759,4173288.000,18889,4,PI,1,100,182604
1572448514.815288,4173319.000,18907,3,PI,1,100,182652
1572448514.854816,4173350.000,18907,3,PI,1,100,182659
1572448514.894345,4173381.000,18907,3,PI,1,100,182588
1572448514.933024,4173411.333,18925,3,PI,1,100,182398
1572448514.971703,4173441.667,18925,3,PI,1,100,182373
1572448515.010381,4173472.000,18925,3,PI,1,100,182437
1572448515.055435,4173507.333,18943,3,PI,1,100,182465
1572448515.100490,4173542.667,18943,3,PI,1,100,182481
1572448515.145544,4173578.000,18943,3,PI,1,100,182511
1572448515.184223,4173608.333,18961,3,PI,1,100,182483
1572448515.222902,4173638.667,18961,3,PI,1,100,182439
1572448515.261580,4173669.000,18961,3,PI,1,100,182434
1572448515.298559,4173698.000,18979,4,PI,1,100,182413
1572448515.335537,4173727.000,18979,4,PI,1,100,182459
1572448515.372516,4173756.000,18979,4,PI,1,100,182457
1572448515.409494,4173785.000,18979,4,PI,1,100,182475
1572448515.454124,4173820.000,18998,3,PI,1,100,182502
1572448515.498753,4173855.000,18998,3,PI,1,100,182475
1572448515.543382,4173890.000,18998,3,PI,1,100,182499
1572448515.582486,4173920.667,19016,3,PI,1,100,182508
1572448515.621590,4173951.333,19016,3,PI,1,100,182519
1572448515.660694,4173982.000,19016,3,PI,1,100,182535
1572448515.699372,4174012.333,19034,3,PI,1,100,182527
1572448515.738051,4174042.667,19034,3,PI,1,100,182555
1572448515.776730,4174073.000,19034,3,PI,1,100,182580
1572448515.816684,4174104.333,19052,3,PI,1,100,182550
1572448515.856637,4174135.667,19052,3,PI,1,100,182379
1572448515.896591,4174167.000,19052,3,PI,1,100,182267
1572448515.938351,4174199.750,19070,4,PI,1,100,182257
1572448515.980112,4174232.500,19070,4,PI,1,100,182248
1572448516.021872,4174265.250,19070,4,PI,1,100,182247
1572448516.063632,4174298.000,19070,4,PI,1,100,182262
1572448516.102736,4174328.667,19088,3,PI,1,100,182293
1572448516.141840,4174359.333,19088,3,PI,1,100,182261
1572448516.180943,4174390.000,19088,3,PI,1,100,182239
1572448516.219622,4174420.333,19106,3,PI,1,100,182215
1572448516.258301,4174450.667,19106,3,PI,1,100,182231
1572448516.296980,4174481.000,19106,3,PI,1,100,182256
1572448516.342034,4174516.333,19123,3,PI,1,100,182244
1572448516.387088,4174551.667,19123,3,PI,1,100,182287
1572448516.432142,4174587.000,19123,3,PI,1,100,182268
1572448516.469121,4174616.000,19142,4,PI,1,100,182292
1572448516.506100,4174645.000,19142,4,PI,1,100,182285
1572448516.543078,4174674.000,19142,4,PI,1,100,182299
1572448516.580057,4174703.000,19142,4,PI,1,100,182304
1572448516.619161,4174733.667,19160,3,PI,1,100,182339
1572448516.658264,4174764.333,19160,3,PI,1,100,182284
1572448516.697368,4174795.000,19160,3,PI,1,100,182348
1572448516.742422,4174830.333,19178,3,PI,1,100,182364
1572448516.787477,4174865.667,19178,3,PI,1,100,182375
1572448516.832531,4174901.000,19178,3,PI,1,100,182282
1572448516.870785,4174931.000,19196,3,PI,1,100,182126
1572448516.909038,4174961.000,19196,3,PI,1,100,182038
1572448516.947292,4174991.000,19196,3,PI,1,100,182048
1572448516.986396,4175021.667,19214,3,PI,1,100,182052
1572448517.025500,4175052.333,19214,3,PI,1,100,182075
1572448517.064603,4175083.000,19214,3,PI,1,100,182080
1572448517.103282,4175113.333,19232,3,PI,1,100,182071
1572448517.141961,4175143.667,19232,3,PI,1,100,182058
1572448517.180640,4175174.000,19232,3,PI,1,100,182019
1572448517.222081,4175206.500,19248,4,PI,1,100,181978
1572448517.263522,4175239.000,19248,4,PI,1,100,181932
1572448517.304964,4175271.500,19248,4,PI,1,100,181856
1572448517.346405,4175304.000,19248,4,PI,1,100,181857
1572448517.385084,4175334.333,19266,3,PI,1,100,181825
1572448517.423763,4175364.667,19266,3,PI,1,100,181880
1572448517.462441,4175395.000,19266,3,PI,1,100,181879
1572448517.500270,4175424.667,19285,3,PI,1,100,181867
1572448517.538099,4175454.333,19285,3,PI,1,100,181850
1572448517.575927,4175484.000,19285,3,PI,1,100,181841
1572448517.614606,4175514.333,19303,3,PI,1,100,181832
1572448517.653285,4175544.667,19303,3,PI,1,100,181871
1572448517.691963,4175575.000,19303,3,PI,1,100,181883
1572448517.733724,4175607.750,19321,4,PI,1,100,181894
1572448517.775484,4175640.500,19321,4,PI,1,100,181913
1572448517.817244,4175673.250,19321,4,PI,1,100,181905
1572448517.859004,4175706.000,19321,4,PI,1,100,181738
1572448517.897683,4175736.333,19339,3,PI,1,100,181673
1572448517.936362,4175766.667,19339,3,PI,1,100,181668
1572448517.975041,4175797.000,19339,3,PI,1,100,181688
1572448518.014144,4175827.667,19357,3,PI,1,100,181673
1572448518.053248,4175858.333,19357,3,PI,1,100,181709
1572448518.092352,4175889.000,19357,3,PI,1,100,181676
1572448518.136981,4175924.000,19375,3,PI,1,100,181683
1572448518.181610,4175959.000,19375,3,PI,1,100,181649
1572448518.226240,4175994.000,19375,3,PI,1,100,181628
1572448518.263218,4176023.000,19393,4,PI,1,100,181633
1572448518.300197,4176052.000,19393,4,PI,1,100,181663
1572448518.337175,4176081.000,19393,4,PI,1,100,181680
1572448518.374154,4176110.000,19393,4,PI,1,100,181690
1572448518.413683,4176141.000,19411,3,PI,1,100,181638
1572448518.453212,4176172.000,19411,3,PI,1,100,181687
1572448518.492740,4176203.000,19411,3,PI,1,100,181655
1572448518.536520,4176237.333,19430,3,PI,1,100,181671
1572448518.580299,4176271.667,19430,3,PI,1,100,181664
1572448518.624078,4176306.000,19430,3,PI,1,100,181727
1572448518.662757,4176336.333,19448,3,PI,1,100,181682
1572448518.701435,4176366.667,19448,3,PI,1,100,181761
1572448518.740114,4176397.000,19448,3,PI,1,100,181740
1572448518.778049,4176426.750,19466,4,PI,1,100,181762
1572448518.815984,4176456.500,19466,4,PI,1,100,181729
1572448518.853919,4176486.250,19466,4,PI,1,100,181553
1572448518.891854,4176516.000,19466,4,PI,1,100,181473
1572448518.936483,4176551.000,19484,3,PI,1,100,181516
1572448518.981112,4176586.000,19484,3,PI,1,100,181525
1572448519.025741,4176621.000,19484,3,PI,1,100,181578
1572448519.066035,4176652.600,19505,5,PI,1,100,181583
1572448519.106329,4176684.200,19505,5,PI,1,100,181582
1572448519.146623,4176715.800,19505,5,PI,1,100,181557
1572448519.186917,4176747.400,19505,5,PI,1,100,181551
1572448519.227211,4176779.000,19505,5,PI,1,100,181537
1572448519.265889,4176809.333,19525,3,PI,1,100,181590
1572448519.304568,4176839.667,19525,3,PI,1,100,181580
1572448519.343247,4176870.000,19525,3,PI,1,100,181623
1572448519.380863,4176899.500,19543,4,PI,1,100,181632
1572448519.418479,4176929.000,19543,4,PI,1,100,181678
1572448519.456095,4176958.500,19543,4,PI,1,100,181702
1572448519.493711,4176988.000,19543,4,PI,1,100,181722
1572448519.538766,4177023.333,19562,3,PI,1,100,181746
1572448519.583820,4177058.667,19562,3,PI,1,100,181754
1572448519.628874,4177094.000,19562,3,PI,1,100,181770
1572448519.667128,4177124.000,19580,3,PI,1,100,181818
1572448519.705382,4177154.000,19580,3,PI,1,100,181824
1572448519.743635,4177184.000,19580,3,PI,1,100,181766
1572448519.782739,4177214.667,19598,3,PI,1,100,181591
1572448519.821843,4177245.333,19598,3,PI,1,100,181559
1572448519.860947,4177276.000,19598,3,PI,1,100,181581
1572448519.899625,4177306.333,19614,3,PI,1,100,181649
1572448519.938304,4177336.667,19614,3,PI,1,100,181627
1572448519.976983,4177367.000,19614,3,PI,1,100,181676
1572448520.018743,4177399.750,19632,4,PI,1,100,181657
1572448520.060503,4177432.500,19632,4,PI,1,100,181671
1572448520.102263,4177465.250,19632,4,PI,1,100,181624
1572448520.144024,4177498.000,19632,4,PI,1,100,181680
1572448520.183127,4177528.667,19650,3,PI,1,100,181713
1572448520.222231,4177559.333,19650,3,PI,1,100,181726
1572448520.261335,4177590.000,19650,3,PI,1,100,181722
1572448520.299589,4177620.000,19668,3,PI,1,100,181752
1572448520.337842,4177650.000,19668,3,PI,1,100,181743
1572448520.376096,4177680.000,19668,3,PI,1,100,181767
1572448520.420300,4177714.667,19686,3,PI,1,100,181711
1572448520.464504,4177749.333,19686,3,PI,1,100,181698
1572448520.508709,4177784.000,19686,3,PI,1,100,181599
1572448520.546006,4177813.250,19705,4,PI,1,100,181581
1572448520.583303,4177842.500,19705,4,PI,1,100,181523
1572448520.620601,4177871.750,19705,4,PI,1,100,181419
1572448520.657898,4177901.000,19705,4,PI,1,100,181296
1572448520.695727,4177930.667,19723,3,PI,1,100,181342
1572448520.733555,4177960.333,19723,3,PI,1,100,181309
1572448520.771384,4177990.000,19723,3,PI,1,100,181367
1572448520.815588,4178024.667,19741,3,PI,1,100,181376
1572448520.859792,4178059.333,19741,3,PI,1,100,181355
1572448520.903997,4178094.000,19741,3,PI,1,100,181335
1572448520.943100,4178124.667,19759,3,PI,1,100,181329
1572448520.982204,4178155.333,19759,3,PI,1,100,181320
1572448521.021308,4178186.000,19759,3,PI,1,100,181330
1572448521.058605,4178215.250,19777,4,PI,1,100,181336
1572448521.095903,4178244.500,19777,4,PI,1,100,181363
1572448521.133200,4178273.750,19777,4,PI,1,100,181393
1572448521.170497,4178303.000,19777,4,PI,1,100,181390
1572448521.215127,4178338.000,19795,3,PI,1,100,181380
1572448521.259756,4178373.000,19795,3,PI,1,100,181444
1572448521.304385,4178408.000,19795,3,PI,1,100,181453
1572448521.343489,4178438.667,19813,3,PI,1,100,181473
1572448521.382593,4178469.333,19813,3,PI,1,100,181496
1572448521.421696,4178500.000,19813,3,PI,1,100,181435
1572448521.460375,4178530.333,19831,3,PI,1,100,181248
1572448521.499054,4178560.667,19831,3,PI,1,100,181164
1572448521.537732,4178591.000,19831,3,PI,1,100,181200
1572448521.576411,4178621.333,19850,3,PI,1,100,181259
1572448521.615090,4178651.667,19850,3,PI,1,100,181348
1572448521.653769,4178682.000,19850,3,PI,1,100,181416
1572448521.695210,4178714.500,19868,4,PI,1,100,181457
1572448521.736652,4178747.000,19868,4,PI,1,100,181488
1572448521.778093,4178779.500,19868,4,PI,1,100,181489
1572448521.819535,4178812.000,19868,4,PI,1,100,181383
1572448521.858213,4178842.333,19886,3,PI,1,100,181436
1572448521.896892,4178872.667,19886,3,PI,1,100,181451
1572448521.935571,4178903.000,19886,3,PI,1,100,181509
1572448521.975099,4178934.000,19904,3,PI,1,100,181529
1572448522.014628,4178965.000,19904,3,PI,1,100,181534
1572448522.054157,4178996.000,19904,3,PI,1,100,181553
1572448522.099211,4179031.333,19922,3,PI,1,100,181584
1572448522.144266,4179066.667,19922,3,PI,1,100,181603
1572448522.189320,4179102.000,19922,3,PI,1,100,181663
1572448522.227999,4179132.333,19940,3,PI,1,100,181665
1572448522.266677,4179162.667,19940,3,PI,1,100,181612
1572448522.305356,4179193.000,19940,3,PI,1,100,181386
1572448522.343291,4179222.750,19958,4,PI,1,100,181292
1572448522.381226,4179252.500,19958,4,PI,1,100,181303
1572448522.419161,4179282.250,19958,4,PI,1,100,181413
1572448522.457096,4179312.000,19958,4,PI,1,100,181450
1572448522.500875,4179346.333,19976,3,PI,1,100,181544
1572448522.544654,4179380.667,19976,3,PI,1,100,181554
1572448522.588433,4179415.000,19976,3,PI,1,100,181565
1572448522.626687,4179445.000,19995,3,PI,1,100,181514
1572448522.664941,4179475.000,19995,3,PI,1,100,181466
1572448522.703194,4179505.000,19995,3,PI,1,100,181521
1572448522.742723,4179536.000,20013,3,PI,1,100,181573
1572448522.782252,4179567.000,20013,3,PI,1,100,181600
1572448522.821781,4179598.000,20013,3,PI,1,100,181644
1572448522.860034,4179628.000,20031,3,PI,1,100,181690
1572448522.898288,4179658.000,20031,3,PI,1,100,181710
1572448522.936542,4179688.000,20031,3,PI,1,100,181767
1572448522.978302,4179720.750,20048,4,PI,1,100,181744
1572448523.020062,4179753.500,20048,4,PI,1,100,181775
1572448523.061822,4179786.250,20048,4,PI,1,100,181707
1572448523.103583,4179819.000,20048,4,PI,1,100,181477
1572448523.143537,4179850.333,20066,3,PI,1,100,181374
1572448523.183490,4179881.667,20066,3,PI,1,100,181408
1572448523.223444,4179913.000,20066,3,PI,1,100,181467
1572448523.262123,4179943.333,20084,3,PI,1,100,181524
1572448523.300802,4179973.667,20084,3,PI,1,100,181560
1572448523.339480,4180004.000,20084,3,PI,1,100,181594
1572448523.378584,4180034.667,20102,3,PI,1,100,181603
1572448523.417688,4180065.333,20102,3,PI,1,100,181596
1572448523.456792,4180096.000,20102,3,PI,1,100,181601
1572448523.497914,4180128.250,20120,4,PI,1,100,181634
1572448523.539037,4180160.500,20120,4,PI,1,100,181684
1572448523.580160,4180192.750,20120,4,PI,1,100,181748
1572448523.621282,4180225.000,20120,4,PI,1,100,181730
1572448523.659536,4180255.000,20139,3,PI,1,100,181823
1572448523.697790,4180285.000,20139,3,PI,1,100,181848
1572448523.736043,4180315.000,20139,3,PI,1,100,181861
1572448523.774722,4180345.333,20157,3,PI,1,100,181904
1572448523.813401,4180375.667,20157,3,PI,1,100,181905
1572448523.852079,4180406.000,20157,3,PI,1,100,181805
1572448523.895859,4180440.333,20175,3,PI,1,100,181599
1572448523.939638,4180474.667,20175,3,PI,1,100,181493
1572448523.983417,4180509.000,20175,3,PI,1,100,181546
1572448524.020715,4180538.250,20191,4,PI,1,100,181585
1572448524.058012,4180567.500,20191,4,PI,1,100,181642
1572448524.095309,4180596.750,20191,4,PI,1,100,181691
1572448524.132607,4180626.000,20191,4,PI,1,100,181705
1572448524.171710,4180656.667,20209,3,PI,1,100,181687
1572448524.210814,4180687.333,20209,3,PI,1,100,181686
1572448524.249918,4180718.000,20209,3,PI,1,100,181644
1572448524.294547,4180753.000,20227,3,PI,1,100,181718
1572448524.339176,4180788.000,20227,3,PI,1,100,181731
1572448524.383806,4180823.000,20227,3,PI,1,100,181790
1572448524.422059,4180853.000,20245,3,PI,1,100,181831
1572448524.460313,4180883.000,20245,3,PI,1,100,181862
1572448524.498567,4180913.000,20245,3,PI,1,100,181901
1572448524.535864,4180942.250,20264,4,PI,1,100,181918
1572448524.573161,4180971.500,20264,4,PI,1,100,181837
1572448524.610459,4181000.750,20264,4,PI,1,100,181650
1572448524.647756,4181030.000,20264,4,PI,1,100,181483
1572448524.692385,4181065.000,20282,3,PI,1,100,181502
1572448524.737014,4181100.000,20282,3,PI,1,100,181558
1572448524.781644,4181135.000,20282,3,PI,1,100,181640
1572448524.819897,4181165.000,20300,3,PI,1,100,181659
1572448524.858151,4181195.000,20300,3,PI,1,100,181684
1572448524.896405,4181225.000,20300,3,PI,1,100,181670
1572448524.935083,4181255.333,20318,3,PI,1,100,181659
1572448524.973762,4181285.667,20318,3,PI,1,100,181596
1572448525.012441,4181316.000,20318,3,PI,1,100,181665
1572448525.051120,4181346.333,20336,3,PI,1,100,181686
1572448525.089798,4181376.667,20336,3,PI,1,100,181752
1572448525.128477,4181407.000,20336,3,PI,1,100,181780
1572448525.170556,4181440.000,20354,4,PI,1,100,181813
1572448525.212635,4181473.000,20354,4,PI,1,100,181814
1572448525.254714,4181506.000,20354,4,PI,1,100,181888
1572448525.296793,4181539.000,20354,4,PI,1,100,181890
1572448525.336322,4181570.000,20372,3,PI,1,100,181823
1572448525.375851,4181601.000,20372,3,PI,1,100,181574
1572448525.415380,4181632.000,20372,3,PI,1,100,181456
1572448525.453633,4181662.000,20390,3,PI,1,100,181490
1572448525.491887,4181692.000,20390,3,PI,1,100,181538
1572448525.530140,4181722.000,20390,3,PI,1,100,181578
1572448525.569924,4181753.200,20412,5,PI,1,100,181641
1572448525.609708,4181784.400,20412,5,PI,1,100,181637
1572448525.649492,4181815.600,20412,5,PI,1,100,181640
1572448525.689276,4181846.800,20412,5,PI,1,100,181606
1572448525.729060,4181878.000,20412,5,PI,1,100,181614
1572448525.770501,4181910.500,20432,4,PI,1,100,181653
1572448525.811943,4181943.000,20432,4,PI,1,100,181687
1572448525.853384,4181975.500,20432,4,PI,1,100,181722
1572448525.894825,4182008.000,20432,4,PI,1,100,181779
1572448525.934354,4182039.000,20450,3,PI,1,100,181811
1572448525.973883,4182070.000,20450,3,PI,1,100,181824
1572448526.013412,4182101.000,20450,3,PI,1,100,181889
1572448526.052091,4182131.333,20468,3,PI,1,100,181840
1572448526.090769,4182161.667,20468,3,PI,1,100,181744
1572448526.129448,4182192.000,20468,3,PI,1,100,181500
1572448526.174077,4182227.000,20486,3,PI,1,100,181471
1572448526.218707,4182262.000,20486,3,PI,1,100,181511
1572448526.263336,4182297.000,20486,3,PI,1,100,181570
1572448526.302865,4182328.000,20504,3,PI,1,100,181619
1572448526.342393,4182359.000,20504,3,PI,1,100,181655
1572448526.381922,4182390.000,20504,3,PI,1,100,181619
1572448526.420601,4182420.333,20522,3,PI,1,100,181623
1572448526.459280,4182450.667,20522,3,PI,1,100,181595
1572448526.497958,4182481.000,20522,3,PI,1,100,181609
1572448526.540037,4182514.000,20538,4,PI,1,100,181661
1572448526.582116,4182547.000,20538,4,PI,1,100,181669
1572448526.624196,4182580.000,20538,4,PI,1,100,181716
1572448526.666275,4182613.000,20538,4,PI,1,100,181754
1572448526.705378,4182643.667,20557,3,PI,1,100,181763
1572448526.744482,4182674.333,20557,3,PI,1,100,181802
1572448526.783586,4182705.000,20557,3,PI,1,100,181849
1572448526.822264,4182735.333,20575,3,PI,1,100,181871
1572448526.860943,4182765.667,20575,3,PI,1,100,181737
1572448526.899622,4182796.000,20575,3,PI,1,100,181516
1572448526.938726,4182826.667,20593,3,PI,1,100,181472
1572448526.977829,4182857.333,20593,3,PI,1,100,181503
1572448527.016933,4182888.000,20593,3,PI,1,100,181569
1572448527.061987,4182923.333,20611,3,PI,1,100,181630
1572448527.107042,4182958.667,20611,3,PI,1,100,181679
1572448527.152096,4182994.000,20611,3,PI,1,100,181647
1572448527.189075,4183023.000,20629,4,PI,1,100,181641
1572448527.226053,4183052.000,20629,4,PI,1,100,181587
1572448527.263032,4183081.000,20629,4,PI,1,100,181629
1572448527.300010,4183110.000,20629,4,PI,1,100,181657
1572448527.339114,4183140.667,20647,3,PI,1,100,181710
1572448527.378218,4183171.333,20647,3,PI,1,100,181738
1572448527.417322,4183202.000,20647,3,PI,1,100,181756
1572448527.462376,4183237.333,20665,3,PI,1,100,181792
1572448527.507430,4183272.667,20665,3,PI,1,100,181823
1572448527.552485,4183308.000,20665,3,PI,1,100,181839
1572448527.588825,4183336.500,20684,4,PI,1,100,181834
1572448527.625166,4183365.000,20684,4,PI,1,100,181648
1572448527.661508,4183393.500,20684,4,PI,1,100,181509
1572448527.697849,4183422.000,20684,4,PI,1,100,181474
1572448527.736527,4183452.333,20702,3,PI,1,100,181539
1572448527.775206,4183482.667,20702,3,PI,1,100,181601
1572448527.813885,4183513.000,20702,3,PI,1,100,181664
1572448527.858089,4183547.667,20720,3,PI,1,100,181684
1572448527.902293,4183582.333,20720,3,PI,1,100,181688
1572448527.946497,4183617.000,20720,3,PI,1,100,181647
1572448527.984751,4183647.000,20738,3,PI,1,100,181631
1572448528.023005,4183677.000,20738,3,PI,1,100,181684
1572448528.061258,4183707.000,20738,3,PI,1,100,181685
1572448528.098556,4183736.250,20756,4,PI,1,100,181756
1572448528.135853,4183765.500,20756,4,PI,1,100,181727
1572448528.173150,4183794.750,20756,4,PI,1,100,181793
1572448528.210448,4183824.000,20756,4,PI,1,100,181803
1572448528.251889,4183856.500,20774,2,PI,1,100,181856
1572448528.293331,4183889.000,20774,2,PI,1,100,181846
1572448528.335091,4183921.750,20792,4,PI,1,100,181790
1572448528.376851,4183954.500,20792,4,PI,1,100,181522
1572448528.418611,4183987.250,20792,4,PI,1,100,181516
1572448528.460372,4184020.000,20792,4,PI,1,100,181515
1572448528.499475,4184050.667,20810,3,PI,1,100,181591
1572448528.538579,4184081.333,20810,3,PI,1,100,181644
1572448528.577683,4184112.000,20810,3,PI,1,100,181667
1572448528.615937,4184142.000,20829,3,PI,1,100,181683
1572448528.654190,4184172.000,20829,3,PI,1,100,181647
1572448528.692444,4184202.000,20829,3,PI,1,100,181584
1572448528.731973,4184233.000,20847,3,PI,1,100,181623
1572448528.771502,4184264.000,20847,3,PI,1,100,181659
1572448528.811030,4184295.000,20847,3,PI,1,100,181696
1572448528.852153,4184327.250,20865,4,PI,1,100,181730
1572448528.893276,4184359.500,20865,4,PI,1,100,181743
1572448528.934398,4184391.750,20865,4,PI,1,100,181741
1572448528.975521,4184424.000,20865,4,PI,1,100,181790
1572448529.013775,4184454.000,20883,3,PI,1,100,181795
1572448529.052028,4184484.000,20883,3,PI,1,100,181820
1572448529.090282,4184514.000,20883,3,PI,1,100,181716
1572448529.129811,4184545.000,20901,3,PI,1,100,181510
1572448529.169340,4184576.000,20901,3,PI,1,100,181454
1572448529.208869,4184607.000,20901,3,PI,1,100,181478
1572448529.253498,4184642.000,20919,3,PI,1,100,181521
1572448529.298127,4184677.000,20919,3,PI,1,100,181563
1572448529.342756,4184712.000,20919,3,PI,1,100,181617
1572448529.380054,4184741.250,20937,4,PI,1,100,181585
1572448529.417351,4184770.500,20937,4,PI,1,100,181559
1572448529.454648,4184799.750,20937,4,PI,1,100,181506
1572448529.491946,4184829.000,20937,4,PI,1,100,181565
1572448529.531899,4184860.333,20955,3,PI,1,100,181564
1572448529.571853,4184891.667,20955,3,PI,1,100,181618
1572448529.611807,4184923.000,20955,3,PI,1,100,181613
1572448529.656436,4184958.000,20973,3,PI,1,100,181655
1572448529.701066,4184993.000,20973,3,PI,1,100,181677
1572448529.745695,4185028.000,20973,3,PI,1,100,181686
1572448529.783524,4185057.667,20991,3,PI,1,100,181674
1572448529.821352,4185087.333,20991,3,PI,1,100,181713
1572448529.859181,4185117.000,20991,3,PI,1,100,181673
1572448529.898285,4185147.667,21009,3,PI,1,100,181514
1572448529.937388,4185178.333,21009,3,PI,1,100,181378
1572448529.976492,4185209.000,21009,3,PI,1,100,181373
1572448530.018252,4185241.750,21027,4,PI,1,100,181398
1572448530.060013,4185274.500,21027,4,PI,1,100,181429
1572448530.101773,4185307.250,21027,4,PI,1,100,181455
1572448530.143533,4185340.000,21027,4,PI,1,100,181487
1572448530.182212,4185370.333,21045,3,PI,1,100,181443
1572448530.220891,4185400.667,21045,3,PI,1,100,181388
1572448530.259569,4185431.000,21045,3,PI,1,100,181375
1572448530.298673,4185461.667,21063,3,PI,1,100,181360
1572448530.337777,4185492.333,21063,3,PI,1,100,181407
1572448530.376880,4185523.000,21063,3,PI,1,100,181448
1572448530.415984,4185553.667,21079,3,PI,1,100,181464
1572448530.455088,4185584.333,21079,3,PI,1,100,181471
1572448530.494192,4185615.000,21079,3,PI,1,100,181515
1572448530.538821,4185650.000,21097,3,PI,1,100,181507
1572448530.583450,4185685.000,21097,3,PI,1,100,181538
1572448530.628080,4185720.000,21097,3,PI,1,100,181523
1572448530.666014,4185749.750,21116,4,PI,1,100,181569
1572448530.703949,4185779.500,21116,4,PI,1,100,181525
1572448530.741884,4185809.250,21116,4,PI,1,100,181393
1572448530.779819,4185839.000,21116,4,PI,1,100,181223
1572448530.823598,4185873.333,21134,3,PI,1,100,181207
1572448530.867378,4185907.667,21134,3,PI,1,100,181227
1572448530.911157,4185942.000,21134,3,PI,1,100,181259
1572448530.949410,4185972.000,21152,3,PI,1,100,181259
1572448530.987664,4186002.000,21152,3,PI,1,100,181322
1572448531.025918,4186032.000,21152,3,PI,1,100,181262
1572448531.063215,4186061.250,21170,4,PI,1,100,181234
1572448531.100513,4186090.500,21170,4,PI,1,100,181222
1572448531.137810,4186119.750,21170,4,PI,1,100,181246
1572448531.175107,4186149.000,21170,4,PI,1,100,181286
1572448531.215911,4186181.000,21188,2,PI,1,100,181308
1572448531.256715,4186213.000,21188,2,PI,1,100,181296
1572448531.298156,4186245.500,21206,4,PI,1,100,181359
1572448531.339598,4186278.000,21206,4,PI,1,100,181343
1572448531.381039,4186310.500,21206,4,PI,1,100,181374
1572448531.422481,4186343.000,21206,4,PI,1,100,181367
1572448531.461585,4186373.667,21224,3,PI,1,100,181402
1572448531.500688,4186404.333,21224,3,PI,1,100,181427
1572448531.539792,4186435.000,21224,3,PI,1,100,181444
1572448531.578471,4186465.333,21242,3,PI,1,100,181446
1572448531.617150,4186495.667,21242,3,PI,1,100,181396
1572448531.655828,4186526.000,21242,3,PI,1,100,181181
1572448531.694507,4186556.333,21261,3,PI,1,100,181080
1572448531.733186,4186586.667,21261,3,PI,1,100,181132
1572448531.771864,4186617.000,21261,3,PI,1,100,181140
1572448531.813306,4186649.500,21279,4,PI,1,100,181169
1572448531.854747,4186682.000,21279,4,PI,1,100,181181
1572448531.896189,4186714.500,21279,4,PI,1,100,181190
1572448531.937630,4186747.000,21279,4,PI,1,100,181149
1572448531.976309,4186777.333,21297,3,PI,1,100,181131
1572448532.014988,4186807.667,21297,3,PI,1,100,181146
1572448532.053666,4186838.000,21297,3,PI,1,100,181168
1572448532.093450,4186869.200,21318,5,PI,1,100,181167
1572448532.133234,4186900.400,21318,5,PI,1,100,181216
1572448532.173018,4186931.600,21318,5,PI,1,100,181219
1572448532.212802,4186962.800,21318,5,PI,1,100,181252
1572448532.252585,4186994.000,21318,5,PI,1,100,181289
1572448532.291689,4187024.667,21338,3,PI,1,100,181289
1572448532.330793,4187055.333,21338,3,PI,1,100,181292
1572448532.369897,4187086.000,21338,3,PI,1,100,181303
1572448532.411976,4187119.000,21356,4,PI,1,100,181311
1572448532.454055,4187152.000,21356,4,PI,1,100,181357
1572448532.496134,4187185.000,21356,4,PI,1,100,181369
1572448532.538213,4187218.000,21356,4,PI,1,100,181413
1572448532.576892,4187248.333,21374,3,PI,1,100,181358
1572448532.615570,4187278.667,21374,3,PI,1,100,181169
1572448532.654249,4187309.000,21374,3,PI,1,100,181016
1572448532.693778,4187340.000,21393,3,PI,1,100,181000
1572448532.733307,4187371.000,21393,3,PI,1,100,181044
1572448532.772835,4187402.000,21393,3,PI,1,100,181116
1572448532.817465,4187437.000,21411,3,PI,1,100,181108
1572448532.862094,4187472.000,21411,3,PI,1,100,181120
1572448532.906723,4187507.000,21411,3,PI,1,100,181091
1572448532.943702,4187536.000,21427,4,PI,1,100,181033
1572448532.980680,4187565.000,21427,4,PI,1,100,181064
1572448533.017659,4187594.000,21427,4,PI,1,100,181090
1572448533.054637,4187623.000,21427,4,PI,1,100,181117
1572448533.093741,4187653.667,21445,3,PI,1,100,181159
1572448533.132845,4187684.333,21445,3,PI,1,100,181168
1572448533.171949,4187715.000,21445,3,PI,1,100,181182
1572448533.216153,4187749.667,21463,3,PI,1,100,181205
1572448533.260357,4187784.333,21463,3,PI,1,100,181205
1572448533.304561,4187819.000,21463,3,PI,1,100,181239
1572448533.343240,4187849.333,21481,3,PI,1,100,181247
1572448533.381919,4187879.667,21481,3,PI,1,100,181256
1572448533.420598,4187910.000,21481,3,PI,1,100,181281
1572448533.458532,4187939.750,21499,4,PI,1,100,181313
1572448533.496467,4187969.500,21499,4,PI,1,100,181346
1572448533.534402,4187999.250,21499,4,PI,1,100,181420
1572448533.572337,4188029.000,21499,4,PI,1,100,181339
1572448533.614416,4188062.000,21517,2,PI,1,100,181179
1572448533.656495,4188095.000,21517,2,PI,1,100,180996
1572448533.698256,4188127.750,21536,4,PI,1,100,180986
1572448533.740016,4188160.500,21536,4,PI,1,100,181033
1572448533.781776,4188193.250,21536,4,PI,1,100,181059
1572448533.823536,4188226.000,21536,4,PI,1,100,181092
1572448533.862640,4188256.667,21554,3,PI,1,100,181103
1572448533.901744,4188287.333,21554,3,PI,1,100,181034
1572448533.940847,4188318.000,21554,3,PI,1,100,181040
1572448533.979101,4188348.000,21572,3,PI,1,100,181029
1572448534.017355,4188378.000,21572,3,PI,1,100,181056
1572448534.055609,4188408.000,21572,3,PI,1,100,181108
1572448534.097050,4188440.500,21590,4,PI,1,100,181116
1572448534.138491,4188473.000,21590,4,PI,1,100,181134
1572448534.179933,4188505.500,21590,4,PI,1,100,181166
1572448534.221374,4188538.000,21590,4,PI,1,100,181179
1572448534.260053,4188568.333,21608,3,PI,1,100,181213
1572448534.298732,4188598.667,21608,3,PI,1,100,181225
1572448534.337410,4188629.000,21608,3,PI,1,100,181247
1572448534.376089,4188659.333,21626,3,PI,1,100,181245
1572448534.414768,4188689.667,21626,3,PI,1,100,181269
1572448534.453447,4188720.000,21626,3,PI,1,100,181300
1572448534.498076,4188755.000,21644,3,PI,1,100,181317
1572448534.542705,4188790.000,21644,3,PI,1,100,181369
1572448534.587334,4188825.000,21644,3,PI,1,100,181401
1572448534.626438,4188855.667,21662,3,PI,1,100,181353
1572448534.665542,4188886.333,21662,3,PI,1,100,181135
1572448534.704646,4188917.000,21662,3,PI,1,100,180991
1572448534.741943,4188946.250,21681,4,PI,1,100,180962
1572448534.779240,4188975.500,21681,4,PI,1,100,181041
1572448534.816538,4189004.750,21681,4,PI,1,100,181063
1572448534.853835,4189034.000,21681,4,PI,1,100,181115
1572448534.898039,4189068.667,21699,3,PI,1,100,181116
1572448534.942244,4189103.333,21699,3,PI,1,100,181086
1572448534.986448,4189138.000,21699,3,PI,1,100,181046
1572448535.025126,4189168.333,21717,3,PI,1,100,181043
1572448535.063805,4189198.667,21717,3,PI,1,100,181075
1572448535.102484,4189229.000,21717,3,PI,1,100,181119
1572448535.139144,4189257.750,21735,4,PI,1,100,181131
1572448535.175803,4189286.500,21735,4,PI,1,100,181151
1572448535.212463,4189315.250,21735,4,PI,1,100,181179
1572448535.249123,4189344.000,21735,4,PI,1,100,181215
1572448535.290565,4189376.500,21753,2,PI,1,100,181217
1572448535.332006,4189409.000,21753,2,PI,1,100,181273
1572448535.373766,4189441.750,21771,4,PI,1,100,181237
1572448535.415526,4189474.500,21771,4,PI,1,100,181295
1572448535.457287,4189507.250,21771,4,PI,1,100,181284
1572448535.499047,4189540.000,21771,4,PI,1,100,181340
1572448535.537726,4189570.333,21789,3,PI,1,100,181358
1572448535.576404,4189600.667,21789,3,PI,1,100,181392
1572448535.615083,4189631.000,21789,3,PI,1,100,181429
1572448535.654187,4189661.667,21807,3,PI,1,100,181451
1572448535.693291,4189692.333,21807,3,PI,1,100,181376
1572448535.732394,4189723.000,21807,3,PI,1,100,181142
1572448535.777024,4189758.000,21826,3,PI,1,100,181023
1572448535.821653,4189793.000,21826,3,PI,1,100,181023
1572448535.866282,4189828.000,21826,3,PI,1,100,181091
1572448535.902942,4189856.750,21844,4,PI,1,100,181107
1572448535.939602,4189885.500,21844,4,PI,1,100,181130
1572448535.976262,4189914.250,21844,4,PI,1,100,181152
1572448536.012921,4189943.000,21844,4,PI,1,100,181117
1572448536.052450,4189974.000,21862,3,PI,1,100,181093
1572448536.091979,4190005.000,21862,3,PI,1,100,181110
1572448536.131508,4190036.000,21862,3,PI,1,100,181119
1572448536.175287,4190070.333,21879,3,PI,1,100,181144
1572448536.219066,4190104.667,21879,3,PI,1,100,181164
1572448536.262845,4190139.000,21879,3,PI,1,100,181212
1572448536.299824,4190168.000,21897,4,PI,1,100,181225
1572448536.336802,4190197.000,21897,4,PI,1,100,181245
1572448536.373781,4190226.000,21897,4,PI,1,100,181279
1572448536.410759,4190255.000,21897,4,PI,1,100,181309
1572448536.450288,4190286.000,21915,3,PI,1,100,181296
1572448536.489817,4190317.000,21915,3,PI,1,100,181352
1572448536.529346,4190348.000,21915,3,PI,1,100,181330
1572448536.573975,4190383.000,21933,3,PI,1,100,181375
1572448536.618604,4190418.000,21933,3,PI,1,100,181386
1572448536.663234,4190453.000,21933,3,PI,1,100,181429
1572448536.701912,4190483.333,21951,3,PI,1,100,181452
1572448536.740591,4190513.667,21951,3,PI,1,100,181466
1572448536.779270,4190544.000,21951,3,PI,1,100,181436
1572448536.818799,4190575.000,21970,3,PI,1,100,181224
1572448536.858327,4190606.000,21970,3,PI,1,100,181040
1572448536.897856,4190637.000,21970,3,PI,1,100,180999
1572448536.936535,4190667.333,21987,3,PI,1,100,181047
1572448536.975214,4190697.667,21987,3,PI,1,100,181092
1572448537.013892,4190728.000,21987,3,PI,1,100,181084
1572448537.055653,4190760.750,22004,4,PI,1,100,181085
1572448537.097413,4190793.500,22004,4,PI,1,100,181085
1572448537.139173,4190826.250,22004,4,PI,1,100,181037
1572448537.180933,4190859.000,22004,4,PI,1,100,181052
1572448537.220037,4190889.667,22022,3,PI,1,100,181068
1572448537.259141,4190920.333,22022,3,PI,1,100,181098
1572448537.298244,4190951.000,22022,3,PI,1,100,181117
1572448537.336923,4190981.333,22040,3,PI,1,100,181158
1572448537.375602,4191011.667,22040,3,PI,1,100,181154
1572448537.414281,4191042.000,22040,3,PI,1,100,181197
1572448537.453384,4191072.667,22058,3,PI,1,100,181208
1572448537.492488,4191103.333,22058,3,PI,1,100,181238
1572448537.531592,4191134.000,22058,3,PI,1,100,181222
1572448537.576646,4191169.333,22076,3,PI,1,100,181263
1572448537.621701,4191204.667,22076,3,PI,1,100,181272
1572448537.666755,4191240.000,22076,3,PI,1,100,181326
1572448537.703733,4191269.000,22094,4,PI,1,100,181313
1572448537.740712,4191298.000,22094,4,PI,1,100,181362
1572448537.777691,4191327.000,22094,4,PI,1,100,181378
1572448537.814669,4191356.000,22094,4,PI,1,100,181406
1572448537.853773,4191386.667,22113,3,PI,1,100,181343
1572448537.892877,4191417.333,22113,3,PI,1,100,181101
1572448537.931980,4191448.000,22113,3,PI,1,100,180971
1572448537.976185,4191482.667,22131,3,PI,1,100,180991
1572448538.020389,4191517.333,22131,3,PI,1,100,181045
1572448538.064593,4191552.000,22131,3,PI,1,100,181052
1572448538.101253,4191580.750,22149,4,PI,1,100,181082
1572448538.137913,4191609.500,22149,4,PI,1,100,181062
1572448538.174572,4191638.250,22149,4,PI,1,100,181041
1572448538.211232,4191667.000,22149,4,PI,1,100,180989
1572448538.249911,4191697.333,22167,3,PI,1,100,181001
1572448538.288590,4191727.667,22167,3,PI,1,100,181020
1572448538.327268,4191758.000,22167,3,PI,1,100,181034
1572448538.371473,4191792.667,22185,3,PI,1,100,181057
1572448538.415677,4191827.333,22185,3,PI,1,100,181088
1572448538.459881,4191862.000,22185,3,PI,1,100,181085
1572448538.498135,4191892.000,22203,3,PI,1,100,181127
1572448538.536388,4191922.000,22203,3,PI,1,100,181136
1572448538.574642,4191952.000,22203,3,PI,1,100,181142
1572448538.613533,4191982.500,22224,6,PI,1,100,181157
1572448538.652425,4192013.000,22224,6,PI,1,100,181165
1572448538.691316,4192043.500,22224,6,PI,1,100,181190
1572448538.730207,4192074.000,22224,6,PI,1,100,181204
1572448538.769098,4192104.500,22224,6,PI,1,100,181245
1572448538.807989,4192135.000,22224,6,PI,1,100,181298
1572448538.847093,4192165.667,22244,3,PI,1,100,181297
1572448538.886197,4192196.333,22244,3,PI,1,100,181278
1572448538.925301,4192227.000,22244,3,PI,1,100,181105
1572448538.970355,4192262.333,22263,3,PI,1,100,180902
1572448539.015409,4192297.667,22263,3,PI,1,100,180893
1572448539.060464,4192333.000,22263,3,PI,1,100,180899
1572448539.098717,4192363.000,22281,3,PI,1,100,180985
1572448539.136971,4192393.000,22281,3,PI,1,100,180983
1572448539.175225,4192423.000,22281,3,PI,1,100,180998
1572448539.213903,4192453.333,22299,3,PI,1,100,180967
1572448539.252582,4192483.667,22299,3,PI,1,100,180957
1572448539.291261,4192514.000,22299,3,PI,1,100,180914
1572448539.332702,4192546.500,22317,4,PI,1,100,181012
1572448539.374144,4192579.000,22317,4,PI,1,100,180984
1572448539.415585,4192611.500,22317,4,PI,1,100,181020
1572448539.457027,4192644.000,22317,4,PI,1,100,181054
1572448539.495705,4192674.333,22335,3,PI,1,100,181042
1572448539.534384,4192704.667,22335,3,PI,1,100,181068
1572448539.573063,4192735.000,22335,3,PI,1,100,181079
1572448539.612167,4192765.667,22353,3,PI,1,100,181100
1572448539.651270,4192796.333,22353,3,PI,1,100,181111
1572448539.690374,4192827.000,22353,3,PI,1,100,181133
1572448539.729053,4192857.333,22369,3,PI,1,100,181126
1572448539.767731,4192887.667,22369,3,PI,1,100,181160
1572448539.806410,4192918.000,22369,3,PI,1,100,181135
1572448539.851465,4192953.333,22388,3,PI,1,100,181208
1572448539.896519,4192988.667,22388,3,PI,1,100,181246
1572448539.941573,4193024.000,22388,3,PI,1,100,181080
1572448539.979508,4193053.750,22406,4,PI,1,100,180883
1572448540.017443,4193083.500,22406,4,PI,1,100,180809
1572448540.055378,4193113.250,22406,4,PI,1,100,180809
1572448540.093313,4193143.000,22406,4,PI,1,100,180833
1572448540.137517,4193177.667,22424,3,PI,1,100,180815
1572448540.181721,4193212.333,22424,3,PI,1,100,180803
1572448540.225925,4193247.000,22424,3,PI,1,100,180754
1572448540.264179,4193277.000,22442,3,PI,1,100,180676
1572448540.302433,4193307.000,22442,3,PI,1,100,180632
1572448540.340687,4193337.000,22442,3,PI,1,100,180632
1572448540.380215,4193368.000,22460,3,PI,1,100,180593
1572448540.419744,4193399.000,22460,3,PI,1,100,180644
1572448540.459273,4193430.000,22460,3,PI,1,100,180590
1572448540.497102,4193459.667,22478,3,PI,1,100,180625
1572448540.534930,4193489.333,22478,3,PI,1,100,180622
1572448540.572759,4193519.000,22478,3,PI,1,100,180652
1572448540.614519,4193551.750,22496,4,PI,1,100,180650
1572448540.656279,4193584.500,22496,4,PI,1,100,180621
1572448540.698040,4193617.250,22496,4,PI,1,100,180654
1572448540.739800,4193650.000,22496,4,PI,1,100,180674
1572448540.779754,4193681.333,22514,3,PI,1,100,180686
1572448540.819707,4193712.667,22514,3,PI,1,100,180699
1572448540.859661,4193744.000,22514,3,PI,1,100,180733
1572448540.898340,4193774.333,22533,3,PI,1,100,180717
1572448540.937019,4193804.667,22533,3,PI,1,100,180570
1572448540.975698,4193835.000,22533,3,PI,1,100,180350
1572448541.014801,4193865.667,22551,3,PI,1,100,180319
1572448541.053905,4193896.333,22551,3,PI,1,100,180338
1572448541.093009,4193927.000,22551,3,PI,1,100,180374
1572448541.134450,4193959.500,22569,4,PI,1,100,180408
1572448541.175892,4193992.000,22569,4,PI,1,100,180400
1572448541.217333,4194024.500,22569,4,PI,1,100,180339
1572448541.258775,4194057.000,22569,4,PI,1,100,180301
1572448541.297028,4194087.000,22587,3,PI,1,100,180251
1572448541.335282,4194117.000,22587,3,PI,1,100,180268
1572448541.373536,4194147.000,22587,3,PI,1,100,180312
1572448541.412214,4194177.333,22605,3,PI,1,100,180336
1572448541.450893,4194207.667,22605,3,PI,1,100,180351
1572448541.489572,4194238.000,22605,3,PI,1,100,180358
1572448541.533351,4194272.333,22623,3,PI,1,100,180365
1572448541.577130,4194306.667,22623,3,PI,1,100,180392
1572448541.620909,4194341.000,22623,3,PI,1,100,180416
1572448541.658207,4194370.250,22641,4,PI,1,100,180442
1572448541.695504,4194399.500,22641,4,PI,1,100,180456
1572448541.732801,4194428.750,22641,4,PI,1,100,180453
1572448541.770099,4194458.000,22641,4,PI,1,100,180379
1572448541.809202,4194488.667,22660,3,PI,1,100,180224
1572448541.848306,4194519.333,22660,3,PI,1,100,180149
1572448541.887410,4194550.000,22660,3,PI,1,100,180171
1572448541.932039,4194585.000,22678,3,PI,1,100,180220
1572448541.976668,4194620.000,22678,3,PI,1,100,180264
1572448542.021298,4194655.000,22678,3,PI,1,100,180320
1572448542.059976,4194685.333,22696,3,PI,1,100,180257
1572448542.098655,4194715.667,22696,3,PI,1,100,180243
1572448542.137334,4194746.000,22696,3,PI,1,100,180174
1572448542.174631,4194775.250,22714,4,PI,1,100,180215
1572448542.211929,4194804.500,22714,4,PI,1,100,180240
1572448542.249226,4194833.750,22714,4,PI,1,100,180267
1572448542.286523,4194863.000,22714,4,PI,1,100,180313
1572448542.327965,4194895.500,22732,2,PI,1,100,180339
1572448542.369406,4194928.000,22732,2,PI,1,100,180339
1572448542.410848,4194960.500,22750,4,PI,1,100,180380
1572448542.452289,4194993.000,22750,4,PI,1,100,180383
1572448542.493731,4195025.500,22750,4,PI,1,100,180436
1572448542.535172,4195058.000,22750,4,PI,1,100,180427
1572448542.573851,4195088.333,22768,3,PI,1,100,180408
1572448542.612530,4195118.667,22768,3,PI,1,100,180223
1572448542.651208,4195149.000,22768,3,PI,1,100,180130
1572448542.689887,4195179.333,22785,3,PI,1,100,180100
1572448542.728566,4195209.667,22785,3,PI,1,100,180157
1572448542.767244,4195240.000,22785,3,PI,1,100,180170
1572448542.806348,4195270.667,22804,3,PI,1,100,180226
1572448542.845452,4195301.333,22804,3,PI,1,100,180241
1572448542.884556,4195332.000,22804,3,PI,1,100,180160
1572448542.926635,4195365.000,22822,4,PI,1,100,180134
1572448542.968714,4195398.000,22822,4,PI,1,100,180135
1572448543.010793,4195431.000,22822,4,PI,1,100,180170
1572448543.052872,4195464.000,22822,4,PI,1,100,180196
1572448543.091550,4195494.333,22840,3,PI,1,100,180249
1572448543.130229,4195524.667,22840,3,PI,1,100,180257
1572448543.168908,4195555.000,22840,3,PI,1,100,180304
1572448543.213537,4195590.000,22858,3,PI,1,100,180271
1572448543.258166,4195625.000,22858,3,PI,1,100,180312
1572448543.302796,4195660.000,22858,3,PI,1,100,180346
1572448543.341474,4195690.333,22876,3,PI,1,100,180361
1572448543.380153,4195720.667,22876,3,PI,1,100,180372
1572448543.418832,4195751.000,22876,3,PI,1,100,180208
1572448543.455810,4195780.000,22894,4,PI,1,100,179991
1572448543.492789,4195809.000,22894,4,PI,1,100,179949
1572448543.529768,4195838.000,22894,4,PI,1,100,179950
1572448543.566746,4195867.000,22894,4,PI,1,100,179992
1572448543.611375,4195902.000,22912,3,PI,1,100,179972
1572448543.656005,4195937.000,22912,3,PI,1,100,180006
1572448543.700634,4195972.000,22912,3,PI,1,100,179990
1572448543.739313,4196002.333,22928,3,PI,1,100,179947
1572448543.777991,4196032.667,22928,3,PI,1,100,179905
1572448543.816670,4196063.000,22928,3,PI,1,100,179948
1572448543.855349,4196093.333,22947,3,PI,1,100,179933
1572448543.894027,4196123.667,22947,3,PI,1,100,179985
1572448543.932706,4196154.000,22947,3,PI,1,100,179998
1572448543.972660,4196185.333,22965,3,PI,1,100,180031
1572448544.012614,4196216.667,22965,3,PI,1,100,180055
1572448544.052568,4196248.000,22965,3,PI,1,100,180072
1572448544.094328,4196280.750,22983,4,PI,1,100,180064
1572448544.136088,4196313.500,22983,4,PI,1,100,180100
1572448544.177848,4196346.250,22983,4,PI,1,100,180133
1572448544.219609,4196379.000,22983,4,PI,1,100,180154
1572448544.258287,4196409.333,23001,3,PI,1,100,180191
1572448544.296966,4196439.667,23001,3,PI,1,100,180026
1572448544.335645,4196470.000,23001,3,PI,1,100,179799
1572448544.374324,4196500.333,23019,3,PI,1,100,179688
1572448544.413002,4196530.667,23019,3,PI,1,100,179731
1572448544.451681,4196561.000,23019,3,PI,1,100,179769
1572448544.496735,4196596.333,23037,3,PI,1,100,179767
1572448544.541790,4196631.667,23037,3,PI,1,100,179748
1572448544.586844,4196667.000,23037,3,PI,1,100,179750
1572448544.623822,4196696.000,23055,4,PI,1,100,179687
1572448544.660801,4196725.000,23055,4,PI,1,100,179690
1572448544.697780,4196754.000,23055,4,PI,1,100,179663
1572448544.734758,4196783.000,23055,4,PI,1,100,179705
1572448544.773862,4196813.667,23073,3,PI,1,100,179743
1572448544.812966,4196844.333,23073,3,PI,1,100,179757
1572448544.852069,4196875.000,23073,3,PI,1,100,179777
1572448544.897124,4196910.333,23092,3,PI,1,100,179821
1572448544.942178,4196945.667,23092,3,PI,1,100,179825
1572448544.987232,4196981.000,23092,3,PI,1,100,179868
1572448545.025486,4197011.000,23110,3,PI,1,100,179911
1572448545.063740,4197041.000,23110,3,PI,1,100,179924
1572448545.101993,4197071.000,23110,3,PI,1,100,179930
1572448545.140885,4197101.500,23131,6,PI,1,100,179944
1572448545.179776,4197132.000,23131,6,PI,1,100,179998
1572448545.218667,4197162.500,23131,6,PI,1,100,180031
1572448545.257558,4197193.000,23131,6,PI,1,100,180067
1572448545.296449,4197223.500,23131,6,PI,1,100,180038
1572448545.335341,4197254.000,23131,6,PI,1,100,179837
1572448545.374019,4197284.333,23151,3,PI,1,100,179652
1572448545.412698,4197314.667,23151,3,PI,1,100,179648
1572448545.451377,4197345.000,23151,3,PI,1,100,179646
1572448545.495581,4197379.667,23168,3,PI,1,100,179692
1572448545.539785,4197414.333,23168,3,PI,1,100,179677
1572448545.583990,4197449.000,23168,3,PI,1,100,179713
1572448545.622243,4197479.000,23186,3,PI,1,100,179685
1572448545.660497,4197509.000,23186,3,PI,1,100,179651
1572448545.698750,4197539.000,23186,3,PI,1,100,179638
1572448545.736048,4197568.250,23204,4,PI,1,100,179669
1572448545.773345,4197597.500,23204,4,PI,1,100,179698
1572448545.810642,4197626.750,23204,4,PI,1,100,179738
1572448545.847940,4197656.000,23204,4,PI,1,100,179783
1572448545.892569,4197691.000,23223,3,PI,1,100,179791
1572448545.937198,4197726.000,23223,3,PI,1,100,179789
1572448545.981828,4197761.000,23223,3,PI,1,100,179816
1572448546.020506,4197791.333,23241,3,PI,1,100,179848
1572448546.059185,4197821.667,23241,3,PI,1,100,179879
1572448546.097864,4197852.000,23241,3,PI,1,100,179917
1572448546.136968,4197882.667,23259,3,PI,1,100,179953
1572448546.176071,4197913.333,23259,3,PI,1,100,179983
1572448546.215175,4197944.000,23259,3,PI,1,100,180005
1572448546.253854,4197974.333,23277,3,PI,1,100,180053
1572448546.292532,4198004.667,23277,3,PI,1,100,180046
1572448546.331211,4198035.000,23277,3,PI,1,100,179963
1572448546.372653,4198067.500,23293,4,PI,1,100,179698
1572448546.414094,4198100.000,23293,4,PI,1,100,179663
1572448546.455536,4198132.500,23293,4,PI,1,100,179674
1572448546.496977,4198165.000,23293,4,PI,1,100,179727
1572448546.535656,4198195.333,23311,3,PI,1,100,179725
1572448546.574335,4198225.667,23311,3,PI,1,100,179762
1572448546.613013,4198256.000,23311,3,PI,1,100,179718
1572448546.651267,4198286.000,23329,3,PI,1,100,179738
1572448546.689521,4198316.000,23329,3,PI,1,100,179666
1572448546.727774,4198346.000,23329,3,PI,1,100,179691
1572448546.767303,4198377.000,23347,3,PI,1,100,179734
1572448546.806832,4198408.000,23347,3,PI,1,100,179755
1572448546.846361,4198439.000,23347,3,PI,1,100,179805
1572448546.888121,4198471.750,23366,4,PI,1,100,179854
1572448546.929881,4198504.500,23366,4,PI,1,100,179856
1572448546.971642,4198537.250,23366,4,PI,1,100,179878
1572448547.013402,4198570.000,23366,4,PI,1,100,179916
1572448547.052080,4198600.333,23384,3,PI,1,100,179917
1572448547.090759,4198630.667,23384,3,PI,1,100,179967
1572448547.129438,4198661.000,23384,3,PI,1,100,179976
1572448547.169392,4198692.333,23402,3,PI,1,100,180027
1572448547.209346,4198723.667,23402,3,PI,1,100,180066
1572448547.249299,4198755.000,23402,3,PI,1,100,180097
1572448547.294354,4198790.333,23420,3,PI,1,100,180129
1572448547.339408,4198825.667,23420,3,PI,1,100,180173
1572448547.384462,4198861.000,23420,3,PI,1,100,180123
1572448547.421441,4198890.000,23438,4,PI,1,100,179947
1572448547.458419,4198919.000,23438,4,PI,1,100,179780
1572448547.495398,4198948.000,23438,4,PI,1,100,179788
1572448547.532377,4198977.000,23438,4,PI,1,100,179834
1572448547.571480,4199007.667,23456,3,PI,1,100,179860
1572448547.610584,4199038.333,23456,3,PI,1,100,179873
1572448547.649688,4199069.000,23456,3,PI,1,100,179905
1572448547.694742,4199104.333,23474,3,PI,1,100,179874
1572448547.739796,4199139.667,23474,3,PI,1,100,179870
1572448547.784851,4199175.000,23474,3,PI,1,100,179843
1572448547.823104,4199205.000,23492,3,PI,1,100,179885
1572448547.861358,4199235.000,23492,3,PI,1,100,179921
1572448547.899612,4199265.000,23492,3,PI,1,100,179923
1572448547.938715,4199295.667,23511,3,PI,1,100,179995
1572448547.977819,4199326.333,23511,3,PI,1,100,179989
1572448548.016923,4199357.000,23511,3,PI,1,100,180058
1572448548.056027,4199387.667,23529,3,PI,1,100,180079
1572448548.095130,4199418.333,23529,3,PI,1,100,180094
1572448548.134234,4199449.000,23529,3,PI,1,100,180120
1572448548.176313,4199482.000,23547,4,PI,1,100,180183
1572448548.218392,4199515.000,23547,4,PI,1,100,180144
1572448548.260471,4199548.000,23547,4,PI,1,100,180253
1572448548.302550,4199581.000,23547,4,PI,1,100,180244
1572448548.341654,4199611.667,23565,3,PI,1,100,180324
1572448548.380758,4199642.333,23565,3,PI,1,100,180321
1572448548.419862,4199673.000,23565,3,PI,1,100,180138
1572448548.457690,4199702.667,23583,3,PI,1,100,180037
1572448548.495519,4199732.333,23583,3,PI,1,100,180044
1572448548.533348,4199762.000,23583,3,PI,1,100,180112
1572448548.577552,4199796.667,23601,3,PI,1,100,180161
1572448548.621756,4199831.333,23601,3,PI,1,100,180223
1572448548.665960,4199866.000,23601,3,PI,1,100,180237
1572448548.703258,4199895.250,23619,4,PI,1,100,180242
1572448548.740555,4199924.500,23619,4,PI,1,100,180149
1572448548.777852,4199953.750,23619,4,PI,1,100,180187
1572448548.815150,4199983.000,23619,4,PI,1,100,180232
1572448548.858929,4200017.333,23637,3,PI,1,100,180276
1572448548.902708,4200051.667,23637,3,PI,1,100,180304
1572448548.946487,4200086.000,23637,3,PI,1,100,180345
1572448548.985166,4200116.333,23656,3,PI,1,100,180371
1572448549.023845,4200146.667,23656,3,PI,1,100,180431
1572448549.062523,4200177.000,23656,3,PI,1,100,180438
1572448549.101627,4200207.667,23674,3,PI,1,100,180471
1572448549.140731,4200238.333,23674,3,PI,1,100,180481
1572448549.179835,4200269.000,23674,3,PI,1,100,180488
1572448549.218513,4200299.333,23692,3,PI,1,100,180552
1572448549.257192,4200329.667,23692,3,PI,1,100,180566
1572448549.295871,4200360.000,23692,3,PI,1,100,180501
1572448549.337312,4200392.500,23709,4,PI,1,100,180418
1572448549.378754,4200425.000,23709,4,PI,1,100,180382
1572448549.420195,4200457.500,23709,4,PI,1,100,180433
1572448549.461637,4200490.000,23709,4,PI,1,100,180535
1572448549.500315,4200520.333,23727,3,PI,1,100,180596
1572448549.538994,4200550.667,23727,3,PI,1,100,180652
1572448549.577673,4200581.000,23727,3,PI,1,100,180557
1572448549.616351,4200611.333,23745,3,PI,1,100,180540
1572448549.655030,4200641.667,23745,3,PI,1,100,180538
1572448549.693709,4200672.000,23745,3,PI,1,100,180594
1572448549.732388,4200702.333,23763,3,PI,1,100,180640
1572448549.771066,4200732.667,23763,3,PI,1,100,180722
1572448549.809745,4200763.000,23763,3,PI,1,100,180695
1572448549.851505,4200795.750,23781,4,PI,1,100,180763
1572448549.893265,4200828.500,23781,4,PI,1,100,180733
1572448549.935026,4200861.250,23781,4,PI,1,100,180789
1572448549.976786,4200894.000,23781,4,PI,1,100,180827
1572448550.015465,4200924.333,23800,3,PI,1,100,180837
1572448550.054143,4200954.667,23800,3,PI,1,100,180877
1572448550.092822,4200985.000,23800,3,PI,1,100,180758
1572448550.132351,4201016.000,23818,3,PI,1,100,180526
1572448550.171880,4201047.000,23818,3,PI,1,100,180407
1572448550.211409,4201078.000,23818,3,PI,1,100,180431
1572448550.256463,4201113.333,23834,3,PI,1,100,180481
1572448550.301517,4201148.667,23834,3,PI,1,100,180534
1572448550.346571,4201184.000,23834,3,PI,1,100,180508
1572448550.385250,4201214.333,23852,3,PI,1,100,180560
1572448550.423929,4201244.667,23852,3,PI,1,100,180480
1572448550.462608,4201275.000,23852,3,PI,1,100,180469
1572448550.500224,4201304.500,23870,4,PI,1,100,180455
1572448550.537840,4201334.000,23870,4,PI,1,100,180486
1572448550.575456,4201363.500,23870,4,PI,1,100,180526
1572448550.613072,4201393.000,23870,4,PI,1,100,180607
1572448550.657276,4201427.667,23888,3,PI,1,100,180603
1572448550.701481,4201462.333,23888,3,PI,1,100,180632
1572448550.745685,4201497.000,23888,3,PI,1,100,180663
1572448550.783938,4201527.000,23906,3,PI,1,100,180656
1572448550.822192,4201557.000,23906,3,PI,1,100,180702
1572448550.860446,4201587.000,23906,3,PI,1,100,180727
1572448550.899975,4201618.000,23924,3,PI,1,100,180726
1572448550.939503,4201649.000,23924,3,PI,1,100,180788
1572448550.979032,4201680.000,23924,3,PI,1,100,180794
1572448551.017286,4201710.000,23943,3,PI,1,100,180758
1572448551.055540,4201740.000,23943,3,PI,1,100,180527
1572448551.093793,4201770.000,23943,3,PI,1,100,180327
1572448551.135553,4201802.750,23961,4,PI,1,100,180326
1572448551.177314,4201835.500,23961,4,PI,1,100,180327
1572448551.219074,4201868.250,23961,4,PI,1,100,180356
1572448551.260834,4201901.000,23961,4,PI,1,100,180355
1572448551.300788,4201932.333,23979,3,PI,1,100,180365
1572448551.340742,4201963.667,23979,3,PI,1,100,180351
1572448551.380696,4201995.000,23979,3,PI,1,100,180352
1572448551.419374,4202025.333,23997,3,PI,1,100,180276
1572448551.458053,4202055.667,23997,3,PI,1,100,180333
1572448551.496732,4202086.000,23997,3,PI,1,100,180319
1572448551.535836,4202116.667,24015,3,PI,1,100,180369
1572448551.574939,4202147.333,24015,3,PI,1,100,180389
1572448551.614043,4202178.000,24015,3,PI,1,100,180391
1572448551.655060,4202210.167,24036,6,PI,1,100,180438
1572448551.696076,4202242.333,24036,6,PI,1,100,180454
1572448551.737092,4202274.500,24036,6,PI,1,100,180448
1572448551.778109,4202306.667,24036,6,PI,1,100,180472
1572448551.819125,4202338.833,24036,6,PI,1,100,180486
1572448551.860142,4202371.000,24036,6,PI,1,100,180516
1572448551.898820,4202401.333,24056,3,PI,1,100,180553
1572448551.937499,4202431.667,24056,3,PI,1,100,180392
1572448551.976178,4202462.000,24056,3,PI,1,100,180178
1572448552.014857,4202492.333,24074,3,PI,1,100,180083
1572448552.053535,4202522.667,24074,3,PI,1,100,180092
1572448552.092214,4202553.000,24074,3,PI,1,100,180134
1572448552.136843,4202588.000,24092,3,PI,1,100,180142
1572448552.181473,4202623.000,24092,3,PI,1,100,180135
1572448552.226102,4202658.000,24092,3,PI,1,100,180156
1572448552.263718,4202687.500,24110,4,PI,1,100,180090
1572448552.301334,4202717.000,24110,4,PI,1,100,180086
1572448552.338950,4202746.500,24110,4,PI,1,100,180046
1572448552.376566,4202776.000,24110,4,PI,1,100,180108
1572448552.415245,4202806.333,24128,3,PI,1,100,180135
1572448552.453924,4202836.667,24128,3,PI,1,100,180162
1572448552.492602,4202867.000,24128,3,PI,1,100,180171
1572448552.537232,4202902.000,24146,3,PI,1,100,180227
1572448552.581861,4202937.000,24146,3,PI,1,100,180202
1572448552.626490,4202972.000,24146,3,PI,1,100,180242
1572448552.665169,4203002.333,24164,3,PI,1,100,180241
1572448552.703848,4203032.667,24164,3,PI,1,100,180278
1572448552.742526,4203063.000,24164,3,PI,1,100,180296
1572448552.779186,4203091.750,24180,4,PI,1,100,180314
1572448552.815846,4203120.500,24180,4,PI,1,100,180350
1572448552.852506,4203149.250,24180,4,PI,1,100,180301
1572448552.889165,4203178.000,24180,4,PI,1,100,180114
1572448552.933370,4203212.667,24198,3,PI,1,100,179960
1572448552.977574,4203247.333,24198,3,PI,1,100,179936
1572448553.021778,4203282.000,24198,3,PI,1,100,179980
1572448553.060882,4203312.667,24217,3,PI,1,100,179993
1572448553.099986,4203343.333,24217,3,PI,1,100,179987
1572448553.139089,4203374.000,24217,3,PI,1,100,180007
1572448553.177768,4203404.333,24235,3,PI,1,100,180005
1572448553.216447,4203434.667,24235,3,PI,1,100,179980
1572448553.255126,4203465.000,24235,3,PI,1,100,179980
1572448553.294229,4203495.667,24253,3,PI,1,100,179990
1572448553.333333,4203526.333,24253,3,PI,1,100,180000
1572448553.372437,4203557.000,24253,3,PI,1,100,180038
1572448553.414197,4203589.750,24271,4,PI,1,100,180053
1572448553.455957,4203622.500,24271,4,PI,1,100,180104
1572448553.497718,4203655.250,24271,4,PI,1,100,180080
1572448553.539478,4203688.000,24271,4,PI,1,100,180157
1572448553.577732,4203718.000,24289,3,PI,1,100,180152
1572448553.615985,4203748.000,24289,3,PI,1,100,180190
1572448553.654239,4203778.000,24289,3,PI,1,100,180196
1572448553.693768,4203809.000,24307,3,PI,1,100,180256
1572448553.733296,4203840.000,24307,3,PI,1,100,180252
1572448553.772825,4203871.000,24307,3,PI,1,100,180326
1572448553.816604,4203905.333,24325,3,PI,1,100,180257
1572448553.860384,4203939.667,24325,3,PI,1,100,180101
1572448553.904163,4203974.000,24325,3,PI,1,100,180007
1572448553.941141,4204003.000,24343,4,PI,1,100,180013
1572448553.978120,4204032.000,24343,4,PI,1,100,180068
1572448554.015099,4204061.000,24343,4,PI,1,100,180120
1572448554.052077,4204090.000,24343,4,PI,1,100,180124
1572448554.091606,4204121.000,24362,3,PI,1,100,180144
1572448554.131135,4204152.000,24362,3,PI,1,100,180122
1572448554.170663,4204183.000,24362,3,PI,1,100,180089
1572448554.215293,4204218.000,24380,3,PI,1,100,180111
1572448554.259922,4204253.000,24380,3,PI,1,100,180130
1572448554.304551,4204288.000,24380,3,PI,1,100,180178
1572448554.343230,4204318.333,24398,3,PI,1,100,180216
1572448554.381909,4204348.667,24398,3,PI,1,100,180217
1572448554.420587,4204379.000,24398,3,PI,1,100,180251
1572448554.460116,4204410.000,24416,3,PI,1,100,180286
1572448554.499645,4204441.000,24416,3,PI,1,100,180300
1572448554.539174,4204472.000,24416,3,PI,1,100,180344
1572448554.577852,4204502.333,24434,3,PI,1,100,180369
1572448554.616531,4204532.667,24434,3,PI,1,100,180374
1572448554.655210,4204563.000,24434,3,PI,1,100,180395
1572448554.696970,4204595.750,24452,4,PI,1,100,180470
1572448554.738730,4204628.500,24452,4,PI,1,100,180464
1572448554.780491,4204661.250,24452,4,PI,1,100,180424
1572448554.822251,4204694.000,24452,4,PI,1,100,180269
1572448554.861355,4204724.667,24470,3,PI,1,100,180252
1572448554.900458,4204755.333,24470,3,PI,1,100,180267
1572448554.939562,4204786.000,24470,3,PI,1,100,180346
1572448554.978241,4204816.333,24488,3,PI,1,100,180351
1572448555.016920,4204846.667,24488,3,PI,1,100,180424
1572448555.055598,4204877.000,24488,3,PI,1,100,180429
1572448555.094702,4204907.667,24507,3,PI,1,100,180368
1572448555.133806,4204938.333,24507,3,PI,1,100,180363
1572448555.172909,4204969.000,24507,3,PI,1,100,180406
1572448555.214670,4205001.750,24525,4,PI,1,100,180429
1572448555.256430,4205034.500,24525,4,PI,1,100,180486
1572448555.298190,4205067.250,24525,4,PI,1,100,180524
1572448555.339951,4205100.000,24525,4,PI,1,100,180549
1572448555.378629,4205130.333,24543,3,PI,1,100,180548
1572448555.417308,4205160.667,24543,3,PI,1,100,180585
1572448555.455987,4205191.000,24543,3,PI,1,100,180600
1572448555.495090,4205221.667,24561,3,PI,1,100,180648
1572448555.534194,4205252.333,24561,3,PI,1,100,180667
1572448555.573298,4205283.000,24561,3,PI,1,100,180722
1572448555.617927,4205318.000,24579,3,PI,1,100,180715
1572448555.662557,4205353.000,24579,3,PI,1,100,180733
1572448555.707186,4205388.000,24579,3,PI,1,100,180653
1572448555.743846,4205416.750,24596,4,PI,1,100,180535
1572448555.780505,4205445.500,24596,4,PI,1,100,180559
1572448555.817165,4205474.250,24596,4,PI,1,100,180625
1572448555.853825,4205503.000,24596,4,PI,1,100,180669
1572448555.892503,4205533.333,24614,3,PI,1,100,180697
1572448555.931182,4205563.667,24614,3,PI,1,100,180711
1572448555.969861,4205594.000,24614,3,PI,1,100,180698
1572448556.014065,4205628.667,24633,3,PI,1,100,180692
1572448556.058270,4205663.333,24633,3,PI,1,100,180681
1572448556.102474,4205698.000,24633,3,PI,1,100,180723
1572448556.140728,4205728.000,24651,3,PI,1,100,180777
1572448556.178981,4205758.000,24651,3,PI,1,100,180789
1572448556.217235,4205788.000,24651,3,PI,1,100,180815
1572448556.254532,4205817.250,24669,4,PI,1,100,180849
1572448556.291829,4205846.500,24669,4,PI,1,100,180853
1572448556.329127,4205875.750,24669,4,PI,1,100,180895
1572448556.366424,4205905.000,24669,4,PI,1,100,180907
1572448556.411053,4205940.000,24687,3,PI,1,100,180910
1572448556.455683,4205975.000,24687,3,PI,1,100,180957
1572448556.500312,4206010.000,24687,3,PI,1,100,180977
1572448556.538991,4206040.333,24705,3,PI,1,100,180986
1572448556.577669,4206070.667,24705,3,PI,1,100,180965
1572448556.616348,4206101.000,24705,3,PI,1,100,180821
1572448556.655452,4206131.667,24723,3,PI,1,100,180812
1572448556.694556,4206162.333,24723,3,PI,1,100,180813
1572448556.733659,4206193.000,24723,3,PI,1,100,180901
1572448556.771913,4206223.000,24739,3,PI,1,100,180910
1572448556.810167,4206253.000,24739,3,PI,1,100,180956
1572448556.848420,4206283.000,24739,3,PI,1,100,180964
1572448556.890181,4206315.750,24757,4,PI,1,100,180901
1572448556.931941,4206348.500,24757,4,PI,1,100,180883
1572448556.973701,4206381.250,24757,4,PI,1,100,180934
1572448557.015461,4206414.000,24757,4,PI,1,100,180981
1572448557.054140,4206444.333,24776,3,PI,1,100,181010
1572448557.092819,4206474.667,24776,3,PI,1,100,181046
1572448557.131497,4206505.000,24776,3,PI,1,100,181027
1572448557.170176,4206535.333,24794,3,PI,1,100,181072
1572448557.208855,4206565.667,24794,3,PI,1,100,181068
1572448557.247534,4206596.000,24794,3,PI,1,100,181117
1572448557.292163,4206631.000,24812,3,PI,1,100,181142
1572448557.336792,4206666.000,24812,3,PI,1,100,181168
1572448557.381422,4206701.000,24812,3,PI,1,100,181189
1572448557.420950,4206732.000,24830,3,PI,1,100,181203
1572448557.460479,4206763.000,24830,3,PI,1,100,181140
1572448557.500008,4206794.000,24830,3,PI,1,100,181049
1572448557.537305,4206823.250,24848,4,PI,1,100,180979
1572448557.574603,4206852.500,24848,4,PI,1,100,181006
1572448557.611900,4206881.750,24848,4,PI,1,100,181087
1572448557.649197,4206911.000,24848,4,PI,1,100,181119
1572448557.694252,4206946.333,24866,3,PI,1,100,181123
1572448557.739306,4206981.667,24866,3,PI,1,100,181156
1572448557.784360,4207017.000,24866,3,PI,1,100,181082
1572448557.823889,4207048.000,24884,3,PI,1,100,181075
1572448557.863418,4207079.000,24884,3,PI,1,100,181087
1572448557.902946,4207110.000,24884,3,PI,1,100,181133
1572448557.940775,4207139.667,24902,3,PI,1,100,181165
1572448557.978604,4207169.333,24902,3,PI,1,100,181181
1572448558.016432,4207199.000,24902,3,PI,1,100,181189
1572448558.055536,4207229.667,24921,3,PI,1,100,181216
1572448558.094640,4207260.333,24921,3,PI,1,100,181237
1572448558.133744,4207291.000,24921,3,PI,1,100,181274
1572448558.175185,4207323.500,24942,6,PI,1,100,181271
1572448558.216627,4207356.000,24942,6,PI,1,100,181297
1572448558.258068,4207388.500,24942,6,PI,1,100,181325
1572448558.299510,4207421.000,24942,6,PI,1,100,181297
1572448558.340951,4207453.500,24942,6,PI,1,100,181300
1572448558.382392,4207486.000,24942,6,PI,1,100,181170
1572448558.422346,4207517.333,24962,3,PI,1,100,181114
1572448558.462300,4207548.667,24962,3,PI,1,100,181174
1572448558.502254,4207580.000,24962,3,PI,1,100,181223
1572448558.540933,4207610.333,24979,3,PI,1,100,181251
1572448558.579612,4207640.667,24979,3,PI,1,100,181269
1572448558.618290,4207671.000,24979,3,PI,1,100,181254
1572448558.657394,4207701.667,24997,3,PI,1,100,181243
1572448558.696498,4207732.333,24997,3,PI,1,100,181220
1572448558.735601,4207763.000,24997,3,PI,1,100,181234
1572448558.777362,4207795.750,25015,4,PI,1,100,181270
1572448558.819122,4207828.500,25015,4,PI,1,100,181311
1572448558.860882,4207861.250,25015,4,PI,1,100,181324
1572448558.902642,4207894.000,25015,4,PI,1,100,181384
1572448558.940896,4207924.000,25033,3,PI,1,100,181324
1572448558.979150,4207954.000,25033,3,PI,1,100,181366
1572448559.017403,4207984.000,25033,3,PI,1,100,181363
1572448559.056082,4208014.333,25052,3,PI,1,100,181407
1572448559.094761,4208044.667,25052,3,PI,1,100,181410
1572448559.133440,4208075.000,25052,3,PI,1,100,181415
1572448559.177219,4208109.333,25070,3,PI,1,100,181317
1572448559.220998,4208143.667,25070,3,PI,1,100,181226
1572448559.264777,4208178.000,25070,3,PI,1,100,181194
1572448559.301756,4208207.000,25088,4,PI,1,100,181255
1572448559.338734,4208236.000,25088,4,PI,1,100,181299
1572448559.375713,4208265.000,25088,4,PI,1,100,181311
1572448559.412691,4208294.000,25088,4,PI,1,100,181358
1572448559.451795,4208324.667,25106,3,PI,1,100,181298
1572448559.490899,4208355.333,25106,3,PI,1,100,181264
1572448559.530003,4208386.000,25106,3,PI,1,100,181261
1572448559.574632,4208421.000,25122,3,PI,1,100,181283
1572448559.619261,4208456.000,25122,3,PI,1,100,181330
1572448559.663890,4208491.000,25122,3,PI,1,100,181366
1572448559.702569,4208521.333,25140,3,PI,1,100,181374
1572448559.741248,4208551.667,25140,3,PI,1,100,181362
1572448559.779927,4208582.000,25140,3,PI,1,100,181379
1572448559.817543,4208611.500,25158,4,PI,1,100,181391
1572448559.855159,4208641.000,25158,4,PI,1,100,181403
1572448559.892775,4208670.500,25158,4,PI,1,100,181425
1572448559.930391,4208700.000,25158,4,PI,1,100,181442
1572448559.975020,4208735.000,25176,3,PI,1,100,181365
1572448560.019650,4208770.000,25176,3,PI,1,100,181238
1572448560.064279,4208805.000,25176,3,PI,1,100,181224
1572448560.102533,4208835.000,25195,3,PI,1,100,181215
1572448560.140786,4208865.000,25195,3,PI,1,100,181282
1572448560.179040,4208895.000,25195,3,PI,1,100,181292
1572448560.217719,4208925.333,25213,3,PI,1,100,181315
1572448560.256397,4208955.667,25213,3,PI,1,100,181307
1572448560.295076,4208986.000,25213,3,PI,1,100,181263
1572448560.333755,4209016.333,25231,3,PI,1,100,181252
1572448560.372433,4209046.667,25231,3,PI,1,100,181275
1572448560.411112,4209077.000,25231,3,PI,1,100,181280
1572448560.453191,4209110.000,25249,4,PI,1,100,181323
1572448560.495270,4209143.000,25249,4,PI,1,100,181318
1572448560.537349,4209176.000,25249,4,PI,1,100,181332
1572448560.579428,4209209.000,25249,4,PI,1,100,181330
1572448560.618957,4209240.000,25267,3,PI,1,100,181344
1572448560.658486,4209271.000,25267,3,PI,1,100,181360
1572448560.698015,4209302.000,25267,3,PI,1,100,181395
1572448560.736693,4209332.333,25285,3,PI,1,100,181345
1572448560.775372,4209362.667,25285,3,PI,1,100,181360
1572448560.814051,4209393.000,25285,3,PI,1,100,181218
1572448560.853155,4209423.667,25303,3,PI,1,100,181171
1572448560.892258,4209454.333,25303,3,PI,1,100,181189
1572448560.931362,4209485.000,25303,3,PI,1,100,181231
1572448560.973122,4209517.750,25321,4,PI,1,100,181245
1572448561.014883,4209550.500,25321,4,PI,1,100,181258
1572448561.056643,4209583.250,25321,4,PI,1,100,181219
1572448561.098403,4209616.000,25321,4,PI,1,100,181211
1572448561.136232,4209645.667,25340,3,PI,1,100,181190
1572448561.174060,4209675.333,25340,3,PI,1,100,181211
1572448561.211889,4209705.000,25340,3,PI,1,100,181248
1572448561.256518,4209740.000,25358,3,PI,1,100,181265
1572448561.301147,4209775.000,25358,3,PI,1,100,181262
1572448561.345777,4209810.000,25358,3,PI,1,100,181268
1572448561.384881,4209840.667,25376,3,PI,1,100,181266
1572448561.423984,4209871.333,25376,3,PI,1,100,181311
1572448561.463088,4209902.000,25376,3,PI,1,100,181305
1572448561.501767,4209932.333,25394,3,PI,1,100,181324
1572448561.540446,4209962.667,25394,3,PI,1,100,181315
1572448561.579124,4209993.000,25394,3,PI,1,100,181331
1572448561.619078,4210024.333,25412,3,PI,1,100,181346
1572448561.659032,4210055.667,25412,3,PI,1,100,181239
1572448561.698986,4210087.000,25412,3,PI,1,100,181128
1572448561.740746,4210119.750,25430,4,PI,1,100,181132
1572448561.782506,4210152.500,25430,4,PI,1,100,181166
1572448561.824266,4210185.250,25430,4,PI,1,100,181180
1572448561.866027,4210218.000,25430,4,PI,1,100,181199
1572448561.904706,4210248.333,25448,3,PI,1,100,181184
1572448561.943384,4210278.667,25448,3,PI,1,100,181198
1572448561.982063,4210309.000,25448,3,PI,1,100,181148
1572448562.020742,4210339.333,25466,3,PI,1,100,181142
1572448562.059420,4210369.667,25466,3,PI,1,100,181188
1572448562.098099,4210400.000,25466,3,PI,1,100,181189
1572448562.136778,4210430.333,25485,3,PI,1,100,181219
1572448562.175457,4210460.667,25485,3,PI,1,100,181237
1572448562.214135,4210491.000,25485,3,PI,1,100,181237
1572448562.255577,4210523.500,25502,4,PI,1,100,181255
1572448562.297018,4210556.000,25502,4,PI,1,100,181241
1572448562.338459,4210588.500,25502,4,PI,1,100,181250
1572448562.379901,4210621.000,25502,4,PI,1,100,181262
1572448562.418580,4210651.333,25520,3,PI,1,100,181300
1572448562.457258,4210681.667,25520,3,PI,1,100,181307
1572448562.495937,4210712.000,25520,3,PI,1,100,181334
1572448562.534616,4210742.333,25538,3,PI,1,100,181344
1572448562.573295,4210772.667,25538,3,PI,1,100,181356
1572448562.611973,4210803.000,25538,3,PI,1,100,181244
1572448562.656603,4210838.000,25556,3,PI,1,100,181142
1572448562.701232,4210873.000,25556,3,PI,1,100,181132
1572448562.745861,4210908.000,25556,3,PI,1,100,181181
1572448562.783477,4210937.500,25574,4,PI,1,100,181220
1572448562.821093,4210967.000,25574,4,PI,1,100,181216
1572448562.858710,4210996.500,25574,4,PI,1,100,181225
1572448562.896326,4211026.000,25574,4,PI,1,100,181216
1572448562.940530,4211060.667,25592,3,PI,1,100,181173
1572448562.984734,4211095.333,25592,3,PI,1,100,181202
1572448563.028938,4211130.000,25592,3,PI,1,100,181176
1572448563.067192,4211160.000,25610,3,PI,1,100,181245
1572448563.105446,4211190.000,25610,3,PI,1,100,181259
1572448563.143699,4211220.000,25610,3,PI,1,100,181260
1572448563.182378,4211250.333,25629,3,PI,1,100,181273
1572448563.221057,4211280.667,25629,3,PI,1,100,181322
1572448563.259735,4211311.000,25629,3,PI,1,100,181231
1572448563.297564,4211340.667,25647,3,PI,1,100,181322
1572448563.335393,4211370.333,25647,3,PI,1,100,181301
1572448563.373221,4211400.000,25647,3,PI,1,100,181319
1572448563.414663,4211432.500,25663,4,PI,1,100,181353
1572448563.456104,4211465.000,25663,4,PI,1,100,181360
1572448563.497546,4211497.500,25663,4,PI,1,100,181399
1572448563.538987,4211530.000,25663,4,PI,1,100,181391
1572448563.578091,4211560.667,25681,3,PI,1,100,181234
1572448563.617195,4211591.333,25681,3,PI,1,100,181207
1572448563.656298,4211622.000,25681,3,PI,1,100,181204
1572448563.694977,4211652.333,25699,3,PI,1,100,181249
1572448563.733656,4211682.667,25699,3,PI,1,100,181301
1572448563.772335,4211713.000,25699,3,PI,1,100,181353
1572448563.811438,4211743.667,25717,3,PI,1,100,181322
1572448563.850542,4211774.333,25717,3,PI,1,100,181306
1572448563.889646,4211805.000,25717,3,PI,1,100,181250
1572448563.931406,4211837.750,25735,4,PI,1,100,181275
1572448563.973166,4211870.500,25735,4,PI,1,100,181291
1572448564.014927,4211903.250,25735,4,PI,1,100,181342
1572448564.056687,4211936.000,25735,4,PI,1,100,181338
1572448564.094941,4211966.000,25753,3,PI,1,100,181328
1572448564.133194,4211996.000,25753,3,PI,1,100,181333
1572448564.171448,4212026.000,25753,3,PI,1,100,181347
1572448564.210977,4212057.000,25772,3,PI,1,100,181367
1572448564.250505,4212088.000,25772,3,PI,1,100,181373
1572448564.290034,4212119.000,25772,3,PI,1,100,181381
1572448564.333813,4212153.333,25790,3,PI,1,100,181386
1572448564.377593,4212187.667,25790,3,PI,1,100,181306
1572448564.421372,4212222.000,25790,3,PI,1,100,181167
1572448564.458669,4212251.250,25808,4,PI,1,100,181140
1572448564.495967,4212280.500,25808,4,PI,1,100,181170
1572448564.533264,4212309.750,25808,4,PI,1,100,181220
1572448564.570561,4212339.000,25808,4,PI,1,100,181256
1572448564.610515,4212370.333,25826,3,PI,1,100,181242
1572448564.650469,4212401.667,25826,3,PI,1,100,181225
1572448564.690423,4212433.000,25826,3,PI,1,100,181202
1572448564.730717,4212464.600,25847,5,PI,1,100,181148
1572448564.771010,4212496.200,25847,5,PI,1,100,181201
1572448564.811304,4212527.800,25847,5,PI,1,100,181187
1572448564.851598,4212559.400,25847,5,PI,1,100,181236
1572448564.891892,4212591.000,25847,5,PI,1,100,181243
1572448564.936521,4212626.000,25867,3,PI,1,100,181270
1572448564.981151,4212661.000,25867,3,PI,1,100,181274
1572448565.025780,4212696.000,25867,3,PI,1,100,181315
1572448565.064459,4212726.333,25884,3,PI,1,100,181248
1572448565.103137,4212756.667,25884,3,PI,1,100,181331
1572448565.141816,4212787.000,25884,3,PI,1,100,181323
1572448565.179432,4212816.500,25903,4,PI,1,100,181331
1572448565.217048,4212846.000,25903,4,PI,1,100,181247
1572448565.254664,4212875.500,25903,4,PI,1,100,181110
1572448565.292280,4212905.000,25903,4,PI,1,100,181073
1572448565.337335,4212940.333,25921,3,PI,1,100,181099
1572448565.382389,4212975.667,25921,3,PI,1,100,181100
1572448565.427444,4213011.000,25921,3,PI,1,100,181112
1572448565.465697,4213041.000,25939,3,PI,1,100,181090
1572448565.503951,4213071.000,25939,3,PI,1,100,181088
1572448565.542204,4213101.000,25939,3,PI,1,100,181073
1572448565.581308,4213131.667,25957,3,PI,1,100,181054
1572448565.620412,4213162.333,25957,3,PI,1,100,181042
1572448565.659516,4213193.000,25957,3,PI,1,100,181096
1572448565.698195,4213223.333,25975,3,PI,1,100,181095
1572448565.736873,4213253.667,25975,3,PI,1,100,181114
1572448565.775552,4213284.000,25975,3,PI,1,100,181110
1572448565.817312,4213316.750,25991,4,PI,1,100,181135
1572448565.859072,4213349.500,25991,4,PI,1,100,181143
1572448565.900833,4213382.250,25991,4,PI,1,100,181133
1572448565.942593,4213415.000,25991,4,PI,1,100,181142
1572448565.981697,4213445.667,26009,3,PI,1,100,181155
1572448566.020800,4213476.333,26009,3,PI,1,100,181176
1572448566.059904,4213507.000,26009,3,PI,1,100,181161
1572448566.097733,4213536.667,26027,3,PI,1,100,181072
1572448566.135561,4213566.333,26027,3,PI,1,100,180929
1572448566.173390,4213596.000,26027,3,PI,1,100,180880
1572448566.212069,4213626.333,26046,3,PI,1,100,180907
1572448566.250747,4213656.667,26046,3,PI,1,100,180904
1572448566.289426,4213687.000,26046,3,PI,1,100,180897
1572448566.330868,4213719.500,26064,4,PI,1,100,180906
1572448566.372309,4213752.000,26064,4,PI,1,100,180919
1572448566.413751,4213784.500,26064,4,PI,1,100,180870
1572448566.455192,4213817.000,26064,4,PI,1,100,180848
1572448566.493021,4213846.667,26082,3,PI,1,100,180876
1572448566.530849,4213876.333,26082,3,PI,1,100,180859
1572448566.568678,4213906.000,26082,3,PI,1,100,180910
1572448566.613307,4213941.000,26100,3,PI,1,100,180878
1572448566.657937,4213976.000,26100,3,PI,1,100,180942
1572448566.702566,4214011.000,26100,3,PI,1,100,180931
1572448566.741669,4214041.667,26118,3,PI,1,100,180925
1572448566.780773,4214072.333,26118,3,PI,1,100,180935
1572448566.819877,4214103.000,26118,3,PI,1,100,180989
1572448566.857174,4214132.250,26136,4,PI,1,100,180916
1572448566.894472,4214161.500,26136,4,PI,1,100,180990
1572448566.931769,4214190.750,26136,4,PI,1,100,180971
1572448566.969066,4214220.000,26136,4,PI,1,100,181011
1572448567.013696,4214255.000,26154,3,PI,1,100,181014
1572448567.058325,4214290.000,26154,3,PI,1,100,180888
1572448567.102954,4214325.000,26154,3,PI,1,100,180759
1572448567.141208,4214355.000,26172,3,PI,1,100,180719
1572448567.179461,4214385.000,26172,3,PI,1,100,180721
1572448567.217715,4214415.000,26172,3,PI,1,100,180752
1572448567.254694,4214444.000,26191,4,PI,1,100,180743
1572448567.291672,4214473.000,26191,4,PI,1,100,180733
1572448567.328651,4214502.000,26191,4,PI,1,100,180743
1572448567.365629,4214531.000,26191,4,PI,1,100,180676
1572448567.407708,4214564.000,26209,2,PI,1,100,180665
1572448567.449787,4214597.000,26209,2,PI,1,100,180706
1572448567.491229,4214629.500,26227,4,PI,1,100,180698
1572448567.532670,4214662.000,26227,4,PI,1,100,180719
1572448567.574112,4214694.500,26227,4,PI,1,100,180734
1572448567.615553,4214727.000,26227,4,PI,1,100,180754
1572448567.654232,4214757.333,26245,3,PI,1,100,180748
1572448567.692911,4214787.667,26245,3,PI,1,100,180753
1572448567.731590,4214818.000,26245,3,PI,1,100,180750
1572448567.771118,4214849.000,26263,3,PI,1,100,180747
1572448567.810647,4214880.000,26263,3,PI,1,100,180776
1572448567.850176,4214911.000,26263,3,PI,1,100,180804
1572448567.895230,4214946.333,26281,3,PI,1,100,180802
1572448567.940284,4214981.667,26281,3,PI,1,100,180820
1572448567.985339,4215017.000,26281,3,PI,1,100,180839
1572448568.022636,4215046.250,26299,4,PI,1,100,180844
1572448568.059933,4215075.500,26299,4,PI,1,100,180813
1572448568.097231,4215104.750,26299,4,PI,1,100,180682
1572448568.134528,4215134.000,26299,4,PI,1,100,180556
1572448568.173207,4215164.333,26317,3,PI,1,100,180600
1572448568.211886,4215194.667,26317,3,PI,1,100,180579
1572448568.250564,4215225.000,26317,3,PI,1,100,180614
1572448568.294769,4215259.667,26336,3,PI,1,100,180589
1572448568.338973,4215294.333,26336,3,PI,1,100,180619
1572448568.383177,4215329.000,26336,3,PI,1,100,180582
1572448568.421431,4215359.000,26354,3,PI,1,100,180535
1572448568.459684,4215389.000,26354,3,PI,1,100,180547
1572448568.497938,4215419.000,26354,3,PI,1,100,180566
1572448568.535554,4215448.500,26372,4,PI,1,100,180557
1572448568.573170,4215478.000,26372,4,PI,1,100,180606
1572448568.610786,4215507.500,26372,4,PI,1,100,180603
1572448568.648402,4215537.000,26372,4,PI,1,100,180607
1572448568.693032,4215572.000,26390,3,PI,1,100,180630
1572448568.737661,4215607.000,26390,3,PI,1,100,180651
1572448568.782290,4215642.000,26390,3,PI,1,100,180651
1572448568.820969,4215672.333,26408,3,PI,1,100,180661
1572448568.859648,4215702.667,26408,3,PI,1,100,180673
1572448568.898326,4215733.000,26408,3,PI,1,100,180691
1572448568.938280,4215764.333,26426,3,PI,1,100,180698
1572448568.978234,4215795.667,26426,3,PI,1,100,180729
1572448569.018188,4215827.000,26426,3,PI,1,100,180768
1572448569.056867,4215857.333,26443,3,PI,1,100,180767
1572448569.095545,4215887.667,26443,3,PI,1,100,180690
1572448569.134224,4215918.000,26443,3,PI,1,100,180513
1572448569.175666,4215950.500,26461,4,PI,1,100,180478
1572448569.217107,4215983.000,26461,4,PI,1,100,180519
1572448569.258548,4216015.500,26461,4,PI,1,100,180518
1572448569.299990,4216048.000,26461,4,PI,1,100,180531
1572448569.338669,4216078.333,26480,3,PI,1,100,180555
1572448569.377347,4216108.667,26480,3,PI,1,100,180499
1572448569.416026,4216139.000,26480,3,PI,1,100,180487
1572448569.454280,4216169.000,26498,3,PI,1,100,180476
1572448569.492533,4216199.000,26498,3,PI,1,100,180490
1572448569.530787,4216229.000,26498,3,PI,1,100,180539
1572448569.569466,4216259.333,26516,3,PI,1,100,180539
1572448569.608145,4216289.667,26516,3,PI,1,100,180546
1572448569.646823,4216320.000,26516,3,PI,1,100,180547
1572448569.687946,4216352.250,26534,4,PI,1,100,180549
1572448569.729069,4216384.500,26534,4,PI,1,100,180591
1572448569.770191,4216416.750,26534,4,PI,1,100,180562
1572448569.811314,4216449.000,26534,4,PI,1,100,180621
1572448569.849993,4216479.333,26552,3,PI,1,100,180619
1572448569.888671,4216509.667,26552,3,PI,1,100,180640
1572448569.927350,4216540.000,26552,3,PI,1,100,180664
1572448569.966454,4216570.667,26570,3,PI,1,100,180711
1572448570.005558,4216601.333,26570,3,PI,1,100,180710
1572448570.044662,4216632.000,26570,3,PI,1,100,180730
1572448570.089291,4216667.000,26588,3,PI,1,100,180628
1572448570.133920,4216702.000,26588,3,PI,1,100,180479
1572448570.178549,4216737.000,26588,3,PI,1,100,180445
1572448570.215847,4216766.250,26605,4,PI,1,100,180488
1572448570.253144,4216795.500,26605,4,PI,1,100,180524
1572448570.290441,4216824.750,26605,4,PI,1,100,180510
1572448570.327739,4216854.000,26605,4,PI,1,100,180525
1572448570.366417,4216884.333,26623,3,PI,1,100,180508
1572448570.405096,4216914.667,26623,3,PI,1,100,180446
1572448570.443775,4216945.000,26623,3,PI,1,100,180459
1572448570.488404,4216980.000,26641,3,PI,1,100,180466
1572448570.533033,4217015.000,26641,3,PI,1,100,180481
1572448570.577662,4217050.000,26641,3,PI,1,100,180518
1572448570.615916,4217080.000,26659,3,PI,1,100,180535
1572448570.654170,4217110.000,26659,3,PI,1,100,180550
1572448570.692424,4217140.000,26659,3,PI,1,100,180543
1572448570.729721,4217169.250,26677,4,PI,1,100,180581
1572448570.767018,4217198.500,26677,4,PI,1,100,180580
1572448570.804316,4217227.750,26677,4,PI,1,100,180595
1572448570.841613,4217257.000,26677,4,PI,1,100,180601
1572448570.883054,4217289.500,26695,2,PI,1,100,180621
1572448570.924496,4217322.000,26695,2,PI,1,100,180620
1572448570.966575,4217355.000,26713,4,PI,1,100,180673
1572448571.008654,4217388.000,26713,4,PI,1,100,180667
1572448571.050733,4217421.000,26713,4,PI,1,100,180648
1572448571.092812,4217454.000,26713,4,PI,1,100,180491
1572448571.132341,4217485.000,26731,3,PI,1,100,180416
1572448571.171870,4217516.000,26731,3,PI,1,100,180425
1572448571.211398,4217547.000,26731,3,PI,1,100,180493
1572448571.251692,4217578.600,26753,5,PI,1,100,180441
1572448571.291986,4217610.200,26753,5,PI,1,100,180481
1572448571.332280,4217641.800,26753,5,PI,1,100,180446
1572448571.372574,4217673.400,26753,5,PI,1,100,180452
1572448571.412868,4217705.000,26753,5,PI,1,100,180438
1572448571.450696,4217734.667,26773,3,PI,1,100,180442
1572448571.488525,4217764.333,26773,3,PI,1,100,180468
1572448571.526354,4217794.000,26773,3,PI,1,100,180468
1572448571.567795,4217826.500,26790,4,PI,1,100,180478
1572448571.609236,4217859.000,26790,4,PI,1,100,180502
1572448571.650678,4217891.500,26790,4,PI,1,100,180487
1572448571.692120,4217924.000,26790,4,PI,1,100,180528
1572448571.731648,4217955.000,26808,3,PI,1,100,180552
1572448571.771177,4217986.000,26808,3,PI,1,100,180557
1572448571.810706,4218017.000,26808,3,PI,1,100,180571
1572448571.849385,4218047.333,26826,3,PI,1,100,180580
1572448571.888063,4218077.667,26826,3,PI,1,100,180599
1572448571.926742,4218108.000,26826,3,PI,1,100,180646
1572448571.971371,4218143.000,26844,3,PI,1,100,180628
1572448572.016001,4218178.000,26844,3,PI,1,100,180643
1572448572.060630,4218213.000,26844,3,PI,1,100,180587
1572448572.098884,4218243.000,26862,4,PI,1,100,180423
1572448572.137137,4218273.000,26862,4,PI,1,100,180380
1572448572.175391,4218303.000,26862,4,PI,1,100,180373
1572448572.213645,4218333.000,26862,4,PI,1,100,180416
1572448572.252323,4218363.333,26880,3,PI,1,100,180393
1572448572.291002,4218393.667,26880,3,PI,1,100,180419
1572448572.329681,4218424.000,26880,3,PI,1,100,180421
1572448572.373885,4218458.667,26899,3,PI,1,100,180394
1572448572.418089,4218493.333,26899,3,PI,1,100,180349
1572448572.462293,4218528.000,26899,3,PI,1,100,180386
1572448572.500972,4218558.333,26915,3,PI,1,100,180364
1572448572.539651,4218588.667,26915,3,PI,1,100,180408
1572448572.578330,4218619.000,26915,3,PI,1,100,180406
1572448572.615627,4218648.250,26933,4,PI,1,100,180441
1572448572.652924,4218677.500,26933,4,PI,1,100,180454
1572448572.690222,4218706.750,26933,4,PI,1,100,180501
1572448572.727519,4218736.000,26933,4,PI,1,100,180465
1572448572.768960,4218768.500,26951,2,PI,1,100,180507
1572448572.810402,4218801.000,26951,2,PI,1,100,180464
1572448572.852162,4218833.750,26969,4,PI,1,100,180519
1572448572.893922,4218866.500,26969,4,PI,1,100,180508
1572448572.935683,4218899.250,26969,4,PI,1,100,180559
1572448572.977443,4218932.000,26969,4,PI,1,100,180594
1572448573.016122,4218962.333,26987,3,PI,1,100,180614
1572448573.054800,4218992.667,26987,3,PI,1,100,180621
1572448573.093479,4219023.000,26987,3,PI,1,100,180610
1572448573.132583,4219053.667,27005,3,PI,1,100,180470
1572448573.171686,4219084.333,27005,3,PI,1,100,180344
1572448573.210790,4219115.000,27005,3,PI,1,100,180316
1572448573.249469,4219145.333,27024,3,PI,1,100,180351
1572448573.288148,4219175.667,27024,3,PI,1,100,180379
1572448573.326826,4219206.000,27024,3,PI,1,100,180371
1572448573.367630,4219238.000,27042,4,PI,1,100,180371
1572448573.408434,4219270.000,27042,4,PI,1,100,180363
1572448573.449238,4219302.000,27042,4,PI,1,100,180322
1572448573.490042,4219334.000,27042,4,PI,1,100,180289
1572448573.528721,4219364.333,27060,3,PI,1,100,180307
1572448573.567400,4219394.667,27060,3,PI,1,100,180325
1572448573.606078,4219425.000,27060,3,PI,1,100,180390
1572448573.644332,4219455.000,27078,3,PI,1,100,180333
1572448573.682585,4219485.000,27078,3,PI,1,100,180386
1572448573.720839,4219515.000,27078,3,PI,1,100,180348
1572448573.761962,4219547.250,27096,4,PI,1,100,180387
1572448573.803085,4219579.500,27096,4,PI,1,100,180400
1572448573.844207,4219611.750,27096,4,PI,1,100,180431
1572448573.885330,4219644.000,27096,4,PI,1,100,180440
1572448573.924434,4219674.667,27114,3,PI,1,100,180450
1572448573.963537,4219705.333,27114,3,PI,1,100,180437
1572448574.002641,4219736.000,27114,3,PI,1,100,180472
1572448574.047271,4219771.000,27132,3,PI,1,100,180493
1572448574.091900,4219806.000,27132,3,PI,1,100,180522
1572448574.136529,4219841.000,27132,3,PI,1,100,180492
1572448574.175208,4219871.333,27150,3,PI,1,100,180458
1572448574.213886,4219901.667,27150,3,PI,1,100,180289
1572448574.252565,4219932.000,27150,3,PI,1,100,180220
1572448574.290181,4219961.500,27169,4,PI,1,100,180228
1572448574.327797,4219991.000,27169,4,PI,1,100,180284
1572448574.365413,4220020.500,27169,4,PI,1,100,180222
1572448574.403030,4220050.000,27169,4,PI,1,100,180241
1572448574.443196,4220081.500,27187,2,PI,1,100,180246
1572448574.483362,4220113.000,27187,2,PI,1,100,180214
1572448574.525123,4220145.750,27205,4,PI,1,100,180206
1572448574.566883,4220178.500,27205,4,PI,1,100,180198
1572448574.608643,4220211.250,27205,4,PI,1,100,180250
1572448574.650403,4220244.000,27205,4,PI,1,100,180222
1572448574.689082,4220274.333,27223,3,PI,1,100,180240
1572448574.727761,4220304.667,27223,3,PI,1,100,180271
1572448574.766439,4220335.000,27223,3,PI,1,100,180259
1572448574.804693,4220365.000,27241,3,PI,1,100,180289
1572448574.842947,4220395.000,27241,3,PI,1,100,180303
1572448574.881201,4220425.000,27241,3,PI,1,100,180274
1572448574.920729,4220456.000,27259,3,PI,1,100,180315
1572448574.960258,4220487.000,27259,3,PI,1,100,180332
1572448574.999787,4220518.000,27259,3,PI,1,100,180353
1572448575.041547,4220550.750,27277,4,PI,1,100,180388
1572448575.083307,4220583.500,27277,4,PI,1,100,180418
1572448575.125068,4220616.250,27277,4,PI,1,100,180410
1572448575.166828,4220649.000,27277,4,PI,1,100,180334
1572448575.205507,4220679.333,27295,3,PI,1,100,180154
1572448575.244185,4220709.667,27295,3,PI,1,100,180128
1572448575.282864,4220740.000,27295,3,PI,1,100,180114
1572448575.322818,4220771.333,27314,3,PI,1,100,180147
1572448575.362772,4220802.667,27314,3,PI,1,100,180170
1572448575.402725,4220834.000,27314,3,PI,1,100,180162
1572448575.447355,4220869.000,27332,3,PI,1,100,180157
1572448575.491984,4220904.000,27332,3,PI,1,100,180109
1572448575.536613,4220939.000,27332,3,PI,1,100,180116
1572448575.573592,4220968.000,27349,4,PI,1,100,180110
1572448575.610570,4220997.000,27349,4,PI,1,100,180132
1572448575.647549,4221026.000,27349,4,PI,1,100,180146
1572448575.684528,4221055.000,27349,4,PI,1,100,180174
1572448575.723631,4221085.667,27367,3,PI,1,100,180185
1572448575.762735,4221116.333,27367,3,PI,1,100,180207
1572448575.801839,4221147.000,27367,3,PI,1,100,180226
1572448575.846893,4221182.333,27385,3,PI,1,100,180241
1572448575.891948,4221217.667,27385,3,PI,1,100,180248
1572448575.937002,4221253.000,27385,3,PI,1,100,180285
1572448575.975255,4221283.000,27403,3,PI,1,100,180300
1572448576.013509,4221313.000,27403,3,PI,1,100,180335
1572448576.051763,4221343.000,27403,3,PI,1,100,180326
1572448576.089379,4221372.500,27421,4,PI,1,100,180371
1572448576.126995,4221402.000,27421,4,PI,1,100,180306
1572448576.164611,4221431.500,27421,4,PI,1,100,180187
1572448576.202227,4221461.000,27421,4,PI,1,100,180095
1572448576.243669,4221493.500,27439,2,PI,1,100,180155
1572448576.285110,4221526.000,27439,2,PI,1,100,180191
1572448576.326870,4221558.750,27458,4,PI,1,100,180201
1572448576.368631,4221591.500,27458,4,PI,1,100,180210
1572448576.410391,4221624.250,27458,4,PI,1,100,180211
1572448576.452151,4221657.000,27458,4,PI,1,100,180162
1572448576.491255,4221687.667,27476,3,PI,1,100,180173
1572448576.530359,4221718.333,27476,3,PI,1,100,180166
1572448576.569463,4221749.000,27476,3,PI,1,100,180197
1572448576.607291,4221778.667,27492,3,PI,1,100,180244
1572448576.645120,4221808.333,27492,3,PI,1,100,180259
1572448576.682948,4221838.000,27492,3,PI,1,100,180276
1572448576.724390,4221870.500,27510,4,PI,1,100,180292
1572448576.765831,4221903.000,27510,4,PI,1,100,180287
1572448576.807273,4221935.500,27510,4,PI,1,100,180310
1572448576.848714,4221968.000,27510,4,PI,1,100,180334
1572448576.887393,4221998.333,27528,3,PI,1,100,180326
1572448576.926072,4222028.667,27528,3,PI,1,100,180377
1572448576.964750,4222059.000,27528,3,PI,1,100,180361
1572448577.003004,4222089.000,27546,3,PI,1,100,180429
1572448577.041258,4222119.000,27546,3,PI,1,100,180374
1572448577.079511,4222149.000,27546,3,PI,1,100,180256
1572448577.118615,4222179.667,27564,3,PI,1,100,180167
1572448577.157719,4222210.333,27564,3,PI,1,100,180170
1572448577.196823,4222241.000,27564,3,PI,1,100,180209
1572448577.238583,4222273.750,27582,4,PI,1,100,180236
1572448577.280343,4222306.500,27582,4,PI,1,100,180240
1572448577.322104,4222339.250,27582,4,PI,1,100,180257
1572448577.363864,4222372.000,27582,4,PI,1,100,180212
1572448577.402542,4222402.333,27601,3,PI,1,100,180179
1572448577.441221,4222432.667,27601,3,PI,1,100,180195
1572448577.479900,4222463.000,27601,3,PI,1,100,180217
1572448577.519428,4222494.000,27619,3,PI,1,100,180220
1572448577.558957,4222525.000,27619,3,PI,1,100,180258
1572448577.598486,4222556.000,27619,3,PI,1,100,180242
1572448577.642265,4222590.333,27637,3,PI,1,100,180275
1572448577.686045,4222624.667,27637,3,PI,1,100,180274
1572448577.729824,4222659.000,27637,3,PI,1,100,180295
1572448577.769608,4222690.200,27658,5,PI,1,100,180330
1572448577.809391,4222721.400,27658,5,PI,1,100,180321
1572448577.849175,4222752.600,27658,5,PI,1,100,180353
1572448577.888959,4222783.800,27658,5,PI,1,100,180366
1572448577.928743,4222815.000,27658,5,PI,1,100,180406
1572448577.965721,4222844.000,27678,4,PI,1,100,180412
1572448578.002700,4222873.000,27678,4,PI,1,100,180299
1572448578.039679,4222902.000,27678,4,PI,1,100,180154
1572448578.076657,4222931.000,27678,4,PI,1,100,180111
1572448578.116611,4222962.333,27695,3,PI,1,100,180132
1572448578.156565,4222993.667,27695,3,PI,1,100,180176
1572448578.196519,4223025.000,27695,3,PI,1,100,180198
1572448578.241148,4223060.000,27713,3,PI,1,100,180216
1572448578.285777,4223095.000,27713,3,PI,1,100,180219
1572448578.330406,4223130.000,27713,3,PI,1,100,180175
1572448578.369085,4223160.333,27732,3,PI,1,100,180152
1572448578.407764,4223190.667,27732,3,PI,1,100,180168
1572448578.446443,4223221.000,27732,3,PI,1,100,180186
1572448578.484377,4223250.750,27750,4,PI,1,100,180217
1572448578.522312,4223280.500,27750,4,PI,1,100,180222
1572448578.560247,4223310.250,27750,4,PI,1,100,180268
1572448578.598182,4223340.000,27750,4,PI,1,100,180272
1572448578.639624,4223372.500,27768,2,PI,1,100,180332
1572448578.681065,4223405.000,27768,2,PI,1,100,180354
1572448578.722825,4223437.750,27786,4,PI,1,100,180347
1572448578.764585,4223470.500,27786,4,PI,1,100,180374
1572448578.806346,4223503.250,27786,4,PI,1,100,180383
1572448578.848106,4223536.000,27786,4,PI,1,100,180407
1572448578.887210,4223566.667,27804,3,PI,1,100,180435
1572448578.926314,4223597.333,27804,3,PI,1,100,180333
1572448578.965417,4223628.000,27804,3,PI,1,100,180165
1572448579.003671,4223658.000,27820,3,PI,1,100,180150
1572448579.041925,4223688.000,27820,3,PI,1,100,180165
1572448579.080178,4223718.000,27820,3,PI,1,100,180206
1572448579.124808,4223753.000,27838,3,PI,1,100,180225
1572448579.169437,4223788.000,27838,3,PI,1,100,180267
1572448579.214066,4223823.000,27838,3,PI,1,100,180232
1572448579.252001,4223852.750,27856,4,PI,1,100,180192
1572448579.289936,4223882.500,27856,4,PI,1,100,180176
1572448579.327871,4223912.250,27856,4,PI,1,100,180243
1572448579.365806,4223942.000,27856,4,PI,1,100,180186
1572448579.404910,4223972.667,27875,3,PI,1,100,180274
1572448579.444013,4224003.333,27875,3,PI,1,100,180266
1572448579.483117,4224034.000,27875,3,PI,1,100,180316
1572448579.527746,4224069.000,27893,3,PI,1,100,180339
1572448579.572376,4224104.000,27893,3,PI,1,100,180361
1572448579.617005,4224139.000,27893,3,PI,1,100,180384
1572448579.655684,4224169.333,27911,3,PI,1,100,180380
1572448579.694362,4224199.667,27911,3,PI,1,100,180381
1572448579.733041,4224230.000,27911,3,PI,1,100,180434
1572448579.769701,4224258.750,27929,4,PI,1,100,180439
1572448579.806360,4224287.500,27929,4,PI,1,100,180448
1572448579.843020,4224316.250,27929,4,PI,1,100,180333
1572448579.879680,4224345.000,27929,4,PI,1,100,180199
1572448579.923884,4224379.667,27947,3,PI,1,100,180170
1572448579.968089,4224414.333,27947,3,PI,1,100,180203
1572448580.012293,4224449.000,27947,3,PI,1,100,180248
1572448580.050972,4224479.333,27965,3,PI,1,100,180289
1572448580.089650,4224509.667,27965,3,PI,1,100,180265
1572448580.128329,4224540.000,27965,3,PI,1,100,180242
1572448580.167008,4224570.333,27983,3,PI,1,100,180226
1572448580.205686,4224600.667,27983,3,PI,1,100,180192
1572448580.244365,4224631.000,27983,3,PI,1,100,180240
1572448580.283469,4224661.667,28001,3,PI,1,100,180251
1572448580.322572,4224692.333,28001,3,PI,1,100,180293
1572448580.361676,4224723.000,28001,3,PI,1,100,180308
1572448580.403437,4224755.750,28020,4,PI,1,100,180324
1572448580.445197,4224788.500,28020,4,PI,1,100,180343
1572448580.486957,4224821.250,28020,4,PI,1,100,180350
1572448580.528717,4224854.000,28020,4,PI,1,100,180357
1572448580.567396,4224884.333,28038,3,PI,1,100,180394
1572448580.606075,4224914.667,28038,3,PI,1,100,180388
1572448580.644753,4224945.000,28038,3,PI,1,100,180417
1572448580.683432,4224975.333,28056,3,PI,1,100,180421
1572448580.722111,4225005.667,28056,3,PI,1,100,180349
1572448580.760790,4225036.000,28056,3,PI,1,100,180231
1572448580.805419,4225071.000,28074,3,PI,1,100,180180
1572448580.850048,4225106.000,28074,3,PI,1,100,180207
1572448580.894677,4225141.000,28074,3,PI,1,100,180250
1572448580.931656,4225170.000,28092,4,PI,1,100,180246
1572448580.968635,4225199.000,28092,4,PI,1,100,180291
1572448581.005613,4225228.000,28092,4,PI,1,100,180249
1572448581.042592,4225257.000,28092,4,PI,1,100,180183
1572448581.081270,4225287.333,28110,3,PI,1,100,180214
1572448581.119949,4225317.667,28110,3,PI,1,100,180197
1572448581.158628,4225348.000,28110,3,PI,1,100,180249
1572448581.203682,4225383.333,28128,3,PI,1,100,180246
1572448581.248736,4225418.667,28128,3,PI,1,100,180309
1572448581.293791,4225454.000,28128,3,PI,1,100,180302
1572448581.332469,4225484.333,28146,3,PI,1,100,180292
1572448581.371148,4225514.667,28146,3,PI,1,100,180325
1572448581.409827,4225545.000,28146,3,PI,1,100,180347
1572448581.447762,4225574.750,28165,4,PI,1,100,180345
1572448581.485697,4225604.500,28165,4,PI,1,100,180381
1572448581.523632,4225634.250,28165,4,PI,1,100,180336
1572448581.561566,4225664.000,28165,4,PI,1,100,180215
1572448581.603008,4225696.500,28183,2,PI,1,100,180084
1572448581.644449,4225729.000,28183,2,PI,1,100,180044
1572448581.685891,4225761.500,28201,4,PI,1,100,180064
1572448581.727332,4225794.000,28201,4,PI,1,100,180112
1572448581.768774,4225826.500,28201,4,PI,1,100,180067
1572448581.810215,4225859.000,28201,4,PI,1,100,180094
1572448581.849744,4225890.000,28219,3,PI,1,100,180041
1572448581.889273,4225921.000,28219,3,PI,1,100,180000
1572448581.928802,4225952.000,28219,3,PI,1,100,179984
1572448581.966630,4225981.667,28236,3,PI,1,100,179990
1572448582.004459,4226011.333,28236,3,PI,1,100,180015
1572448582.042288,4226041.000,28236,3,PI,1,100,179987
1572448582.083729,4226073.500,28254,4,PI,1,100,179997
1572448582.125170,4226106.000,28254,4,PI,1,100,180019
1572448582.166612,4226138.500,28254,4,PI,1,100,179993
1572448582.208053,4226171.000,28254,4,PI,1,100,180018
1572448582.247582,4226202.000,28272,3,PI,1,100,180049
1572448582.287111,4226233.000,28272,3,PI,1,100,180049
1572448582.326640,4226264.000,28272,3,PI,1,100,180061
1572448582.365319,4226294.333,28290,3,PI,1,100,180033
1572448582.403997,4226324.667,28290,3,PI,1,100,179885
1572448582.442676,4226355.000,28290,3,PI,1,100,179747
1572448582.481780,4226385.667,28309,3,PI,1,100,179672
1572448582.520884,4226416.333,28309,3,PI,1,100,179642
1572448582.559987,4226447.000,28309,3,PI,1,100,179622
1572448582.605042,4226482.333,28327,3,PI,1,100,179575
1572448582.650096,4226517.667,28327,3,PI,1,100,179598
1572448582.695150,4226553.000,28327,3,PI,1,100,179530
1572448582.732448,4226582.250,28344,4,PI,1,100,179520
1572448582.769745,4226611.500,28344,4,PI,1,100,179456
1572448582.807042,4226640.750,28344,4,PI,1,100,179482
1572448582.844340,4226670.000,28344,4,PI,1,100,179488
1572448582.883018,4226700.333,28361,3,PI,1,100,179522
1572448582.921697,4226730.667,28361,3,PI,1,100,179510
1572448582.960376,4226761.000,28361,3,PI,1,100,179536
1572448583.004155,4226795.333,28379,3,PI,1,100,179531
1572448583.047934,4226829.667,28379,3,PI,1,100,179547
1572448583.091713,4226864.000,28379,3,PI,1,100,179537
1572448583.129967,4226894.000,28397,3,PI,1,100,179564
1572448583.168221,4226924.000,28397,3,PI,1,100,179591
1572448583.206474,4226954.000,28397,3,PI,1,100,179591
1572448583.243772,4226983.250,28415,4,PI,1,100,179593
1572448583.281069,4227012.500,28415,4,PI,1,100,179516
1572448583.318366,4227041.750,28415,4,PI,1,100,179305
1572448583.355664,4227071.000,28415,4,PI,1,100,179213
1572448583.400293,4227106.000,28433,3,PI,1,100,179199
1572448583.444922,4227141.000,28433,3,PI,1,100,179149
1572448583.489551,4227176.000,28433,3,PI,1,100,179167
1572448583.528230,4227206.333,28452,3,PI,1,100,179125
1572448583.566909,4227236.667,28452,3,PI,1,100,179138
1572448583.605587,4227267.000,28452,3,PI,1,100,179066
1572448583.644691,4227297.667,28470,3,PI,1,100,179073
1572448583.683795,4227328.333,28470,3,PI,1,100,179081
1572448583.722899,4227359.000,28470,3,PI,1,100,179064
1572448583.762002,4227389.667,28488,3,PI,1,100,179080
1572448583.801106,4227420.333,28488,3,PI,1,100,179082
1572448583.840210,4227451.000,28488,3,PI,1,100,179083
1572448583.881651,4227483.500,28506,4,PI,1,100,179121
1572448583.923093,4227516.000,28506,4,PI,1,100,179100
1572448583.964535,4227548.500,28506,4,PI,1,100,179144
1572448584.005976,4227581.000,28506,4,PI,1,100,179151
1572448584.044655,4227611.333,28524,3,PI,1,100,179158
1572448584.083333,4227641.667,28524,3,PI,1,100,179190
1572448584.122012,4227672.000,28524,3,PI,1,100,179242
1572448584.160691,4227702.333,28542,3,PI,1,100,179230
1572448584.199369,4227732.667,28542,3,PI,1,100,179273
1572448584.238048,4227763.000,28542,3,PI,1,100,179185
1572448584.278342,4227794.600,28563,5,PI,1,100,179015
1572448584.318636,4227826.200,28563,5,PI,1,100,178934
1572448584.358930,4227857.800,28563,5,PI,1,100,178923
1572448584.399224,4227889.400,28563,5,PI,1,100,178928
1572448584.439517,4227921.000,28563,5,PI,1,100,178860
1572448584.481596,4227954.000,28584,4,PI,1,100,178869
1572448584.523676,4227987.000,28584,4,PI,1,100,178866
1572448584.565755,4228020.000,28584,4,PI,1,100,178795
1572448584.607834,4228053.000,28584,4,PI,1,100,178799
1572448584.647362,4228084.000,28601,3,PI,1,100,178797
1572448584.686891,4228115.000,28601,3,PI,1,100,178790
1572448584.726420,4228146.000,28601,3,PI,1,100,178821
1572448584.765099,4228176.333,28619,3,PI,1,100,178824
1572448584.803777,4228206.667,28619,3,PI,1,100,178852
1572448584.842456,4228237.000,28619,3,PI,1,100,178890
1572448584.887085,4228272.000,28637,3,PI,1,100,178893
1572448584.931715,4228307.000,28637,3,PI,1,100,178914
1572448584.976344,4228342.000,28637,3,PI,1,100,178943
1572448585.013960,4228371.500,28655,4,PI,1,100,178913
1572448585.051576,4228401.000,28655,4,PI,1,100,179002
1572448585.089192,4228430.500,28655,4,PI,1,100,178995
1572448585.126808,4228460.000,28655,4,PI,1,100,179052
1572448585.164637,4228489.667,28673,3,PI,1,100,179048
1572448585.202466,4228519.333,28673,3,PI,1,100,179094
1572448585.240294,4228549.000,28673,3,PI,1,100,179075
1572448585.284924,4228584.000,28691,3,PI,1,100,178946
1572448585.329553,4228619.000,28691,3,PI,1,100,178833
1572448585.374182,4228654.000,28691,3,PI,1,100,178884
1572448585.413711,4228685.000,28708,3,PI,1,100,178865
1572448585.453240,4228716.000,28708,3,PI,1,100,178911
1572448585.492769,4228747.000,28708,3,PI,1,100,178902
1572448585.531447,4228777.333,28726,3,PI,1,100,178938
1572448585.570126,4228807.667,28726,3,PI,1,100,178917
1572448585.608805,4228838.000,28726,3,PI,1,100,178920
1572448585.648759,4228869.333,28744,3,PI,1,100,178923
1572448585.688712,4228900.667,28744,3,PI,1,100,178985
1572448585.728666,4228932.000,28744,3,PI,1,100,178948
1572448585.770108,4228964.500,28762,4,PI,1,100,179030
1572448585.811549,4228997.000,28762,4,PI,1,100,179036
1572448585.852991,4229029.500,28762,4,PI,1,100,179099
1572448585.894432,4229062.000,28762,4,PI,1,100,179105
1572448585.933111,4229092.333,28780,3,PI,1,100,179139
1572448585.971790,4229122.667,28780,3,PI,1,100,179164
1572448586.010468,4229153.000,28780,3,PI,1,100,179204
1572448586.049147,4229183.333,28798,3,PI,1,100,179229
1572448586.087826,4229213.667,28798,3,PI,1,100,179282
1572448586.126504,4229244.000,28798,3,PI,1,100,179317
1572448586.165183,4229274.333,28816,3,PI,1,100,179358
1572448586.203862,4229304.667,28816,3,PI,1,100,179410
1572448586.242541,4229335.000,28816,3,PI,1,100,179434
1572448586.283982,4229367.500,28834,4,PI,1,100,179329
1572448586.325423,4229400.000,28834,4,PI,1,100,179285
1572448586.366865,4229432.500,28834,4,PI,1,100,179272
1572448586.408306,4229465.000,28834,4,PI,1,100,179322
1572448586.447410,4229495.667,28852,3,PI,1,100,179322
1572448586.486514,4229526.333,28852,3,PI,1,100,179382
1572448586.525618,4229557.000,28852,3,PI,1,100,179411
1572448586.564296,4229587.333,28871,3,PI,1,100,179388
1572448586.602975,4229617.667,28871,3,PI,1,100,179379
1572448586.641654,4229648.000,28871,3,PI,1,100,179382
1572448586.686283,4229683.000,28889,3,PI,1,100,179404
1572448586.730912,4229718.000,28889,3,PI,1,100,179452
1572448586.775542,4229753.000,28889,3,PI,1,100,179453
1572448586.812839,4229782.250,28907,4,PI,1,100,179522
1572448586.850136,4229811.500,28907,4,PI,1,100,179506
1572448586.887434,4229840.750,28907,4,PI,1,100,179566
1572448586.924731,4229870.000,28907,4,PI,1,100,179583
1572448586.968935,4229904.667,28925,3,PI,1,100,179615
1572448587.013139,4229939.333,28925,3,PI,1,100,179644
1572448587.057344,4229974.000,28925,3,PI,1,100,179720
1572448587.095597,4230004.000,28943,3,PI,1,100,179674
1572448587.133851,4230034.000,28943,3,PI,1,100,179767
1572448587.172105,4230064.000,28943,3,PI,1,100,179724
1572448587.210783,4230094.333,28961,3,PI,1,100,179626
1572448587.249462,4230124.667,28961,3,PI,1,100,179607
1572448587.288141,4230155.000,28961,3,PI,1,100,179671
1572448587.325969,4230184.667,28979,3,PI,1,100,179681
1572448587.363798,4230214.333,28979,3,PI,1,100,179701
1572448587.401627,4230244.000,28979,3,PI,1,100,179729
1572448587.443068,4230276.500,28997,4,PI,1,100,179755
1572448587.484510,4230309.000,28997,4,PI,1,100,179732
1572448587.525951,4230341.500,28997,4,PI,1,100,179752
1572448587.567393,4230374.000,28997,4,PI,1,100,179803
1572448587.606496,4230404.667,29016,3,PI,1,100,179813
1572448587.645600,4230435.333,29016,3,PI,1,100,179854
1572448587.684704,4230466.000,29016,3,PI,1,100,179884
1572448587.723383,4230496.333,29034,3,PI,1,100,179900
1572448587.762061,4230526.667,29034,3,PI,1,100,179939
1572448587.800740,4230557.000,29034,3,PI,1,100,179974
1572448587.839844,4230587.667,29052,3,PI,1,100,179967
1572448587.878947,4230618.333,29052,3,PI,1,100,180037
1572448587.918051,4230649.000,29052,3,PI,1,100,180036
1572448587.959174,4230681.250,29070,4,PI,1,100,180079
1572448588.000297,4230713.500,29070,4,PI,1,100,180097
1572448588.041419,4230745.750,29070,4,PI,1,100,180140
1572448588.082542,4230778.000,29070,4,PI,1,100,180062
1572448588.120796,4230808.000,29088,3,PI,1,100,179965
1572448588.159050,4230838.000,29088,3,PI,1,100,179954
1572448588.197303,4230868.000,29088,3,PI,1,100,180005
1572448588.236832,4230899.000,29106,3,PI,1,100,180026
1572448588.276361,4230930.000,29106,3,PI,1,100,180066
1572448588.315889,4230961.000,29106,3,PI,1,100,180077
1572448588.360094,4230995.667,29124,3,PI,1,100,180091
1572448588.404298,4231030.333,29124,3,PI,1,100,180087
1572448588.448502,4231065.000,29124,3,PI,1,100,180086
1572448588.485800,4231094.250,29143,4,PI,1,100,180112
1572448588.523097,4231123.500,29143,4,PI,1,100,180161
1572448588.560394,4231152.750,29143,4,PI,1,100,180173
1572448588.597692,4231182.000,29143,4,PI,1,100,180205
1572448588.637645,4231213.333,29160,3,PI,1,100,180205
1572448588.677599,4231244.667,29160,3,PI,1,100,180265
1572448588.717553,4231276.000,29160,3,PI,1,100,180264
1572448588.762182,4231311.000,29178,3,PI,1,100,180315
1572448588.806812,4231346.000,29178,3,PI,1,100,180345
1572448588.851441,4231381.000,29178,3,PI,1,100,180357
1572448588.890545,4231411.667,29196,3,PI,1,100,180374
1572448588.929648,4231442.333,29196,3,PI,1,100,180410
1572448588.968752,4231473.000,29196,3,PI,1,100,180405
1572448589.006368,4231502.500,29214,4,PI,1,100,180394
1572448589.043984,4231532.000,29214,4,PI,1,100,180272
1572448589.081600,4231561.500,29214,4,PI,1,100,180248
1572448589.119216,4231591.000,29214,4,PI,1,100,180285
1572448589.160658,4231623.500,29232,2,PI,1,100,180334
1572448589.202100,4231656.000,29232,2,PI,1,100,180339
1572448589.243860,4231688.750,29248,4,PI,1,100,180383
1572448589.285620,4231721.500,29248,4,PI,1,100,180349
1572448589.327380,4231754.250,29248,4,PI,1,100,180362
1572448589.369141,4231787.000,29248,4,PI,1,100,180363
1572448589.408244,4231817.667,29266,3,PI,1,100,180390
1572448589.447348,4231848.333,29266,3,PI,1,100,180451
1572448589.486452,4231879.000,29266,3,PI,1,100,180446
1572448589.525131,4231909.333,29284,3,PI,1,100,180486
1572448589.563809,4231939.667,29284,3,PI,1,100,180481
1572448589.602488,4231970.000,29284,3,PI,1,100,180501
1572448589.641592,4232000.667,29302,3,PI,1,100,180535
1572448589.680695,4232031.333,29302,3,PI,1,100,180533
1572448589.719799,4232062.000,29302,3,PI,1,100,180584
1572448589.761559,4232094.750,29320,4,PI,1,100,180629
1572448589.803320,4232127.500,29320,4,PI,1,100,180609
1572448589.845080,4232160.250,29320,4,PI,1,100,180670
1572448589.886840,4232193.000,29320,4,PI,1,100,180687
1572448589.925519,4232223.333,29338,3,PI,1,100,180680
1572448589.964198,4232253.667,29338,3,PI,1,100,180592
1572448590.002876,4232284.000,29338,3,PI,1,100,180532
1572448590.041555,4232314.333,29356,3,PI,1,100,180541
1572448590.080234,4232344.667,29356,3,PI,1,100,180608
1572448590.118912,4232375.000,29356,3,PI,1,100,180597
1572448590.163117,4232409.667,29374,3,PI,1,100,180643
1572448590.207321,4232444.333,29374,3,PI,1,100,180637
1572448590.251525,4232479.000,29374,3,PI,1,100,180652
1572448590.288185,4232507.750,29392,4,PI,1,100,180641
1572448590.324845,4232536.500,29392,4,PI,1,100,180663
1572448590.361505,4232565.250,29392,4,PI,1,100,180682
1572448590.398164,4232594.000,29392,4,PI,1,100,180707
1572448590.436843,4232624.333,29410,3,PI,1,100,180711
1572448590.475522,4232654.667,29410,3,PI,1,100,180757
1572448590.514200,4232685.000,29410,3,PI,1,100,180771
1572448590.558830,4232720.000,29429,3,PI,1,100,180778
1572448590.603459,4232755.000,29429,3,PI,1,100,180805
1572448590.648088,4232790.000,29429,3,PI,1,100,180851
1572448590.686767,4232820.333,29447,3,PI,1,100,180856
1572448590.725446,4232850.667,29447,3,PI,1,100,180896
1572448590.764124,4232881.000,29447,3,PI,1,100,180891
1572448590.803015,4232911.500,29468,6,PI,1,100,180927
1572448590.841907,4232942.000,29468,6,PI,1,100,180869
1572448590.880798,4232972.500,29468,6,PI,1,100,180792
1572448590.919689,4233003.000,29468,6,PI,1,100,180768
1572448590.958580,4233033.500,29468,6,PI,1,100,180853
1572448590.997472,4233064.000,29468,6,PI,1,100,180920
1572448591.037000,4233095.000,29488,3,PI,1,100,180933
1572448591.076529,4233126.000,29488,3,PI,1,100,180964
1572448591.116058,4233157.000,29488,3,PI,1,100,180966
1572448591.159837,4233191.333,29505,3,PI,1,100,180906
1572448591.203617,4233225.667,29505,3,PI,1,100,180928
1572448591.247396,4233260.000,29505,3,PI,1,100,180921
1572448591.286074,4233290.333,29523,3,PI,1,100,180988
1572448591.324753,4233320.667,29523,3,PI,1,100,181006
1572448591.363432,4233351.000,29523,3,PI,1,100,181039
1572448591.402111,4233381.333,29541,3,PI,1,100,181052
1572448591.440789,4233411.667,29541,3,PI,1,100,181080
1572448591.479468,4233442.000,29541,3,PI,1,100,181075
1572448591.521547,4233475.000,29560,4,PI,1,100,181105
1572448591.563626,4233508.000,29560,4,PI,1,100,181111
1572448591.605705,4233541.000,29560,4,PI,1,100,181128
1572448591.647784,4233574.000,29560,4,PI,1,100,181150
1572448591.686463,4233604.333,29578,3,PI,1,100,181092
1572448591.725142,4233634.667,29578,3,PI,1,100,181037
1572448591.763820,4233665.000,29578,3,PI,1,100,181015
1572448591.803349,4233696.000,29596,3,PI,1,100,181082
1572448591.842878,4233727.000,29596,3,PI,1,100,181123
1572448591.882407,4233758.000,29596,3,PI,1,100,181138
1572448591.921085,4233788.333,29612,3,PI,1,100,181177
1572448591.959764,4233818.667,29612,3,PI,1,100,181162
1572448591.998443,4233849.000,29612,3,PI,1,100,181130
1572448592.040203,4233881.750,29630,4,PI,1,100,181155
1572448592.081963,4233914.500,29630,4,PI,1,100,181180
1572448592.123724,4233947.250,29630,4,PI,1,100,181214
1572448592.165484,4233980.000,29630,4,PI,1,100,181261
1572448592.204587,4234010.667,29648,3,PI,1,100,181270
1572448592.243691,4234041.333,29648,3,PI,1,100,181267
1572448592.282795,4234072.000,29648,3,PI,1,100,181316
1572448592.321049,4234102.000,29666,3,PI,1,100,181294
1572448592.359303,4234132.000,29666,3,PI,1,100,181332
1572448592.397556,4234162.000,29666,3,PI,1,100,181335
1572448592.441760,4234196.667,29684,3,PI,1,100,181358
1572448592.485965,4234231.333,29684,3,PI,1,100,181261
1572448592.530169,4234266.000,29684,3,PI,1,100,181149
1572448592.567785,4234295.500,29703,4,PI,1,100,181142
1572448592.605401,4234325.000,29703,4,PI,1,100,181199
1572448592.643017,4234354.500,29703,4,PI,1,100,181233
1572448592.680633,4234384.000,29703,4,PI,1,100,181251
1572448592.722712,4234417.000,29721,2,PI,1,100,181231
1572448592.764791,4234450.000,29721,2,PI,1,100,181234
1572448592.806551,4234482.750,29739,4,PI,1,100,181219
1572448592.848312,4234515.500,29739,4,PI,1,100,181246
1572448592.890072,4234548.250,29739,4,PI,1,100,181266
1572448592.931832,4234581.000,29739,4,PI,1,100,181294
1572448592.971786,4234612.333,29757,3,PI,1,100,181310
1572448593.011740,4234643.667,29757,3,PI,1,100,181332
1572448593.051694,4234675.000,29757,3,PI,1,100,181312
1572448593.089947,4234705.000,29775,3,PI,1,100,181359
1572448593.128201,4234735.000,29775,3,PI,1,100,181360
1572448593.166455,4234765.000,29775,3,PI,1,100,181362
1572448593.205133,4234795.333,29793,3,PI,1,100,181413
1572448593.243812,4234825.667,29793,3,PI,1,100,181372
1572448593.282491,4234856.000,29793,3,PI,1,100,181308
1572448593.323614,4234888.250,29811,4,PI,1,100,181197
1572448593.364736,4234920.500,29811,4,PI,1,100,181226
1572448593.405859,4234952.750,29811,4,PI,1,100,181261
1572448593.446982,4234985.000,29811,4,PI,1,100,181269
1572448593.485235,4235015.000,29829,3,PI,1,100,181287
1572448593.523489,4235045.000,29829,3,PI,1,100,181294
1572448593.561743,4235075.000,29829,3,PI,1,100,181283
1572448593.600421,4235105.333,29848,3,PI,1,100,181292
1572448593.639100,4235135.667,29848,3,PI,1,100,181261
1572448593.677779,4235166.000,29848,3,PI,1,100,181313
1572448593.722408,4235201.000,29866,3,PI,1,100,181325
1572448593.767037,4235236.000,29866,3,PI,1,100,181354
1572448593.811667,4235271.000,29866,3,PI,1,100,181368
1572448593.848964,4235300.250,29884,4,PI,1,100,181411
1572448593.886261,4235329.500,29884,4,PI,1,100,181383
1572448593.923559,4235358.750,29884,4,PI,1,100,181421
1572448593.960856,4235388.000,29884,4,PI,1,100,181417
1572448593.999960,4235418.667,29902,3,PI,1,100,181448
1572448594.039063,4235449.333,29902,3,PI,1,100,181479
1572448594.078167,4235480.000,29902,3,PI,1,100,181453
1572448594.122797,4235515.000,29920,3,PI,1,100,181333
1572448594.167426,4235550.000,29920,3,PI,1,100,181227
1572448594.212055,4235585.000,29920,3,PI,1,100,181248
1572448594.250309,4235615.000,29938,3,PI,1,100,181293
1572448594.288563,4235645.000,29938,3,PI,1,100,181266
1572448594.326816,4235675.000,29938,3,PI,1,100,181312
1572448594.364114,4235704.250,29956,4,PI,1,100,181332
1572448594.401411,4235733.500,29956,4,PI,1,100,181305
1572448594.438708,4235762.750,29956,4,PI,1,100,181293
1572448594.476006,4235792.000,29956,4,PI,1,100,181295
1572448594.520635,4235827.000,29974,3,PI,1,100,181313
1572448594.565264,4235862.000,29974,3,PI,1,100,181343
1572448594.609893,4235897.000,29974,3,PI,1,100,181352
1572448594.648147,4235927.000,29993,3,PI,1,100,181336
1572448594.686401,4235957.000,29993,3,PI,1,100,181329
