EpochTimestamp,EmotiBitTimestamp,PacketNumber,DataLength,TypeTag,ProtocolVersion,DataReliability,T0
1572449217.578748,69226.000,11588,2,T0,1,100,26.499
1572449217.578748,69226.000,11588,2,T0,1,100,26.472
1572449217.712774,69331.000,11607,1,T0,1,100,26.477
1572449217.848076,69437.000,11625,1,T0,1,100,26.494
1572449217.979549,69540.000,11643,1,T0,1,100,26.504
1572449218.113575,69645.000,11678,1,T0,1,100,26.477
1572449218.248878,69751.000,11695,1,T0,1,100,26.477
1572449218.380350,69854.000,11713,1,T0,1,100,26.494
1572449218.514376,69959.000,11732,1,T0,1,100,26.488
1572449218.645849,70062.000,11750,1,T0,1,100,26.451
1572449218.777322,70165.000,11768,1,T0,1,100,26.467
1572449218.908795,70268.000,11786,1,T0,1,100,26.510
1572449219.041545,70372.000,11804,1,T0,1,100,26.488
1572449219.175570,70477.000,11822,1,T0,1,100,26.526
1572449219.308320,70581.000,11840,1,T0,1,100,26.488
1572449219.442346,70686.000,11858,1,T0,1,100,26.477
1572449219.573819,70789.000,11877,1,T0,1,100,26.526
1572449219.707844,70894.000,11895,1,T0,1,100,26.467
1572449219.839317,70997.000,11913,1,T0,1,100,26.504
1572449219.972067,71101.000,11931,1,T0,1,100,26.520
1572449220.106093,71206.000,11949,1,T0,1,100,26.467
1572449220.240119,71311.000,11967,1,T0,1,100,26.504
1572449220.372868,71415.000,11985,1,T0,1,100,26.461
1572449220.509447,71522.000,12003,1,T0,1,100,26.483
1572449220.643472,71627.000,12022,1,T0,1,100,26.494
1572449220.774945,71730.000,12040,1,T0,1,100,26.483
1572449220.908971,71835.000,12058,1,T0,1,100,26.526
1572449221.044274,71941.000,12076,1,T0,1,100,26.477
1572449221.175746,72044.000,12094,1,T0,1,100,26.494
1572449221.309772,72149.000,12111,1,T0,1,100,26.531
1572449221.445075,72255.000,12129,1,T0,1,100,26.526
1572449221.576548,72358.000,12147,1,T0,1,100,26.483
1572449221.708020,72461.000,12166,1,T0,1,100,26.483
1572449221.840770,72565.000,12184,1,T0,1,100,26.520
1572449221.972243,72668.000,12202,1,T0,1,100,26.494
1572449222.103716,72771.000,12220,1,T0,1,100,26.494
1572449222.237742,72876.000,12255,1,T0,1,100,26.483
1572449222.371768,72981.000,12273,1,T0,1,100,26.510
1572449222.504517,73085.000,12291,1,T0,1,100,26.494
1572449222.639819,73191.000,12310,1,T0,1,100,26.499
1572449222.771292,73294.000,12328,1,T0,1,100,26.456
1572449222.905318,73399.000,12346,1,T0,1,100,26.445
1572449223.036791,73502.000,12364,1,T0,1,100,26.472
1572449223.169540,73606.000,12382,1,T0,1,100,26.467
1572449223.304843,73712.000,12400,1,T0,1,100,26.461
1572449223.438869,73817.000,12418,1,T0,1,100,26.451
1572449223.571618,73921.000,12436,1,T0,1,100,26.472
1572449223.706920,74027.000,12455,1,T0,1,100,26.504
1572449223.842222,74133.000,12473,1,T0,1,100,26.456
1572449223.974972,74237.000,12494,2,T0,1,100,26.483
1572449224.107721,74341.000,12494,2,T0,1,100,26.477
1572449224.243023,74447.000,12514,1,T0,1,100,26.477
1572449224.374496,74550.000,12532,1,T0,1,100,26.461
1572449224.508522,74655.000,12550,1,T0,1,100,26.461
1572449224.643825,74761.000,12568,1,T0,1,100,26.499
1572449224.775297,74864.000,12587,1,T0,1,100,26.456
1572449224.906770,74967.000,12621,1,T0,1,100,26.488
1572449225.039520,75071.000,12639,1,T0,1,100,26.451
1572449225.170993,75174.000,12657,1,T0,1,100,26.510
1572449225.303742,75278.000,12675,1,T0,1,100,26.472
1572449225.437768,75383.000,12693,1,T0,1,100,26.510
1572449225.571794,75488.000,12711,1,T0,1,100,26.483
1572449225.704543,75592.000,12730,1,T0,1,100,26.494
1572449225.837293,75696.000,12748,1,T0,1,100,26.494
1572449225.970042,75800.000,12766,1,T0,1,100,26.477
1572449226.104068,75905.000,12784,1,T0,1,100,26.477
1572449226.235541,76008.000,12802,1,T0,1,100,26.488
1572449226.368290,76112.000,12820,1,T0,1,100,26.456
1572449226.504869,76219.000,12838,1,T0,1,100,26.488
1572449226.638895,76324.000,12856,1,T0,1,100,26.429
1572449226.771644,76428.000,12875,1,T0,1,100,26.456
1572449226.905670,76533.000,12893,1,T0,1,100,26.461
1572449227.040972,76639.000,12911,1,T0,1,100,26.488
1572449227.172445,76742.000,12929,1,T0,1,100,26.451
1572449227.306471,76847.000,12947,1,T0,1,100,26.477
1572449227.441773,76953.000,12965,1,T0,1,100,26.515
1572449227.573246,77056.000,12983,1,T0,1,100,26.504
1572449227.707272,77161.000,13001,1,T0,1,100,26.472
1572449227.841298,77266.000,13020,1,T0,1,100,26.472
1572449227.972771,77369.000,13037,1,T0,1,100,26.445
1572449228.104244,77472.000,13055,1,T0,1,100,26.483
1572449228.236993,77576.000,13073,1,T0,1,100,26.472
1572449228.368466,77679.000,13091,1,T0,1,100,26.472
1572449228.501216,77783.000,13109,1,T0,1,100,26.456
1572449228.635242,77888.000,13127,1,T0,1,100,26.456
1572449228.769267,77993.000,13145,1,T0,1,100,26.472
1572449228.904570,78099.000,13180,1,T0,1,100,26.424
1572449229.036043,78202.000,13198,1,T0,1,100,26.477
1572449229.168792,78306.000,13216,1,T0,1,100,26.456
1572449229.302818,78411.000,13234,1,T0,1,100,26.477
1572449229.435567,78515.000,13252,1,T0,1,100,26.520
1572449229.568317,78619.000,13270,1,T0,1,100,26.477
1572449229.704895,78726.000,13288,1,T0,1,100,26.477
1572449229.838921,78831.000,13307,1,T0,1,100,26.467
1572449229.972947,78936.000,13325,1,T0,1,100,26.488
1572449230.106973,79041.000,13343,1,T0,1,100,26.494
1572449230.242275,79147.000,13361,1,T0,1,100,26.488
1572449230.373748,79250.000,13379,1,T0,1,100,26.520
1572449230.508412,79355.500,13400,2,T0,1,100,26.494
1572449230.643076,79461.000,13400,2,T0,1,100,26.472
1572449230.774549,79564.000,13420,1,T0,1,100,26.504
1572449230.908575,79669.000,13439,1,T0,1,100,26.483
1572449231.041324,79773.000,13457,1,T0,1,100,26.499
1572449231.172797,79876.000,13475,1,T0,1,100,26.510
1572449231.304271,79979.000,13509,1,T0,1,100,26.461
1572449231.437020,80083.000,13527,1,T0,1,100,26.483
1572449231.569769,80187.000,13545,1,T0,1,100,26.472
1572449231.702519,80291.000,13563,1,T0,1,100,26.451
1572449231.836545,80396.000,13582,1,T0,1,100,26.483
1572449231.970570,80501.000,13600,1,T0,1,100,26.456
1572449232.104596,80606.000,13618,1,T0,1,100,26.483
1572449232.236069,80709.000,13636,1,T0,1,100,26.488
1572449232.368819,80813.000,13654,1,T0,1,100,26.483
1572449232.502844,80918.000,13672,1,T0,1,100,26.520
1572449232.636870,81023.000,13690,1,T0,1,100,26.494
1572449232.769619,81127.000,13709,1,T0,1,100,26.494
1572449232.906198,81234.000,13727,1,T0,1,100,26.467
1572449233.040224,81339.000,13745,1,T0,1,100,26.488
1572449233.171697,81442.000,13763,1,T0,1,100,26.488
1572449233.305723,81547.000,13781,1,T0,1,100,26.456
1572449233.441025,81653.000,13799,1,T0,1,100,26.504
1572449233.572498,81756.000,13817,1,T0,1,100,26.531
1572449233.706524,81861.000,13835,1,T0,1,100,26.526
1572449233.841826,81967.000,13854,1,T0,1,100,26.520
1572449233.973299,82070.000,13872,1,T0,1,100,26.499
1572449234.106049,82174.000,13890,1,T0,1,100,26.531
1572449234.237522,82277.000,13908,1,T0,1,100,26.504
1572449234.368994,82380.000,13926,1,T0,1,100,26.520
1572449234.500468,82483.000,13944,1,T0,1,100,26.494
1572449234.633217,82587.000,13961,1,T0,1,100,26.488
1572449234.767243,82692.000,13979,1,T0,1,100,26.510
1572449234.899992,82796.000,13998,1,T0,1,100,26.515
1572449235.034018,82901.000,14016,1,T0,1,100,26.467
1572449235.166767,83005.000,14034,1,T0,1,100,26.515
1572449235.300793,83110.000,14052,1,T0,1,100,26.467
1572449235.432266,83213.000,14086,1,T0,1,100,26.499
1572449235.565016,83317.000,14104,1,T0,1,100,26.488
1572449235.699041,83422.000,14122,1,T0,1,100,26.456
1572449235.833067,83527.000,14141,1,T0,1,100,26.477
1572449235.965816,83631.000,14159,1,T0,1,100,26.488
1572449236.102395,83738.000,14177,1,T0,1,100,26.510
1572449236.236421,83843.000,14195,1,T0,1,100,26.510
1572449236.367894,83946.000,14213,1,T0,1,100,26.467
1572449236.501920,84051.000,14231,1,T0,1,100,26.515
1572449236.637222,84157.000,14249,1,T0,1,100,26.456
1572449236.768695,84260.000,14267,1,T0,1,100,26.510
1572449236.902721,84365.000,14286,1,T0,1,100,26.499
1572449237.036109,84469.500,14307,2,T0,1,100,26.494
1572449237.169496,84574.000,14307,2,T0,1,100,26.504
1572449237.302246,84678.000,14327,1,T0,1,100,26.499
1572449237.434995,84782.000,14345,1,T0,1,100,26.488
1572449237.566468,84885.000,14363,1,T0,1,100,26.477
1572449237.697941,84988.000,14381,1,T0,1,100,26.461
1572449237.831967,85093.000,14399,1,T0,1,100,26.494
1572449237.965993,85198.000,14435,1,T0,1,100,26.477
1572449238.098742,85302.000,14452,1,T0,1,100,26.494
1572449238.234044,85408.000,14470,1,T0,1,100,26.488
1572449238.365517,85511.000,14488,1,T0,1,100,26.467
1572449238.499543,85616.000,14506,1,T0,1,100,26.445
1572449238.631016,85719.000,14524,1,T0,1,100,26.494
1572449238.763766,85823.000,14542,1,T0,1,100,26.520
1572449238.899068,85929.000,14561,1,T0,1,100,26.504
1572449239.033094,86034.000,14579,1,T0,1,100,26.488
1572449239.165843,86138.000,14597,1,T0,1,100,26.510
1572449239.301145,86244.000,14615,1,T0,1,100,26.504
1572449239.436448,86350.000,14633,1,T0,1,100,26.499
1572449239.567920,86453.000,14651,1,T0,1,100,26.510
1572449239.701946,86558.000,14669,1,T0,1,100,26.504
1572449239.837249,86664.000,14687,1,T0,1,100,26.520
1572449239.968722,86767.000,14706,1,T0,1,100,26.477
1572449240.102747,86872.000,14724,1,T0,1,100,26.520
1572449240.238050,86978.000,14742,1,T0,1,100,26.499
1572449240.369523,87081.000,14760,1,T0,1,100,26.451
1572449240.500996,87184.000,14778,1,T0,1,100,26.467
1572449240.633745,87288.000,14796,1,T0,1,100,26.504
1572449240.765218,87391.000,14814,1,T0,1,100,26.467
1572449240.897967,87495.000,14832,1,T0,1,100,26.499
1572449241.031993,87600.000,14850,1,T0,1,100,26.483
1572449241.166019,87705.000,14868,1,T0,1,100,26.472
1572449241.298769,87809.000,14886,1,T0,1,100,26.499
1572449241.432794,87914.000,14904,1,T0,1,100,26.467
1572449241.564267,88017.000,14922,1,T0,1,100,26.494
1572449241.698293,88122.000,14940,1,T0,1,100,26.456
1572449241.829766,88225.000,14958,1,T0,1,100,26.467
1572449241.962515,88329.000,14994,1,T0,1,100,26.483
1572449242.099094,88436.000,15011,1,T0,1,100,26.494
1572449242.233120,88541.000,15029,1,T0,1,100,26.440
1572449242.365870,88645.000,15047,1,T0,1,100,26.494
1572449242.501172,88751.000,15065,1,T0,1,100,26.440
1572449242.636474,88857.000,15083,1,T0,1,100,26.483
1572449242.767947,88960.000,15101,1,T0,1,100,26.440
1572449242.901973,89065.000,15119,1,T0,1,100,26.483
1572449243.037275,89171.000,15138,1,T0,1,100,26.472
1572449243.168748,89274.000,15156,1,T0,1,100,26.494
1572449243.302774,89379.000,15174,1,T0,1,100,26.461
1572449243.438076,89485.000,15192,1,T0,1,100,26.477
1572449243.569549,89588.000,15213,2,T0,1,100,26.472
1572449243.701022,89691.000,15213,2,T0,1,100,26.461
1572449243.833771,89795.000,15233,1,T0,1,100,26.451
1572449243.965244,89898.000,15251,1,T0,1,100,26.461
1572449244.097994,90002.000,15270,1,T0,1,100,26.461
1572449244.232020,90107.000,15288,1,T0,1,100,26.413
1572449244.366045,90212.000,15306,1,T0,1,100,26.429
1572449244.498795,90316.000,15340,1,T0,1,100,26.456
1572449244.630268,90419.000,15358,1,T0,1,100,26.477
1572449244.763017,90523.000,15376,1,T0,1,100,26.413
1572449244.897043,90628.000,15394,1,T0,1,100,26.456
1572449245.029793,90732.000,15413,1,T0,1,100,26.456
1572449245.162542,90836.000,15431,1,T0,1,100,26.386
1572449245.299121,90943.000,15449,1,T0,1,100,26.494
1572449245.433146,91048.000,15467,1,T0,1,100,26.445
1572449245.565896,91152.000,15485,1,T0,1,100,26.445
1572449245.699922,91257.000,15503,1,T0,1,100,26.456
1572449245.835224,91363.000,15521,1,T0,1,100,26.456
1572449245.966697,91466.000,15539,1,T0,1,100,26.456
1572449246.100723,91571.000,15558,1,T0,1,100,26.435
1572449246.236025,91677.000,15576,1,T0,1,100,26.429
1572449246.367498,91780.000,15594,1,T0,1,100,26.408
1572449246.501524,91885.000,15612,1,T0,1,100,26.429
1572449246.634273,91989.000,15630,1,T0,1,100,26.445
1572449246.765746,92092.000,15648,1,T0,1,100,26.435
1572449246.897219,92195.000,15666,1,T0,1,100,26.429
1572449247.029969,92299.000,15685,1,T0,1,100,26.451
1572449247.162718,92403.000,15703,1,T0,1,100,26.451
1572449247.295467,92507.000,15721,1,T0,1,100,26.424
1572449247.429493,92612.000,15739,1,T0,1,100,26.419
1572449247.563519,92717.000,15757,1,T0,1,100,26.419
1572449247.697545,92822.000,15774,1,T0,1,100,26.467
1572449247.829018,92925.000,15792,1,T0,1,100,26.440
1572449247.961767,93029.000,15810,1,T0,1,100,26.429
1572449248.095793,93134.000,15829,1,T0,1,100,26.397
1572449248.229819,93239.000,15847,1,T0,1,100,26.392
1572449248.362568,93343.000,15865,1,T0,1,100,26.386
1572449248.499147,93450.000,15899,1,T0,1,100,26.456
1572449248.633173,93555.000,15917,1,T0,1,100,26.440
1572449248.765922,93659.000,15935,1,T0,1,100,26.419
1572449248.899948,93764.000,15953,1,T0,1,100,26.413
1572449249.035250,93870.000,15972,1,T0,1,100,26.435
1572449249.166723,93973.000,15990,1,T0,1,100,26.435
1572449249.300749,94078.000,16008,1,T0,1,100,26.435
1572449249.436051,94184.000,16026,1,T0,1,100,26.413
1572449249.567524,94287.000,16044,1,T0,1,100,26.429
1572449249.701550,94392.000,16062,1,T0,1,100,26.424
1572449249.833023,94495.000,16080,1,T0,1,100,26.424
1572449249.964496,94598.000,16098,1,T0,1,100,26.408
1572449250.096607,94701.500,16120,2,T0,1,100,26.376
1572449250.228719,94805.000,16120,2,T0,1,100,26.402
1572449250.362744,94910.000,16140,1,T0,1,100,26.386
1572449250.495494,95014.000,16157,1,T0,1,100,26.424
1572449250.629519,95119.000,16175,1,T0,1,100,26.408
1572449250.762269,95223.000,16193,1,T0,1,100,26.381
1572449250.896295,95328.000,16211,1,T0,1,100,26.413
1572449251.027768,95431.000,16229,1,T0,1,100,26.370
1572449251.160517,95535.000,16248,1,T0,1,100,26.408
1572449251.294543,95640.000,16282,1,T0,1,100,26.386
1572449251.428569,95745.000,16300,1,T0,1,100,26.435
1572449251.561318,95849.000,16318,1,T0,1,100,26.392
1572449251.697897,95956.000,16336,1,T0,1,100,26.424
1572449251.831923,96061.000,16354,1,T0,1,100,26.413
1572449251.963396,96164.000,16372,1,T0,1,100,26.413
1572449252.097422,96269.000,16391,1,T0,1,100,26.445
1572449252.232724,96375.000,16409,1,T0,1,100,26.392
1572449252.364197,96478.000,16427,1,T0,1,100,26.424
1572449252.498223,96583.000,16445,1,T0,1,100,26.381
1572449252.633525,96689.000,16463,1,T0,1,100,26.381
1572449252.764998,96792.000,16481,1,T0,1,100,26.386
1572449252.897747,96896.000,16499,1,T0,1,100,26.365
1572449253.030497,97000.000,16517,1,T0,1,100,26.386
1572449253.161970,97103.000,16536,1,T0,1,100,26.354
1572449253.293442,97206.000,16554,1,T0,1,100,26.392
1572449253.426192,97310.000,16572,1,T0,1,100,26.397
1572449253.560218,97415.000,16590,1,T0,1,100,26.402
1572449253.692967,97519.000,16608,1,T0,1,100,26.397
1572449253.826993,97624.000,16626,1,T0,1,100,26.370
1572449253.959743,97728.000,16644,1,T0,1,100,26.429
1572449254.093768,97833.000,16662,1,T0,1,100,26.376
1572449254.225241,97936.000,16681,1,T0,1,100,26.397
1572449254.357991,98040.000,16698,1,T0,1,100,26.386
1572449254.492017,98145.000,16716,1,T0,1,100,26.360
1572449254.626042,98250.000,16734,1,T0,1,100,26.376
1572449254.758792,98354.000,16752,1,T0,1,100,26.397
1572449254.895370,98461.000,16770,1,T0,1,100,26.386
1572449255.030673,98567.000,16804,1,T0,1,100,26.397
1572449255.162146,98670.000,16823,1,T0,1,100,26.413
1572449255.296171,98775.000,16841,1,T0,1,100,26.376
1572449255.431474,98881.000,16859,1,T0,1,100,26.360
1572449255.562947,98984.000,16877,1,T0,1,100,26.370
1572449255.696973,99089.000,16895,1,T0,1,100,26.354
1572449255.832275,99195.000,16913,1,T0,1,100,26.370
1572449255.965024,99299.000,16931,1,T0,1,100,26.365
1572449256.096497,99402.000,16949,1,T0,1,100,26.360
1572449256.229247,99506.000,16968,1,T0,1,100,26.397
1572449256.360720,99609.000,16986,1,T0,1,100,26.343
1572449256.493469,99713.000,17004,1,T0,1,100,26.349
1572449256.627495,99818.000,17025,2,T0,1,100,26.354
1572449256.761521,99923.000,17025,2,T0,1,100,26.376
1572449256.894270,100027.000,17044,1,T0,1,100,26.376
1572449257.028296,100132.000,17063,1,T0,1,100,26.402
1572449257.159769,100235.000,17080,1,T0,1,100,26.349
1572449257.293795,100340.000,17099,1,T0,1,100,26.343
1572449257.425268,100443.000,17117,1,T0,1,100,26.327
1572449257.558017,100547.000,17135,1,T0,1,100,26.386
1572449257.694596,100654.000,17153,1,T0,1,100,26.392
1572449257.828622,100759.000,17187,1,T0,1,100,26.343
1572449257.961371,100863.000,17205,1,T0,1,100,26.343
1572449258.095397,100968.000,17223,1,T0,1,100,26.370
1572449258.230699,101074.000,17242,1,T0,1,100,26.370
1572449258.362172,101177.000,17260,1,T0,1,100,26.365
1572449258.496198,101282.000,17278,1,T0,1,100,26.365
1572449258.631500,101388.000,17296,1,T0,1,100,26.338
1572449258.762973,101491.000,17314,1,T0,1,100,26.333
1572449258.896999,101596.000,17332,1,T0,1,100,26.349
1572449259.032301,101702.000,17350,1,T0,1,100,26.349
1572449259.162498,101804.000,17368,1,T0,1,100,26.349
1572449259.293971,101907.000,17387,1,T0,1,100,26.349
1572449259.426720,102011.000,17405,1,T0,1,100,26.322
1572449259.558193,102114.000,17423,1,T0,1,100,26.381
1572449259.690943,102218.000,17441,1,T0,1,100,26.349
1572449259.824968,102323.000,17459,1,T0,1,100,26.376
1572449259.958994,102428.000,17477,1,T0,1,100,26.360
1572449260.091743,102532.000,17495,1,T0,1,100,26.343
1572449260.223217,102635.000,17513,1,T0,1,100,26.327
1572449260.355966,102739.000,17532,1,T0,1,100,26.370
1572449260.489992,102844.000,17550,1,T0,1,100,26.349
1572449260.622741,102948.000,17568,1,T0,1,100,26.381
1572449260.755491,103052.000,17586,1,T0,1,100,26.376
1572449260.892069,103159.000,17604,1,T0,1,100,26.360
1572449261.026095,103264.000,17621,1,T0,1,100,26.360
1572449261.160121,103369.000,17639,1,T0,1,100,26.301
1572449261.292870,103473.000,17658,1,T0,1,100,26.354
1572449261.428173,103579.000,17676,1,T0,1,100,26.333
1572449261.559646,103682.000,17694,1,T0,1,100,26.370
1572449261.693671,103787.000,17712,1,T0,1,100,26.338
1572449261.828974,103893.000,17746,1,T0,1,100,26.360
1572449261.960447,103996.000,17764,1,T0,1,100,26.349
1572449262.094472,104101.000,17782,1,T0,1,100,26.370
1572449262.228498,104206.000,17801,1,T0,1,100,26.349
1572449262.359971,104309.000,17819,1,T0,1,100,26.338
1572449262.491444,104412.000,17837,1,T0,1,100,26.333
1572449262.624194,104516.000,17855,1,T0,1,100,26.327
1572449262.756943,104620.000,17873,1,T0,1,100,26.338
1572449262.889693,104724.000,17891,1,T0,1,100,26.343
1572449263.023718,104829.000,17909,1,T0,1,100,26.306
1572449263.157744,104934.000,17930,2,T0,1,100,26.365
1572449263.291770,105039.000,17930,2,T0,1,100,26.343
1572449263.423243,105142.000,17950,1,T0,1,100,26.306
1572449263.555992,105246.000,17969,1,T0,1,100,26.360
1572449263.690018,105351.000,17987,1,T0,1,100,26.354
1572449263.822767,105455.000,18005,1,T0,1,100,26.370
1572449263.955517,105559.000,18023,1,T0,1,100,26.365
1572449264.092096,105666.000,18040,1,T0,1,100,26.349
1572449264.226121,105771.000,18058,1,T0,1,100,26.284
1572449264.358871,105875.000,18077,1,T0,1,100,26.338
1572449264.492897,105980.000,18095,1,T0,1,100,26.317
1572449264.628199,106086.000,18113,1,T0,1,100,26.365
1572449264.759672,106189.000,18148,1,T0,1,100,26.301
1572449264.893698,106294.000,18165,1,T0,1,100,26.322
1572449265.029000,106400.000,18183,1,T0,1,100,26.327
1572449265.160473,106503.000,18201,1,T0,1,100,26.322
1572449265.294499,106608.000,18220,1,T0,1,100,26.306
1572449265.425972,106711.000,18238,1,T0,1,100,26.343
1572449265.557445,106814.000,18256,1,T0,1,100,26.322
1572449265.688918,106917.000,18274,1,T0,1,100,26.295
1572449265.821667,107021.000,18292,1,T0,1,100,26.338
1572449265.954417,107125.000,18310,1,T0,1,100,26.317
1572449266.087166,107229.000,18328,1,T0,1,100,26.306
1572449266.221192,107334.000,18346,1,T0,1,100,26.327
1572449266.355218,107439.000,18365,1,T0,1,100,26.306
1572449266.489244,107544.000,18383,1,T0,1,100,26.333
1572449266.620717,107647.000,18401,1,T0,1,100,26.343
1572449266.753466,107751.000,18419,1,T0,1,100,26.343
1572449266.887492,107856.000,18437,1,T0,1,100,26.333
1572449267.021518,107961.000,18455,1,T0,1,100,26.306
1572449267.154267,108065.000,18473,1,T0,1,100,26.295
1572449267.290846,108172.000,18491,1,T0,1,100,26.354
1572449267.426148,108278.000,18510,1,T0,1,100,26.333
1572449267.557621,108381.000,18528,1,T0,1,100,26.354
1572449267.691647,108486.000,18546,1,T0,1,100,26.311
1572449267.826949,108592.000,18563,1,T0,1,100,26.306
1572449267.958422,108695.000,18581,1,T0,1,100,26.306
1572449268.092448,108800.000,18599,1,T0,1,100,26.311
1572449268.227750,108906.000,18617,1,T0,1,100,26.301
1572449268.359223,109009.000,18635,1,T0,1,100,26.263
1572449268.493249,109114.000,18654,1,T0,1,100,26.284
1572449268.624722,109217.000,18689,2,T0,1,100,26.306
1572449268.756195,109320.000,18689,2,T0,1,100,26.322
1572449268.887668,109423.000,18723,1,T0,1,100,26.306
1572449269.020417,109527.000,18741,1,T0,1,100,26.338
1572449269.154443,109632.000,18759,1,T0,1,100,26.327
1572449269.287192,109736.000,18777,1,T0,1,100,26.322
1572449269.421218,109841.000,18796,1,T0,1,100,26.338
1572449269.552691,109944.000,18814,1,T0,1,100,26.284
1572449269.685441,110048.000,18835,2,T0,1,100,26.306
1572449269.818190,110152.000,18835,2,T0,1,100,26.306
1572449269.950939,110256.000,18854,1,T0,1,100,26.317
1572449270.084965,110361.000,18873,1,T0,1,100,26.322
1572449270.218991,110466.000,18891,1,T0,1,100,26.301
1572449270.351740,110570.000,18909,1,T0,1,100,26.284
1572449270.488319,110677.000,18928,1,T0,1,100,26.301
1572449270.622345,110782.000,18946,1,T0,1,100,26.306
1572449270.753818,110885.000,18963,1,T0,1,100,26.295
1572449270.887844,110990.000,18981,1,T0,1,100,26.301
1572449271.023146,111096.000,18999,1,T0,1,100,26.274
1572449271.154619,111199.000,19017,1,T0,1,100,26.311
1572449271.288645,111304.000,19035,1,T0,1,100,26.317
1572449271.423947,111410.000,19053,1,T0,1,100,26.301
1572449271.555420,111513.000,19072,1,T0,1,100,26.301
1572449271.686893,111616.000,19106,1,T0,1,100,26.295
1572449271.819643,111720.000,19124,1,T0,1,100,26.290
1572449271.951115,111823.000,19142,1,T0,1,100,26.279
1572449272.082588,111926.000,19160,1,T0,1,100,26.295
1572449272.216614,112031.000,19178,1,T0,1,100,26.263
1572449272.350640,112136.000,19196,1,T0,1,100,26.322
1572449272.483389,112240.000,19215,1,T0,1,100,26.274
1572449272.618692,112346.000,19233,1,T0,1,100,26.284
1572449272.750165,112449.000,19251,1,T0,1,100,26.279
1572449272.884191,112554.000,19269,1,T0,1,100,26.284
1572449273.015663,112657.000,19287,1,T0,1,100,26.258
1572449273.148413,112761.000,19305,1,T0,1,100,26.274
1572449273.283715,112867.000,19323,1,T0,1,100,26.279
1572449273.417741,112972.000,19341,1,T0,1,100,26.258
1572449273.550490,113076.000,19360,1,T0,1,100,26.290
1572449273.685793,113182.000,19378,1,T0,1,100,26.290
1572449273.821095,113288.000,19396,1,T0,1,100,26.258
1572449273.952568,113391.000,19414,1,T0,1,100,26.284
1572449274.086594,113496.000,19432,1,T0,1,100,26.258
1572449274.221896,113602.000,19450,1,T0,1,100,26.225
1572449274.353369,113705.000,19468,1,T0,1,100,26.279
1572449274.487395,113810.000,19486,1,T0,1,100,26.258
1572449274.622697,113916.000,19505,1,T0,1,100,26.236
1572449274.754170,114019.000,19522,1,T0,1,100,26.306
1572449274.885643,114122.000,19540,1,T0,1,100,26.225
1572449275.018392,114226.000,19558,1,T0,1,100,26.258
1572449275.149865,114329.000,19576,1,T0,1,100,26.242
1572449275.282615,114433.000,19594,1,T0,1,100,26.225
1572449275.416641,114538.000,19612,1,T0,1,100,26.258
1572449275.550667,114643.000,19631,1,T0,1,100,26.263
1572449275.683416,114747.000,19665,1,T0,1,100,26.258
1572449275.816165,114851.000,19683,1,T0,1,100,26.236
1572449275.948915,114955.000,19701,1,T0,1,100,26.258
1572449276.082941,115060.000,19719,1,T0,1,100,26.247
1572449276.215052,115163.500,19740,2,T0,1,100,26.252
1572449276.347163,115267.000,19740,2,T0,1,100,26.231
1572449276.483742,115374.000,19760,1,T0,1,100,26.236
1572449276.617767,115479.000,19779,1,T0,1,100,26.215
1572449276.750517,115583.000,19797,1,T0,1,100,26.225
1572449276.884543,115688.000,19815,1,T0,1,100,26.236
1572449277.019845,115794.000,19833,1,T0,1,100,26.258
1572449277.151318,115897.000,19851,1,T0,1,100,26.209
1572449277.285344,116002.000,19869,1,T0,1,100,26.247
1572449277.420646,116108.000,19887,1,T0,1,100,26.236
1572449277.552119,116211.000,19906,1,T0,1,100,26.209
1572449277.686145,116316.000,19924,1,T0,1,100,26.199
1572449277.820171,116421.000,19941,1,T0,1,100,26.220
1572449277.951644,116524.000,19959,1,T0,1,100,26.215
1572449278.083117,116627.000,19977,1,T0,1,100,26.225
1572449278.215866,116731.000,19995,1,T0,1,100,26.225
1572449278.347339,116834.000,20013,1,T0,1,100,26.199
1572449278.480088,116938.000,20031,1,T0,1,100,26.231
1572449278.614114,117043.000,20067,1,T0,1,100,26.247
1572449278.748140,117148.000,20084,1,T0,1,100,26.252
1572449278.883442,117254.000,20102,1,T0,1,100,26.247
1572449279.014915,117357.000,20120,1,T0,1,100,26.215
1572449279.147665,117461.000,20138,1,T0,1,100,26.199
1572449279.281690,117566.000,20156,1,T0,1,100,26.225
1572449279.414440,117670.000,20174,1,T0,1,100,26.252
1572449279.547189,117774.000,20193,1,T0,1,100,26.215
1572449279.683768,117881.000,20211,1,T0,1,100,26.236
1572449279.817794,117986.000,20229,1,T0,1,100,26.225
1572449279.951820,118091.000,20247,1,T0,1,100,26.220
1572449280.085845,118196.000,20265,1,T0,1,100,26.231
1572449280.221148,118302.000,20283,1,T0,1,100,26.204
1572449280.352621,118405.000,20301,1,T0,1,100,26.220
1572449280.486647,118510.000,20319,1,T0,1,100,26.166
1572449280.621949,118616.000,20338,1,T0,1,100,26.247
1572449280.753422,118719.000,20356,1,T0,1,100,26.231
1572449280.887448,118824.000,20374,1,T0,1,100,26.204
1572449281.020197,118928.000,20392,1,T0,1,100,26.188
1572449281.151670,119031.000,20410,1,T0,1,100,26.225
1572449281.283143,119134.000,20428,1,T0,1,100,26.199
1572449281.415892,119238.000,20446,1,T0,1,100,26.199
1572449281.547365,119341.000,20464,1,T0,1,100,26.220
1572449281.680115,119445.000,20483,1,T0,1,100,26.220
1572449281.814141,119550.000,20500,1,T0,1,100,26.166
1572449281.948166,119655.000,20518,1,T0,1,100,26.183
1572449282.082192,119760.000,20536,1,T0,1,100,26.220
1572449282.213665,119863.000,20554,1,T0,1,100,26.199
1572449282.346415,119967.000,20572,1,T0,1,100,26.247
1572449282.480440,120072.000,20590,1,T0,1,100,26.166
1572449282.613190,120176.000,20625,1,T0,1,100,26.231
1572449282.747854,120281.500,20646,2,T0,1,100,26.183
1572449282.882518,120387.000,20646,2,T0,1,100,26.166
1572449283.016544,120492.000,20665,1,T0,1,100,26.220
1572449283.148017,120595.000,20684,1,T0,1,100,26.166
1572449283.282043,120700.000,20702,1,T0,1,100,26.161
1572449283.417345,120806.000,20720,1,T0,1,100,26.204
1572449283.548818,120909.000,20738,1,T0,1,100,26.199
1572449283.682844,121014.000,20757,1,T0,1,100,26.199
1572449283.818146,121120.000,20775,1,T0,1,100,26.204
1572449283.949619,121223.000,20793,1,T0,1,100,26.193
1572449284.082368,121327.000,20811,1,T0,1,100,26.172
1572449284.213841,121430.000,20829,1,T0,1,100,26.183
1572449284.345314,121533.000,20847,1,T0,1,100,26.199
1572449284.476787,121636.000,20865,1,T0,1,100,26.188
1572449284.609537,121740.000,20883,1,T0,1,100,26.150
1572449284.743562,121845.000,20902,1,T0,1,100,26.166
1572449284.876312,121949.000,20920,1,T0,1,100,26.199
1572449285.010338,122054.000,20937,1,T0,1,100,26.183
1572449285.143087,122158.000,20955,1,T0,1,100,26.183
1572449285.277113,122263.000,20973,1,T0,1,100,26.166
1572449285.408586,122366.000,20991,1,T0,1,100,26.166
1572449285.541335,122470.000,21009,1,T0,1,100,26.204
1572449285.675361,122575.000,21027,1,T0,1,100,26.161
1572449285.809387,122680.000,21062,1,T0,1,100,26.166
1572449285.942136,122784.000,21080,1,T0,1,100,26.188
1572449286.078715,122891.000,21098,1,T0,1,100,26.118
1572449286.212741,122996.000,21116,1,T0,1,100,26.199
1572449286.344214,123099.000,21134,1,T0,1,100,26.177
1572449286.478240,123204.000,21152,1,T0,1,100,26.166
1572449286.613542,123310.000,21170,1,T0,1,100,26.145
1572449286.745015,123413.000,21189,1,T0,1,100,26.161
1572449286.879041,123518.000,21207,1,T0,1,100,26.156
1572449287.014343,123624.000,21225,1,T0,1,100,26.129
1572449287.145816,123727.000,21243,1,T0,1,100,26.188
1572449287.278565,123831.000,21261,1,T0,1,100,26.199
1572449287.411315,123935.000,21279,1,T0,1,100,26.166
1572449287.542788,124038.000,21297,1,T0,1,100,26.156
1572449287.674261,124141.000,21316,1,T0,1,100,26.183
1572449287.808286,124246.000,21334,1,T0,1,100,26.161
1572449287.942312,124351.000,21352,1,T0,1,100,26.215
1572449288.075062,124455.000,21370,1,T0,1,100,26.177
1572449288.209088,124560.000,21388,1,T0,1,100,26.161
1572449288.340560,124663.000,21406,1,T0,1,100,26.161
1572449288.474586,124768.000,21424,1,T0,1,100,26.166
1572449288.606059,124871.000,21442,1,T0,1,100,26.166
1572449288.738809,124975.000,21461,1,T0,1,100,26.177
1572449288.874111,125081.000,21479,1,T0,1,100,26.183
1572449289.008137,125186.000,21496,1,T0,1,100,26.150
1572449289.140886,125290.000,21514,1,T0,1,100,26.183
1572449289.276189,125396.000,21532,1,T0,1,100,26.209
1572449289.411491,125502.000,21553,1,T0,1,100,26.204
1572449289.542964,125605.000,21573,1,T0,1,100,26.166
1572449289.676990,125710.000,21592,1,T0,1,100,26.134
1572449289.812292,125816.000,21610,1,T0,1,100,26.183
1572449289.943765,125919.000,21628,1,T0,1,100,26.183
1572449290.077791,126024.000,21646,1,T0,1,100,26.193
1572449290.213093,126130.000,21664,1,T0,1,100,26.183
1572449290.344566,126233.000,21682,1,T0,1,100,26.177
1572449290.476039,126336.000,21700,1,T0,1,100,26.161
1572449290.608788,126440.000,21718,1,T0,1,100,26.188
1572449290.740261,126543.000,21737,1,T0,1,100,26.156
1572449290.873011,126647.000,21755,1,T0,1,100,26.134
1572449291.007036,126752.000,21773,1,T0,1,100,26.150
1572449291.141062,126857.000,21791,1,T0,1,100,26.150
1572449291.273812,126961.000,21809,1,T0,1,100,26.193
1572449291.407838,127066.000,21827,1,T0,1,100,26.156
1572449291.539310,127169.000,21845,1,T0,1,100,26.161
1572449291.673336,127274.000,21863,1,T0,1,100,26.172
1572449291.804809,127377.000,21882,1,T0,1,100,26.188
1572449291.937559,127481.000,21899,1,T0,1,100,26.172
1572449292.074137,127588.000,21917,1,T0,1,100,26.225
1572449292.208163,127693.000,21935,1,T0,1,100,26.150
1572449292.340913,127797.000,21953,1,T0,1,100,26.209
1572449292.476215,127903.000,21971,1,T0,1,100,26.150
1572449292.611517,128009.000,22005,1,T0,1,100,26.209
1572449292.742990,128112.000,22024,1,T0,1,100,26.199
1572449292.877016,128217.000,22042,1,T0,1,100,26.188
1572449293.012318,128323.000,22060,1,T0,1,100,26.161
1572449293.143791,128426.000,22078,1,T0,1,100,26.177
1572449293.277817,128531.000,22096,1,T0,1,100,26.193
1572449293.413119,128637.000,22114,1,T0,1,100,26.172
1572449293.544592,128740.000,22132,1,T0,1,100,26.156
1572449293.676065,128843.000,22150,1,T0,1,100,26.177
1572449293.808815,128947.000,22169,1,T0,1,100,26.156
1572449293.940288,129050.000,22187,1,T0,1,100,26.161
1572449294.073037,129154.000,22205,1,T0,1,100,26.166
1572449294.207063,129259.000,22223,1,T0,1,100,26.161
1572449294.341089,129364.000,22241,1,T0,1,100,26.134
1572449294.475115,129469.000,22259,1,T0,1,100,26.172
1572449294.606587,129572.000,22277,1,T0,1,100,26.145
1572449294.739337,129676.000,22295,1,T0,1,100,26.156
1572449294.873363,129781.000,22314,1,T0,1,100,26.145
1572449295.006112,129885.000,22332,1,T0,1,100,26.183
1572449295.138862,129989.000,22350,1,T0,1,100,26.188
1572449295.275440,130096.000,22368,1,T0,1,100,26.183
1572449295.409466,130201.000,22386,1,T0,1,100,26.193
1572449295.542216,130305.000,22404,1,T0,1,100,26.166
1572449295.676241,130410.000,22422,1,T0,1,100,26.172
1572449295.811544,130516.000,22439,1,T0,1,100,26.166
1572449295.943017,130619.000,22461,1,T0,1,100,26.172
1572449296.077042,130724.000,22480,1,T0,1,100,26.156
1572449296.212345,130830.000,22499,1,T0,1,100,26.209
1572449296.343818,130933.000,22517,1,T0,1,100,26.199
1572449296.477844,131038.000,22535,1,T0,1,100,26.193
1572449296.610593,131142.000,22553,1,T0,1,100,26.183
1572449296.742066,131245.000,22571,1,T0,1,100,26.177
1572449296.873539,131348.000,22590,1,T0,1,100,26.183
1572449297.006288,131452.000,22608,1,T0,1,100,26.172
1572449297.139038,131556.000,22626,1,T0,1,100,26.166
1572449297.271787,131660.000,22644,1,T0,1,100,26.156
1572449297.405813,131765.000,22662,1,T0,1,100,26.193
1572449297.539839,131870.000,22680,1,T0,1,100,26.225
1572449297.673865,131975.000,22698,1,T0,1,100,26.172
1572449297.805337,132078.000,22716,1,T0,1,100,26.209
1572449297.938087,132182.000,22735,1,T0,1,100,26.204
1572449298.072113,132287.000,22753,1,T0,1,100,26.220
1572449298.206139,132392.000,22771,1,T0,1,100,26.172
1572449298.338888,132496.000,22789,1,T0,1,100,26.161
1572449298.475467,132603.000,22806,1,T0,1,100,26.193
1572449298.609493,132708.000,22824,1,T0,1,100,26.199
1572449298.742242,132812.000,22842,1,T0,1,100,26.188
1572449298.876268,132917.000,22860,1,T0,1,100,26.193
1572449299.011570,133023.000,22879,1,T0,1,100,26.220
1572449299.143043,133126.000,22897,1,T0,1,100,26.188
1572449299.277069,133231.000,22931,1,T0,1,100,26.166
1572449299.412371,133337.000,22949,1,T0,1,100,26.183
1572449299.543844,133440.000,22967,1,T0,1,100,26.199
1572449299.677870,133545.000,22985,1,T0,1,100,26.172
1572449299.809343,133648.000,23003,1,T0,1,100,26.166
1572449299.939539,133750.000,23022,1,T0,1,100,26.199
1572449300.071012,133853.000,23040,1,T0,1,100,26.183
1572449300.203762,133957.000,23058,1,T0,1,100,26.161
1572449300.337788,134062.000,23076,1,T0,1,100,26.199
1572449300.470537,134166.000,23094,1,T0,1,100,26.177
1572449300.604563,134271.000,23112,1,T0,1,100,26.193
1572449300.737312,134375.000,23130,1,T0,1,100,26.242
1572449300.871338,134480.000,23149,1,T0,1,100,26.188
1572449301.002811,134583.000,23167,1,T0,1,100,26.204
1572449301.135560,134687.000,23185,1,T0,1,100,26.193
1572449301.269586,134792.000,23203,1,T0,1,100,26.188
1572449301.403612,134897.000,23221,1,T0,1,100,26.209
1572449301.536361,135001.000,23239,1,T0,1,100,26.188
1572449301.672940,135108.000,23257,1,T0,1,100,26.183
1572449301.806966,135213.000,23275,1,T0,1,100,26.193
1572449301.938439,135316.000,23294,1,T0,1,100,26.220
1572449302.072465,135421.000,23312,1,T0,1,100,26.193
1572449302.207767,135527.000,23330,1,T0,1,100,26.204
1572449302.339240,135630.000,23347,1,T0,1,100,26.209
1572449302.473266,135735.000,23368,1,T0,1,100,26.209
1572449302.608568,135841.000,23387,1,T0,1,100,26.231
1572449302.740041,135944.000,23406,1,T0,1,100,26.183
1572449302.872791,136048.000,23424,1,T0,1,100,26.199
1572449303.004263,136151.000,23443,1,T0,1,100,26.225
1572449303.135736,136254.000,23461,1,T0,1,100,26.204
1572449303.267209,136357.000,23479,1,T0,1,100,26.231
1572449303.399959,136461.000,23497,1,T0,1,100,26.209
1572449303.533985,136566.000,23515,1,T0,1,100,26.209
1572449303.666734,136670.000,23533,1,T0,1,100,26.183
1572449303.800760,136775.000,23551,1,T0,1,100,26.204
1572449303.933509,136879.000,23570,1,T0,1,100,26.204
1572449304.067535,136984.000,23588,1,T0,1,100,26.215
1572449304.199008,137087.000,23606,1,T0,1,100,26.225
1572449304.331758,137191.000,23624,1,T0,1,100,26.242
1572449304.465783,137296.000,23642,1,T0,1,100,26.209
1572449304.599809,137401.000,23660,1,T0,1,100,26.220
1572449304.732558,137505.000,23678,1,T0,1,100,26.204
1572449304.869137,137612.000,23696,1,T0,1,100,26.166
1572449305.003163,137717.000,23715,1,T0,1,100,26.199
1572449305.134636,137820.000,23732,1,T0,1,100,26.236
1572449305.268662,137925.000,23750,1,T0,1,100,26.258
1572449305.403964,138031.000,23768,1,T0,1,100,26.215
1572449305.535437,138134.000,23786,1,T0,1,100,26.209
1572449305.669463,138239.000,23804,1,T0,1,100,26.231
1572449305.804765,138345.000,23822,1,T0,1,100,26.193
1572449305.937515,138449.000,23858,1,T0,1,100,26.231
1572449306.068988,138552.000,23875,1,T0,1,100,26.225
1572449306.201737,138656.000,23893,1,T0,1,100,26.199
1572449306.333210,138759.000,23911,1,T0,1,100,26.242
1572449306.465959,138863.000,23929,1,T0,1,100,26.199
1572449306.599985,138968.000,23947,1,T0,1,100,26.231
1572449306.734011,139073.000,23965,1,T0,1,100,26.193
1572449306.866760,139177.000,23983,1,T0,1,100,26.225
1572449307.000786,139282.000,24002,1,T0,1,100,26.172
1572449307.132259,139385.000,24020,1,T0,1,100,26.231
1572449307.266285,139490.000,24038,1,T0,1,100,26.209
1572449307.397758,139593.000,24056,1,T0,1,100,26.215
1572449307.530507,139697.000,24074,1,T0,1,100,26.220
1572449307.667086,139804.000,24092,1,T0,1,100,26.204
1572449307.801112,139909.000,24110,1,T0,1,100,26.177
1572449307.933861,140013.000,24128,1,T0,1,100,26.220
1572449308.067887,140118.000,24147,1,T0,1,100,26.231
1572449308.203189,140224.000,24165,1,T0,1,100,26.220
1572449308.334662,140327.000,24183,1,T0,1,100,26.199
1572449308.468688,140432.000,24201,1,T0,1,100,26.209
1572449308.603991,140538.000,24219,1,T0,1,100,26.236
1572449308.735464,140641.000,24237,1,T0,1,100,26.204
1572449308.869489,140746.000,24255,1,T0,1,100,26.199
1572449309.004792,140852.000,24275,1,T0,1,100,26.231
1572449309.134988,140954.000,24295,1,T0,1,100,26.209
1572449309.266461,141057.000,24314,1,T0,1,100,26.215
1572449309.399210,141161.000,24332,1,T0,1,100,26.247
1572449309.530684,141264.000,24350,1,T0,1,100,26.247
1572449309.663433,141368.000,24368,1,T0,1,100,26.225
1572449309.797459,141473.000,24386,1,T0,1,100,26.263
1572449309.931484,141578.000,24404,1,T0,1,100,26.242
1572449310.064234,141682.000,24423,1,T0,1,100,26.215
1572449310.196983,141786.000,24441,1,T0,1,100,26.236
1572449310.329733,141890.000,24459,1,T0,1,100,26.215
1572449310.463759,141995.000,24477,1,T0,1,100,26.242
1572449310.596508,142099.000,24495,1,T0,1,100,26.258
1572449310.729257,142203.000,24513,1,T0,1,100,26.247
1572449310.865836,142310.000,24531,1,T0,1,100,26.209
1572449310.999862,142415.000,24549,1,T0,1,100,26.231
1572449311.133888,142520.000,24568,1,T0,1,100,26.252
1572449311.267914,142625.000,24586,1,T0,1,100,26.215
1572449311.403216,142731.000,24604,1,T0,1,100,26.215
1572449311.534689,142834.000,24622,1,T0,1,100,26.284
1572449311.668715,142939.000,24640,1,T0,1,100,26.204
1572449311.804017,143045.000,24657,1,T0,1,100,26.258
1572449311.935490,143148.000,24675,1,T0,1,100,26.236
1572449312.069516,143253.000,24693,1,T0,1,100,26.177
1572449312.203542,143358.000,24712,1,T0,1,100,26.258
1572449312.335015,143461.000,24730,1,T0,1,100,26.231
1572449312.466487,143564.000,24748,1,T0,1,100,26.225
1572449312.599237,143668.000,24766,1,T0,1,100,26.258
1572449312.731986,143772.000,24784,1,T0,1,100,26.263
1572449312.864736,143876.000,24818,1,T0,1,100,26.209
1572449312.998762,143981.000,24836,1,T0,1,100,26.242
1572449313.132787,144086.000,24855,1,T0,1,100,26.258
1572449313.266813,144191.000,24873,1,T0,1,100,26.247
1572449313.398286,144294.000,24891,1,T0,1,100,26.247
1572449313.531036,144398.000,24909,1,T0,1,100,26.263
1572449313.665061,144503.000,24927,1,T0,1,100,26.258
1572449313.799087,144608.000,24945,1,T0,1,100,26.258
1572449313.931837,144712.000,24963,1,T0,1,100,26.268
1572449314.068415,144819.000,24982,1,T0,1,100,26.295
1572449314.202441,144924.000,25000,1,T0,1,100,26.242
1572449314.335191,145028.000,25018,1,T0,1,100,26.263
1572449314.469216,145133.000,25036,1,T0,1,100,26.258
1572449314.604519,145239.000,25054,1,T0,1,100,26.252
1572449314.735992,145342.000,25072,1,T0,1,100,26.225
1572449314.870018,145447.000,25090,1,T0,1,100,26.301
1572449315.005320,145553.000,25108,1,T0,1,100,26.252
1572449315.136793,145656.000,25127,1,T0,1,100,26.274
1572449315.270818,145761.000,25145,1,T0,1,100,26.279
1572449315.402292,145864.000,25163,1,T0,1,100,26.242
1572449315.533765,145967.000,25184,1,T0,1,100,26.231
1572449315.665237,146070.000,25203,1,T0,1,100,26.231
1572449315.797987,146174.000,25222,1,T0,1,100,26.225
1572449315.930736,146278.000,25240,1,T0,1,100,26.258
1572449316.063486,146382.000,25258,1,T0,1,100,26.263
1572449316.197511,146487.000,25277,1,T0,1,100,26.268
1572449316.331537,146592.000,25295,1,T0,1,100,26.258
1572449316.465563,146697.000,25313,1,T0,1,100,26.252
1572449316.597036,146800.000,25331,1,T0,1,100,26.268
1572449316.729785,146904.000,25349,1,T0,1,100,26.279
1572449316.863811,147009.000,25367,1,T0,1,100,26.252
1572449316.997837,147114.000,25385,1,T0,1,100,26.284
1572449317.130587,147218.000,25404,1,T0,1,100,26.231
1572449317.267165,147325.000,25422,1,T0,1,100,26.274
1572449317.402467,147431.000,25440,1,T0,1,100,26.279
1572449317.533941,147534.000,25458,1,T0,1,100,26.284
1572449317.667966,147639.000,25476,1,T0,1,100,26.279
1572449317.803269,147745.000,25494,1,T0,1,100,26.274
1572449317.934742,147848.000,25512,1,T0,1,100,26.258
1572449318.068768,147953.000,25530,1,T0,1,100,26.258
1572449318.204070,148059.000,25549,1,T0,1,100,26.268
1572449318.335543,148162.000,25566,1,T0,1,100,26.295
1572449318.469568,148267.000,25584,1,T0,1,100,26.268
1572449318.601042,148370.000,25602,1,T0,1,100,26.258
1572449318.732514,148473.000,25620,1,T0,1,100,26.242
1572449318.863987,148576.000,25638,1,T0,1,100,26.252
1572449318.996737,148680.000,25656,1,T0,1,100,26.295
1572449319.130763,148785.000,25674,1,T0,1,100,26.268
1572449319.263512,148889.000,25693,1,T0,1,100,26.268
1572449319.397538,148994.000,25727,1,T0,1,100,26.236
1572449319.529011,149097.000,25745,1,T0,1,100,26.301
1572449319.663037,149202.000,25763,1,T0,1,100,26.311
1572449319.794510,149305.000,25781,1,T0,1,100,26.290
1572449319.927259,149409.000,25799,1,T0,1,100,26.263
1572449320.061285,149514.000,25817,1,T0,1,100,26.274
1572449320.194034,149618.000,25836,1,T0,1,100,26.306
1572449320.326784,149722.000,25854,1,T0,1,100,26.284
1572449320.463362,149829.000,25872,1,T0,1,100,26.263
1572449320.597388,149934.000,25890,1,T0,1,100,26.301
1572449320.728861,150037.000,25908,1,T0,1,100,26.279
1572449320.862887,150142.000,25926,1,T0,1,100,26.274
1572449320.998189,150248.000,25944,1,T0,1,100,26.279
1572449321.129662,150351.000,25962,1,T0,1,100,26.263
1572449321.263688,150456.000,25981,1,T0,1,100,26.284
1572449321.398990,150562.000,25999,1,T0,1,100,26.301
1572449321.530463,150665.000,26017,1,T0,1,100,26.327
1572449321.661936,150768.000,26035,1,T0,1,100,26.268
1572449321.794686,150872.000,26053,1,T0,1,100,26.279
1572449321.926159,150975.000,26071,1,T0,1,100,26.333
1572449322.057632,151078.000,26092,1,T0,1,100,26.252
1572449322.191658,151183.000,26112,2,T0,1,100,26.290
1572449322.325683,151288.000,26112,2,T0,1,100,26.317
1572449322.458433,151392.000,26147,1,T0,1,100,26.306
1572449322.593735,151498.000,26165,1,T0,1,100,26.284
1572449322.725208,151601.000,26183,1,T0,1,100,26.284
1572449322.859234,151706.000,26201,1,T0,1,100,26.274
1572449322.990707,151809.000,26219,1,T0,1,100,26.274
1572449323.123456,151913.000,26237,1,T0,1,100,26.317
1572449323.258759,152019.000,26256,1,T0,1,100,26.268
1572449323.392784,152124.000,26274,1,T0,1,100,26.322
1572449323.525534,152228.000,26292,1,T0,1,100,26.349
1572449323.660836,152334.000,26310,1,T0,1,100,26.311
1572449323.796138,152440.000,26328,1,T0,1,100,26.317
1572449323.927611,152543.000,26346,1,T0,1,100,26.317
1572449324.061637,152648.000,26364,1,T0,1,100,26.284
1572449324.196939,152754.000,26382,1,T0,1,100,26.279
1572449324.328412,152857.000,26401,1,T0,1,100,26.317
1572449324.462438,152962.000,26419,1,T0,1,100,26.295
1572449324.597740,153068.000,26437,1,T0,1,100,26.311
1572449324.729213,153171.000,26455,1,T0,1,100,26.295
1572449324.860686,153274.000,26473,1,T0,1,100,26.279
1572449324.993436,153378.000,26491,1,T0,1,100,26.327
1572449325.124909,153481.000,26509,1,T0,1,100,26.274
1572449325.256382,153584.000,26527,1,T0,1,100,26.284
1572449325.390407,153689.000,26545,1,T0,1,100,26.295
1572449325.524433,153794.000,26563,1,T0,1,100,26.263
1572449325.657183,153898.000,26581,1,T0,1,100,26.274
1572449325.789932,154002.000,26599,1,T0,1,100,26.343
1572449325.922682,154106.000,26617,1,T0,1,100,26.360
1572449326.056707,154211.000,26635,1,T0,1,100,26.306
1572449326.188180,154314.000,26653,1,T0,1,100,26.327
1572449326.320930,154418.000,26689,1,T0,1,100,26.258
1572449326.457508,154525.000,26706,1,T0,1,100,26.306
1572449326.591534,154630.000,26724,1,T0,1,100,26.306
1572449326.724284,154734.000,26742,1,T0,1,100,26.295
1572449326.858310,154839.000,26760,1,T0,1,100,26.306
1572449326.993612,154945.000,26778,1,T0,1,100,26.295
1572449327.125085,155048.000,26796,1,T0,1,100,26.317
1572449327.259110,155153.000,26814,1,T0,1,100,26.306
1572449327.394413,155259.000,26833,1,T0,1,100,26.306
1572449327.525886,155362.000,26851,1,T0,1,100,26.279
1572449327.659912,155467.000,26869,1,T0,1,100,26.274
1572449327.793937,155572.000,26887,1,T0,1,100,26.343
1572449327.925411,155675.000,26905,1,T0,1,100,26.301
1572449328.056883,155778.000,26923,1,T0,1,100,26.290
1572449328.189633,155882.000,26941,1,T0,1,100,26.322
1572449328.321106,155985.000,26960,1,T0,1,100,26.274
1572449328.453855,156089.000,26978,1,T0,1,100,26.349
1572449328.587881,156194.000,26999,2,T0,1,100,26.354
1572449328.721907,156299.000,26999,2,T0,1,100,26.327
1572449328.857209,156405.000,27018,1,T0,1,100,26.306
1572449328.988682,156508.000,27037,1,T0,1,100,26.306
1572449329.121431,156612.000,27055,1,T0,1,100,26.268
1572449329.255457,156717.000,27073,1,T0,1,100,26.317
1572449329.388207,156821.000,27108,1,T0,1,100,26.322
1572449329.520956,156925.000,27126,1,T0,1,100,26.322
1572449329.657535,157032.000,27144,1,T0,1,100,26.317
1572449329.791561,157137.000,27162,1,T0,1,100,26.306
1572449329.924310,157241.000,27180,1,T0,1,100,26.311
1572449330.058336,157346.000,27198,1,T0,1,100,26.311
1572449330.192362,157451.000,27216,1,T0,1,100,26.284
1572449330.322558,157553.000,27235,1,T0,1,100,26.306
1572449330.456584,157658.000,27253,1,T0,1,100,26.290
1572449330.593163,157765.000,27271,1,T0,1,100,26.290
1572449330.725912,157869.000,27289,1,T0,1,100,26.279
1572449330.859938,157974.000,27307,1,T0,1,100,26.354
1572449330.993964,158079.000,27325,1,T0,1,100,26.322
1572449331.125437,158182.000,27343,1,T0,1,100,26.290
1572449331.256910,158285.000,27361,1,T0,1,100,26.322
1572449331.389659,158389.000,27380,1,T0,1,100,26.317
1572449331.522408,158493.000,27398,1,T0,1,100,26.263
1572449331.655158,158597.000,27416,1,T0,1,100,26.301
1572449331.789184,158702.000,27434,1,T0,1,100,26.290
1572449331.923210,158807.000,27452,1,T0,1,100,26.333
1572449332.057235,158912.000,27470,1,T0,1,100,26.322
1572449332.188709,159015.000,27488,1,T0,1,100,26.322
1572449332.321458,159119.000,27506,1,T0,1,100,26.306
1572449332.455484,159224.000,27525,1,T0,1,100,26.301
1572449332.589509,159329.000,27542,1,T0,1,100,26.317
1572449332.722259,159433.000,27560,1,T0,1,100,26.284
1572449332.858838,159540.000,27578,1,T0,1,100,26.306
1572449332.992863,159645.000,27596,1,T0,1,100,26.311
1572449333.123060,159747.000,27614,1,T0,1,100,26.311
1572449333.257086,159852.000,27648,1,T0,1,100,26.311
1572449333.391112,159957.000,27667,1,T0,1,100,26.354
1572449333.522585,160060.000,27685,1,T0,1,100,26.338
1572449333.656610,160165.000,27703,1,T0,1,100,26.322
1572449333.793189,160272.000,27721,1,T0,1,100,26.322
1572449333.925939,160376.000,27739,1,T0,1,100,26.327
1572449334.058688,160480.000,27757,1,T0,1,100,26.338
1572449334.191437,160584.000,27775,1,T0,1,100,26.284
1572449334.322910,160687.000,27793,1,T0,1,100,26.349
1572449334.454383,160790.000,27812,1,T0,1,100,26.365
1572449334.587133,160894.000,27830,1,T0,1,100,26.333
1572449334.721159,160999.000,27848,1,T0,1,100,26.333
1572449334.853908,161103.000,27866,1,T0,1,100,26.311
1572449334.987934,161208.000,27884,1,T0,1,100,26.338
1572449335.121321,161312.500,27905,2,T0,1,100,26.327
1572449335.254709,161417.000,27905,2,T0,1,100,26.343
1572449335.386182,161520.000,27924,1,T0,1,100,26.354
1572449335.518931,161624.000,27944,1,T0,1,100,26.349
1572449335.652957,161729.000,27962,1,T0,1,100,26.333
1572449335.786983,161834.000,27980,1,T0,1,100,26.354
1572449335.919732,161938.000,27998,1,T0,1,100,26.295
1572449336.056311,162045.000,28032,1,T0,1,100,26.360
1572449336.190337,162150.000,28050,1,T0,1,100,26.301
1572449336.320534,162252.000,28068,1,T0,1,100,26.360
1572449336.454559,162357.000,28087,1,T0,1,100,26.333
1572449336.588585,162462.000,28105,1,T0,1,100,26.317
1572449336.721334,162566.000,28123,1,T0,1,100,26.311
1572449336.855361,162671.000,28141,1,T0,1,100,26.360
1572449336.991939,162778.000,28159,1,T0,1,100,26.349
1572449337.124689,162882.000,28177,1,T0,1,100,26.327
1572449337.257438,162986.000,28195,1,T0,1,100,26.311
1572449337.390187,163090.000,28213,1,T0,1,100,26.322
1572449337.521660,163193.000,28232,1,T0,1,100,26.365
1572449337.653133,163296.000,28250,1,T0,1,100,26.317
1572449337.787159,163401.000,28268,1,T0,1,100,26.354
1572449337.921185,163506.000,28286,1,T0,1,100,26.333
1572449338.053934,163610.000,28304,1,T0,1,100,26.327
1572449338.189237,163716.000,28322,1,T0,1,100,26.370
1572449338.320709,163819.000,28340,1,T0,1,100,26.317
1572449338.454735,163924.000,28358,1,T0,1,100,26.360
1572449338.586208,164027.000,28377,1,T0,1,100,26.306
1572449338.718958,164131.000,28395,1,T0,1,100,26.343
1572449338.852983,164236.000,28413,1,T0,1,100,26.376
1572449338.987010,164341.000,28431,1,T0,1,100,26.343
1572449339.119759,164445.000,28448,1,T0,1,100,26.338
1572449339.255061,164551.000,28466,1,T0,1,100,26.343
1572449339.389087,164656.000,28484,1,T0,1,100,26.370
1572449339.519284,164758.000,28502,1,T0,1,100,26.360
1572449339.653309,164863.000,28521,1,T0,1,100,26.343
1572449339.787335,164968.000,28539,1,T0,1,100,26.360
1572449339.920084,165072.000,28557,1,T0,1,100,26.365
1572449340.054110,165177.000,28591,1,T0,1,100,26.333
1572449340.190689,165284.000,28609,1,T0,1,100,26.306
1572449340.322162,165387.000,28627,1,T0,1,100,26.317
1572449340.453635,165490.000,28645,1,T0,1,100,26.360
1572449340.586384,165594.000,28664,1,T0,1,100,26.333
1572449340.717857,165697.000,28682,1,T0,1,100,26.354
1572449340.850607,165801.000,28700,1,T0,1,100,26.338
1572449340.984632,165906.000,28718,1,T0,1,100,26.365
1572449341.118659,166011.000,28736,1,T0,1,100,26.370
1572449341.251408,166115.000,28754,1,T0,1,100,26.311
1572449341.385434,166220.000,28772,1,T0,1,100,26.333
1572449341.516907,166323.000,28791,1,T0,1,100,26.370
1572449341.649656,166427.000,28812,2,T0,1,100,26.376
1572449341.782405,166531.000,28812,2,T0,1,100,26.327
1572449341.915155,166635.000,28831,1,T0,1,100,26.343
1572449342.051733,166742.000,28850,1,T0,1,100,26.343
1572449342.185759,166847.000,28867,1,T0,1,100,26.333
1572449342.318509,166951.000,28885,1,T0,1,100,26.338
1572449342.453811,167057.000,28903,1,T0,1,100,26.338
1572449342.587837,167162.000,28921,1,T0,1,100,26.360
1572449342.718033,167264.000,28940,1,T0,1,100,26.365
1572449342.852059,167369.000,28974,1,T0,1,100,26.386
1572449342.986085,167474.000,28992,1,T0,1,100,26.386
1572449343.118834,167578.000,29010,1,T0,1,100,26.338
1572449343.252860,167683.000,29028,1,T0,1,100,26.376
1572449343.389439,167790.000,29046,1,T0,1,100,26.349
1572449343.520912,167893.000,29065,1,T0,1,100,26.333
1572449343.652385,167996.000,29083,1,T0,1,100,26.360
1572449343.785134,168100.000,29101,1,T0,1,100,26.311
1572449343.916607,168203.000,29119,1,T0,1,100,26.349
1572449344.049357,168307.000,29137,1,T0,1,100,26.343
1572449344.183383,168412.000,29155,1,T0,1,100,26.370
1572449344.317408,168517.000,29173,1,T0,1,100,26.338
1572449344.450158,168621.000,29191,1,T0,1,100,26.343
1572449344.581631,168724.000,29210,1,T0,1,100,26.327
1572449344.714380,168828.000,29228,1,T0,1,100,26.370
1572449344.848406,168933.000,29246,1,T0,1,100,26.343
1572449344.981155,169037.000,29264,1,T0,1,100,26.386
1572449345.113905,169141.000,29282,1,T0,1,100,26.343
1572449345.250484,169248.000,29300,1,T0,1,100,26.343
1572449345.384509,169353.000,29318,1,T0,1,100,26.370
1572449345.517259,169457.000,29336,1,T0,1,100,26.370
1572449345.651284,169562.000,29355,1,T0,1,100,26.349
1572449345.785311,169667.000,29373,1,T0,1,100,26.365
1572449345.915507,169769.000,29390,1,T0,1,100,26.360
1572449346.049533,169874.000,29408,1,T0,1,100,26.349
1572449346.184835,169980.000,29426,1,T0,1,100,26.354
1572449346.317585,170084.000,29444,1,T0,1,100,26.381
1572449346.451610,170189.000,29462,1,T0,1,100,26.365
1572449346.585636,170294.000,29480,1,T0,1,100,26.376
1572449346.717109,170397.000,29499,1,T0,1,100,26.338
1572449346.848582,170500.000,29534,1,T0,1,100,26.386
1572449346.981331,170604.000,29551,1,T0,1,100,26.381
1572449347.114081,170708.000,29569,1,T0,1,100,26.338
1572449347.246830,170812.000,29587,1,T0,1,100,26.343
1572449347.380856,170917.000,29605,1,T0,1,100,26.381
1572449347.514882,171022.000,29623,1,T0,1,100,26.381
1572449347.647631,171126.000,29642,1,T0,1,100,26.365
1572449347.779104,171229.000,29660,1,T0,1,100,26.343
1572449347.911854,171333.000,29678,1,T0,1,100,26.386
1572449348.045880,171438.000,29696,1,T0,1,100,26.338
1572449348.179267,171542.500,29717,2,T0,1,100,26.392
1572449348.312655,171647.000,29717,2,T0,1,100,26.376
1572449348.449234,171754.000,29736,1,T0,1,100,26.354
1572449348.583259,171859.000,29755,1,T0,1,100,26.354
1572449348.714732,171962.000,29773,1,T0,1,100,26.327
1572449348.848758,172067.000,29791,1,T0,1,100,26.370
1572449348.982784,172172.000,29809,1,T0,1,100,26.370
1572449349.114257,172275.000,29827,1,T0,1,100,26.317
1572449349.248283,172380.000,29845,1,T0,1,100,26.365
1572449349.384861,172487.000,29863,1,T0,1,100,26.376
1572449349.517611,172591.000,29897,1,T0,1,100,26.381
1572449349.651637,172696.000,29916,1,T0,1,100,26.386
1572449349.784386,172800.000,29934,1,T0,1,100,26.365
1572449349.915859,172903.000,29952,1,T0,1,100,26.376
1572449350.047332,173006.000,29970,1,T0,1,100,26.370
1572449350.180081,173110.000,29988,1,T0,1,100,26.370
1572449350.314107,173215.000,30006,1,T0,1,100,26.333
1572449350.446857,173319.000,30024,1,T0,1,100,26.338
1572449350.580883,173424.000,30042,1,T0,1,100,26.370
1572449350.713632,173528.000,30061,1,T0,1,100,26.370
1572449350.847658,173633.000,30079,1,T0,1,100,26.354
1572449350.979131,173736.000,30097,1,T0,1,100,26.333
1572449351.111880,173840.000,30115,1,T0,1,100,26.360
1572449351.245906,173945.000,30133,1,T0,1,100,26.354
1572449351.379932,174050.000,30151,1,T0,1,100,26.413
1572449351.512681,174154.000,30169,1,T0,1,100,26.343
1572449351.649260,174261.000,30187,1,T0,1,100,26.365
1572449351.783286,174366.000,30206,1,T0,1,100,26.381
1572449351.913482,174468.000,30224,1,T0,1,100,26.354
1572449352.047508,174573.000,30242,1,T0,1,100,26.360
1572449352.181534,174678.000,30260,1,T0,1,100,26.402
1572449352.313007,174781.000,30278,1,T0,1,100,26.370
1572449352.447033,174886.000,30296,1,T0,1,100,26.360
1572449352.583611,174993.000,30313,1,T0,1,100,26.419
1572449352.716361,175097.000,30331,1,T0,1,100,26.370
1572449352.849110,175201.000,30350,1,T0,1,100,26.402
1572449352.981860,175305.000,30368,1,T0,1,100,26.343
1572449353.113333,175408.000,30386,1,T0,1,100,26.392
1572449353.244806,175511.000,30404,1,T0,1,100,26.397
1572449353.377555,175615.000,30422,1,T0,1,100,26.397
1572449353.511581,175720.000,30440,1,T0,1,100,26.376
1572449353.644330,175824.000,30474,1,T0,1,100,26.408
1572449353.778356,175929.000,30493,1,T0,1,100,26.354
1572449353.911105,176033.000,30511,1,T0,1,100,26.386
1572449354.045131,176138.000,30529,1,T0,1,100,26.392
1572449354.176604,176241.000,30547,1,T0,1,100,26.381
1572449354.309354,176345.000,30565,1,T0,1,100,26.402
1572449354.443379,176450.000,30583,1,T0,1,100,26.370
1572449354.577405,176555.000,30601,1,T0,1,100,26.354
1572449354.712069,176660.500,30623,2,T0,1,100,26.365
1572449354.846733,176766.000,30623,2,T0,1,100,26.381
1572449354.980759,176871.000,30643,1,T0,1,100,26.386
1572449355.110956,176973.000,30661,1,T0,1,100,26.392
1572449355.244982,177078.000,30679,1,T0,1,100,26.435
1572449355.379007,177183.000,30696,1,T0,1,100,26.370
1572449355.511757,177287.000,30714,1,T0,1,100,26.343
1572449355.645783,177392.000,30732,1,T0,1,100,26.376
1572449355.782361,177499.000,30750,1,T0,1,100,26.360
1572449355.915111,177603.000,30769,1,T0,1,100,26.408
1572449356.046584,177706.000,30787,1,T0,1,100,26.376
1572449356.179333,177810.000,30821,1,T0,1,100,26.408
1572449356.310806,177913.000,30839,1,T0,1,100,26.376
1572449356.443556,178017.000,30857,1,T0,1,100,26.370
1572449356.577581,178122.000,30875,1,T0,1,100,26.397
1572449356.711607,178227.000,30893,1,T0,1,100,26.381
1572449356.844357,178331.000,30912,1,T0,1,100,26.360
1572449356.978382,178436.000,30930,1,T0,1,100,26.354
1572449357.109855,178539.000,30948,1,T0,1,100,26.397
1572449357.243881,178644.000,30966,1,T0,1,100,26.402
1572449357.375354,178747.000,30984,1,T0,1,100,26.365
1572449357.508104,178851.000,31002,1,T0,1,100,26.386
1572449357.644682,178958.000,31020,1,T0,1,100,26.354
1572449357.778708,179063.000,31039,1,T0,1,100,26.360
1572449357.911458,179167.000,31057,1,T0,1,100,26.370
1572449358.045483,179272.000,31075,1,T0,1,100,26.365
1572449358.179509,179377.000,31093,1,T0,1,100,26.392
1572449358.309706,179479.000,31111,1,T0,1,100,26.402
1572449358.443732,179584.000,31129,1,T0,1,100,26.360
1572449358.577757,179689.000,31147,1,T0,1,100,26.419
1572449358.710507,179793.000,31165,1,T0,1,100,26.376
1572449358.844532,179898.000,31184,1,T0,1,100,26.376
1572449358.981111,180005.000,31202,1,T0,1,100,26.397
1572449359.111308,180107.000,31220,1,T0,1,100,26.370
1572449359.242781,180210.000,31238,1,T0,1,100,26.381
1572449359.375530,180314.000,31255,1,T0,1,100,26.365
1572449359.507003,180417.000,31273,1,T0,1,100,26.360
1572449359.639753,180521.000,31291,1,T0,1,100,26.397
1572449359.773778,180626.000,31309,1,T0,1,100,26.370
1572449359.907804,180731.000,31328,1,T0,1,100,26.370
1572449360.040554,180835.000,31346,1,T0,1,100,26.376
1572449360.173303,180939.000,31364,1,T0,1,100,26.360
1572449360.306052,181043.000,31398,1,T0,1,100,26.397
1572449360.440078,181148.000,31416,1,T0,1,100,26.392
1572449360.572828,181252.000,31434,1,T0,1,100,26.381
1572449360.705577,181356.000,31452,1,T0,1,100,26.386
1572449360.842156,181463.000,31471,1,T0,1,100,26.424
1572449360.976182,181568.000,31489,1,T0,1,100,26.386
1572449361.110208,181673.000,31507,1,T0,1,100,26.365
1572449361.244233,181778.000,31528,2,T0,1,100,26.408
1572449361.378259,181883.000,31528,2,T0,1,100,26.365
1572449361.508456,181985.000,31547,1,T0,1,100,26.365
1572449361.642482,182090.000,31566,1,T0,1,100,26.408
1572449361.777784,182196.000,31584,1,T0,1,100,26.381
1572449361.910533,182300.000,31602,1,T0,1,100,26.360
1572449362.044559,182405.000,31620,1,T0,1,100,26.402
1572449362.179861,182511.000,31638,1,T0,1,100,26.392
1572449362.311334,182614.000,31656,1,T0,1,100,26.386
1572449362.442807,182717.000,31674,1,T0,1,100,26.402
1572449362.575557,182821.000,31692,1,T0,1,100,26.376
1572449362.708306,182925.000,31710,1,T0,1,100,26.408
1572449362.841055,183029.000,31745,1,T0,1,100,26.354
1572449362.975081,183134.000,31763,1,T0,1,100,26.343
1572449363.109107,183239.000,31781,1,T0,1,100,26.376
1572449363.243133,183344.000,31799,1,T0,1,100,26.370
1572449363.374606,183447.000,31817,1,T0,1,100,26.365
1572449363.507355,183551.000,31835,1,T0,1,100,26.370
1572449363.641381,183656.000,31853,1,T0,1,100,26.343
1572449363.775407,183761.000,31871,1,T0,1,100,26.370
1572449363.908156,183865.000,31890,1,T0,1,100,26.365
1572449364.044735,183972.000,31908,1,T0,1,100,26.376
1572449364.178761,184077.000,31926,1,T0,1,100,26.343
1572449364.310234,184180.000,31944,1,T0,1,100,26.338
1572449364.444260,184285.000,31962,1,T0,1,100,26.365
1572449364.578285,184390.000,31980,1,T0,1,100,26.397
1572449364.708482,184492.000,31998,1,T0,1,100,26.370
1572449364.842508,184597.000,32016,1,T0,1,100,26.338
1572449364.977810,184703.000,32035,1,T0,1,100,26.376
1572449365.110559,184807.000,32053,1,T0,1,100,26.397
1572449365.244586,184912.000,32071,1,T0,1,100,26.354
1572449365.377335,185016.000,32089,1,T0,1,100,26.386
1572449365.508808,185119.000,32107,1,T0,1,100,26.343
1572449365.640281,185222.000,32125,1,T0,1,100,26.386
1572449365.773030,185326.000,32143,1,T0,1,100,26.317
1572449365.907056,185431.000,32160,1,T0,1,100,26.381
1572449366.039805,185535.000,32179,1,T0,1,100,26.376
1572449366.173831,185640.000,32197,1,T0,1,100,26.354
1572449366.307857,185745.000,32215,1,T0,1,100,26.354
1572449366.441883,185850.000,32233,1,T0,1,100,26.370
1572449366.573356,185953.000,32251,1,T0,1,100,26.408
1572449366.706105,186057.000,32269,1,T0,1,100,26.360
1572449366.840131,186162.000,32303,1,T0,1,100,26.365
1572449366.974157,186267.000,32322,1,T0,1,100,26.386
1572449367.106906,186371.000,32340,1,T0,1,100,26.386
1572449367.243485,186478.000,32358,1,T0,1,100,26.413
1572449367.378787,186584.000,32376,1,T0,1,100,26.370
1572449367.508984,186686.000,32394,1,T0,1,100,26.370
1572449367.643010,186791.000,32412,1,T0,1,100,26.397
1572449367.775759,186895.000,32433,2,T0,1,100,26.370
1572449367.908509,186999.000,32433,2,T0,1,100,26.343
1572449368.042534,187104.000,32453,1,T0,1,100,26.360
1572449368.179113,187211.000,32472,1,T0,1,100,26.381
1572449368.311862,187315.000,32490,1,T0,1,100,26.376
1572449368.445888,187420.000,32507,1,T0,1,100,26.392
1572449368.578638,187524.000,32525,1,T0,1,100,26.376
1572449368.710111,187627.000,32543,1,T0,1,100,26.370
1572449368.841583,187730.000,32561,1,T0,1,100,26.392
1572449368.974333,187834.000,32579,1,T0,1,100,26.365
1572449369.108359,187939.000,32598,1,T0,1,100,26.386
1572449369.241108,188043.000,32616,1,T0,1,100,26.343
1572449369.375134,188148.000,32634,1,T0,1,100,26.354
1572449369.506607,188251.000,32669,1,T0,1,100,26.360
1572449369.640633,188356.000,32686,1,T0,1,100,26.343
1572449369.772106,188459.000,32704,1,T0,1,100,26.360
1572449369.904855,188563.000,32722,1,T0,1,100,26.386
1572449370.038881,188668.000,32741,1,T0,1,100,26.370
1572449370.172907,188773.000,32759,1,T0,1,100,26.370
1572449370.305656,188877.000,32777,1,T0,1,100,26.386
1572449370.442235,188984.000,32795,1,T0,1,100,26.392
1572449370.576261,189089.000,32813,1,T0,1,100,26.397
1572449370.706457,189191.000,32831,1,T0,1,100,26.360
1572449370.840483,189296.000,32849,1,T0,1,100,26.365
1572449370.974509,189401.000,32867,1,T0,1,100,26.386
1572449371.107258,189505.000,32886,1,T0,1,100,26.354
1572449371.241284,189610.000,32904,1,T0,1,100,26.381
1572449371.377863,189717.000,32922,1,T0,1,100,26.333
1572449371.510612,189821.000,32940,1,T0,1,100,26.376
1572449371.642085,189924.000,32958,1,T0,1,100,26.402
1572449371.774835,190028.000,32976,1,T0,1,100,26.392
1572449371.906308,190131.000,32994,1,T0,1,100,26.397
1572449372.037781,190234.000,33013,1,T0,1,100,26.397
1572449372.171807,190339.000,33031,1,T0,1,100,26.381
1572449372.305832,190444.000,33049,1,T0,1,100,26.365
1572449372.438582,190548.000,33067,1,T0,1,100,26.365
1572449372.572608,190653.000,33085,1,T0,1,100,26.376
1572449372.704081,190756.000,33102,1,T0,1,100,26.376
1572449372.838106,190861.000,33120,1,T0,1,100,26.419
1572449372.969579,190964.000,33138,1,T0,1,100,26.343
1572449373.102329,191068.000,33157,1,T0,1,100,26.402
1572449373.237631,191174.000,33175,1,T0,1,100,26.381
1572449373.371657,191279.000,33193,1,T0,1,100,26.360
1572449373.504406,191383.000,33228,1,T0,1,100,26.386
1572449373.639709,191489.000,33245,1,T0,1,100,26.392
1572449373.773734,191594.000,33263,1,T0,1,100,26.376
1572449373.903931,191696.000,33281,1,T0,1,100,26.376
1572449374.037957,191801.000,33300,1,T0,1,100,26.376
1572449374.171983,191906.000,33318,1,T0,1,100,26.360
1572449374.305370,192010.500,33339,2,T0,1,100,26.397
1572449374.438758,192115.000,33339,2,T0,1,100,26.360
1572449374.575336,192222.000,33358,1,T0,1,100,26.402
1572449374.706810,192325.000,33377,1,T0,1,100,26.408
1572449374.838282,192428.000,33395,1,T0,1,100,26.376
1572449374.971032,192532.000,33413,1,T0,1,100,26.376
1572449375.102505,192635.000,33432,1,T0,1,100,26.386
1572449375.235254,192739.000,33450,1,T0,1,100,26.381
1572449375.369280,192844.000,33468,1,T0,1,100,26.397
1572449375.503306,192949.000,33486,1,T0,1,100,26.424
1572449375.636055,193053.000,33503,1,T0,1,100,26.413
1572449375.768805,193157.000,33521,1,T0,1,100,26.402
1572449375.901554,193261.000,33539,1,T0,1,100,26.413
1572449376.035580,193366.000,33557,1,T0,1,100,26.376
1572449376.167053,193469.000,33576,1,T0,1,100,26.440
1572449376.299802,193573.000,33594,1,T0,1,100,26.413
1572449376.436381,193680.000,33612,1,T0,1,100,26.397
1572449376.570407,193785.000,33646,1,T0,1,100,26.381
1572449376.704433,193890.000,33664,1,T0,1,100,26.424
1572449376.838459,193995.000,33682,1,T0,1,100,26.413
1572449376.972484,194100.000,33700,1,T0,1,100,26.386
1572449377.102681,194202.000,33719,1,T0,1,100,26.354
1572449377.236707,194307.000,33737,1,T0,1,100,26.386
1572449377.372009,194413.000,33755,1,T0,1,100,26.386
1572449377.504758,194517.000,33773,1,T0,1,100,26.424
1572449377.638784,194622.000,33791,1,T0,1,100,26.392
1572449377.774086,194728.000,33809,1,T0,1,100,26.413
1572449377.905559,194831.000,33827,1,T0,1,100,26.381
1572449378.037032,194934.000,33845,1,T0,1,100,26.376
1572449378.169782,195038.000,33864,1,T0,1,100,26.402
1572449378.301255,195141.000,33882,1,T0,1,100,26.424
1572449378.434004,195245.000,33900,1,T0,1,100,26.429
1572449378.568030,195350.000,33918,1,T0,1,100,26.376
1572449378.702056,195455.000,33936,1,T0,1,100,26.397
1572449378.837358,195561.000,33954,1,T0,1,100,26.402
1572449378.968831,195664.000,33972,1,T0,1,100,26.397
1572449379.101580,195768.000,33990,1,T0,1,100,26.402
1572449379.235606,195873.000,34009,1,T0,1,100,26.402
1572449379.369632,195978.000,34027,1,T0,1,100,26.381
1572449379.502382,196082.000,34045,1,T0,1,100,26.392
1572449379.638960,196189.000,34062,1,T0,1,100,26.424
1572449379.772986,196294.000,34080,1,T0,1,100,26.402
1572449379.905735,196398.000,34098,1,T0,1,100,26.429
1572449380.039761,196503.000,34116,1,T0,1,100,26.397
1572449380.173787,196608.000,34134,1,T0,1,100,26.413
1572449380.303984,196710.000,34153,1,T0,1,100,26.424
1572449380.438010,196815.000,34187,1,T0,1,100,26.397
1572449380.574588,196922.000,34205,1,T0,1,100,26.402
1572449380.707338,197026.000,34223,1,T0,1,100,26.386
1572449380.841363,197131.000,34244,2,T0,1,100,26.392
1572449380.975389,197236.000,34244,2,T0,1,100,26.435
1572449381.106862,197339.000,34263,1,T0,1,100,26.408
1572449381.238335,197442.000,34283,1,T0,1,100,26.386
1572449381.371085,197546.000,34301,1,T0,1,100,26.424
1572449381.503834,197650.000,34319,1,T0,1,100,26.413
1572449381.636583,197754.000,34337,1,T0,1,100,26.408
1572449381.770609,197859.000,34355,1,T0,1,100,26.419
1572449381.904635,197964.000,34373,1,T0,1,100,26.392
1572449382.037385,198068.000,34391,1,T0,1,100,26.429
1572449382.168857,198171.000,34409,1,T0,1,100,26.349
1572449382.301607,198275.000,34428,1,T0,1,100,26.408
1572449382.435633,198380.000,34446,1,T0,1,100,26.419
1572449382.569659,198485.000,34463,1,T0,1,100,26.397
1572449382.702408,198589.000,34481,1,T0,1,100,26.402
1572449382.838987,198696.000,34499,1,T0,1,100,26.429
1572449382.973012,198801.000,34517,1,T0,1,100,26.381
1572449383.103209,198903.000,34535,1,T0,1,100,26.451
1572449383.237235,199008.000,34553,1,T0,1,100,26.397
1572449383.371261,199113.000,34588,1,T0,1,100,26.381
1572449383.502734,199216.000,34606,1,T0,1,100,26.445
1572449383.636760,199321.000,34624,1,T0,1,100,26.397
1572449383.773338,199428.000,34642,1,T0,1,100,26.451
1572449383.906088,199532.000,34660,1,T0,1,100,26.435
1572449384.038837,199636.000,34678,1,T0,1,100,26.397
1572449384.171586,199740.000,34697,1,T0,1,100,26.419
1572449384.303059,199843.000,34715,1,T0,1,100,26.429
1572449384.434532,199946.000,34733,1,T0,1,100,26.392
1572449384.567282,200050.000,34751,1,T0,1,100,26.365
1572449384.701308,200155.000,34769,1,T0,1,100,26.413
1572449384.834057,200259.000,34787,1,T0,1,100,26.413
1572449384.968083,200364.000,34805,1,T0,1,100,26.440
1572449385.100832,200468.000,34823,1,T0,1,100,26.424
1572449385.234858,200573.000,34842,1,T0,1,100,26.408
1572449385.366331,200676.000,34860,1,T0,1,100,26.429
1572449385.499080,200780.000,34878,1,T0,1,100,26.456
1572449385.633106,200885.000,34896,1,T0,1,100,26.408
1572449385.767132,200990.000,34914,1,T0,1,100,26.461
1572449385.899881,201094.000,34932,1,T0,1,100,26.419
1572449386.036460,201201.000,34950,1,T0,1,100,26.408
1572449386.170486,201306.000,34968,1,T0,1,100,26.429
1572449386.300683,201408.000,34987,1,T0,1,100,26.413
1572449386.434708,201513.000,35004,1,T0,1,100,26.408
1572449386.568734,201618.000,35022,1,T0,1,100,26.424
1572449386.701483,201722.000,35040,1,T0,1,100,26.408
1572449386.835509,201827.000,35058,1,T0,1,100,26.424
1572449386.972088,201934.000,35076,1,T0,1,100,26.435
1572449387.104837,202038.000,35094,1,T0,1,100,26.386
1572449387.237587,202142.000,35129,1,T0,1,100,26.435
1572449387.369698,202245.500,35150,2,T0,1,100,26.413
1572449387.501809,202349.000,35150,2,T0,1,100,26.408
1572449387.633282,202452.000,35169,1,T0,1,100,26.419
1572449387.767308,202557.000,35188,1,T0,1,100,26.402
1572449387.901334,202662.000,35206,1,T0,1,100,26.435
1572449388.034083,202766.000,35224,1,T0,1,100,26.429
1572449388.168109,202871.000,35242,1,T0,1,100,26.435
1572449388.299582,202974.000,35261,1,T0,1,100,26.408
1572449388.433608,203079.000,35279,1,T0,1,100,26.376
1572449388.565081,203182.000,35297,1,T0,1,100,26.402
1572449388.697830,203286.000,35315,1,T0,1,100,26.424
1572449388.833133,203392.000,35333,1,T0,1,100,26.413
1572449388.967158,203497.000,35351,1,T0,1,100,26.483
1572449389.099908,203601.000,35369,1,T0,1,100,26.424
1572449389.235210,203707.000,35386,1,T0,1,100,26.419
1572449389.369236,203812.000,35405,1,T0,1,100,26.419
1572449389.499433,203914.000,35423,1,T0,1,100,26.435
1572449389.633458,204019.000,35441,1,T0,1,100,26.424
1572449389.767484,204124.000,35459,1,T0,1,100,26.413
1572449389.900234,204228.000,35477,1,T0,1,100,26.445
1572449390.034259,204333.000,35512,1,T0,1,100,26.445
1572449390.170838,204440.000,35529,1,T0,1,100,26.376
1572449390.302311,204543.000,35548,1,T0,1,100,26.445
1572449390.433784,204646.000,35566,1,T0,1,100,26.467
1572449390.566533,204750.000,35584,1,T0,1,100,26.419
1572449390.698006,204853.000,35602,1,T0,1,100,26.440
1572449390.830756,204957.000,35620,1,T0,1,100,26.461
1572449390.964782,205062.000,35638,1,T0,1,100,26.461
1572449391.098807,205167.000,35656,1,T0,1,100,26.435
1572449391.231557,205271.000,35674,1,T0,1,100,26.445
1572449391.365583,205376.000,35693,1,T0,1,100,26.419
1572449391.497056,205479.000,35711,1,T0,1,100,26.467
1572449391.631082,205584.000,35729,1,T0,1,100,26.413
1572449391.762554,205687.000,35747,1,T0,1,100,26.424
1572449391.895304,205791.000,35765,1,T0,1,100,26.467
1572449392.031883,205898.000,35783,1,T0,1,100,26.413
1572449392.165908,206003.000,35801,1,T0,1,100,26.451
1572449392.298658,206107.000,35819,1,T0,1,100,26.419
1572449392.433960,206213.000,35838,1,T0,1,100,26.429
1572449392.567986,206318.000,35856,1,T0,1,100,26.413
1572449392.698182,206420.000,35874,1,T0,1,100,26.424
1572449392.832208,206525.000,35892,1,T0,1,100,26.477
1572449392.966234,206630.000,35910,1,T0,1,100,26.429
1572449393.098984,206734.000,35928,1,T0,1,100,26.467
1572449393.233009,206839.000,35945,1,T0,1,100,26.429
1572449393.369588,206946.000,35963,1,T0,1,100,26.440
1572449393.501061,207049.000,35982,1,T0,1,100,26.456
1572449393.632534,207152.000,36000,1,T0,1,100,26.456
1572449393.765283,207256.000,36018,1,T0,1,100,26.419
1572449393.896756,207359.000,36036,1,T0,1,100,26.424
1572449394.029506,207463.000,36057,1,T0,1,100,26.467
1572449394.163532,207568.000,36077,1,T0,1,100,26.429
1572449394.297557,207673.000,36095,1,T0,1,100,26.456
1572449394.431583,207778.000,36114,1,T0,1,100,26.456
1572449394.563056,207881.000,36132,1,T0,1,100,26.440
1572449394.695806,207985.000,36150,1,T0,1,100,26.445
1572449394.829831,208090.000,36168,1,T0,1,100,26.461
1572449394.963857,208195.000,36186,1,T0,1,100,26.424
1572449395.096607,208299.000,36204,1,T0,1,100,26.440
1572449395.233185,208406.000,36222,1,T0,1,100,26.451
1572449395.367211,208511.000,36240,1,T0,1,100,26.456
1572449395.499961,208615.000,36259,1,T0,1,100,26.456
1572449395.633986,208720.000,36277,1,T0,1,100,26.488
1572449395.768012,208825.000,36295,1,T0,1,100,26.451
1572449395.898209,208927.000,36312,1,T0,1,100,26.451
1572449396.032235,209032.000,36330,1,T0,1,100,26.461
1572449396.167537,209138.000,36348,1,T0,1,100,26.413
1572449396.300286,209242.000,36366,1,T0,1,100,26.472
1572449396.434312,209347.000,36384,1,T0,1,100,26.451
1572449396.568338,209452.000,36419,1,T0,1,100,26.424
1572449396.699811,209555.000,36437,1,T0,1,100,26.456
1572449396.831284,209658.000,36455,1,T0,1,100,26.456
1572449396.964033,209762.000,36473,1,T0,1,100,26.483
1572449397.096783,209866.000,36491,1,T0,1,100,26.467
1572449397.229532,209970.000,36509,1,T0,1,100,26.494
1572449397.363558,210075.000,36527,1,T0,1,100,26.488
1572449397.497584,210180.000,36546,1,T0,1,100,26.451
1572449397.631610,210285.000,36564,1,T0,1,100,26.477
1572449397.763083,210388.000,36582,1,T0,1,100,26.467
1572449397.895832,210492.000,36600,1,T0,1,100,26.445
1572449398.029858,210597.000,36618,1,T0,1,100,26.461
1572449398.163884,210702.000,36636,1,T0,1,100,26.467
1572449398.296633,210806.000,36654,1,T0,1,100,26.477
1572449398.433212,210913.000,36673,1,T0,1,100,26.440
1572449398.567238,211018.000,36691,1,T0,1,100,26.461
1572449398.698711,211121.000,36709,1,T0,1,100,26.504
1572449398.832736,211226.000,36727,1,T0,1,100,26.472
1572449398.966762,211331.000,36745,1,T0,1,100,26.488
1572449399.098235,211434.000,36763,1,T0,1,100,26.445
1572449399.232261,211539.000,36781,1,T0,1,100,26.477
1572449399.368840,211646.000,36799,1,T0,1,100,26.477
1572449399.501589,211750.000,36818,1,T0,1,100,26.461
1572449399.635615,211855.000,36835,1,T0,1,100,26.467
1572449399.768364,211959.000,36853,1,T0,1,100,26.499
1572449399.899837,212062.000,36871,1,T0,1,100,26.456
1572449400.031310,212165.000,36889,1,T0,1,100,26.483
1572449400.164060,212269.000,36907,1,T0,1,100,26.467
1572449400.298085,212374.000,36925,1,T0,1,100,26.456
1572449400.430835,212478.000,36943,1,T0,1,100,26.515
1572449400.564861,212583.000,36965,1,T0,1,100,26.467
1572449400.697610,212687.000,36985,1,T0,1,100,26.467
1572449400.831636,212792.000,37003,1,T0,1,100,26.477
1572449400.963109,212895.000,37021,1,T0,1,100,26.472
1572449401.095858,212999.000,37039,1,T0,1,100,26.467
1572449401.229884,213104.000,37057,1,T0,1,100,26.472
1572449401.363910,213209.000,37075,1,T0,1,100,26.467
1572449401.496660,213313.000,37094,1,T0,1,100,26.461
1572449401.633238,213420.000,37112,1,T0,1,100,26.499
1572449401.767264,213525.000,37130,1,T0,1,100,26.472
1572449401.897460,213627.000,37148,1,T0,1,100,26.494
1572449402.031486,213732.000,37166,1,T0,1,100,26.451
1572449402.165512,213837.000,37184,1,T0,1,100,26.472
1572449402.296985,213940.000,37202,1,T0,1,100,26.488
1572449402.431011,214045.000,37219,1,T0,1,100,26.467
1572449402.567590,214152.000,37238,1,T0,1,100,26.440
1572449402.700339,214256.000,37256,1,T0,1,100,26.499
1572449402.833088,214360.000,37274,1,T0,1,100,26.467
1572449402.965838,214464.000,37292,1,T0,1,100,26.445
1572449403.097311,214567.000,37310,1,T0,1,100,26.472
1572449403.228784,214670.000,37328,1,T0,1,100,26.451
1572449403.361533,214774.000,37346,1,T0,1,100,26.510
1572449403.495559,214879.000,37381,1,T0,1,100,26.477
1572449403.628309,214983.000,37399,1,T0,1,100,26.461
1572449403.762334,215088.000,37417,1,T0,1,100,26.456
1572449403.895084,215192.000,37435,1,T0,1,100,26.483
1572449404.029109,215297.000,37453,1,T0,1,100,26.467
1572449404.160583,215400.000,37471,1,T0,1,100,26.477
1572449404.293332,215504.000,37489,1,T0,1,100,26.483
1572449404.427358,215609.000,37507,1,T0,1,100,26.472
1572449404.561383,215714.000,37526,1,T0,1,100,26.461
1572449404.694133,215818.000,37544,1,T0,1,100,26.472
1572449404.830712,215925.000,37562,1,T0,1,100,26.483
1572449404.964737,216030.000,37580,1,T0,1,100,26.467
1572449405.094934,216132.000,37598,1,T0,1,100,26.456
1572449405.228960,216237.000,37616,1,T0,1,100,26.483
1572449405.362986,216342.000,37634,1,T0,1,100,26.499
1572449405.495735,216446.000,37652,1,T0,1,100,26.499
1572449405.629761,216551.000,37671,1,T0,1,100,26.451
1572449405.766340,216658.000,37689,1,T0,1,100,26.429
1572449405.899089,216762.000,37707,1,T0,1,100,26.488
1572449406.031838,216866.000,37725,1,T0,1,100,26.456
1572449406.164588,216970.000,37743,1,T0,1,100,26.477
1572449406.297337,217074.000,37761,1,T0,1,100,26.451
1572449406.430087,217178.000,37778,1,T0,1,100,26.472
1572449406.564112,217283.000,37796,1,T0,1,100,26.467
1572449406.698138,217388.000,37815,1,T0,1,100,26.461
1572449406.830888,217492.000,37833,1,T0,1,100,26.461
1572449406.963637,217596.000,37851,1,T0,1,100,26.472
1572449407.093834,217698.000,37872,1,T0,1,100,26.488
1572449407.226583,217802.000,37892,1,T0,1,100,26.477
1572449407.358056,217905.000,37910,1,T0,1,100,26.515
1572449407.489529,218008.000,37928,1,T0,1,100,26.488
1572449407.626108,218115.000,37947,1,T0,1,100,26.477
1572449407.760134,218220.000,37965,1,T0,1,100,26.435
1572449407.892883,218324.000,37983,1,T0,1,100,26.456
1572449408.026909,218429.000,38001,1,T0,1,100,26.504
1572449408.160935,218534.000,38019,1,T0,1,100,26.472
1572449408.291131,218636.000,38037,1,T0,1,100,26.461
1572449408.425157,218741.000,38055,1,T0,1,100,26.461
1572449408.559183,218846.000,38073,1,T0,1,100,26.494
1572449408.691932,218950.000,38092,1,T0,1,100,26.494
1572449408.825958,219055.000,38110,1,T0,1,100,26.456
1572449408.962537,219162.000,38128,1,T0,1,100,26.413
1572449409.092733,219264.000,38145,1,T0,1,100,26.494
1572449409.225483,219368.000,38163,1,T0,1,100,26.488
1572449409.358232,219472.000,38181,1,T0,1,100,26.483
1572449409.490982,219576.000,38199,1,T0,1,100,26.488
1572449409.623731,219680.000,38217,1,T0,1,100,26.456
1572449409.757757,219785.000,38236,1,T0,1,100,26.510
1572449409.891783,219890.000,38254,1,T0,1,100,26.483
1572449410.024532,219994.000,38272,1,T0,1,100,26.477
1572449410.157281,220098.000,38306,1,T0,1,100,26.445
1572449410.288754,220201.000,38324,1,T0,1,100,26.494
1572449410.421504,220305.000,38342,1,T0,1,100,26.467
1572449410.554253,220409.000,38360,1,T0,1,100,26.494
1572449410.687002,220513.000,38379,1,T0,1,100,26.456
1572449410.823581,220620.000,38397,1,T0,1,100,26.499
1572449410.957607,220725.000,38415,1,T0,1,100,26.499
1572449411.091633,220830.000,38433,1,T0,1,100,26.461
1572449411.225659,220935.000,38451,1,T0,1,100,26.494
1572449411.359684,221040.000,38469,1,T0,1,100,26.488
1572449411.489881,221142.000,38487,1,T0,1,100,26.472
1572449411.623907,221247.000,38505,1,T0,1,100,26.472
1572449411.759209,221353.000,38524,1,T0,1,100,26.445
1572449411.891959,221457.000,38542,1,T0,1,100,26.472
1572449412.025985,221562.000,38560,1,T0,1,100,26.483
1572449412.161287,221668.000,38578,1,T0,1,100,26.467
1572449412.294036,221772.000,38596,1,T0,1,100,26.456
1572449412.426785,221876.000,38614,1,T0,1,100,26.472
1572449412.559535,221980.000,38632,1,T0,1,100,26.488
1572449412.693561,222085.000,38651,1,T0,1,100,26.488
1572449412.826310,222189.000,38669,1,T0,1,100,26.467
1572449412.960336,222294.000,38687,1,T0,1,100,26.483
1572449413.094362,222399.000,38704,1,T0,1,100,26.472
1572449413.227111,222503.000,38722,1,T0,1,100,26.445
1572449413.358584,222606.000,38740,1,T0,1,100,26.488
1572449413.490057,222709.000,38758,1,T0,1,100,26.445
1572449413.622807,222813.000,38779,1,T0,1,100,26.445
1572449413.756832,222918.000,38800,1,T0,1,100,26.499
1572449413.889582,223022.000,38818,1,T0,1,100,26.477
1572449414.026160,223129.000,38836,1,T0,1,100,26.456
1572449414.160186,223234.000,38854,1,T0,1,100,26.499
1572449414.291659,223337.000,38872,1,T0,1,100,26.504
1572449414.425685,223442.000,38890,1,T0,1,100,26.510
1572449414.559711,223547.000,38908,1,T0,1,100,26.429
1572449414.689908,223649.000,38926,1,T0,1,100,26.483
1572449414.823933,223754.000,38945,1,T0,1,100,26.477
1572449414.960512,223861.000,38963,1,T0,1,100,26.461
1572449415.093261,223965.000,38981,1,T0,1,100,26.467
1572449415.227287,224070.000,38999,1,T0,1,100,26.451
1572449415.360037,224174.000,39017,1,T0,1,100,26.477
1572449415.492786,224278.000,39035,1,T0,1,100,26.526
1572449415.625535,224382.000,39052,1,T0,1,100,26.461
1572449415.758285,224486.000,39071,1,T0,1,100,26.445
1572449415.892311,224591.000,39089,1,T0,1,100,26.456
1572449416.025060,224695.000,39107,1,T0,1,100,26.435
1572449416.159086,224800.000,39125,1,T0,1,100,26.488
1572449416.293112,224905.000,39143,1,T0,1,100,26.461
1572449416.425861,225009.000,39161,1,T0,1,100,26.461
1572449416.557334,225112.000,39195,1,T0,1,100,26.440
1572449416.688807,225215.000,39214,1,T0,1,100,26.510
1572449416.821557,225319.000,39232,1,T0,1,100,26.467
1572449416.955582,225424.000,39250,1,T0,1,100,26.461
1572449417.088332,225528.000,39268,1,T0,1,100,26.488
1572449417.224910,225635.000,39286,1,T0,1,100,26.440
1572449417.360213,225741.000,39304,1,T0,1,100,26.461
1572449417.490409,225843.000,39322,1,T0,1,100,26.461
1572449417.624435,225948.000,39340,1,T0,1,100,26.510
1572449417.758461,226053.000,39359,1,T0,1,100,26.483
1572449417.889934,226156.000,39377,1,T0,1,100,26.461
1572449418.023960,226261.000,39395,1,T0,1,100,26.467
1572449418.160538,226368.000,39413,1,T0,1,100,26.461
1572449418.293288,226472.000,39431,1,T0,1,100,26.456
1572449418.428590,226578.000,39449,1,T0,1,100,26.451
1572449418.561340,226682.000,39467,1,T0,1,100,26.504
1572449418.694089,226786.000,39485,1,T0,1,100,26.456
1572449418.826838,226890.000,39504,1,T0,1,100,26.467
1572449418.959588,226994.000,39522,1,T0,1,100,26.429
1572449419.093614,227099.000,39540,1,T0,1,100,26.483
1572449419.226363,227203.000,39558,1,T0,1,100,26.451
1572449419.360389,227308.000,39576,1,T0,1,100,26.483
1572449419.491862,227411.000,39593,1,T0,1,100,26.483
1572449419.624611,227515.000,39611,1,T0,1,100,26.440
1572449419.756084,227618.000,39629,1,T0,1,100,26.456
1572449419.887557,227721.000,39648,1,T0,1,100,26.467
1572449420.021583,227826.000,39666,1,T0,1,100,26.477
1572449420.155609,227931.000,39687,1,T0,1,100,26.483
1572449420.288358,228035.000,39707,1,T0,1,100,26.467
1572449420.424937,228142.000,39725,1,T0,1,100,26.477
1572449420.558963,228247.000,39743,1,T0,1,100,26.435
1572449420.689159,228349.000,39761,1,T0,1,100,26.467
1572449420.823185,228454.000,39780,1,T0,1,100,26.467
1572449420.957211,228559.000,39798,1,T0,1,100,26.467
1572449421.089960,228663.000,39816,1,T0,1,100,26.477
1572449421.223986,228768.000,39834,1,T0,1,100,26.499
1572449421.360565,228875.000,39852,1,T0,1,100,26.456
1572449421.493314,228979.000,39870,1,T0,1,100,26.483
1572449421.626064,229083.000,39888,1,T0,1,100,26.483
1572449421.758813,229187.000,39906,1,T0,1,100,26.440
1572449421.891562,229291.000,39925,1,T0,1,100,26.467
1572449422.024312,229395.000,39943,1,T0,1,100,26.488
1572449422.158338,229500.000,39960,1,T0,1,100,26.456
1572449422.292363,229605.000,39978,1,T0,1,100,26.499
1572449422.425113,229709.000,39996,1,T0,1,100,26.472
1572449422.559139,229814.000,40014,1,T0,1,100,26.488
1572449422.689335,229916.000,40032,1,T0,1,100,26.472
1572449422.822085,230020.000,40050,1,T0,1,100,26.477
1572449422.953558,230123.000,40069,1,T0,1,100,26.467
1572449423.086732,230227.333,40103,3,T0,1,100,26.494
1572449423.219907,230331.667,40103,3,T0,1,100,26.467
1572449423.353082,230436.000,40103,3,T0,1,100,26.477
1572449423.486379,230540.429,40121,7,T0,1,100,26.499
1572449423.619675,230644.857,40121,7,T0,1,100,26.456
1572449423.752972,230749.286,40121,7,T0,1,100,26.494
1572449423.886268,230853.714,40121,7,T0,1,100,26.461
1572449424.019564,230958.143,40121,7,T0,1,100,26.488
1572449424.152861,231062.571,40121,7,T0,1,100,26.456
1572449424.286157,231167.000,40121,7,T0,1,100,26.472
1572449424.420609,231272.333,40140,3,T0,1,100,26.461
1572449424.555060,231377.667,40140,3,T0,1,100,26.440
1572449424.689511,231483.000,40140,3,T0,1,100,26.445
1572449424.822261,231587.000,40159,2,T0,1,100,26.472
1572449424.955010,231691.000,40159,2,T0,1,100,26.499
1572449425.090312,231797.000,40177,1,T0,1,100,26.504
1572449425.221785,231900.000,40194,1,T0,1,100,26.488
1572449425.355811,232005.000,40212,1,T0,1,100,26.483
1572449425.491113,232111.000,40230,1,T0,1,100,26.472
1572449425.622586,232214.000,40248,1,T0,1,100,26.488
1572449425.755336,232318.000,40266,1,T0,1,100,26.445
1572449425.888085,232422.000,40301,1,T0,1,100,26.461
1572449426.019558,232525.000,40319,1,T0,1,100,26.483
1572449426.151031,232628.000,40336,1,T0,1,100,26.515
1572449426.285057,232733.000,40354,1,T0,1,100,26.472
1572449426.419083,232838.000,40372,1,T0,1,100,26.461
1572449426.552470,232942.500,40393,2,T0,1,100,26.499
1572449426.685858,233047.000,40393,2,T0,1,100,26.483
1572449426.817331,233150.000,40412,1,T0,1,100,26.461
1572449426.950080,233254.000,40432,1,T0,1,100,26.467
1572449427.081553,233357.000,40450,1,T0,1,100,26.483
1572449427.214303,233461.000,40468,1,T0,1,100,26.488
1572449427.348329,233566.000,40486,1,T0,1,100,26.467
1572449427.482354,233671.000,40504,1,T0,1,100,26.456
1572449427.615104,233775.000,40522,1,T0,1,100,26.456
1572449427.750406,233881.000,40540,1,T0,1,100,26.494
1572449427.884432,233986.000,40558,1,T0,1,100,26.461
1572449428.015905,234089.000,40577,1,T0,1,100,26.467
1572449428.149931,234194.000,40595,1,T0,1,100,26.451
1572449428.285233,234300.000,40613,1,T0,1,100,26.467
1572449428.416706,234403.000,40631,1,T0,1,100,26.451
1572449428.550732,234508.000,40649,1,T0,1,100,26.483
1572449428.686034,234614.000,40667,1,T0,1,100,26.515
1572449428.818784,234718.000,40684,1,T0,1,100,26.440
1572449428.950256,234821.000,40702,1,T0,1,100,26.456
1572449429.083006,234925.000,40721,1,T0,1,100,26.451
1572449429.214479,235028.000,40739,1,T0,1,100,26.494
1572449429.347228,235132.000,40757,1,T0,1,100,26.440
1572449429.481254,235237.000,40775,1,T0,1,100,26.494
1572449429.615280,235342.000,40793,1,T0,1,100,26.451
1572449429.748029,235446.000,40827,1,T0,1,100,26.467
1572449429.882055,235551.000,40846,1,T0,1,100,26.429
1572449430.013528,235654.000,40864,1,T0,1,100,26.472
1572449430.147554,235759.000,40882,1,T0,1,100,26.472
1572449430.279027,235862.000,40900,1,T0,1,100,26.451
1572449430.411776,235966.000,40918,1,T0,1,100,26.477
1572449430.548355,236073.000,40936,1,T0,1,100,26.477
1572449430.682381,236178.000,40954,1,T0,1,100,26.467
1572449430.815130,236282.000,40972,1,T0,1,100,26.494
1572449430.950433,236388.000,40991,1,T0,1,100,26.413
1572449431.085735,236494.000,41009,1,T0,1,100,26.488
1572449431.217208,236597.000,41027,1,T0,1,100,26.456
1572449431.351233,236702.000,41045,1,T0,1,100,26.467
1572449431.486536,236808.000,41063,1,T0,1,100,26.467
1572449431.618009,236911.000,41081,1,T0,1,100,26.472
1572449431.752035,237016.000,41099,1,T0,1,100,26.461
1572449431.887337,237122.000,41117,1,T0,1,100,26.472
1572449432.017534,237224.000,41136,1,T0,1,100,26.483
1572449432.149006,237327.000,41154,1,T0,1,100,26.477
1572449432.281756,237431.000,41172,1,T0,1,100,26.494
1572449432.413229,237534.000,41190,1,T0,1,100,26.467
1572449432.545978,237638.000,41208,1,T0,1,100,26.504
1572449432.680004,237743.000,41226,1,T0,1,100,26.499
1572449432.814030,237848.000,41243,1,T0,1,100,26.451
1572449432.946779,237952.000,41261,1,T0,1,100,26.494
1572449433.078252,238055.000,41280,1,T0,1,100,26.488
1572449433.211002,238159.000,41301,1,T0,1,100,26.445
1572449433.345027,238264.000,41320,1,T0,1,100,26.520
1572449433.477777,238368.000,41339,1,T0,1,100,26.456
1572449433.610526,238472.000,41357,1,T0,1,100,26.467
1572449433.747105,238579.000,41375,1,T0,1,100,26.483
1572449433.881131,238684.000,41393,1,T0,1,100,26.504
1572449434.013880,238788.000,41412,1,T0,1,100,26.488
1572449434.147906,238893.000,41430,1,T0,1,100,26.445
1572449434.283208,238999.000,41448,1,T0,1,100,26.477
1572449434.414681,239102.000,41466,1,T0,1,100,26.477
1572449434.548707,239207.000,41484,1,T0,1,100,26.494
1572449434.684009,239313.000,41502,1,T0,1,100,26.429
1572449434.815482,239416.000,41520,1,T0,1,100,26.445
1572449434.949508,239521.000,41538,1,T0,1,100,26.472
1572449435.083534,239626.000,41557,1,T0,1,100,26.477
1572449435.215007,239729.000,41575,1,T0,1,100,26.477
1572449435.346480,239832.000,41593,1,T0,1,100,26.494
1572449435.479229,239936.000,41611,1,T0,1,100,26.456
1572449435.611979,240040.000,41629,1,T0,1,100,26.440
1572449435.744728,240144.000,41647,1,T0,1,100,26.467
1572449435.878754,240249.000,41665,1,T0,1,100,26.461
1572449436.012780,240354.000,41683,1,T0,1,100,26.499
1572449436.146806,240459.000,41701,1,T0,1,100,26.461
1572449436.278279,240562.000,41719,1,T0,1,100,26.451
1572449436.411028,240666.000,41737,1,T0,1,100,26.488
1572449436.545054,240771.000,41755,1,T0,1,100,26.451
1572449436.679080,240876.000,41773,1,T0,1,100,26.494
1572449436.811829,240980.000,41791,1,T0,1,100,26.472
1572449436.948408,241087.000,41825,1,T0,1,100,26.472
1572449437.082434,241192.000,41844,1,T0,1,100,26.451
1572449437.215183,241296.000,41862,1,T0,1,100,26.483
1572449437.349209,241401.000,41880,1,T0,1,100,26.494
1572449437.484511,241507.000,41898,1,T0,1,100,26.472
1572449437.615984,241610.000,41916,1,T0,1,100,26.456
1572449437.750010,241715.000,41934,1,T0,1,100,26.488
1572449437.885312,241821.000,41952,1,T0,1,100,26.445
1572449438.016785,241924.000,41970,1,T0,1,100,26.483
1572449438.150811,242029.000,41989,1,T0,1,100,26.456
1572449438.282284,242132.000,42007,1,T0,1,100,26.488
1572449438.413757,242235.000,42025,1,T0,1,100,26.494
1572449438.545230,242338.000,42043,1,T0,1,100,26.483
1572449438.677979,242442.000,42061,1,T0,1,100,26.477
1572449438.812005,242547.000,42079,1,T0,1,100,26.472
1572449438.944755,242651.000,42097,1,T0,1,100,26.526
1572449439.078780,242756.000,42115,1,T0,1,100,26.435
1572449439.211530,242860.000,42134,1,T0,1,100,26.445
1572449439.345556,242965.000,42152,1,T0,1,100,26.477
1572449439.477029,243068.000,42170,1,T0,1,100,26.477
1572449439.609778,243172.000,42188,1,T0,1,100,26.440
1572449439.743804,243277.000,42209,2,T0,1,100,26.451
1572449439.877830,243382.000,42209,2,T0,1,100,26.451
1572449440.010579,243486.000,42228,1,T0,1,100,26.461
1572449440.147158,243593.000,42264,1,T0,1,100,26.499
1572449440.281183,243698.000,42282,1,T0,1,100,26.477
1572449440.412657,243801.000,42300,1,T0,1,100,26.456
1572449440.546682,243906.000,42318,1,T0,1,100,26.451
1572449440.681985,244012.000,42336,1,T0,1,100,26.451
1572449440.813458,244115.000,42354,1,T0,1,100,26.488
1572449440.947484,244220.000,42372,1,T0,1,100,26.419
1572449441.082786,244326.000,42390,1,T0,1,100,26.467
1572449441.214259,244429.000,42409,1,T0,1,100,26.494
1572449441.348284,244534.000,42427,1,T0,1,100,26.435
1572449441.479758,244637.000,42445,1,T0,1,100,26.451
1572449441.611230,244740.000,42463,1,T0,1,100,26.483
1572449441.742703,244843.000,42481,1,T0,1,100,26.488
1572449441.875453,244947.000,42499,1,T0,1,100,26.456
1572449442.009479,245052.000,42517,1,T0,1,100,26.451
1572449442.142228,245156.000,42536,1,T0,1,100,26.477
1572449442.276254,245261.000,42554,1,T0,1,100,26.477
1572449442.409003,245365.000,42572,1,T0,1,100,26.510
1572449442.543029,245470.000,42590,1,T0,1,100,26.477
1572449442.674502,245573.000,42608,1,T0,1,100,26.445
1572449442.807251,245677.000,42626,1,T0,1,100,26.477
1572449442.941277,245782.000,42644,1,T0,1,100,26.461
1572449443.075303,245887.000,42662,1,T0,1,100,26.456
1572449443.208053,245991.000,42680,1,T0,1,100,26.472
1572449443.344631,246098.000,42698,1,T0,1,100,26.494
1572449443.479934,246204.000,42716,1,T0,1,100,26.408
1572449443.611407,246307.000,42734,1,T0,1,100,26.461
1572449443.745432,246412.000,42752,1,T0,1,100,26.456
1572449443.880735,246518.000,42786,1,T0,1,100,26.451
1572449444.012208,246621.000,42804,1,T0,1,100,26.451
1572449444.146233,246726.000,42823,1,T0,1,100,26.467
1572449444.281536,246832.000,42841,1,T0,1,100,26.488
1572449444.414285,246936.000,42859,1,T0,1,100,26.451
1572449444.545758,247039.000,42877,1,T0,1,100,26.451
1572449444.678508,247143.000,42895,1,T0,1,100,26.472
1572449444.809980,247246.000,42913,1,T0,1,100,26.477
1572449444.942730,247350.000,42931,1,T0,1,100,26.413
1572449445.076756,247455.000,42949,1,T0,1,100,26.467
1572449445.210782,247560.000,42968,1,T0,1,100,26.445
1572449445.343531,247664.000,42986,1,T0,1,100,26.483
1572449445.477557,247769.000,43004,1,T0,1,100,26.451
1572449445.609030,247872.000,43022,1,T0,1,100,26.494
1572449445.743056,247977.000,43040,1,T0,1,100,26.499
1572449445.874528,248080.000,43058,1,T0,1,100,26.467
1572449446.007278,248184.000,43076,1,T0,1,100,26.467
1572449446.142580,248290.000,43094,1,T0,1,100,26.467
1572449446.275968,248394.500,43116,2,T0,1,100,26.499
1572449446.409355,248499.000,43116,2,T0,1,100,26.467
1572449446.543381,248604.000,43135,1,T0,1,100,26.451
1572449446.678684,248710.000,43154,1,T0,1,100,26.445
1572449446.810157,248813.000,43171,1,T0,1,100,26.483
1572449446.944182,248918.000,43189,1,T0,1,100,26.477
1572449447.079485,249024.000,43207,1,T0,1,100,26.456
1572449447.210958,249127.000,43225,1,T0,1,100,26.445
1572449447.344983,249232.000,43244,1,T0,1,100,26.494
1572449447.480286,249338.000,43278,1,T0,1,100,26.504
1572449447.611759,249441.000,43296,1,T0,1,100,26.477
1572449447.743232,249544.000,43314,1,T0,1,100,26.499
1572449447.875981,249648.000,43332,1,T0,1,100,26.456
1572449448.007454,249751.000,43350,1,T0,1,100,26.467
1572449448.140203,249855.000,43368,1,T0,1,100,26.477
1572449448.272953,249959.000,43387,1,T0,1,100,26.445
1572449448.406979,250064.000,43405,1,T0,1,100,26.510
1572449448.539728,250168.000,43423,1,T0,1,100,26.483
1572449448.672477,250272.000,43441,1,T0,1,100,26.515
1572449448.805227,250376.000,43459,1,T0,1,100,26.499
1572449448.939253,250481.000,43477,1,T0,1,100,26.494
1572449449.072002,250585.000,43495,1,T0,1,100,26.477
1572449449.204751,250689.000,43513,1,T0,1,100,26.488
1572449449.340054,250795.000,43532,1,T0,1,100,26.488
1572449449.474080,250900.000,43550,1,T0,1,100,26.477
1572449449.608105,251005.000,43568,1,T0,1,100,26.488
1572449449.742131,251110.000,43586,1,T0,1,100,26.483
1572449449.877434,251216.000,43604,1,T0,1,100,26.467
1572449450.008906,251319.000,43622,1,T0,1,100,26.477
1572449450.142932,251424.000,43640,1,T0,1,100,26.488
1572449450.278234,251530.000,43658,1,T0,1,100,26.467
1572449450.409708,251633.000,43677,1,T0,1,100,26.510
1572449450.543733,251738.000,43695,1,T0,1,100,26.477
1572449450.677759,251843.000,43712,1,T0,1,100,26.499
1572449450.809232,251946.000,43730,1,T0,1,100,26.494
1572449450.940705,252049.000,43748,1,T0,1,100,26.483
1572449451.073455,252153.000,43766,1,T0,1,100,26.488
1572449451.206204,252257.000,43784,1,T0,1,100,26.510
1572449451.338953,252361.000,43803,1,T0,1,100,26.510
1572449451.472979,252466.000,43838,1,T0,1,100,26.515
1572449451.607005,252571.000,43855,1,T0,1,100,26.483
1572449451.741031,252676.000,43873,1,T0,1,100,26.542
1572449451.872504,252779.000,43891,1,T0,1,100,26.461
1572449452.005253,252883.000,43909,1,T0,1,100,26.494
1572449452.139279,252988.000,43927,1,T0,1,100,26.467
1572449452.272028,253092.000,43946,1,T0,1,100,26.488
1572449452.404778,253196.000,43964,1,T0,1,100,26.451
1572449452.541357,253303.000,43982,1,T0,1,100,26.461
1572449452.675382,253408.000,44000,1,T0,1,100,26.499
1572449452.808770,253512.500,44021,2,T0,1,100,26.510
1572449452.942158,253617.000,44021,2,T0,1,100,26.483
1572449453.077460,253723.000,44040,1,T0,1,100,26.499
1572449453.208933,253826.000,44059,1,T0,1,100,26.520
1572449453.342959,253931.000,44078,1,T0,1,100,26.456
1572449453.478261,254037.000,44096,1,T0,1,100,26.504
1572449453.609734,254140.000,44114,1,T0,1,100,26.472
1572449453.743760,254245.000,44132,1,T0,1,100,26.472
1572449453.876509,254349.000,44149,1,T0,1,100,26.488
1572449454.007982,254452.000,44167,1,T0,1,100,26.494
1572449454.139455,254555.000,44185,1,T0,1,100,26.472
1572449454.272204,254659.000,44203,1,T0,1,100,26.499
1572449454.404954,254763.000,44222,1,T0,1,100,26.499
1572449454.538342,254867.500,44240,2,T0,1,100,26.488
1572449454.671729,254972.000,44240,2,T0,1,100,26.526
1572449454.805755,255077.000,44258,2,T0,1,100,26.531
1572449454.939781,255182.000,44258,2,T0,1,100,26.520
1572449455.071254,255285.000,44276,1,T0,1,100,26.477
1572449455.204003,255389.000,44294,1,T0,1,100,26.494
1572449455.338029,255494.000,44312,1,T0,1,100,26.488
1572449455.472055,255599.000,44331,1,T0,1,100,26.531
1572449455.604804,255703.000,44348,1,T0,1,100,26.504
1572449455.741383,255810.000,44366,1,T0,1,100,26.467
1572449455.876685,255916.000,44384,1,T0,1,100,26.494
1572449456.008158,256019.000,44402,1,T0,1,100,26.510
1572449456.142184,256124.000,44420,1,T0,1,100,26.499
1572449456.277486,256230.000,44454,1,T0,1,100,26.499
1572449456.408959,256333.000,44473,1,T0,1,100,26.488
1572449456.542985,256438.000,44491,1,T0,1,100,26.520
1572449456.678287,256544.000,44509,1,T0,1,100,26.499
1572449456.809760,256647.000,44527,1,T0,1,100,26.504
1572449456.942510,256751.000,44545,1,T0,1,100,26.510
1572449457.073983,256854.000,44563,1,T0,1,100,26.461
1572449457.205456,256957.000,44581,1,T0,1,100,26.472
1572449457.336929,257060.000,44600,1,T0,1,100,26.488
1572449457.469678,257164.000,44618,1,T0,1,100,26.510
1572449457.603704,257269.000,44636,1,T0,1,100,26.488
1572449457.736453,257373.000,44654,1,T0,1,100,26.499
1572449457.870479,257478.000,44672,1,T0,1,100,26.472
1572449458.001952,257581.000,44690,1,T0,1,100,26.494
1572449458.135978,257686.000,44708,1,T0,1,100,26.499
1572449458.267451,257789.000,44726,1,T0,1,100,26.472
1572449458.400200,257893.000,44745,1,T0,1,100,26.472
1572449458.534226,257998.000,44763,1,T0,1,100,26.515
1572449458.668252,258103.000,44781,1,T0,1,100,26.494
1572449458.801001,258207.000,44799,1,T0,1,100,26.488
1572449458.937580,258314.000,44817,1,T0,1,100,26.520
1572449459.070329,258418.000,44835,1,T0,1,100,26.488
1572449459.201802,258521.000,44853,1,T0,1,100,26.510
1572449459.335828,258626.000,44871,1,T0,1,100,26.488
1572449459.469216,258730.500,44893,2,T0,1,100,26.483
1572449459.602603,258835.000,44893,2,T0,1,100,26.520
1572449459.736629,258940.000,44912,1,T0,1,100,26.504
1572449459.871932,259046.000,44947,1,T0,1,100,26.499
1572449460.003405,259149.000,44965,1,T0,1,100,26.488
1572449460.136154,259253.000,44983,1,T0,1,100,26.542
1572449460.268903,259357.000,45001,1,T0,1,100,26.510
1572449460.400376,259460.000,45020,1,T0,1,100,26.494
1572449460.531849,259563.000,45038,1,T0,1,100,26.515
1572449460.665875,259668.000,45056,1,T0,1,100,26.477
1572449460.799901,259773.000,45074,1,T0,1,100,26.499
1572449460.932650,259877.000,45092,1,T0,1,100,26.510
1572449461.067953,259983.000,45110,1,T0,1,100,26.536
1572449461.199425,260086.000,45128,1,T0,1,100,26.477
1572449461.333451,260191.000,45146,1,T0,1,100,26.499
1572449461.464924,260294.000,45165,1,T0,1,100,26.531
1572449461.597674,260398.000,45183,1,T0,1,100,26.499
1572449461.732976,260504.000,45201,1,T0,1,100,26.510
1572449461.867002,260609.000,45219,1,T0,1,100,26.477
1572449461.999751,260713.000,45237,1,T0,1,100,26.504
1572449462.135054,260819.000,45255,1,T0,1,100,26.494
1572449462.270356,260925.000,45273,1,T0,1,100,26.488
1572449462.401829,261028.000,45291,1,T0,1,100,26.531
1572449462.535855,261133.000,45310,1,T0,1,100,26.520
1572449462.671157,261239.000,45328,1,T0,1,100,26.494
1572449462.802630,261342.000,45346,1,T0,1,100,26.494
1572449462.936656,261447.000,45363,1,T0,1,100,26.494
1572449463.071958,261553.000,45381,1,T0,1,100,26.504
1572449463.203431,261656.000,45399,1,T0,1,100,26.526
1572449463.334904,261759.000,45417,1,T0,1,100,26.536
1572449463.467653,261863.000,45435,1,T0,1,100,26.477
1572449463.599126,261966.000,45454,1,T0,1,100,26.520
1572449463.731876,262070.000,45472,1,T0,1,100,26.477
1572449463.865901,262175.000,45506,1,T0,1,100,26.494
1572449463.999927,262280.000,45524,1,T0,1,100,26.510
1572449464.132677,262384.000,45542,1,T0,1,100,26.526
1572449464.265426,262488.000,45560,1,T0,1,100,26.494
1572449464.398175,262592.000,45578,1,T0,1,100,26.531
1572449464.532201,262697.000,45597,1,T0,1,100,26.526
1572449464.663674,262800.000,45615,1,T0,1,100,26.510
1572449464.796424,262904.000,45633,1,T0,1,100,26.483
1572449464.933002,263011.000,45651,1,T0,1,100,26.510
1572449465.067028,263116.000,45669,1,T0,1,100,26.542
1572449465.199778,263220.000,45687,1,T0,1,100,26.515
1572449465.333803,263325.000,45705,1,T0,1,100,26.526
1572449465.469106,263431.000,45723,1,T0,1,100,26.520
1572449465.600579,263534.000,45742,1,T0,1,100,26.499
1572449465.734605,263639.000,45760,1,T0,1,100,26.494
1572449465.869907,263745.000,45778,1,T0,1,100,26.520
1572449466.002656,263849.000,45799,2,T0,1,100,26.510
1572449466.135406,263953.000,45799,2,T0,1,100,26.520
1572449466.270708,264059.000,45818,1,T0,1,100,26.531
1572449466.402181,264162.000,45837,1,T0,1,100,26.520
1572449466.533654,264265.000,45873,1,T0,1,100,26.520
1572449466.666403,264369.000,45890,1,T0,1,100,26.515
1572449466.797876,264472.000,45908,1,T0,1,100,26.504
1572449466.930626,264576.000,45926,1,T0,1,100,26.536
1572449467.064651,264681.000,45944,1,T0,1,100,26.510
1572449467.198677,264786.000,45962,1,T0,1,100,26.510
1572449467.333980,264892.000,45980,1,T0,1,100,26.531
1572449467.465452,264995.000,45998,1,T0,1,100,26.563
1572449467.598202,265099.000,46017,1,T0,1,100,26.520
1572449467.732228,265204.000,46035,1,T0,1,100,26.499
1572449467.864977,265308.000,46053,1,T0,1,100,26.510
1572449467.997726,265412.000,46071,1,T0,1,100,26.504
1572449468.134305,265519.000,46089,1,T0,1,100,26.531
1572449468.268331,265624.000,46107,1,T0,1,100,26.520
1572449468.402357,265729.000,46125,1,T0,1,100,26.515
1572449468.536383,265834.000,46143,1,T0,1,100,26.515
1572449468.671685,265940.000,46162,1,T0,1,100,26.536
1572449468.803158,266043.000,46180,1,T0,1,100,26.520
1572449468.937184,266148.000,46198,1,T0,1,100,26.499
1572449469.072486,266254.000,46216,1,T0,1,100,26.558
1572449469.203959,266357.000,46234,1,T0,1,100,26.563
1572449469.337985,266462.000,46252,1,T0,1,100,26.531
1572449469.470734,266566.000,46270,1,T0,1,100,26.526
1572449469.602207,266669.000,46287,1,T0,1,100,26.472
1572449469.733680,266772.000,46306,1,T0,1,100,26.526
1572449469.866430,266876.000,46324,1,T0,1,100,26.563
1572449469.999179,266980.000,46342,1,T0,1,100,26.526
1572449470.131928,267084.000,46360,1,T0,1,100,26.515
1572449470.265954,267189.000,46378,1,T0,1,100,26.542
1572449470.399980,267294.000,46396,1,T0,1,100,26.558
1572449470.534006,267399.000,46431,1,T0,1,100,26.553
1572449470.665479,267502.000,46449,1,T0,1,100,26.542
1572449470.798228,267606.000,46467,1,T0,1,100,26.504
1572449470.932254,267711.000,46485,1,T0,1,100,26.526
1572449471.066280,267816.000,46503,1,T0,1,100,26.504
1572449471.199029,267920.000,46521,1,T0,1,100,26.531
1572449471.335608,268027.000,46539,1,T0,1,100,26.558
1572449471.469634,268132.000,46557,1,T0,1,100,26.526
1572449471.599830,268234.000,46576,1,T0,1,100,26.531
1572449471.733856,268339.000,46594,1,T0,1,100,26.547
1572449471.869159,268445.000,46612,1,T0,1,100,26.531
1572449472.000632,268548.000,46630,1,T0,1,100,26.563
1572449472.134657,268653.000,46648,1,T0,1,100,26.563
1572449472.269960,268759.000,46666,1,T0,1,100,26.542
1572449472.401433,268862.000,46684,1,T0,1,100,26.595
1572449472.534182,268966.000,46705,2,T0,1,100,26.515
1572449472.666931,269070.000,46705,2,T0,1,100,26.526
1572449472.798404,269173.000,46725,1,T0,1,100,26.547
1572449472.929877,269276.000,46744,1,T0,1,100,26.526
1572449473.062627,269380.000,46761,1,T0,1,100,26.547
1572449473.196653,269485.000,46779,1,T0,1,100,26.526
1572449473.329402,269589.000,46797,1,T0,1,100,26.531
1572449473.463428,269694.000,46815,1,T0,1,100,26.499
1572449473.596177,269798.000,46833,1,T0,1,100,26.526
1572449473.730203,269903.000,46852,1,T0,1,100,26.536
1572449473.861676,270006.000,46870,1,T0,1,100,26.547
1572449473.994425,270110.000,46905,1,T0,1,100,26.542
1572449474.128451,270215.000,46922,1,T0,1,100,26.542
1572449474.262477,270320.000,46940,1,T0,1,100,26.536
1572449474.395226,270424.000,46958,1,T0,1,100,26.547
1572449474.531805,270531.000,46976,1,T0,1,100,26.531
1572449474.665831,270636.000,46995,1,T0,1,100,26.526
1572449474.797304,270739.000,47013,1,T0,1,100,26.563
1572449474.931330,270844.000,47031,1,T0,1,100,26.499
1572449475.066632,270950.000,47049,1,T0,1,100,26.547
1572449475.198105,271053.000,47067,1,T0,1,100,26.563
1572449475.332131,271158.000,47085,1,T0,1,100,26.510
1572449475.467433,271264.000,47103,1,T0,1,100,26.520
1572449475.598906,271367.000,47121,1,T0,1,100,26.536
1572449475.731656,271471.000,47140,1,T0,1,100,26.515
1572449475.864405,271575.000,47158,1,T0,1,100,26.526
1572449475.995878,271678.000,47176,1,T0,1,100,26.526
1572449476.127351,271781.000,47194,1,T0,1,100,26.531
1572449476.261377,271886.000,47212,1,T0,1,100,26.520
1572449476.395402,271991.000,47230,1,T0,1,100,26.520
1572449476.528152,272095.000,47248,1,T0,1,100,26.520
1572449476.662178,272200.000,47266,1,T0,1,100,26.536
1572449476.793651,272303.000,47285,1,T0,1,100,26.563
1572449476.927676,272408.000,47303,1,T0,1,100,26.531
1572449477.059150,272511.000,47320,1,T0,1,100,26.515
1572449477.191899,272615.000,47338,1,T0,1,100,26.536
1572449477.325925,272720.000,47356,1,T0,1,100,26.547
1572449477.459951,272825.000,47374,1,T0,1,100,26.536
1572449477.592700,272929.000,47392,1,T0,1,100,26.531
1572449477.728002,273035.000,47410,1,T0,1,100,26.542
1572449477.863305,273141.000,47445,1,T0,1,100,26.542
1572449477.994777,273244.000,47463,1,T0,1,100,26.494
1572449478.128803,273349.000,47481,1,T0,1,100,26.536
1572449478.264106,273455.000,47499,1,T0,1,100,26.536
1572449478.395579,273558.000,47517,1,T0,1,100,26.536
1572449478.529604,273663.000,47535,1,T0,1,100,26.558
1572449478.664907,273769.000,47553,1,T0,1,100,26.526
1572449478.797656,273873.000,47572,1,T0,1,100,26.504
1572449478.929129,273976.000,47590,1,T0,1,100,26.515
1572449479.061240,274079.500,47611,2,T0,1,100,26.499
1572449479.193351,274183.000,47611,2,T0,1,100,26.547
1572449479.326101,274287.000,47630,1,T0,1,100,26.510
1572449479.460127,274392.000,47649,1,T0,1,100,26.542
1572449479.594152,274497.000,47667,1,T0,1,100,26.553
1572449479.726902,274601.000,47685,1,T0,1,100,26.574
1572449479.860928,274706.000,47704,1,T0,1,100,26.553
1572449479.992401,274809.000,47722,1,T0,1,100,26.526
1572449480.126426,274914.000,47740,1,T0,1,100,26.547
1572449480.257900,275017.000,47758,1,T0,1,100,26.563
1572449480.390649,275121.000,47776,1,T0,1,100,26.558
1572449480.527228,275228.000,47793,1,T0,1,100,26.531
1572449480.661253,275333.000,47811,1,T0,1,100,26.536
1572449480.794003,275437.000,47830,1,T0,1,100,26.542
1572449480.929305,275543.000,47848,1,T0,1,100,26.547
1572449481.063331,275648.000,47866,1,T0,1,100,26.558
1572449481.193527,275750.000,47884,1,T0,1,100,26.542
1572449481.327553,275855.000,47918,1,T0,1,100,26.558
1572449481.461579,275960.000,47936,1,T0,1,100,26.520
1572449481.594328,276064.000,47954,1,T0,1,100,26.569
1572449481.728354,276169.000,47973,1,T0,1,100,26.520
1572449481.864933,276276.000,47991,1,T0,1,100,26.574
1572449481.995130,276378.000,48009,1,T0,1,100,26.520
1572449482.126603,276481.000,48027,1,T0,1,100,26.531
1572449482.259352,276585.000,48045,1,T0,1,100,26.547
1572449482.390825,276688.000,48063,1,T0,1,100,26.510
1572449482.523574,276792.000,48081,1,T0,1,100,26.542
1572449482.657600,276897.000,48099,1,T0,1,100,26.536
1572449482.791626,277002.000,48118,1,T0,1,100,26.563
1572449482.924375,277106.000,48136,1,T0,1,100,26.558
1572449483.055848,277209.000,48154,1,T0,1,100,26.547
1572449483.188598,277313.000,48172,1,T0,1,100,26.542
1572449483.322623,277418.000,48190,1,T0,1,100,26.499
1572449483.455373,277522.000,48208,1,T0,1,100,26.569
1572449483.588122,277626.000,48226,1,T0,1,100,26.569
1572449483.724701,277733.000,48244,1,T0,1,100,26.558
1572449483.858727,277838.000,48263,1,T0,1,100,26.574
1572449483.991476,277942.000,48281,1,T0,1,100,26.536
1572449484.125502,278047.000,48299,1,T0,1,100,26.579
1572449484.259528,278152.000,48317,1,T0,1,100,26.563
1572449484.389724,278254.000,48334,1,T0,1,100,26.504
1572449484.523750,278359.000,48352,1,T0,1,100,26.574
1572449484.659053,278465.000,48370,1,T0,1,100,26.563
1572449484.791802,278569.000,48388,1,T0,1,100,26.553
1572449484.925828,278674.000,48407,1,T0,1,100,26.558
1572449485.061130,278780.000,48425,1,T0,1,100,26.558
1572449485.192603,278883.000,48443,1,T0,1,100,26.574
1572449485.324076,278986.000,48477,1,T0,1,100,26.579
1572449485.456825,279090.000,48495,1,T0,1,100,26.536
1572449485.589575,279194.000,48516,2,T0,1,100,26.515
1572449485.722324,279298.000,48516,2,T0,1,100,26.563
1572449485.856350,279403.000,48536,1,T0,1,100,26.553
1572449485.990376,279508.000,48555,1,T0,1,100,26.574
1572449486.124402,279613.000,48573,1,T0,1,100,26.563
1572449486.255875,279716.000,48591,1,T0,1,100,26.585
1572449486.388624,279820.000,48609,1,T0,1,100,26.563
1572449486.522650,279925.000,48627,1,T0,1,100,26.574
1572449486.656676,280030.000,48645,1,T0,1,100,26.553
1572449486.789425,280134.000,48663,1,T0,1,100,26.601
1572449486.926004,280241.000,48682,1,T0,1,100,26.569
1572449487.060030,280346.000,48700,1,T0,1,100,26.553
1572449487.191503,280449.000,48718,1,T0,1,100,26.569
1572449487.325529,280554.000,48736,1,T0,1,100,26.536
1572449487.459554,280659.000,48754,1,T0,1,100,26.569
1572449487.589751,280761.000,48772,1,T0,1,100,26.579
1572449487.723777,280866.000,48790,1,T0,1,100,26.542
1572449487.860355,280973.000,48808,1,T0,1,100,26.563
1572449487.993105,281077.000,48826,1,T0,1,100,26.579
1572449488.127131,281182.000,48844,1,T0,1,100,26.569
1572449488.259880,281286.000,48862,1,T0,1,100,26.569
1572449488.391353,281389.000,48880,1,T0,1,100,26.601
1572449488.522826,281492.000,48898,1,T0,1,100,26.569
1572449488.655576,281596.000,48916,1,T0,1,100,26.542
1572449488.789601,281701.000,48934,1,T0,1,100,26.606
1572449488.922351,281805.000,48969,1,T0,1,100,26.574
1572449489.056376,281910.000,48987,1,T0,1,100,26.585
1572449489.189126,282014.000,49005,1,T0,1,100,26.569
1572449489.323152,282119.000,49023,1,T0,1,100,26.542
1572449489.454625,282222.000,49041,1,T0,1,100,26.590
1572449489.587374,282326.000,49059,1,T0,1,100,26.547
1572449489.721400,282431.000,49077,1,T0,1,100,26.553
1572449489.855426,282536.000,49095,1,T0,1,100,26.569
1572449489.988175,282640.000,49114,1,T0,1,100,26.547
1572449490.124754,282747.000,49132,1,T0,1,100,26.595
1572449490.258780,282852.000,49150,1,T0,1,100,26.574
1572449490.388976,282954.000,49168,1,T0,1,100,26.536
1572449490.523002,283059.000,49186,1,T0,1,100,26.606
1572449490.657028,283164.000,49204,1,T0,1,100,26.563
1572449490.788501,283267.000,49222,1,T0,1,100,26.542
1572449490.922527,283372.000,49241,1,T0,1,100,26.574
1572449491.059105,283479.000,49259,1,T0,1,100,26.569
1572449491.191855,283583.000,49277,1,T0,1,100,26.553
1572449491.325881,283688.000,49295,1,T0,1,100,26.601
1572449491.458630,283792.000,49313,1,T0,1,100,26.601
1572449491.590103,283895.000,49331,1,T0,1,100,26.563
1572449491.721576,283998.000,49349,1,T0,1,100,26.563
1572449491.854325,284102.000,49367,1,T0,1,100,26.558
1572449491.987075,284206.000,49385,1,T0,1,100,26.585
1572449492.119824,284310.000,49403,1,T0,1,100,26.590
1572449492.253850,284415.000,49424,1,T0,1,100,26.585
1572449492.386599,284519.000,49443,1,T0,1,100,26.574
1572449492.520625,284624.000,49462,1,T0,1,100,26.563
1572449492.652098,284727.000,49480,1,T0,1,100,26.553
1572449492.784848,284831.000,49498,1,T0,1,100,26.531
1572449492.918874,284936.000,49517,1,T0,1,100,26.569
1572449493.052899,285041.000,49535,1,T0,1,100,26.558
1572449493.185649,285145.000,49553,1,T0,1,100,26.558
1572449493.322227,285252.000,49571,1,T0,1,100,26.595
1572449493.456253,285357.000,49589,1,T0,1,100,26.579
1572449493.586450,285459.000,49607,1,T0,1,100,26.542
1572449493.720476,285564.000,49625,1,T0,1,100,26.547
1572449493.854501,285669.000,49643,1,T0,1,100,26.558
1572449493.985974,285772.000,49662,1,T0,1,100,26.574
1572449494.120000,285877.000,49680,1,T0,1,100,26.579
1572449494.256579,285984.000,49698,1,T0,1,100,26.579
1572449494.389328,286088.000,49716,1,T0,1,100,26.569
1572449494.520801,286191.000,49734,1,T0,1,100,26.536
1572449494.653551,286295.000,49752,1,T0,1,100,26.579
1572449494.785024,286398.000,49770,1,T0,1,100,26.536
1572449494.917773,286502.000,49788,1,T0,1,100,26.590
1572449495.051799,286607.000,49807,1,T0,1,100,26.569
1572449495.185825,286712.000,49825,1,T0,1,100,26.553
1572449495.318574,286816.000,49842,1,T0,1,100,26.563
1572449495.451324,286920.000,49860,1,T0,1,100,26.563
1572449495.582797,287023.000,49878,1,T0,1,100,26.553
1572449495.716822,287128.000,49896,1,T0,1,100,26.569
1572449495.848295,287231.000,49914,1,T0,1,100,26.585
1572449495.981045,287335.000,49932,1,T0,1,100,26.542
1572449496.116347,287441.000,49951,1,T0,1,100,26.563
1572449496.250373,287546.000,49969,1,T0,1,100,26.579
1572449496.383122,287650.000,50003,1,T0,1,100,26.590
1572449496.517148,287755.000,50021,1,T0,1,100,26.547
1572449496.651174,287860.000,50039,1,T0,1,100,26.558
1572449496.781370,287962.000,50057,1,T0,1,100,26.579
1572449496.915396,288067.000,50075,1,T0,1,100,26.542
1572449497.049422,288172.000,50094,1,T0,1,100,26.585
1572449497.182172,288276.000,50112,1,T0,1,100,26.563
1572449497.316197,288381.000,50130,1,T0,1,100,26.563
1572449497.452776,288488.000,50148,1,T0,1,100,26.579
1572449497.584249,288591.000,50166,1,T0,1,100,26.628
1572449497.715722,288694.000,50184,1,T0,1,100,26.574
1572449497.848471,288798.000,50202,1,T0,1,100,26.569
1572449497.979944,288901.000,50220,1,T0,1,100,26.558
1572449498.112694,289005.000,50239,1,T0,1,100,26.601
1572449498.246720,289110.000,50257,1,T0,1,100,26.569
1572449498.380745,289215.000,50275,1,T0,1,100,26.574
1572449498.513495,289319.000,50293,1,T0,1,100,26.585
1572449498.646244,289423.000,50311,1,T0,1,100,26.542
1572449498.779632,289527.500,50332,2,T0,1,100,26.574
1572449498.913019,289632.000,50332,2,T0,1,100,26.574
1572449499.045769,289736.000,50351,1,T0,1,100,26.563
1572449499.178518,289840.000,50371,1,T0,1,100,26.585
1572449499.315097,289947.000,50389,1,T0,1,100,26.563
1572449499.449123,290052.000,50423,1,T0,1,100,26.569
1572449499.583149,290157.000,50441,1,T0,1,100,26.606
1572449499.717175,290262.000,50459,1,T0,1,100,26.558
1572449499.851200,290367.000,50477,1,T0,1,100,26.563
1572449499.981397,290469.000,50495,1,T0,1,100,26.558
1572449500.115423,290574.000,50514,1,T0,1,100,26.536
1572449500.250725,290680.000,50532,1,T0,1,100,26.569
1572449500.383474,290784.000,50550,1,T0,1,100,26.595
1572449500.517500,290889.000,50568,1,T0,1,100,26.595
1572449500.652802,290995.000,50586,1,T0,1,100,26.585
1572449500.784275,291098.000,50604,1,T0,1,100,26.536
1572449500.915748,291201.000,50622,1,T0,1,100,26.510
1572449501.048498,291305.000,50640,1,T0,1,100,26.553
1572449501.179971,291408.000,50659,1,T0,1,100,26.579
1572449501.312720,291512.000,50677,1,T0,1,100,26.595
1572449501.446746,291617.000,50695,1,T0,1,100,26.563
1572449501.580772,291722.000,50713,1,T0,1,100,26.542
1572449501.714798,291827.000,50731,1,T0,1,100,26.574
1572449501.846271,291930.000,50749,1,T0,1,100,26.563
1572449501.979020,292034.000,50767,1,T0,1,100,26.542
1572449502.113046,292139.000,50786,1,T0,1,100,26.547
1572449502.247072,292244.000,50804,1,T0,1,100,26.553
1572449502.379821,292348.000,50822,1,T0,1,100,26.553
1572449502.516400,292455.000,50839,1,T0,1,100,26.595
1572449502.650426,292560.000,50857,1,T0,1,100,26.563
1572449502.781898,292663.000,50875,1,T0,1,100,26.579
1572449502.915924,292768.000,50893,1,T0,1,100,26.569
1572449503.049950,292873.000,50911,1,T0,1,100,26.536
1572449503.180147,292975.000,50930,1,T0,1,100,26.579
1572449503.314173,293080.000,50964,1,T0,1,100,26.595
1572449503.450751,293187.000,50982,1,T0,1,100,26.520
1572449503.583501,293291.000,51000,1,T0,1,100,26.542
1572449503.717526,293396.000,51018,1,T0,1,100,26.553
1572449503.851552,293501.000,51036,1,T0,1,100,26.542
1572449503.983025,293604.000,51054,1,T0,1,100,26.558
1572449504.114498,293707.000,51073,1,T0,1,100,26.553
1572449504.247248,293811.000,51091,1,T0,1,100,26.542
1572449504.379997,293915.000,51109,1,T0,1,100,26.590
1572449504.512747,294019.000,51127,1,T0,1,100,26.563
1572449504.646772,294124.000,51145,1,T0,1,100,26.536
1572449504.780798,294229.000,51163,1,T0,1,100,26.542
1572449504.914824,294334.000,51181,1,T0,1,100,26.563
1572449505.046297,294437.000,51199,1,T0,1,100,26.542
1572449505.179046,294541.000,51218,1,T0,1,100,26.595
1572449505.313072,294646.000,51239,2,T0,1,100,26.553
1572449505.447098,294751.000,51239,2,T0,1,100,26.547
1572449505.579848,294855.000,51258,1,T0,1,100,26.553
1572449505.716426,294962.000,51277,1,T0,1,100,26.553
1572449505.851728,295068.000,51295,1,T0,1,100,26.531
1572449505.981925,295170.000,51313,1,T0,1,100,26.547
1572449506.115951,295275.000,51331,1,T0,1,100,26.563
1572449506.249977,295380.000,51350,1,T0,1,100,26.574
1572449506.381450,295483.000,51368,1,T0,1,100,26.579
1572449506.515476,295588.000,51402,1,T0,1,100,26.574
1572449506.652054,295695.000,51420,1,T0,1,100,26.542
1572449506.784804,295799.000,51438,1,T0,1,100,26.563
1572449506.917553,295903.000,51456,1,T0,1,100,26.569
1572449507.050302,296007.000,51474,1,T0,1,100,26.547
1572449507.181775,296110.000,51493,1,T0,1,100,26.553
1572449507.313248,296213.000,51511,1,T0,1,100,26.542
1572449507.445998,296317.000,51529,1,T0,1,100,26.579
1572449507.580024,296422.000,51547,1,T0,1,100,26.526
1572449507.712773,296526.000,51565,1,T0,1,100,26.585
1572449507.846799,296631.000,51583,1,T0,1,100,26.547
1572449507.978272,296734.000,51601,1,T0,1,100,26.558
1572449508.112298,296839.000,51619,1,T0,1,100,26.558
1572449508.243771,296942.000,51638,1,T0,1,100,26.547
1572449508.376520,297046.000,51656,1,T0,1,100,26.510
1572449508.510546,297151.000,51674,1,T0,1,100,26.553
1572449508.644572,297256.000,51692,1,T0,1,100,26.531
1572449508.777321,297360.000,51710,1,T0,1,100,26.569
1572449508.913900,297467.000,51728,1,T0,1,100,26.531
1572449509.046649,297571.000,51746,1,T0,1,100,26.520
1572449509.176846,297673.000,51764,1,T0,1,100,26.585
1572449509.310871,297778.000,51783,1,T0,1,100,26.536
1572449509.444897,297883.000,51801,1,T0,1,100,26.563
1572449509.577647,297987.000,51818,1,T0,1,100,26.542
1572449509.711673,298092.000,51836,1,T0,1,100,26.536
1572449509.848251,298199.000,51854,1,T0,1,100,26.574
1572449509.981001,298303.000,51872,1,T0,1,100,26.579
1572449510.113750,298407.000,51890,1,T0,1,100,26.520
1572449510.246500,298511.000,51908,1,T0,1,100,26.595
1572449510.377972,298614.000,51927,1,T0,1,100,26.590
1572449510.509445,298717.000,51961,1,T0,1,100,26.569
1572449510.643471,298822.000,51979,1,T0,1,100,26.585
1572449510.777497,298927.000,51997,1,T0,1,100,26.536
1572449510.910246,299031.000,52015,1,T0,1,100,26.553
1572449511.044272,299136.000,52033,1,T0,1,100,26.515
1572449511.175745,299239.000,52051,1,T0,1,100,26.569
1572449511.308495,299343.000,52070,1,T0,1,100,26.553
1572449511.439968,299446.000,52088,1,T0,1,100,26.547
1572449511.572717,299550.000,52106,1,T0,1,100,26.563
1572449511.708019,299656.000,52124,1,T0,1,100,26.585
1572449511.841407,299760.500,52145,2,T0,1,100,26.612
1572449511.974794,299865.000,52145,2,T0,1,100,26.569
1572449512.110097,299971.000,52164,1,T0,1,100,26.563
1572449512.244123,300076.000,52183,1,T0,1,100,26.547
1572449512.374319,300178.000,52202,1,T0,1,100,26.595
1572449512.508345,300283.000,52220,1,T0,1,100,26.558
1572449512.642371,300388.000,52238,1,T0,1,100,26.553
1572449512.775120,300492.000,52256,1,T0,1,100,26.558
1572449512.909146,300597.000,52273,1,T0,1,100,26.553
1572449513.045725,300704.000,52291,1,T0,1,100,26.520
1572449513.177198,300807.000,52309,1,T0,1,100,26.547
1572449513.308671,300910.000,52327,1,T0,1,100,26.563
1572449513.441420,301014.000,52346,1,T0,1,100,26.526
1572449513.572893,301117.000,52364,1,T0,1,100,26.574
1572449513.705642,301221.000,52382,1,T0,1,100,26.585
1572449513.839668,301326.000,52416,1,T0,1,100,26.553
1572449513.973694,301431.000,52434,1,T0,1,100,26.515
1572449514.106443,301535.000,52452,1,T0,1,100,26.574
1572449514.239193,301639.000,52471,1,T0,1,100,26.536
1572449514.370666,301742.000,52489,1,T0,1,100,26.563
1572449514.504692,301847.000,52507,1,T0,1,100,26.558
1572449514.636165,301950.000,52525,1,T0,1,100,26.536
1572449514.768914,302054.000,52543,1,T0,1,100,26.547
1572449514.905493,302161.000,52561,1,T0,1,100,26.553
1572449515.039519,302266.000,52579,1,T0,1,100,26.547
1572449515.172268,302370.000,52597,1,T0,1,100,26.520
1572449515.306294,302475.000,52616,1,T0,1,100,26.515
1572449515.440320,302580.000,52634,1,T0,1,100,26.558
1572449515.570516,302682.000,52652,1,T0,1,100,26.526
1572449515.704542,302787.000,52670,1,T0,1,100,26.531
1572449515.838568,302892.000,52688,1,T0,1,100,26.520
1572449515.971317,302996.000,52706,1,T0,1,100,26.547
1572449516.105343,303101.000,52724,1,T0,1,100,26.531
1572449516.241922,303208.000,52742,1,T0,1,100,26.515
1572449516.373395,303311.000,52761,1,T0,1,100,26.563
1572449516.504868,303414.000,52779,1,T0,1,100,26.553
1572449516.637617,303518.000,52797,1,T0,1,100,26.536
1572449516.769090,303621.000,52815,1,T0,1,100,26.563
1572449516.901839,303725.000,52833,1,T0,1,100,26.553
1572449517.035865,303830.000,52850,1,T0,1,100,26.547
1572449517.169891,303935.000,52868,1,T0,1,100,26.563
1572449517.303917,304040.000,52886,1,T0,1,100,26.563
1572449517.435390,304143.000,52905,1,T0,1,100,26.547
1572449517.568139,304247.000,52923,1,T0,1,100,26.542
1572449517.702165,304352.000,52941,1,T0,1,100,26.547
1572449517.836191,304457.000,52975,1,T0,1,100,26.526
1572449517.968940,304561.000,52993,1,T0,1,100,26.499
1572449518.105519,304668.000,53011,1,T0,1,100,26.574
1572449518.239545,304773.000,53029,1,T0,1,100,26.504
1572449518.372933,304877.500,53051,2,T0,1,100,26.520
1572449518.506320,304982.000,53051,2,T0,1,100,26.526
1572449518.640346,305087.000,53070,1,T0,1,100,26.477
1572449518.770543,305189.000,53089,1,T0,1,100,26.542
1572449518.904568,305294.000,53107,1,T0,1,100,26.536
1572449519.041147,305401.000,53125,1,T0,1,100,26.542
1572449519.173897,305505.000,53143,1,T0,1,100,26.547
1572449519.307922,305610.000,53161,1,T0,1,100,26.531
1572449519.441948,305715.000,53180,1,T0,1,100,26.526
