EpochTimestamp,EmotiBitTimestamp,PacketNumber,DataLength,TypeTag,ProtocolVersion,DataReliability,AY
1576518600.298524,33672.000,5353,9,AY,1,100,0.900
1576518600.298524,33672.000,5353,9,AY,1,100,0.879
1576518600.298524,33672.000,5353,9,AY,1,100,0.857
1576518600.298524,33672.000,5353,9,AY,1,100,0.871
1576518600.298524,33672.000,5353,9,AY,1,100,0.858
1576518600.298524,33672.000,5353,9,AY,1,100,0.870
1576518600.298524,33672.000,5353,9,AY,1,100,0.853
1576518600.298524,33672.000,5353,9,AY,1,100,0.889
1576518600.298524,33672.000,5353,9,AY,1,100,0.853
1576518600.336968,33704.333,5371,3,AY,1,100,0.828
1576518600.375412,33736.667,5371,3,AY,1,100,0.869
1576518600.413856,33769.000,5371,3,AY,1,100,0.886
1576518600.460820,33808.500,5388,2,AY,1,100,0.873
1576518600.507785,33848.000,5388,2,AY,1,100,0.875
1576518600.546625,33880.667,5406,3,AY,1,100,0.852
1576518600.585465,33913.333,5406,3,AY,1,100,0.852
1576518600.624305,33946.000,5406,3,AY,1,100,0.879
1576518600.662353,33978.000,5424,3,AY,1,100,0.872
1576518600.700400,34010.000,5424,3,AY,1,100,0.875
1576518600.738448,34042.000,5424,3,AY,1,100,0.842
1576518600.778080,34075.333,5440,3,AY,1,100,0.852
1576518600.817713,34108.667,5440,3,AY,1,100,0.868
1576518600.857346,34142.000,5440,3,AY,1,100,0.855
1576518600.898564,34176.667,5458,3,AY,1,100,0.848
1576518600.939782,34211.333,5458,3,AY,1,100,0.875
1576518600.981000,34246.000,5458,3,AY,1,100,0.858
1576518601.022218,34280.667,5477,3,AY,1,100,0.859
1576518601.063436,34315.333,5477,3,AY,1,100,0.857
1576518601.104654,34350.000,5477,3,AY,1,100,0.857
1576518601.144287,34383.333,5495,3,AY,1,100,0.867
1576518601.183919,34416.667,5495,3,AY,1,100,0.856
1576518601.223552,34450.000,5495,3,AY,1,100,0.861
1576518601.264374,34484.333,5513,3,AY,1,100,0.861
1576518601.305196,34518.667,5513,3,AY,1,100,0.837
1576518601.346017,34553.000,5513,3,AY,1,100,0.870
1576518601.384857,34585.667,5531,3,AY,1,100,0.854
1576518601.423697,34618.333,5531,3,AY,1,100,0.857
1576518601.462538,34651.000,5531,3,AY,1,100,0.863
1576518601.504152,34686.000,5549,3,AY,1,100,0.856
1576518601.545766,34721.000,5549,3,AY,1,100,0.857
1576518601.587381,34756.000,5549,3,AY,1,100,0.852
1576518601.627013,34789.333,5567,3,AY,1,100,0.856
1576518601.666646,34822.667,5567,3,AY,1,100,0.860
1576518601.706279,34856.000,5567,3,AY,1,100,0.862
1576518601.747893,34891.000,5584,3,AY,1,100,0.854
1576518601.789507,34926.000,5584,3,AY,1,100,0.853
1576518601.831122,34961.000,5584,3,AY,1,100,0.852
1576518601.871943,34995.333,5602,3,AY,1,100,0.864
1576518601.912765,35029.667,5602,3,AY,1,100,0.867
1576518601.953587,35064.000,5602,3,AY,1,100,0.847
1576518601.992427,35096.667,5618,3,AY,1,100,0.854
1576518602.031267,35129.333,5618,3,AY,1,100,0.851
1576518602.070107,35162.000,5618,3,AY,1,100,0.848
1576518602.108155,35194.000,5637,3,AY,1,100,0.838
1576518602.146202,35226.000,5637,3,AY,1,100,0.872
1576518602.184249,35258.000,5637,3,AY,1,100,0.855
1576518602.227449,35294.333,5655,3,AY,1,100,0.848
1576518602.270649,35330.667,5655,3,AY,1,100,0.843
1576518602.313848,35367.000,5655,3,AY,1,100,0.868
1576518602.355463,35402.000,5673,3,AY,1,100,0.864
1576518602.397077,35437.000,5673,3,AY,1,100,0.851
1576518602.438692,35472.000,5673,3,AY,1,100,0.853
1576518602.480306,35507.000,5691,3,AY,1,100,0.841
1576518602.521920,35542.000,5691,3,AY,1,100,0.852
1576518602.563535,35577.000,5691,3,AY,1,100,0.860
1576518602.602771,35610.000,5709,3,AY,1,100,0.850
1576518602.642007,35643.000,5709,3,AY,1,100,0.853
1576518602.681244,35676.000,5709,3,AY,1,100,0.852
1576518602.719291,35708.000,5727,3,AY,1,100,0.854
1576518602.757339,35740.000,5727,3,AY,1,100,0.858
1576518602.795386,35772.000,5727,3,AY,1,100,0.850
1576518602.834623,35805.000,5745,3,AY,1,100,0.852
1576518602.873859,35838.000,5745,3,AY,1,100,0.851
1576518602.913095,35871.000,5745,3,AY,1,100,0.855
1576518602.954710,35906.000,5762,3,AY,1,100,0.852
1576518602.996324,35941.000,5762,3,AY,1,100,0.852
1576518603.037938,35976.000,5762,3,AY,1,100,0.848
1576518603.082723,36013.667,5781,3,AY,1,100,0.858
1576518603.127508,36051.333,5781,3,AY,1,100,0.853
1576518603.172293,36089.000,5781,3,AY,1,100,0.853
1576518603.211530,36122.000,5797,3,AY,1,100,0.853
1576518603.250766,36155.000,5797,3,AY,1,100,0.852
1576518603.290003,36188.000,5797,3,AY,1,100,0.851
1576518603.326861,36219.000,5815,3,AY,1,100,0.859
1576518603.363719,36250.000,5815,3,AY,1,100,0.848
1576518603.400578,36281.000,5815,3,AY,1,100,0.851
1576518603.441400,36315.333,5833,3,AY,1,100,0.851
1576518603.482221,36349.667,5833,3,AY,1,100,0.859
1576518603.523043,36384.000,5833,3,AY,1,100,0.847
1576518603.563468,36418.000,5851,3,AY,1,100,0.852
1576518603.603894,36452.000,5851,3,AY,1,100,0.850
1576518603.644319,36486.000,5851,3,AY,1,100,0.853
1576518603.685141,36520.333,5869,3,AY,1,100,0.852
1576518603.725963,36554.667,5869,3,AY,1,100,0.857
1576518603.766784,36589.000,5869,3,AY,1,100,0.853
1576518603.808993,36624.500,5887,2,AY,1,100,0.853
1576518603.851202,36660.000,5887,2,AY,1,100,0.852
1576518603.892519,36694.750,5905,4,AY,1,100,0.857
1576518603.933836,36729.500,5905,4,AY,1,100,0.858
1576518603.975153,36764.250,5905,4,AY,1,100,0.888
1576518604.016470,36799.000,5905,4,AY,1,100,0.873
1576518604.056301,36832.500,5923,2,AY,1,100,0.938
1576518604.096132,36866.000,5923,2,AY,1,100,0.906
1576518604.136954,36900.333,5941,3,AY,1,100,0.842
1576518604.177776,36934.667,5941,3,AY,1,100,0.837
1576518604.218597,36969.000,5941,3,AY,1,100,0.832
1576518604.257239,37001.500,5959,4,AY,1,100,0.841
1576518604.295881,37034.000,5959,4,AY,1,100,0.865
1576518604.334523,37066.500,5959,4,AY,1,100,0.912
1576518604.373165,37099.000,5959,4,AY,1,100,0.938
1576518604.412005,37131.667,5977,3,AY,1,100,0.967
1576518604.450845,37164.333,5977,3,AY,1,100,0.950
1576518604.489685,37197.000,5977,3,AY,1,100,0.901
1576518604.529318,37230.333,5993,3,AY,1,100,0.886
1576518604.568951,37263.667,5993,3,AY,1,100,0.874
1576518604.608583,37297.000,5993,3,AY,1,100,0.857
1576518604.649801,37331.667,6011,3,AY,1,100,0.775
1576518604.691020,37366.333,6011,3,AY,1,100,0.694
1576518604.732238,37401.000,6011,3,AY,1,100,0.682
1576518604.773852,37436.000,6029,2,AY,1,100,0.671
1576518604.815466,37471.000,6029,2,AY,1,100,0.691
1576518604.855000,37504.250,6047,4,AY,1,100,0.706
1576518604.894533,37537.500,6047,4,AY,1,100,0.651
1576518604.934067,37570.750,6047,4,AY,1,100,0.638
1576518604.973601,37604.000,6047,4,AY,1,100,0.575
1576518605.012044,37636.333,6065,3,AY,1,100,0.541
1576518605.050488,37668.667,6065,3,AY,1,100,0.490
1576518605.088932,37701.000,6065,3,AY,1,100,0.393
1576518605.133519,37738.500,6084,2,AY,1,100,0.390
1576518605.178106,37776.000,6084,2,AY,1,100,0.360
1576518605.218135,37809.667,6102,3,AY,1,100,0.354
1576518605.258164,37843.333,6102,3,AY,1,100,0.343
1576518605.298193,37877.000,6102,3,AY,1,100,0.270
1576518605.339807,37912.000,6119,3,AY,1,100,0.162
1576518605.381422,37947.000,6119,3,AY,1,100,0.084
1576518605.423036,37982.000,6119,3,AY,1,100,0.192
1576518605.463858,38016.333,6137,3,AY,1,100,0.119
1576518605.504679,38050.667,6137,3,AY,1,100,0.139
1576518605.545501,38085.000,6137,3,AY,1,100,-0.029
1576518605.582954,38116.500,6155,4,AY,1,100,-4.415
1576518605.620407,38148.000,6155,4,AY,1,100,0.675
1576518605.657860,38179.500,6155,4,AY,1,100,-0.005
1576518605.695313,38211.000,6155,4,AY,1,100,0.048
1576518605.734549,38244.000,6173,3,AY,1,100,0.211
1576518605.773786,38277.000,6173,3,AY,1,100,0.320
1576518605.813022,38310.000,6173,3,AY,1,100,0.178
1576518605.853447,38344.000,6189,2,AY,1,100,-0.022
1576518605.893873,38378.000,6189,2,AY,1,100,0.070
1576518605.939054,38416.000,6207,3,AY,1,100,0.495
1576518605.984235,38454.000,6207,3,AY,1,100,-0.171
1576518606.029417,38492.000,6207,3,AY,1,100,1.163
1576518606.071031,38527.000,6226,3,AY,1,100,0.322
1576518606.112645,38562.000,6226,3,AY,1,100,0.021
1576518606.154260,38597.000,6226,3,AY,1,100,0.220
1576518606.192069,38628.800,6247,5,AY,1,100,0.120
1576518606.229879,38660.600,6247,5,AY,1,100,0.039
1576518606.267689,38692.400,6247,5,AY,1,100,0.183
1576518606.305498,38724.200,6247,5,AY,1,100,0.552
1576518606.343308,38756.000,6247,5,AY,1,100,0.149
1576518606.383733,38790.000,6266,3,AY,1,100,1.040
1576518606.424159,38824.000,6266,3,AY,1,100,0.582
1576518606.464584,38858.000,6266,3,AY,1,100,0.059
1576518606.505802,38892.667,6283,3,AY,1,100,-0.041
1576518606.547020,38927.333,6283,3,AY,1,100,-0.025
1576518606.588238,38962.000,6283,3,AY,1,100,-0.082
1576518606.633023,38999.667,6301,3,AY,1,100,0.094
1576518606.677808,39037.333,6301,3,AY,1,100,0.289
1576518606.722593,39075.000,6301,3,AY,1,100,0.471
1576518606.761037,39107.333,6319,3,AY,1,100,0.576
1576518606.799480,39139.667,6319,3,AY,1,100,1.005
1576518606.837924,39172.000,6319,3,AY,1,100,1.272
1576518606.875179,39203.333,6337,3,AY,1,100,1.316
1576518606.912434,39234.667,6337,3,AY,1,100,1.267
1576518606.949689,39266.000,6337,3,AY,1,100,1.028
1576518606.989718,39299.667,6356,3,AY,1,100,0.582
1576518607.029747,39333.333,6356,3,AY,1,100,0.896
1576518607.069776,39367.000,6356,3,AY,1,100,1.524
1576518607.110201,39401.000,6374,3,AY,1,100,0.585
1576518607.150626,39435.000,6374,3,AY,1,100,1.093
1576518607.191052,39469.000,6374,3,AY,1,100,0.873
1576518607.232270,39503.667,6392,3,AY,1,100,0.944
1576518607.273488,39538.333,6392,3,AY,1,100,0.924
1576518607.314706,39573.000,6392,3,AY,1,100,0.893
1576518607.354339,39606.333,6409,3,AY,1,100,0.927
1576518607.393971,39639.667,6409,3,AY,1,100,0.919
1576518607.433604,39673.000,6409,3,AY,1,100,0.882
1576518607.474426,39707.333,6427,3,AY,1,100,0.918
1576518607.515248,39741.667,6427,3,AY,1,100,0.970
1576518607.556069,39776.000,6427,3,AY,1,100,0.917
1576518607.594513,39808.333,6445,3,AY,1,100,0.908
1576518607.632957,39840.667,6445,3,AY,1,100,0.913
1576518607.671401,39873.000,6445,3,AY,1,100,0.920
1576518607.711826,39907.000,6463,3,AY,1,100,0.935
1576518607.752251,39941.000,6463,3,AY,1,100,0.927
1576518607.792677,39975.000,6463,3,AY,1,100,0.948
1576518607.830724,40007.000,6479,3,AY,1,100,0.906
1576518607.868772,40039.000,6479,3,AY,1,100,0.932
1576518607.906819,40071.000,6479,3,AY,1,100,0.896
1576518607.948830,40106.333,6497,3,AY,1,100,0.921
1576518607.990840,40141.667,6497,3,AY,1,100,0.924
1576518608.032851,40177.000,6497,3,AY,1,100,0.921
1576518608.068917,40207.333,6516,3,AY,1,100,0.906
1576518608.104983,40237.667,6516,3,AY,1,100,0.891
1576518608.141048,40268.000,6516,3,AY,1,100,0.885
1576518608.183852,40304.000,6534,3,AY,1,100,0.937
1576518608.226655,40340.000,6534,3,AY,1,100,0.956
1576518608.269458,40376.000,6534,3,AY,1,100,0.949
1576518608.309487,40409.667,6552,3,AY,1,100,0.937
1576518608.349516,40443.333,6552,3,AY,1,100,0.927
1576518608.389545,40477.000,6552,3,AY,1,100,0.936
1576518608.430763,40511.667,6570,3,AY,1,100,0.902
1576518608.471982,40546.333,6570,3,AY,1,100,0.920
1576518608.513200,40581.000,6570,3,AY,1,100,0.909
1576518608.554418,40615.667,6588,3,AY,1,100,0.934
1576518608.595636,40650.333,6588,3,AY,1,100,0.944
1576518608.636854,40685.000,6588,3,AY,1,100,0.927
1576518608.674505,40716.667,6605,3,AY,1,100,0.929
1576518608.712156,40748.333,6605,3,AY,1,100,0.932
1576518608.749807,40780.000,6605,3,AY,1,100,0.930
1576518608.789440,40813.333,6623,3,AY,1,100,0.936
1576518608.829072,40846.667,6623,3,AY,1,100,0.937
1576518608.868705,40880.000,6623,3,AY,1,100,0.922
1576518608.908734,40913.667,6641,3,AY,1,100,0.943
1576518608.948763,40947.333,6641,3,AY,1,100,0.931
1576518608.988792,40981.000,6641,3,AY,1,100,0.935
1576518609.033974,41019.000,6658,3,AY,1,100,0.928
1576518609.079155,41057.000,6658,3,AY,1,100,0.924
1576518609.124336,41095.000,6658,3,AY,1,100,0.939
1576518609.165158,41129.333,6676,3,AY,1,100,0.935
1576518609.205980,41163.667,6676,3,AY,1,100,0.943
1576518609.246801,41198.000,6676,3,AY,1,100,0.931
1576518609.284849,41230.000,6694,3,AY,1,100,0.916
1576518609.322896,41262.000,6694,3,AY,1,100,0.933
1576518609.360944,41294.000,6694,3,AY,1,100,0.947
1576518609.398595,41325.667,6712,3,AY,1,100,0.936
1576518609.436246,41357.333,6712,3,AY,1,100,0.935
1576518609.473897,41389.000,6712,3,AY,1,100,0.935
1576518609.514322,41423.000,6730,3,AY,1,100,0.937
1576518609.554748,41457.000,6730,3,AY,1,100,0.936
1576518609.595173,41491.000,6730,3,AY,1,100,0.902
1576518609.635995,41525.333,6748,3,AY,1,100,0.924
1576518609.676816,41559.667,6748,3,AY,1,100,0.934
1576518609.717638,41594.000,6748,3,AY,1,100,0.980
1576518609.764603,41633.500,6766,2,AY,1,100,0.960
1576518609.811568,41673.000,6766,2,AY,1,100,0.928
1576518609.851201,41706.333,6783,3,AY,1,100,0.900
1576518609.890833,41739.667,6783,3,AY,1,100,0.923
1576518609.930466,41773.000,6783,3,AY,1,100,0.891
1576518609.968513,41805.000,6802,4,AY,1,100,0.911
1576518610.006561,41837.000,6802,4,AY,1,100,0.929
1576518610.044608,41869.000,6802,4,AY,1,100,0.911
1576518610.082656,41901.000,6802,4,AY,1,100,0.904
1576518610.123081,41935.000,6820,3,AY,1,100,0.919
1576518610.163507,41969.000,6820,3,AY,1,100,0.917
1576518610.203932,42003.000,6820,3,AY,1,100,0.900
1576518610.245546,42038.000,6836,3,AY,1,100,0.910
1576518610.287161,42073.000,6836,3,AY,1,100,0.900
1576518610.328775,42108.000,6836,3,AY,1,100,0.933
1576518610.369993,42142.667,6854,3,AY,1,100,0.898
1576518610.411211,42177.333,6854,3,AY,1,100,0.912
1576518610.452429,42212.000,6854,3,AY,1,100,0.915
1576518610.492260,42245.500,6872,2,AY,1,100,0.908
1576518610.532091,42279.000,6872,2,AY,1,100,0.916
1576518610.573309,42313.667,6890,3,AY,1,100,0.928
1576518610.614527,42348.333,6890,3,AY,1,100,0.902
1576518610.655745,42383.000,6890,3,AY,1,100,0.917
1576518610.694684,42415.750,6908,4,AY,1,100,0.913
1576518610.733623,42448.500,6908,4,AY,1,100,0.907
1576518610.772562,42481.250,6908,4,AY,1,100,0.916
1576518610.811502,42514.000,6908,4,AY,1,100,0.915
1576518610.853116,42549.000,6926,2,AY,1,100,0.909
1576518610.894730,42584.000,6926,2,AY,1,100,0.906
1576518610.935552,42618.333,6944,3,AY,1,100,0.920
1576518610.976374,42652.667,6944,3,AY,1,100,0.910
1576518611.017195,42687.000,6944,3,AY,1,100,0.920
1576518611.056828,42720.333,6963,3,AY,1,100,0.905
1576518611.096461,42753.667,6963,3,AY,1,100,0.908
1576518611.136094,42787.000,6963,3,AY,1,100,0.917
1576518611.174141,42819.000,6980,4,AY,1,100,0.911
1576518611.212188,42851.000,6980,4,AY,1,100,0.915
1576518611.250236,42883.000,6980,4,AY,1,100,0.908
1576518611.288283,42915.000,6980,4,AY,1,100,0.912
1576518611.332870,42952.500,6998,2,AY,1,100,0.913
1576518611.377457,42990.000,6998,2,AY,1,100,0.913
1576518611.414910,43021.500,7016,4,AY,1,100,0.912
1576518611.452363,43053.000,7016,4,AY,1,100,0.913
1576518611.489816,43084.500,7016,4,AY,1,100,0.917
1576518611.527269,43116.000,7016,4,AY,1,100,0.912
1576518611.574233,43155.500,7032,2,AY,1,100,0.914
1576518611.621198,43195.000,7032,2,AY,1,100,0.917
1576518611.658354,43226.250,7050,4,AY,1,100,0.919
1576518611.695509,43257.500,7050,4,AY,1,100,0.912
1576518611.732665,43288.750,7050,4,AY,1,100,0.911
1576518611.769821,43320.000,7050,4,AY,1,100,0.917
1576518611.817380,43360.000,7068,2,AY,1,100,0.884
1576518611.864939,43400.000,7068,2,AY,1,100,0.906
1576518611.905761,43434.333,7086,3,AY,1,100,0.923
1576518611.946583,43468.667,7086,3,AY,1,100,0.931
1576518611.987405,43503.000,7086,3,AY,1,100,0.952
1576518612.029019,43538.000,7105,3,AY,1,100,0.937
1576518612.070633,43573.000,7105,3,AY,1,100,0.956
1576518612.112248,43608.000,7105,3,AY,1,100,0.924
1576518612.153862,43643.000,7123,3,AY,1,100,0.920
1576518612.195476,43678.000,7123,3,AY,1,100,0.871
1576518612.237091,43713.000,7123,3,AY,1,100,0.909
1576518612.277278,43746.800,7144,5,AY,1,100,0.885
1576518612.317466,43780.600,7144,5,AY,1,100,0.938
1576518612.357653,43814.400,7144,5,AY,1,100,0.971
1576518612.397841,43848.200,7144,5,AY,1,100,0.857
1576518612.438029,43882.000,7144,5,AY,1,100,0.965
1576518612.476076,43914.000,7162,3,AY,1,100,0.956
1576518612.514123,43946.000,7162,3,AY,1,100,0.908
1576518612.552171,43978.000,7162,3,AY,1,100,0.902
1576518612.592200,44011.667,7182,3,AY,1,100,0.891
1576518612.632229,44045.333,7182,3,AY,1,100,0.953
1576518612.672258,44079.000,7182,3,AY,1,100,0.923
1576518612.713080,44113.333,7200,3,AY,1,100,0.930
1576518612.753901,44147.667,7200,3,AY,1,100,0.913
1576518612.794723,44182.000,7200,3,AY,1,100,0.922
1576518612.836338,44217.000,7218,2,AY,1,100,0.927
1576518612.877952,44252.000,7218,2,AY,1,100,0.914
1576518612.923133,44290.000,7235,3,AY,1,100,0.917
1576518612.968314,44328.000,7235,3,AY,1,100,0.918
1576518613.013496,44366.000,7235,3,AY,1,100,0.927
1576518613.050949,44397.500,7254,4,AY,1,100,0.936
1576518613.088402,44429.000,7254,4,AY,1,100,0.907
1576518613.125854,44460.500,7254,4,AY,1,100,0.920
1576518613.163307,44492.000,7254,4,AY,1,100,0.933
1576518613.202147,44524.667,7272,3,AY,1,100,0.939
1576518613.240988,44557.333,7272,3,AY,1,100,0.926
1576518613.279828,44590.000,7272,3,AY,1,100,0.915
1576518613.321442,44625.000,7288,3,AY,1,100,0.914
1576518613.363056,44660.000,7288,3,AY,1,100,0.927
1576518613.404671,44695.000,7288,3,AY,1,100,0.937
1576518613.444502,44728.500,7306,2,AY,1,100,0.922
1576518613.484333,44762.000,7306,2,AY,1,100,0.915
1576518613.526343,44797.333,7324,3,AY,1,100,0.921
1576518613.568354,44832.667,7324,3,AY,1,100,0.932
1576518613.610365,44868.000,7324,3,AY,1,100,0.932
1576518613.651186,44902.333,7342,3,AY,1,100,0.920
1576518613.692008,44936.667,7342,3,AY,1,100,0.919
1576518613.732830,44971.000,7342,3,AY,1,100,0.925
1576518613.771670,45003.667,7360,3,AY,1,100,0.930
1576518613.810510,45036.333,7360,3,AY,1,100,0.929
1576518613.849350,45069.000,7360,3,AY,1,100,0.911
1576518613.890172,45103.333,7378,3,AY,1,100,0.928
1576518613.930994,45137.667,7378,3,AY,1,100,0.940
1576518613.971815,45172.000,7378,3,AY,1,100,0.935
1576518614.012637,45206.333,7397,3,AY,1,100,0.922
1576518614.053459,45240.667,7397,3,AY,1,100,0.923
1576518614.094280,45275.000,7397,3,AY,1,100,0.932
1576518614.135895,45310.000,7414,3,AY,1,100,0.939
1576518614.177509,45345.000,7414,3,AY,1,100,0.929
1576518614.219123,45380.000,7414,3,AY,1,100,0.920
1576518614.257567,45412.333,7432,3,AY,1,100,0.926
1576518614.296011,45444.667,7432,3,AY,1,100,0.932
1576518614.334455,45477.000,7432,3,AY,1,100,0.931
1576518614.376465,45512.333,7450,3,AY,1,100,0.920
1576518614.418476,45547.667,7450,3,AY,1,100,0.923
1576518614.460487,45583.000,7450,3,AY,1,100,0.927
1576518614.500119,45616.333,7468,3,AY,1,100,0.932
1576518614.539752,45649.667,7468,3,AY,1,100,0.923
1576518614.579385,45683.000,7468,3,AY,1,100,0.922
1576518614.620999,45718.000,7484,3,AY,1,100,0.924
1576518614.662614,45753.000,7484,3,AY,1,100,0.938
1576518614.704228,45788.000,7484,3,AY,1,100,0.935
1576518614.745842,45823.000,7502,3,AY,1,100,0.921
1576518614.787457,45858.000,7502,3,AY,1,100,0.927
1576518614.829071,45893.000,7502,3,AY,1,100,0.929
1576518614.866722,45924.667,7520,3,AY,1,100,0.936
1576518614.904373,45956.333,7520,3,AY,1,100,0.925
1576518614.942024,45988.000,7520,3,AY,1,100,0.918
1576518614.980864,46020.667,7539,3,AY,1,100,0.924
1576518615.019705,46053.333,7539,3,AY,1,100,0.932
1576518615.058545,46086.000,7539,3,AY,1,100,0.934
1576518615.097781,46119.000,7557,3,AY,1,100,0.933
1576518615.137017,46152.000,7557,3,AY,1,100,0.925
1576518615.176254,46185.000,7557,3,AY,1,100,0.923
1576518615.219057,46221.000,7575,3,AY,1,100,0.934
1576518615.261860,46257.000,7575,3,AY,1,100,0.920
1576518615.304664,46293.000,7575,3,AY,1,100,0.935
1576518615.345089,46327.000,7593,3,AY,1,100,0.935
1576518615.385514,46361.000,7593,3,AY,1,100,0.931
1576518615.425940,46395.000,7593,3,AY,1,100,0.915
1576518615.467951,46430.333,7610,3,AY,1,100,0.932
1576518615.509961,46465.667,7610,3,AY,1,100,0.938
1576518615.551972,46501.000,7610,3,AY,1,100,0.931
1576518615.593586,46536.000,7628,3,AY,1,100,0.920
1576518615.635201,46571.000,7628,3,AY,1,100,0.941
1576518615.676815,46606.000,7628,3,AY,1,100,0.879
1576518615.722591,46644.500,7644,2,AY,1,100,0.985
1576518615.768367,46683.000,7644,2,AY,1,100,0.954
1576518615.810377,46718.333,7662,3,AY,1,100,0.904
1576518615.852388,46753.667,7662,3,AY,1,100,0.970
1576518615.894399,46789.000,7662,3,AY,1,100,0.938
1576518615.932842,46821.333,7680,3,AY,1,100,0.923
1576518615.971286,46853.667,7680,3,AY,1,100,0.953
1576518616.009730,46886.000,7680,3,AY,1,100,0.936
1576518616.048669,46918.750,7699,4,AY,1,100,0.911
1576518616.087608,46951.500,7699,4,AY,1,100,0.917
1576518616.126548,46984.250,7699,4,AY,1,100,0.952
1576518616.165487,47017.000,7699,4,AY,1,100,0.935
1576518616.203930,47049.333,7717,3,AY,1,100,0.930
1576518616.242374,47081.667,7717,3,AY,1,100,0.925
1576518616.280818,47114.000,7717,3,AY,1,100,0.958
1576518616.319262,47146.333,7735,3,AY,1,100,0.932
1576518616.357705,47178.667,7735,3,AY,1,100,0.928
1576518616.396149,47211.000,7735,3,AY,1,100,0.933
1576518616.437367,47245.667,7753,3,AY,1,100,0.935
1576518616.478585,47280.333,7753,3,AY,1,100,0.931
1576518616.519803,47315.000,7753,3,AY,1,100,0.930
1576518616.561418,47350.000,7770,3,AY,1,100,0.942
1576518616.603032,47385.000,7770,3,AY,1,100,0.924
1576518616.644646,47420.000,7770,3,AY,1,100,0.944
1576518616.686261,47455.000,7788,2,AY,1,100,0.928
1576518616.727875,47490.000,7788,2,AY,1,100,0.950
1576518616.769093,47524.667,7806,3,AY,1,100,0.923
1576518616.810311,47559.333,7806,3,AY,1,100,0.942
1576518616.851529,47594.000,7806,3,AY,1,100,0.922
1576518616.890369,47626.667,7822,3,AY,1,100,0.957
1576518616.929209,47659.333,7822,3,AY,1,100,0.948
1576518616.968049,47692.000,7822,3,AY,1,100,0.923
1576518617.008178,47725.750,7841,4,AY,1,100,0.927
1576518617.048306,47759.500,7841,4,AY,1,100,0.921
1576518617.088434,47793.250,7841,4,AY,1,100,0.925
1576518617.128562,47827.000,7841,4,AY,1,100,0.931
1576518617.169582,47861.500,7859,2,AY,1,100,0.930
1576518617.210602,47896.000,7859,2,AY,1,100,0.934
1576518617.252216,47931.000,7877,3,AY,1,100,0.931
1576518617.293830,47966.000,7877,3,AY,1,100,0.915
1576518617.335445,48001.000,7877,3,AY,1,100,0.858
1576518617.373195,48032.750,7895,4,AY,1,100,0.967
1576518617.410945,48064.500,7895,4,AY,1,100,0.913
1576518617.448695,48096.250,7895,4,AY,1,100,0.943
1576518617.486445,48128.000,7895,4,AY,1,100,0.924
1576518617.531032,48165.500,7913,2,AY,1,100,0.936
1576518617.575619,48203.000,7913,2,AY,1,100,0.933
1576518617.616045,48237.000,7931,3,AY,1,100,0.926
1576518617.656470,48271.000,7931,3,AY,1,100,0.911
1576518617.696895,48305.000,7931,3,AY,1,100,0.933
1576518617.738510,48340.000,7948,3,AY,1,100,0.916
1576518617.780124,48375.000,7948,3,AY,1,100,0.950
1576518617.821738,48410.000,7948,3,AY,1,100,0.925
1576518617.863353,48445.000,7966,3,AY,1,100,0.943
1576518617.904967,48480.000,7966,3,AY,1,100,0.918
1576518617.946581,48515.000,7966,3,AY,1,100,0.933
1576518617.985025,48547.333,7984,3,AY,1,100,0.931
1576518618.023469,48579.667,7984,3,AY,1,100,0.935
1576518618.061913,48612.000,7984,3,AY,1,100,0.914
1576518618.099960,48644.000,8003,3,AY,1,100,0.925
1576518618.138007,48676.000,8003,3,AY,1,100,0.935
1576518618.176055,48708.000,8003,3,AY,1,100,0.936
1576518618.220047,48745.000,8019,3,AY,1,100,0.923
1576518618.264040,48782.000,8019,3,AY,1,100,0.924
1576518618.308032,48819.000,8019,3,AY,1,100,0.915
1576518618.349408,48853.800,8040,5,AY,1,100,0.942
1576518618.390785,48888.600,8040,5,AY,1,100,0.929
1576518618.432162,48923.400,8040,5,AY,1,100,0.926
1576518618.473538,48958.200,8040,5,AY,1,100,0.925
1576518618.514915,48993.000,8040,5,AY,1,100,0.924
1576518618.556529,49028.000,8060,2,AY,1,100,0.937
1576518618.598143,49063.000,8060,2,AY,1,100,0.936
1576518618.635299,49094.250,8078,4,AY,1,100,0.933
1576518618.672455,49125.500,8078,4,AY,1,100,0.920
1576518618.709610,49156.750,8078,4,AY,1,100,0.927
1576518618.746766,49188.000,8078,4,AY,1,100,0.934
1576518618.786399,49221.333,8094,3,AY,1,100,0.934
1576518618.826032,49254.667,8094,3,AY,1,100,0.936
1576518618.865664,49288.000,8094,3,AY,1,100,0.931
1576518618.906090,49322.000,8112,3,AY,1,100,0.927
1576518618.946515,49356.000,8112,3,AY,1,100,0.929
1576518618.986940,49390.000,8112,3,AY,1,100,0.938
1576518619.034500,49430.000,8131,2,AY,1,100,0.932
1576518619.082059,49470.000,8131,2,AY,1,100,0.927
1576518619.119710,49501.667,8149,3,AY,1,100,0.930
1576518619.157361,49533.333,8149,3,AY,1,100,0.936
1576518619.195012,49565.000,8149,3,AY,1,100,0.933
1576518619.236230,49599.667,8167,3,AY,1,100,0.933
1576518619.277448,49634.333,8167,3,AY,1,100,0.926
1576518619.318666,49669.000,8167,3,AY,1,100,0.950
1576518619.363055,49706.333,8185,3,AY,1,100,0.935
1576518619.407444,49743.667,8185,3,AY,1,100,0.937
1576518619.451832,49781.000,8185,3,AY,1,100,0.939
1576518619.488691,49812.000,8202,3,AY,1,100,0.937
1576518619.525549,49843.000,8202,3,AY,1,100,0.939
1576518619.562408,49874.000,8202,3,AY,1,100,0.934
1576518619.606400,49911.000,8220,3,AY,1,100,0.935
1576518619.650392,49948.000,8220,3,AY,1,100,0.948
1576518619.694385,49985.000,8220,3,AY,1,100,0.933
1576518619.732036,50016.667,8238,3,AY,1,100,0.931
1576518619.769687,50048.333,8238,3,AY,1,100,0.941
1576518619.807338,50080.000,8238,3,AY,1,100,0.946
1576518619.846178,50112.667,8256,3,AY,1,100,0.939
1576518619.885018,50145.333,8256,3,AY,1,100,0.940
1576518619.923858,50178.000,8256,3,AY,1,100,0.941
1576518619.965076,50212.667,8272,3,AY,1,100,0.939
1576518620.006294,50247.333,8272,3,AY,1,100,0.938
1576518620.047512,50282.000,8272,3,AY,1,100,0.932
1576518620.088730,50316.667,8291,3,AY,1,100,0.933
1576518620.129948,50351.333,8291,3,AY,1,100,0.930
1576518620.171166,50386.000,8291,3,AY,1,100,0.949
1576518620.212781,50421.000,8309,3,AY,1,100,0.942
1576518620.254395,50456.000,8309,3,AY,1,100,0.944
1576518620.296010,50491.000,8309,3,AY,1,100,0.929
1576518620.337228,50525.667,8327,3,AY,1,100,0.933
1576518620.378446,50560.333,8327,3,AY,1,100,0.951
1576518620.419663,50595.000,8327,3,AY,1,100,0.937
1576518620.459693,50628.667,8345,3,AY,1,100,0.942
1576518620.499722,50662.333,8345,3,AY,1,100,0.944
1576518620.539751,50696.000,8345,3,AY,1,100,0.936
1576518620.581761,50731.333,8363,3,AY,1,100,0.939
1576518620.623772,50766.667,8363,3,AY,1,100,0.933
1576518620.665783,50802.000,8363,3,AY,1,100,0.961
1576518620.705415,50835.333,8380,3,AY,1,100,0.945
1576518620.745048,50868.667,8380,3,AY,1,100,0.946
1576518620.784681,50902.000,8380,3,AY,1,100,0.939
1576518620.825106,50936.000,8398,3,AY,1,100,0.943
1576518620.865532,50970.000,8398,3,AY,1,100,0.939
1576518620.905957,51004.000,8398,3,AY,1,100,0.948
1576518620.947175,51038.667,8416,3,AY,1,100,0.945
1576518620.988393,51073.333,8416,3,AY,1,100,0.939
1576518621.029611,51108.000,8416,3,AY,1,100,0.940
1576518621.069640,51141.667,8433,3,AY,1,100,0.939
1576518621.109669,51175.333,8433,3,AY,1,100,0.943
1576518621.149698,51209.000,8433,3,AY,1,100,0.958
1576518621.187350,51240.667,8451,3,AY,1,100,0.972
1576518621.225001,51272.333,8451,3,AY,1,100,0.875
1576518621.262652,51304.000,8451,3,AY,1,100,0.938
1576518621.301888,51337.000,8469,3,AY,1,100,0.956
1576518621.341125,51370.000,8469,3,AY,1,100,0.958
1576518621.380361,51403.000,8469,3,AY,1,100,0.926
1576518621.424750,51440.333,8487,3,AY,1,100,0.935
1576518621.469138,51477.667,8487,3,AY,1,100,0.916
1576518621.513527,51515.000,8487,3,AY,1,100,0.939
1576518621.554745,51549.667,8505,3,AY,1,100,0.945
1576518621.595963,51584.333,8505,3,AY,1,100,0.948
1576518621.637181,51619.000,8505,3,AY,1,100,0.927
1576518621.678795,51654.000,8523,2,AY,1,100,0.931
1576518621.720410,51689.000,8523,2,AY,1,100,0.938
1576518621.758754,51721.250,8541,4,AY,1,100,0.944
1576518621.797099,51753.500,8541,4,AY,1,100,0.943
1576518621.835444,51785.750,8541,4,AY,1,100,0.931
1576518621.873788,51818.000,8541,4,AY,1,100,0.928
1576518621.912628,51850.667,8559,3,AY,1,100,0.940
1576518621.951468,51883.333,8559,3,AY,1,100,0.946
1576518621.990309,51916.000,8559,3,AY,1,100,0.943
1576518622.031130,51950.333,8577,3,AY,1,100,0.925
1576518622.071952,51984.667,8577,3,AY,1,100,0.918
1576518622.112774,52019.000,8577,3,AY,1,100,0.937
1576518622.154388,52054.000,8595,2,AY,1,100,0.927
1576518622.196002,52089.000,8595,2,AY,1,100,0.923
1576518622.240787,52126.667,8611,3,AY,1,100,0.929
1576518622.285572,52164.333,8611,3,AY,1,100,0.935
1576518622.330357,52202.000,8611,3,AY,1,100,0.939
1576518622.368008,52233.667,8629,3,AY,1,100,0.917
1576518622.405659,52265.333,8629,3,AY,1,100,0.934
1576518622.443310,52297.000,8629,3,AY,1,100,0.934
1576518622.481061,52328.750,8647,4,AY,1,100,0.927
1576518622.518811,52360.500,8647,4,AY,1,100,0.920
1576518622.556561,52392.250,8647,4,AY,1,100,0.922
1576518622.594311,52424.000,8647,4,AY,1,100,0.966
1576518622.635331,52458.500,8665,2,AY,1,100,0.906
1576518622.676351,52493.000,8665,2,AY,1,100,0.947
1576518622.717173,52527.333,8683,3,AY,1,100,0.906
1576518622.757994,52561.667,8683,3,AY,1,100,0.941
1576518622.798816,52596.000,8683,3,AY,1,100,0.926
1576518622.840034,52630.667,8701,3,AY,1,100,0.948
1576518622.881252,52665.333,8701,3,AY,1,100,0.932
1576518622.922470,52700.000,8701,3,AY,1,100,0.928
1576518622.964877,52735.667,8719,3,AY,1,100,0.918
1576518623.007284,52771.333,8719,3,AY,1,100,0.920
1576518623.049691,52807.000,8719,3,AY,1,100,0.948
1576518623.086946,52838.333,8738,3,AY,1,100,0.938
1576518623.124201,52869.667,8738,3,AY,1,100,0.927
1576518623.161456,52901.000,8738,3,AY,1,100,0.917
1576518623.202674,52935.667,8755,3,AY,1,100,0.929
1576518623.243892,52970.333,8755,3,AY,1,100,0.937
1576518623.285110,53005.000,8755,3,AY,1,100,0.935
1576518623.322563,53036.500,8773,4,AY,1,100,0.928
1576518623.360016,53068.000,8773,4,AY,1,100,0.926
1576518623.397469,53099.500,8773,4,AY,1,100,0.930
1576518623.434922,53131.000,8773,4,AY,1,100,0.929
1576518623.475743,53165.333,8791,3,AY,1,100,0.939
1576518623.516565,53199.667,8791,3,AY,1,100,0.931
1576518623.557387,53234.000,8791,3,AY,1,100,0.936
1576518623.596623,53267.000,8807,2,AY,1,100,0.932
1576518623.635859,53300.000,8807,2,AY,1,100,0.933
1576518623.677077,53334.667,8825,3,AY,1,100,0.831
1576518623.718295,53369.333,8825,3,AY,1,100,0.941
1576518623.759513,53404.000,8825,3,AY,1,100,0.963
1576518623.800731,53438.667,8843,3,AY,1,100,0.910
1576518623.841949,53473.333,8843,3,AY,1,100,0.901
1576518623.883168,53508.000,8843,3,AY,1,100,0.913
1576518623.924782,53543.000,8861,3,AY,1,100,0.935
1576518623.966396,53578.000,8861,3,AY,1,100,0.909
1576518624.008011,53613.000,8861,3,AY,1,100,0.944
1576518624.045761,53644.750,8880,4,AY,1,100,0.919
1576518624.083511,53676.500,8880,4,AY,1,100,0.941
1576518624.121261,53708.250,8880,4,AY,1,100,0.913
1576518624.159011,53740.000,8880,4,AY,1,100,0.938
1576518624.198842,53773.500,8898,2,AY,1,100,0.925
1576518624.238673,53807.000,8898,2,AY,1,100,0.937
1576518624.278207,53840.250,8916,4,AY,1,100,0.920
1576518624.317740,53873.500,8916,4,AY,1,100,0.937
1576518624.357274,53906.750,8916,4,AY,1,100,0.927
1576518624.396808,53940.000,8916,4,AY,1,100,0.936
1576518624.439908,53976.250,8935,4,AY,1,100,0.939
1576518624.483009,54012.500,8935,4,AY,1,100,0.933
1576518624.526109,54048.750,8935,4,AY,1,100,0.929
1576518624.569210,54085.000,8935,4,AY,1,100,0.922
1576518624.609239,54118.667,8957,3,AY,1,100,0.927
1576518624.649268,54152.333,8957,3,AY,1,100,0.934
1576518624.689297,54186.000,8957,3,AY,1,100,0.929
1576518624.731704,54221.667,8975,3,AY,1,100,0.928
1576518624.774111,54257.333,8975,3,AY,1,100,0.931
1576518624.816518,54293.000,8975,3,AY,1,100,0.930
1576518624.854169,54324.667,8993,3,AY,1,100,0.921
1576518624.891820,54356.333,8993,3,AY,1,100,0.925
1576518624.929471,54388.000,8993,3,AY,1,100,0.943
1576518624.967123,54419.667,9011,3,AY,1,100,0.913
1576518625.004774,54451.333,9011,3,AY,1,100,0.911
1576518625.042425,54483.000,9011,3,AY,1,100,0.946
1576518625.082454,54516.667,9030,3,AY,1,100,0.939
1576518625.122483,54550.333,9030,3,AY,1,100,0.933
1576518625.162512,54584.000,9030,3,AY,1,100,0.929
1576518625.202541,54617.667,9048,3,AY,1,100,0.959
1576518625.242570,54651.333,9048,3,AY,1,100,0.920
1576518625.282599,54685.000,9048,3,AY,1,100,0.939
1576518625.327780,54723.000,9065,3,AY,1,100,0.940
1576518625.372962,54761.000,9065,3,AY,1,100,0.901
1576518625.418143,54799.000,9065,3,AY,1,100,0.922
1576518625.457380,54832.000,9083,3,AY,1,100,1.048
1576518625.496616,54865.000,9083,3,AY,1,100,0.843
1576518625.535852,54898.000,9083,3,AY,1,100,0.966
1576518625.573900,54930.000,9099,3,AY,1,100,0.910
1576518625.611947,54962.000,9099,3,AY,1,100,0.954
1576518625.649995,54994.000,9099,3,AY,1,100,0.895
1576518625.689627,55027.333,9117,3,AY,1,100,0.951
1576518625.729260,55060.667,9117,3,AY,1,100,0.891
1576518625.768893,55094.000,9117,3,AY,1,100,0.954
1576518625.810111,55128.667,9135,3,AY,1,100,0.911
1576518625.851329,55163.333,9135,3,AY,1,100,0.940
1576518625.892547,55198.000,9135,3,AY,1,100,0.911
1576518625.933765,55232.667,9153,3,AY,1,100,0.942
1576518625.974983,55267.333,9153,3,AY,1,100,0.923
1576518626.016201,55302.000,9153,3,AY,1,100,0.934
1576518626.058608,55337.667,9172,3,AY,1,100,0.922
1576518626.101015,55373.333,9172,3,AY,1,100,0.924
1576518626.143422,55409.000,9172,3,AY,1,100,0.915
1576518626.181469,55441.000,9190,3,AY,1,100,0.934
1576518626.219517,55473.000,9190,3,AY,1,100,0.929
1576518626.257564,55505.000,9190,3,AY,1,100,0.931
1576518626.297197,55538.333,9208,3,AY,1,100,0.922
1576518626.336830,55571.667,9208,3,AY,1,100,0.926
1576518626.376462,55605.000,9208,3,AY,1,100,0.923
1576518626.418077,55640.000,9226,3,AY,1,100,0.932
1576518626.459691,55675.000,9226,3,AY,1,100,0.922
1576518626.501306,55710.000,9226,3,AY,1,100,0.931
1576518626.542524,55744.667,9243,3,AY,1,100,0.923
1576518626.583742,55779.333,9243,3,AY,1,100,0.922
1576518626.624960,55814.000,9243,3,AY,1,100,0.932
1576518626.664196,55847.000,9261,3,AY,1,100,0.928
1576518626.703432,55880.000,9261,3,AY,1,100,0.928
1576518626.742669,55913.000,9261,3,AY,1,100,0.937
1576518626.781113,55945.333,9279,3,AY,1,100,0.919
1576518626.819556,55977.667,9279,3,AY,1,100,0.931
1576518626.858000,56010.000,9279,3,AY,1,100,0.915
1576518626.900803,56046.000,9295,3,AY,1,100,0.933
1576518626.943607,56082.000,9295,3,AY,1,100,0.925
1576518626.986410,56118.000,9295,3,AY,1,100,0.935
1576518627.024457,56150.000,9314,3,AY,1,100,0.924
1576518627.062505,56182.000,9314,3,AY,1,100,0.933
1576518627.100552,56214.000,9314,3,AY,1,100,0.925
1576518627.145734,56252.000,9332,2,AY,1,100,0.930
1576518627.190915,56290.000,9332,2,AY,1,100,0.920
1576518627.228665,56321.750,9350,4,AY,1,100,0.933
1576518627.266415,56353.500,9350,4,AY,1,100,0.923
1576518627.304166,56385.250,9350,4,AY,1,100,0.927
1576518627.341916,56417.000,9350,4,AY,1,100,0.927
1576518627.387691,56455.500,9368,2,AY,1,100,0.934
1576518627.433467,56494.000,9368,2,AY,1,100,0.927
1576518627.474685,56528.667,9386,3,AY,1,100,0.929
1576518627.515903,56563.333,9386,3,AY,1,100,0.927
1576518627.557121,56598.000,9386,3,AY,1,100,0.923
1576518627.598339,56632.667,9403,3,AY,1,100,0.925
1576518627.639557,56667.333,9403,3,AY,1,100,0.925
1576518627.680775,56702.000,9403,3,AY,1,100,0.922
1576518627.720408,56735.333,9421,3,AY,1,100,0.924
1576518627.760041,56768.667,9421,3,AY,1,100,0.930
1576518627.799674,56802.000,9421,3,AY,1,100,0.926
1576518627.837721,56834.000,9439,4,AY,1,100,0.927
1576518627.875768,56866.000,9439,4,AY,1,100,0.922
1576518627.913816,56898.000,9439,4,AY,1,100,0.927
1576518627.951863,56930.000,9439,4,AY,1,100,0.924
1576518627.991694,56963.500,9455,2,AY,1,100,0.925
1576518628.031525,56997.000,9455,2,AY,1,100,0.925
1576518628.073139,57032.000,9474,3,AY,1,100,0.932
1576518628.114754,57067.000,9474,3,AY,1,100,0.922
1576518628.156368,57102.000,9474,3,AY,1,100,0.934
1576518628.197586,57136.667,9492,3,AY,1,100,0.923
1576518628.238804,57171.333,9492,3,AY,1,100,0.927
1576518628.280022,57206.000,9492,3,AY,1,100,0.925
1576518628.324411,57243.333,9510,3,AY,1,100,0.928
1576518628.368800,57280.667,9510,3,AY,1,100,0.923
1576518628.413188,57318.000,9510,3,AY,1,100,0.925
1576518628.450839,57349.667,9528,3,AY,1,100,0.928
1576518628.488491,57381.333,9528,3,AY,1,100,0.924
1576518628.526142,57413.000,9528,3,AY,1,100,0.929
1576518628.564982,57445.667,9546,3,AY,1,100,0.928
1576518628.603822,57478.333,9546,3,AY,1,100,0.926
1576518628.642662,57511.000,9546,3,AY,1,100,0.921
1576518628.684276,57546.000,9564,3,AY,1,100,0.930
1576518628.725890,57581.000,9564,3,AY,1,100,0.924
1576518628.767505,57616.000,9564,3,AY,1,100,0.927
1576518628.807534,57649.667,9581,3,AY,1,100,0.929
1576518628.847563,57683.333,9581,3,AY,1,100,0.927
1576518628.887592,57717.000,9581,3,AY,1,100,0.924
1576518628.931981,57754.333,9599,3,AY,1,100,0.926
1576518628.976369,57791.667,9599,3,AY,1,100,0.925
1576518629.020758,57829.000,9599,3,AY,1,100,0.926
1576518629.058805,57861.000,9618,3,AY,1,100,0.926
1576518629.096853,57893.000,9618,3,AY,1,100,0.925
1576518629.134900,57925.000,9618,3,AY,1,100,0.929
1576518629.173740,57957.667,9634,3,AY,1,100,0.926
1576518629.212580,57990.333,9634,3,AY,1,100,0.928
1576518629.251420,58023.000,9634,3,AY,1,100,0.924
1576518629.293035,58058.000,9652,3,AY,1,100,0.924
1576518629.334649,58093.000,9652,3,AY,1,100,0.928
1576518629.376264,58128.000,9652,3,AY,1,100,0.928
1576518629.417085,58162.333,9670,3,AY,1,100,0.922
1576518629.457907,58196.667,9670,3,AY,1,100,0.928
1576518629.498729,58231.000,9670,3,AY,1,100,0.926
1576518629.539947,58265.667,9688,3,AY,1,100,0.927
1576518629.581165,58300.333,9688,3,AY,1,100,0.923
1576518629.622383,58335.000,9688,3,AY,1,100,0.927
1576518629.663601,58369.667,9706,3,AY,1,100,0.927
1576518629.704819,58404.333,9706,3,AY,1,100,0.924
1576518629.746037,58439.000,9706,3,AY,1,100,0.929
1576518629.785273,58472.000,9724,3,AY,1,100,0.931
1576518629.824510,58505.000,9724,3,AY,1,100,0.924
1576518629.863746,58538.000,9724,3,AY,1,100,0.923
1576518629.903775,58571.667,9742,3,AY,1,100,0.927
1576518629.943804,58605.333,9742,3,AY,1,100,0.926
1576518629.983833,58639.000,9742,3,AY,1,100,0.922
1576518630.025051,58673.667,9761,3,AY,1,100,0.930
1576518630.066269,58708.333,9761,3,AY,1,100,0.939
1576518630.107487,58743.000,9761,3,AY,1,100,0.922
1576518630.148507,58777.500,9778,2,AY,1,100,0.911
1576518630.189527,58812.000,9778,2,AY,1,100,0.920
1576518630.227872,58844.250,9796,4,AY,1,100,0.927
1576518630.266217,58876.500,9796,4,AY,1,100,0.932
1576518630.304561,58908.750,9796,4,AY,1,100,0.932
1576518630.342906,58941.000,9796,4,AY,1,100,0.928
1576518630.382142,58974.000,9814,3,AY,1,100,0.923
1576518630.421379,59007.000,9814,3,AY,1,100,0.937
1576518630.460615,59040.000,9814,3,AY,1,100,0.925
1576518630.503716,59076.250,9835,4,AY,1,100,0.923
1576518630.546816,59112.500,9835,4,AY,1,100,0.914
1576518630.589917,59148.750,9835,4,AY,1,100,0.908
1576518630.633017,59185.000,9835,4,AY,1,100,0.936
1576518630.671065,59217.000,9853,3,AY,1,100,0.942
1576518630.709112,59249.000,9853,3,AY,1,100,0.923
1576518630.747159,59281.000,9853,3,AY,1,100,0.917
1576518630.792341,59319.000,9872,3,AY,1,100,0.926
1576518630.837522,59357.000,9872,3,AY,1,100,0.906
1576518630.882704,59395.000,9872,3,AY,1,100,0.935
1576518630.919958,59426.333,9890,3,AY,1,100,0.913
1576518630.957213,59457.667,9890,3,AY,1,100,0.933
1576518630.994468,59489.000,9890,3,AY,1,100,0.912
1576518631.037271,59525.000,9907,3,AY,1,100,0.926
1576518631.080075,59561.000,9907,3,AY,1,100,0.910
1576518631.122878,59597.000,9907,3,AY,1,100,0.935
1576518631.163303,59631.000,9925,3,AY,1,100,0.913
1576518631.203729,59665.000,9925,3,AY,1,100,0.926
1576518631.244154,59699.000,9925,3,AY,1,100,0.910
1576518631.288939,59736.667,9943,3,AY,1,100,0.921
1576518631.333724,59774.333,9943,3,AY,1,100,0.915
1576518631.378509,59812.000,9943,3,AY,1,100,0.915
1576518631.420123,59847.000,9961,2,AY,1,100,0.926
1576518631.461738,59882.000,9961,2,AY,1,100,0.919
1576518631.500380,59914.500,9979,4,AY,1,100,0.923
1576518631.539021,59947.000,9979,4,AY,1,100,0.910
1576518631.577663,59979.500,9979,4,AY,1,100,0.911
1576518631.616305,60012.000,9979,4,AY,1,100,0.913
1576518631.654749,60044.333,9997,3,AY,1,100,0.902
1576518631.693193,60076.667,9997,3,AY,1,100,0.931
1576518631.731637,60109.000,9997,3,AY,1,100,0.935
1576518631.772062,60143.000,10015,3,AY,1,100,0.928
1576518631.812487,60177.000,10015,3,AY,1,100,0.914
1576518631.852913,60211.000,10015,3,AY,1,100,0.907
1576518631.894131,60245.667,10032,3,AY,1,100,0.916
1576518631.935349,60280.333,10032,3,AY,1,100,0.915
1576518631.976567,60315.000,10032,3,AY,1,100,0.930
1576518632.018181,60350.000,10048,3,AY,1,100,0.919
1576518632.059796,60385.000,10048,3,AY,1,100,0.915
1576518632.101410,60420.000,10048,3,AY,1,100,0.915
1576518632.145402,60457.000,10067,2,AY,1,100,0.921
1576518632.189394,60494.000,10067,2,AY,1,100,0.920
1576518632.227145,60525.750,10085,4,AY,1,100,0.911
1576518632.264895,60557.500,10085,4,AY,1,100,0.914
1576518632.302645,60589.250,10085,4,AY,1,100,0.918
1576518632.340395,60621.000,10085,4,AY,1,100,0.920
1576518632.380424,60654.667,10103,3,AY,1,100,0.922
1576518632.420453,60688.333,10103,3,AY,1,100,0.909
1576518632.460482,60722.000,10103,3,AY,1,100,0.919
1576518632.501502,60756.500,10121,2,AY,1,100,0.919
1576518632.542522,60791.000,10121,2,AY,1,100,0.911
1576518632.583740,60825.667,10139,3,AY,1,100,0.921
1576518632.624958,60860.333,10139,3,AY,1,100,0.915
1576518632.666176,60895.000,10139,3,AY,1,100,0.915
1576518632.706602,60929.000,10157,3,AY,1,100,0.920
1576518632.747027,60963.000,10157,3,AY,1,100,0.922
1576518632.787452,60997.000,10157,3,AY,1,100,0.925
1576518632.828274,61031.333,10175,3,AY,1,100,0.917
1576518632.869096,61065.667,10175,3,AY,1,100,0.910
1576518632.909918,61100.000,10175,3,AY,1,100,0.917
1576518632.949550,61133.333,10193,3,AY,1,100,0.918
1576518632.989183,61166.667,10193,3,AY,1,100,0.917
1576518633.028816,61200.000,10193,3,AY,1,100,0.916
1576518633.070034,61234.667,10211,3,AY,1,100,0.919
1576518633.111252,61269.333,10211,3,AY,1,100,0.920
1576518633.152470,61304.000,10211,3,AY,1,100,0.918
1576518633.193688,61338.667,10229,3,AY,1,100,0.916
1576518633.234906,61373.333,10229,3,AY,1,100,0.921
1576518633.276124,61408.000,10229,3,AY,1,100,0.914
1576518633.317342,61442.667,10245,3,AY,1,100,0.921
1576518633.358560,61477.333,10245,3,AY,1,100,0.919
1576518633.399778,61512.000,10245,3,AY,1,100,0.919
1576518633.437033,61543.333,10263,3,AY,1,100,0.912
1576518633.474288,61574.667,10263,3,AY,1,100,0.923
1576518633.511542,61606.000,10263,3,AY,1,100,0.919
1576518633.550382,61638.667,10281,3,AY,1,100,0.921
1576518633.589222,61671.333,10281,3,AY,1,100,0.915
1576518633.628062,61704.000,10281,3,AY,1,100,0.914
1576518633.673244,61742.000,10299,3,AY,1,100,0.915
1576518633.718425,61780.000,10299,3,AY,1,100,0.922
1576518633.763607,61818.000,10299,3,AY,1,100,0.917
1576518633.804825,61852.667,10317,3,AY,1,100,0.918
1576518633.846043,61887.333,10317,3,AY,1,100,0.919
1576518633.887261,61922.000,10317,3,AY,1,100,0.916
1576518633.927686,61956.000,10335,3,AY,1,100,0.917
1576518633.968111,61990.000,10335,3,AY,1,100,0.915
1576518634.008537,62024.000,10335,3,AY,1,100,0.923
1576518634.046188,62055.667,10354,3,AY,1,100,0.914
1576518634.083839,62087.333,10354,3,AY,1,100,0.913
1576518634.121490,62119.000,10354,3,AY,1,100,0.917
1576518634.159537,62151.000,10372,3,AY,1,100,0.920
1576518634.197585,62183.000,10372,3,AY,1,100,0.917
1576518634.235632,62215.000,10372,3,AY,1,100,0.908
1576518634.276850,62249.667,10389,3,AY,1,100,0.921
1576518634.318068,62284.333,10389,3,AY,1,100,0.908
1576518634.359286,62319.000,10389,3,AY,1,100,0.923
1576518634.404468,62357.000,10407,3,AY,1,100,0.914
1576518634.449649,62395.000,10407,3,AY,1,100,0.921
1576518634.494830,62433.000,10407,3,AY,1,100,0.911
1576518634.532878,62465.000,10423,3,AY,1,100,0.919
1576518634.570925,62497.000,10423,3,AY,1,100,0.907
1576518634.608973,62529.000,10423,3,AY,1,100,0.912
1576518634.651380,62564.667,10441,3,AY,1,100,0.924
1576518634.693787,62600.333,10441,3,AY,1,100,0.921
1576518634.736194,62636.000,10441,3,AY,1,100,0.911
1576518634.777412,62670.667,10459,3,AY,1,100,0.911
1576518634.818630,62705.333,10459,3,AY,1,100,0.919
1576518634.859848,62740.000,10459,3,AY,1,100,0.918
1576518634.906218,62779.000,10477,2,AY,1,100,0.927
1576518634.952588,62818.000,10477,2,AY,1,100,0.917
1576518634.993806,62852.667,10495,3,AY,1,100,0.906
1576518635.035024,62887.333,10495,3,AY,1,100,0.909
1576518635.076242,62922.000,10495,3,AY,1,100,0.924
1576518635.116668,62956.000,10514,3,AY,1,100,0.923
1576518635.157093,62990.000,10514,3,AY,1,100,0.920
1576518635.197519,63024.000,10514,3,AY,1,100,0.911
1576518635.237548,63057.667,10531,3,AY,1,100,0.916
1576518635.277577,63091.333,10531,3,AY,1,100,0.915
1576518635.317606,63125.000,10531,3,AY,1,100,0.918
1576518635.355257,63156.667,10549,3,AY,1,100,0.917
1576518635.392908,63188.333,10549,3,AY,1,100,0.919
1576518635.430559,63220.000,10549,3,AY,1,100,0.916
1576518635.470192,63253.333,10567,3,AY,1,100,0.919
1576518635.509825,63286.667,10567,3,AY,1,100,0.912
1576518635.549457,63320.000,10567,3,AY,1,100,0.916
1576518635.590675,63354.667,10583,3,AY,1,100,0.911
1576518635.631893,63389.333,10583,3,AY,1,100,0.922
1576518635.673111,63424.000,10583,3,AY,1,100,0.913
1576518635.713933,63458.333,10601,3,AY,1,100,0.920
1576518635.754755,63492.667,10601,3,AY,1,100,0.914
1576518635.795576,63527.000,10601,3,AY,1,100,0.912
1576518635.836398,63561.333,10619,3,AY,1,100,0.903
1576518635.877220,63595.667,10619,3,AY,1,100,0.926
1576518635.918041,63630.000,10619,3,AY,1,100,0.928
1576518635.959260,63664.667,10637,3,AY,1,100,0.915
1576518636.000478,63699.333,10637,3,AY,1,100,0.915
1576518636.041696,63734.000,10637,3,AY,1,100,0.920
1576518636.080139,63766.333,10656,3,AY,1,100,0.906
1576518636.118583,63798.667,10656,3,AY,1,100,0.911
1576518636.157027,63831.000,10656,3,AY,1,100,0.911
1576518636.197452,63865.000,10674,3,AY,1,100,0.913
1576518636.237878,63899.000,10674,3,AY,1,100,0.923
1576518636.278303,63933.000,10674,3,AY,1,100,0.918
1576518636.319521,63967.667,10692,3,AY,1,100,0.912
1576518636.360739,64002.333,10692,3,AY,1,100,0.921
1576518636.401957,64037.000,10692,3,AY,1,100,0.910
1576518636.441986,64070.667,10709,3,AY,1,100,0.918
1576518636.482015,64104.333,10709,3,AY,1,100,0.910
1576518636.522044,64138.000,10709,3,AY,1,100,0.912
1576518636.562232,64171.800,10730,5,AY,1,100,0.920
1576518636.602419,64205.600,10730,5,AY,1,100,0.923
1576518636.642607,64239.400,10730,5,AY,1,100,0.914
1576518636.682795,64273.200,10730,5,AY,1,100,0.914
1576518636.722982,64307.000,10730,5,AY,1,100,0.924
1576518636.763407,64341.000,10750,3,AY,1,100,0.914
1576518636.803833,64375.000,10750,3,AY,1,100,0.918
1576518636.844258,64409.000,10750,3,AY,1,100,0.912
1576518636.885873,64444.000,10768,3,AY,1,100,0.924
1576518636.927487,64479.000,10768,3,AY,1,100,0.915
1576518636.969101,64514.000,10768,3,AY,1,100,0.917
1576518637.010319,64548.667,10786,3,AY,1,100,0.917
1576518637.051538,64583.333,10786,3,AY,1,100,0.917
1576518637.092756,64618.000,10786,3,AY,1,100,0.911
1576518637.131992,64651.000,10804,3,AY,1,100,0.915
1576518637.171228,64684.000,10804,3,AY,1,100,0.921
1576518637.210465,64717.000,10804,3,AY,1,100,0.912
1576518637.247720,64748.333,10822,3,AY,1,100,0.917
1576518637.284974,64779.667,10822,3,AY,1,100,0.920
1576518637.322229,64811.000,10822,3,AY,1,100,0.916
1576518637.361862,64844.333,10840,3,AY,1,100,0.912
1576518637.401495,64877.667,10840,3,AY,1,100,0.917
1576518637.441127,64911.000,10840,3,AY,1,100,0.915
1576518637.486309,64949.000,10857,3,AY,1,100,0.920
1576518637.531490,64987.000,10857,3,AY,1,100,0.912
1576518637.576671,65025.000,10857,3,AY,1,100,0.920
1576518637.618285,65060.000,10874,2,AY,1,100,0.913
1576518637.659900,65095.000,10874,2,AY,1,100,0.915
1576518637.699533,65128.333,10892,3,AY,1,100,0.919
1576518637.739165,65161.667,10892,3,AY,1,100,0.915
1576518637.778798,65195.000,10892,3,AY,1,100,0.913
1576518637.816845,65227.000,10910,4,AY,1,100,0.917
1576518637.854893,65259.000,10910,4,AY,1,100,0.915
1576518637.892940,65291.000,10910,4,AY,1,100,0.915
1576518637.930988,65323.000,10910,4,AY,1,100,0.913
1576518637.970224,65356.000,10928,3,AY,1,100,0.918
1576518638.009460,65389.000,10928,3,AY,1,100,0.915
1576518638.048697,65422.000,10928,3,AY,1,100,0.917
1576518638.089519,65456.333,10947,3,AY,1,100,0.915
1576518638.130340,65490.667,10947,3,AY,1,100,0.918
1576518638.171162,65525.000,10947,3,AY,1,100,0.917
1576518638.218127,65564.500,10965,2,AY,1,100,0.909
1576518638.265092,65604.000,10965,2,AY,1,100,0.912
1576518638.303535,65636.333,10983,3,AY,1,100,0.916
1576518638.341979,65668.667,10983,3,AY,1,100,0.911
1576518638.380423,65701.000,10983,3,AY,1,100,0.914
1576518638.425604,65739.000,11000,3,AY,1,100,0.912
1576518638.470785,65777.000,11000,3,AY,1,100,0.917
1576518638.515967,65815.000,11000,3,AY,1,100,0.915
1576518638.553618,65846.667,11018,3,AY,1,100,0.912
1576518638.591269,65878.333,11018,3,AY,1,100,0.916
1576518638.628920,65910.000,11018,3,AY,1,100,0.915
1576518638.670138,65944.667,11034,3,AY,1,100,0.917
1576518638.711356,65979.333,11034,3,AY,1,100,0.910
1576518638.752574,66014.000,11034,3,AY,1,100,0.916
1576518638.794585,66049.333,11052,3,AY,1,100,0.919
1576518638.836596,66084.667,11052,3,AY,1,100,0.914
1576518638.878606,66120.000,11052,3,AY,1,100,0.914
1576518638.916257,66151.667,11070,3,AY,1,100,0.915
1576518638.953908,66183.333,11070,3,AY,1,100,0.912
1576518638.991560,66215.000,11070,3,AY,1,100,0.913
1576518639.032778,66249.667,11089,3,AY,1,100,0.912
1576518639.073996,66284.333,11089,3,AY,1,100,0.914
1576518639.115214,66319.000,11089,3,AY,1,100,0.913
1576518639.152865,66350.667,11107,3,AY,1,100,0.915
1576518639.190516,66382.333,11107,3,AY,1,100,0.916
1576518639.228167,66414.000,11107,3,AY,1,100,0.913
1576518639.268592,66448.000,11125,3,AY,1,100,0.909
1576518639.309018,66482.000,11125,3,AY,1,100,0.911
1576518639.349443,66516.000,11125,3,AY,1,100,0.924
1576518639.391057,66551.000,11143,3,AY,1,100,0.911
1576518639.432672,66586.000,11143,3,AY,1,100,0.918
1576518639.474286,66621.000,11143,3,AY,1,100,0.899
1576518639.516297,66656.333,11160,3,AY,1,100,0.926
1576518639.558307,66691.667,11160,3,AY,1,100,0.908
1576518639.600318,66727.000,11160,3,AY,1,100,0.913
1576518639.639158,66759.667,11178,3,AY,1,100,0.911
1576518639.677998,66792.333,11178,3,AY,1,100,0.921
1576518639.716838,66825.000,11178,3,AY,1,100,0.909
1576518639.758056,66859.667,11196,3,AY,1,100,0.916
1576518639.799274,66894.333,11196,3,AY,1,100,0.909
1576518639.840492,66929.000,11196,3,AY,1,100,0.918
1576518639.880522,66962.667,11212,3,AY,1,100,0.915
1576518639.920551,66996.333,11212,3,AY,1,100,0.919
1576518639.960580,67030.000,11212,3,AY,1,100,0.908
1576518640.001401,67064.333,11230,3,AY,1,100,0.916
1576518640.042223,67098.667,11230,3,AY,1,100,0.898
1576518640.083045,67133.000,11230,3,AY,1,100,0.929
1576518640.124659,67168.000,11249,3,AY,1,100,0.911
1576518640.166274,67203.000,11249,3,AY,1,100,0.919
1576518640.207888,67238.000,11249,3,AY,1,100,0.900
1576518640.245935,67270.000,11267,3,AY,1,100,0.923
1576518640.283983,67302.000,11267,3,AY,1,100,0.904
1576518640.322030,67334.000,11267,3,AY,1,100,0.919
1576518640.360474,67366.333,11285,3,AY,1,100,0.909
1576518640.398918,67398.667,11285,3,AY,1,100,0.917
1576518640.437361,67431.000,11285,3,AY,1,100,0.904
1576518640.480561,67467.333,11303,3,AY,1,100,0.924
1576518640.523761,67503.667,11303,3,AY,1,100,0.901
1576518640.566960,67540.000,11303,3,AY,1,100,0.924
1576518640.608575,67575.000,11321,3,AY,1,100,0.903
1576518640.650189,67610.000,11321,3,AY,1,100,0.920
1576518640.691803,67645.000,11321,3,AY,1,100,0.906
1576518640.733418,67680.000,11338,2,AY,1,100,0.916
1576518640.775032,67715.000,11338,2,AY,1,100,0.907
1576518640.814566,67748.250,11356,4,AY,1,100,0.917
1576518640.854100,67781.500,11356,4,AY,1,100,0.914
1576518640.893633,67814.750,11356,4,AY,1,100,0.912
1576518640.933167,67848.000,11356,4,AY,1,100,0.911
1576518640.971214,67880.000,11374,3,AY,1,100,0.908
1576518641.009262,67912.000,11374,3,AY,1,100,0.912
1576518641.047309,67944.000,11374,3,AY,1,100,0.918
1576518641.087338,67977.667,11393,3,AY,1,100,0.909
1576518641.127367,68011.333,11393,3,AY,1,100,0.910
1576518641.167396,68045.000,11393,3,AY,1,100,0.914
1576518641.209011,68080.000,11409,3,AY,1,100,0.909
1576518641.250625,68115.000,11409,3,AY,1,100,0.916
1576518641.292239,68150.000,11409,3,AY,1,100,0.916
1576518641.338610,68189.000,11427,2,AY,1,100,0.919
1576518641.384980,68228.000,11427,2,AY,1,100,0.913
1576518641.426594,68263.000,11445,3,AY,1,100,0.912
1576518641.468209,68298.000,11445,3,AY,1,100,0.915
1576518641.509823,68333.000,11445,3,AY,1,100,0.918
1576518641.546681,68364.000,11463,3,AY,1,100,0.914
1576518641.583540,68395.000,11463,3,AY,1,100,0.917
1576518641.620398,68426.000,11463,3,AY,1,100,0.918
1576518641.659635,68459.000,11481,4,AY,1,100,0.906
1576518641.698871,68492.000,11481,4,AY,1,100,0.917
1576518641.738107,68525.000,11481,4,AY,1,100,0.912
1576518641.777344,68558.000,11481,4,AY,1,100,0.916
1576518641.817769,68592.000,11499,2,AY,1,100,0.913
1576518641.858195,68626.000,11499,2,AY,1,100,0.913
1576518641.899413,68660.667,11517,3,AY,1,100,0.906
1576518641.940631,68695.333,11517,3,AY,1,100,0.920
1576518641.981849,68730.000,11517,3,AY,1,100,0.913
1576518642.027426,68768.333,11535,3,AY,1,100,0.915
1576518642.073004,68806.667,11535,3,AY,1,100,0.917
1576518642.118582,68845.000,11535,3,AY,1,100,0.921
1576518642.157025,68877.333,11553,3,AY,1,100,0.917
1576518642.195469,68909.667,11553,3,AY,1,100,0.909
1576518642.233913,68942.000,11553,3,AY,1,100,0.905
1576518642.278301,68979.333,11569,3,AY,1,100,0.921
1576518642.322690,69016.667,11569,3,AY,1,100,0.920
1576518642.367079,69054.000,11569,3,AY,1,100,0.906
1576518642.405126,69086.000,11587,3,AY,1,100,0.907
1576518642.443174,69118.000,11587,3,AY,1,100,0.905
1576518642.481221,69150.000,11587,3,AY,1,100,0.915
1576518642.520061,69182.667,11605,3,AY,1,100,0.920
1576518642.558901,69215.333,11605,3,AY,1,100,0.914
1576518642.597741,69248.000,11605,3,AY,1,100,0.869
1576518642.634124,69278.600,11626,5,AY,1,100,0.893
1576518642.670507,69309.200,11626,5,AY,1,100,0.916
1576518642.706890,69339.800,11626,5,AY,1,100,0.935
1576518642.743273,69370.400,11626,5,AY,1,100,0.928
1576518642.779655,69401.000,11626,5,AY,1,100,0.915
1576518642.821270,69436.000,11645,3,AY,1,100,0.908
1576518642.862884,69471.000,11645,3,AY,1,100,0.914
1576518642.904499,69506.000,11645,3,AY,1,100,0.932
1576518642.942942,69538.333,11663,3,AY,1,100,0.922
1576518642.981386,69570.667,11663,3,AY,1,100,0.904
1576518643.019830,69603.000,11663,3,AY,1,100,0.917
1576518643.061048,69637.667,11680,3,AY,1,100,0.895
1576518643.102266,69672.333,11680,3,AY,1,100,0.941
1576518643.143484,69707.000,11680,3,AY,1,100,0.853
1576518643.185098,69742.000,11698,3,AY,1,100,0.887
1576518643.226713,69777.000,11698,3,AY,1,100,0.918
1576518643.268327,69812.000,11698,3,AY,1,100,0.938
1576518643.308753,69846.000,11716,3,AY,1,100,0.927
1576518643.349178,69880.000,11716,3,AY,1,100,0.908
1576518643.389603,69914.000,11716,3,AY,1,100,0.901
1576518643.428047,69946.333,11734,3,AY,1,100,0.913
1576518643.466491,69978.667,11734,3,AY,1,100,0.918
1576518643.504935,70011.000,11734,3,AY,1,100,0.915
1576518643.546945,70046.333,11752,3,AY,1,100,0.919
1576518643.588956,70081.667,11752,3,AY,1,100,0.906
1576518643.630966,70117.000,11752,3,AY,1,100,0.897
1576518643.667825,70148.000,11770,3,AY,1,100,0.912
1576518643.704683,70179.000,11770,3,AY,1,100,0.931
1576518643.741542,70210.000,11770,3,AY,1,100,0.902
1576518643.784741,70246.333,11788,3,AY,1,100,0.904
1576518643.827941,70282.667,11788,3,AY,1,100,0.910
1576518643.871141,70319.000,11788,3,AY,1,100,0.914
1576518643.912359,70353.667,11806,3,AY,1,100,0.907
1576518643.953577,70388.333,11806,3,AY,1,100,0.912
1576518643.994795,70423.000,11806,3,AY,1,100,0.907
1576518644.035220,70457.000,11824,3,AY,1,100,0.899
1576518644.075646,70491.000,11824,3,AY,1,100,0.920
1576518644.116071,70525.000,11824,3,AY,1,100,0.915
1576518644.156893,70559.333,11842,3,AY,1,100,0.912
1576518644.197715,70593.667,11842,3,AY,1,100,0.912
1576518644.238536,70628.000,11842,3,AY,1,100,0.915
1576518644.276584,70660.000,11858,3,AY,1,100,0.919
1576518644.314631,70692.000,11858,3,AY,1,100,0.903
1576518644.352679,70724.000,11858,3,AY,1,100,0.917
1576518644.391519,70756.667,11876,3,AY,1,100,0.914
1576518644.430359,70789.333,11876,3,AY,1,100,0.915
1576518644.469199,70822.000,11876,3,AY,1,100,0.903
1576518644.514380,70860.000,11894,3,AY,1,100,0.918
1576518644.559561,70898.000,11894,3,AY,1,100,0.901
1576518644.604743,70936.000,11894,3,AY,1,100,0.907
1576518644.645564,70970.333,11912,3,AY,1,100,0.907
1576518644.686386,71004.667,11912,3,AY,1,100,0.918
1576518644.727208,71039.000,11912,3,AY,1,100,0.908
1576518644.767237,71072.667,11930,3,AY,1,100,0.912
1576518644.807266,71106.333,11930,3,AY,1,100,0.925
1576518644.847295,71140.000,11930,3,AY,1,100,0.911
1576518644.885342,71172.000,11948,3,AY,1,100,0.889
1576518644.923390,71204.000,11948,3,AY,1,100,0.900
1576518644.961437,71236.000,11948,3,AY,1,100,0.911
1576518645.000277,71268.667,11966,3,AY,1,100,0.908
1576518645.039117,71301.333,11966,3,AY,1,100,0.910
1576518645.077957,71334.000,11966,3,AY,1,100,0.915
1576518645.119175,71368.667,11985,3,AY,1,100,0.904
1576518645.160393,71403.333,11985,3,AY,1,100,0.905
1576518645.201612,71438.000,11985,3,AY,1,100,0.904
1576518645.242433,71472.333,12002,3,AY,1,100,0.911
1576518645.283255,71506.667,12002,3,AY,1,100,0.905
1576518645.324077,71541.000,12002,3,AY,1,100,0.900
1576518645.365691,71576.000,12020,2,AY,1,100,0.914
1576518645.407305,71611.000,12020,2,AY,1,100,0.909
1576518645.446839,71644.250,12038,4,AY,1,100,0.914
1576518645.486373,71677.500,12038,4,AY,1,100,0.920
1576518645.525906,71710.750,12038,4,AY,1,100,0.919
1576518645.565440,71744.000,12038,4,AY,1,100,0.908
1576518645.605073,71777.333,12054,3,AY,1,100,0.911
1576518645.644705,71810.667,12054,3,AY,1,100,0.900
1576518645.684338,71844.000,12054,3,AY,1,100,0.892
1576518645.724763,71878.000,12072,3,AY,1,100,0.898
1576518645.765189,71912.000,12072,3,AY,1,100,0.931
1576518645.805614,71946.000,12072,3,AY,1,100,0.901
1576518645.847229,71981.000,12090,2,AY,1,100,0.908
1576518645.888843,72016.000,12090,2,AY,1,100,0.901
1576518645.929665,72050.333,12108,3,AY,1,100,0.921
1576518645.970486,72084.667,12108,3,AY,1,100,0.896
1576518646.011308,72119.000,12108,3,AY,1,100,0.911
1576518646.053715,72154.667,12127,3,AY,1,100,0.897
1576518646.096122,72190.333,12127,3,AY,1,100,0.918
1576518646.138529,72226.000,12127,3,AY,1,100,0.907
1576518646.176973,72258.333,12145,3,AY,1,100,0.922
1576518646.215417,72290.667,12145,3,AY,1,100,0.902
1576518646.253860,72323.000,12145,3,AY,1,100,0.898
1576518646.293493,72356.333,12163,3,AY,1,100,0.917
1576518646.333126,72389.667,12163,3,AY,1,100,0.912
1576518646.372759,72423.000,12163,3,AY,1,100,0.897
1576518646.409914,72454.250,12181,4,AY,1,100,0.915
1576518646.447070,72485.500,12181,4,AY,1,100,0.905
1576518646.484226,72516.750,12181,4,AY,1,100,0.910
1576518646.521381,72548.000,12181,4,AY,1,100,0.898
1576518646.562203,72582.333,12199,3,AY,1,100,0.899
1576518646.603025,72616.667,12199,3,AY,1,100,0.906
1576518646.643847,72651.000,12199,3,AY,1,100,0.906
1576518646.683479,72684.333,12216,3,AY,1,100,0.907
1576518646.723112,72717.667,12216,3,AY,1,100,0.909
1576518646.762745,72751.000,12216,3,AY,1,100,0.898
1576518646.804359,72786.000,12234,3,AY,1,100,0.922
1576518646.845973,72821.000,12234,3,AY,1,100,0.887
1576518646.887588,72856.000,12234,3,AY,1,100,0.914
1576518646.928409,72890.333,12250,3,AY,1,100,0.904
1576518646.969231,72924.667,12250,3,AY,1,100,0.912
1576518647.010053,72959.000,12250,3,AY,1,100,0.899
1576518647.050082,72992.667,12269,3,AY,1,100,0.909
1576518647.090111,73026.333,12269,3,AY,1,100,0.910
1576518647.130140,73060.000,12269,3,AY,1,100,0.927
1576518647.168980,73092.667,12287,3,AY,1,100,0.871
1576518647.207820,73125.333,12287,3,AY,1,100,0.932
1576518647.246660,73158.000,12287,3,AY,1,100,0.897
1576518647.285500,73190.667,12305,3,AY,1,100,0.914
1576518647.324340,73223.333,12305,3,AY,1,100,0.904
1576518647.363180,73256.000,12305,3,AY,1,100,0.920
1576518647.401624,73288.333,12323,3,AY,1,100,0.886
1576518647.440068,73320.667,12323,3,AY,1,100,0.909
1576518647.478512,73353.000,12323,3,AY,1,100,0.890
1576518647.517748,73386.000,12341,3,AY,1,100,0.912
1576518647.556984,73419.000,12341,3,AY,1,100,0.907
1576518647.596221,73452.000,12341,3,AY,1,100,0.917
1576518647.641402,73490.000,12359,3,AY,1,100,0.890
1576518647.686584,73528.000,12359,3,AY,1,100,0.908
1576518647.731765,73566.000,12359,3,AY,1,100,0.895
1576518647.773379,73601.000,12376,2,AY,1,100,0.932
1576518647.814994,73636.000,12376,2,AY,1,100,0.895
1576518647.855419,73670.000,12394,3,AY,1,100,0.908
1576518647.895844,73704.000,12394,3,AY,1,100,0.894
1576518647.936270,73738.000,12394,3,AY,1,100,0.915
1576518647.974020,73769.750,12412,4,AY,1,100,0.891
1576518648.011770,73801.500,12412,4,AY,1,100,0.921
1576518648.049520,73833.250,12412,4,AY,1,100,0.894
1576518648.087270,73865.000,12412,4,AY,1,100,0.907
1576518648.126903,73898.333,12431,3,AY,1,100,0.903
1576518648.166536,73931.667,12431,3,AY,1,100,0.894
1576518648.206169,73965.000,12431,3,AY,1,100,0.925
1576518648.246990,73999.333,12447,3,AY,1,100,0.883
1576518648.287812,74033.667,12447,3,AY,1,100,0.915
1576518648.328634,74068.000,12447,3,AY,1,100,0.899
1576518648.375598,74107.500,12465,2,AY,1,100,0.907
1576518648.422563,74147.000,12465,2,AY,1,100,0.895
1576518648.463781,74181.667,12483,3,AY,1,100,0.914
1576518648.504999,74216.333,12483,3,AY,1,100,0.907
1576518648.546217,74251.000,12483,3,AY,1,100,0.884
1576518648.583869,74282.667,12501,3,AY,1,100,0.897
1576518648.621520,74314.333,12501,3,AY,1,100,0.912
1576518648.659171,74346.000,12501,3,AY,1,100,0.897
1576518648.698645,74379.200,12522,5,AY,1,100,0.912
1576518648.738119,74412.400,12522,5,AY,1,100,0.967
1576518648.777593,74445.600,12522,5,AY,1,100,0.863
1576518648.817067,74478.800,12522,5,AY,1,100,0.910
1576518648.856542,74512.000,12522,5,AY,1,100,0.892
1576518648.897760,74546.667,12540,3,AY,1,100,0.890
1576518648.938978,74581.333,12540,3,AY,1,100,0.909
1576518648.980196,74616.000,12540,3,AY,1,100,0.926
1576518649.021017,74650.333,12559,3,AY,1,100,0.948
1576518649.061839,74684.667,12559,3,AY,1,100,0.896
1576518649.102661,74719.000,12559,3,AY,1,100,0.885
1576518649.145068,74754.667,12577,3,AY,1,100,0.854
1576518649.187475,74790.333,12577,3,AY,1,100,0.897
1576518649.229882,74826.000,12577,3,AY,1,100,0.930
1576518649.267533,74857.667,12595,3,AY,1,100,0.904
1576518649.305184,74889.333,12595,3,AY,1,100,0.921
1576518649.342835,74921.000,12595,3,AY,1,100,0.878
1576518649.383260,74955.000,12613,3,AY,1,100,0.868
1576518649.423686,74989.000,12613,3,AY,1,100,0.861
1576518649.464111,75023.000,12613,3,AY,1,100,0.870
1576518649.504933,75057.333,12631,3,AY,1,100,0.870
1576518649.545755,75091.667,12631,3,AY,1,100,0.881
1576518649.586576,75126.000,12631,3,AY,1,100,0.856
1576518649.627795,75160.667,12649,3,AY,1,100,0.875
1576518649.669013,75195.333,12649,3,AY,1,100,0.872
1576518649.710231,75230.000,12649,3,AY,1,100,0.890
1576518649.749467,75263.000,12666,3,AY,1,100,0.884
1576518649.788703,75296.000,12666,3,AY,1,100,0.867
1576518649.827940,75329.000,12666,3,AY,1,100,0.897
1576518649.869158,75363.667,12684,3,AY,1,100,0.856
1576518649.910376,75398.333,12684,3,AY,1,100,0.883
1576518649.951594,75433.000,12684,3,AY,1,100,0.867
1576518649.992812,75467.667,12703,3,AY,1,100,0.888
1576518650.034030,75502.333,12703,3,AY,1,100,0.856
1576518650.075248,75537.000,12703,3,AY,1,100,0.869
1576518650.113295,75569.000,12721,3,AY,1,100,0.868
1576518650.151343,75601.000,12721,3,AY,1,100,0.885
1576518650.189390,75633.000,12721,3,AY,1,100,0.865
1576518650.227438,75665.000,12737,3,AY,1,100,0.878
1576518650.265485,75697.000,12737,3,AY,1,100,0.867
1576518650.303532,75729.000,12737,3,AY,1,100,0.880
1576518650.345147,75764.000,12755,3,AY,1,100,0.861
1576518650.386761,75799.000,12755,3,AY,1,100,0.880
1576518650.428375,75834.000,12755,3,AY,1,100,0.869
1576518650.469594,75868.667,12773,3,AY,1,100,0.878
1576518650.510812,75903.333,12773,3,AY,1,100,0.890
1576518650.552030,75938.000,12773,3,AY,1,100,0.861
1576518650.593248,75972.667,12791,3,AY,1,100,0.873
1576518650.634466,76007.333,12791,3,AY,1,100,0.872
1576518650.675684,76042.000,12791,3,AY,1,100,0.881
1576518650.717695,76077.333,12809,3,AY,1,100,0.865
1576518650.759705,76112.667,12809,3,AY,1,100,0.878
1576518650.801716,76148.000,12809,3,AY,1,100,0.855
1576518650.841745,76181.667,12827,3,AY,1,100,0.885
1576518650.881774,76215.333,12827,3,AY,1,100,0.870
1576518650.921803,76249.000,12827,3,AY,1,100,0.878
1576518650.964012,76284.500,12844,2,AY,1,100,0.869
1576518651.006221,76320.000,12844,2,AY,1,100,0.881
1576518651.043971,76351.750,12863,4,AY,1,100,0.863
1576518651.081721,76383.500,12863,4,AY,1,100,0.886
1576518651.119471,76415.250,12863,4,AY,1,100,0.862
1576518651.157221,76447.000,12863,4,AY,1,100,0.871
1576518651.196854,76480.333,12881,3,AY,1,100,0.869
1576518651.236487,76513.667,12881,3,AY,1,100,0.884
1576518651.276120,76547.000,12881,3,AY,1,100,0.859
1576518651.316545,76581.000,12897,3,AY,1,100,0.880
1576518651.356970,76615.000,12897,3,AY,1,100,0.873
1576518651.397396,76649.000,12897,3,AY,1,100,0.880
1576518651.439010,76684.000,12915,2,AY,1,100,0.856
1576518651.480624,76719.000,12915,2,AY,1,100,0.880
1576518651.526202,76757.333,12933,3,AY,1,100,0.872
1576518651.571780,76795.667,12933,3,AY,1,100,0.873
1576518651.617357,76834.000,12933,3,AY,1,100,0.869
1576518651.655405,76866.000,12951,3,AY,1,100,0.874
1576518651.693452,76898.000,12951,3,AY,1,100,0.870
1576518651.731500,76930.000,12951,3,AY,1,100,0.865
1576518651.769547,76962.000,12969,4,AY,1,100,0.878
1576518651.807595,76994.000,12969,4,AY,1,100,0.870
1576518651.845642,77026.000,12969,4,AY,1,100,0.874
1576518651.883689,77058.000,12969,4,AY,1,100,0.866
1576518651.924115,77092.000,12987,2,AY,1,100,0.869
1576518651.964540,77126.000,12987,2,AY,1,100,0.878
1576518652.004966,77160.000,13006,3,AY,1,100,0.873
1576518652.045391,77194.000,13006,3,AY,1,100,0.865
1576518652.085816,77228.000,13006,3,AY,1,100,0.880
1576518652.130997,77266.000,13023,3,AY,1,100,0.864
1576518652.176179,77304.000,13023,3,AY,1,100,0.873
1576518652.221360,77342.000,13023,3,AY,1,100,0.870
1576518652.260597,77375.000,13041,3,AY,1,100,0.879
1576518652.299833,77408.000,13041,3,AY,1,100,0.855
1576518652.339069,77441.000,13041,3,AY,1,100,0.866
1576518652.377117,77473.000,13059,3,AY,1,100,0.869
1576518652.415164,77505.000,13059,3,AY,1,100,0.881
1576518652.453212,77537.000,13059,3,AY,1,100,0.871
1576518652.492844,77570.333,13075,3,AY,1,100,0.868
1576518652.532477,77603.667,13075,3,AY,1,100,0.865
1576518652.572110,77637.000,13075,3,AY,1,100,0.874
1576518652.613328,77671.667,13093,3,AY,1,100,0.873
1576518652.654546,77706.333,13093,3,AY,1,100,0.871
1576518652.695764,77741.000,13093,3,AY,1,100,0.871
1576518652.736982,77775.667,13111,3,AY,1,100,0.867
1576518652.778200,77810.333,13111,3,AY,1,100,0.867
1576518652.819418,77845.000,13111,3,AY,1,100,0.875
1576518652.863014,77881.667,13129,3,AY,1,100,0.876
1576518652.906610,77918.333,13129,3,AY,1,100,0.874
1576518652.950206,77955.000,13129,3,AY,1,100,0.864
1576518652.988253,77987.000,13147,3,AY,1,100,0.873
1576518653.026301,78019.000,13147,3,AY,1,100,0.876
1576518653.064348,78051.000,13147,3,AY,1,100,0.878
1576518653.102792,78083.333,13166,3,AY,1,100,0.874
1576518653.141236,78115.667,13166,3,AY,1,100,0.872
1576518653.179679,78148.000,13166,3,AY,1,100,0.866
1576518653.220897,78182.667,13184,3,AY,1,100,0.872
1576518653.262115,78217.333,13184,3,AY,1,100,0.873
1576518653.303334,78252.000,13184,3,AY,1,100,0.866
1576518653.344552,78286.667,13201,3,AY,1,100,0.876
1576518653.385770,78321.333,13201,3,AY,1,100,0.872
1576518653.426988,78356.000,13201,3,AY,1,100,0.872
1576518653.466224,78389.000,13219,3,AY,1,100,0.882
1576518653.505461,78422.000,13219,3,AY,1,100,0.869
1576518653.544697,78455.000,13219,3,AY,1,100,0.857
1576518653.583141,78487.333,13237,3,AY,1,100,0.877
1576518653.621584,78519.667,13237,3,AY,1,100,0.877
1576518653.660028,78552.000,13237,3,AY,1,100,0.875
1576518653.703228,78588.333,13255,3,AY,1,100,0.870
1576518653.746428,78624.667,13255,3,AY,1,100,0.873
1576518653.789627,78661.000,13255,3,AY,1,100,0.875
1576518653.827675,78693.000,13271,3,AY,1,100,0.882
1576518653.865722,78725.000,13271,3,AY,1,100,0.864
1576518653.903769,78757.000,13271,3,AY,1,100,0.864
1576518653.947366,78793.667,13289,3,AY,1,100,0.878
1576518653.990961,78830.333,13289,3,AY,1,100,0.867
1576518654.034557,78867.000,13289,3,AY,1,100,0.868
1576518654.071019,78897.667,13308,3,AY,1,100,0.884
1576518654.107482,78928.333,13308,3,AY,1,100,0.880
1576518654.143944,78959.000,13308,3,AY,1,100,0.879
1576518654.188729,78996.667,13326,3,AY,1,100,0.868
1576518654.233514,79034.333,13326,3,AY,1,100,0.874
1576518654.278299,79072.000,13326,3,AY,1,100,0.884
1576518654.319120,79106.333,13344,3,AY,1,100,0.882
1576518654.359942,79140.667,13344,3,AY,1,100,0.879
1576518654.400764,79175.000,13344,3,AY,1,100,0.873
1576518654.442378,79210.000,13362,3,AY,1,100,0.898
1576518654.483993,79245.000,13362,3,AY,1,100,0.898
1576518654.525607,79280.000,13362,3,AY,1,100,0.881
1576518654.566627,79314.500,13379,2,AY,1,100,0.869
1576518654.607647,79349.000,13379,2,AY,1,100,0.859
1576518654.649261,79384.000,13397,3,AY,1,100,0.886
1576518654.690875,79419.000,13397,3,AY,1,100,0.894
1576518654.732490,79454.000,13397,3,AY,1,100,0.875
1576518654.771013,79486.400,13418,5,AY,1,100,0.860
1576518654.809536,79518.800,13418,5,AY,1,100,0.899
1576518654.848059,79551.200,13418,5,AY,1,100,0.882
1576518654.886582,79583.600,13418,5,AY,1,100,0.886
1576518654.925105,79616.000,13418,5,AY,1,100,0.892
1576518654.964341,79649.000,13438,3,AY,1,100,0.878
1576518655.003578,79682.000,13438,3,AY,1,100,0.872
1576518655.042814,79715.000,13438,3,AY,1,100,0.878
1576518655.084032,79749.667,13457,3,AY,1,100,0.894
1576518655.125250,79784.333,13457,3,AY,1,100,0.901
1576518655.166468,79819.000,13457,3,AY,1,100,0.881
1576518655.207686,79853.667,13474,3,AY,1,100,0.878
1576518655.248904,79888.333,13474,3,AY,1,100,0.881
1576518655.290122,79923.000,13474,3,AY,1,100,0.876
1576518655.334907,79960.667,13492,3,AY,1,100,0.882
1576518655.379692,79998.333,13492,3,AY,1,100,0.877
1576518655.424477,80036.000,13492,3,AY,1,100,0.877
1576518655.461732,80067.333,13510,3,AY,1,100,0.870
1576518655.498987,80098.667,13510,3,AY,1,100,0.877
1576518655.536242,80130.000,13510,3,AY,1,100,0.883
1576518655.574685,80162.333,13526,3,AY,1,100,0.896
1576518655.613129,80194.667,13526,3,AY,1,100,0.882
1576518655.651573,80227.000,13526,3,AY,1,100,0.872
1576518655.693187,80262.000,13544,3,AY,1,100,0.878
1576518655.734801,80297.000,13544,3,AY,1,100,0.886
1576518655.776416,80332.000,13544,3,AY,1,100,0.881
1576518655.816445,80365.667,13562,3,AY,1,100,0.879
1576518655.856474,80399.333,13562,3,AY,1,100,0.882
1576518655.896503,80433.000,13562,3,AY,1,100,0.884
1576518655.941288,80470.667,13580,3,AY,1,100,0.888
1576518655.986073,80508.333,13580,3,AY,1,100,0.855
1576518656.030858,80546.000,13580,3,AY,1,100,0.882
1576518656.068905,80578.000,13599,3,AY,1,100,0.883
1576518656.106953,80610.000,13599,3,AY,1,100,0.886
1576518656.145000,80642.000,13599,3,AY,1,100,0.871
1576518656.183444,80674.333,13617,3,AY,1,100,0.877
1576518656.221888,80706.667,13617,3,AY,1,100,0.871
1576518656.260331,80739.000,13617,3,AY,1,100,0.878
1576518656.301153,80773.333,13635,3,AY,1,100,0.877
1576518656.341975,80807.667,13635,3,AY,1,100,0.882
1576518656.382797,80842.000,13635,3,AY,1,100,0.864
1576518656.423618,80876.333,13652,3,AY,1,100,0.868
1576518656.464440,80910.667,13652,3,AY,1,100,0.860
1576518656.505262,80945.000,13652,3,AY,1,100,0.895
1576518656.546876,80980.000,13670,3,AY,1,100,0.925
1576518656.588490,81015.000,13670,3,AY,1,100,0.895
1576518656.630105,81050.000,13670,3,AY,1,100,0.872
1576518656.671323,81084.667,13688,3,AY,1,100,0.871
1576518656.712541,81119.333,13688,3,AY,1,100,0.868
1576518656.753759,81154.000,13688,3,AY,1,100,0.869
1576518656.792995,81187.000,13704,3,AY,1,100,0.885
1576518656.832232,81220.000,13704,3,AY,1,100,0.878
1576518656.871468,81253.000,13704,3,AY,1,100,0.884
1576518656.911101,81286.333,13722,3,AY,1,100,0.883
1576518656.950733,81319.667,13722,3,AY,1,100,0.868
1576518656.990366,81353.000,13722,3,AY,1,100,0.895
1576518657.031584,81387.667,13741,3,AY,1,100,0.879
1576518657.072802,81422.333,13741,3,AY,1,100,0.879
1576518657.114020,81457.000,13741,3,AY,1,100,0.876
1576518657.155635,81492.000,13759,3,AY,1,100,0.883
1576518657.197249,81527.000,13759,3,AY,1,100,0.883
1576518657.238863,81562.000,13759,3,AY,1,100,0.875
1576518657.276118,81593.333,13777,3,AY,1,100,0.881
1576518657.313373,81624.667,13777,3,AY,1,100,0.887
1576518657.350628,81656.000,13777,3,AY,1,100,0.877
1576518657.389468,81688.667,13795,3,AY,1,100,0.875
1576518657.428308,81721.333,13795,3,AY,1,100,0.892
1576518657.467148,81754.000,13795,3,AY,1,100,0.881
1576518657.512924,81792.500,13813,2,AY,1,100,0.877
1576518657.558700,81831.000,13813,2,AY,1,100,0.879
1576518657.600314,81866.000,13830,3,AY,1,100,0.868
1576518657.641928,81901.000,13830,3,AY,1,100,0.880
1576518657.683542,81936.000,13830,3,AY,1,100,0.892
1576518657.724761,81970.667,13848,3,AY,1,100,0.887
1576518657.765979,82005.333,13848,3,AY,1,100,0.878
1576518657.807197,82040.000,13848,3,AY,1,100,0.870
1576518657.846037,82072.667,13864,3,AY,1,100,0.877
1576518657.884877,82105.333,13864,3,AY,1,100,0.886
1576518657.923717,82138.000,13864,3,AY,1,100,0.875
1576518657.968106,82175.333,13882,3,AY,1,100,0.888
1576518658.012494,82212.667,13882,3,AY,1,100,0.882
1576518658.056883,82250.000,13882,3,AY,1,100,0.869
1576518658.094930,82282.000,13901,3,AY,1,100,0.887
1576518658.132978,82314.000,13901,3,AY,1,100,0.878
1576518658.171025,82346.000,13901,3,AY,1,100,0.885
1576518658.216207,82384.000,13919,3,AY,1,100,0.845
1576518658.261388,82422.000,13919,3,AY,1,100,0.895
1576518658.306569,82460.000,13919,3,AY,1,100,0.883
1576518658.347391,82494.333,13937,3,AY,1,100,0.886
1576518658.388212,82528.667,13937,3,AY,1,100,0.872
1576518658.429034,82563.000,13937,3,AY,1,100,0.887
1576518658.469460,82597.000,13955,3,AY,1,100,0.884
1576518658.509885,82631.000,13955,3,AY,1,100,0.875
1576518658.550310,82665.000,13955,3,AY,1,100,0.860
1576518658.588358,82697.000,13973,3,AY,1,100,0.884
1576518658.626405,82729.000,13973,3,AY,1,100,0.877
1576518658.664453,82761.000,13973,3,AY,1,100,0.884
1576518658.702896,82793.333,13990,3,AY,1,100,0.890
1576518658.741340,82825.667,13990,3,AY,1,100,0.882
1576518658.779784,82858.000,13990,3,AY,1,100,0.882
1576518658.821002,82892.667,14008,3,AY,1,100,0.883
1576518658.862220,82927.333,14008,3,AY,1,100,0.868
1576518658.903438,82962.000,14008,3,AY,1,100,0.883
1576518658.943863,82996.000,14026,3,AY,1,100,0.875
1576518658.984289,83030.000,14026,3,AY,1,100,0.876
1576518659.024714,83064.000,14026,3,AY,1,100,0.877
1576518659.066923,83099.500,14043,2,AY,1,100,0.882
1576518659.109132,83135.000,14043,2,AY,1,100,0.863
1576518659.150152,83169.500,14061,4,AY,1,100,0.864
1576518659.191172,83204.000,14061,4,AY,1,100,0.871
1576518659.232191,83238.500,14061,4,AY,1,100,0.883
1576518659.273211,83273.000,14061,4,AY,1,100,0.870
1576518659.312051,83305.667,14079,3,AY,1,100,0.865
1576518659.350891,83338.333,14079,3,AY,1,100,0.878
1576518659.389731,83371.000,14079,3,AY,1,100,0.870
1576518659.429760,83404.667,14097,3,AY,1,100,0.880
1576518659.469790,83438.333,14097,3,AY,1,100,0.868
1576518659.509819,83472.000,14097,3,AY,1,100,0.880
1576518659.551037,83506.667,14115,3,AY,1,100,0.880
1576518659.592255,83541.333,14115,3,AY,1,100,0.882
1576518659.633473,83576.000,14115,3,AY,1,100,0.864
1576518659.675087,83611.000,14133,3,AY,1,100,0.869
1576518659.716702,83646.000,14133,3,AY,1,100,0.874
1576518659.758316,83681.000,14133,3,AY,1,100,0.896
1576518659.801119,83717.000,14151,2,AY,1,100,0.869
1576518659.843923,83753.000,14151,2,AY,1,100,0.884
1576518659.882366,83785.333,14168,3,AY,1,100,0.885
1576518659.920810,83817.667,14168,3,AY,1,100,0.880
1576518659.959254,83850.000,14168,3,AY,1,100,0.869
1576518659.999085,83883.500,14187,4,AY,1,100,0.882
1576518660.038916,83917.000,14187,4,AY,1,100,0.880
1576518660.078747,83950.500,14187,4,AY,1,100,0.889
1576518660.118577,83984.000,14187,4,AY,1,100,0.887
1576518660.160786,84019.500,14205,2,AY,1,100,0.884
1576518660.202995,84055.000,14205,2,AY,1,100,0.863
1576518660.243817,84089.333,14221,3,AY,1,100,0.879
1576518660.284638,84123.667,14221,3,AY,1,100,0.876
1576518660.325460,84158.000,14221,3,AY,1,100,0.878
1576518660.365489,84191.667,14239,3,AY,1,100,0.879
1576518660.405518,84225.333,14239,3,AY,1,100,0.878
1576518660.445547,84259.000,14239,3,AY,1,100,0.878
1576518660.487162,84294.000,14257,3,AY,1,100,0.911
1576518660.528776,84329.000,14257,3,AY,1,100,0.846
1576518660.570390,84364.000,14257,3,AY,1,100,0.890
1576518660.610816,84398.000,14275,3,AY,1,100,0.868
1576518660.651241,84432.000,14275,3,AY,1,100,0.880
1576518660.691667,84466.000,14275,3,AY,1,100,0.868
1576518660.732488,84500.333,14293,3,AY,1,100,0.891
1576518660.773310,84534.667,14293,3,AY,1,100,0.865
1576518660.814132,84569.000,14293,3,AY,1,100,0.890
1576518660.855270,84603.600,14314,5,AY,1,100,0.865
1576518660.896409,84638.200,14314,5,AY,1,100,0.903
1576518660.937548,84672.800,14314,5,AY,1,100,0.870
1576518660.978687,84707.400,14314,5,AY,1,100,0.881
1576518661.019825,84742.000,14314,5,AY,1,100,0.858
1576518661.057477,84773.667,14335,3,AY,1,100,0.857
1576518661.095128,84805.333,14335,3,AY,1,100,0.888
1576518661.132779,84837.000,14335,3,AY,1,100,0.895
1576518661.170826,84869.000,14353,3,AY,1,100,0.865
1576518661.208874,84901.000,14353,3,AY,1,100,0.885
1576518661.246921,84933.000,14353,3,AY,1,100,0.873
1576518661.292102,84971.000,14371,3,AY,1,100,0.891
1576518661.337284,85009.000,14371,3,AY,1,100,0.888
1576518661.382465,85047.000,14371,3,AY,1,100,0.865
1576518661.423683,85081.667,14389,3,AY,1,100,0.889
1576518661.464901,85116.333,14389,3,AY,1,100,0.862
1576518661.506119,85151.000,14389,3,AY,1,100,0.876
1576518661.548328,85186.500,14407,2,AY,1,100,0.867
1576518661.590537,85222.000,14407,2,AY,1,100,0.875
1576518661.629476,85254.750,14424,4,AY,1,100,0.873
1576518661.668415,85287.500,14424,4,AY,1,100,0.886
1576518661.707354,85320.250,14424,4,AY,1,100,0.873
1576518661.746294,85353.000,14424,4,AY,1,100,0.878
1576518661.787313,85387.500,14442,2,AY,1,100,0.882
1576518661.828333,85422.000,14442,2,AY,1,100,0.895
1576518661.870740,85457.667,14458,3,AY,1,100,0.885
1576518661.913147,85493.333,14458,3,AY,1,100,0.870
1576518661.955554,85529.000,14458,3,AY,1,100,0.884
1576518661.996376,85563.333,14476,3,AY,1,100,0.884
1576518662.037198,85597.667,14476,3,AY,1,100,0.876
1576518662.078019,85632.000,14476,3,AY,1,100,0.871
1576518662.123201,85670.000,14495,3,AY,1,100,0.854
1576518662.168382,85708.000,14495,3,AY,1,100,0.888
1576518662.213563,85746.000,14495,3,AY,1,100,0.897
1576518662.253989,85780.000,14513,3,AY,1,100,0.867
1576518662.294414,85814.000,14513,3,AY,1,100,0.865
1576518662.334839,85848.000,14513,3,AY,1,100,0.883
1576518662.372491,85879.667,14531,3,AY,1,100,0.893
1576518662.410142,85911.333,14531,3,AY,1,100,0.880
1576518662.447793,85943.000,14531,3,AY,1,100,0.869
1576518662.487426,85976.333,14549,3,AY,1,100,0.881
1576518662.527058,86009.667,14549,3,AY,1,100,0.879
1576518662.566691,86043.000,14549,3,AY,1,100,0.875
1576518662.607513,86077.333,14567,3,AY,1,100,0.876
1576518662.648334,86111.667,14567,3,AY,1,100,0.887
1576518662.689156,86146.000,14567,3,AY,1,100,0.868
1576518662.730374,86180.667,14584,3,AY,1,100,0.874
1576518662.771592,86215.333,14584,3,AY,1,100,0.880
1576518662.812810,86250.000,14584,3,AY,1,100,0.888
1576518662.854424,86285.000,14602,3,AY,1,100,0.871
1576518662.896039,86320.000,14602,3,AY,1,100,0.875
1576518662.937653,86355.000,14602,3,AY,1,100,0.879
1576518662.979664,86390.333,14618,3,AY,1,100,0.880
1576518663.021675,86425.667,14618,3,AY,1,100,0.880
1576518663.063685,86461.000,14618,3,AY,1,100,0.876
1576518663.104705,86495.500,14637,2,AY,1,100,0.877
1576518663.145725,86530.000,14637,2,AY,1,100,0.879
1576518663.185853,86563.750,14655,4,AY,1,100,0.876
1576518663.225981,86597.500,14655,4,AY,1,100,0.876
1576518663.266109,86631.250,14655,4,AY,1,100,0.882
1576518663.306238,86665.000,14655,4,AY,1,100,0.875
1576518663.345870,86698.333,14673,3,AY,1,100,0.873
1576518663.385503,86731.667,14673,3,AY,1,100,0.872
1576518663.425136,86765.000,14673,3,AY,1,100,0.882
1576518663.465561,86799.000,14691,3,AY,1,100,0.882
1576518663.505986,86833.000,14691,3,AY,1,100,0.866
1576518663.546412,86867.000,14691,3,AY,1,100,0.871
1576518663.588026,86902.000,14709,3,AY,1,100,0.883
1576518663.629641,86937.000,14709,3,AY,1,100,0.870
1576518663.671255,86972.000,14709,3,AY,1,100,0.881
1576518663.711680,87006.000,14727,2,AY,1,100,0.877
1576518663.752106,87040.000,14727,2,AY,1,100,0.877
1576518663.793720,87075.000,14745,3,AY,1,100,0.877
1576518663.835335,87110.000,14745,3,AY,1,100,0.879
1576518663.876949,87145.000,14745,3,AY,1,100,0.879
1576518663.916185,87178.000,14762,3,AY,1,100,0.877
1576518663.955422,87211.000,14762,3,AY,1,100,0.874
1576518663.994658,87244.000,14762,3,AY,1,100,0.868
1576518664.035480,87278.333,14781,3,AY,1,100,0.877
1576518664.076302,87312.667,14781,3,AY,1,100,0.869
1576518664.117123,87347.000,14781,3,AY,1,100,0.879
1576518664.158341,87381.667,14797,3,AY,1,100,0.864
1576518664.199559,87416.333,14797,3,AY,1,100,0.888
1576518664.240777,87451.000,14797,3,AY,1,100,0.871
1576518664.281995,87485.667,14815,3,AY,1,100,0.887
1576518664.323213,87520.333,14815,3,AY,1,100,0.860
1576518664.364431,87555.000,14815,3,AY,1,100,0.886
1576518664.402082,87586.667,14833,3,AY,1,100,0.864
1576518664.439734,87618.333,14833,3,AY,1,100,0.888
1576518664.477385,87650.000,14833,3,AY,1,100,0.872
1576518664.516225,87682.667,14851,3,AY,1,100,0.881
1576518664.555065,87715.333,14851,3,AY,1,100,0.879
1576518664.593905,87748.000,14851,3,AY,1,100,0.852
1576518664.638690,87785.667,14869,3,AY,1,100,0.886
1576518664.683475,87823.333,14869,3,AY,1,100,0.860
1576518664.728260,87861.000,14869,3,AY,1,100,0.879
1576518664.768685,87895.000,14887,3,AY,1,100,0.865
1576518664.809111,87929.000,14887,3,AY,1,100,0.870
1576518664.849536,87963.000,14887,3,AY,1,100,0.860
1576518664.891150,87998.000,14905,3,AY,1,100,0.883
1576518664.932765,88033.000,14905,3,AY,1,100,0.862
1576518664.974379,88068.000,14905,3,AY,1,100,0.884
1576518665.012427,88100.000,14923,3,AY,1,100,0.870
1576518665.050474,88132.000,14923,3,AY,1,100,0.880
1576518665.088521,88164.000,14923,3,AY,1,100,0.859
1576518665.125776,88195.333,14941,3,AY,1,100,0.885
1576518665.163031,88226.667,14941,3,AY,1,100,0.855
1576518665.200286,88258.000,14941,3,AY,1,100,0.885
1576518665.240711,88292.000,14959,3,AY,1,100,0.876
1576518665.281137,88326.000,14959,3,AY,1,100,0.885
1576518665.321562,88360.000,14959,3,AY,1,100,0.856
1576518665.366347,88397.667,14977,3,AY,1,100,0.876
1576518665.411132,88435.333,14977,3,AY,1,100,0.871
1576518665.455917,88473.000,14977,3,AY,1,100,0.888
1576518665.494360,88505.333,14993,3,AY,1,100,0.872
1576518665.532804,88537.667,14993,3,AY,1,100,0.873
1576518665.571248,88570.000,14993,3,AY,1,100,0.869
1576518665.616429,88608.000,15011,3,AY,1,100,0.872
1576518665.661611,88646.000,15011,3,AY,1,100,0.878
1576518665.706792,88684.000,15011,3,AY,1,100,0.879
1576518665.745236,88716.333,15029,3,AY,1,100,0.880
1576518665.783679,88748.667,15029,3,AY,1,100,0.880
1576518665.822123,88781.000,15029,3,AY,1,100,0.864
1576518665.868493,88820.000,15047,2,AY,1,100,0.864
1576518665.914864,88859.000,15047,2,AY,1,100,0.883
1576518665.956874,88894.333,15065,3,AY,1,100,0.879
1576518665.998885,88929.667,15065,3,AY,1,100,0.873
1576518666.040896,88965.000,15065,3,AY,1,100,0.866
1576518666.078943,88997.000,15084,4,AY,1,100,0.883
1576518666.116991,89029.000,15084,4,AY,1,100,0.866
1576518666.155038,89061.000,15084,4,AY,1,100,0.875
1576518666.193085,89093.000,15084,4,AY,1,100,0.881
1576518666.231925,89125.667,15101,3,AY,1,100,0.875
1576518666.270766,89158.333,15101,3,AY,1,100,0.865
1576518666.309606,89191.000,15101,3,AY,1,100,0.877
1576518666.350626,89225.500,15119,2,AY,1,100,0.875
1576518666.391645,89260.000,15119,2,AY,1,100,0.881
1576518666.433260,89295.000,15135,3,AY,1,100,0.874
1576518666.474874,89330.000,15135,3,AY,1,100,0.872
1576518666.516489,89365.000,15135,3,AY,1,100,0.875
1576518666.558499,89400.333,15153,3,AY,1,100,0.872
1576518666.600510,89435.667,15153,3,AY,1,100,0.879
1576518666.642521,89471.000,15153,3,AY,1,100,0.872
1576518666.683739,89505.667,15171,3,AY,1,100,0.874
1576518666.724957,89540.333,15171,3,AY,1,100,0.877
1576518666.766175,89575.000,15171,3,AY,1,100,0.869
1576518666.807789,89610.000,15189,3,AY,1,100,0.876
1576518666.849403,89645.000,15189,3,AY,1,100,0.871
1576518666.891018,89680.000,15189,3,AY,1,100,0.873
1576518666.930968,89713.600,15210,5,AY,1,100,0.877
1576518666.970917,89747.200,15210,5,AY,1,100,0.872
1576518667.010867,89780.800,15210,5,AY,1,100,0.872
1576518667.050817,89814.400,15210,5,AY,1,100,0.868
1576518667.090767,89848.000,15210,5,AY,1,100,0.873
1576518667.130399,89881.333,15229,3,AY,1,100,0.875
1576518667.170032,89914.667,15229,3,AY,1,100,0.872
1576518667.209665,89948.000,15229,3,AY,1,100,0.872
1576518667.250090,89982.000,15247,3,AY,1,100,0.865
1576518667.290516,90016.000,15247,3,AY,1,100,0.873
1576518667.330941,90050.000,15247,3,AY,1,100,0.872
1576518667.372159,90084.667,15265,3,AY,1,100,0.877
1576518667.413377,90119.333,15265,3,AY,1,100,0.870
1576518667.454595,90154.000,15265,3,AY,1,100,0.870
1576518667.493435,90186.667,15283,3,AY,1,100,0.872
1576518667.532275,90219.333,15283,3,AY,1,100,0.874
1576518667.571115,90252.000,15283,3,AY,1,100,0.880
1576518667.613126,90287.333,15301,3,AY,1,100,0.870
1576518667.655137,90322.667,15301,3,AY,1,100,0.869
1576518667.697147,90358.000,15301,3,AY,1,100,0.865
1576518667.737176,90391.667,15319,3,AY,1,100,0.881
1576518667.777205,90425.333,15319,3,AY,1,100,0.872
1576518667.817235,90459.000,15319,3,AY,1,100,0.873
1576518667.858453,90493.667,15337,3,AY,1,100,0.871
1576518667.899671,90528.333,15337,3,AY,1,100,0.863
1576518667.940889,90563.000,15337,3,AY,1,100,0.866
1576518667.981909,90597.500,15354,2,AY,1,100,0.888
1576518668.022928,90632.000,15354,2,AY,1,100,0.869
1576518668.063750,90666.333,15373,3,AY,1,100,0.874
1576518668.104572,90700.667,15373,3,AY,1,100,0.865
1576518668.145394,90735.000,15373,3,AY,1,100,0.875
1576518668.183144,90766.750,15391,4,AY,1,100,0.873
1576518668.220894,90798.500,15391,4,AY,1,100,0.874
1576518668.258644,90830.250,15391,4,AY,1,100,0.868
1576518668.296394,90862.000,15391,4,AY,1,100,0.872
1576518668.335631,90895.000,15407,2,AY,1,100,0.869
1576518668.374867,90928.000,15407,2,AY,1,100,0.870
1576518668.419256,90965.333,15425,3,AY,1,100,0.873
1576518668.463645,91002.667,15425,3,AY,1,100,0.873
1576518668.508033,91040.000,15425,3,AY,1,100,0.884
1576518668.549251,91074.667,15443,3,AY,1,100,0.857
1576518668.590469,91109.333,15443,3,AY,1,100,0.858
1576518668.631687,91144.000,15443,3,AY,1,100,0.847
1576518668.673698,91179.333,15461,3,AY,1,100,0.867
1576518668.715708,91214.667,15461,3,AY,1,100,0.880
1576518668.757719,91250.000,15461,3,AY,1,100,0.864
1576518668.794578,91281.000,15479,3,AY,1,100,0.887
1576518668.831436,91312.000,15479,3,AY,1,100,0.915
1576518668.868294,91343.000,15479,3,AY,1,100,0.861
1576518668.906936,91375.500,15497,4,AY,1,100,0.837
1576518668.945578,91408.000,15497,4,AY,1,100,0.834
1576518668.984220,91440.500,15497,4,AY,1,100,0.840
1576518669.022862,91473.000,15497,4,AY,1,100,0.871
1576518669.063287,91507.000,15515,2,AY,1,100,0.881
1576518669.103713,91541.000,15515,2,AY,1,100,0.893
1576518669.148894,91579.000,15534,3,AY,1,100,0.859
1576518669.194076,91617.000,15534,3,AY,1,100,0.847
1576518669.239257,91655.000,15534,3,AY,1,100,0.860
1576518669.280871,91690.000,15551,3,AY,1,100,0.863
1576518669.322486,91725.000,15551,3,AY,1,100,0.863
1576518669.364100,91760.000,15551,3,AY,1,100,0.869
1576518669.406507,91795.667,15567,3,AY,1,100,0.857
1576518669.448914,91831.333,15567,3,AY,1,100,0.856
1576518669.491321,91867.000,15567,3,AY,1,100,0.865
1576518669.530161,91899.667,15585,3,AY,1,100,0.859
1576518669.569001,91932.333,15585,3,AY,1,100,0.860
1576518669.607841,91965.000,15585,3,AY,1,100,0.862
1576518669.652626,92002.667,15603,3,AY,1,100,0.864
1576518669.697411,92040.333,15603,3,AY,1,100,0.856
1576518669.742196,92078.000,15603,3,AY,1,100,0.845
1576518669.783216,92112.500,15621,2,AY,1,100,0.887
1576518669.824236,92147.000,15621,2,AY,1,100,0.862
1576518669.862878,92179.500,15639,4,AY,1,100,0.872
1576518669.901520,92212.000,15639,4,AY,1,100,0.859
1576518669.940162,92244.500,15639,4,AY,1,100,0.865
1576518669.978804,92277.000,15639,4,AY,1,100,0.867
1576518670.018436,92310.333,15657,3,AY,1,100,0.857
1576518670.058069,92343.667,15657,3,AY,1,100,0.858
1576518670.097702,92377.000,15657,3,AY,1,100,0.855
1576518670.135749,92409.000,15676,3,AY,1,100,0.876
1576518670.173797,92441.000,15676,3,AY,1,100,0.885
1576518670.211844,92473.000,15676,3,AY,1,100,0.880
1576518670.251477,92506.333,15694,3,AY,1,100,0.857
1576518670.291109,92539.667,15694,3,AY,1,100,0.867
1576518670.330742,92573.000,15694,3,AY,1,100,0.860
1576518670.371960,92607.667,15711,3,AY,1,100,0.870
1576518670.413178,92642.333,15711,3,AY,1,100,0.863
1576518670.454396,92677.000,15711,3,AY,1,100,0.863
1576518670.495614,92711.667,15729,3,AY,1,100,0.866
1576518670.536832,92746.333,15729,3,AY,1,100,0.871
1576518670.578050,92781.000,15729,3,AY,1,100,0.872
1576518670.618476,92815.000,15745,2,AY,1,100,0.868
1576518670.658901,92849.000,15745,2,AY,1,100,0.864
1576518670.699029,92882.750,15763,4,AY,1,100,0.868
1576518670.739157,92916.500,15763,4,AY,1,100,0.865
1576518670.779286,92950.250,15763,4,AY,1,100,0.871
1576518670.819414,92984.000,15763,4,AY,1,100,0.878
1576518670.858650,93017.000,15781,3,AY,1,100,0.867
1576518670.897887,93050.000,15781,3,AY,1,100,0.866
1576518670.937123,93083.000,15781,3,AY,1,100,0.873
1576518670.978737,93118.000,15799,3,AY,1,100,0.860
1576518671.020352,93153.000,15799,3,AY,1,100,0.869
1576518671.061966,93188.000,15799,3,AY,1,100,0.866
1576518671.102391,93222.000,15818,3,AY,1,100,0.871
1576518671.142817,93256.000,15818,3,AY,1,100,0.864
1576518671.183242,93290.000,15818,3,AY,1,100,0.865
1576518671.225451,93325.500,15836,2,AY,1,100,0.871
1576518671.267660,93361.000,15836,2,AY,1,100,0.865
1576518671.305410,93392.750,15854,4,AY,1,100,0.867
1576518671.343160,93424.500,15854,4,AY,1,100,0.878
1576518671.380910,93456.250,15854,4,AY,1,100,0.861
1576518671.418661,93488.000,15854,4,AY,1,100,0.868
1576518671.462653,93525.000,15872,2,AY,1,100,0.867
1576518671.506645,93562.000,15872,2,AY,1,100,0.874
1576518671.547863,93596.667,15889,3,AY,1,100,0.864
1576518671.589081,93631.333,15889,3,AY,1,100,0.873
1576518671.630299,93666.000,15889,3,AY,1,100,0.861
1576518671.671914,93701.000,15907,3,AY,1,100,0.863
1576518671.713528,93736.000,15907,3,AY,1,100,0.872
1576518671.755142,93771.000,15907,3,AY,1,100,0.861
1576518671.797153,93806.333,15923,3,AY,1,100,0.874
1576518671.839164,93841.667,15923,3,AY,1,100,0.863
1576518671.881175,93877.000,15923,3,AY,1,100,0.857
1576518671.918033,93908.000,15941,3,AY,1,100,0.879
1576518671.954891,93939.000,15941,3,AY,1,100,0.857
1576518671.991750,93970.000,15941,3,AY,1,100,0.863
1576518672.029797,94002.000,15959,3,AY,1,100,0.865
1576518672.067845,94034.000,15959,3,AY,1,100,0.880
1576518672.105892,94066.000,15959,3,AY,1,100,0.859
1576518672.150677,94103.667,15978,3,AY,1,100,0.877
1576518672.195462,94141.333,15978,3,AY,1,100,0.856
1576518672.240247,94179.000,15978,3,AY,1,100,0.893
1576518672.281861,94214.000,15996,3,AY,1,100,0.832
1576518672.323476,94249.000,15996,3,AY,1,100,0.910
1576518672.365090,94284.000,15996,3,AY,1,100,0.838
1576518672.406308,94318.667,16014,3,AY,1,100,0.878
1576518672.447526,94353.333,16014,3,AY,1,100,0.860
1576518672.488744,94388.000,16014,3,AY,1,100,0.862
1576518672.527188,94420.333,16032,3,AY,1,100,0.863
1576518672.565632,94452.667,16032,3,AY,1,100,0.877
1576518672.604075,94485.000,16032,3,AY,1,100,0.855
1576518672.641726,94516.667,16050,3,AY,1,100,0.867
1576518672.679378,94548.333,16050,3,AY,1,100,0.863
1576518672.717029,94580.000,16050,3,AY,1,100,0.868
1576518672.757454,94614.000,16067,3,AY,1,100,0.894
1576518672.797879,94648.000,16067,3,AY,1,100,0.839
1576518672.838305,94682.000,16067,3,AY,1,100,0.889
1576518672.883486,94720.000,16085,3,AY,1,100,0.851
1576518672.928668,94758.000,16085,3,AY,1,100,0.878
1576518672.973849,94796.000,16085,3,AY,1,100,0.849
1576518673.012847,94828.800,16106,5,AY,1,100,0.880
1576518673.051846,94861.600,16106,5,AY,1,100,0.849
1576518673.090845,94894.400,16106,5,AY,1,100,0.882
1576518673.129843,94927.200,16106,5,AY,1,100,0.857
1576518673.168842,94960.000,16106,5,AY,1,100,0.884
1576518673.215212,94999.000,16127,2,AY,1,100,0.843
1576518673.261582,95038.000,16127,2,AY,1,100,0.877
1576518673.301611,95071.667,16144,3,AY,1,100,0.859
1576518673.341640,95105.333,16144,3,AY,1,100,0.883
1576518673.381670,95139.000,16144,3,AY,1,100,0.854
1576518673.424077,95174.667,16162,3,AY,1,100,0.868
1576518673.466484,95210.333,16162,3,AY,1,100,0.860
1576518673.508891,95246.000,16162,3,AY,1,100,0.863
1576518673.546145,95277.333,16178,3,AY,1,100,0.868
1576518673.583400,95308.667,16178,3,AY,1,100,0.870
1576518673.620655,95340.000,16178,3,AY,1,100,0.868
1576518673.665440,95377.667,16196,3,AY,1,100,0.872
1576518673.710225,95415.333,16196,3,AY,1,100,0.865
1576518673.755010,95453.000,16196,3,AY,1,100,0.864
1576518673.793057,95485.000,16214,3,AY,1,100,0.875
1576518673.831105,95517.000,16214,3,AY,1,100,0.865
1576518673.869152,95549.000,16214,3,AY,1,100,0.872
1576518673.907596,95581.333,16232,3,AY,1,100,0.870
1576518673.946039,95613.667,16232,3,AY,1,100,0.867
1576518673.984483,95646.000,16232,3,AY,1,100,0.867
1576518674.024116,95679.333,16250,3,AY,1,100,0.877
1576518674.063749,95712.667,16250,3,AY,1,100,0.871
1576518674.103381,95746.000,16250,3,AY,1,100,0.867
1576518674.144599,95780.667,16269,3,AY,1,100,0.866
1576518674.185817,95815.333,16269,3,AY,1,100,0.877
1576518674.227036,95850.000,16269,3,AY,1,100,0.879
1576518674.268650,95885.000,16287,3,AY,1,100,0.868
1576518674.310264,95920.000,16287,3,AY,1,100,0.874
1576518674.351879,95955.000,16287,3,AY,1,100,0.867
1576518674.394286,95990.667,16305,3,AY,1,100,0.861
1576518674.436693,96026.333,16305,3,AY,1,100,0.865
1576518674.479100,96062.000,16305,3,AY,1,100,0.876
1576518674.513977,96091.333,16322,3,AY,1,100,0.884
1576518674.548853,96120.667,16322,3,AY,1,100,0.885
1576518674.583730,96150.000,16322,3,AY,1,100,0.861
1576518674.625741,96185.333,16340,3,AY,1,100,0.860
1576518674.667752,96220.667,16340,3,AY,1,100,0.874
1576518674.709762,96256.000,16340,3,AY,1,100,0.878
1576518674.747413,96287.667,16358,3,AY,1,100,0.886
1576518674.785064,96319.333,16358,3,AY,1,100,0.873
1576518674.822716,96351.000,16358,3,AY,1,100,0.869
1576518674.862745,96384.667,16376,3,AY,1,100,0.872
1576518674.902774,96418.333,16376,3,AY,1,100,0.879
1576518674.942803,96452.000,16376,3,AY,1,100,0.883
1576518674.984021,96486.667,16392,3,AY,1,100,0.875
1576518675.025239,96521.333,16392,3,AY,1,100,0.868
1576518675.066457,96556.000,16392,3,AY,1,100,0.867
1576518675.107278,96590.333,16411,3,AY,1,100,0.888
1576518675.148100,96624.667,16411,3,AY,1,100,0.882
1576518675.188922,96659.000,16411,3,AY,1,100,0.867
1576518675.227762,96691.667,16429,3,AY,1,100,0.883
1576518675.266602,96724.333,16429,3,AY,1,100,0.880
1576518675.305442,96757.000,16429,3,AY,1,100,0.863
1576518675.343489,96789.000,16447,3,AY,1,100,0.883
1576518675.381537,96821.000,16447,3,AY,1,100,0.875
1576518675.419584,96853.000,16447,3,AY,1,100,0.866
1576518675.464369,96890.667,16465,3,AY,1,100,0.870
1576518675.509154,96928.333,16465,3,AY,1,100,0.887
1576518675.553939,96966.000,16465,3,AY,1,100,0.889
1576518675.595157,97000.667,16483,3,AY,1,100,0.873
1576518675.636375,97035.333,16483,3,AY,1,100,0.867
1576518675.677593,97070.000,16483,3,AY,1,100,0.868
1576518675.718415,97104.333,16501,3,AY,1,100,0.877
1576518675.759237,97138.667,16501,3,AY,1,100,0.882
1576518675.800059,97173.000,16501,3,AY,1,100,0.873
1576518675.838899,97205.667,16518,3,AY,1,100,0.853
1576518675.877739,97238.333,16518,3,AY,1,100,0.869
1576518675.916579,97271.000,16518,3,AY,1,100,0.900
1576518675.955023,97303.333,16536,3,AY,1,100,0.875
1576518675.993466,97335.667,16536,3,AY,1,100,0.872
1576518676.031910,97368.000,16536,3,AY,1,100,0.874
1576518676.071939,97401.667,16554,3,AY,1,100,0.870
1576518676.111968,97435.333,16554,3,AY,1,100,0.875
1576518676.151997,97469.000,16554,3,AY,1,100,0.880
1576518676.193611,97504.000,16571,3,AY,1,100,0.877
1576518676.235226,97539.000,16571,3,AY,1,100,0.876
1576518676.276840,97574.000,16571,3,AY,1,100,0.878
1576518676.321625,97611.667,16589,3,AY,1,100,0.870
1576518676.366410,97649.333,16589,3,AY,1,100,0.884
1576518676.411195,97687.000,16589,3,AY,1,100,0.875
1576518676.450035,97719.667,16607,3,AY,1,100,0.867
1576518676.488875,97752.333,16607,3,AY,1,100,0.868
1576518676.527715,97785.000,16607,3,AY,1,100,0.865
1576518676.564970,97816.333,16625,3,AY,1,100,0.866
1576518676.602225,97847.667,16625,3,AY,1,100,0.879
1576518676.639480,97879.000,16625,3,AY,1,100,0.888
1576518676.679509,97912.667,16643,3,AY,1,100,0.879
1576518676.719538,97946.333,16643,3,AY,1,100,0.873
1576518676.759567,97980.000,16643,3,AY,1,100,0.869
1576518676.800389,98014.333,16661,3,AY,1,100,0.879
1576518676.841210,98048.667,16661,3,AY,1,100,0.874
1576518676.882032,98083.000,16661,3,AY,1,100,0.877
1576518676.924439,98118.667,16679,3,AY,1,100,0.872
1576518676.966846,98154.333,16679,3,AY,1,100,0.875
1576518677.009253,98190.000,16679,3,AY,1,100,0.879
1576518677.050471,98224.667,16696,3,AY,1,100,0.888
1576518677.091689,98259.333,16696,3,AY,1,100,0.885
1576518677.132907,98294.000,16696,3,AY,1,100,0.848
1576518677.179872,98333.500,16715,2,AY,1,100,0.888
1576518677.226837,98373.000,16715,2,AY,1,100,0.875
1576518677.266073,98406.000,16731,3,AY,1,100,0.825
1576518677.305310,98439.000,16731,3,AY,1,100,0.909
1576518677.344546,98472.000,16731,3,AY,1,100,0.989
1576518677.385368,98506.333,16749,3,AY,1,100,0.818
1576518677.426189,98540.667,16749,3,AY,1,100,0.939
1576518677.467011,98575.000,16749,3,AY,1,100,0.848
1576518677.506248,98608.000,16767,3,AY,1,100,0.818
1576518677.545484,98641.000,16767,3,AY,1,100,0.883
1576518677.584720,98674.000,16767,3,AY,1,100,0.849
1576518677.623362,98706.500,16785,4,AY,1,100,0.855
1576518677.662004,98739.000,16785,4,AY,1,100,0.861
1576518677.700646,98771.500,16785,4,AY,1,100,0.910
1576518677.739288,98804.000,16785,4,AY,1,100,0.884
1576518677.779317,98837.667,16803,3,AY,1,100,0.915
1576518677.819346,98871.333,16803,3,AY,1,100,0.820
1576518677.859375,98905.000,16803,3,AY,1,100,0.923
1576518677.899008,98938.333,16821,3,AY,1,100,0.820
1576518677.938640,98971.667,16821,3,AY,1,100,0.820
1576518677.978273,99005.000,16821,3,AY,1,100,0.943
1576518678.018302,99038.667,16839,3,AY,1,100,0.913
1576518678.058331,99072.333,16839,3,AY,1,100,0.876
1576518678.098360,99106.000,16839,3,AY,1,100,0.869
1576518678.139975,99141.000,16858,2,AY,1,100,0.881
1576518678.181589,99176.000,16858,2,AY,1,100,0.835
1576518678.223600,99211.333,16875,3,AY,1,100,0.892
1576518678.265610,99246.667,16875,3,AY,1,100,0.841
1576518678.307621,99282.000,16875,3,AY,1,100,0.906
1576518678.346065,99314.333,16893,3,AY,1,100,0.860
1576518678.384509,99346.667,16893,3,AY,1,100,0.865
1576518678.422952,99379.000,16893,3,AY,1,100,0.906
1576518678.461297,99411.250,16911,4,AY,1,100,0.876
1576518678.499642,99443.500,16911,4,AY,1,100,0.866
1576518678.537986,99475.750,16911,4,AY,1,100,0.873
1576518678.576331,99508.000,16911,4,AY,1,100,0.865
1576518678.622107,99546.500,16927,2,AY,1,100,0.890
1576518678.667883,99585.000,16927,2,AY,1,100,0.867
1576518678.707912,99618.667,16945,3,AY,1,100,0.881
1576518678.747941,99652.333,16945,3,AY,1,100,0.837
1576518678.787970,99686.000,16945,3,AY,1,100,0.844
1576518678.829584,99721.000,16963,3,AY,1,100,0.906
1576518678.871199,99756.000,16963,3,AY,1,100,0.856
1576518678.912813,99791.000,16963,3,AY,1,100,0.909
1576518678.951257,99823.333,16981,3,AY,1,100,0.838
1576518678.989700,99855.667,16981,3,AY,1,100,0.914
1576518679.028144,99888.000,16981,3,AY,1,100,0.872
1576518679.068807,99922.200,17002,5,AY,1,100,0.868
1576518679.109471,99956.400,17002,5,AY,1,100,0.855
1576518679.150134,99990.600,17002,5,AY,1,100,0.833
1576518679.190797,100024.800,17002,5,AY,1,100,0.880
1576518679.231460,100059.000,17002,5,AY,1,100,0.913
1576518679.272678,100093.667,17021,3,AY,1,100,0.920
1576518679.313896,100128.333,17021,3,AY,1,100,0.883
1576518679.355114,100163.000,17021,3,AY,1,100,0.869
1576518679.396332,100197.667,17039,3,AY,1,100,0.870
1576518679.437550,100232.333,17039,3,AY,1,100,0.865
1576518679.478768,100267.000,17039,3,AY,1,100,0.886
1576518679.519194,100301.000,17057,3,AY,1,100,0.863
1576518679.559619,100335.000,17057,3,AY,1,100,0.890
1576518679.600044,100369.000,17057,3,AY,1,100,0.906
1576518679.638092,100401.000,17075,3,AY,1,100,0.888
1576518679.676139,100433.000,17075,3,AY,1,100,0.884
1576518679.714187,100465.000,17075,3,AY,1,100,0.873
1576518679.753027,100497.667,17093,3,AY,1,100,0.873
1576518679.791867,100530.333,17093,3,AY,1,100,0.873
1576518679.830707,100563.000,17093,3,AY,1,100,0.875
1576518679.875888,100601.000,17111,3,AY,1,100,0.872
1576518679.921069,100639.000,17111,3,AY,1,100,0.890
1576518679.966251,100677.000,17111,3,AY,1,100,0.892
1576518680.006676,100711.000,17129,3,AY,1,100,0.887
1576518680.047101,100745.000,17129,3,AY,1,100,0.889
1576518680.087527,100779.000,17129,3,AY,1,100,0.874
1576518680.129141,100814.000,17147,2,AY,1,100,0.865
1576518680.170756,100849.000,17147,2,AY,1,100,0.888
1576518680.208506,100880.750,17165,4,AY,1,100,0.876
1576518680.246256,100912.500,17165,4,AY,1,100,0.887
1576518680.284006,100944.250,17165,4,AY,1,100,0.885
1576518680.321756,100976.000,17165,4,AY,1,100,0.874
1576518680.359804,101008.000,17183,3,AY,1,100,0.889
1576518680.397851,101040.000,17183,3,AY,1,100,0.879
1576518680.435899,101072.000,17183,3,AY,1,100,0.888
1576518680.476720,101106.333,17200,3,AY,1,100,0.873
1576518680.517542,101140.667,17200,3,AY,1,100,0.886
1576518680.558364,101175.000,17200,3,AY,1,100,0.875
1576518680.599185,101209.333,17217,3,AY,1,100,0.869
1576518680.640007,101243.667,17217,3,AY,1,100,0.883
1576518680.680829,101278.000,17217,3,AY,1,100,0.884
1576518680.728388,101318.000,17235,2,AY,1,100,0.882
1576518680.775947,101358.000,17235,2,AY,1,100,0.887
1576518680.813995,101390.000,17253,3,AY,1,100,0.884
1576518680.852042,101422.000,17253,3,AY,1,100,0.879
1576518680.890090,101454.000,17253,3,AY,1,100,0.866
1576518680.932893,101490.000,17271,3,AY,1,100,0.879
1576518680.975696,101526.000,17271,3,AY,1,100,0.885
1576518681.018500,101562.000,17271,3,AY,1,100,0.901
1576518681.059321,101596.333,17289,3,AY,1,100,0.886
1576518681.100143,101630.667,17289,3,AY,1,100,0.887
1576518681.140965,101665.000,17289,3,AY,1,100,0.868
1576518681.184561,101701.667,17307,3,AY,1,100,0.884
1576518681.228157,101738.333,17307,3,AY,1,100,0.883
1576518681.271753,101775.000,17307,3,AY,1,100,0.896
1576518681.309800,101807.000,17325,3,AY,1,100,0.875
1576518681.347848,101839.000,17325,3,AY,1,100,0.873
1576518681.385895,101871.000,17325,3,AY,1,100,0.865
1576518681.425132,101904.000,17343,3,AY,1,100,0.885
1576518681.464368,101937.000,17343,3,AY,1,100,0.895
1576518681.503604,101970.000,17343,3,AY,1,100,0.877
1576518681.541652,102002.000,17361,3,AY,1,100,0.870
1576518681.579699,102034.000,17361,3,AY,1,100,0.875
1576518681.617747,102066.000,17361,3,AY,1,100,0.882
1576518681.656983,102099.000,17377,3,AY,1,100,0.887
1576518681.696219,102132.000,17377,3,AY,1,100,0.873
1576518681.735456,102165.000,17377,3,AY,1,100,0.878
1576518681.777070,102200.000,17395,3,AY,1,100,0.874
1576518681.818685,102235.000,17395,3,AY,1,100,0.880
1576518681.860299,102270.000,17395,3,AY,1,100,0.884
1576518681.901517,102304.667,17413,3,AY,1,100,0.883
1576518681.942735,102339.333,17413,3,AY,1,100,0.872
1576518681.983953,102374.000,17413,3,AY,1,100,0.872
1576518682.024775,102408.333,17431,3,AY,1,100,0.872
1576518682.065596,102442.667,17431,3,AY,1,100,0.880
1576518682.106418,102477.000,17431,3,AY,1,100,0.875
1576518682.148032,102512.000,17450,3,AY,1,100,0.876
1576518682.189647,102547.000,17450,3,AY,1,100,0.872
1576518682.231261,102582.000,17450,3,AY,1,100,0.878
1576518682.270101,102614.667,17468,3,AY,1,100,0.873
1576518682.308941,102647.333,17468,3,AY,1,100,0.881
1576518682.347781,102680.000,17468,3,AY,1,100,0.867
1576518682.389396,102715.000,17486,3,AY,1,100,0.882
1576518682.431010,102750.000,17486,3,AY,1,100,0.890
1576518682.472625,102785.000,17486,3,AY,1,100,0.864
1576518682.513050,102819.000,17503,3,AY,1,100,0.887
1576518682.553475,102853.000,17503,3,AY,1,100,0.870
1576518682.593901,102887.000,17503,3,AY,1,100,0.884
1576518682.635515,102922.000,17521,3,AY,1,100,0.884
1576518682.677129,102957.000,17521,3,AY,1,100,0.874
1576518682.718744,102992.000,17521,3,AY,1,100,0.870
1576518682.755998,103023.333,17539,3,AY,1,100,0.872
1576518682.793253,103054.667,17539,3,AY,1,100,0.882
1576518682.830508,103086.000,17539,3,AY,1,100,0.870
1576518682.868952,103118.333,17555,3,AY,1,100,0.892
1576518682.907395,103150.667,17555,3,AY,1,100,0.889
1576518682.945839,103183.000,17555,3,AY,1,100,0.873
1576518682.991417,103221.333,17573,3,AY,1,100,0.866
1576518683.036994,103259.667,17573,3,AY,1,100,0.885
1576518683.082572,103298.000,17573,3,AY,1,100,0.871
1576518683.123394,103332.333,17592,3,AY,1,100,0.868
1576518683.164216,103366.667,17592,3,AY,1,100,0.876
1576518683.205037,103401.000,17592,3,AY,1,100,0.880
1576518683.246255,103435.667,17610,3,AY,1,100,0.868
1576518683.287473,103470.333,17610,3,AY,1,100,0.881
1576518683.328691,103505.000,17610,3,AY,1,100,0.876
1576518683.366739,103537.000,17628,3,AY,1,100,0.874
1576518683.404786,103569.000,17628,3,AY,1,100,0.874
1576518683.442834,103601.000,17628,3,AY,1,100,0.882
1576518683.481277,103633.333,17646,3,AY,1,100,0.875
1576518683.519721,103665.667,17646,3,AY,1,100,0.872
1576518683.558165,103698.000,17646,3,AY,1,100,0.875
1576518683.598590,103732.000,17664,3,AY,1,100,0.879
1576518683.639016,103766.000,17664,3,AY,1,100,0.874
1576518683.679441,103800.000,17664,3,AY,1,100,0.881
1576518683.726406,103839.500,17681,2,AY,1,100,0.871
1576518683.773371,103879.000,17681,2,AY,1,100,0.870
1576518683.814192,103913.333,17699,3,AY,1,100,0.872
1576518683.855014,103947.667,17699,3,AY,1,100,0.884
1576518683.895836,103982.000,17699,3,AY,1,100,0.875
1576518683.934180,104014.250,17717,4,AY,1,100,0.878
1576518683.972525,104046.500,17717,4,AY,1,100,0.877
1576518684.010870,104078.750,17717,4,AY,1,100,0.876
1576518684.049214,104111.000,17717,4,AY,1,100,0.872
1576518684.088451,104144.000,17733,3,AY,1,100,0.881
1576518684.127687,104177.000,17733,3,AY,1,100,0.876
1576518684.166924,104210.000,17733,3,AY,1,100,0.874
1576518684.206160,104243.000,17752,3,AY,1,100,0.875
1576518684.245396,104276.000,17752,3,AY,1,100,0.883
1576518684.284633,104309.000,17752,3,AY,1,100,0.874
1576518684.326247,104344.000,17770,3,AY,1,100,0.882
1576518684.367862,104379.000,17770,3,AY,1,100,0.869
1576518684.409476,104414.000,17770,3,AY,1,100,0.885
1576518684.456441,104453.500,17788,2,AY,1,100,0.877
1576518684.503405,104493.000,17788,2,AY,1,100,0.878
1576518684.541453,104525.000,17806,3,AY,1,100,0.871
1576518684.579500,104557.000,17806,3,AY,1,100,0.884
1576518684.617548,104589.000,17806,3,AY,1,100,0.880
1576518684.662729,104627.000,17824,3,AY,1,100,0.875
1576518684.707910,104665.000,17824,3,AY,1,100,0.876
1576518684.753092,104703.000,17824,3,AY,1,100,0.879
1576518684.790743,104734.667,17841,3,AY,1,100,0.872
1576518684.828394,104766.333,17841,3,AY,1,100,0.880
1576518684.866045,104798.000,17841,3,AY,1,100,0.873
1576518684.911226,104836.000,17859,3,AY,1,100,0.880
1576518684.956408,104874.000,17859,3,AY,1,100,0.873
1576518685.001589,104912.000,17859,3,AY,1,100,0.876
1576518685.040033,104944.333,17875,3,AY,1,100,0.872
1576518685.078476,104976.667,17875,3,AY,1,100,0.878
1576518685.116920,105009.000,17875,3,AY,1,100,0.874
1576518685.157345,105043.000,17897,5,AY,1,100,0.878
1576518685.197771,105077.000,17897,5,AY,1,100,0.876
1576518685.238196,105111.000,17897,5,AY,1,100,0.878
1576518685.278621,105145.000,17897,5,AY,1,100,0.876
1576518685.319047,105179.000,17897,5,AY,1,100,0.882
1576518685.357491,105211.333,17917,3,AY,1,100,0.871
1576518685.395934,105243.667,17917,3,AY,1,100,0.875
1576518685.434378,105276.000,17917,3,AY,1,100,0.875
1576518685.474803,105310.000,17934,3,AY,1,100,0.881
1576518685.515229,105344.000,17934,3,AY,1,100,0.878
1576518685.555654,105378.000,17934,3,AY,1,100,0.877
1576518685.597269,105413.000,17952,2,AY,1,100,0.874
1576518685.638883,105448.000,17952,2,AY,1,100,0.874
1576518685.680497,105483.000,17968,3,AY,1,100,0.882
1576518685.722112,105518.000,17968,3,AY,1,100,0.873
1576518685.763726,105553.000,17968,3,AY,1,100,0.871
1576518685.805737,105588.333,17986,3,AY,1,100,0.874
1576518685.847748,105623.667,17986,3,AY,1,100,0.873
1576518685.889758,105659.000,17986,3,AY,1,100,0.876
1576518685.931769,105694.333,18004,3,AY,1,100,0.873
1576518685.973780,105729.667,18004,3,AY,1,100,0.878
1576518686.015790,105765.000,18004,3,AY,1,100,0.877
1576518686.054234,105797.333,18022,3,AY,1,100,0.882
1576518686.092678,105829.667,18022,3,AY,1,100,0.869
1576518686.131121,105862.000,18022,3,AY,1,100,0.877
1576518686.172736,105897.000,18041,3,AY,1,100,0.872
1576518686.214350,105932.000,18041,3,AY,1,100,0.876
1576518686.255965,105967.000,18041,3,AY,1,100,0.877
1576518686.295597,106000.333,18059,3,AY,1,100,0.876
1576518686.335230,106033.667,18059,3,AY,1,100,0.884
1576518686.374863,106067.000,18059,3,AY,1,100,0.867
1576518686.416081,106101.667,18077,3,AY,1,100,0.870
1576518686.457299,106136.333,18077,3,AY,1,100,0.876
1576518686.498517,106171.000,18077,3,AY,1,100,0.875
1576518686.538942,106205.000,18094,3,AY,1,100,0.879
1576518686.579368,106239.000,18094,3,AY,1,100,0.872
1576518686.619793,106273.000,18094,3,AY,1,100,0.875
1576518686.659822,106306.667,18112,3,AY,1,100,0.878
1576518686.699851,106340.333,18112,3,AY,1,100,0.863
1576518686.739880,106374.000,18112,3,AY,1,100,0.883
1576518686.777135,106405.333,18130,3,AY,1,100,0.878
1576518686.814390,106436.667,18130,3,AY,1,100,0.876
1576518686.851645,106468.000,18130,3,AY,1,100,0.875
1576518686.890485,106500.667,18146,3,AY,1,100,0.874
1576518686.929325,106533.333,18146,3,AY,1,100,0.875
1576518686.968165,106566.000,18146,3,AY,1,100,0.870
1576518687.013742,106604.333,18164,3,AY,1,100,0.880
1576518687.059320,106642.667,18164,3,AY,1,100,0.879
1576518687.104897,106681.000,18164,3,AY,1,100,0.881
1576518687.145719,106715.333,18183,3,AY,1,100,0.873
1576518687.186541,106749.667,18183,3,AY,1,100,0.873
1576518687.227363,106784.000,18183,3,AY,1,100,0.873
1576518687.266995,106817.333,18201,3,AY,1,100,0.880
1576518687.306628,106850.667,18201,3,AY,1,100,0.873
1576518687.346261,106884.000,18201,3,AY,1,100,0.876
1576518687.384705,106916.333,18219,3,AY,1,100,0.871
1576518687.423148,106948.667,18219,3,AY,1,100,0.872
1576518687.461592,106981.000,18219,3,AY,1,100,0.877
1576518687.501225,107014.333,18237,3,AY,1,100,0.878
1576518687.540858,107047.667,18237,3,AY,1,100,0.869
1576518687.580490,107081.000,18237,3,AY,1,100,0.877
1576518687.622105,107116.000,18255,3,AY,1,100,0.886
1576518687.663719,107151.000,18255,3,AY,1,100,0.865
1576518687.705333,107186.000,18255,3,AY,1,100,0.890
1576518687.750118,107223.667,18272,3,AY,1,100,0.857
1576518687.794903,107261.333,18272,3,AY,1,100,0.866
1576518687.839688,107299.000,18272,3,AY,1,100,0.903
1576518687.879717,107332.667,18290,3,AY,1,100,0.861
1576518687.919746,107366.333,18290,3,AY,1,100,0.837
1576518687.959775,107400.000,18290,3,AY,1,100,0.881
1576518687.996634,107431.000,18308,3,AY,1,100,0.869
1576518688.033492,107462.000,18308,3,AY,1,100,0.884
1576518688.070351,107493.000,18308,3,AY,1,100,0.886
1576518688.110380,107526.667,18326,3,AY,1,100,0.883
1576518688.150409,107560.333,18326,3,AY,1,100,0.875
1576518688.190438,107594.000,18326,3,AY,1,100,0.876
1576518688.230863,107628.000,18343,3,AY,1,100,0.858
1576518688.271289,107662.000,18343,3,AY,1,100,0.855
1576518688.311714,107696.000,18343,3,AY,1,100,0.865
1576518688.352932,107730.667,18361,3,AY,1,100,0.887
1576518688.394150,107765.333,18361,3,AY,1,100,0.884
1576518688.435368,107800.000,18361,3,AY,1,100,0.867
1576518688.482928,107840.000,18379,2,AY,1,100,0.888
1576518688.530487,107880.000,18379,2,AY,1,100,0.857
1576518688.567345,107911.000,18397,4,AY,1,100,0.872
1576518688.604204,107942.000,18397,4,AY,1,100,0.861
1576518688.641062,107973.000,18397,4,AY,1,100,0.880
1576518688.677921,108004.000,18397,4,AY,1,100,0.868
1576518688.724885,108043.500,18415,2,AY,1,100,0.876
1576518688.771850,108083.000,18415,2,AY,1,100,0.884
1576518688.809897,108115.000,18433,4,AY,1,100,0.866
1576518688.847945,108147.000,18433,4,AY,1,100,0.885
1576518688.885992,108179.000,18433,4,AY,1,100,0.854
1576518688.924040,108211.000,18433,4,AY,1,100,0.881
1576518688.967438,108247.500,18450,2,AY,1,100,0.864
1576518689.010835,108284.000,18450,2,AY,1,100,0.871
1576518689.049279,108316.333,18468,3,AY,1,100,0.870
1576518689.087723,108348.667,18468,3,AY,1,100,0.872
1576518689.126167,108381.000,18468,3,AY,1,100,0.891
1576518689.167385,108415.667,18487,3,AY,1,100,0.869
1576518689.208603,108450.333,18487,3,AY,1,100,0.866
1576518689.249821,108485.000,18487,3,AY,1,100,0.871
1576518689.288265,108517.333,18503,3,AY,1,100,0.859
1576518689.326708,108549.667,18503,3,AY,1,100,0.869
1576518689.365152,108582.000,18503,3,AY,1,100,0.863
1576518689.405577,108616.000,18521,3,AY,1,100,0.881
1576518689.446003,108650.000,18521,3,AY,1,100,0.887
1576518689.486428,108684.000,18521,3,AY,1,100,0.868
1576518689.527646,108718.667,18539,3,AY,1,100,0.872
1576518689.568864,108753.333,18539,3,AY,1,100,0.860
1576518689.610082,108788.000,18539,3,AY,1,100,0.869
1576518689.650904,108822.333,18557,3,AY,1,100,0.885
1576518689.691726,108856.667,18557,3,AY,1,100,0.862
1576518689.732548,108891.000,18557,3,AY,1,100,0.902
1576518689.771784,108924.000,18575,3,AY,1,100,0.867
1576518689.811020,108957.000,18575,3,AY,1,100,0.873
1576518689.850257,108990.000,18575,3,AY,1,100,0.864
1576518689.888601,109022.250,18593,4,AY,1,100,0.855
1576518689.926946,109054.500,18593,4,AY,1,100,0.883
1576518689.965291,109086.750,18593,4,AY,1,100,0.875
1576518690.003635,109119.000,18593,4,AY,1,100,0.891
1576518690.048817,109157.000,18611,2,AY,1,100,0.868
1576518690.093998,109195.000,18611,2,AY,1,100,0.855
1576518690.134423,109229.000,18630,3,AY,1,100,0.886
1576518690.174849,109263.000,18630,3,AY,1,100,0.887
1576518690.215274,109297.000,18630,3,AY,1,100,0.872
1576518690.256888,109332.000,18647,3,AY,1,100,0.854
1576518690.298503,109367.000,18647,3,AY,1,100,0.871
1576518690.340117,109402.000,18647,3,AY,1,100,0.871
1576518690.379750,109435.333,18665,3,AY,1,100,0.885
1576518690.419383,109468.667,18665,3,AY,1,100,0.880
1576518690.459015,109502.000,18665,3,AY,1,100,0.872
1576518690.496666,109533.667,18682,3,AY,1,100,0.863
1576518690.534317,109565.333,18682,3,AY,1,100,0.859
1576518690.571969,109597.000,18682,3,AY,1,100,0.876
1576518690.611205,109630.000,18699,3,AY,1,100,0.870
1576518690.650441,109663.000,18699,3,AY,1,100,0.887
1576518690.689678,109696.000,18699,3,AY,1,100,0.875
1576518690.734463,109733.667,18717,3,AY,1,100,0.866
1576518690.779248,109771.333,18717,3,AY,1,100,0.873
1576518690.824033,109809.000,18717,3,AY,1,100,0.866
1576518690.865251,109843.667,18735,3,AY,1,100,0.873
1576518690.906469,109878.333,18735,3,AY,1,100,0.889
1576518690.947687,109913.000,18735,3,AY,1,100,0.863
1576518690.988112,109947.000,18753,3,AY,1,100,0.874
1576518691.028538,109981.000,18753,3,AY,1,100,0.863
1576518691.068963,110015.000,18753,3,AY,1,100,0.877
1576518691.106614,110046.667,18771,3,AY,1,100,0.881
1576518691.144265,110078.333,18771,3,AY,1,100,0.899
1576518691.181916,110110.000,18771,3,AY,1,100,0.867
1576518691.221628,110143.400,18793,5,AY,1,100,0.853
1576518691.261340,110176.800,18793,5,AY,1,100,0.857
1576518691.301052,110210.200,18793,5,AY,1,100,0.876
1576518691.340764,110243.600,18793,5,AY,1,100,0.885
1576518691.380476,110277.000,18793,5,AY,1,100,0.873
1576518691.421694,110311.667,18813,3,AY,1,100,0.881
1576518691.462912,110346.333,18813,3,AY,1,100,0.868
1576518691.504130,110381.000,18813,3,AY,1,100,0.862
1576518691.551095,110420.500,18831,2,AY,1,100,0.862
1576518691.598060,110460.000,18831,2,AY,1,100,0.877
1576518691.636702,110492.500,18849,4,AY,1,100,0.856
1576518691.675344,110525.000,18849,4,AY,1,100,0.876
1576518691.713986,110557.500,18849,4,AY,1,100,0.887
1576518691.752628,110590.000,18849,4,AY,1,100,0.884
1576518691.789882,110621.333,18867,3,AY,1,100,0.878
1576518691.827137,110652.667,18867,3,AY,1,100,0.888
1576518691.864392,110684.000,18867,3,AY,1,100,0.853
1576518691.904817,110718.000,18885,3,AY,1,100,0.847
1576518691.945243,110752.000,18885,3,AY,1,100,0.838
1576518691.985668,110786.000,18885,3,AY,1,100,0.863
1576518692.026093,110820.000,18903,3,AY,1,100,0.874
1576518692.066519,110854.000,18903,3,AY,1,100,0.867
1576518692.106944,110888.000,18903,3,AY,1,100,0.872
1576518692.148162,110922.667,18922,3,AY,1,100,0.867
1576518692.189380,110957.333,18922,3,AY,1,100,0.870
1576518692.230598,110992.000,18922,3,AY,1,100,0.861
1576518692.273996,111028.500,18939,2,AY,1,100,0.854
1576518692.317394,111065.000,18939,2,AY,1,100,0.865
1576518692.355144,111096.750,18957,4,AY,1,100,0.875
1576518692.392894,111128.500,18957,4,AY,1,100,0.871
1576518692.430645,111160.250,18957,4,AY,1,100,0.856
1576518692.468395,111192.000,18957,4,AY,1,100,0.869
1576518692.511792,111228.500,18973,2,AY,1,100,0.875
1576518692.555190,111265.000,18973,2,AY,1,100,0.866
1576518692.592643,111296.500,18991,4,AY,1,100,0.858
1576518692.630096,111328.000,18991,4,AY,1,100,0.859
1576518692.667549,111359.500,18991,4,AY,1,100,0.872
1576518692.705002,111391.000,18991,4,AY,1,100,0.863
1576518692.744635,111424.333,19009,3,AY,1,100,0.873
1576518692.784267,111457.667,19009,3,AY,1,100,0.875
1576518692.823900,111491.000,19009,3,AY,1,100,0.881
1576518692.862344,111523.333,19027,3,AY,1,100,0.862
1576518692.900788,111555.667,19027,3,AY,1,100,0.848
1576518692.939231,111588.000,19027,3,AY,1,100,0.853
1576518692.980449,111622.667,19045,3,AY,1,100,0.878
1576518693.021667,111657.333,19045,3,AY,1,100,0.866
1576518693.062886,111692.000,19045,3,AY,1,100,0.873
1576518693.102915,111725.667,19064,3,AY,1,100,0.869
1576518693.142944,111759.333,19064,3,AY,1,100,0.866
1576518693.182973,111793.000,19064,3,AY,1,100,0.856
1576518693.223398,111827.000,19082,3,AY,1,100,0.876
1576518693.263824,111861.000,19082,3,AY,1,100,0.862
1576518693.304249,111895.000,19082,3,AY,1,100,0.865
1576518693.345863,111930.000,19100,3,AY,1,100,0.858
1576518693.387478,111965.000,19100,3,AY,1,100,0.866
1576518693.429092,112000.000,19100,3,AY,1,100,0.870
1576518693.469121,112033.667,19118,3,AY,1,100,0.870
1576518693.509150,112067.333,19118,3,AY,1,100,0.878
1576518693.549179,112101.000,19118,3,AY,1,100,0.866
1576518693.590397,112135.667,19135,3,AY,1,100,0.862
1576518693.631615,112170.333,19135,3,AY,1,100,0.855
1576518693.672833,112205.000,19135,3,AY,1,100,0.864
1576518693.712070,112238.000,19153,3,AY,1,100,0.872
1576518693.751306,112271.000,19153,3,AY,1,100,0.876
1576518693.790542,112304.000,19153,3,AY,1,100,0.875
1576518693.828193,112335.667,19170,3,AY,1,100,0.856
1576518693.865844,112367.333,19170,3,AY,1,100,0.870
1576518693.903496,112399.000,19170,3,AY,1,100,0.864
1576518693.947092,112435.667,19187,3,AY,1,100,0.870
1576518693.990688,112472.333,19187,3,AY,1,100,0.865
1576518694.034284,112509.000,19187,3,AY,1,100,0.865
1576518694.074709,112543.000,19205,3,AY,1,100,0.873
1576518694.115134,112577.000,19205,3,AY,1,100,0.872
1576518694.155560,112611.000,19205,3,AY,1,100,0.858
1576518694.197174,112646.000,19224,2,AY,1,100,0.871
1576518694.238789,112681.000,19224,2,AY,1,100,0.868
1576518694.278025,112714.000,19242,4,AY,1,100,0.866
1576518694.317261,112747.000,19242,4,AY,1,100,0.873
1576518694.356498,112780.000,19242,4,AY,1,100,0.857
1576518694.395734,112813.000,19242,4,AY,1,100,0.863
1576518694.434178,112845.333,19260,3,AY,1,100,0.879
1576518694.472622,112877.667,19260,3,AY,1,100,0.872
1576518694.511065,112910.000,19260,3,AY,1,100,0.863
1576518694.549905,112942.667,19278,3,AY,1,100,0.859
1576518694.588746,112975.333,19278,3,AY,1,100,0.861
1576518694.627586,113008.000,19278,3,AY,1,100,0.874
1576518694.673956,113047.000,19296,2,AY,1,100,0.865
1576518694.720326,113086.000,19296,2,AY,1,100,0.873
1576518694.761544,113120.667,19313,3,AY,1,100,0.869
1576518694.802762,113155.333,19313,3,AY,1,100,0.874
1576518694.843980,113190.000,19313,3,AY,1,100,0.865
1576518694.884802,113224.333,19331,3,AY,1,100,0.870
1576518694.925624,113258.667,19331,3,AY,1,100,0.865
1576518694.966445,113293.000,19331,3,AY,1,100,0.864
1576518695.004195,113324.750,19349,4,AY,1,100,0.860
1576518695.041946,113356.500,19349,4,AY,1,100,0.877
1576518695.079696,113388.250,19349,4,AY,1,100,0.875
1576518695.117446,113420.000,19349,4,AY,1,100,0.881
1576518695.157079,113453.333,19366,3,AY,1,100,0.870
1576518695.196712,113486.667,19366,3,AY,1,100,0.860
1576518695.236344,113520.000,19366,3,AY,1,100,0.844
1576518695.277562,113554.667,19384,3,AY,1,100,0.871
1576518695.318780,113589.333,19384,3,AY,1,100,0.878
