EpochTimestamp,EmotiBitTimestamp,PacketNumber,DataLength,TypeTag,ProtocolVersion,DataReliability,ER
1576517088.531103,64376.000,10599,3,ER,1,100,1.636062
1576517088.531103,64376.000,10599,3,ER,1,100,1.638116
1576517088.531103,64376.000,10599,3,ER,1,100,1.639607
1576517088.595882,64430.500,10618,2,ER,1,100,1.644481
1576517088.660661,64485.000,10618,2,ER,1,100,1.652739
1576517088.730788,64544.000,10636,1,ER,1,100,1.650201
1576517088.797944,64600.500,10653,2,ER,1,100,1.653021
1576517088.865100,64657.000,10653,2,ER,1,100,1.651410
1576517088.934039,64715.000,10671,2,ER,1,100,1.644965
1576517089.002978,64773.000,10671,2,ER,1,100,1.653988
1576517089.066568,64826.500,10687,2,ER,1,100,1.656123
1576517089.130158,64880.000,10687,2,ER,1,100,1.655398
1576517089.194342,64934.000,10705,2,ER,1,100,1.656848
1576517089.258527,64988.000,10705,2,ER,1,100,1.659426
1576517089.327466,65046.000,10723,1,ER,1,100,1.664180
1576517089.394622,65102.500,10741,2,ER,1,100,1.664703
1576517089.461778,65159.000,10741,2,ER,1,100,1.670867
1576517089.531311,65217.500,10759,2,ER,1,100,1.670826
1576517089.600844,65276.000,10759,2,ER,1,100,1.673364
1576517089.664434,65329.500,10778,2,ER,1,100,1.671834
1576517089.728024,65383.000,10778,2,ER,1,100,1.673002
1576517089.791614,65436.500,10796,2,ER,1,100,1.675378
1576517089.855204,65490.000,10796,2,ER,1,100,1.676547
1576517089.924143,65548.000,10814,1,ER,1,100,1.677312
1576517089.993082,65606.000,10831,2,ER,1,100,1.683073
1576517090.062021,65664.000,10831,2,ER,1,100,1.679366
1576517090.129771,65721.000,10849,2,ER,1,100,1.677393
1576517090.197521,65778.000,10849,2,ER,1,100,1.681421
1576517090.267055,65836.500,10865,2,ER,1,100,1.682710
1576517090.336588,65895.000,10865,2,ER,1,100,1.678601
1576517090.403149,65951.000,10883,1,ER,1,100,1.688753
1576517090.472682,66009.500,10901,2,ER,1,100,1.687705
1576517090.542216,66068.000,10901,2,ER,1,100,1.688108
1576517090.611155,66126.000,10920,2,ER,1,100,1.683234
1576517090.680093,66184.000,10920,2,ER,1,100,1.685852
1576517090.749032,66242.000,10938,2,ER,1,100,1.684926
1576517090.817971,66300.000,10938,2,ER,1,100,1.695802
1576517090.890476,66361.000,10956,1,ER,1,100,1.695601
1576517090.959414,66419.000,10973,2,ER,1,100,1.691049
1576517091.028353,66477.000,10973,2,ER,1,100,1.695520
1576517091.094915,66533.000,10991,2,ER,1,100,1.696487
1576517091.161477,66589.000,10991,2,ER,1,100,1.700072
1576517091.224473,66642.000,11007,2,ER,1,100,1.697051
1576517091.287468,66695.000,11007,2,ER,1,100,1.695319
1576517091.353436,66750.500,11025,2,ER,1,100,1.691935
1576517091.419403,66806.000,11025,2,ER,1,100,1.693103
1576517091.489531,66865.000,11043,1,ER,1,100,1.698783
1576517091.556686,66921.500,11061,2,ER,1,100,1.699387
1576517091.623842,66978.000,11061,2,ER,1,100,1.696165
1576517091.695753,67038.500,11080,2,ER,1,100,1.688994
1576517091.767663,67099.000,11080,2,ER,1,100,1.688108
1576517091.833036,67154.000,11098,1,ER,1,100,1.686980
1576517091.901975,67212.000,11115,2,ER,1,100,1.688430
1576517091.970914,67270.000,11115,2,ER,1,100,1.687624
1576517092.033910,67323.000,11133,2,ER,1,100,1.683717
1576517092.096905,67376.000,11133,2,ER,1,100,1.683435
1576517092.162873,67431.500,11151,2,ER,1,100,1.681622
1576517092.228840,67487.000,11151,2,ER,1,100,1.684563
1576517092.297185,67544.500,11168,2,ER,1,100,1.691814
1576517092.365529,67602.000,11168,2,ER,1,100,1.730808
1576517092.432685,67658.500,11185,2,ER,1,100,1.828011
1576517092.499841,67715.000,11185,2,ER,1,100,1.970775
1576517092.569968,67774.000,11203,1,ER,1,100,1.991038
1576517092.632370,67826.500,11222,2,ER,1,100,1.990715
1576517092.694772,67879.000,11222,2,ER,1,100,1.980644
1576517092.760145,67934.000,11240,2,ER,1,100,1.962396
1576517092.825518,67989.000,11240,2,ER,1,100,1.950633
1576517092.893268,68046.000,11258,2,ER,1,100,1.935447
1576517092.961018,68103.000,11258,2,ER,1,100,1.921630
1576517093.028768,68160.000,11276,2,ER,1,100,1.901649
1576517093.096519,68217.000,11276,2,ER,1,100,1.885777
1576517093.171401,68280.000,11294,1,ER,1,100,1.870913
1576517093.232019,68331.000,11311,2,ER,1,100,1.859714
1576517093.292638,68382.000,11311,2,ER,1,100,1.854759
1576517093.357416,68436.500,11329,2,ER,1,100,1.844125
1576517093.422195,68491.000,11329,2,ER,1,100,1.833893
1576517093.492323,68550.000,11347,2,ER,1,100,1.821969
1576517093.562450,68609.000,11347,2,ER,1,100,1.815645
1576517093.629606,68665.500,11364,2,ER,1,100,1.806178
1576517093.696762,68722.000,11364,2,ER,1,100,1.800820
1576517093.769267,68783.000,11382,1,ER,1,100,1.797316
1576517093.831668,68835.500,11400,2,ER,1,100,1.801102
1576517093.894070,68888.000,11400,2,ER,1,100,1.819149
1576517093.958254,68942.000,11418,2,ER,1,100,1.824386
1576517094.022439,68996.000,11418,2,ER,1,100,1.814154
1576517094.091972,69054.500,11436,2,ER,1,100,1.806258
1576517094.161505,69113.000,11436,2,ER,1,100,1.815926
1576517094.228066,69169.000,11454,2,ER,1,100,1.788131
1576517094.294628,69225.000,11454,2,ER,1,100,1.767345
1576517094.365944,69285.000,11472,1,ER,1,100,1.751272
1576517094.428940,69338.000,11492,4,ER,1,100,1.734715
1576517094.491936,69391.000,11492,4,ER,1,100,1.720415
1576517094.554932,69444.000,11492,4,ER,1,100,1.710223
1576517094.617928,69497.000,11492,4,ER,1,100,1.691653
1576517094.685678,69554.000,11511,1,ER,1,100,1.653021
1576517094.749268,69607.500,11531,2,ER,1,100,1.690202
1576517094.812858,69661.000,11531,2,ER,1,100,1.694916
1576517094.880014,69717.500,11549,2,ER,1,100,1.694070
1576517094.947170,69774.000,11549,2,ER,1,100,1.690726
1576517095.015515,69831.500,11567,2,ER,1,100,1.683677
1576517095.083859,69889.000,11567,2,ER,1,100,1.682025
1576517095.152798,69947.000,11585,1,ER,1,100,1.680172
1576517095.222331,70005.500,11602,2,ER,1,100,1.677433
1576517095.291864,70064.000,11602,2,ER,1,100,1.674613
1576517095.360209,70121.500,11620,2,ER,1,100,1.670585
1576517095.428553,70179.000,11620,2,ER,1,100,1.670383
1576517095.493926,70234.000,11636,2,ER,1,100,1.666355
1576517095.559299,70289.000,11636,2,ER,1,100,1.664180
1576517095.622295,70342.000,11655,2,ER,1,100,1.660514
1576517095.685291,70395.000,11655,2,ER,1,100,1.659225
1576517095.753041,70452.000,11673,1,ER,1,100,1.655881
1576517095.820791,70509.000,11691,2,ER,1,100,1.660232
1576517095.888542,70566.000,11691,2,ER,1,100,1.694755
1576517095.958075,70624.500,11709,2,ER,1,100,1.751272
1576517096.027608,70683.000,11709,2,ER,1,100,1.824910
1576517096.092981,70738.000,11727,2,ER,1,100,1.916312
1576517096.158354,70793.000,11727,2,ER,1,100,1.860923
1576517096.220756,70845.500,11745,2,ER,1,100,1.800337
1576517096.283157,70898.000,11745,2,ER,1,100,1.796107
1576517096.350907,70955.000,11763,1,ER,1,100,1.750587
1576517096.418063,71011.500,11780,2,ER,1,100,1.751393
1576517096.485219,71068.000,11780,2,ER,1,100,1.744948
1576517096.554158,71126.000,11798,2,ER,1,100,1.790870
1576517096.623097,71184.000,11798,2,ER,1,100,1.761423
1576517096.689659,71240.000,11815,2,ER,1,100,1.675459
1576517096.756220,71296.000,11815,2,ER,1,100,1.647704
1576517096.819216,71349.000,11833,2,ER,1,100,1.675459
1576517096.882212,71402.000,11833,2,ER,1,100,1.688309
1576517096.951151,71460.000,11851,1,ER,1,100,1.637230
1576517097.017712,71516.000,11869,2,ER,1,100,1.624460
1576517097.084274,71572.000,11869,2,ER,1,100,1.646737
1576517097.153213,71630.000,11887,2,ER,1,100,1.694513
1576517097.222152,71688.000,11887,2,ER,1,100,1.741121
1576517097.291090,71746.000,11905,2,ER,1,100,1.825755
1576517097.360029,71804.000,11905,2,ER,1,100,1.718240
1576517097.421837,71856.000,11923,2,ER,1,100,1.702650
1576517097.483644,71908.000,11923,2,ER,1,100,1.672438
1576517097.550205,71964.000,11941,1,ER,1,100,1.630382
1576517097.616767,72020.000,11960,2,ER,1,100,1.631268
1576517097.683329,72076.000,11960,2,ER,1,100,1.634048
1576517097.752862,72134.500,11977,2,ER,1,100,1.634733
1576517097.822395,72193.000,11977,2,ER,1,100,1.635337
1576517097.891334,72251.000,11994,2,ER,1,100,1.617572
1576517097.960273,72309.000,11994,2,ER,1,100,1.629697
1576517098.020891,72360.000,12011,2,ER,1,100,1.620795
1576517098.081510,72411.000,12011,2,ER,1,100,1.614188
1576517098.146883,72466.000,12029,2,ER,1,100,1.606937
1576517098.212256,72521.000,12029,2,ER,1,100,1.604279
1576517098.280006,72578.000,12047,1,ER,1,100,1.603715
1576517098.348945,72636.000,12065,2,ER,1,100,1.593644
1576517098.417884,72694.000,12065,2,ER,1,100,1.593805
1576517098.488012,72753.000,12083,2,ER,1,100,1.583331
1576517098.558139,72812.000,12083,2,ER,1,100,1.581277
1576517098.622918,72866.500,12102,2,ER,1,100,1.576362
1576517098.687696,72921.000,12102,2,ER,1,100,1.572697
1576517098.759012,72981.000,12120,1,ER,1,100,1.569877
1576517098.823197,73035.000,12137,2,ER,1,100,1.564962
1576517098.887381,73089.000,12137,2,ER,1,100,1.564600
1576517098.950377,73142.000,12155,2,ER,1,100,1.561377
1576517099.013373,73195.000,12155,2,ER,1,100,1.562585
1576517099.081123,73252.000,12173,2,ER,1,100,1.559282
1576517099.148874,73309.000,12173,2,ER,1,100,1.560168
1576517099.214247,73364.000,12190,2,ER,1,100,1.559202
1576517099.279620,73419.000,12190,2,ER,1,100,1.561337
1576517099.346776,73475.500,12207,2,ER,1,100,1.561699
1576517099.413931,73532.000,12207,2,ER,1,100,1.561780
1576517099.485248,73592.000,12225,1,ER,1,100,1.564358
1576517099.554186,73650.000,12243,2,ER,1,100,1.563311
1576517099.623125,73708.000,12243,2,ER,1,100,1.575033
1576517099.686715,73761.500,12262,2,ER,1,100,1.566896
1576517099.750305,73815.000,12262,2,ER,1,100,1.570239
1576517099.815084,73869.500,12280,2,ER,1,100,1.570562
1576517099.879863,73924.000,12280,2,ER,1,100,1.574630
1576517099.947613,73981.000,12298,1,ER,1,100,1.576040
1576517100.015363,74038.000,12316,2,ER,1,100,1.579182
1576517100.083114,74095.000,12316,2,ER,1,100,1.582485
1576517100.152647,74153.500,12333,2,ER,1,100,1.585305
1576517100.222180,74212.000,12333,2,ER,1,100,1.589898
1576517100.285176,74265.000,12351,2,ER,1,100,1.592717
1576517100.348172,74318.000,12351,2,ER,1,100,1.599243
1576517100.411167,74371.000,12368,2,ER,1,100,1.601781
1576517100.474163,74424.000,12368,2,ER,1,100,1.608226
1576517100.541914,74481.000,12388,3,ER,1,100,1.612295
1576517100.609664,74538.000,12388,3,ER,1,100,1.617572
1576517100.677414,74595.000,12388,3,ER,1,100,1.620634
1576517100.749919,74656.000,12409,1,ER,1,100,1.625306
1576517100.817075,74712.500,12426,2,ER,1,100,1.628569
1576517100.884231,74769.000,12426,2,ER,1,100,1.634330
1576517100.947821,74822.500,12444,2,ER,1,100,1.635377
1576517101.011411,74876.000,12444,2,ER,1,100,1.642910
1576517101.077378,74931.500,12462,2,ER,1,100,1.644481
1576517101.143346,74987.000,12462,2,ER,1,100,1.650806
1576517101.210501,75043.500,12478,2,ER,1,100,1.652981
1576517101.277658,75100.000,12478,2,ER,1,100,1.658661
1576517101.348974,75160.000,12496,1,ER,1,100,1.662528
1576517101.416724,75217.000,12514,2,ER,1,100,1.666033
1576517101.484474,75274.000,12514,2,ER,1,100,1.671189
1576517101.547470,75327.000,12532,2,ER,1,100,1.672599
1576517101.610466,75380.000,12532,2,ER,1,100,1.677956
1576517101.676433,75435.500,12551,2,ER,1,100,1.679004
1576517101.742400,75491.000,12551,2,ER,1,100,1.683395
1576517101.809556,75547.500,12569,2,ER,1,100,1.685207
1576517101.876712,75604.000,12569,2,ER,1,100,1.690041
1576517101.948028,75664.000,12587,1,ER,1,100,1.694916
1576517102.014590,75720.000,12604,2,ER,1,100,1.694714
1576517102.081151,75776.000,12604,2,ER,1,100,1.699870
1576517102.145336,75830.000,12622,2,ER,1,100,1.700072
1576517102.209520,75884.000,12622,2,ER,1,100,1.704624
1576517102.273111,75937.500,12640,2,ER,1,100,1.705832
1576517102.336701,75991.000,12640,2,ER,1,100,1.711633
1576517102.404451,76048.000,12658,2,ER,1,100,1.711835
1576517102.472201,76105.000,12658,2,ER,1,100,1.715702
1576517102.538763,76161.000,12674,1,ER,1,100,1.717797
1576517102.606513,76218.000,12693,2,ER,1,100,1.719086
1576517102.674263,76275.000,12693,2,ER,1,100,1.721704
1576517102.740231,76330.500,12711,2,ER,1,100,1.722067
1576517102.806198,76386.000,12711,2,ER,1,100,1.725491
1576517102.876325,76445.000,12729,2,ER,1,100,1.724967
1576517102.946453,76504.000,12729,2,ER,1,100,1.728794
1576517103.014797,76561.500,12747,2,ER,1,100,1.728794
1576517103.083142,76619.000,12747,2,ER,1,100,1.729479
1576517103.153269,76678.000,12765,1,ER,1,100,1.731412
1576517103.215671,76730.500,12782,2,ER,1,100,1.730808
1576517103.278072,76783.000,12782,2,ER,1,100,1.734031
1576517103.342257,76837.000,12800,2,ER,1,100,1.731453
1576517103.406441,76891.000,12800,2,ER,1,100,1.734635
1576517103.475975,76949.500,12818,2,ER,1,100,1.734474
1576517103.545508,77008.000,12818,2,ER,1,100,1.733427
1576517103.613852,77065.500,12835,2,ER,1,100,1.731896
1576517103.682197,77123.000,12835,2,ER,1,100,1.732137
1576517103.753513,77183.000,12853,1,ER,1,100,1.742812
1576517103.815914,77235.500,12871,2,ER,1,100,1.754817
1576517103.878316,77288.000,12871,2,ER,1,100,1.747526
1576517103.943094,77342.500,12889,2,ER,1,100,1.730204
1576517104.007873,77397.000,12889,2,ER,1,100,1.719327
1576517104.074435,77453.000,12907,2,ER,1,100,1.720375
1576517104.140996,77509.000,12907,2,ER,1,100,1.718763
1576517104.208153,77565.500,12925,2,ER,1,100,1.718965
1576517104.275308,77622.000,12925,2,ER,1,100,1.726981
1576517104.346624,77682.000,12943,1,ER,1,100,1.723960
1576517104.410809,77736.000,12960,2,ER,1,100,1.726578
1576517104.474993,77790.000,12960,2,ER,1,100,1.743699
1576517104.538584,77843.500,12978,2,ER,1,100,1.734313
1576517104.602174,77897.000,12978,2,ER,1,100,1.717797
1576517104.670518,77954.500,12997,2,ER,1,100,1.710626
1576517104.738863,78012.000,12997,2,ER,1,100,1.737737
1576517104.806019,78068.500,13013,2,ER,1,100,1.732500
1576517104.873175,78125.000,13013,2,ER,1,100,1.713728
1576517104.944491,78185.000,13031,1,ER,1,100,1.726216
1576517105.009269,78239.500,13049,2,ER,1,100,1.729519
1576517105.074048,78294.000,13049,2,ER,1,100,1.720133
1576517105.137638,78347.500,13067,2,ER,1,100,1.726659
1576517105.201228,78401.000,13067,2,ER,1,100,1.733024
1576517105.268384,78457.500,13085,2,ER,1,100,1.737777
1576517105.335540,78514.000,13085,2,ER,1,100,1.728713
1576517105.403291,78571.000,13103,2,ER,1,100,1.718119
1576517105.471041,78628.000,13103,2,ER,1,100,1.729841
1576517105.542357,78688.000,13121,1,ER,1,100,1.732218
1576517105.606541,78742.000,13139,2,ER,1,100,1.726498
1576517105.670726,78796.000,13139,2,ER,1,100,1.730164
1576517105.734316,78849.500,13157,2,ER,1,100,1.730607
1576517105.797906,78903.000,13157,2,ER,1,100,1.731654
1576517105.864468,78959.000,13175,2,ER,1,100,1.731332
1576517105.931029,79015.000,13175,2,ER,1,100,1.733145
1576517105.998185,79071.500,13193,2,ER,1,100,2.418603
1576517106.065341,79128.000,13193,2,ER,1,100,2.617482
1576517106.134280,79186.000,13209,2,ER,1,100,2.325469
1576517106.203219,79244.000,13209,2,ER,1,100,1.758442
1576517106.275723,79305.000,13227,1,ER,1,100,1.832483
1576517106.344662,79363.000,13245,2,ER,1,100,1.866361
1576517106.413601,79421.000,13245,2,ER,1,100,2.132109
1576517106.478974,79476.000,13263,2,ER,1,100,1.545062
1576517106.544347,79531.000,13263,2,ER,1,100,1.523994
1576517106.608928,79585.333,13283,3,ER,1,100,1.530037
1576517106.673508,79639.667,13283,3,ER,1,100,1.541598
1576517106.738089,79694.000,13283,3,ER,1,100,1.557268
1576517106.800491,79746.500,13305,2,ER,1,100,1.574348
1576517106.862892,79799.000,13305,2,ER,1,100,1.588689
1576517106.929454,79855.000,13323,2,ER,1,100,1.598800
1576517106.996016,79911.000,13323,2,ER,1,100,1.613101
1576517107.066143,79970.000,13341,1,ER,1,100,1.623292
1576517107.133893,80027.000,13359,2,ER,1,100,1.627804
1576517107.201643,80084.000,13359,2,ER,1,100,1.636102
1576517107.269988,80141.500,13377,2,ER,1,100,1.645045
1576517107.338332,80199.000,13377,2,ER,1,100,1.653424
1576517107.401328,80252.000,13395,2,ER,1,100,1.658580
1576517107.464324,80305.000,13395,2,ER,1,100,1.664341
1576517107.529697,80360.000,13413,1,ER,1,100,1.666798
1576517107.596259,80416.000,13432,2,ER,1,100,1.671269
1576517107.662821,80472.000,13432,2,ER,1,100,1.677352
1576517107.731759,80530.000,13449,2,ER,1,100,1.685369
1576517107.800698,80588.000,13449,2,ER,1,100,1.678762
1576517107.869043,80645.500,13467,2,ER,1,100,1.672800
1576517107.937387,80703.000,13467,2,ER,1,100,1.671995
1576517108.000383,80756.000,13483,2,ER,1,100,1.668450
1576517108.063379,80809.000,13483,2,ER,1,100,1.672841
1576517108.128158,80863.500,13501,2,ER,1,100,1.673123
1576517108.192936,80918.000,13501,2,ER,1,100,1.669255
1576517108.260687,80975.000,13519,1,ER,1,100,1.661843
1576517108.329626,81033.000,13537,2,ER,1,100,1.665751
1576517108.398564,81091.000,13537,2,ER,1,100,1.683959
1576517108.468692,81150.000,13555,2,ER,1,100,1.681622
1576517108.538819,81209.000,13555,2,ER,1,100,1.660071
1576517108.600032,81260.500,13574,2,ER,1,100,1.652054
1576517108.661245,81312.000,13574,2,ER,1,100,1.659144
1576517108.726024,81366.500,13592,2,ER,1,100,1.655881
1576517108.790802,81421.000,13592,2,ER,1,100,1.659386
1576517108.858553,81478.000,13610,1,ER,1,100,1.658097
1576517108.928086,81536.500,13627,2,ER,1,100,1.668893
1576517108.997619,81595.000,13627,2,ER,1,100,1.664985
1576517109.068341,81654.500,13645,2,ER,1,100,1.664502
1576517109.139063,81714.000,13645,2,ER,1,100,1.665388
1576517109.200870,81766.000,13661,2,ER,1,100,1.664059
1576517109.262677,81818.000,13661,2,ER,1,100,1.658379
1576517109.325673,81871.000,13679,2,ER,1,100,1.659990
1576517109.388669,81924.000,13679,2,ER,1,100,1.664623
1576517109.456419,81981.000,13697,1,ER,1,100,1.669698
1576517109.524764,82038.500,13716,2,ER,1,100,1.670988
1576517109.593108,82096.000,13716,2,ER,1,100,1.671874
1576517109.662641,82154.500,13734,2,ER,1,100,1.667563
1576517109.732174,82213.000,13734,2,ER,1,100,1.677513
1576517109.795764,82266.500,13752,2,ER,1,100,1.668933
1576517109.859355,82320.000,13752,2,ER,1,100,1.680736
1576517109.922945,82373.500,13770,2,ER,1,100,1.688712
1576517109.986535,82427.000,13770,2,ER,1,100,1.680978
1576517110.055474,82485.000,13788,1,ER,1,100,1.679890
1576517110.119064,82538.500,13805,2,ER,1,100,1.680857
1576517110.182654,82592.000,13805,2,ER,1,100,1.684724
1576517110.250998,82649.500,13823,2,ER,1,100,1.683435
1576517110.319343,82707.000,13823,2,ER,1,100,1.683717
1576517110.388282,82765.000,13841,2,ER,1,100,1.685127
1576517110.457221,82823.000,13841,2,ER,1,100,1.689880
1576517110.525565,82880.500,13857,2,ER,1,100,1.690041
1576517110.593910,82938.000,13857,2,ER,1,100,1.690565
1576517110.664037,82997.000,13876,1,ER,1,100,1.690767
1576517110.732976,83055.000,13894,2,ER,1,100,1.693184
1576517110.801915,83113.000,13894,2,ER,1,100,1.694432
1576517110.866694,83167.500,13912,2,ER,1,100,1.692257
1576517110.931473,83222.000,13912,2,ER,1,100,1.695278
1576517110.995657,83276.000,13930,2,ER,1,100,1.693506
1576517111.059841,83330.000,13930,2,ER,1,100,1.695319
1576517111.126997,83386.500,13948,2,ER,1,100,1.694956
1576517111.194153,83443.000,13948,2,ER,1,100,1.696165
1576517111.264281,83502.000,13966,1,ER,1,100,1.697897
1576517111.333814,83560.500,13983,2,ER,1,100,1.697131
1576517111.403347,83619.000,13983,2,ER,1,100,1.699145
1576517111.468126,83673.500,14001,2,ER,1,100,1.697453
1576517111.532904,83728.000,14001,2,ER,1,100,1.699911
1576517111.595900,83781.000,14018,2,ER,1,100,1.698944
1576517111.658896,83834.000,14018,2,ER,1,100,1.700072
1576517111.725458,83890.000,14036,2,ER,1,100,1.697816
1576517111.792019,83946.000,14036,2,ER,1,100,1.701482
1576517111.859770,84003.000,14054,1,ER,1,100,1.701764
1576517111.928709,84061.000,14072,2,ER,1,100,1.700273
1576517111.997647,84119.000,14072,2,ER,1,100,1.711955
1576517112.064209,84175.000,14090,2,ER,1,100,1.697736
1576517112.130771,84231.000,14090,2,ER,1,100,1.700314
1576517112.193766,84284.000,14108,2,ER,1,100,1.699145
1576517112.256762,84337.000,14108,2,ER,1,100,1.701643
1576517112.323918,84393.500,14126,2,ER,1,100,1.700636
1576517112.391074,84450.000,14126,2,ER,1,100,1.703133
1576517112.458824,84507.000,14144,1,ER,1,100,1.703979
1576517112.527763,84565.000,14162,2,ER,1,100,1.702610
1576517112.596702,84623.000,14162,2,ER,1,100,1.705550
1576517112.662471,84678.333,14183,3,ER,1,100,1.706155
1576517112.728240,84733.667,14183,3,ER,1,100,1.710667
1576517112.794010,84789.000,14183,3,ER,1,100,1.700555
1576517112.858788,84843.500,14203,2,ER,1,100,1.706316
1576517112.923567,84898.000,14203,2,ER,1,100,1.705873
1576517112.990129,84954.000,14221,2,ER,1,100,1.696165
1576517113.056691,85010.000,14221,2,ER,1,100,1.695963
1576517113.129195,85071.000,14239,1,ER,1,100,1.689316
1576517113.196351,85127.500,14256,2,ER,1,100,1.674895
1576517113.263507,85184.000,14256,2,ER,1,100,1.682509
1576517113.329474,85239.500,14274,2,ER,1,100,1.686174
1576517113.395442,85295.000,14274,2,ER,1,100,1.687181
1576517113.458438,85348.000,14292,2,ER,1,100,1.692700
1576517113.521433,85401.000,14292,2,ER,1,100,1.694594
1576517113.587401,85456.500,14310,2,ER,1,100,1.696124
1576517113.653368,85512.000,14310,2,ER,1,100,1.701804
1576517113.725873,85573.000,14327,1,ER,1,100,1.701683
1576517113.794217,85630.500,14345,2,ER,1,100,1.698420
1576517113.862562,85688.000,14345,2,ER,1,100,1.673888
1576517113.927341,85742.500,14363,2,ER,1,100,1.670021
1576517113.992119,85797.000,14363,2,ER,1,100,1.666073
1576517114.061652,85855.500,14381,2,ER,1,100,1.632074
1576517114.131186,85914.000,14381,2,ER,1,100,1.647543
1576517114.195964,85968.500,14399,2,ER,1,100,1.641057
1576517114.260743,86023.000,14399,2,ER,1,100,1.641339
1576517114.332059,86083.000,14417,1,ER,1,100,1.637955
1576517114.393866,86135.000,14434,2,ER,1,100,1.627039
1576517114.455674,86187.000,14434,2,ER,1,100,1.616122
1576517114.519264,86240.500,14453,2,ER,1,100,1.606776
1576517114.582854,86294.000,14453,2,ER,1,100,1.602224
1576517114.651198,86351.500,14471,2,ER,1,100,1.592153
1576517114.719543,86409.000,14471,2,ER,1,100,1.585547
1576517114.787888,86466.500,14489,2,ER,1,100,1.573140
1576517114.856232,86524.000,14489,2,ER,1,100,1.568104
1576517114.926359,86583.000,14505,1,ER,1,100,1.561699
1576517114.991138,86637.500,14523,2,ER,1,100,1.554045
1576517115.055917,86692.000,14523,2,ER,1,100,1.544257
1576517115.119507,86745.500,14541,2,ER,1,100,1.533863
1576517115.183097,86799.000,14541,2,ER,1,100,1.529876
1576517115.250848,86856.000,14559,2,ER,1,100,1.523994
1576517115.318598,86913.000,14559,2,ER,1,100,1.522463
1576517115.383971,86968.000,14577,2,ER,1,100,1.519482
1576517115.449344,87023.000,14577,2,ER,1,100,1.519200
1576517115.517094,87080.000,14595,2,ER,1,100,1.515212
1576517115.584844,87137.000,14595,2,ER,1,100,1.514205
1576517115.651406,87193.000,14614,1,ER,1,100,1.513802
1576517115.720939,87251.500,14631,2,ER,1,100,1.513198
1576517115.790472,87310.000,14631,2,ER,1,100,1.517589
1576517115.853468,87363.000,14649,2,ER,1,100,1.515575
1576517115.916464,87416.000,14649,2,ER,1,100,1.520489
1576517115.979460,87469.000,14667,2,ER,1,100,1.520973
1576517116.042456,87522.000,14667,2,ER,1,100,1.525565
1576517116.110800,87579.500,14683,2,ER,1,100,1.524357
1576517116.179145,87637.000,14683,2,ER,1,100,1.527459
1576517116.245706,87693.000,14701,1,ER,1,100,1.531366
1576517116.315834,87752.000,14719,2,ER,1,100,1.535596
1576517116.385961,87811.000,14719,2,ER,1,100,1.541437
1576517116.451334,87866.000,14737,2,ER,1,100,1.545908
1576517116.516707,87921.000,14737,2,ER,1,100,1.550420
1576517116.578515,87973.000,14756,2,ER,1,100,1.552071
1576517116.640322,88025.000,14756,2,ER,1,100,1.559524
1576517116.709261,88083.000,14774,2,ER,1,100,1.562545
1576517116.778199,88141.000,14774,2,ER,1,100,1.568910
1576517116.844761,88197.000,14792,1,ER,1,100,1.573945
1576517116.914294,88255.500,14809,2,ER,1,100,1.576604
1576517116.983827,88314.000,14809,2,ER,1,100,1.583170
1576517117.050983,88370.500,14827,2,ER,1,100,1.587440
1576517117.118139,88427.000,14827,2,ER,1,100,1.592919
1576517117.179946,88479.000,14845,2,ER,1,100,1.597108
1576517117.241754,88531.000,14845,2,ER,1,100,1.605608
1576517117.309504,88588.000,14861,2,ER,1,100,1.609032
1576517117.377254,88645.000,14861,2,ER,1,100,1.616162
1576517117.445004,88702.000,14879,1,ER,1,100,1.620714
1576517117.513349,88759.500,14898,2,ER,1,100,1.626152
1576517117.581694,88817.000,14898,2,ER,1,100,1.633000
1576517117.647661,88872.500,14916,2,ER,1,100,1.635458
1576517117.713628,88928.000,14916,2,ER,1,100,1.641702
1576517117.776030,88980.500,14934,2,ER,1,100,1.644965
1576517117.838431,89033.000,14934,2,ER,1,100,1.650282
1576517117.904993,89089.000,14952,2,ER,1,100,1.653384
1576517117.971555,89145.000,14952,2,ER,1,100,1.658177
1576517118.039305,89202.000,14970,2,ER,1,100,1.660635
1576517118.107055,89259.000,14970,2,ER,1,100,1.662850
1576517118.173617,89315.000,14988,1,ER,1,100,1.666234
1576517118.243744,89374.000,15005,2,ER,1,100,1.668691
1576517118.313872,89433.000,15005,2,ER,1,100,1.672156
1576517118.382216,89490.500,15023,2,ER,1,100,1.673807
1576517118.450561,89548.000,15023,2,ER,1,100,1.678359
1576517118.515934,89603.000,15039,2,ER,1,100,1.679366
1576517118.581307,89658.000,15039,2,ER,1,100,1.681622
1576517118.652623,89718.000,15058,1,ER,1,100,1.684523
1576517118.717600,89772.667,15079,3,ER,1,100,1.680655
1576517118.782577,89827.333,15079,3,ER,1,100,1.683757
1576517118.847553,89882.000,15079,3,ER,1,100,1.685248
1576517118.911738,89936.000,15099,2,ER,1,100,1.687060
1576517118.975922,89990.000,15099,2,ER,1,100,1.690847
1576517119.045455,90048.500,15117,2,ER,1,100,1.692539
1576517119.114989,90107.000,15117,2,ER,1,100,1.696165
1576517119.183333,90164.500,15133,2,ER,1,100,1.698098
1576517119.251678,90222.000,15133,2,ER,1,100,1.699750
1576517119.322994,90282.000,15151,1,ER,1,100,1.700596
1576517119.384801,90334.000,15169,2,ER,1,100,1.698018
1576517119.446608,90386.000,15169,2,ER,1,100,1.700273
1576517119.511387,90440.500,15188,2,ER,1,100,1.697011
1576517119.576165,90495.000,15188,2,ER,1,100,1.695721
1576517119.642727,90551.000,15206,2,ER,1,100,1.690243
1576517119.709289,90607.000,15206,2,ER,1,100,1.689115
1576517119.776445,90663.500,15224,2,ER,1,100,1.684361
1576517119.843601,90720.000,15224,2,ER,1,100,1.682468
1576517119.913728,90779.000,15242,1,ER,1,100,1.676023
1576517119.977318,90832.500,15259,2,ER,1,100,1.670021
1576517120.040908,90886.000,15259,2,ER,1,100,1.667886
1576517120.105687,90940.500,15277,2,ER,1,100,1.661078
1576517120.170466,90995.000,15277,2,ER,1,100,1.657130
1576517120.239405,91053.000,15295,2,ER,1,100,1.650765
1576517120.308344,91111.000,15295,2,ER,1,100,1.649275
1576517120.375499,91167.500,15312,2,ER,1,100,1.644844
1576517120.442656,91224.000,15312,2,ER,1,100,1.643877
1576517120.515160,91285.000,15329,1,ER,1,100,1.639285
1576517120.579345,91339.000,15348,2,ER,1,100,1.638278
1576517120.643529,91393.000,15348,2,ER,1,100,1.636747
1576517120.707119,91446.500,15366,2,ER,1,100,1.635377
1576517120.770709,91500.000,15366,2,ER,1,100,1.635297
1576517120.838459,91557.000,15384,2,ER,1,100,1.633363
1576517120.906210,91614.000,15384,2,ER,1,100,1.636102
1576517120.973960,91671.000,15402,2,ER,1,100,1.634733
1576517121.041710,91728.000,15402,2,ER,1,100,1.636787
1576517121.113026,91788.000,15420,1,ER,1,100,1.637915
1576517121.177211,91842.000,15438,2,ER,1,100,1.638761
1576517121.241395,91896.000,15438,2,ER,1,100,1.641500
1576517121.304985,91949.500,15455,2,ER,1,100,1.640694
1576517121.368575,92003.000,15455,2,ER,1,100,1.642991
1576517121.436326,92060.000,15473,2,ER,1,100,1.642386
1576517121.504076,92117.000,15473,2,ER,1,100,1.644965
1576517121.571232,92173.500,15492,2,ER,1,100,1.642104
1576517121.638388,92230.000,15492,2,ER,1,100,1.644642
1576517121.707327,92288.000,15508,2,ER,1,100,1.643514
1576517121.776265,92346.000,15508,2,ER,1,100,1.642991
1576517121.848770,92407.000,15526,1,ER,1,100,1.644038
1576517121.917709,92465.000,15544,2,ER,1,100,1.641500
1576517121.986648,92523.000,15544,2,ER,1,100,1.643313
1576517122.052615,92578.500,15562,2,ER,1,100,1.640694
1576517122.118582,92634.000,15562,2,ER,1,100,1.641460
1576517122.182767,92688.000,15580,2,ER,1,100,1.641581
1576517122.246951,92742.000,15580,2,ER,1,100,1.641742
1576517122.309947,92795.000,15598,2,ER,1,100,1.641299
1576517122.372943,92848.000,15598,2,ER,1,100,1.640936
1576517122.435939,92901.000,15616,1,ER,1,100,1.641984
1576517122.502501,92957.000,15634,2,ER,1,100,1.641782
1576517122.569062,93013.000,15634,2,ER,1,100,1.641702
1576517122.638595,93071.500,15652,2,ER,1,100,1.640815
1576517122.708128,93130.000,15652,2,ER,1,100,1.642628
1576517122.777067,93188.000,15670,2,ER,1,100,1.640010
1576517122.846006,93246.000,15670,2,ER,1,100,1.639808
1576517122.909596,93299.500,15686,2,ER,1,100,1.637714
1576517122.973186,93353.000,15686,2,ER,1,100,1.633363
1576517123.037371,93407.000,15704,1,ER,1,100,1.628489
1576517123.103338,93462.500,15722,2,ER,1,100,1.621963
1576517123.169306,93518.000,15722,2,ER,1,100,1.618136
1576517123.237056,93575.000,15740,2,ER,1,100,1.609999
1576517123.304806,93632.000,15740,2,ER,1,100,1.604359
1576517123.373151,93689.500,15758,2,ER,1,100,1.593201
1576517123.441495,93747.000,15758,2,ER,1,100,1.588528
1576517123.506868,93802.000,15776,2,ER,1,100,1.579464
1576517123.572241,93857.000,15776,2,ER,1,100,1.572858
1576517123.635831,93910.500,15795,2,ER,1,100,1.568829
1576517123.699421,93964.000,15795,2,ER,1,100,1.562465
1576517123.765983,94020.000,15813,1,ER,1,100,1.559242
1576517123.836111,94079.000,15830,2,ER,1,100,1.555616
1576517123.906238,94138.000,15830,2,ER,1,100,1.555375
1576517123.973394,94194.500,15848,2,ER,1,100,1.549937
1576517124.040550,94251.000,15848,2,ER,1,100,1.551910
1576517124.107111,94307.000,15864,2,ER,1,100,1.551105
1576517124.173673,94363.000,15864,2,ER,1,100,1.551548
1576517124.237263,94416.500,15882,2,ER,1,100,1.551306
1576517124.300853,94470.000,15882,2,ER,1,100,1.551467
1576517124.365038,94524.000,15900,1,ER,1,100,1.554730
1576517124.435165,94583.000,15918,2,ER,1,100,1.556744
1576517124.505293,94642.000,15918,2,ER,1,100,1.560410
1576517124.572449,94698.500,15937,2,ER,1,100,1.562142
1576517124.639605,94755.000,15937,2,ER,1,100,1.568346
1576517124.706761,94811.500,15955,2,ER,1,100,1.569232
1576517124.773916,94868.000,15955,2,ER,1,100,1.573986
1576517124.836516,94920.667,15976,3,ER,1,100,1.574751
1576517124.899116,94973.333,15976,3,ER,1,100,1.575436
1576517124.961715,95026.000,15976,3,ER,1,100,1.578538
1576517125.028277,95082.000,15996,1,ER,1,100,1.583049
1576517125.096622,95139.500,16014,2,ER,1,100,1.589898
1576517125.164966,95197.000,16014,2,ER,1,100,1.593603
1576517125.234499,95255.500,16032,2,ER,1,100,1.597753
1576517125.304032,95314.000,16032,2,ER,1,100,1.605890
1576517125.367623,95367.500,16050,2,ER,1,100,1.609556
1576517125.431213,95421.000,16050,2,ER,1,100,1.615920
1576517125.494803,95474.500,16068,2,ER,1,100,1.618780
1576517125.558393,95528.000,16068,2,ER,1,100,1.623735
1576517125.627332,95586.000,16087,1,ER,1,100,1.628287
1576517125.690922,95639.500,16104,2,ER,1,100,1.632316
1576517125.754512,95693.000,16104,2,ER,1,100,1.640372
1576517125.821074,95749.000,16122,2,ER,1,100,1.643111
1576517125.887635,95805.000,16122,2,ER,1,100,1.646294
1576517125.953008,95860.000,16140,2,ER,1,100,1.649436
1576517126.018381,95915.000,16140,2,ER,1,100,1.654391
1576517126.085537,95971.500,16157,2,ER,1,100,1.655237
1576517126.152693,96028.000,16157,2,ER,1,100,1.658459
1576517126.222821,96087.000,16174,1,ER,1,100,1.662246
1576517126.291760,96145.000,16192,2,ER,1,100,1.664945
1576517126.360698,96203.000,16192,2,ER,1,100,1.670504
1576517126.424883,96257.000,16210,2,ER,1,100,1.669698
1576517126.489067,96311.000,16210,2,ER,1,100,1.674532
1576517126.553252,96365.000,16229,2,ER,1,100,1.678158
1576517126.617436,96419.000,16229,2,ER,1,100,1.679769
1576517126.684592,96475.500,16247,2,ER,1,100,1.680857
1576517126.751748,96532.000,16247,2,ER,1,100,1.684523
1576517126.823064,96592.000,16265,1,ER,1,100,1.683193
1576517126.892003,96650.000,16283,2,ER,1,100,1.683475
1576517126.960942,96708.000,16283,2,ER,1,100,1.673686
1576517127.025721,96762.500,16300,2,ER,1,100,1.663455
1576517127.090499,96817.000,16300,2,ER,1,100,1.662528
1576517127.153495,96870.000,16318,2,ER,1,100,1.668772
1576517127.216491,96923.000,16318,2,ER,1,100,1.687826
1576517127.283053,96979.000,16336,2,ER,1,100,1.692982
1576517127.349614,97035.000,16336,2,ER,1,100,1.704584
1576517127.417365,97092.000,16352,2,ER,1,100,1.698340
1576517127.485115,97149.000,16352,2,ER,1,100,1.694795
1576517127.554054,97207.000,16371,1,ER,1,100,1.692861
1576517127.621210,97263.500,16389,2,ER,1,100,1.694795
1576517127.688365,97320.000,16389,2,ER,1,100,1.699065
1576517127.750173,97372.000,16407,2,ER,1,100,1.692660
1576517127.811980,97424.000,16407,2,ER,1,100,1.682670
1576517127.879730,97481.000,16425,2,ER,1,100,1.668812
1576517127.947480,97538.000,16425,2,ER,1,100,1.689598
1576517128.017014,97596.500,16443,2,ER,1,100,1.694352
1576517128.086547,97655.000,16443,2,ER,1,100,1.707001
1576517128.153108,97711.000,16461,1,ER,1,100,1.715742
1576517128.221453,97768.500,16478,2,ER,1,100,1.720294
1576517128.289798,97826.000,16478,2,ER,1,100,1.715702
1576517128.351605,97878.000,16496,2,ER,1,100,1.711069
1576517128.413412,97930.000,16496,2,ER,1,100,1.709740
1576517128.479379,97985.500,16514,2,ER,1,100,1.692015
1576517128.545346,98041.000,16514,2,ER,1,100,1.684603
1576517128.615474,98100.000,16531,2,ER,1,100,1.680978
1576517128.685601,98159.000,16531,2,ER,1,100,1.679648
1576517128.750974,98214.000,16549,1,ER,1,100,1.675983
1576517128.819319,98271.500,16567,2,ER,1,100,1.672599
1576517128.887664,98329.000,16567,2,ER,1,100,1.669537
1576517128.949471,98381.000,16585,2,ER,1,100,1.656284
1576517129.011278,98433.000,16585,2,ER,1,100,1.656808
1576517129.075463,98487.000,16603,2,ER,1,100,1.658137
1576517129.139647,98541.000,16603,2,ER,1,100,1.649758
1576517129.209774,98600.000,16621,2,ER,1,100,1.640936
1576517129.279902,98659.000,16621,2,ER,1,100,1.638882
1576517129.345275,98714.000,16639,1,ER,1,100,1.634370
1576517129.417185,98774.500,16656,2,ER,1,100,1.629415
1576517129.489096,98835.000,16656,2,ER,1,100,1.628167
1576517129.557440,98892.500,16675,2,ER,1,100,1.623292
1576517129.625785,98950.000,16675,2,ER,1,100,1.623937
1576517129.694129,99007.500,16691,2,ER,1,100,1.619103
1576517129.762474,99065.000,16691,2,ER,1,100,1.617814
1576517129.833790,99125.000,16709,1,ER,1,100,1.617089
1576517129.900946,99181.500,16727,2,ER,1,100,1.615316
1576517129.968102,99238.000,16727,2,ER,1,100,1.618619
1576517130.038823,99297.500,16745,2,ER,1,100,1.615034
1576517130.109545,99357.000,16745,2,ER,1,100,1.614148
1576517130.172541,99410.000,16763,2,ER,1,100,1.612617
1576517130.235537,99463.000,16763,2,ER,1,100,1.616323
1576517130.299127,99516.500,16781,2,ER,1,100,1.619344
1576517130.362717,99570.000,16781,2,ER,1,100,1.621197
1576517130.430467,99627.000,16799,1,ER,1,100,1.624178
1576517130.497623,99683.500,16817,2,ER,1,100,1.624058
1576517130.564779,99740.000,16817,2,ER,1,100,1.626918
1576517130.636095,99800.000,16835,2,ER,1,100,1.627804
1576517130.707411,99860.000,16835,2,ER,1,100,1.632235
1576517130.772190,99914.500,16851,2,ER,1,100,1.633766
1576517130.836969,99969.000,16851,2,ER,1,100,1.636989
1576517130.900757,100022.667,16872,3,ER,1,100,1.639889
1576517130.964545,100076.333,16872,3,ER,1,100,1.643917
1576517131.028333,100130.000,16872,3,ER,1,100,1.646979
1576517131.097272,100188.000,16892,1,ER,1,100,1.647543
1576517131.164428,100244.500,16909,2,ER,1,100,1.650040
1576517131.231584,100301.000,16909,2,ER,1,100,1.646938
1576517131.301117,100359.500,16927,2,ER,1,100,1.642266
1576517131.370651,100418.000,16927,2,ER,1,100,1.646536
1576517131.433052,100470.500,16945,2,ER,1,100,1.647059
1576517131.495454,100523.000,16945,2,ER,1,100,1.651652
1576517131.559638,100577.000,16962,2,ER,1,100,1.651491
1576517131.623822,100631.000,16962,2,ER,1,100,1.654794
1576517131.692167,100688.500,16980,2,ER,1,100,1.657654
1576517131.760512,100746.000,16980,2,ER,1,100,1.662045
1576517131.828262,100803.000,16998,1,ER,1,100,1.666718
1576517131.897795,100861.500,17016,2,ER,1,100,1.667080
1576517131.967328,100920.000,17016,2,ER,1,100,1.668288
1576517132.032701,100975.000,17034,2,ER,1,100,1.670504
1576517132.098074,101030.000,17034,2,ER,1,100,1.676265
1576517132.160476,101082.500,17052,2,ER,1,100,1.671995
1576517132.222877,101135.000,17052,2,ER,1,100,1.674250
1576517132.291222,101192.500,17070,2,ER,1,100,1.678400
1576517132.359566,101250.000,17070,2,ER,1,100,1.678722
1576517132.427317,101307.000,17088,1,ER,1,100,1.678077
1576517132.496255,101365.000,17105,2,ER,1,100,1.671753
1576517132.565194,101423.000,17105,2,ER,1,100,1.671310
1576517132.630567,101478.000,17124,2,ER,1,100,1.673002
1576517132.695940,101533.000,17124,2,ER,1,100,1.675016
1576517132.757748,101585.000,17140,2,ER,1,100,1.671914
1576517132.819555,101637.000,17140,2,ER,1,100,1.672518
1576517132.886711,101693.500,17158,2,ER,1,100,1.670625
1576517132.953867,101750.000,17158,2,ER,1,100,1.669819
1576517133.021617,101807.000,17176,1,ER,1,100,1.669336
1576517133.090556,101865.000,17194,2,ER,1,100,1.670544
1576517133.159495,101923.000,17194,2,ER,1,100,1.672035
1576517133.226650,101979.500,17212,2,ER,1,100,1.672679
1576517133.293807,102036.000,17212,2,ER,1,100,1.676023
1576517133.359179,102091.000,17230,2,ER,1,100,1.672035
1576517133.424553,102146.000,17230,2,ER,1,100,1.681179
1576517133.487548,102199.000,17248,2,ER,1,100,1.681824
1576517133.550544,102252.000,17248,2,ER,1,100,1.684160
1576517133.619483,102310.000,17267,1,ER,1,100,1.687423
1576517133.683073,102363.500,17284,2,ER,1,100,1.691170
1576517133.746663,102417.000,17284,2,ER,1,100,1.692257
1576517133.811442,102471.500,17302,2,ER,1,100,1.689598
1576517133.876221,102526.000,17302,2,ER,1,100,1.692781
1576517133.943377,102582.500,17320,2,ER,1,100,1.690807
1576517134.010533,102639.000,17320,2,ER,1,100,1.698179
1576517134.078283,102696.000,17337,2,ER,1,100,1.694271
1576517134.146033,102753.000,17337,2,ER,1,100,1.698823
1576517134.217349,102813.000,17354,1,ER,1,100,1.699387
1576517134.282722,102868.000,17372,2,ER,1,100,1.699790
1576517134.348095,102923.000,17372,2,ER,1,100,1.700153
1576517134.412280,102977.000,17390,2,ER,1,100,1.699790
1576517134.476464,103031.000,17390,2,ER,1,100,1.702046
1576517134.544809,103088.500,17409,2,ER,1,100,1.700918
1576517134.613153,103146.000,17409,2,ER,1,100,1.700596
1576517134.677338,103200.000,17427,2,ER,1,100,1.695520
1576517134.741522,103254.000,17427,2,ER,1,100,1.696366
1576517134.811055,103312.500,17445,2,ER,1,100,1.695037
1576517134.880589,103371.000,17445,2,ER,1,100,1.692660
1576517134.949527,103429.000,17463,1,ER,1,100,1.692579
1576517135.019060,103487.500,17480,2,ER,1,100,1.689921
1576517135.088593,103546.000,17480,2,ER,1,100,1.690364
1576517135.150401,103598.000,17498,2,ER,1,100,1.688793
1576517135.212208,103650.000,17498,2,ER,1,100,1.690807
1576517135.276987,103704.500,17514,2,ER,1,100,1.689639
1576517135.341766,103759.000,17514,2,ER,1,100,1.690565
1576517135.408921,103815.500,17532,2,ER,1,100,1.689840
1576517135.476077,103872.000,17532,2,ER,1,100,1.690041
1576517135.543828,103929.000,17551,1,ER,1,100,1.690887
1576517135.613955,103988.000,17569,2,ER,1,100,1.690243
1576517135.684083,104047.000,17569,2,ER,1,100,1.693385
1576517135.746484,104099.500,17587,2,ER,1,100,1.692861
1576517135.808886,104152.000,17587,2,ER,1,100,1.696930
1576517135.873664,104206.500,17605,2,ER,1,100,1.695520
1576517135.938443,104261.000,17605,2,ER,1,100,1.699629
1576517136.006788,104318.500,17623,2,ER,1,100,1.699266
1576517136.075132,104376.000,17623,2,ER,1,100,1.701683
1576517136.141694,104432.000,17641,1,ER,1,100,1.703375
1576517136.211227,104490.500,17658,2,ER,1,100,1.705631
1576517136.280760,104549.000,17658,2,ER,1,100,1.709297
1576517136.344350,104602.500,17676,2,ER,1,100,1.708451
1576517136.407940,104656.000,17676,2,ER,1,100,1.709055
1576517136.470936,104709.000,17694,2,ER,1,100,1.707605
1576517136.533932,104762.000,17694,2,ER,1,100,1.710868
1576517136.602277,104819.500,17711,2,ER,1,100,1.711190
1576517136.670621,104877.000,17711,2,ER,1,100,1.719771
1576517136.737183,104933.000,17729,1,ER,1,100,1.715460
1576517136.806716,104991.500,17747,2,ER,1,100,1.715662
1576517136.876249,105050.000,17747,2,ER,1,100,1.714010
1576517136.940434,105104.000,17768,3,ER,1,100,1.714050
1576517137.004618,105158.000,17768,3,ER,1,100,1.714292
1576517137.068802,105212.000,17768,3,ER,1,100,1.707363
1576517137.134176,105267.000,17788,2,ER,1,100,1.701160
1576517137.199548,105322.000,17788,2,ER,1,100,1.710546
1576517137.266704,105378.500,17806,2,ER,1,100,1.726659
1576517137.333860,105435.000,17806,2,ER,1,100,1.718481
1576517137.405176,105495.000,17822,1,ER,1,100,1.698058
1576517137.472332,105551.500,17841,2,ER,1,100,1.704302
1576517137.539488,105608.000,17841,2,ER,1,100,1.699508
1576517137.609616,105667.000,17859,2,ER,1,100,1.703053
1576517137.679743,105726.000,17859,2,ER,1,100,1.713889
1576517137.748088,105783.500,17877,2,ER,1,100,1.722147
1576517137.816432,105841.000,17877,2,ER,1,100,1.734595
1576517137.884777,105898.500,17895,2,ER,1,100,1.731050
1576517137.953121,105956.000,17895,2,ER,1,100,1.739872
1576517138.022060,106014.000,17913,1,ER,1,100,1.750789
1576517138.085056,106067.000,17930,2,ER,1,100,1.671189
1576517138.148052,106120.000,17930,2,ER,1,100,1.682468
1576517138.213425,106175.000,17948,2,ER,1,100,1.697655
1576517138.278798,106230.000,17948,2,ER,1,100,1.722751
1576517138.346548,106287.000,17966,2,ER,1,100,1.738502
1576517138.414298,106344.000,17966,2,ER,1,100,1.743215
1576517138.483237,106402.000,17982,2,ER,1,100,1.710384
1576517138.552176,106460.000,17982,2,ER,1,100,1.725168
1576517138.619926,106517.000,18001,1,ER,1,100,1.731735
1576517138.684111,106571.000,18019,2,ER,1,100,1.712640
1576517138.748295,106625.000,18019,2,ER,1,100,1.686497
1576517138.812480,106679.000,18037,2,ER,1,100,1.712197
1576517138.876664,106733.000,18037,2,ER,1,100,1.734111
1576517138.943820,106789.500,18055,2,ER,1,100,1.736488
1576517139.010976,106846.000,18055,2,ER,1,100,1.734393
1576517139.079320,106903.500,18073,2,ER,1,100,1.736851
1576517139.147665,106961.000,18073,2,ER,1,100,1.702570
1576517139.216604,107019.000,18091,1,ER,1,100,1.701522
1576517139.281977,107074.000,18108,2,ER,1,100,1.728874
1576517139.347350,107129.000,18108,2,ER,1,100,1.708451
1576517139.412129,107183.500,18126,2,ER,1,100,1.712681
1576517139.476907,107238.000,18126,2,ER,1,100,1.734917
1576517139.543469,107294.000,18145,2,ER,1,100,1.735400
1576517139.610031,107350.000,18145,2,ER,1,100,1.738341
1576517139.679564,107408.500,18161,2,ER,1,100,1.730365
1576517139.749097,107467.000,18161,2,ER,1,100,1.710062
1576517139.816847,107524.000,18179,1,ER,1,100,1.725571
1576517139.883409,107580.000,18197,2,ER,1,100,1.727464
1576517139.949970,107636.000,18197,2,ER,1,100,1.718602
1576517140.013561,107689.500,18215,2,ER,1,100,1.722510
1576517140.077151,107743.000,18215,2,ER,1,100,1.727706
1576517140.143118,107798.500,18233,2,ER,1,100,1.725571
1576517140.209085,107854.000,18233,2,ER,1,100,1.728794
1576517140.278024,107912.000,18251,2,ER,1,100,1.721986
1576517140.346963,107970.000,18251,2,ER,1,100,1.718844
1576517140.414713,108027.000,18269,1,ER,1,100,1.725732
1576517140.482464,108084.000,18287,2,ER,1,100,1.721664
1576517140.550214,108141.000,18287,2,ER,1,100,1.720657
1576517140.612615,108193.500,18305,2,ER,1,100,1.719771
1576517140.675017,108246.000,18305,2,ER,1,100,1.720415
1576517140.740390,108301.000,18323,2,ER,1,100,1.719327
1576517140.805763,108356.000,18323,2,ER,1,100,1.720778
1576517140.873513,108413.000,18339,2,ER,1,100,1.717031
1576517140.941263,108470.000,18339,2,ER,1,100,1.720335
1576517141.012580,108530.000,18357,1,ER,1,100,1.718925
1576517141.081518,108588.000,18375,2,ER,1,100,1.716508
1576517141.150457,108646.000,18375,2,ER,1,100,1.717152
1576517141.221773,108706.000,18393,2,ER,1,100,1.715420
1576517141.293089,108766.000,18393,2,ER,1,100,1.716991
1576517141.360840,108823.000,18411,2,ER,1,100,1.714010
1576517141.428590,108880.000,18411,2,ER,1,100,1.711754
1576517141.498717,108939.000,18429,1,ER,1,100,1.709619
1576517141.564090,108994.000,18447,2,ER,1,100,1.706920
1576517141.629463,109049.000,18447,2,ER,1,100,1.703174
1576517141.693053,109102.500,18465,2,ER,1,100,1.697574
1576517141.756644,109156.000,18465,2,ER,1,100,1.697292
1576517141.824394,109213.000,18483,2,ER,1,100,1.692620
1576517141.892144,109270.000,18483,2,ER,1,100,1.689437
1576517141.961677,109328.500,18499,2,ER,1,100,1.683798
1576517142.031210,109387.000,18499,2,ER,1,100,1.680937
1576517142.098961,109444.000,18517,1,ER,1,100,1.678239
1576517142.167305,109501.500,18535,2,ER,1,100,1.673324
1576517142.235650,109559.000,18535,2,ER,1,100,1.671471
1576517142.304589,109617.000,18553,2,ER,1,100,1.666718
1576517142.373528,109675.000,18553,2,ER,1,100,1.664381
1576517142.438306,109729.500,18571,2,ER,1,100,1.659708
1576517142.503085,109784.000,18571,2,ER,1,100,1.657452
1576517142.566081,109837.000,18590,2,ER,1,100,1.655116
1576517142.629076,109890.000,18590,2,ER,1,100,1.653303
1576517142.696827,109947.000,18608,1,ER,1,100,1.652659
1576517142.764577,110004.000,18625,2,ER,1,100,1.650685
1576517142.832327,110061.000,18625,2,ER,1,100,1.651289
1576517142.901860,110119.500,18643,2,ER,1,100,1.648912
1576517142.971394,110178.000,18643,2,ER,1,100,1.649960
1576517143.035578,110232.000,18662,3,ER,1,100,1.648550
1576517143.099762,110286.000,18662,3,ER,1,100,1.650725
1576517143.163947,110340.000,18662,3,ER,1,100,1.650040
1576517143.230509,110396.000,18682,2,ER,1,100,1.650242
1576517143.297070,110452.000,18682,2,ER,1,100,1.654874
1576517143.363632,110508.000,18700,1,ER,1,100,1.655640
1576517143.433165,110566.500,18717,2,ER,1,100,1.656526
1576517143.502698,110625.000,18717,2,ER,1,100,1.661038
1576517143.571043,110682.500,18736,2,ER,1,100,1.659587
1576517143.639387,110740.000,18736,2,ER,1,100,1.663857
1576517143.702383,110793.000,18752,2,ER,1,100,1.664139
1576517143.765379,110846.000,18752,2,ER,1,100,1.666919
1576517143.830752,110901.000,18770,2,ER,1,100,1.668087
1576517143.896125,110956.000,18770,2,ER,1,100,1.669618
1576517143.962687,111012.000,18788,1,ER,1,100,1.672035
1576517144.032220,111070.500,18806,2,ER,1,100,1.673042
1576517144.101753,111129.000,18806,2,ER,1,100,1.675378
1576517144.168909,111185.500,18824,2,ER,1,100,1.675620
1576517144.236065,111242.000,18824,2,ER,1,100,1.679407
1576517144.299655,111295.500,18842,2,ER,1,100,1.679286
1576517144.363245,111349.000,18842,2,ER,1,100,1.681582
1576517144.426835,111402.500,18860,2,ER,1,100,1.682267
1576517144.490425,111456.000,18860,2,ER,1,100,1.684080
1576517144.556393,111511.500,18879,2,ER,1,100,1.686456
1576517144.622360,111567.000,18879,2,ER,1,100,1.688068
1576517144.694865,111628.000,18897,1,ER,1,100,1.690082
1576517144.763209,111685.500,18914,2,ER,1,100,1.689437
1576517144.831554,111743.000,18914,2,ER,1,100,1.692297
1576517144.895144,111796.500,18932,2,ER,1,100,1.692136
1576517144.958734,111850.000,18932,2,ER,1,100,1.694029
1576517145.027673,111908.000,18948,2,ER,1,100,1.695601
1576517145.096612,111966.000,18948,2,ER,1,100,1.695520
1576517145.157230,112017.000,18966,1,ER,1,100,1.697172
1576517145.226169,112075.000,18984,2,ER,1,100,1.697937
1576517145.295108,112133.000,18984,2,ER,1,100,1.699790
1576517145.356915,112185.000,19002,2,ER,1,100,1.699105
1576517145.418722,112237.000,19002,2,ER,1,100,1.702972
1576517145.482907,112291.000,19021,2,ER,1,100,1.702046
1576517145.547091,112345.000,19021,2,ER,1,100,1.704100
1576517145.616030,112403.000,19039,2,ER,1,100,1.702892
1576517145.684969,112461.000,19039,2,ER,1,100,1.705349
1576517145.753314,112518.500,19057,2,ER,1,100,1.704423
1576517145.821658,112576.000,19057,2,ER,1,100,1.707323
1576517145.892974,112636.000,19075,1,ER,1,100,1.705832
1576517145.959536,112692.000,19092,2,ER,1,100,1.705349
1576517146.026098,112748.000,19092,2,ER,1,100,1.709136
1576517146.093848,112805.000,19110,2,ER,1,100,1.705792
1576517146.161598,112862.000,19110,2,ER,1,100,1.707121
1576517146.225188,112915.500,19126,2,ER,1,100,1.706880
1576517146.288778,112969.000,19126,2,ER,1,100,1.708209
1576517146.353557,113023.500,19144,2,ER,1,100,1.709055
1576517146.418336,113078.000,19144,2,ER,1,100,1.710586
1576517146.487274,113136.000,19162,1,ER,1,100,1.712318
1576517146.554430,113192.500,19181,2,ER,1,100,1.710505
1576517146.621586,113249.000,19181,2,ER,1,100,1.706638
1576517146.691119,113307.500,19199,2,ER,1,100,1.706276
1576517146.760653,113366.000,19199,2,ER,1,100,1.706920
1576517146.823054,113418.500,19217,2,ER,1,100,1.700716
1576517146.885456,113471.000,19217,2,ER,1,100,1.697615
1576517146.949046,113524.500,19235,2,ER,1,100,1.694674
1576517147.012636,113578.000,19235,2,ER,1,100,1.691492
1576517147.080386,113635.000,19253,1,ER,1,100,1.688551
1576517147.147542,113691.500,19270,2,ER,1,100,1.685207
1576517147.214698,113748.000,19270,2,ER,1,100,1.674573
1576517147.284826,113807.000,19288,2,ER,1,100,1.662286
1576517147.354953,113866.000,19288,2,ER,1,100,1.664623
1576517147.419137,113920.000,19304,2,ER,1,100,1.650322
1576517147.483322,113974.000,19304,2,ER,1,100,1.635498
1576517147.546318,114027.000,19323,2,ER,1,100,1.632275
1576517147.609313,114080.000,19323,2,ER,1,100,1.631752
1576517147.677658,114137.500,19341,2,ER,1,100,1.625911
1576517147.746003,114195.000,19341,2,ER,1,100,1.631429
1576517147.813753,114252.000,19359,1,ER,1,100,1.623171
1576517147.882692,114310.000,19377,2,ER,1,100,1.588125
1576517147.951631,114368.000,19377,2,ER,1,100,1.606132
1576517148.015221,114421.500,19395,2,ER,1,100,1.615920
1576517148.078811,114475.000,19395,2,ER,1,100,1.599203
1576517148.142401,114528.500,19413,2,ER,1,100,1.578256
1576517148.205991,114582.000,19413,2,ER,1,100,1.586675
1576517148.273147,114638.500,19431,2,ER,1,100,1.591227
1576517148.340303,114695.000,19431,2,ER,1,100,1.597511
1576517148.408053,114752.000,19449,1,ER,1,100,1.626595
1576517148.476398,114809.500,19467,2,ER,1,100,1.619103
1576517148.544742,114867.000,19467,2,ER,1,100,1.554166
1576517148.610710,114922.500,19485,2,ER,1,100,1.598035
1576517148.676677,114978.000,19485,2,ER,1,100,1.615034
1576517148.741456,115032.500,19503,2,ER,1,100,1.577087
1576517148.806235,115087.000,19503,2,ER,1,100,1.548809
1576517148.869230,115140.000,19519,2,ER,1,100,1.581035
1576517148.932226,115193.000,19519,2,ER,1,100,1.605890
1576517148.998194,115248.500,19537,2,ER,1,100,1.630422
1576517149.064161,115304.000,19537,2,ER,1,100,1.651652
1576517149.128742,115358.333,19558,3,ER,1,100,1.665992
1576517149.193322,115412.667,19558,3,ER,1,100,1.663374
1576517149.257903,115467.000,19558,3,ER,1,100,1.704987
1576517149.322087,115521.000,19578,1,ER,1,100,1.668611
1576517149.391620,115579.500,19595,2,ER,1,100,1.580552
1576517149.461154,115638.000,19595,2,ER,1,100,1.594852
1576517149.529498,115695.500,19614,2,ER,1,100,1.584419
1576517149.597843,115753.000,19614,2,ER,1,100,1.625548
1576517149.662027,115807.000,19630,2,ER,1,100,1.665187
1576517149.726212,115861.000,19630,2,ER,1,100,1.713204
1576517149.790396,115915.000,19648,1,ER,1,100,1.716226
1576517149.856363,115970.500,19666,2,ER,1,100,1.694311
1576517149.922331,116026.000,19666,2,ER,1,100,1.660957
1576517149.990675,116083.500,19684,2,ER,1,100,1.635901
1576517150.059020,116141.000,19684,2,ER,1,100,1.570038
1576517150.126176,116197.500,19702,2,ER,1,100,1.582203
1576517150.193331,116254.000,19702,2,ER,1,100,1.636666
1576517150.262270,116312.000,19720,2,ER,1,100,1.680615
1576517150.331209,116370.000,19720,2,ER,1,100,1.700797
1576517150.397771,116426.000,19738,1,ER,1,100,1.704221
1576517150.464333,116482.000,19756,2,ER,1,100,1.684563
1576517150.530894,116538.000,19756,2,ER,1,100,1.721543
1576517150.593890,116591.000,19774,2,ER,1,100,1.752762
1576517150.656886,116644.000,19774,2,ER,1,100,1.694352
1576517150.722853,116699.500,19792,2,ER,1,100,1.576604
1576517150.788821,116755.000,19792,2,ER,1,100,1.583895
1576517150.858354,116813.500,19808,2,ER,1,100,1.616766
1576517150.927887,116872.000,19808,2,ER,1,100,1.673888
1576517150.994448,116928.000,19826,1,ER,1,100,1.702287
1576517151.062793,116985.500,19844,2,ER,1,100,1.730687
1576517151.131138,117043.000,19844,2,ER,1,100,1.747485
1576517151.194728,117096.500,19862,2,ER,1,100,1.755421
1576517151.258318,117150.000,19862,2,ER,1,100,1.750345
1576517151.323097,117204.500,19880,2,ER,1,100,1.784828
1576517151.387875,117259.000,19880,2,ER,1,100,1.789340
1576517151.457408,117317.500,19898,2,ER,1,100,1.680011
1576517151.526942,117376.000,19898,2,ER,1,100,1.761383
1576517151.594692,117433.000,19917,1,ER,1,100,1.709095
1576517151.663036,117490.500,19934,2,ER,1,100,1.690001
1576517151.731381,117548.000,19934,2,ER,1,100,1.688470
1576517151.793782,117600.500,19952,2,ER,1,100,1.685852
1576517151.856184,117653.000,19952,2,ER,1,100,1.690202
1576517151.922151,117708.500,19970,2,ER,1,100,1.691814
1576517151.988119,117764.000,19970,2,ER,1,100,1.702489
1576517152.055869,117821.000,19986,2,ER,1,100,1.678843
1576517152.123619,117878.000,19986,2,ER,1,100,1.696446
1576517152.191369,117935.000,20004,1,ER,1,100,1.683596
1576517152.261497,117994.000,20022,2,ER,1,100,1.648993
1576517152.331624,118053.000,20022,2,ER,1,100,1.683798
1576517152.394026,118105.500,20040,2,ER,1,100,1.714010
1576517152.456427,118158.000,20040,2,ER,1,100,1.733870
1576517152.521206,118212.500,20059,2,ER,1,100,1.745834
1576517152.585985,118267.000,20059,2,ER,1,100,1.756307
1576517152.649575,118320.500,20077,2,ER,1,100,1.754616
1576517152.713165,118374.000,20077,2,ER,1,100,1.732419
1576517152.781510,118431.500,20095,2,ER,1,100,1.717676
1576517152.849854,118489.000,20095,2,ER,1,100,1.720254
1576517152.916416,118545.000,20113,1,ER,1,100,1.712963
1576517152.986543,118604.000,20130,2,ER,1,100,1.713406
1576517153.056671,118663.000,20130,2,ER,1,100,1.730446
1576517153.125015,118720.500,20148,2,ER,1,100,1.715178
1576517153.193360,118778.000,20148,2,ER,1,100,1.701925
1576517153.261704,118835.500,20164,2,ER,1,100,1.656445
1576517153.330049,118893.000,20164,2,ER,1,100,1.668127
1576517153.396610,118949.000,20182,1,ER,1,100,1.677473
1576517153.459606,119002.000,20201,2,ER,1,100,1.682871
1576517153.522602,119055.000,20201,2,ER,1,100,1.697172
1576517153.588570,119110.500,20219,2,ER,1,100,1.701039
1576517153.654537,119166.000,20219,2,ER,1,100,1.707766
1576517153.722287,119223.000,20237,2,ER,1,100,1.712842
1576517153.790037,119280.000,20237,2,ER,1,100,1.717676
1576517153.856599,119336.000,20255,2,ER,1,100,1.715581
1576517153.923161,119392.000,20255,2,ER,1,100,1.717756
1576517153.993288,119451.000,20273,1,ER,1,100,1.718844
1576517154.062821,119509.500,20290,2,ER,1,100,1.716548
1576517154.132354,119568.000,20290,2,ER,1,100,1.719771
1576517154.198322,119623.500,20308,2,ER,1,100,1.720012
1576517154.264289,119679.000,20308,2,ER,1,100,1.725934
1576517154.327285,119732.000,20326,2,ER,1,100,1.728310
1576517154.390281,119785.000,20326,2,ER,1,100,1.741040
1576517154.456842,119841.000,20342,2,ER,1,100,1.744585
1576517154.523404,119897.000,20342,2,ER,1,100,1.734877
1576517154.589966,119953.000,20361,1,ER,1,100,1.736891
1576517154.658905,120011.000,20379,2,ER,1,100,1.760054
1576517154.727843,120069.000,20379,2,ER,1,100,1.748170
1576517154.796188,120126.500,20397,2,ER,1,100,1.735723
1576517154.864532,120184.000,20397,2,ER,1,100,1.736005
1576517154.926340,120236.000,20415,2,ER,1,100,1.724040
1576517154.988147,120288.000,20415,2,ER,1,100,1.711593
1576517155.054114,120343.500,20433,2,ER,1,100,1.697373
1576517155.120082,120399.000,20433,2,ER,1,100,1.694755
1576517155.189020,120457.000,20454,3,ER,1,100,1.699830
1576517155.257959,120515.000,20454,3,ER,1,100,1.687826
1576517155.326898,120573.000,20454,3,ER,1,100,1.635136
1576517155.395837,120631.000,20474,1,ER,1,100,1.512997
1576517155.461210,120686.000,20492,2,ER,1,100,1.656123
1576517155.526583,120741.000,20492,2,ER,1,100,1.733185
1576517155.589579,120794.000,20511,2,ER,1,100,1.739832
1576517155.652575,120847.000,20511,2,ER,1,100,1.732822
1576517155.719731,120903.500,20529,2,ER,1,100,1.728552
1576517155.786887,120960.000,20529,2,ER,1,100,1.745753
1576517155.855825,121018.000,20547,2,ER,1,100,1.748855
1576517155.924764,121076.000,20547,2,ER,1,100,1.742692
1576517155.992515,121133.000,20565,1,ER,1,100,1.738986
1576517156.059670,121189.500,20582,2,ER,1,100,1.731936
1576517156.126826,121246.000,20582,2,ER,1,100,1.731896
1576517156.189228,121298.500,20600,2,ER,1,100,1.740275
1576517156.251629,121351.000,20600,2,ER,1,100,1.740395
1576517156.318191,121407.000,20618,2,ER,1,100,1.722711
1576517156.384753,121463.000,20618,2,ER,1,100,1.718079
1576517156.449532,121517.500,20634,2,ER,1,100,1.715782
1576517156.514310,121572.000,20634,2,ER,1,100,1.716064
1576517156.582061,121629.000,20653,1,ER,1,100,1.713768
1576517156.650999,121687.000,20671,2,ER,1,100,1.714171
1576517156.719938,121745.000,20671,2,ER,1,100,1.716709
1576517156.790660,121804.500,20689,2,ER,1,100,1.716105
1576517156.861382,121864.000,20689,2,ER,1,100,1.715742
1576517156.929132,121921.000,20707,2,ER,1,100,1.710143
1576517156.996882,121978.000,20707,2,ER,1,100,1.711955
1576517157.068198,122038.000,20725,1,ER,1,100,1.710223
1576517157.132383,122092.000,20742,2,ER,1,100,1.710022
1576517157.196567,122146.000,20742,2,ER,1,100,1.709176
1576517157.260157,122199.500,20760,2,ER,1,100,1.707444
1576517157.323747,122253.000,20760,2,ER,1,100,1.710425
1576517157.392092,122310.500,20778,2,ER,1,100,1.705873
1576517157.460436,122368.000,20778,2,ER,1,100,1.707444
1576517157.529375,122426.000,20795,2,ER,1,100,1.711915
1576517157.598314,122484.000,20795,2,ER,1,100,1.711593
1576517157.667253,122542.000,20813,1,ER,1,100,1.705389
1576517157.735003,122599.000,20831,2,ER,1,100,1.699951
1576517157.802753,122656.000,20831,2,ER,1,100,1.703214
1576517157.872287,122714.500,20849,2,ER,1,100,1.702287
1576517157.941820,122773.000,20849,2,ER,1,100,1.699669
1576517158.004221,122825.500,20867,2,ER,1,100,1.694110
1576517158.066623,122878.000,20867,2,ER,1,100,1.694634
1576517158.129619,122931.000,20885,2,ER,1,100,1.691653
1576517158.192615,122984.000,20885,2,ER,1,100,1.694594
1576517158.260365,123041.000,20903,1,ER,1,100,1.691612
1576517158.328115,123098.000,20921,2,ER,1,100,1.693909
1576517158.395865,123155.000,20921,2,ER,1,100,1.696205
1576517158.465398,123213.500,20938,2,ER,1,100,1.693788
1576517158.534931,123272.000,20938,2,ER,1,100,1.695520
1576517158.600305,123327.000,20956,2,ER,1,100,1.693506
1576517158.665678,123382.000,20956,2,ER,1,100,1.694634
1576517158.727485,123434.000,20973,2,ER,1,100,1.691814
1576517158.789292,123486.000,20973,2,ER,1,100,1.694271
1576517158.857636,123543.500,20991,2,ER,1,100,1.692096
1576517158.925981,123601.000,20991,2,ER,1,100,1.691129
1576517158.993731,123658.000,21009,1,ER,1,100,1.691411
1576517159.062670,123716.000,21027,2,ER,1,100,1.689719
1576517159.131609,123774.000,21027,2,ER,1,100,1.690202
1576517159.198171,123830.000,21045,2,ER,1,100,1.688068
1576517159.264732,123886.000,21045,2,ER,1,100,1.689760
1576517159.325945,123937.500,21063,2,ER,1,100,1.685812
1576517159.387158,123989.000,21063,2,ER,1,100,1.686617
1576517159.455503,124046.500,21081,2,ER,1,100,1.684361
1576517159.523847,124104.000,21081,2,ER,1,100,1.684281
1576517159.591598,124161.000,21100,1,ER,1,100,1.683193
1576517159.660536,124219.000,21117,2,ER,1,100,1.680454
1576517159.729475,124277.000,21117,2,ER,1,100,1.681502
1576517159.796631,124333.500,21135,2,ER,1,100,1.678077
1576517159.863787,124390.000,21135,2,ER,1,100,1.678400
1576517159.925594,124442.000,21151,2,ER,1,100,1.675459
1576517159.987401,124494.000,21151,2,ER,1,100,1.675217
1576517160.052775,124549.000,21169,2,ER,1,100,1.672478
1576517160.118148,124604.000,21169,2,ER,1,100,1.672317
1576517160.189464,124664.000,21187,1,ER,1,100,1.671834
1576517160.256025,124720.000,21205,2,ER,1,100,1.669578
1576517160.322587,124776.000,21205,2,ER,1,100,1.671028
1576517160.394497,124836.500,21223,2,ER,1,100,1.668208
1576517160.466408,124897.000,21223,2,ER,1,100,1.670262
1576517160.534752,124954.500,21242,2,ER,1,100,1.668933
1576517160.603097,125012.000,21242,2,ER,1,100,1.669457
1576517160.675601,125073.000,21260,1,ER,1,100,1.671431
1576517160.743946,125130.500,21277,2,ER,1,100,1.670706
1576517160.812290,125188.000,21277,2,ER,1,100,1.672478
1576517160.877663,125243.000,21295,2,ER,1,100,1.671753
1576517160.943037,125298.000,21295,2,ER,1,100,1.674653
1576517161.007221,125352.000,21311,2,ER,1,100,1.673606
1576517161.071405,125406.000,21311,2,ER,1,100,1.675701
1576517161.138561,125462.500,21329,2,ER,1,100,1.675459
1576517161.205717,125519.000,21329,2,ER,1,100,1.678279
1576517161.272873,125575.500,21350,2,ER,1,100,1.678480
1576517161.340029,125632.000,21350,2,ER,1,100,1.677433
1576517161.411939,125692.500,21370,2,ER,1,100,1.677916
1576517161.483850,125753.000,21370,2,ER,1,100,1.681179
1576517161.552194,125810.500,21389,2,ER,1,100,1.680454
1576517161.620539,125868.000,21389,2,ER,1,100,1.683757
1576517161.688884,125925.500,21405,2,ER,1,100,1.685490
1576517161.757228,125983.000,21405,2,ER,1,100,1.687866
1576517161.817847,126034.000,21423,1,ER,1,100,1.690928
1576517161.882625,126088.500,21441,2,ER,1,100,1.688914
1576517161.947404,126143.000,21441,2,ER,1,100,1.689639
1576517162.014560,126199.500,21459,2,ER,1,100,1.689115
1576517162.081716,126256.000,21459,2,ER,1,100,1.692015
1576517162.148872,126312.500,21477,2,ER,1,100,1.689558
1576517162.216028,126369.000,21477,2,ER,1,100,1.692458
1576517162.284967,126427.000,21495,2,ER,1,100,1.691572
1576517162.353906,126485.000,21495,2,ER,1,100,1.692781
1576517162.414524,126536.000,21513,1,ER,1,100,1.693546
1576517162.479303,126590.500,21532,2,ER,1,100,1.692579
1576517162.544082,126645.000,21532,2,ER,1,100,1.695399
1576517162.613020,126703.000,21549,2,ER,1,100,1.693385
1576517162.681959,126761.000,21549,2,ER,1,100,1.695117
1576517162.749115,126817.500,21567,2,ER,1,100,1.694070
1576517162.816271,126874.000,21567,2,ER,1,100,1.695802
1576517162.885210,126932.000,21583,2,ER,1,100,1.695399
1576517162.954149,126990.000,21583,2,ER,1,100,1.696446
1576517163.015956,127042.000,21601,1,ER,1,100,1.696003
1576517163.079546,127095.500,21619,2,ER,1,100,1.694714
1576517163.143137,127149.000,21619,2,ER,1,100,1.696044
1576517163.210887,127206.000,21637,2,ER,1,100,1.692458
1576517163.278637,127263.000,21637,2,ER,1,100,1.693506
1576517163.346387,127320.000,21655,2,ER,1,100,1.690686
1576517163.414137,127377.000,21655,2,ER,1,100,1.691653
1576517163.483670,127435.500,21673,2,ER,1,100,1.690605
1576517163.553204,127494.000,21673,2,ER,1,100,1.687907
1576517163.616199,127547.000,21692,1,ER,1,100,1.697695
1576517163.679790,127600.500,21709,2,ER,1,100,1.697574
1576517163.743380,127654.000,21709,2,ER,1,100,1.643111
1576517163.809942,127710.000,21727,2,ER,1,100,1.683798
1576517163.876503,127766.000,21727,2,ER,1,100,1.687907
1576517163.943659,127822.500,21745,2,ER,1,100,1.680333
1576517164.010815,127879.000,21745,2,ER,1,100,1.693465
1576517164.079754,127937.000,21761,2,ER,1,100,1.703617
1576517164.148693,127995.000,21761,2,ER,1,100,1.708572
1576517164.221197,128056.000,21779,1,ER,1,100,1.686134
1576517164.290136,128114.000,21797,2,ER,1,100,1.651974
1576517164.359075,128172.000,21797,2,ER,1,100,1.684402
1576517164.430985,128232.500,21815,2,ER,1,100,1.698582
1576517164.502896,128293.000,21815,2,ER,1,100,1.704866
1576517164.569457,128349.000,21834,1,ER,1,100,1.698622
1576517164.636019,128405.000,21852,2,ER,1,100,1.695641
1576517164.702581,128461.000,21852,2,ER,1,100,1.703133
1576517164.764982,128513.500,21869,2,ER,1,100,1.713084
1576517164.827384,128566.000,21869,2,ER,1,100,1.713406
1576517164.894540,128622.500,21887,2,ER,1,100,1.709538
1576517164.961696,128679.000,21887,2,ER,1,100,1.706920
1576517165.030634,128737.000,21903,2,ER,1,100,1.704866
1576517165.099573,128795.000,21903,2,ER,1,100,1.704463
1576517165.167324,128852.000,21921,2,ER,1,100,1.695520
1576517165.235074,128909.000,21921,2,ER,1,100,1.691814
1576517165.304013,128967.000,21939,1,ER,1,100,1.688914
1576517165.372357,129024.500,21957,2,ER,1,100,1.696446
1576517165.440702,129082.000,21957,2,ER,1,100,1.700193
1576517165.504292,129135.500,21975,2,ER,1,100,1.693667
1576517165.567882,129189.000,21975,2,ER,1,100,1.696608
1576517165.632661,129243.500,21994,2,ER,1,100,1.689075
1576517165.697439,129298.000,21994,2,ER,1,100,1.697977
1576517165.764001,129354.000,22012,2,ER,1,100,1.704906
1576517165.830563,129410.000,22012,2,ER,1,100,1.706598
1576517165.899502,129468.000,22030,1,ER,1,100,1.703697
1576517165.967846,129525.500,22047,2,ER,1,100,1.700878
1576517166.036191,129583.000,22047,2,ER,1,100,1.704705
1576517166.102158,129638.500,22065,2,ER,1,100,1.702408
1576517166.168125,129694.000,22065,2,ER,1,100,1.702852
1576517166.230527,129746.500,22083,2,ER,1,100,1.699951
1576517166.292928,129799.000,22083,2,ER,1,100,1.696849
1576517166.360084,129855.500,22099,2,ER,1,100,1.692902
1576517166.427240,129912.000,22099,2,ER,1,100,1.696567
1576517166.499745,129973.000,22117,1,ER,1,100,1.697494
1576517166.566901,130029.500,22136,2,ER,1,100,1.697252
1576517166.634057,130086.000,22136,2,ER,1,100,1.696890
1576517166.700619,130142.000,22154,2,ER,1,100,1.690968
1576517166.767180,130198.000,22154,2,ER,1,100,1.695399
1576517166.830770,130251.500,22172,2,ER,1,100,1.692861
1576517166.894360,130305.000,22172,2,ER,1,100,1.693506
1576517166.960328,130360.500,22190,2,ER,1,100,1.689195
1576517167.026295,130416.000,22190,2,ER,1,100,1.687302
1576517167.098800,130477.000,22208,1,ER,1,100,1.683556
1576517167.165956,130533.500,22225,2,ER,1,100,1.683395
1576517167.233112,130590.000,22225,2,ER,1,100,1.684160
1576517167.298881,130645.333,22246,3,ER,1,100,1.678722
1576517167.364650,130700.667,22246,3,ER,1,100,1.679326
1576517167.430419,130756.000,22246,3,ER,1,100,1.677755
1576517167.493415,130809.000,22267,2,ER,1,100,1.676305
1576517167.556411,130862.000,22267,2,ER,1,100,1.678359
1576517167.625350,130920.000,22285,2,ER,1,100,1.677836
1576517167.694289,130978.000,22285,2,ER,1,100,1.678762
1576517167.760850,131034.000,22303,2,ER,1,100,1.677997
1576517167.827412,131090.000,22303,2,ER,1,100,1.678480
1576517167.898728,131150.000,22321,1,ER,1,100,1.684805
1576517167.964695,131205.500,22338,2,ER,1,100,1.684039
1576517168.030663,131261.000,22338,2,ER,1,100,1.681663
1576517168.099007,131318.500,22356,2,ER,1,100,1.675660
1576517168.167352,131376.000,22356,2,ER,1,100,1.674049
1576517168.236885,131434.500,22372,2,ER,1,100,1.669457
1576517168.306418,131493.000,22372,2,ER,1,100,1.666033
1576517168.371791,131548.000,22390,1,ER,1,100,1.667765
1576517168.435381,131601.500,22408,2,ER,1,100,1.670424
1576517168.498971,131655.000,22408,2,ER,1,100,1.690243
1576517168.564939,131710.500,22427,2,ER,1,100,1.684281
1576517168.630906,131766.000,22427,2,ER,1,100,1.682952
1576517168.698062,131822.500,22445,2,ER,1,100,1.685892
1576517168.765218,131879.000,22445,2,ER,1,100,1.686255
1576517168.835345,131938.000,22463,2,ER,1,100,1.686013
1576517168.905473,131997.000,22463,2,ER,1,100,1.683717
1576517168.972034,132053.000,22481,1,ER,1,100,1.680293
1576517169.041568,132111.500,22498,2,ER,1,100,1.669497
1576517169.111101,132170.000,22498,2,ER,1,100,1.661320
1576517169.178257,132226.500,22516,2,ER,1,100,1.660030
1576517169.245413,132283.000,22516,2,ER,1,100,1.647502
1576517169.308408,132336.000,22532,2,ER,1,100,1.715662
1576517169.371404,132389.000,22532,2,ER,1,100,1.684764
1576517169.437966,132445.000,22550,2,ER,1,100,1.724121
1576517169.504528,132501.000,22550,2,ER,1,100,1.701079
1576517169.572278,132558.000,22569,1,ER,1,100,1.656204
1576517169.640028,132615.000,22587,2,ER,1,100,1.696487
1576517169.707778,132672.000,22587,2,ER,1,100,1.682227
1576517169.776717,132730.000,22605,2,ER,1,100,1.671108
1576517169.845656,132788.000,22605,2,ER,1,100,1.671753
1576517169.908652,132841.000,22623,2,ER,1,100,1.671189
1576517169.971648,132894.000,22623,2,ER,1,100,1.679568
1576517170.035238,132947.500,22641,2,ER,1,100,1.694875
1576517170.098828,133001.000,22641,2,ER,1,100,1.693546
1576517170.166578,133058.000,22659,1,ER,1,100,1.702570
1576517170.236111,133116.500,22676,2,ER,1,100,1.714211
1576517170.305645,133175.000,22676,2,ER,1,100,1.740073
1576517170.373989,133232.500,22694,2,ER,1,100,1.752682
1576517170.442333,133290.000,22694,2,ER,1,100,1.721462
1576517170.505329,133343.000,22710,2,ER,1,100,1.672599
1576517170.568325,133396.000,22710,2,ER,1,100,1.662730
1576517170.633698,133451.000,22729,2,ER,1,100,1.661118
1576517170.699071,133506.000,22729,2,ER,1,100,1.633524
1576517170.764444,133561.000,22747,1,ER,1,100,1.642346
1576517170.833977,133619.500,22765,2,ER,1,100,1.703133
1576517170.903511,133678.000,22765,2,ER,1,100,1.689195
1576517170.970666,133734.500,22783,2,ER,1,100,1.678279
1576517171.037822,133791.000,22783,2,ER,1,100,1.699427
1576517171.102601,133845.500,22801,2,ER,1,100,1.625548
1576517171.167380,133900.000,22801,2,ER,1,100,1.701401
1576517171.230376,133953.000,22819,2,ER,1,100,1.716024
1576517171.293372,134006.000,22819,2,ER,1,100,1.734715
1576517171.359339,134061.500,22837,2,ER,1,100,1.732178
1576517171.425306,134117.000,22837,2,ER,1,100,1.730325
1576517171.497811,134178.000,22855,1,ER,1,100,1.746680
1576517171.564373,134234.000,22873,2,ER,1,100,1.747324
1576517171.630934,134290.000,22873,2,ER,1,100,1.744625
1576517171.696307,134345.000,22891,2,ER,1,100,1.749137
1576517171.761680,134400.000,22891,2,ER,1,100,1.667926
1576517171.831213,134458.500,22907,2,ER,1,100,1.726377
1576517171.900747,134517.000,22907,2,ER,1,100,1.757073
1576517171.965525,134571.500,22925,2,ER,1,100,1.729197
1576517172.030304,134626.000,22925,2,ER,1,100,1.664663
1576517172.100431,134685.000,22943,1,ER,1,100,1.669175
1576517172.164616,134739.000,22961,2,ER,1,100,1.689437
1576517172.228800,134793.000,22961,2,ER,1,100,1.700757
1576517172.294768,134848.500,22979,2,ER,1,100,1.703859
1576517172.360735,134904.000,22979,2,ER,1,100,1.702771
1576517172.424325,134957.500,22997,2,ER,1,100,1.701482
1576517172.487915,135011.000,22997,2,ER,1,100,1.708129
1576517172.554477,135067.000,23016,2,ER,1,100,1.711029
1576517172.621039,135123.000,23016,2,ER,1,100,1.709257
1576517172.691166,135182.000,23034,1,ER,1,100,1.703979
1576517172.759511,135239.500,23051,2,ER,1,100,1.702167
1576517172.827855,135297.000,23051,2,ER,1,100,1.690404
1576517172.895605,135354.000,23069,2,ER,1,100,1.694553
1576517172.963356,135411.000,23069,2,ER,1,100,1.694594
1576517173.026946,135464.500,23085,2,ER,1,100,1.726055
1576517173.090536,135518.000,23085,2,ER,1,100,1.706679
1576517173.155909,135573.000,23103,2,ER,1,100,1.698098
1576517173.221282,135628.000,23103,2,ER,1,100,1.717515
1576517173.290221,135686.000,23121,1,ER,1,100,1.728391
1576517173.358763,135743.667,23142,3,ER,1,100,1.717192
1576517173.427306,135801.333,23142,3,ER,1,100,1.698501
1576517173.495849,135859.000,23142,3,ER,1,100,1.682710
1576517173.561222,135914.000,23163,2,ER,1,100,1.679648
1576517173.626595,135969.000,23163,2,ER,1,100,1.687786
1576517173.689591,136022.000,23181,2,ER,1,100,1.702126
1576517173.752587,136075.000,23181,2,ER,1,100,1.701522
1576517173.819148,136131.000,23197,2,ER,1,100,1.681824
1576517173.885710,136187.000,23197,2,ER,1,100,1.656244
1576517173.954649,136245.000,23215,1,ER,1,100,1.655277
1576517174.024182,136303.500,23233,2,ER,1,100,1.649194
1576517174.093715,136362.000,23233,2,ER,1,100,1.597148
1576517174.159088,136417.000,23251,2,ER,1,100,1.501717
1576517174.224461,136472.000,23251,2,ER,1,100,1.630060
1576517174.287457,136525.000,23269,2,ER,1,100,1.708773
1576517174.350453,136578.000,23269,2,ER,1,100,1.732379
1576517174.417014,136634.000,23287,2,ER,1,100,1.717595
1576517174.483576,136690.000,23287,2,ER,1,100,1.713124
1576517174.551326,136747.000,23306,2,ER,1,100,1.704785
1576517174.619076,136804.000,23306,2,ER,1,100,1.710787
1576517174.690392,136864.000,23324,1,ER,1,100,1.704302
1576517174.756954,136920.000,23341,2,ER,1,100,1.722631
1576517174.823516,136976.000,23341,2,ER,1,100,1.726135
1576517174.887106,137029.500,23359,2,ER,1,100,1.729277
1576517174.950696,137083.000,23359,2,ER,1,100,1.707363
1576517175.016069,137138.000,23376,2,ER,1,100,1.700918
1576517175.081442,137193.000,23376,2,ER,1,100,1.713245
1576517175.148004,137249.000,23393,2,ER,1,100,1.681663
1576517175.214565,137305.000,23393,2,ER,1,100,1.710667
1576517175.285882,137365.000,23411,1,ER,1,100,1.709297
1576517175.353037,137421.500,23429,2,ER,1,100,1.714211
1576517175.420193,137478.000,23429,2,ER,1,100,1.720979
1576517175.483189,137531.000,23447,2,ER,1,100,1.714937
1576517175.546185,137584.000,23447,2,ER,1,100,1.711794
1576517175.612747,137640.000,23466,2,ER,1,100,1.709216
1576517175.679308,137696.000,23466,2,ER,1,100,1.716145
1576517175.744681,137751.000,23484,2,ER,1,100,1.715621
1576517175.810054,137806.000,23484,2,ER,1,100,1.707806
1576517175.872456,137858.500,23502,2,ER,1,100,1.710425
1576517175.934857,137911.000,23502,2,ER,1,100,1.690485
1576517176.001419,137967.000,23520,1,ER,1,100,1.693264
1576517176.067981,138023.000,23537,2,ER,1,100,1.682428
1576517176.134542,138079.000,23537,2,ER,1,100,1.696084
1576517176.201698,138135.500,23555,2,ER,1,100,1.684080
1576517176.268854,138192.000,23555,2,ER,1,100,1.680696
1576517176.336010,138248.500,23573,2,ER,1,100,1.686053
1576517176.403166,138305.000,23573,2,ER,1,100,1.700193
1576517176.470322,138361.500,23589,2,ER,1,100,1.684039
1576517176.537478,138418.000,23589,2,ER,1,100,1.685087
1576517176.608794,138478.000,23608,1,ER,1,100,1.690726
1576517176.673573,138532.500,23626,2,ER,1,100,1.691935
1576517176.738352,138587.000,23626,2,ER,1,100,1.683999
1576517176.808479,138646.000,23644,2,ER,1,100,1.677715
1576517176.878606,138705.000,23644,2,ER,1,100,1.682509
1576517176.941602,138758.000,23662,2,ER,1,100,1.683032
1576517177.004598,138811.000,23662,2,ER,1,100,1.689437
1576517177.068783,138865.000,23680,2,ER,1,100,1.685570
1576517177.132967,138919.000,23680,2,ER,1,100,1.684724
1576517177.201906,138977.000,23698,1,ER,1,100,1.684523
1576517177.270845,139035.000,23715,2,ER,1,100,1.682992
1576517177.339783,139093.000,23715,2,ER,1,100,1.686497
1576517177.408722,139151.000,23733,2,ER,1,100,1.681139
1576517177.477661,139209.000,23733,2,ER,1,100,1.681139
1576517177.540063,139261.500,23750,2,ER,1,100,1.682227
1576517177.602464,139314.000,23750,2,ER,1,100,1.682146
1576517177.667837,139369.000,23768,2,ER,1,100,1.681783
1576517177.733210,139424.000,23768,2,ER,1,100,1.683395
1576517177.798583,139479.000,23786,1,ER,1,100,1.684160
1576517177.867522,139537.000,23804,2,ER,1,100,1.682911
1576517177.936461,139595.000,23804,2,ER,1,100,1.684361
1576517178.007183,139654.500,23822,2,ER,1,100,1.682871
1576517178.077904,139714.000,23822,2,ER,1,100,1.685691
1576517178.140306,139766.500,23840,2,ER,1,100,1.682750
1576517178.202708,139819.000,23840,2,ER,1,100,1.682952
1576517178.266298,139872.500,23858,2,ER,1,100,1.683274
1576517178.329888,139926.000,23858,2,ER,1,100,1.683798
1576517178.397638,139983.000,23876,1,ER,1,100,1.683918
1576517178.465983,140040.500,23894,2,ER,1,100,1.683596
1576517178.534327,140098.000,23894,2,ER,1,100,1.684644
1576517178.604455,140157.000,23912,2,ER,1,100,1.686819
1576517178.674582,140216.000,23912,2,ER,1,100,1.687060
1576517178.737578,140269.000,23928,2,ER,1,100,1.683516
1576517178.800574,140322.000,23928,2,ER,1,100,1.690565
1576517178.864164,140375.500,23946,2,ER,1,100,1.688229
1576517178.927754,140429.000,23946,2,ER,1,100,1.688229
1576517178.994316,140485.000,23964,1,ER,1,100,1.691653
1576517179.062066,140542.000,23982,2,ER,1,100,1.698179
1576517179.129816,140599.000,23982,2,ER,1,100,1.694916
1576517179.199349,140657.500,24000,2,ER,1,100,1.687584
1576517179.268883,140716.000,24000,2,ER,1,100,1.688672
1576517179.334255,140771.000,24018,2,ER,1,100,1.688470
1576517179.399629,140826.000,24018,2,ER,1,100,1.695359
1576517179.463813,140880.000,24039,3,ER,1,100,1.690404
1576517179.527997,140934.000,24039,3,ER,1,100,1.687987
1576517179.592182,140988.000,24039,3,ER,1,100,1.689155
1576517179.655772,141041.500,24060,2,ER,1,100,1.687907
1576517179.719362,141095.000,24060,2,ER,1,100,1.680535
1576517179.788301,141153.000,24078,1,ER,1,100,1.686980
1576517179.855457,141209.500,24096,2,ER,1,100,1.692458
1576517179.922613,141266.000,24096,2,ER,1,100,1.696527
1576517179.992740,141325.000,24114,2,ER,1,100,1.696930
1576517180.062868,141384.000,24114,2,ER,1,100,1.694432
1576517180.131807,141442.000,24132,2,ER,1,100,1.691733
1576517180.200745,141500.000,24132,2,ER,1,100,1.693385
1576517180.270873,141559.000,24150,1,ER,1,100,1.692740
1576517180.338623,141616.000,24167,2,ER,1,100,1.691572
1576517180.406373,141673.000,24167,2,ER,1,100,1.693949
1576517180.474123,141730.000,24185,2,ER,1,100,1.691653
1576517180.541874,141787.000,24185,2,ER,1,100,1.694271
1576517180.608435,141843.000,24202,2,ER,1,100,1.692821
1576517180.674997,141899.000,24202,2,ER,1,100,1.691693
1576517180.737399,141951.500,24220,2,ER,1,100,1.701925
1576517180.799800,142004.000,24220,2,ER,1,100,1.701401
1576517180.866362,142060.000,24238,2,ER,1,100,1.697736
1576517180.932924,142116.000,24238,2,ER,1,100,1.699548
1576517181.003051,142175.000,24256,1,ER,1,100,1.696849
1576517181.072584,142233.500,24274,2,ER,1,100,1.692821
1576517181.142117,142292.000,24274,2,ER,1,100,1.699307
1576517181.208679,142348.000,24292,2,ER,1,100,1.691210
1576517181.275240,142404.000,24292,2,ER,1,100,1.698662
1576517181.338236,142457.000,24310,2,ER,1,100,1.701200
1576517181.401232,142510.000,24310,2,ER,1,100,1.722792
1576517181.467200,142565.500,24328,2,ER,1,100,1.683354
1576517181.533167,142621.000,24328,2,ER,1,100,1.690605
1576517181.600917,142678.000,24347,1,ER,1,100,1.693385
1576517181.669262,142735.500,24364,2,ER,1,100,1.691089
1576517181.737606,142793.000,24364,2,ER,1,100,1.690605
1576517181.806545,142851.000,24382,2,ER,1,100,1.688068
1576517181.875484,142909.000,24382,2,ER,1,100,1.693143
1576517181.937291,142961.000,24398,2,ER,1,100,1.691008
1576517181.999098,143013.000,24398,2,ER,1,100,1.688873
1576517182.065066,143068.500,24416,2,ER,1,100,1.691532
1576517182.131033,143124.000,24416,2,ER,1,100,1.697011
1576517182.198783,143181.000,24434,1,ER,1,100,1.697816
1576517182.268316,143239.500,24452,2,ER,1,100,1.695158
1576517182.337850,143298.000,24452,2,ER,1,100,1.697252
1576517182.407977,143357.000,24470,2,ER,1,100,1.694916
1576517182.478104,143416.000,24470,2,ER,1,100,1.695601
1576517182.539317,143467.500,24489,2,ER,1,100,1.694110
1576517182.600530,143519.000,24489,2,ER,1,100,1.695158
1576517182.664715,143573.000,24507,2,ER,1,100,1.694916
1576517182.728899,143627.000,24507,2,ER,1,100,1.694634
1576517182.796649,143684.000,24525,1,ER,1,100,1.693949
1576517182.865588,143742.000,24542,2,ER,1,100,1.693788
1576517182.934527,143800.000,24542,2,ER,1,100,1.695117
1576517183.004655,143859.000,24560,2,ER,1,100,1.692740
1576517183.074782,143918.000,24560,2,ER,1,100,1.695158
1576517183.136589,143970.000,24576,2,ER,1,100,1.694029
1576517183.198396,144022.000,24576,2,ER,1,100,1.694875
1576517183.262581,144076.000,24594,2,ER,1,100,1.692982
1576517183.326765,144130.000,24594,2,ER,1,100,1.692982
1576517183.395704,144188.000,24612,1,ER,1,100,1.694392
1576517183.459294,144241.500,24631,2,ER,1,100,1.691895
1576517183.522884,144295.000,24631,2,ER,1,100,1.693868
1576517183.589446,144351.000,24649,2,ER,1,100,1.691331
1576517183.656008,144407.000,24649,2,ER,1,100,1.694311
1576517183.721381,144462.000,24667,2,ER,1,100,1.691935
1576517183.786754,144517.000,24667,2,ER,1,100,1.692620
1576517183.855098,144574.500,24685,2,ER,1,100,1.691250
1576517183.923443,144632.000,24685,2,ER,1,100,1.693063
1576517183.994759,144692.000,24703,1,ER,1,100,1.694392
1576517184.063103,144749.500,24720,2,ER,1,100,1.692378
1576517184.131448,144807.000,24720,2,ER,1,100,1.694875
1576517184.202170,144866.500,24738,2,ER,1,100,1.692579
1576517184.272892,144926.000,24738,2,ER,1,100,1.694553
1576517184.338264,144981.000,24754,2,ER,1,100,1.691975
1576517184.403638,145036.000,24754,2,ER,1,100,1.693909
1576517184.467228,145089.500,24772,2,ER,1,100,1.693707
1576517184.530818,145143.000,24772,2,ER,1,100,1.692902
1576517184.597379,145199.000,24791,1,ER,1,100,1.694191
1576517184.664536,145255.500,24809,2,ER,1,100,1.691774
1576517184.731691,145312.000,24809,2,ER,1,100,1.693345
1576517184.801819,145371.000,24827,2,ER,1,100,1.691492
1576517184.871946,145430.000,24827,2,ER,1,100,1.691814
1576517184.940291,145487.500,24845,2,ER,1,100,1.690082
1576517185.008635,145545.000,24845,2,ER,1,100,1.691975
1576517185.077574,145603.000,24863,1,ER,1,100,1.690928
1576517185.144136,145659.000,24880,2,ER,1,100,1.689437
1576517185.210697,145715.000,24880,2,ER,1,100,1.688188
1576517185.274288,145768.500,24898,2,ER,1,100,1.686899
1576517185.337878,145822.000,24898,2,ER,1,100,1.689558
1576517185.403251,145877.000,24916,2,ER,1,100,1.685490
1576517185.468624,145932.000,24916,2,ER,1,100,1.688108
1576517185.536770,145989.333,24934,3,ER,1,100,1.685570
1576517185.604917,146046.667,24934,3,ER,1,100,1.684764
1576517185.673063,146104.000,24934,3,ER,1,100,1.682831
1576517185.743191,146163.000,24954,1,ER,1,100,1.682871
1576517185.809158,146218.500,24971,2,ER,1,100,1.685651
1576517185.875125,146274.000,24971,2,ER,1,100,1.685046
1576517185.936933,146326.000,24989,2,ER,1,100,1.684724
1576517185.998740,146378.000,24989,2,ER,1,100,1.685731
1576517186.066490,146435.000,25007,2,ER,1,100,1.683596
1576517186.134240,146492.000,25007,2,ER,1,100,1.686013
1576517186.203773,146550.500,25023,2,ER,1,100,1.686577
1576517186.273307,146609.000,25023,2,ER,1,100,1.685369
1576517186.339868,146665.000,25041,1,ER,1,100,1.686335
1576517186.407618,146722.000,25059,2,ER,1,100,1.685731
1576517186.475369,146779.000,25059,2,ER,1,100,1.684281
1576517186.537176,146831.000,25078,2,ER,1,100,1.687060
1576517186.598983,146883.000,25078,2,ER,1,100,1.689034
1576517186.666139,146939.500,25096,2,ER,1,100,1.685409
1576517186.733295,146996.000,25096,2,ER,1,100,1.687141
1576517186.802828,147054.500,25114,2,ER,1,100,1.685207
1576517186.872361,147113.000,25114,2,ER,1,100,1.690847
1576517186.937734,147168.000,25132,1,ER,1,100,1.691854
1576517187.005485,147225.000,25149,2,ER,1,100,1.687423
1576517187.073235,147282.000,25149,2,ER,1,100,1.689276
1576517187.134448,147333.500,25167,2,ER,1,100,1.687745
1576517187.195661,147385.000,25167,2,ER,1,100,1.689155
1576517187.260439,147439.500,25185,2,ER,1,100,1.691250
1576517187.325218,147494.000,25185,2,ER,1,100,1.692499
1576517187.392374,147550.500,25203,2,ER,1,100,1.688430
1576517187.459530,147607.000,25203,2,ER,1,100,1.691371
1576517187.528469,147665.000,25220,2,ER,1,100,1.688591
1576517187.597408,147723.000,25220,2,ER,1,100,1.689518
1576517187.666347,147781.000,25238,1,ER,1,100,1.694191
1576517187.734691,147838.500,25256,2,ER,1,100,1.692418
1576517187.803036,147896.000,25256,2,ER,1,100,1.691854
1576517187.871974,147954.000,25274,2,ER,1,100,1.690404
1576517187.940913,148012.000,25274,2,ER,1,100,1.691008
1576517188.011041,148071.000,25292,2,ER,1,100,1.682227
1576517188.081168,148130.000,25292,2,ER,1,100,1.684603
1576517188.141787,148181.000,25310,1,ER,1,100,1.693627
1576517188.212509,148240.500,25327,2,ER,1,100,1.693022
1576517188.283230,148300.000,25327,2,ER,1,100,1.697615
1576517188.345632,148352.500,25345,2,ER,1,100,1.694070
1576517188.408033,148405.000,25345,2,ER,1,100,1.699105
1576517188.472218,148459.000,25363,2,ER,1,100,1.692982
1576517188.536402,148513.000,25363,2,ER,1,100,1.693304
1576517188.605935,148571.500,25380,2,ER,1,100,1.692056
1576517188.675469,148630.000,25380,2,ER,1,100,1.687222
1576517188.740842,148685.000,25398,1,ER,1,100,1.680615
1576517188.812158,148745.000,25416,2,ER,1,100,1.697937
1576517188.883474,148805.000,25416,2,ER,1,100,1.696165
1576517188.946470,148858.000,25434,2,ER,1,100,1.698461
1576517189.009465,148911.000,25434,2,ER,1,100,1.697292
1576517189.073650,148965.000,25452,2,ER,1,100,1.685167
1576517189.137834,149019.000,25452,2,ER,1,100,1.705470
1576517189.204990,149075.500,25470,2,ER,1,100,1.706396
1576517189.272146,149132.000,25470,2,ER,1,100,1.709095
1576517189.339896,149189.000,25488,1,ER,1,100,1.691854
1576517189.408835,149247.000,25505,2,ER,1,100,1.701522
1576517189.477774,149305.000,25505,2,ER,1,100,1.741725
1576517189.542553,149359.500,25524,2,ER,1,100,1.763035
1576517189.607332,149414.000,25524,2,ER,1,100,1.835423
1576517189.670922,149467.500,25542,2,ER,1,100,1.854800
1576517189.734512,149521.000,25542,2,ER,1,100,1.857257
1576517189.802856,149578.500,25558,2,ER,1,100,1.841909
1576517189.871201,149636.000,25558,2,ER,1,100,1.833409
1576517189.938357,149692.500,25576,2,ER,1,100,1.817820
1576517190.005513,149749.000,25576,2,ER,1,100,1.805292
1576517190.076829,149809.000,25594,1,ER,1,100,1.798726
1576517190.142202,149864.000,25612,2,ER,1,100,1.779269
1576517190.207575,149919.000,25612,2,ER,1,100,1.778584
1576517190.270571,149972.000,25630,2,ER,1,100,1.786641
1576517190.333567,150025.000,25630,2,ER,1,100,1.772582
1576517190.400128,150081.000,25648,2,ER,1,100,1.765452
1576517190.466690,150137.000,25648,2,ER,1,100,1.765291
1576517190.534440,150194.000,25667,2,ER,1,100,1.762672
1576517190.602190,150251.000,25667,2,ER,1,100,1.724443
1576517190.673506,150311.000,25685,1,ER,1,100,1.712963
1576517190.739474,150366.500,25702,2,ER,1,100,1.737898
1576517190.805441,150422.000,25702,2,ER,1,100,1.715218
1576517190.869031,150475.500,25720,2,ER,1,100,1.707444
1576517190.932621,150529.000,25720,2,ER,1,100,1.711754
1576517190.998589,150584.500,25738,2,ER,1,100,1.710223
1576517191.064556,150640.000,25738,2,ER,1,100,1.700273
1576517191.132900,150697.500,25754,2,ER,1,100,1.698662
1576517191.201245,150755.000,25754,2,ER,1,100,1.694875
1576517191.268995,150812.000,25772,1,ER,1,100,1.692942
1576517191.338528,150870.500,25790,2,ER,1,100,1.688994
1576517191.408062,150929.000,25790,2,ER,1,100,1.684966
1576517191.476406,150986.500,25808,2,ER,1,100,1.688591
1576517191.544751,151044.000,25808,2,ER,1,100,1.689316
1576517191.614878,151103.000,25830,3,ER,1,100,1.686174
1576517191.685006,151162.000,25830,3,ER,1,100,1.684080
1576517191.755133,151221.000,25830,3,ER,1,100,1.681340
1576517191.827638,151282.000,25850,1,ER,1,100,1.679971
1576517191.896577,151340.000,25868,2,ER,1,100,1.680937
1576517191.965515,151398.000,25868,2,ER,1,100,1.681260
1576517192.033266,151455.000,25886,2,ER,1,100,1.680373
1576517192.101016,151512.000,25886,2,ER,1,100,1.678037
1576517192.164012,151565.000,25904,2,ER,1,100,1.677312
1576517192.227008,151618.000,25904,2,ER,1,100,1.678037
1576517192.293569,151674.000,25922,1,ER,1,100,1.668208
1576517192.360725,151730.500,25939,2,ER,1,100,1.670101
1576517192.427881,151787.000,25939,2,ER,1,100,1.664421
1576517192.495037,151843.500,25957,2,ER,1,100,1.641702
1576517192.562193,151900.000,25957,2,ER,1,100,1.636022
1576517192.630538,151957.500,25974,2,ER,1,100,1.640493
1576517192.698882,152015.000,25974,2,ER,1,100,1.643474
1576517192.764849,152070.500,25992,2,ER,1,100,1.647663
1576517192.830817,152126.000,25992,2,ER,1,100,1.648832
1576517192.898567,152183.000,26010,1,ER,1,100,1.653706
1576517192.961563,152236.000,26028,2,ER,1,100,1.654149
1576517193.024559,152289.000,26028,2,ER,1,100,1.647261
1576517193.089932,152344.000,26046,2,ER,1,100,1.648711
1576517193.155305,152399.000,26046,2,ER,1,100,1.654512
1576517193.223055,152456.000,26064,2,ER,1,100,1.648953
1576517193.290805,152513.000,26064,2,ER,1,100,1.657614
1576517193.358555,152570.000,26082,2,ER,1,100,1.676547
1576517193.426306,152627.000,26082,2,ER,1,100,1.686859
1576517193.497622,152687.000,26100,1,ER,1,100,1.678722
1576517193.560023,152739.500,26118,2,ER,1,100,1.676869
1576517193.622425,152792.000,26118,2,ER,1,100,1.678037
1576517193.688392,152847.500,26136,2,ER,1,100,1.675378
1576517193.754359,152903.000,26136,2,ER,1,100,1.675258
1576517193.824487,152962.000,26154,2,ER,1,100,1.661360
1576517193.894614,153021.000,26154,2,ER,1,100,1.622849
1576517193.961770,153077.500,26170,2,ER,1,100,1.637754
1576517194.028926,153134.000,26170,2,ER,1,100,1.671914
1576517194.102619,153196.000,26188,1,ER,1,100,1.673807
1576517194.164427,153248.000,26206,2,ER,1,100,1.678440
1576517194.226234,153300.000,26206,2,ER,1,100,1.688753
1576517194.289824,153353.500,26224,2,ER,1,100,1.692015
1576517194.353414,153407.000,26224,2,ER,1,100,1.694513
1576517194.422353,153465.000,26242,2,ER,1,100,1.689961
1576517194.491292,153523.000,26242,2,ER,1,100,1.690202
1576517194.558448,153579.500,26261,2,ER,1,100,1.687463
1576517194.625604,153636.000,26261,2,ER,1,100,1.686859
1576517194.696920,153696.000,26279,1,ER,1,100,1.682227
1576517194.760510,153749.500,26296,2,ER,1,100,1.685369
1576517194.824100,153803.000,26296,2,ER,1,100,1.688430
1576517194.887690,153856.500,26314,2,ER,1,100,1.663173
1576517194.951280,153910.000,26314,2,ER,1,100,1.663455
1576517195.019625,153967.500,26332,2,ER,1,100,1.645206
1576517195.087970,154025.000,26332,2,ER,1,100,1.645206
1576517195.154531,154081.000,26348,2,ER,1,100,1.637673
1576517195.221093,154137.000,26348,2,ER,1,100,1.637311
1576517195.292409,154197.000,26366,1,ER,1,100,1.668288
1576517195.359565,154253.500,26384,2,ER,1,100,1.714534
1576517195.426721,154310.000,26384,2,ER,1,100,1.741805
1576517195.495660,154368.000,26402,2,ER,1,100,1.645569
1576517195.564598,154426.000,26402,2,ER,1,100,1.635176
1576517195.634726,154485.000,26421,2,ER,1,100,1.714614
1576517195.704853,154544.000,26421,2,ER,1,100,1.681018
1576517195.770821,154599.500,26439,2,ER,1,100,1.659144
1576517195.836788,154655.000,26439,2,ER,1,100,1.651611
1576517195.900972,154709.000,26457,1,ER,1,100,1.649073
1576517195.966345,154764.000,26474,2,ER,1,100,1.675378
1576517196.031718,154819.000,26474,2,ER,1,100,1.685087
1576517196.098874,154875.500,26492,2,ER,1,100,1.682146
1576517196.166030,154932.000,26492,2,ER,1,100,1.695198
1576517196.236158,154991.000,26508,2,ER,1,100,1.685651
1576517196.306285,155050.000,26508,2,ER,1,100,1.684563
1576517196.372847,155106.000,26526,1,ER,1,100,1.677956
1576517196.442380,155164.500,26544,2,ER,1,100,1.680535
1576517196.511913,155223.000,26544,2,ER,1,100,1.691411
1576517196.579069,155279.500,26563,2,ER,1,100,1.681622
1576517196.646225,155336.000,26563,2,ER,1,100,1.681582
1576517196.710409,155390.000,26581,2,ER,1,100,1.671229
1576517196.774594,155444.000,26581,2,ER,1,100,1.666718
1576517196.838778,155498.000,26599,2,ER,1,100,1.663414
1576517196.902963,155552.000,26599,2,ER,1,100,1.676023
1576517196.970119,155608.500,26617,2,ER,1,100,1.686416
1576517197.037275,155665.000,26617,2,ER,1,100,1.682227
1576517197.106214,155723.000,26635,1,ER,1,100,1.677876
1576517197.176341,155782.000,26652,2,ER,1,100,1.677473
1576517197.246468,155841.000,26652,2,ER,1,100,1.678319
1576517197.309464,155894.000,26670,2,ER,1,100,1.677997
1576517197.372460,155947.000,26670,2,ER,1,100,1.681985
1576517197.436645,156001.000,26686,2,ER,1,100,1.679608
1576517197.500829,156055.000,26686,2,ER,1,100,1.679205
1576517197.569174,156112.500,26705,2,ER,1,100,1.670826
1576517197.637518,156170.000,26705,2,ER,1,100,1.671632
1576517197.706457,156228.000,26726,2,ER,1,100,1.673163
1576517197.775396,156286.000,26726,2,ER,1,100,1.674532
1576517197.843740,156343.500,26746,2,ER,1,100,1.676909
1576517197.912085,156401.000,26746,2,ER,1,100,1.681944
1576517197.973892,156453.000,26764,2,ER,1,100,1.677916
1576517198.035699,156505.000,26764,2,ER,1,100,1.680615
1576517198.101667,156560.500,26782,2,ER,1,100,1.680535
1576517198.167634,156616.000,26782,2,ER,1,100,1.681864
1576517198.235384,156673.000,26798,1,ER,1,100,1.679407
1576517198.304917,156731.500,26816,2,ER,1,100,1.679044
1576517198.374450,156790.000,26816,2,ER,1,100,1.682629
1576517198.443389,156848.000,26834,2,ER,1,100,1.680736
1576517198.512328,156906.000,26834,2,ER,1,100,1.681985
1576517198.574135,156958.000,26853,2,ER,1,100,1.680776
1576517198.635943,157010.000,26853,2,ER,1,100,1.684764
1576517198.700127,157064.000,26871,2,ER,1,100,1.684724
1576517198.764312,157118.000,26871,2,ER,1,100,1.686215
1576517198.834439,157177.000,26889,2,ER,1,100,1.684885
1576517198.904566,157236.000,26889,2,ER,1,100,1.684160
1576517198.969939,157291.000,26907,1,ER,1,100,1.686094
1576517199.039473,157349.500,26924,2,ER,1,100,1.685530
1576517199.109006,157408.000,26924,2,ER,1,100,1.688148
1576517199.173190,157462.000,26942,2,ER,1,100,1.685691
1576517199.237375,157516.000,26942,2,ER,1,100,1.688833
1576517199.304531,157572.500,26958,2,ER,1,100,1.687544
1576517199.371686,157629.000,26958,2,ER,1,100,1.689034
1576517199.439437,157686.000,26976,1,ER,1,100,1.689478
1576517199.505998,157742.000,26995,2,ER,1,100,1.688551
1576517199.572560,157798.000,26995,2,ER,1,100,1.690444
1576517199.642093,157856.500,27013,2,ER,1,100,1.688833
1576517199.711626,157915.000,27013,2,ER,1,100,1.690767
1576517199.774028,157967.500,27031,2,ER,1,100,1.687624
1576517199.836429,158020.000,27031,2,ER,1,100,1.690283
1576517199.899425,158073.000,27049,2,ER,1,100,1.688994
1576517199.962421,158126.000,27049,2,ER,1,100,1.690444
1576517200.030766,158183.500,27067,2,ER,1,100,1.688511
1576517200.099110,158241.000,27067,2,ER,1,100,1.689437
1576517200.164483,158296.000,27085,1,ER,1,100,1.689075
1576517200.235799,158356.000,27102,2,ER,1,100,1.688873
1576517200.307115,158416.000,27102,2,ER,1,100,1.689195
1576517200.371894,158470.500,27120,2,ER,1,100,1.687947
1576517200.436673,158525.000,27120,2,ER,1,100,1.691250
1576517200.501451,158579.500,27136,2,ER,1,100,1.687987
1576517200.566230,158634.000,27136,2,ER,1,100,1.689236
1576517200.632198,158689.500,27155,2,ER,1,100,1.687423
1576517200.698165,158745.000,27155,2,ER,1,100,1.688148
1576517200.761161,158798.000,27173,1,ER,1,100,1.687987
1576517200.828317,158854.500,27191,2,ER,1,100,1.687383
1576517200.895473,158911.000,27191,2,ER,1,100,1.688390
1576517200.963223,158968.000,27209,2,ER,1,100,1.686658
1576517201.030973,159025.000,27209,2,ER,1,100,1.689639
1576517201.100506,159083.500,27227,2,ER,1,100,1.686658
1576517201.170039,159142.000,27227,2,ER,1,100,1.689155
1576517201.233035,159195.000,27245,2,ER,1,100,1.686819
1576517201.296031,159248.000,27245,2,ER,1,100,1.688027
1576517201.359027,159301.000,27263,2,ER,1,100,1.687866
1576517201.422023,159354.000,27263,2,ER,1,100,1.686859
1576517201.489773,159411.000,27281,1,ER,1,100,1.687665
1576517201.557523,159468.000,27299,2,ER,1,100,1.686577
1576517201.625273,159525.000,27299,2,ER,1,100,1.687463
1576517201.695401,159584.000,27317,2,ER,1,100,1.685570
1576517201.765528,159643.000,27317,2,ER,1,100,1.688994
1576517201.831496,159698.500,27333,2,ER,1,100,1.687786
1576517201.897463,159754.000,27333,2,ER,1,100,1.687504
1576517201.959270,159806.000,27351,2,ER,1,100,1.687826
1576517202.021077,159858.000,27351,2,ER,1,100,1.686899
1576517202.090016,159916.000,27369,1,ER,1,100,1.686899
1576517202.157172,159972.500,27387,2,ER,1,100,1.685369
1576517202.224328,160029.000,27387,2,ER,1,100,1.687343
1576517202.293267,160087.000,27405,2,ER,1,100,1.686215
1576517202.362206,160145.000,27405,2,ER,1,100,1.688712
1576517202.427579,160200.000,27423,2,ER,1,100,1.685933
1576517202.492952,160255.000,27423,2,ER,1,100,1.687101
1576517202.554759,160307.000,27442,2,ER,1,100,1.687584
1576517202.616566,160359.000,27442,2,ER,1,100,1.687665
1576517202.685505,160417.000,27460,1,ER,1,100,1.688753
1576517202.752067,160473.000,27478,2,ER,1,100,1.687584
1576517202.818629,160529.000,27478,2,ER,1,100,1.690082
1576517202.886973,160586.500,27495,2,ER,1,100,1.687423
1576517202.955318,160644.000,27495,2,ER,1,100,1.688914
1576517203.022474,160700.500,27513,2,ER,1,100,1.688390
1576517203.089630,160757.000,27513,2,ER,1,100,1.689316
1576517203.155003,160812.000,27529,2,ER,1,100,1.687907
1576517203.220376,160867.000,27529,2,ER,1,100,1.689598
1576517203.283966,160920.500,27547,2,ER,1,100,1.690122
1576517203.347556,160974.000,27547,2,ER,1,100,1.689357
1576517203.416495,161032.000,27565,1,ER,1,100,1.689598
1576517203.480679,161086.000,27584,2,ER,1,100,1.689598
1576517203.544864,161140.000,27584,2,ER,1,100,1.690364
1576517203.609642,161194.500,27602,2,ER,1,100,1.688873
1576517203.674421,161249.000,27602,2,ER,1,100,1.691451
1576517203.742568,161306.333,27623,3,ER,1,100,1.689195
1576517203.810714,161363.667,27623,3,ER,1,100,1.691693
1576517203.878860,161421.000,27623,3,ER,1,100,1.689397
1576517203.944233,161476.000,27643,1,ER,1,100,1.689276
1576517204.016144,161536.500,27661,2,ER,1,100,1.691250
1576517204.088054,161597.000,27661,2,ER,1,100,1.690726
1576517204.156399,161654.500,27679,2,ER,1,100,1.689478
1576517204.224743,161712.000,27679,2,ER,1,100,1.690565
1576517204.291305,161768.000,27697,2,ER,1,100,1.689034
1576517204.357867,161824.000,27697,2,ER,1,100,1.691733
1576517204.421457,161877.500,27715,2,ER,1,100,1.690283
1576517204.485047,161931.000,27715,2,ER,1,100,1.691331
1576517204.551608,161987.000,27734,2,ER,1,100,1.689155
1576517204.618170,162043.000,27734,2,ER,1,100,1.688309
1576517204.688298,162102.000,27752,1,ER,1,100,1.688229
1576517204.755453,162158.500,27769,2,ER,1,100,1.685006
1576517204.822609,162215.000,27769,2,ER,1,100,1.684200
1576517204.890954,162272.500,27787,2,ER,1,100,1.679810
1576517204.959298,162330.000,27787,2,ER,1,100,1.680212
1576517205.021700,162382.500,27803,2,ER,1,100,1.676144
1576517205.084102,162435.000,27803,2,ER,1,100,1.672800
1576517205.150663,162491.000,27821,2,ER,1,100,1.670706
1576517205.217225,162547.000,27821,2,ER,1,100,1.666355
1576517205.283787,162603.000,27839,1,ER,1,100,1.663374
1576517205.352131,162660.500,27857,2,ER,1,100,1.659587
1576517205.420475,162718.000,27857,2,ER,1,100,1.654270
1576517205.489414,162776.000,27875,2,ER,1,100,1.649396
1576517205.558353,162834.000,27875,2,ER,1,100,1.647784
1576517205.621943,162887.500,27894,2,ER,1,100,1.643273
1576517205.685534,162941.000,27894,2,ER,1,100,1.642386
1576517205.749718,162995.000,27912,2,ER,1,100,1.639325
1576517205.813902,163049.000,27912,2,ER,1,100,1.637472
1576517205.884030,163108.000,27930,1,ER,1,100,1.635780
1576517205.951186,163164.500,27947,2,ER,1,100,1.633162
1576517206.018342,163221.000,27947,2,ER,1,100,1.632517
1576517206.087875,163279.500,27965,2,ER,1,100,1.629093
1576517206.157408,163338.000,27965,2,ER,1,100,1.630664
1576517206.219810,163390.500,27981,2,ER,1,100,1.629899
1576517206.282211,163443.000,27981,2,ER,1,100,1.629858
1576517206.345207,163496.000,27999,2,ER,1,100,1.629697
1576517206.408203,163549.000,27999,2,ER,1,100,1.631027
1576517206.477142,163607.000,28017,1,ER,1,100,1.631832
1576517206.544297,163663.500,28036,2,ER,1,100,1.631953
1576517206.611454,163720.000,28036,2,ER,1,100,1.636062
1576517206.680987,163778.500,28054,2,ER,1,100,1.633887
1576517206.750520,163837.000,28054,2,ER,1,100,1.636827
1576517206.814704,163891.000,28072,2,ER,1,100,1.636425
1576517206.878889,163945.000,28072,2,ER,1,100,1.638962
1576517206.943073,163999.000,28090,2,ER,1,100,1.639124
1576517207.007257,164053.000,28090,2,ER,1,100,1.642024
1576517207.070253,164106.000,28108,2,ER,1,100,1.643756
1576517207.133249,164159.000,28108,2,ER,1,100,1.644521
1576517207.198622,164214.000,28126,1,ER,1,100,1.647543
1576517207.261618,164267.000,28143,2,ER,1,100,1.647462
1576517207.324614,164320.000,28143,2,ER,1,100,1.649799
1576517207.389393,164374.500,28161,2,ER,1,100,1.650000
1576517207.454171,164429.000,28161,2,ER,1,100,1.653424
1576517207.516573,164481.500,28180,2,ER,1,100,1.652941
1576517207.578974,164534.000,28180,2,ER,1,100,1.656848
1576517207.645536,164590.000,28198,2,ER,1,100,1.656123
1576517207.712098,164646.000,28198,2,ER,1,100,1.660514
1576517207.781631,164704.500,28214,2,ER,1,100,1.659587
1576517207.851164,164763.000,28214,2,ER,1,100,1.661803
1576517207.917726,164819.000,28232,1,ER,1,100,1.662528
1576517207.985476,164876.000,28250,2,ER,1,100,1.662568
1576517208.053226,164933.000,28250,2,ER,1,100,1.665428
1576517208.116222,164986.000,28268,2,ER,1,100,1.663535
1576517208.179218,165039.000,28268,2,ER,1,100,1.665428
1576517208.246374,165095.500,28286,2,ER,1,100,1.665670
1576517208.313530,165152.000,28286,2,ER,1,100,1.668812
1576517208.381280,165209.000,28304,2,ER,1,100,1.668007
1576517208.449030,165266.000,28304,2,ER,1,100,1.669739
1576517208.517969,165324.000,28323,1,ER,1,100,1.670343
1576517208.585125,165380.500,28340,2,ER,1,100,1.670021
1576517208.652281,165437.000,28340,2,ER,1,100,1.672317
1576517208.715277,165490.000,28358,2,ER,1,100,1.670907
1576517208.778273,165543.000,28358,2,ER,1,100,1.674089
1576517208.843051,165597.500,28376,2,ER,1,100,1.671551
1576517208.907830,165652.000,28376,2,ER,1,100,1.674371
1576517208.976175,165709.500,28392,2,ER,1,100,1.673123
1576517209.044519,165767.000,28392,2,ER,1,100,1.676265
1576517209.113458,165825.000,28410,1,ER,1,100,1.676345
1576517209.183585,165884.000,28428,2,ER,1,100,1.676788
1576517209.253713,165943.000,28428,2,ER,1,100,1.679689
1576517209.315520,165995.000,28446,2,ER,1,100,1.678077
1576517209.377327,166047.000,28446,2,ER,1,100,1.681381
1576517209.442106,166101.500,28464,2,ER,1,100,1.679971
1576517209.506885,166156.000,28464,2,ER,1,100,1.682911
1576517209.577012,166215.000,28483,2,ER,1,100,1.682106
1576517209.647140,166274.000,28483,2,ER,1,100,1.686013
1576517209.713701,166330.000,28501,1,ER,1,100,1.686215
1576517209.781055,166386.667,28522,3,ER,1,100,1.687222
1576517209.848409,166443.333,28522,3,ER,1,100,1.689518
1576517209.915764,166500.000,28522,3,ER,1,100,1.687866
1576517209.978165,166552.500,28542,2,ER,1,100,1.688027
1576517210.040567,166605.000,28542,2,ER,1,100,1.690525
1576517210.106534,166660.500,28560,2,ER,1,100,1.690323
1576517210.172501,166716.000,28560,2,ER,1,100,1.690726
1576517210.241440,166774.000,28578,2,ER,1,100,1.688873
1576517210.310379,166832.000,28578,2,ER,1,100,1.692458
1576517210.378129,166889.000,28596,1,ER,1,100,1.691331
1576517210.447068,166947.000,28615,2,ER,1,100,1.691975
1576517210.516007,167005.000,28615,2,ER,1,100,1.693667
1576517210.579597,167058.500,28632,2,ER,1,100,1.692257
1576517210.643187,167112.000,28632,2,ER,1,100,1.694150
1576517210.709154,167167.500,28650,2,ER,1,100,1.692499
1576517210.775122,167223.000,28650,2,ER,1,100,1.694875
1576517210.838712,167276.500,28668,2,ER,1,100,1.692902
1576517210.902302,167330.000,28668,2,ER,1,100,1.695963
1576517210.968864,167386.000,28684,2,ER,1,100,1.694916
1576517211.035425,167442.000,28684,2,ER,1,100,1.697977
1576517211.101393,167497.500,28702,2,ER,1,100,1.697615
1576517211.167360,167553.000,28702,2,ER,1,100,1.697816
1576517211.231544,167607.000,28720,1,ER,1,100,1.698541
1576517211.296917,167662.000,28738,2,ER,1,100,1.698743
1576517211.362291,167717.000,28738,2,ER,1,100,1.700757
1576517211.428852,167773.000,28756,2,ER,1,100,1.699830
1576517211.495414,167829.000,28756,2,ER,1,100,1.700918
1576517211.565541,167888.000,28775,2,ER,1,100,1.700193
1576517211.635669,167947.000,28775,2,ER,1,100,1.702731
1576517211.702230,168003.000,28793,2,ER,1,100,1.700716
1576517211.768792,168059.000,28793,2,ER,1,100,1.700032
1576517211.832977,168113.000,28811,1,ER,1,100,1.699629
1576517211.898350,168168.000,28828,2,ER,1,100,1.698702
1576517211.963722,168223.000,28828,2,ER,1,100,1.699951
1576517212.027313,168276.500,28846,2,ER,1,100,1.698300
1576517212.090903,168330.000,28846,2,ER,1,100,1.701321
1576517212.157465,168386.000,28864,2,ER,1,100,1.699226
1576517212.224026,168442.000,28864,2,ER,1,100,1.708330
1576517212.292371,168499.500,28880,2,ER,1,100,1.708773
1576517212.360715,168557.000,28880,2,ER,1,100,1.709176
1576517212.429654,168615.000,28898,1,ER,1,100,1.707645
1576517212.497404,168672.000,28917,2,ER,1,100,1.706880
1576517212.565155,168729.000,28917,2,ER,1,100,1.705067
1576517212.628745,168782.500,28935,2,ER,1,100,1.701804
1576517212.692335,168836.000,28935,2,ER,1,100,1.703335
1576517212.757113,168890.500,28953,2,ER,1,100,1.696326
1576517212.821892,168945.000,28953,2,ER,1,100,1.700112
1576517212.889642,169002.000,28971,2,ER,1,100,1.702247
1576517212.957393,169059.000,28971,2,ER,1,100,1.704463
1576517213.025143,169116.000,28989,1,ER,1,100,1.702570
1576517213.094676,169174.500,29006,2,ER,1,100,1.703335
1576517213.164209,169233.000,29006,2,ER,1,100,1.704825
1576517213.227205,169286.000,29024,2,ER,1,100,1.703899
1576517213.290201,169339.000,29024,2,ER,1,100,1.704866
1576517213.356168,169394.500,29042,2,ER,1,100,1.701724
1576517213.422136,169450.000,29042,2,ER,1,100,1.704584
1576517213.489292,169506.500,29060,2,ER,1,100,1.701321
1576517213.556448,169563.000,29060,2,ER,1,100,1.701563
1576517213.627764,169623.000,29077,1,ER,1,100,1.701683
1576517213.695514,169680.000,29095,2,ER,1,100,1.700515
1576517213.763264,169737.000,29095,2,ER,1,100,1.703053
1576517213.827448,169791.000,29113,2,ER,1,100,1.702328
1576517213.891633,169845.000,29113,2,ER,1,100,1.703053
1576517213.955223,169898.500,29131,2,ER,1,100,1.698662
1576517214.018813,169952.000,29131,2,ER,1,100,1.701845
1576517214.084780,170007.500,29149,2,ER,1,100,1.698783
1576517214.150748,170063.000,29149,2,ER,1,100,1.700555
1576517214.219687,170121.000,29167,2,ER,1,100,1.700475
1576517214.288625,170179.000,29167,2,ER,1,100,1.699548
1576517214.356376,170236.000,29185,1,ER,1,100,1.699709
1576517214.421749,170291.000,29202,2,ER,1,100,1.698622
1576517214.487122,170346.000,29202,2,ER,1,100,1.702126
1576517214.550118,170399.000,29221,2,ER,1,100,1.698783
1576517214.613114,170452.000,29221,2,ER,1,100,1.707041
1576517214.680864,170509.000,29239,2,ER,1,100,1.701482
1576517214.748614,170566.000,29239,2,ER,1,100,1.700757
1576517214.813987,170621.000,29255,2,ER,1,100,1.697373
1576517214.879360,170676.000,29255,2,ER,1,100,1.700112
1576517214.948299,170734.000,29273,1,ER,1,100,1.698582
1576517215.013078,170788.500,29291,2,ER,1,100,1.696567
1576517215.077857,170843.000,29291,2,ER,1,100,1.700394
1576517215.147390,170901.500,29309,2,ER,1,100,1.699025
1576517215.216923,170960.000,29309,2,ER,1,100,1.699105
1576517215.286456,171018.500,29327,2,ER,1,100,1.698743
1576517215.355989,171077.000,29327,2,ER,1,100,1.698541
1576517215.423739,171134.000,29345,2,ER,1,100,1.697776
1576517215.491489,171191.000,29345,2,ER,1,100,1.698904
1576517215.562806,171251.000,29364,1,ER,1,100,1.700032
1576517215.629961,171307.500,29381,2,ER,1,100,1.694755
1576517215.697117,171364.000,29381,2,ER,1,100,1.698300
1576517215.760708,171417.500,29399,2,ER,1,100,1.695319
1576517215.824298,171471.000,29399,2,ER,1,100,1.695681
1576517215.890859,171527.000,29419,3,ER,1,100,1.691532
1576517215.957421,171583.000,29419,3,ER,1,100,1.691975
1576517216.023983,171639.000,29419,3,ER,1,100,1.688793
1576517216.092921,171697.000,29439,1,ER,1,100,1.686174
1576517216.162455,171755.500,29457,2,ER,1,100,1.688350
1576517216.231988,171814.000,29457,2,ER,1,100,1.687262
1576517216.296767,171868.500,29474,2,ER,1,100,1.684281
1576517216.361545,171923.000,29474,2,ER,1,100,1.684845
1576517216.424541,171976.000,29492,2,ER,1,100,1.682267
1576517216.487537,172029.000,29492,2,ER,1,100,1.682871
1576517216.554099,172085.000,29509,2,ER,1,100,1.680857
1576517216.620660,172141.000,29509,2,ER,1,100,1.682186
1576517216.688411,172198.000,29527,2,ER,1,100,1.679729
1576517216.756161,172255.000,29527,2,ER,1,100,1.680897
1576517216.823911,172312.000,29545,1,ER,1,100,1.681461
1576517216.890473,172368.000,29563,2,ER,1,100,1.679689
1576517216.957034,172424.000,29563,2,ER,1,100,1.680011
1576517217.020624,172477.500,29581,2,ER,1,100,1.678158
1576517217.084214,172531.000,29581,2,ER,1,100,1.680132
1576517217.151370,172587.500,29599,2,ER,1,100,1.679850
1576517217.218526,172644.000,29599,2,ER,1,100,1.682589
1576517217.286277,172701.000,29617,2,ER,1,100,1.680655
1576517217.354027,172758.000,29617,2,ER,1,100,1.682911
1576517217.425343,172818.000,29635,1,ER,1,100,1.683032
1576517217.491904,172874.000,29653,2,ER,1,100,1.682589
1576517217.558466,172930.000,29653,2,ER,1,100,1.684805
1576517217.622056,172983.500,29671,2,ER,1,100,1.683959
1576517217.685647,173037.000,29671,2,ER,1,100,1.686094
1576517217.751614,173092.500,29689,2,ER,1,100,1.683798
1576517217.817581,173148.000,29689,2,ER,1,100,1.686859
1576517217.884737,173204.500,29705,2,ER,1,100,1.685651
1576517217.951893,173261.000,29705,2,ER,1,100,1.687624
1576517218.023209,173321.000,29723,1,ER,1,100,1.688350
1576517218.090365,173377.500,29741,2,ER,1,100,1.687141
1576517218.157521,173434.000,29741,2,ER,1,100,1.690243
1576517218.220517,173487.000,29759,2,ER,1,100,1.688833
1576517218.283513,173540.000,29759,2,ER,1,100,1.690847
1576517218.349480,173595.500,29777,2,ER,1,100,1.689518
1576517218.415447,173651.000,29777,2,ER,1,100,1.691572
1576517218.483197,173708.000,29796,2,ER,1,100,1.689679
1576517218.550948,173765.000,29796,2,ER,1,100,1.691895
1576517218.621075,173824.000,29814,1,ER,1,100,1.691774
1576517218.688825,173881.000,29831,2,ER,1,100,1.689679
1576517218.756576,173938.000,29831,2,ER,1,100,1.691331
1576517218.824326,173995.000,29849,2,ER,1,100,1.689961
1576517218.892076,174052.000,29849,2,ER,1,100,1.692297
1576517218.960421,174109.500,29865,2,ER,1,100,1.690404
1576517219.028765,174167.000,29865,2,ER,1,100,1.691451
1576517219.095327,174223.000,29883,1,ER,1,100,1.690726
1576517219.164860,174281.500,29901,2,ER,1,100,1.690605
1576517219.234393,174340.000,29901,2,ER,1,100,1.690767
1576517219.302738,174397.500,29919,2,ER,1,100,1.690162
1576517219.371082,174455.000,29919,2,ER,1,100,1.692539
1576517219.435267,174509.000,29937,2,ER,1,100,1.691451
1576517219.499451,174563.000,29937,2,ER,1,100,1.691371
1576517219.564230,174617.500,29956,2,ER,1,100,1.689558
1576517219.629009,174672.000,29956,2,ER,1,100,1.689357
1576517219.693193,174726.000,29974,1,ER,1,100,1.690202
1576517219.761538,174783.500,29991,2,ER,1,100,1.691371
1576517219.829882,174841.000,29991,2,ER,1,100,1.692499
1576517219.897038,174897.500,30009,2,ER,1,100,1.692338
1576517219.964194,174954.000,30009,2,ER,1,100,1.697615
1576517220.031944,175011.000,30027,2,ER,1,100,1.696205
1576517220.099694,175068.000,30027,2,ER,1,100,1.697655
1576517220.171010,175128.000,30043,1,ER,1,100,1.697736
1576517220.237572,175184.000,30061,2,ER,1,100,1.697212
1576517220.304134,175240.000,30061,2,ER,1,100,1.695883
1576517220.367130,175293.000,30079,2,ER,1,100,1.692579
1576517220.430125,175346.000,30079,2,ER,1,100,1.693385
1576517220.496093,175401.500,30098,2,ER,1,100,1.692499
1576517220.562060,175457.000,30098,2,ER,1,100,1.694110
1576517220.630999,175515.000,30116,2,ER,1,100,1.693143
1576517220.699938,175573.000,30116,2,ER,1,100,1.694553
1576517220.769471,175631.500,30134,2,ER,1,100,1.693707
1576517220.839004,175690.000,30134,2,ER,1,100,1.693788
1576517220.904377,175745.000,30152,1,ER,1,100,1.694473
1576517220.967967,175798.500,30169,2,ER,1,100,1.694231
1576517221.031558,175852.000,30169,2,ER,1,100,1.696124
1576517221.096931,175907.000,30187,2,ER,1,100,1.694473
1576517221.162303,175962.000,30187,2,ER,1,100,1.696970
1576517221.231242,176020.000,30205,2,ER,1,100,1.695681
1576517221.300181,176078.000,30205,2,ER,1,100,1.698098
1576517221.370309,176137.000,30221,2,ER,1,100,1.696326
1576517221.440436,176196.000,30221,2,ER,1,100,1.697252
1576517221.504621,176250.000,30240,1,ER,1,100,1.696044
1576517221.568211,176303.500,30258,2,ER,1,100,1.696366
1576517221.631801,176357.000,30258,2,ER,1,100,1.698340
1576517221.695985,176411.000,30276,2,ER,1,100,1.695439
1576517221.760170,176465.000,30276,2,ER,1,100,1.697051
1576517221.827920,176522.000,30294,2,ER,1,100,1.693788
1576517221.895670,176579.000,30294,2,ER,1,100,1.695721
1576517221.965005,176637.333,30315,3,ER,1,100,1.692378
1576517222.034340,176695.667,30315,3,ER,1,100,1.692620
1576517222.103675,176754.000,30315,3,ER,1,100,1.689760
1576517222.166077,176806.500,30335,2,ER,1,100,1.688753
1576517222.228478,176859.000,30335,2,ER,1,100,1.687866
1576517222.290286,176911.000,30353,1,ER,1,100,1.686456
1576517222.358036,176968.000,30371,2,ER,1,100,1.682831
1576517222.425786,177025.000,30371,2,ER,1,100,1.682509
1576517222.494725,177083.000,30390,2,ER,1,100,1.679487
1576517222.563664,177141.000,30390,2,ER,1,100,1.678843
1576517222.632008,177198.500,30408,2,ER,1,100,1.675620
1576517222.700353,177256.000,30408,2,ER,1,100,1.676748
1576517222.771669,177316.000,30426,1,ER,1,100,1.674371
1576517222.840014,177373.500,30443,2,ER,1,100,1.672276
1576517222.908358,177431.000,30443,2,ER,1,100,1.672679
1576517222.977891,177489.500,30461,2,ER,1,100,1.670383
1576517223.047424,177548.000,30461,2,ER,1,100,1.671108
1576517223.118146,177607.500,30477,2,ER,1,100,1.668208
1576517223.188868,177667.000,30477,2,ER,1,100,1.670826
1576517223.257807,177725.000,30495,1,ER,1,100,1.670303
1576517223.325557,177782.000,30513,2,ER,1,100,1.668812
1576517223.393307,177839.000,30513,2,ER,1,100,1.669658
1576517223.456303,177892.000,30531,2,ER,1,100,1.668329
1576517223.519299,177945.000,30531,2,ER,1,100,1.671834
1576517223.584672,178000.000,30550,2,ER,1,100,1.670222
1576517223.650045,178055.000,30550,2,ER,1,100,1.672196
1576517223.717795,178112.000,30568,2,ER,1,100,1.670665
1576517223.785545,178169.000,30568,2,ER,1,100,1.672156
1576517223.854484,178227.000,30586,1,ER,1,100,1.673002
1576517223.923423,178285.000,30603,2,ER,1,100,1.672035
1576517223.992362,178343.000,30603,2,ER,1,100,1.674331
1576517224.055952,178396.500,30621,2,ER,1,100,1.673525
1576517224.119542,178450.000,30621,2,ER,1,100,1.676426
1576517224.184321,178504.500,30639,2,ER,1,100,1.676103
1576517224.249100,178559.000,30639,2,ER,1,100,1.677956
1576517224.316850,178616.000,30655,2,ER,1,100,1.677393
1576517224.384600,178673.000,30655,2,ER,1,100,1.677473
1576517224.452350,178730.000,30673,1,ER,1,100,1.679971
1576517224.521289,178788.000,30692,2,ER,1,100,1.678883
1576517224.590228,178846.000,30692,2,ER,1,100,1.681461
1576517224.655007,178900.500,30710,2,ER,1,100,1.679608
1576517224.719785,178955.000,30710,2,ER,1,100,1.681985
1576517224.784564,179009.500,30728,2,ER,1,100,1.681018
1576517224.849343,179064.000,30728,2,ER,1,100,1.683395
1576517224.915905,179120.000,30746,2,ER,1,100,1.681783
1576517224.982466,179176.000,30746,2,ER,1,100,1.680736
1576517225.054971,179237.000,30764,1,ER,1,100,1.673646
1576517225.122721,179294.000,30781,2,ER,1,100,1.672397
1576517225.190471,179351.000,30781,2,ER,1,100,1.676386
1576517225.255844,179406.000,30799,2,ER,1,100,1.675942
1576517225.321218,179461.000,30799,2,ER,1,100,1.684845
1576517225.385402,179515.000,30816,2,ER,1,100,1.687222
1576517225.449586,179569.000,30816,2,ER,1,100,1.690122
1576517225.515554,179624.500,30834,2,ER,1,100,1.691129
1576517225.581521,179680.000,30834,2,ER,1,100,1.695560
1576517225.654026,179741.000,30852,1,ER,1,100,1.701280
1576517225.720587,179797.000,30870,2,ER,1,100,1.704342
1576517225.787149,179853.000,30870,2,ER,1,100,1.700797
1576517225.854305,179909.500,30888,2,ER,1,100,1.692378
1576517225.921461,179966.000,30888,2,ER,1,100,1.689316
1576517225.983862,180018.500,30906,2,ER,1,100,1.685207
1576517226.046264,180071.000,30906,2,ER,1,100,1.701643
1576517226.114014,180128.000,30924,2,ER,1,100,1.697695
1576517226.181764,180185.000,30924,2,ER,1,100,1.693425
1576517226.250703,180243.000,30942,1,ER,1,100,1.694029
1576517226.319048,180300.500,30959,2,ER,1,100,1.691170
1576517226.387392,180358.000,30959,2,ER,1,100,1.686899
1576517226.456331,180416.000,30977,2,ER,1,100,1.684281
1576517226.525270,180474.000,30977,2,ER,1,100,1.687222
1576517226.596586,180534.000,30994,2,ER,1,100,1.687181
1576517226.667902,180594.000,30994,2,ER,1,100,1.686698
1576517226.733275,180649.000,31012,1,ER,1,100,1.684321
1576517226.803997,180708.500,31030,2,ER,1,100,1.681502
1576517226.874719,180768.000,31030,2,ER,1,100,1.681300
1576517226.942469,180825.000,31048,2,ER,1,100,1.676708
1576517227.010219,180882.000,31048,2,ER,1,100,1.676587
1576517227.079158,180940.000,31066,2,ER,1,100,1.672196
1576517227.148097,180998.000,31066,2,ER,1,100,1.669981
1576517227.211093,181051.000,31084,1,ER,1,100,1.666355
1576517227.274683,181104.500,31101,2,ER,1,100,1.662810
1576517227.338273,181158.000,31101,2,ER,1,100,1.661601
1576517227.406617,181215.500,31119,2,ER,1,100,1.656405
1576517227.474962,181273.000,31119,2,ER,1,100,1.654995
1576517227.543307,181330.500,31138,2,ER,1,100,1.651088
1576517227.611651,181388.000,31138,2,ER,1,100,1.651571
1576517227.681184,181446.500,31154,2,ER,1,100,1.649436
1576517227.750717,181505.000,31154,2,ER,1,100,1.648228
1576517227.818468,181562.000,31172,1,ER,1,100,1.648268
1576517227.888595,181621.000,31190,2,ER,1,100,1.644884
1576517227.958723,181680.000,31190,2,ER,1,100,1.646415
1576517228.021718,181733.000,31211,3,ER,1,100,1.644320
1576517228.084714,181786.000,31211,3,ER,1,100,1.647704
1576517228.147710,181839.000,31211,3,ER,1,100,1.645408
1576517228.213083,181894.000,31231,2,ER,1,100,1.647623
1576517228.278456,181949.000,31231,2,ER,1,100,1.650564
1576517228.346206,182006.000,31247,2,ER,1,100,1.647986
1576517228.413957,182063.000,31247,2,ER,1,100,1.649879
1576517228.482895,182121.000,31265,1,ER,1,100,1.650201
1576517228.550051,182177.500,31284,2,ER,1,100,1.650806
1576517228.617207,182234.000,31284,2,ER,1,100,1.655358
1576517228.681392,182288.000,31302,2,ER,1,100,1.654673
1576517228.745576,182342.000,31302,2,ER,1,100,1.654391
1576517228.812138,182398.000,31320,2,ER,1,100,1.653908
1576517228.878700,182454.000,31320,2,ER,1,100,1.658137
1576517228.945855,182510.500,31338,2,ER,1,100,1.664905
1576517229.013011,182567.000,31338,2,ER,1,100,1.664059
1576517229.084327,182627.000,31356,1,ER,1,100,1.663414
1576517229.152078,182684.000,31373,2,ER,1,100,1.664784
1576517229.219828,182741.000,31373,2,ER,1,100,1.668007
1576517229.282824,182794.000,31391,2,ER,1,100,1.667402
1576517229.345819,182847.000,31391,2,ER,1,100,1.670988
1576517229.411193,182902.000,31409,2,ER,1,100,1.670544
1576517229.476566,182957.000,31409,2,ER,1,100,1.674814
1576517229.543721,183013.500,31426,2,ER,1,100,1.674532
1576517229.610878,183070.000,31426,2,ER,1,100,1.676869
1576517229.682194,183130.000,31444,1,ER,1,100,1.676668
1576517229.749349,183186.500,31462,2,ER,1,100,1.677513
1576517229.816505,183243.000,31462,2,ER,1,100,1.680373
1576517229.880095,183296.500,31480,2,ER,1,100,1.679407
1576517229.943686,183350.000,31480,2,ER,1,100,1.682750
1576517230.007276,183403.500,31498,2,ER,1,100,1.681099
1576517230.070866,183457.000,31498,2,ER,1,100,1.684684
1576517230.138616,183514.000,31516,2,ER,1,100,1.682670
1576517230.206367,183571.000,31516,2,ER,1,100,1.685731
1576517230.272928,183627.000,31534,2,ER,1,100,1.685288
1576517230.339490,183683.000,31534,2,ER,1,100,1.686013
1576517230.411994,183744.000,31552,1,ER,1,100,1.686859
1576517230.480933,183802.000,31569,2,ER,1,100,1.685530
1576517230.549872,183860.000,31569,2,ER,1,100,1.686940
1576517230.621782,183920.500,31586,2,ER,1,100,1.685973
1576517230.693693,183981.000,31586,2,ER,1,100,1.687222
1576517230.759066,184036.000,31604,1,ER,1,100,1.686899
1576517230.829787,184095.500,31622,2,ER,1,100,1.687060
1576517230.900509,184155.000,31622,2,ER,1,100,1.688027
1576517230.963505,184208.000,31640,2,ER,1,100,1.687745
1576517231.026501,184261.000,31640,2,ER,1,100,1.689115
1576517231.091874,184316.000,31658,2,ER,1,100,1.687705
1576517231.157247,184371.000,31658,2,ER,1,100,1.690726
1576517231.224997,184428.000,31676,2,ER,1,100,1.689921
1576517231.292747,184485.000,31676,2,ER,1,100,1.690444
1576517231.356932,184539.000,31694,1,ER,1,100,1.691935
1576517231.426465,184597.500,31712,2,ER,1,100,1.692539
1576517231.495998,184656.000,31712,2,ER,1,100,1.694432
1576517231.564343,184713.500,31730,2,ER,1,100,1.692418
1576517231.632687,184771.000,31730,2,ER,1,100,1.695278
1576517231.701032,184828.500,31746,2,ER,1,100,1.693224
1576517231.769377,184886.000,31746,2,ER,1,100,1.695198
1576517231.831778,184938.500,31764,2,ER,1,100,1.690485
1576517231.894180,184991.000,31764,2,ER,1,100,1.694392
1576517231.958958,185045.500,31782,2,ER,1,100,1.688873
1576517232.023737,185100.000,31782,2,ER,1,100,1.695762
1576517232.092676,185158.000,31800,1,ER,1,100,1.698461
1576517232.160426,185215.000,31818,2,ER,1,100,1.696809
1576517232.228176,185272.000,31818,2,ER,1,100,1.697574
1576517232.296521,185329.500,31836,2,ER,1,100,1.695359
1576517232.364865,185387.000,31836,2,ER,1,100,1.698582
1576517232.428456,185440.500,31854,2,ER,1,100,1.697212
1576517232.492046,185494.000,31854,2,ER,1,100,1.698300
1576517232.556230,185548.000,31873,2,ER,1,100,1.697897
1576517232.620414,185602.000,31873,2,ER,1,100,1.698501
1576517232.690542,185661.000,31891,1,ER,1,100,1.699629
1576517232.757698,185717.500,31908,2,ER,1,100,1.698944
1576517232.824854,185774.000,31908,2,ER,1,100,1.700878
1576517232.894387,185832.500,31926,2,ER,1,100,1.699709
1576517232.963920,185891.000,31926,2,ER,1,100,1.702247
1576517233.027510,185944.500,31942,2,ER,1,100,1.700918
1576517233.091100,185998.000,31942,2,ER,1,100,1.703053
1576517233.154691,186051.500,31960,2,ER,1,100,1.701764
1576517233.218281,186105.000,31960,2,ER,1,100,1.702167
1576517233.287220,186163.000,31978,1,ER,1,100,1.705148
1576517233.354970,186220.000,31996,2,ER,1,100,1.706316
1576517233.422720,186277.000,31996,2,ER,1,100,1.702771
1576517233.492253,186335.500,32014,2,ER,1,100,1.699508
1576517233.561786,186394.000,32014,2,ER,1,100,1.703133
1576517233.625376,186447.500,32033,2,ER,1,100,1.700797
1576517233.688967,186501.000,32033,2,ER,1,100,1.701160
1576517233.752557,186554.500,32051,2,ER,1,100,1.695641
1576517233.816147,186608.000,32051,2,ER,1,100,1.701442
1576517233.885086,186666.000,32069,1,ER,1,100,1.710143
1576517233.954025,186724.000,32086,2,ER,1,100,1.702086
1576517234.022963,186782.000,32086,2,ER,1,100,1.700757
1576517234.091902,186840.000,32107,3,ER,1,100,1.699387
1576517234.160841,186898.000,32107,3,ER,1,100,1.704302
1576517234.229780,186956.000,32107,3,ER,1,100,1.707726
1576517234.298719,187014.000,32127,2,ER,1,100,1.702570
1576517234.367658,187072.000,32127,2,ER,1,100,1.704624
