EpochTimestamp,EmotiBitTimestamp,PacketNumber,DataLength,TypeTag,ProtocolVersion,DataReliability,GX
1576517088.531103,64376.000,10606,9,GX,1,100,0.092
1576517088.531103,64376.000,10606,9,GX,1,100,-0.946
1576517088.531103,64376.000,10606,9,GX,1,100,0.122
1576517088.531103,64376.000,10606,9,GX,1,100,0.153
1576517088.531103,64376.000,10606,9,GX,1,100,-0.031
1576517088.531103,64376.000,10606,9,GX,1,100,-0.519
1576517088.531103,64376.000,10606,9,GX,1,100,0.427
1576517088.531103,64376.000,10606,9,GX,1,100,0.488
1576517088.531103,64376.000,10606,9,GX,1,100,-0.031
1576517088.570327,64409.000,10625,3,GX,1,100,-0.488
1576517088.609551,64442.000,10625,3,GX,1,100,-0.122
1576517088.648775,64475.000,10625,3,GX,1,100,0.824
1576517088.689583,64509.333,10642,3,GX,1,100,-1.251
1576517088.730392,64543.667,10642,3,GX,1,100,0.092
1576517088.771201,64578.000,10642,3,GX,1,100,-0.519
1576517088.812405,64612.667,10660,3,GX,1,100,-0.275
1576517088.853610,64647.333,10660,3,GX,1,100,0.336
1576517088.894815,64682.000,10660,3,GX,1,100,0.275
1576517088.935227,64716.000,10676,3,GX,1,100,0.214
1576517088.975640,64750.000,10676,3,GX,1,100,-0.916
1576517089.016052,64784.000,10676,3,GX,1,100,-0.214
1576517089.054088,64816.000,10694,3,GX,1,100,0.336
1576517089.092123,64848.000,10694,3,GX,1,100,-0.580
1576517089.130158,64880.000,10694,3,GX,1,100,-0.275
1576517089.172948,64916.000,10712,3,GX,1,100,-0.702
1576517089.215737,64952.000,10712,3,GX,1,100,-3.357
1576517089.258527,64988.000,10712,3,GX,1,100,-11.108
1576517089.298543,65021.667,10730,3,GX,1,100,-31.769
1576517089.338559,65055.333,10730,3,GX,1,100,-65.979
1576517089.378576,65089.000,10730,3,GX,1,100,-56.488
1576517089.419780,65123.667,10748,3,GX,1,100,30.975
1576517089.460985,65158.333,10748,3,GX,1,100,47.668
1576517089.502190,65193.000,10748,3,GX,1,100,-16.327
1576517089.543791,65228.000,10766,3,GX,1,100,-5.371
1576517089.585392,65263.000,10766,3,GX,1,100,0.946
1576517089.626993,65298.000,10766,3,GX,1,100,-5.615
1576517089.663840,65329.000,10785,3,GX,1,100,31.525
1576517089.700686,65360.000,10785,3,GX,1,100,31.036
1576517089.737533,65391.000,10785,3,GX,1,100,-9.674
1576517089.776757,65424.000,10803,3,GX,1,100,-17.426
1576517089.815981,65457.000,10803,3,GX,1,100,-7.263
1576517089.855204,65490.000,10803,3,GX,1,100,4.242
1576517089.900371,65528.000,10820,2,GX,1,100,6.134
1576517089.945538,65566.000,10820,2,GX,1,100,-2.533
1576517089.984465,65598.750,10838,4,GX,1,100,-5.524
1576517090.023391,65631.500,10838,4,GX,1,100,18.951
1576517090.062318,65664.250,10838,4,GX,1,100,21.973
1576517090.101245,65697.000,10838,4,GX,1,100,-7.599
1576517090.141657,65731.000,10854,2,GX,1,100,8.850
1576517090.182070,65765.000,10854,2,GX,1,100,18.860
1576517090.223076,65799.500,10872,4,GX,1,100,-10.284
1576517090.264083,65834.000,10872,4,GX,1,100,-9.399
1576517090.305090,65868.500,10872,4,GX,1,100,14.557
1576517090.346097,65903.000,10872,4,GX,1,100,1.129
1576517090.388292,65938.500,10890,2,GX,1,100,-13.763
1576517090.430487,65974.000,10890,2,GX,1,100,-0.183
1576517090.474862,66011.333,10908,3,GX,1,100,10.071
1576517090.519236,66048.667,10908,3,GX,1,100,0.275
1576517090.563611,66086.000,10908,3,GX,1,100,2.502
1576517090.602438,66118.667,10927,3,GX,1,100,16.296
1576517090.641266,66151.333,10927,3,GX,1,100,11.353
1576517090.680093,66184.000,10927,3,GX,1,100,6.683
1576517090.725260,66222.000,10945,3,GX,1,100,9.186
1576517090.770427,66260.000,10945,3,GX,1,100,-5.798
1576517090.815594,66298.000,10945,3,GX,1,100,-10.071
1576517090.854025,66330.333,10962,3,GX,1,100,-0.732
1576517090.892457,66362.667,10962,3,GX,1,100,-0.549
1576517090.930888,66395.000,10962,3,GX,1,100,0.366
1576517090.972489,66430.000,10980,3,GX,1,100,0.793
1576517091.014090,66465.000,10980,3,GX,1,100,-0.946
1576517091.055691,66500.000,10980,3,GX,1,100,-2.258
1576517091.097292,66535.000,10996,3,GX,1,100,-0.793
1576517091.138893,66570.000,10996,3,GX,1,100,-0.916
1576517091.180494,66605.000,10996,3,GX,1,100,0.397
1576517091.218529,66637.000,11014,3,GX,1,100,-0.366
1576517091.256565,66669.000,11014,3,GX,1,100,-0.244
1576517091.294600,66701.000,11014,3,GX,1,100,-0.671
1576517091.334616,66734.667,11032,3,GX,1,100,-1.831
1576517091.374632,66768.333,11032,3,GX,1,100,0.244
1576517091.414649,66802.000,11032,3,GX,1,100,-0.061
1576517091.455853,66836.667,11050,3,GX,1,100,-0.885
1576517091.497058,66871.333,11050,3,GX,1,100,0.275
1576517091.538263,66906.000,11050,3,GX,1,100,0.427
1576517091.579864,66941.000,11068,3,GX,1,100,0.763
1576517091.621465,66976.000,11068,3,GX,1,100,0.763
1576517091.663066,67011.000,11068,3,GX,1,100,-0.183
1576517091.704667,67046.000,11087,3,GX,1,100,-0.946
1576517091.746268,67081.000,11087,3,GX,1,100,-0.824
1576517091.787869,67116.000,11087,3,GX,1,100,0.916
1576517091.829470,67151.000,11104,2,GX,1,100,-0.031
1576517091.871071,67186.000,11104,2,GX,1,100,-0.031
1576517091.910295,67219.000,11122,4,GX,1,100,-0.885
1576517091.949519,67252.000,11122,4,GX,1,100,-1.129
1576517091.988743,67285.000,11122,4,GX,1,100,-0.458
1576517092.027966,67318.000,11122,4,GX,1,100,-0.702
1576517092.066002,67350.000,11140,3,GX,1,100,-0.336
1576517092.104037,67382.000,11140,3,GX,1,100,-3.082
1576517092.142072,67414.000,11140,3,GX,1,100,0.092
1576517092.182485,67448.000,11157,3,GX,1,100,-1.984
1576517092.222897,67482.000,11157,3,GX,1,100,4.272
1576517092.263309,67516.000,11157,3,GX,1,100,14.069
1576517092.310259,67555.500,11174,2,GX,1,100,14.191
1576517092.357209,67595.000,11174,2,GX,1,100,3.937
1576517092.397225,67628.667,11192,3,GX,1,100,-4.669
1576517092.437241,67662.333,11192,3,GX,1,100,-7.477
1576517092.477258,67696.000,11192,3,GX,1,100,-9.155
1576517092.518066,67730.333,11210,3,GX,1,100,-11.322
1576517092.558875,67764.667,11210,3,GX,1,100,-10.223
1576517092.599684,67799.000,11210,3,GX,1,100,-10.010
1576517092.637323,67830.667,11229,3,GX,1,100,-2.869
1576517092.674962,67862.333,11229,3,GX,1,100,-7.874
1576517092.712601,67894.000,11229,3,GX,1,100,-9.430
1576517092.751527,67926.750,11247,4,GX,1,100,-0.610
1576517092.790454,67959.500,11247,4,GX,1,100,5.615
1576517092.829381,67992.250,11247,4,GX,1,100,-1.343
1576517092.868307,68025.000,11247,4,GX,1,100,2.838
1576517092.910503,68060.500,11265,2,GX,1,100,5.798
1576517092.952698,68096.000,11265,2,GX,1,100,2.533
1576517092.997072,68133.333,11283,3,GX,1,100,7.385
1576517093.041447,68170.667,11283,3,GX,1,100,6.073
1576517093.085821,68208.000,11283,3,GX,1,100,2.991
1576517093.126234,68242.000,11300,3,GX,1,100,3.052
1576517093.166646,68276.000,11300,3,GX,1,100,-0.824
1576517093.207058,68310.000,11300,3,GX,1,100,-1.587
1576517093.245094,68342.000,11318,3,GX,1,100,-0.275
1576517093.283129,68374.000,11318,3,GX,1,100,0.580
1576517093.321164,68406.000,11318,3,GX,1,100,0.061
1576517093.359992,68438.667,11336,3,GX,1,100,-2.625
1576517093.398819,68471.333,11336,3,GX,1,100,0.885
1576517093.437647,68504.000,11336,3,GX,1,100,1.953
1576517093.479248,68539.000,11352,3,GX,1,100,0.000
1576517093.520849,68574.000,11352,3,GX,1,100,1.007
1576517093.562450,68609.000,11352,3,GX,1,100,-0.671
1576517093.603259,68643.333,11371,3,GX,1,100,-4.059
1576517093.644067,68677.667,11371,3,GX,1,100,-1.495
1576517093.684876,68712.000,11371,3,GX,1,100,-4.425
1576517093.726081,68746.667,11389,3,GX,1,100,1.740
1576517093.767286,68781.333,11389,3,GX,1,100,8.484
1576517093.808491,68816.000,11389,3,GX,1,100,2.716
1576517093.848903,68850.000,11407,3,GX,1,100,-16.907
1576517093.889315,68884.000,11407,3,GX,1,100,-25.513
1576517093.929728,68918.000,11407,3,GX,1,100,-70.923
1576517093.969744,68951.667,11425,3,GX,1,100,-125.580
1576517094.009760,68985.333,11425,3,GX,1,100,-125.854
1576517094.049776,69019.000,11425,3,GX,1,100,-124.268
1576517094.090189,69053.000,11443,3,GX,1,100,-183.655
1576517094.130601,69087.000,11443,3,GX,1,100,-203.369
1576517094.171014,69121.000,11443,3,GX,1,100,-150.055
1576517094.212219,69155.667,11461,3,GX,1,100,-100.586
1576517094.253423,69190.333,11461,3,GX,1,100,-99.823
1576517094.294628,69225.000,11461,3,GX,1,100,-106.598
1576517094.335833,69259.667,11478,3,GX,1,100,-90.088
1576517094.377038,69294.333,11478,3,GX,1,100,-56.152
1576517094.418243,69329.000,11478,3,GX,1,100,-18.585
1576517094.455327,69360.200,11499,5,GX,1,100,14.313
1576517094.492411,69391.400,11499,5,GX,1,100,30.518
1576517094.529496,69422.600,11499,5,GX,1,100,53.223
1576517094.566580,69453.800,11499,5,GX,1,100,124.176
1576517094.603664,69485.000,11499,5,GX,1,100,273.224
1576517094.642888,69518.000,11518,3,GX,1,100,358.521
1576517094.682112,69551.000,11518,3,GX,1,100,347.137
1576517094.721336,69584.000,11518,3,GX,1,100,269.806
1576517094.760164,69616.667,11538,3,GX,1,100,93.292
1576517094.798991,69649.333,11538,3,GX,1,100,-53.894
1576517094.837819,69682.000,11538,3,GX,1,100,-27.069
1576517094.881005,69718.333,11556,3,GX,1,100,29.205
1576517094.924190,69754.667,11556,3,GX,1,100,3.754
1576517094.967376,69791.000,11556,3,GX,1,100,-9.003
1576517095.008581,69825.667,11574,3,GX,1,100,6.104
1576517095.049786,69860.333,11574,3,GX,1,100,3.601
1576517095.090991,69895.000,11574,3,GX,1,100,1.587
1576517095.133186,69930.500,11591,2,GX,1,100,3.387
1576517095.175381,69966.000,11591,2,GX,1,100,3.632
1576517095.216685,70000.750,11609,4,GX,1,100,3.845
1576517095.257989,70035.500,11609,4,GX,1,100,2.991
1576517095.299293,70070.250,11609,4,GX,1,100,2.441
1576517095.340597,70105.000,11609,4,GX,1,100,0.732
1576517095.382198,70140.000,11625,2,GX,1,100,-2.380
1576517095.423799,70175.000,11625,2,GX,1,100,3.052
1576517095.462428,70207.500,11643,4,GX,1,100,9.064
1576517095.501058,70240.000,11643,4,GX,1,100,3.632
1576517095.539687,70272.500,11643,4,GX,1,100,-1.831
1576517095.578317,70305.000,11643,4,GX,1,100,0.702
1576517095.616352,70337.000,11662,3,GX,1,100,3.265
1576517095.654387,70369.000,11662,3,GX,1,100,1.953
1576517095.692423,70401.000,11662,3,GX,1,100,3.784
1576517095.732835,70435.000,11680,3,GX,1,100,6.317
1576517095.773247,70469.000,11680,3,GX,1,100,11.108
1576517095.813660,70503.000,11680,3,GX,1,100,10.284
1576517095.854865,70537.667,11698,3,GX,1,100,-16.846
1576517095.896070,70572.333,11698,3,GX,1,100,-22.766
1576517095.937274,70607.000,11698,3,GX,1,100,-24.902
1576517095.984224,70646.500,11716,2,GX,1,100,2.502
1576517096.031174,70686.000,11716,2,GX,1,100,0.885
1576517096.070794,70719.333,11734,3,GX,1,100,-122.833
1576517096.110414,70752.667,11734,3,GX,1,100,67.719
1576517096.150034,70786.000,11734,3,GX,1,100,-1.495
1576517096.188069,70818.000,11752,4,GX,1,100,8.759
1576517096.226104,70850.000,11752,4,GX,1,100,46.509
1576517096.264140,70882.000,11752,4,GX,1,100,30.182
1576517096.302175,70914.000,11752,4,GX,1,100,48.401
1576517096.341993,70947.500,11769,2,GX,1,100,32.135
1576517096.381811,70981.000,11769,2,GX,1,100,11.993
1576517096.422620,71015.333,11787,3,GX,1,100,-14.862
1576517096.463428,71049.667,11787,3,GX,1,100,-37.079
1576517096.504237,71084.000,11787,3,GX,1,100,-35.706
1576517096.545046,71118.333,11803,3,GX,1,100,170.105
1576517096.585854,71152.667,11803,3,GX,1,100,-148.010
1576517096.626663,71187.000,11803,3,GX,1,100,-54.535
1576517096.667075,71221.000,11822,3,GX,1,100,67.993
1576517096.707488,71255.000,11822,3,GX,1,100,-18.860
1576517096.747900,71289.000,11822,3,GX,1,100,42.511
1576517096.789105,71323.667,11840,3,GX,1,100,22.552
1576517096.830310,71358.333,11840,3,GX,1,100,24.689
1576517096.871515,71393.000,11840,3,GX,1,100,42.725
1576517096.911134,71426.333,11858,3,GX,1,100,30.914
1576517096.950755,71459.667,11858,3,GX,1,100,27.283
1576517096.990375,71493.000,11858,3,GX,1,100,7.385
1576517097.031579,71527.667,11876,3,GX,1,100,-8.972
1576517097.072784,71562.333,11876,3,GX,1,100,-22.491
1576517097.113989,71597.000,11876,3,GX,1,100,-41.565
1576517097.155194,71631.667,11894,3,GX,1,100,-64.514
1576517097.196399,71666.333,11894,3,GX,1,100,-30.060
1576517097.237604,71701.000,11894,3,GX,1,100,69.946
1576517097.278412,71735.333,11912,3,GX,1,100,-178.253
1576517097.319221,71769.667,11912,3,GX,1,100,72.968
1576517097.360029,71804.000,11912,3,GX,1,100,40.405
1576517097.397272,71835.333,11930,3,GX,1,100,23.529
1576517097.434515,71866.667,11930,3,GX,1,100,79.895
1576517097.471758,71898.000,11930,3,GX,1,100,-13.458
1576517097.510982,71931.000,11948,3,GX,1,100,27.405
1576517097.550205,71964.000,11948,3,GX,1,100,50.079
1576517097.589429,71997.000,11948,3,GX,1,100,-7.294
1576517097.634596,72035.000,11966,3,GX,1,100,-12.360
1576517097.679763,72073.000,11966,3,GX,1,100,1.526
1576517097.724930,72111.000,11966,3,GX,1,100,-7.324
1576517097.766531,72146.000,11983,3,GX,1,100,-18.036
1576517097.808132,72181.000,11983,3,GX,1,100,-5.615
1576517097.849733,72216.000,11983,3,GX,1,100,0.336
1576517097.889749,72249.667,12000,3,GX,1,100,-7.233
1576517097.929765,72283.333,12000,3,GX,1,100,-0.885
1576517097.969782,72317.000,12000,3,GX,1,100,-4.211
1576517098.007025,72348.333,12018,3,GX,1,100,-3.754
1576517098.044267,72379.667,12018,3,GX,1,100,2.716
1576517098.081510,72411.000,12018,3,GX,1,100,2.686
1576517098.119941,72443.333,12036,3,GX,1,100,-3.387
1576517098.158373,72475.667,12036,3,GX,1,100,-0.549
1576517098.196804,72508.000,12036,3,GX,1,100,-3.479
1576517098.238405,72543.000,12054,3,GX,1,100,-5.310
1576517098.280006,72578.000,12054,3,GX,1,100,-2.838
1576517098.321607,72613.000,12054,3,GX,1,100,-2.625
1576517098.362812,72647.667,12072,3,GX,1,100,-2.258
1576517098.404017,72682.333,12072,3,GX,1,100,-3.174
1576517098.445222,72717.000,12072,3,GX,1,100,-2.686
1576517098.489993,72754.667,12090,3,GX,1,100,1.587
1576517098.534763,72792.333,12090,3,GX,1,100,-0.366
1576517098.579534,72830.000,12090,3,GX,1,100,-1.587
1576517098.615588,72860.333,12109,3,GX,1,100,-0.488
1576517098.651642,72890.667,12109,3,GX,1,100,-2.960
1576517098.687696,72921.000,12109,3,GX,1,100,-1.709
1576517098.731278,72957.667,12126,3,GX,1,100,0.946
1576517098.774860,72994.333,12126,3,GX,1,100,0.153
1576517098.818443,73031.000,12126,3,GX,1,100,-5.493
1576517098.856478,73063.000,12144,3,GX,1,100,-1.770
1576517098.894513,73095.000,12144,3,GX,1,100,4.272
1576517098.932548,73127.000,12144,3,GX,1,100,-0.580
1576517098.972564,73160.667,12162,3,GX,1,100,-2.991
1576517099.012581,73194.333,12162,3,GX,1,100,-1.801
1576517099.052597,73228.000,12162,3,GX,1,100,-1.526
1576517099.091028,73260.333,12179,3,GX,1,100,-1.373
1576517099.129460,73292.667,12179,3,GX,1,100,-1.740
1576517099.167891,73325.000,12179,3,GX,1,100,-0.763
1576517099.207511,73358.333,12196,3,GX,1,100,-1.099
1576517099.247131,73391.667,12196,3,GX,1,100,0.580
1576517099.286751,73425.000,12196,3,GX,1,100,-2.167
1576517099.327956,73459.667,12214,3,GX,1,100,-1.007
1576517099.369161,73494.333,12214,3,GX,1,100,-2.197
1576517099.410366,73529.000,12214,3,GX,1,100,1.740
1576517099.451967,73564.000,12232,3,GX,1,100,-1.221
1576517099.493568,73599.000,12232,3,GX,1,100,-1.099
1576517099.535169,73634.000,12232,3,GX,1,100,-0.946
1576517099.575581,73668.000,12250,3,GX,1,100,-0.519
1576517099.615993,73702.000,12250,3,GX,1,100,-0.214
1576517099.656406,73736.000,12250,3,GX,1,100,0.732
1576517099.694045,73767.667,12269,3,GX,1,100,-1.556
1576517099.731684,73799.333,12269,3,GX,1,100,-2.472
1576517099.769323,73831.000,12269,3,GX,1,100,-2.563
1576517099.812509,73867.333,12287,3,GX,1,100,-2.594
1576517099.855695,73903.667,12287,3,GX,1,100,-1.495
1576517099.898880,73940.000,12287,3,GX,1,100,-0.610
1576517099.939293,73974.000,12305,3,GX,1,100,-0.732
1576517099.979705,74008.000,12305,3,GX,1,100,-0.366
1576517100.020118,74042.000,12305,3,GX,1,100,-1.709
1576517100.061125,74076.500,12322,2,GX,1,100,0.092
1576517100.102131,74111.000,12322,2,GX,1,100,-0.061
1576517100.142246,74144.750,12340,4,GX,1,100,-1.678
1576517100.182362,74178.500,12340,4,GX,1,100,-0.702
1576517100.222477,74212.250,12340,4,GX,1,100,-1.160
1576517100.262592,74246.000,12340,4,GX,1,100,-1.862
1576517100.301024,74278.333,12357,3,GX,1,100,0.183
1576517100.339455,74310.667,12357,3,GX,1,100,1.526
1576517100.377887,74343.000,12357,3,GX,1,100,-1.343
1576517100.416318,74375.333,12374,3,GX,1,100,-0.946
1576517100.454750,74407.667,12374,3,GX,1,100,0.549
1576517100.493181,74440.000,12374,3,GX,1,100,-0.946
1576517100.533593,74474.000,12395,4,GX,1,100,-0.214
1576517100.574006,74508.000,12395,4,GX,1,100,1.007
1576517100.614418,74542.000,12395,4,GX,1,100,-0.732
1576517100.654831,74576.000,12395,4,GX,1,100,1.282
1576517100.699997,74614.000,12415,3,GX,1,100,0.519
1576517100.745164,74652.000,12415,3,GX,1,100,-0.549
1576517100.790331,74690.000,12415,3,GX,1,100,1.404
1576517100.830744,74724.000,12433,3,GX,1,100,-0.244
1576517100.871156,74758.000,12433,3,GX,1,100,0.153
1576517100.911568,74792.000,12433,3,GX,1,100,-0.153
1576517100.949604,74824.000,12451,3,GX,1,100,0.366
1576517100.987639,74856.000,12451,3,GX,1,100,0.580
1576517101.025674,74888.000,12451,3,GX,1,100,-0.458
1576517101.064898,74921.000,12467,3,GX,1,100,0.214
1576517101.104122,74954.000,12467,3,GX,1,100,-0.031
1576517101.143346,74987.000,12467,3,GX,1,100,-0.610
1576517101.184154,75021.333,12485,3,GX,1,100,-0.824
1576517101.224963,75055.667,12485,3,GX,1,100,-0.183
1576517101.265771,75090.000,12485,3,GX,1,100,-0.153
1576517101.306976,75124.667,12503,3,GX,1,100,-1.068
1576517101.348181,75159.333,12503,3,GX,1,100,-0.122
1576517101.389386,75194.000,12503,3,GX,1,100,-0.031
1576517101.433364,75231.000,12521,3,GX,1,100,-0.610
1576517101.477342,75268.000,12521,3,GX,1,100,-1.434
1576517101.521321,75305.000,12521,3,GX,1,100,-0.397
1576517101.559356,75337.000,12539,3,GX,1,100,-0.366
1576517101.597391,75369.000,12539,3,GX,1,100,-0.244
1576517101.635426,75401.000,12539,3,GX,1,100,0.366
1576517101.674254,75433.667,12558,3,GX,1,100,-0.488
1576517101.713081,75466.333,12558,3,GX,1,100,-0.153
1576517101.751909,75499.000,12558,3,GX,1,100,-0.458
1576517101.793510,75534.000,12576,3,GX,1,100,0.732
1576517101.835111,75569.000,12576,3,GX,1,100,-0.580
1576517101.876712,75604.000,12576,3,GX,1,100,-1.312
1576517101.917521,75638.333,12593,3,GX,1,100,0.183
1576517101.958329,75672.667,12593,3,GX,1,100,0.183
1576517101.999138,75707.000,12593,3,GX,1,100,-0.977
1576517102.039154,75740.667,12611,3,GX,1,100,-0.366
1576517102.079170,75774.333,12611,3,GX,1,100,0.397
1576517102.119187,75808.000,12611,3,GX,1,100,-0.122
1576517102.157618,75840.333,12629,3,GX,1,100,-0.244
1576517102.196049,75872.667,12629,3,GX,1,100,-1.007
1576517102.234481,75905.000,12629,3,GX,1,100,-0.275
1576517102.275686,75939.667,12647,3,GX,1,100,-0.488
1576517102.316891,75974.333,12647,3,GX,1,100,-0.214
1576517102.358095,76009.000,12647,3,GX,1,100,-0.732
1576517102.396131,76041.000,12663,3,GX,1,100,-0.763
1576517102.434166,76073.000,12663,3,GX,1,100,-0.519
1576517102.472201,76105.000,12663,3,GX,1,100,-0.366
1576517102.515387,76141.333,12681,3,GX,1,100,0.000
1576517102.558573,76177.667,12681,3,GX,1,100,-0.824
1576517102.601759,76214.000,12681,3,GX,1,100,0.092
1576517102.637813,76244.333,12700,3,GX,1,100,-0.458
1576517102.673867,76274.667,12700,3,GX,1,100,-0.305
1576517102.709921,76305.000,12700,3,GX,1,100,-0.610
1576517102.751126,76339.667,12718,3,GX,1,100,0.061
1576517102.792331,76374.333,12718,3,GX,1,100,-0.732
1576517102.833536,76409.000,12718,3,GX,1,100,-0.549
1576517102.877910,76446.333,12736,3,GX,1,100,-1.007
1576517102.922285,76483.667,12736,3,GX,1,100,-0.488
1576517102.966659,76521.000,12736,3,GX,1,100,-0.275
1576517103.008260,76556.000,12754,3,GX,1,100,-0.977
1576517103.049861,76591.000,12754,3,GX,1,100,-0.214
1576517103.091462,76626.000,12754,3,GX,1,100,-0.427
1576517103.131875,76660.000,12771,2,GX,1,100,-1.434
1576517103.172287,76694.000,12771,2,GX,1,100,-1.190
1576517103.210025,76725.750,12789,4,GX,1,100,-0.183
1576517103.247763,76757.500,12789,4,GX,1,100,0.946
1576517103.285501,76789.250,12789,4,GX,1,100,-0.916
1576517103.323239,76821.000,12789,4,GX,1,100,-0.580
1576517103.363256,76854.667,12807,3,GX,1,100,-0.153
1576517103.403272,76888.333,12807,3,GX,1,100,-1.038
1576517103.443288,76922.000,12807,3,GX,1,100,-1.556
1576517103.484097,76956.333,12823,3,GX,1,100,-1.434
1576517103.524905,76990.667,12823,3,GX,1,100,-3.845
1576517103.565714,77025.000,12823,3,GX,1,100,-5.432
1576517103.607315,77060.000,12842,3,GX,1,100,-4.639
1576517103.648916,77095.000,12842,3,GX,1,100,-15.747
1576517103.690517,77130.000,12842,3,GX,1,100,-95.764
1576517103.737467,77169.500,12860,2,GX,1,100,-228.485
1576517103.784416,77209.000,12860,2,GX,1,100,-344.727
1576517103.821659,77240.333,12878,3,GX,1,100,-471.283
1576517103.858902,77271.667,12878,3,GX,1,100,-490.753
1576517103.896145,77303.000,12878,3,GX,1,100,-378.387
1576517103.934774,77335.500,12896,4,GX,1,100,-219.269
1576517103.973404,77368.000,12896,4,GX,1,100,-128.357
1576517104.012033,77400.500,12896,4,GX,1,100,-100.189
1576517104.050663,77433.000,12896,4,GX,1,100,-78.918
1576517104.091471,77467.333,12914,3,GX,1,100,-65.308
1576517104.132280,77501.667,12914,3,GX,1,100,-77.026
1576517104.173089,77536.000,12914,3,GX,1,100,-92.743
1576517104.212907,77569.500,12932,2,GX,1,100,-94.971
1576517104.252725,77603.000,12932,2,GX,1,100,-90.546
1576517104.295118,77638.667,12949,3,GX,1,100,-74.890
1576517104.337512,77674.333,12949,3,GX,1,100,-38.361
1576517104.379905,77710.000,12949,3,GX,1,100,-9.460
1576517104.417148,77741.333,12967,3,GX,1,100,7.019
1576517104.454391,77772.667,12967,3,GX,1,100,13.428
1576517104.491634,77804.000,12967,3,GX,1,100,11.414
1576517104.533631,77839.333,12985,3,GX,1,100,-11.505
1576517104.575628,77874.667,12985,3,GX,1,100,-22.247
1576517104.617625,77910.000,12985,3,GX,1,100,-11.383
1576517104.658038,77944.000,13002,3,GX,1,100,-7.568
1576517104.698450,77978.000,13002,3,GX,1,100,-13.947
1576517104.738863,78012.000,13002,3,GX,1,100,-11.353
1576517104.779671,78046.333,13020,3,GX,1,100,-11.108
1576517104.820480,78080.667,13020,3,GX,1,100,-10.590
1576517104.861289,78115.000,13020,3,GX,1,100,-4.120
1576517104.902493,78149.667,13038,3,GX,1,100,-7.141
1576517104.943698,78184.333,13038,3,GX,1,100,-6.195
1576517104.984903,78219.000,13038,3,GX,1,100,-10.620
1576517105.023731,78251.667,13056,3,GX,1,100,-8.820
1576517105.062558,78284.333,13056,3,GX,1,100,6.317
1576517105.101386,78317.000,13056,3,GX,1,100,16.968
1576517105.139421,78349.000,13074,3,GX,1,100,7.690
1576517105.177456,78381.000,13074,3,GX,1,100,6.805
1576517105.215492,78413.000,13074,3,GX,1,100,27.466
1576517105.255508,78446.667,13092,3,GX,1,100,42.816
1576517105.295524,78480.333,13092,3,GX,1,100,45.532
1576517105.335540,78514.000,13092,3,GX,1,100,22.095
1576517105.380707,78552.000,13110,3,GX,1,100,-2.716
1576517105.425874,78590.000,13110,3,GX,1,100,-15.320
1576517105.471041,78628.000,13110,3,GX,1,100,-14.893
1576517105.512246,78662.667,13127,3,GX,1,100,-12.512
1576517105.553450,78697.333,13127,3,GX,1,100,-9.369
1576517105.594655,78732.000,13127,3,GX,1,100,-11.475
1576517105.631898,78763.333,13146,3,GX,1,100,-10.742
1576517105.669141,78794.667,13146,3,GX,1,100,-1.984
1576517105.706384,78826.000,13146,3,GX,1,100,9.369
1576517105.745211,78858.667,13164,3,GX,1,100,14.069
1576517105.784039,78891.333,13164,3,GX,1,100,15.289
1576517105.822867,78924.000,13164,3,GX,1,100,28.442
1576517105.862090,78957.000,13182,3,GX,1,100,37.415
1576517105.901314,78990.000,13182,3,GX,1,100,16.998
1576517105.940538,79023.000,13182,3,GX,1,100,-4.028
1576517105.982139,79058.000,13198,3,GX,1,100,-10.376
1576517106.023740,79093.000,13198,3,GX,1,100,-6.348
1576517106.065341,79128.000,13198,3,GX,1,100,8.942
1576517106.110508,79166.000,13216,3,GX,1,100,6.348
1576517106.155675,79204.000,13216,3,GX,1,100,-5.157
1576517106.200842,79242.000,13216,3,GX,1,100,-1.709
1576517106.239273,79274.333,13234,3,GX,1,100,3.693
1576517106.277704,79306.667,13234,3,GX,1,100,1.465
1576517106.316136,79339.000,13234,3,GX,1,100,-1.068
1576517106.357737,79374.000,13252,3,GX,1,100,-0.671
1576517106.399338,79409.000,13252,3,GX,1,100,4.028
1576517106.440939,79444.000,13252,3,GX,1,100,6.775
1576517106.482144,79478.667,13270,3,GX,1,100,2.625
1576517106.523349,79513.333,13270,3,GX,1,100,3.906
1576517106.564553,79548.000,13270,3,GX,1,100,4.913
1576517106.603064,79580.400,13290,5,GX,1,100,1.495
1576517106.641575,79612.800,13290,5,GX,1,100,-0.031
1576517106.680085,79645.200,13290,5,GX,1,100,-0.214
1576517106.718596,79677.600,13290,5,GX,1,100,0.214
1576517106.757107,79710.000,13290,5,GX,1,100,-0.061
1576517106.794746,79741.667,13312,3,GX,1,100,-0.305
1576517106.832385,79773.333,13312,3,GX,1,100,0.183
1576517106.870024,79805.000,13312,3,GX,1,100,-2.045
1576517106.910436,79839.000,13330,3,GX,1,100,-3.082
1576517106.950849,79873.000,13330,3,GX,1,100,-1.678
1576517106.991261,79907.000,13330,3,GX,1,100,-3.601
1576517107.032466,79941.667,13348,3,GX,1,100,-2.350
1576517107.073671,79976.333,13348,3,GX,1,100,2.350
1576517107.114876,80011.000,13348,3,GX,1,100,0.946
1576517107.156476,80046.000,13366,3,GX,1,100,0.488
1576517107.198078,80081.000,13366,3,GX,1,100,0.427
1576517107.239679,80116.000,13366,3,GX,1,100,-1.190
1576517107.278903,80149.000,13384,3,GX,1,100,0.244
1576517107.318126,80182.000,13384,3,GX,1,100,-1.251
1576517107.357350,80215.000,13384,3,GX,1,100,-0.916
1576517107.395385,80247.000,13402,3,GX,1,100,0.061
1576517107.433421,80279.000,13402,3,GX,1,100,0.336
1576517107.471456,80311.000,13402,3,GX,1,100,1.740
1576517107.514246,80347.000,13420,3,GX,1,100,1.831
1576517107.557035,80383.000,13420,3,GX,1,100,1.495
1576517107.599825,80419.000,13420,3,GX,1,100,16.266
1576517107.641030,80453.667,13438,3,GX,1,100,43.762
1576517107.682234,80488.333,13438,3,GX,1,100,73.975
1576517107.723439,80523.000,13438,3,GX,1,100,105.713
1576517107.763852,80557.000,13456,3,GX,1,100,81.299
1576517107.804264,80591.000,13456,3,GX,1,100,6.836
1576517107.844676,80625.000,13456,3,GX,1,100,-33.813
1576517107.886872,80660.500,13472,2,GX,1,100,-38.849
1576517107.929067,80696.000,13472,2,GX,1,100,-27.527
1576517107.966805,80727.750,13490,4,GX,1,100,-5.188
1576517108.004543,80759.500,13490,4,GX,1,100,-0.092
1576517108.042281,80791.250,13490,4,GX,1,100,-7.416
1576517108.080019,80823.000,13490,4,GX,1,100,-13.458
1576517108.118847,80855.667,13508,3,GX,1,100,-9.705
1576517108.157675,80888.333,13508,3,GX,1,100,-5.188
1576517108.196502,80921.000,13508,3,GX,1,100,-5.890
1576517108.238103,80956.000,13526,3,GX,1,100,-3.632
1576517108.279704,80991.000,13526,3,GX,1,100,-4.944
1576517108.321305,81026.000,13526,3,GX,1,100,-6.348
1576517108.367661,81065.000,13544,2,GX,1,100,-10.376
1576517108.414016,81104.000,13544,2,GX,1,100,-7.904
1576517108.455617,81139.000,13562,3,GX,1,100,-5.646
1576517108.497218,81174.000,13562,3,GX,1,100,-0.488
1576517108.538819,81209.000,13562,3,GX,1,100,5.188
1576517108.575666,81240.000,13581,3,GX,1,100,1.129
1576517108.612513,81271.000,13581,3,GX,1,100,1.648
1576517108.649359,81302.000,13581,3,GX,1,100,0.549
1576517108.688583,81335.000,13599,4,GX,1,100,0.214
1576517108.727807,81368.000,13599,4,GX,1,100,-1.862
1576517108.767030,81401.000,13599,4,GX,1,100,-3.967
1576517108.806254,81434.000,13599,4,GX,1,100,-3.082
1576517108.847261,81468.500,13616,2,GX,1,100,1.007
1576517108.888268,81503.000,13616,2,GX,1,100,1.587
1576517108.929869,81538.000,13634,3,GX,1,100,3.815
1576517108.971470,81573.000,13634,3,GX,1,100,-1.892
1576517109.013071,81608.000,13634,3,GX,1,100,-6.439
1576517109.055068,81643.333,13650,3,GX,1,100,-3.632
1576517109.097065,81678.667,13650,3,GX,1,100,-1.648
1576517109.139063,81714.000,13650,3,GX,1,100,-0.183
1576517109.180267,81748.667,13668,3,GX,1,100,-1.892
1576517109.221472,81783.333,13668,3,GX,1,100,-4.120
1576517109.262677,81818.000,13668,3,GX,1,100,-3.174
1576517109.299920,81849.333,13686,3,GX,1,100,-5.371
1576517109.337163,81880.667,13686,3,GX,1,100,-3.571
1576517109.374406,81912.000,13686,3,GX,1,100,-0.580
1576517109.415214,81946.333,13704,3,GX,1,100,-2.289
1576517109.456023,81980.667,13704,3,GX,1,100,1.648
1576517109.496831,82015.000,13704,3,GX,1,100,2.594
1576517109.538036,82049.667,13723,3,GX,1,100,-1.526
1576517109.579241,82084.333,13723,3,GX,1,100,-1.862
1576517109.620446,82119.000,13723,3,GX,1,100,-3.265
1576517109.661254,82153.333,13741,3,GX,1,100,-2.136
1576517109.702063,82187.667,13741,3,GX,1,100,-0.397
1576517109.742872,82222.000,13741,3,GX,1,100,-1.068
1576517109.781699,82254.667,13759,3,GX,1,100,2.655
1576517109.820527,82287.333,13759,3,GX,1,100,0.519
1576517109.859355,82320.000,13759,3,GX,1,100,-2.441
1576517109.896994,82351.667,13777,3,GX,1,100,0.214
1576517109.934633,82383.333,13777,3,GX,1,100,-1.617
1576517109.972272,82415.000,13777,3,GX,1,100,-0.732
1576517110.011892,82448.333,13794,3,GX,1,100,0.153
1576517110.051512,82481.667,13794,3,GX,1,100,-1.831
1576517110.091132,82515.000,13794,3,GX,1,100,-0.061
1576517110.130356,82548.000,13812,3,GX,1,100,0.305
1576517110.169580,82581.000,13812,3,GX,1,100,-2.014
1576517110.208803,82614.000,13812,3,GX,1,100,-0.153
1576517110.252781,82651.000,13830,3,GX,1,100,-0.214
1576517110.296760,82688.000,13830,3,GX,1,100,-1.892
1576517110.340738,82725.000,13830,3,GX,1,100,-1.190
1576517110.379565,82757.667,13846,3,GX,1,100,-0.488
1576517110.418393,82790.333,13846,3,GX,1,100,-1.801
1576517110.457221,82823.000,13846,3,GX,1,100,-0.122
1576517110.501199,82860.000,13864,3,GX,1,100,0.061
1576517110.545177,82897.000,13864,3,GX,1,100,-2.136
1576517110.589155,82934.000,13864,3,GX,1,100,-1.160
1576517110.630360,82968.667,13883,3,GX,1,100,1.801
1576517110.671565,83003.333,13883,3,GX,1,100,-0.061
1576517110.712770,83038.000,13883,3,GX,1,100,-1.648
1576517110.754371,83073.000,13901,3,GX,1,100,-1.129
1576517110.795972,83108.000,13901,3,GX,1,100,-0.916
1576517110.837573,83143.000,13901,3,GX,1,100,0.183
1576517110.875212,83174.667,13919,3,GX,1,100,0.854
1576517110.912851,83206.333,13919,3,GX,1,100,-0.732
1576517110.950490,83238.000,13919,3,GX,1,100,-1.526
1576517110.989318,83270.667,13937,3,GX,1,100,1.007
1576517111.028145,83303.333,13937,3,GX,1,100,-0.488
1576517111.066973,83336.000,13937,3,GX,1,100,-0.458
1576517111.107782,83370.333,13955,3,GX,1,100,0.092
1576517111.148590,83404.667,13955,3,GX,1,100,-0.336
1576517111.189399,83439.000,13955,3,GX,1,100,-0.641
1576517111.230604,83473.667,13972,3,GX,1,100,0.061
1576517111.271808,83508.333,13972,3,GX,1,100,0.336
1576517111.313013,83543.000,13972,3,GX,1,100,-0.458
1576517111.355011,83578.333,13990,3,GX,1,100,1.465
1576517111.397008,83613.667,13990,3,GX,1,100,-0.641
1576517111.439005,83649.000,13990,3,GX,1,100,-0.397
1576517111.480210,83683.667,14006,3,GX,1,100,0.824
1576517111.521415,83718.333,14006,3,GX,1,100,-0.854
1576517111.562619,83753.000,14006,3,GX,1,100,-0.519
1576517111.600259,83784.667,14025,3,GX,1,100,0.885
1576517111.637897,83816.333,14025,3,GX,1,100,-1.282
1576517111.675537,83848.000,14025,3,GX,1,100,-0.458
1576517111.715553,83881.667,14043,3,GX,1,100,1.678
1576517111.755569,83915.333,14043,3,GX,1,100,-0.519
1576517111.795585,83949.000,14043,3,GX,1,100,-0.458
1576517111.836790,83983.667,14061,3,GX,1,100,0.824
1576517111.877995,84018.333,14061,3,GX,1,100,-0.732
1576517111.919200,84053.000,14061,3,GX,1,100,-0.702
1576517111.960404,84087.667,14079,3,GX,1,100,0.183
1576517112.001609,84122.333,14079,3,GX,1,100,-0.671
1576517112.042814,84157.000,14079,3,GX,1,100,-0.275
1576517112.082038,84190.000,14097,3,GX,1,100,-0.488
1576517112.121262,84223.000,14097,3,GX,1,100,0.702
1576517112.160486,84256.000,14097,3,GX,1,100,-0.824
1576517112.201690,84290.667,14115,3,GX,1,100,-0.122
1576517112.242895,84325.333,14115,3,GX,1,100,0.366
1576517112.284100,84360.000,14115,3,GX,1,100,-0.977
1576517112.324909,84394.333,14133,3,GX,1,100,-1.068
1576517112.365717,84428.667,14133,3,GX,1,100,-0.244
1576517112.406526,84463.000,14133,3,GX,1,100,0.702
1576517112.447533,84497.500,14150,2,GX,1,100,0.488
1576517112.488539,84532.000,14150,2,GX,1,100,0.702
1576517112.529744,84566.667,14169,3,GX,1,100,1.587
1576517112.570949,84601.333,14169,3,GX,1,100,3.998
1576517112.612154,84636.000,14169,3,GX,1,100,1.373
1576517112.651378,84669.000,14190,5,GX,1,100,-7.202
1576517112.690602,84702.000,14190,5,GX,1,100,-12.848
1576517112.729825,84735.000,14190,5,GX,1,100,-20.294
1576517112.769049,84768.000,14190,5,GX,1,100,-32.562
1576517112.808273,84801.000,14190,5,GX,1,100,-69.824
1576517112.846704,84833.333,14210,3,GX,1,100,-118.347
1576517112.885136,84865.667,14210,3,GX,1,100,-66.925
1576517112.923567,84898.000,14210,3,GX,1,100,-18.280
1576517112.967942,84935.333,14228,3,GX,1,100,4.578
1576517113.012316,84972.667,14228,3,GX,1,100,18.494
1576517113.056691,85010.000,14228,3,GX,1,100,21.881
1576517113.098292,85045.000,14245,3,GX,1,100,17.090
1576517113.139893,85080.000,14245,3,GX,1,100,11.841
1576517113.181494,85115.000,14245,3,GX,1,100,30.609
1576517113.222302,85149.333,14263,3,GX,1,100,44.769
1576517113.263111,85183.667,14263,3,GX,1,100,36.224
1576517113.303920,85218.000,14263,3,GX,1,100,28.503
1576517113.342747,85250.667,14281,3,GX,1,100,24.017
1576517113.381575,85283.333,14281,3,GX,1,100,8.911
1576517113.420402,85316.000,14281,3,GX,1,100,-6.104
1576517113.457249,85347.000,14298,3,GX,1,100,28.015
1576517113.494096,85378.000,14298,3,GX,1,100,42.145
1576517113.530942,85409.000,14298,3,GX,1,100,18.890
1576517113.571751,85443.333,14316,3,GX,1,100,2.747
1576517113.612560,85477.667,14316,3,GX,1,100,23.468
1576517113.653368,85512.000,14316,3,GX,1,100,44.891
1576517113.694573,85546.667,14334,3,GX,1,100,42.969
1576517113.735778,85581.333,14334,3,GX,1,100,19.012
1576517113.776983,85616.000,14334,3,GX,1,100,5.554
1576517113.822150,85654.000,14352,3,GX,1,100,9.766
1576517113.867316,85692.000,14352,3,GX,1,100,4.669
1576517113.912483,85730.000,14352,3,GX,1,100,-16.022
1576517113.950518,85762.000,14370,3,GX,1,100,-33.508
1576517113.988554,85794.000,14370,3,GX,1,100,-20.813
1576517114.026589,85826.000,14370,3,GX,1,100,17.670
1576517114.068586,85861.333,14388,3,GX,1,100,41.504
1576517114.110583,85896.667,14388,3,GX,1,100,34.912
1576517114.152580,85932.000,14388,3,GX,1,100,3.235
1576517114.188635,85962.333,14406,3,GX,1,100,-6.500
1576517114.224689,85992.667,14406,3,GX,1,100,2.930
1576517114.260743,86023.000,14406,3,GX,1,100,3.906
1576517114.300363,86056.333,14423,3,GX,1,100,-1.465
1576517114.339983,86089.667,14423,3,GX,1,100,3.601
1576517114.379603,86123.000,14423,3,GX,1,100,7.324
1576517114.420016,86157.000,14441,3,GX,1,100,3.143
1576517114.460428,86191.000,14441,3,GX,1,100,-1.526
1576517114.500840,86225.000,14441,3,GX,1,100,-3.754
1576517114.540461,86258.333,14460,3,GX,1,100,-2.136
1576517114.580081,86291.667,14460,3,GX,1,100,-0.275
1576517114.619700,86325.000,14460,3,GX,1,100,-0.824
1576517114.659717,86358.667,14478,3,GX,1,100,-3.754
1576517114.699733,86392.333,14478,3,GX,1,100,-1.495
1576517114.739749,86426.000,14478,3,GX,1,100,0.580
1576517114.780954,86460.667,14494,3,GX,1,100,-0.092
1576517114.822159,86495.333,14494,3,GX,1,100,-0.488
1576517114.863364,86530.000,14494,3,GX,1,100,3.113
1576517114.904965,86565.000,14512,3,GX,1,100,4.761
1576517114.946566,86600.000,14512,3,GX,1,100,3.967
1576517114.988167,86635.000,14512,3,GX,1,100,5.463
1576517115.025806,86666.667,14530,3,GX,1,100,5.371
1576517115.063445,86698.333,14530,3,GX,1,100,2.991
1576517115.101084,86730.000,14530,3,GX,1,100,0.092
1576517115.141496,86764.000,14548,3,GX,1,100,-0.122
1576517115.181909,86798.000,14548,3,GX,1,100,0.854
1576517115.222321,86832.000,14548,3,GX,1,100,2.136
1576517115.260752,86864.333,14566,3,GX,1,100,3.784
1576517115.299184,86896.667,14566,3,GX,1,100,3.265
1576517115.337615,86929.000,14566,3,GX,1,100,4.852
1576517115.377235,86962.333,14584,3,GX,1,100,5.615
1576517115.416855,86995.667,14584,3,GX,1,100,8.514
1576517115.456475,87029.000,14584,3,GX,1,100,9.460
1576517115.500454,87066.000,14602,3,GX,1,100,3.632
1576517115.544432,87103.000,14602,3,GX,1,100,1.129
1576517115.588410,87140.000,14602,3,GX,1,100,2.289
1576517115.629615,87174.667,14620,3,GX,1,100,0.671
1576517115.670820,87209.333,14620,3,GX,1,100,-1.862
1576517115.712025,87244.000,14620,3,GX,1,100,0.763
1576517115.751645,87277.333,14638,3,GX,1,100,3.021
1576517115.791265,87310.667,14638,3,GX,1,100,2.899
1576517115.830885,87344.000,14638,3,GX,1,100,3.326
1576517115.869316,87376.333,14656,3,GX,1,100,2.991
1576517115.907748,87408.667,14656,3,GX,1,100,4.791
1576517115.946179,87441.000,14656,3,GX,1,100,4.059
1576517115.984610,87473.333,14672,3,GX,1,100,2.075
1576517116.023042,87505.667,14672,3,GX,1,100,3.998
1576517116.061473,87538.000,14672,3,GX,1,100,6.073
1576517116.101886,87572.000,14690,3,GX,1,100,4.242
1576517116.142298,87606.000,14690,3,GX,1,100,1.892
1576517116.182710,87640.000,14690,3,GX,1,100,1.129
1576517116.223717,87674.500,14708,2,GX,1,100,1.434
1576517116.264724,87709.000,14708,2,GX,1,100,0.031
1576517116.310287,87747.333,14726,3,GX,1,100,-1.038
1576517116.355850,87785.667,14726,3,GX,1,100,-1.862
1576517116.401413,87824.000,14726,3,GX,1,100,0.946
1576517116.439448,87856.000,14744,4,GX,1,100,-0.275
1576517116.477484,87888.000,14744,4,GX,1,100,-1.404
1576517116.515519,87920.000,14744,4,GX,1,100,-1.099
1576517116.553554,87952.000,14744,4,GX,1,100,-0.183
1576517116.592778,87985.000,14763,3,GX,1,100,-0.488
1576517116.632002,88018.000,14763,3,GX,1,100,-1.251
1576517116.671225,88051.000,14763,3,GX,1,100,-0.244
1576517116.712034,88085.333,14781,3,GX,1,100,-0.336
1576517116.752843,88119.667,14781,3,GX,1,100,-1.587
1576517116.793651,88154.000,14781,3,GX,1,100,-1.160
1576517116.834658,88188.500,14798,2,GX,1,100,0.732
1576517116.875665,88223.000,14798,2,GX,1,100,0.000
1576517116.916870,88257.667,14816,3,GX,1,100,-1.221
1576517116.958074,88292.333,14816,3,GX,1,100,-1.404
1576517116.999279,88327.000,14816,3,GX,1,100,-1.892
1576517117.038899,88360.333,14834,3,GX,1,100,-0.702
1576517117.078519,88393.667,14834,3,GX,1,100,-0.214
1576517117.118139,88427.000,14834,3,GX,1,100,-0.366
1576517117.159344,88461.667,14850,3,GX,1,100,-0.641
1576517117.200549,88496.333,14850,3,GX,1,100,-0.275
1576517117.241754,88531.000,14850,3,GX,1,100,-0.610
1576517117.281770,88564.667,14868,3,GX,1,100,-1.831
1576517117.321786,88598.333,14868,3,GX,1,100,-2.716
1576517117.361802,88632.000,14868,3,GX,1,100,-1.160
1576517117.403007,88666.667,14886,3,GX,1,100,0.031
1576517117.444212,88701.333,14886,3,GX,1,100,-0.610
1576517117.485417,88736.000,14886,3,GX,1,100,-1.556
1576517117.526622,88770.667,14905,3,GX,1,100,-0.763
1576517117.567827,88805.333,14905,3,GX,1,100,0.488
1576517117.609031,88840.000,14905,3,GX,1,100,-0.397
1576517117.647067,88872.000,14923,3,GX,1,100,-1.770
1576517117.685102,88904.000,14923,3,GX,1,100,-1.526
1576517117.723137,88936.000,14923,3,GX,1,100,0.732
1576517117.760875,88967.750,14941,4,GX,1,100,-0.031
1576517117.798613,88999.500,14941,4,GX,1,100,0.000
1576517117.836351,89031.250,14941,4,GX,1,100,-0.671
1576517117.874089,89063.000,14941,4,GX,1,100,-0.519
1576517117.921039,89102.500,14959,2,GX,1,100,0.336
1576517117.967989,89142.000,14959,2,GX,1,100,-0.061
1576517118.005132,89173.250,14977,4,GX,1,100,-0.519
1576517118.042276,89204.500,14977,4,GX,1,100,-1.068
1576517118.079420,89235.750,14977,4,GX,1,100,-0.427
1576517118.116564,89267.000,14977,4,GX,1,100,-0.031
1576517118.164108,89307.000,14994,2,GX,1,100,-0.275
1576517118.211652,89347.000,14994,2,GX,1,100,-0.275
1576517118.252460,89381.333,15012,3,GX,1,100,-1.343
1576517118.293269,89415.667,15012,3,GX,1,100,-1.526
1576517118.334078,89450.000,15012,3,GX,1,100,-1.343
1576517118.375679,89485.000,15028,3,GX,1,100,-0.854
1576517118.417280,89520.000,15028,3,GX,1,100,-0.275
1576517118.458881,89555.000,15028,3,GX,1,100,-0.519
1576517118.498105,89588.000,15046,3,GX,1,100,-0.854
1576517118.537328,89621.000,15046,3,GX,1,100,-0.549
1576517118.576552,89654.000,15046,3,GX,1,100,0.275
1576517118.618946,89689.667,15065,3,GX,1,100,0.977
1576517118.661339,89725.333,15065,3,GX,1,100,0.244
1576517118.703733,89761.000,15065,3,GX,1,100,-0.397
1576517118.741530,89792.800,15086,5,GX,1,100,-0.305
1576517118.779328,89824.600,15086,5,GX,1,100,0.977
1576517118.817125,89856.400,15086,5,GX,1,100,1.068
1576517118.854923,89888.200,15086,5,GX,1,100,0.061
1576517118.892720,89920.000,15086,5,GX,1,100,-0.183
1576517118.932736,89953.667,15106,3,GX,1,100,0.610
1576517118.972753,89987.333,15106,3,GX,1,100,-0.305
1576517119.012769,90021.000,15106,3,GX,1,100,-0.305
1576517119.053577,90055.333,15122,3,GX,1,100,-0.580
1576517119.094386,90089.667,15122,3,GX,1,100,-1.160
1576517119.135195,90124.000,15122,3,GX,1,100,-0.214
1576517119.176796,90159.000,15140,3,GX,1,100,-0.031
1576517119.218397,90194.000,15140,3,GX,1,100,-0.793
1576517119.259998,90229.000,15140,3,GX,1,100,-1.129
1576517119.306353,90268.000,15158,2,GX,1,100,-0.641
1576517119.352709,90307.000,15158,2,GX,1,100,0.000
1576517119.390150,90338.500,15176,4,GX,1,100,-0.671
1576517119.427590,90370.000,15176,4,GX,1,100,-0.610
1576517119.465031,90401.500,15176,4,GX,1,100,0.000
1576517119.502472,90433.000,15176,4,GX,1,100,-0.793
1576517119.541300,90465.667,15195,3,GX,1,100,-0.763
1576517119.580127,90498.333,15195,3,GX,1,100,-0.458
1576517119.618955,90531.000,15195,3,GX,1,100,-0.641
1576517119.659764,90565.333,15213,3,GX,1,100,-0.336
1576517119.700572,90599.667,15213,3,GX,1,100,0.580
1576517119.741381,90634.000,15213,3,GX,1,100,-0.458
1576517119.781793,90668.000,15231,3,GX,1,100,-0.519
1576517119.822206,90702.000,15231,3,GX,1,100,0.305
1576517119.862618,90736.000,15231,3,GX,1,100,-0.244
1576517119.902635,90769.667,15248,3,GX,1,100,-1.373
1576517119.942651,90803.333,15248,3,GX,1,100,-1.251
1576517119.982667,90837.000,15248,3,GX,1,100,-0.305
1576517120.020702,90869.000,15266,2,GX,1,100,0.732
1576517120.058738,90901.000,15266,2,GX,1,100,-0.763
1576517120.100338,90936.000,15284,4,GX,1,100,-1.282
1576517120.141939,90971.000,15284,4,GX,1,100,0.366
1576517120.183541,91006.000,15284,4,GX,1,100,0.732
1576517120.225142,91041.000,15284,4,GX,1,100,-0.824
1576517120.266742,91076.000,15301,2,GX,1,100,-0.824
1576517120.308344,91111.000,15301,2,GX,1,100,-0.305
1576517120.349152,91145.333,15318,3,GX,1,100,0.183
1576517120.389961,91179.667,15318,3,GX,1,100,0.092
1576517120.430769,91214.000,15318,3,GX,1,100,-0.580
1576517120.472370,91249.000,15336,3,GX,1,100,0.031
1576517120.513972,91284.000,15336,3,GX,1,100,-0.549
1576517120.555573,91319.000,15336,3,GX,1,100,-1.526
1576517120.594004,91351.333,15355,3,GX,1,100,-0.824
1576517120.632435,91383.667,15355,3,GX,1,100,0.061
1576517120.670867,91416.000,15355,3,GX,1,100,-0.793
1576517120.709496,91448.500,15373,4,GX,1,100,-0.824
1576517120.748126,91481.000,15373,4,GX,1,100,-0.641
1576517120.786755,91513.500,15373,4,GX,1,100,-0.153
1576517120.825385,91546.000,15373,4,GX,1,100,0.061
1576517120.865797,91580.000,15391,2,GX,1,100,-1.556
1576517120.906210,91614.000,15391,2,GX,1,100,-3.021
1576517120.951377,91652.000,15409,3,GX,1,100,-0.336
1576517120.996543,91690.000,15409,3,GX,1,100,1.160
1576517121.041710,91728.000,15409,3,GX,1,100,-0.244
1576517121.082915,91762.667,15427,3,GX,1,100,-0.153
1576517121.124120,91797.333,15427,3,GX,1,100,0.275
1576517121.165325,91832.000,15427,3,GX,1,100,0.427
1576517121.202568,91863.333,15444,3,GX,1,100,0.153
1576517121.239810,91894.667,15444,3,GX,1,100,0.153
1576517121.277053,91926.000,15444,3,GX,1,100,-0.305
1576517121.315881,91958.667,15462,3,GX,1,100,-0.305
1576517121.354708,91991.333,15462,3,GX,1,100,-0.488
1576517121.393536,92024.000,15462,3,GX,1,100,-1.068
1576517121.433552,92057.667,15480,3,GX,1,100,-0.122
1576517121.473568,92091.333,15480,3,GX,1,100,-0.031
1576517121.513585,92125.000,15480,3,GX,1,100,-0.763
1576517121.555186,92160.000,15497,3,GX,1,100,-0.183
1576517121.596787,92195.000,15497,3,GX,1,100,-0.183
1576517121.638388,92230.000,15497,3,GX,1,100,-0.641
1576517121.683555,92268.000,15515,3,GX,1,100,-0.427
1576517121.728721,92306.000,15515,3,GX,1,100,-0.549
1576517121.773888,92344.000,15515,3,GX,1,100,-0.977
1576517121.812320,92376.333,15533,3,GX,1,100,0.214
1576517121.850751,92408.667,15533,3,GX,1,100,-0.336
1576517121.889183,92441.000,15533,3,GX,1,100,-0.397
1576517121.934349,92479.000,15551,3,GX,1,100,-0.183
1576517121.979516,92517.000,15551,3,GX,1,100,-1.251
1576517122.024683,92555.000,15551,3,GX,1,100,-1.740
1576517122.062718,92587.000,15569,3,GX,1,100,-0.885
1576517122.100754,92619.000,15569,3,GX,1,100,-0.488
1576517122.138789,92651.000,15569,3,GX,1,100,-1.160
1576517122.174843,92681.333,15587,3,GX,1,100,-0.641
1576517122.210897,92711.667,15587,3,GX,1,100,0.092
1576517122.246951,92742.000,15587,3,GX,1,100,-0.427
1576517122.287364,92776.000,15605,3,GX,1,100,-1.251
1576517122.327776,92810.000,15605,3,GX,1,100,-0.275
1576517122.368189,92844.000,15605,3,GX,1,100,0.305
1576517122.406620,92876.333,15622,3,GX,1,100,-0.458
1576517122.445051,92908.667,15622,3,GX,1,100,-0.732
1576517122.483483,92941.000,15622,3,GX,1,100,-0.214
1576517122.524688,92975.667,15641,3,GX,1,100,0.031
1576517122.565892,93010.333,15641,3,GX,1,100,-0.610
1576517122.607097,93045.000,15641,3,GX,1,100,-3.082
1576517122.647906,93079.333,15659,3,GX,1,100,-4.608
1576517122.688715,93113.667,15659,3,GX,1,100,-1.740
1576517122.729523,93148.000,15659,3,GX,1,100,1.801
1576517122.771124,93183.000,15675,3,GX,1,100,2.350
1576517122.812725,93218.000,15675,3,GX,1,100,1.221
1576517122.854326,93253.000,15675,3,GX,1,100,0.031
1576517122.892362,93285.000,15693,3,GX,1,100,0.153
1576517122.930397,93317.000,15693,3,GX,1,100,1.770
1576517122.968432,93349.000,15693,3,GX,1,100,2.380
1576517123.010429,93384.333,15711,3,GX,1,100,2.625
1576517123.052427,93419.667,15711,3,GX,1,100,1.068
1576517123.094424,93455.000,15711,3,GX,1,100,0.305
1576517123.134044,93488.333,15729,3,GX,1,100,0.702
1576517123.173664,93521.667,15729,3,GX,1,100,0.732
1576517123.213284,93555.000,15729,3,GX,1,100,-1.740
1576517123.254488,93589.667,15747,3,GX,1,100,-1.556
1576517123.295693,93624.333,15747,3,GX,1,100,1.526
1576517123.336898,93659.000,15747,3,GX,1,100,0.305
1576517123.378499,93694.000,15765,3,GX,1,100,-3.754
1576517123.420100,93729.000,15765,3,GX,1,100,-2.899
1576517123.461701,93764.000,15765,3,GX,1,100,0.061
1576517123.499737,93796.000,15783,3,GX,1,100,-0.336
1576517123.537772,93828.000,15783,3,GX,1,100,-1.648
1576517123.575807,93860.000,15783,3,GX,1,100,-1.709
1576517123.614239,93892.333,15802,3,GX,1,100,-0.977
1576517123.652670,93924.667,15802,3,GX,1,100,-1.007
1576517123.691101,93957.000,15802,3,GX,1,100,0.183
1576517123.730721,93990.333,15819,3,GX,1,100,0.458
1576517123.770341,94023.667,15819,3,GX,1,100,0.000
1576517123.809961,94057.000,15819,3,GX,1,100,-1.373
1576517123.855524,94095.333,15837,3,GX,1,100,-1.129
1576517123.901087,94133.667,15837,3,GX,1,100,0.336
1576517123.946651,94172.000,15837,3,GX,1,100,1.434
1576517123.987657,94206.500,15853,2,GX,1,100,0.519
1576517124.028664,94241.000,15853,2,GX,1,100,-0.427
1576517124.068185,94274.250,15871,4,GX,1,100,-0.824
1576517124.107706,94307.500,15871,4,GX,1,100,-0.336
1576517124.147227,94340.750,15871,4,GX,1,100,-0.763
1576517124.186748,94374.000,15871,4,GX,1,100,0.793
1576517124.224783,94406.000,15889,3,GX,1,100,1.038
1576517124.262818,94438.000,15889,3,GX,1,100,-0.488
1576517124.300853,94470.000,15889,3,GX,1,100,-1.587
1576517124.340870,94503.667,15907,3,GX,1,100,-1.373
1576517124.380886,94537.333,15907,3,GX,1,100,-0.427
1576517124.420902,94571.000,15907,3,GX,1,100,0.092
1576517124.462503,94606.000,15925,3,GX,1,100,0.122
1576517124.504104,94641.000,15925,3,GX,1,100,-1.282
1576517124.545705,94676.000,15925,3,GX,1,100,-1.099
1576517124.586712,94710.500,15944,2,GX,1,100,0.671
1576517124.627719,94745.000,15944,2,GX,1,100,0.092
1576517124.672093,94782.333,15962,3,GX,1,100,-0.793
1576517124.716467,94819.667,15962,3,GX,1,100,-0.641
1576517124.760842,94857.000,15962,3,GX,1,100,-0.092
1576517124.798164,94888.400,15983,5,GX,1,100,0.214
1576517124.835486,94919.800,15983,5,GX,1,100,0.610
1576517124.872808,94951.200,15983,5,GX,1,100,1.526
1576517124.910130,94982.600,15983,5,GX,1,100,1.038
1576517124.947452,95014.000,15983,5,GX,1,100,-0.061
1576517124.987865,95048.000,16003,3,GX,1,100,0.092
1576517125.028277,95082.000,16003,3,GX,1,100,-0.214
1576517125.068690,95116.000,16003,3,GX,1,100,0.153
1576517125.109894,95150.667,16021,3,GX,1,100,0.580
1576517125.151099,95185.333,16021,3,GX,1,100,0.854
1576517125.192304,95220.000,16021,3,GX,1,100,-0.366
1576517125.233113,95254.333,16039,3,GX,1,100,-0.671
1576517125.273921,95288.667,16039,3,GX,1,100,0.549
1576517125.314730,95323.000,16039,3,GX,1,100,0.427
1576517125.353557,95355.667,16057,3,GX,1,100,0.092
1576517125.392385,95388.333,16057,3,GX,1,100,-0.854
1576517125.431213,95421.000,16057,3,GX,1,100,-1.221
1576517125.472418,95455.667,16075,3,GX,1,100,-0.427
1576517125.513622,95490.333,16075,3,GX,1,100,0.305
1576517125.554827,95525.000,16075,3,GX,1,100,-1.099
1576517125.590881,95555.333,16093,3,GX,1,100,-1.831
1576517125.626936,95585.667,16093,3,GX,1,100,-0.854
1576517125.662990,95616.000,16093,3,GX,1,100,-0.610
1576517125.706572,95652.667,16111,3,GX,1,100,-0.244
1576517125.750154,95689.333,16111,3,GX,1,100,1.068
1576517125.793736,95726.000,16111,3,GX,1,100,3.143
1576517125.829394,95756.000,16129,4,GX,1,100,2.197
1576517125.865052,95786.000,16129,4,GX,1,100,-2.380
1576517125.900710,95816.000,16129,4,GX,1,100,-4.517
1576517125.936368,95846.000,16129,4,GX,1,100,-4.913
1576517125.980941,95883.500,16146,2,GX,1,100,-2.533
1576517126.025513,95921.000,16146,2,GX,1,100,-0.885
1576517126.066322,95955.333,16163,3,GX,1,100,-0.824
1576517126.107130,95989.667,16163,3,GX,1,100,-1.068
1576517126.147939,96024.000,16163,3,GX,1,100,-1.770
1576517126.189144,96058.667,16181,3,GX,1,100,-0.854
1576517126.230349,96093.333,16181,3,GX,1,100,0.366
1576517126.271554,96128.000,16181,3,GX,1,100,-0.549
1576517126.312758,96162.667,16199,3,GX,1,100,-1.740
1576517126.353963,96197.333,16199,3,GX,1,100,-0.732
1576517126.395168,96232.000,16199,3,GX,1,100,0.336
1576517126.432807,96263.667,16217,3,GX,1,100,2.441
1576517126.470446,96295.333,16217,3,GX,1,100,4.578
1576517126.508085,96327.000,16217,3,GX,1,100,3.143
1576517126.546913,96359.667,16236,3,GX,1,100,1.678
1576517126.585740,96392.333,16236,3,GX,1,100,0.244
1576517126.624568,96425.000,16236,3,GX,1,100,-2.289
1576517126.665376,96459.333,16254,3,GX,1,100,-2.350
1576517126.706185,96493.667,16254,3,GX,1,100,-1.068
1576517126.746994,96528.000,16254,3,GX,1,100,-1.526
1576517126.792161,96566.000,16272,3,GX,1,100,-1.465
1576517126.837327,96604.000,16272,3,GX,1,100,1.068
1576517126.882494,96642.000,16272,3,GX,1,100,2.594
1576517126.923303,96676.333,16289,3,GX,1,100,-0.061
1576517126.964111,96710.667,16289,3,GX,1,100,-1.221
1576517127.004920,96745.000,16289,3,GX,1,100,-2.197
1576517127.043351,96777.333,16307,3,GX,1,100,-5.280
1576517127.081783,96809.667,16307,3,GX,1,100,-6.195
1576517127.120214,96842.000,16307,3,GX,1,100,-6.134
1576517127.157853,96873.667,16325,3,GX,1,100,-4.913
1576517127.195492,96905.333,16325,3,GX,1,100,-0.122
1576517127.233131,96937.000,16325,3,GX,1,100,1.282
1576517127.273148,96970.667,16341,3,GX,1,100,-2.106
1576517127.313164,97004.333,16341,3,GX,1,100,-3.693
1576517127.353180,97038.000,16341,3,GX,1,100,-5.188
1576517127.394385,97072.667,16359,3,GX,1,100,-4.456
1576517127.435590,97107.333,16359,3,GX,1,100,-4.303
1576517127.476794,97142.000,16359,3,GX,1,100,-3.723
1576517127.517603,97176.333,16378,3,GX,1,100,-1.984
1576517127.558412,97210.667,16378,3,GX,1,100,0.702
1576517127.599221,97245.000,16378,3,GX,1,100,1.923
1576517127.640821,97280.000,16396,3,GX,1,100,1.312
1576517127.682422,97315.000,16396,3,GX,1,100,1.862
1576517127.724024,97350.000,16396,3,GX,1,100,0.183
1576517127.762851,97382.667,16414,3,GX,1,100,-2.045
1576517127.801679,97415.333,16414,3,GX,1,100,-2.472
1576517127.840506,97448.000,16414,3,GX,1,100,1.343
1576517127.881315,97482.333,16432,3,GX,1,100,2.960
1576517127.922124,97516.667,16432,3,GX,1,100,5.341
1576517127.962932,97551.000,16432,3,GX,1,100,0.519
1576517128.004137,97585.667,16450,3,GX,1,100,-3.052
1576517128.045342,97620.333,16450,3,GX,1,100,-3.601
1576517128.086547,97655.000,16450,3,GX,1,100,-1.923
1576517128.127355,97689.333,16467,3,GX,1,100,1.678
1576517128.168164,97723.667,16467,3,GX,1,100,6.592
1576517128.208973,97758.000,16467,3,GX,1,100,5.737
1576517128.247800,97790.667,16485,3,GX,1,100,-3.723
1576517128.286628,97823.333,16485,3,GX,1,100,-6.470
1576517128.325455,97856.000,16485,3,GX,1,100,-2.533
1576517128.367057,97891.000,16503,3,GX,1,100,2.350
1576517128.408658,97926.000,16503,3,GX,1,100,7.263
1576517128.450258,97961.000,16503,3,GX,1,100,8.850
1576517128.491067,97995.333,16519,3,GX,1,100,-3.601
1576517128.531876,98029.667,16519,3,GX,1,100,-11.017
1576517128.572685,98064.000,16519,3,GX,1,100,-4.059
1576517128.613493,98098.333,16538,3,GX,1,100,3.357
1576517128.654302,98132.667,16538,3,GX,1,100,6.653
1576517128.695110,98167.000,16538,3,GX,1,100,2.289
1576517128.736711,98202.000,16556,2,GX,1,100,-5.981
1576517128.778312,98237.000,16556,2,GX,1,100,-7.416
1576517128.817536,98270.000,16574,4,GX,1,100,-1.038
1576517128.856760,98303.000,16574,4,GX,1,100,4.822
1576517128.895984,98336.000,16574,4,GX,1,100,5.066
1576517128.935208,98369.000,16574,4,GX,1,100,-2.502
1576517128.972450,98400.333,16592,3,GX,1,100,-7.874
1576517129.009693,98431.667,16592,3,GX,1,100,-4.700
1576517129.046936,98463.000,16592,3,GX,1,100,1.526
1576517129.086952,98496.667,16610,3,GX,1,100,5.432
1576517129.126969,98530.333,16610,3,GX,1,100,5.981
1576517129.166985,98564.000,16610,3,GX,1,100,-1.312
1576517129.213934,98603.500,16628,2,GX,1,100,-6.805
1576517129.260884,98643.000,16628,2,GX,1,100,-1.678
1576517129.299811,98675.750,16645,4,GX,1,100,3.723
1576517129.338737,98708.500,16645,4,GX,1,100,4.242
1576517129.377664,98741.250,16645,4,GX,1,100,-0.122
1576517129.416591,98774.000,16645,4,GX,1,100,-4.059
1576517129.463541,98813.500,16663,2,GX,1,100,-2.869
1576517129.510490,98853.000,16663,2,GX,1,100,-0.702
1576517129.548922,98885.333,16680,3,GX,1,100,-0.977
1576517129.587353,98917.667,16680,3,GX,1,100,-0.763
1576517129.625785,98950.000,16680,3,GX,1,100,-1.404
1576517129.666593,98984.333,16698,3,GX,1,100,-2.380
1576517129.707402,99018.667,16698,3,GX,1,100,-1.587
1576517129.748210,99053.000,16698,3,GX,1,100,-0.763
1576517129.793377,99091.000,16716,3,GX,1,100,-0.519
1576517129.838544,99129.000,16716,3,GX,1,100,-0.275
1576517129.883711,99167.000,16716,3,GX,1,100,-0.336
1576517129.923331,99200.333,16734,3,GX,1,100,-0.854
1576517129.962951,99233.667,16734,3,GX,1,100,-0.488
1576517130.002571,99267.000,16734,3,GX,1,100,1.526
1576517130.044965,99302.667,16752,3,GX,1,100,2.441
1576517130.087358,99338.333,16752,3,GX,1,100,-0.427
1576517130.129751,99374.000,16752,3,GX,1,100,-2.869
1576517130.167390,99405.667,16770,3,GX,1,100,-1.556
1576517130.205029,99437.333,16770,3,GX,1,100,1.160
1576517130.242668,99469.000,16770,3,GX,1,100,0.702
1576517130.281100,99501.333,16788,3,GX,1,100,0.214
1576517130.319531,99533.667,16788,3,GX,1,100,0.549
1576517130.357963,99566.000,16788,3,GX,1,100,0.549
1576517130.398375,99600.000,16805,3,GX,1,100,0.000
1576517130.438787,99634.000,16805,3,GX,1,100,0.366
1576517130.479200,99668.000,16805,3,GX,1,100,1.007
1576517130.520405,99702.667,16824,3,GX,1,100,0.580
1576517130.561610,99737.333,16824,3,GX,1,100,0.031
1576517130.602814,99772.000,16824,3,GX,1,100,-0.122
1576517130.644812,99807.333,16840,3,GX,1,100,0.488
1576517130.686809,99842.667,16840,3,GX,1,100,1.648
1576517130.728806,99878.000,16840,3,GX,1,100,0.031
1576517130.770803,99913.333,16858,3,GX,1,100,-1.312
1576517130.812801,99948.667,16858,3,GX,1,100,-0.336
1576517130.854798,99984.000,16858,3,GX,1,100,0.366
1576517130.893308,100016.400,16879,5,GX,1,100,-0.153
1576517130.931819,100048.800,16879,5,GX,1,100,-0.427
1576517130.970330,100081.200,16879,5,GX,1,100,-0.061
1576517131.008841,100113.600,16879,5,GX,1,100,-0.885
1576517131.047351,100146.000,16879,5,GX,1,100,-2.167
1576517131.088358,100180.500,16898,2,GX,1,100,-2.319
1576517131.129364,100215.000,16898,2,GX,1,100,-1.648
1576517131.169777,100249.000,16916,3,GX,1,100,0.183
1576517131.210189,100283.000,16916,3,GX,1,100,2.686
1576517131.250602,100317.000,16916,3,GX,1,100,1.282
1576517131.291410,100351.333,16934,3,GX,1,100,-0.427
1576517131.332219,100385.667,16934,3,GX,1,100,1.465
1576517131.373028,100420.000,16934,3,GX,1,100,2.502
1576517131.411063,100452.000,16950,4,GX,1,100,1.770
1576517131.449098,100484.000,16950,4,GX,1,100,1.099
1576517131.487134,100516.000,16950,4,GX,1,100,0.519
1576517131.525169,100548.000,16950,4,GX,1,100,0.641
1576517131.562609,100579.500,16969,2,GX,1,100,0.641
1576517131.600050,100611.000,16969,2,GX,1,100,-1.709
1576517131.644425,100648.333,16987,3,GX,1,100,-3.723
1576517131.688799,100685.667,16987,3,GX,1,100,-2.319
1576517131.733174,100723.000,16987,3,GX,1,100,1.251
1576517131.774775,100758.000,17005,3,GX,1,100,3.418
1576517131.816376,100793.000,17005,3,GX,1,100,2.991
1576517131.857977,100828.000,17005,3,GX,1,100,0.458
1576517131.899578,100863.000,17023,3,GX,1,100,-1.923
1576517131.941179,100898.000,17023,3,GX,1,100,0.671
1576517131.982780,100933.000,17023,3,GX,1,100,8.575
1576517132.021211,100965.333,17041,3,GX,1,100,10.925
1576517132.059643,100997.667,17041,3,GX,1,100,11.139
1576517132.098074,101030.000,17041,3,GX,1,100,11.932
1576517132.135713,101061.667,17059,3,GX,1,100,7.782
1576517132.173352,101093.333,17059,3,GX,1,100,-1.190
1576517132.210991,101125.000,17059,3,GX,1,100,-5.829
1576517132.251404,101159.000,17077,3,GX,1,100,0.366
1576517132.291816,101193.000,17077,3,GX,1,100,2.625
1576517132.332228,101227.000,17077,3,GX,1,100,6.287
1576517132.377395,101265.000,17094,3,GX,1,100,10.620
1576517132.422562,101303.000,17094,3,GX,1,100,8.514
1576517132.467729,101341.000,17094,3,GX,1,100,4.517
1576517132.509330,101376.000,17112,3,GX,1,100,-1.190
1576517132.550931,101411.000,17112,3,GX,1,100,4.486
1576517132.592532,101446.000,17112,3,GX,1,100,8.148
1576517132.630171,101477.667,17129,3,GX,1,100,6.775
1576517132.667810,101509.333,17129,3,GX,1,100,4.944
1576517132.705449,101541.000,17129,3,GX,1,100,2.930
1576517132.743484,101573.000,17147,3,GX,1,100,4.486
1576517132.781520,101605.000,17147,3,GX,1,100,6.134
1576517132.819555,101637.000,17147,3,GX,1,100,3.174
1576517132.859175,101670.333,17165,3,GX,1,100,-4.181
1576517132.898795,101703.667,17165,3,GX,1,100,-3.174
1576517132.938415,101737.000,17165,3,GX,1,100,3.418
1576517132.979620,101771.667,17183,3,GX,1,100,2.472
1576517133.020824,101806.333,17183,3,GX,1,100,-5.096
1576517133.062029,101841.000,17183,3,GX,1,100,-5.768
1576517133.103630,101876.000,17201,3,GX,1,100,-0.458
1576517133.145231,101911.000,17201,3,GX,1,100,2.594
1576517133.186832,101946.000,17201,3,GX,1,100,0.183
1576517133.229226,101981.667,17219,3,GX,1,100,-2.197
1576517133.271619,102017.333,17219,3,GX,1,100,-1.770
1576517133.314013,102053.000,17219,3,GX,1,100,-0.092
1576517133.350859,102084.000,17237,3,GX,1,100,-0.366
1576517133.387706,102115.000,17237,3,GX,1,100,-0.885
1576517133.424553,102146.000,17237,3,GX,1,100,-0.763
1576517133.465361,102180.333,17255,3,GX,1,100,-0.122
1576517133.506170,102214.667,17255,3,GX,1,100,0.580
1576517133.546978,102249.000,17255,3,GX,1,100,0.519
1576517133.583825,102280.000,17273,3,GX,1,100,0.519
1576517133.620672,102311.000,17273,3,GX,1,100,-1.038
1576517133.657518,102342.000,17273,3,GX,1,100,-1.068
1576517133.698723,102376.667,17291,3,GX,1,100,1.892
1576517133.739928,102411.333,17291,3,GX,1,100,1.801
1576517133.781133,102446.000,17291,3,GX,1,100,-1.984
1576517133.819168,102478.000,17309,3,GX,1,100,-1.740
1576517133.857203,102510.000,17309,3,GX,1,100,0.427
1576517133.895238,102542.000,17309,3,GX,1,100,-1.251
1576517133.936047,102576.333,17326,3,GX,1,100,-2.106
1576517133.976856,102610.667,17326,3,GX,1,100,0.214
1576517134.017664,102645.000,17326,3,GX,1,100,1.343
1576517134.059265,102680.000,17343,3,GX,1,100,-0.580
1576517134.100866,102715.000,17343,3,GX,1,100,-1.434
1576517134.142467,102750.000,17343,3,GX,1,100,-2.197
1576517134.184068,102785.000,17361,3,GX,1,100,-3.052
1576517134.225669,102820.000,17361,3,GX,1,100,-3.754
1576517134.267271,102855.000,17361,3,GX,1,100,-1.831
1576517134.305702,102887.333,17379,3,GX,1,100,1.892
1576517134.344133,102919.667,17379,3,GX,1,100,0.946
1576517134.382565,102952.000,17379,3,GX,1,100,-2.319
1576517134.420996,102984.333,17397,3,GX,1,100,-0.732
1576517134.459428,103016.667,17397,3,GX,1,100,2.045
1576517134.497859,103049.000,17397,3,GX,1,100,1.862
1576517134.538668,103083.333,17416,3,GX,1,100,0.031
1576517134.579476,103117.667,17416,3,GX,1,100,-0.671
1576517134.620285,103152.000,17416,3,GX,1,100,-4.059
1576517134.659112,103184.667,17434,3,GX,1,100,-6.592
1576517134.697940,103217.333,17434,3,GX,1,100,-1.099
1576517134.736768,103250.000,17434,3,GX,1,100,2.808
1576517134.781934,103288.000,17452,3,GX,1,100,1.648
1576517134.827101,103326.000,17452,3,GX,1,100,-1.526
1576517134.872268,103364.000,17452,3,GX,1,100,-2.014
1576517134.912681,103398.000,17469,3,GX,1,100,0.214
1576517134.953093,103432.000,17469,3,GX,1,100,0.397
1576517134.993505,103466.000,17469,3,GX,1,100,-1.587
1576517135.035107,103501.000,17487,3,GX,1,100,-1.984
1576517135.076708,103536.000,17487,3,GX,1,100,0.031
1576517135.118309,103571.000,17487,3,GX,1,100,1.160
1576517135.155551,103602.333,17503,3,GX,1,100,-0.397
1576517135.192794,103633.667,17503,3,GX,1,100,-1.678
1576517135.230037,103665.000,17503,3,GX,1,100,-0.916
1576517135.268468,103697.333,17521,3,GX,1,100,0.275
1576517135.306900,103729.667,17521,3,GX,1,100,-2.991
1576517135.345331,103762.000,17521,3,GX,1,100,-7.660
1576517135.386140,103796.333,17539,3,GX,1,100,-3.754
1576517135.426949,103830.667,17539,3,GX,1,100,4.395
1576517135.467757,103865.000,17539,3,GX,1,100,1.740
1576517135.507773,103898.667,17558,3,GX,1,100,-3.754
1576517135.547790,103932.333,17558,3,GX,1,100,-1.678
1576517135.587806,103966.000,17558,3,GX,1,100,1.953
1576517135.632973,104004.000,17576,3,GX,1,100,1.343
1576517135.678139,104042.000,17576,3,GX,1,100,-0.641
1576517135.723306,104080.000,17576,3,GX,1,100,-0.488
1576517135.761342,104112.000,17594,3,GX,1,100,0.427
1576517135.799377,104144.000,17594,3,GX,1,100,-1.678
1576517135.837412,104176.000,17594,3,GX,1,100,-3.052
1576517135.876240,104208.667,17612,3,GX,1,100,0.793
1576517135.915067,104241.333,17612,3,GX,1,100,6.348
1576517135.953895,104274.000,17612,3,GX,1,100,-0.153
1576517135.994307,104308.000,17630,3,GX,1,100,-3.021
1576517136.034720,104342.000,17630,3,GX,1,100,-2.136
1576517136.075132,104376.000,17630,3,GX,1,100,-0.275
1576517136.115941,104410.333,17647,3,GX,1,100,-0.977
1576517136.156749,104444.667,17647,3,GX,1,100,-0.610
1576517136.197558,104479.000,17647,3,GX,1,100,0.763
1576517136.238763,104513.667,17665,3,GX,1,100,0.580
1576517136.279968,104548.333,17665,3,GX,1,100,-0.458
1576517136.321172,104583.000,17665,3,GX,1,100,-0.244
1576517136.361981,104617.333,17683,3,GX,1,100,0.000
1576517136.402790,104651.667,17683,3,GX,1,100,2.502
1576517136.443599,104686.000,17683,3,GX,1,100,7.599
1576517136.482426,104718.667,17699,3,GX,1,100,3.784
1576517136.521254,104751.333,17699,3,GX,1,100,-5.432
1576517136.560081,104784.000,17699,3,GX,1,100,-5.554
1576517136.600097,104817.667,17718,3,GX,1,100,-0.519
1576517136.640114,104851.333,17718,3,GX,1,100,2.991
1576517136.680130,104885.000,17718,3,GX,1,100,1.038
1576517136.721731,104920.000,17736,3,GX,1,100,-4.639
1576517136.763332,104955.000,17736,3,GX,1,100,-2.258
1576517136.804933,104990.000,17736,3,GX,1,100,2.930
1576517136.846138,105024.667,17754,3,GX,1,100,0.977
1576517136.887343,105059.333,17754,3,GX,1,100,-4.669
1576517136.928547,105094.000,17754,3,GX,1,100,-3.845
1576517136.966345,105125.800,17775,5,GX,1,100,1.221
1576517137.004143,105157.600,17775,5,GX,1,100,1.190
1576517137.041940,105189.400,17775,5,GX,1,100,-1.831
1576517137.079737,105221.200,17775,5,GX,1,100,-1.740
1576517137.117535,105253.000,17775,5,GX,1,100,0.061
1576517137.162107,105290.500,17795,2,GX,1,100,0.397
1576517137.206680,105328.000,17795,2,GX,1,100,-0.244
1576517137.247885,105362.667,17811,3,GX,1,100,-0.763
1576517137.289090,105397.333,17811,3,GX,1,100,-1.221
1576517137.330295,105432.000,17811,3,GX,1,100,-0.092
1576517137.371499,105466.667,17829,3,GX,1,100,-0.244
1576517137.412704,105501.333,17829,3,GX,1,100,-0.854
1576517137.453909,105536.000,17829,3,GX,1,100,-0.427
1576517137.495510,105571.000,17848,3,GX,1,100,0.061
1576517137.537111,105606.000,17848,3,GX,1,100,-0.427
1576517137.578712,105641.000,17848,3,GX,1,100,-0.916
1576517137.615559,105672.000,17866,3,GX,1,100,-0.305
1576517137.652405,105703.000,17866,3,GX,1,100,-0.916
1576517137.689252,105734.000,17866,3,GX,1,100,-0.824
1576517137.734023,105771.667,17884,3,GX,1,100,-0.031
1576517137.778793,105809.333,17884,3,GX,1,100,0.092
1576517137.823564,105847.000,17884,3,GX,1,100,-1.373
1576517137.865165,105882.000,17902,3,GX,1,100,-0.458
1576517137.906766,105917.000,17902,3,GX,1,100,-0.580
1576517137.948367,105952.000,17902,3,GX,1,100,-1.038
1576517137.987987,105985.333,17919,3,GX,1,100,-0.671
1576517138.027607,106018.667,17919,3,GX,1,100,-0.671
1576517138.067227,106052.000,17919,3,GX,1,100,-1.282
1576517138.105659,106084.333,17937,3,GX,1,100,-0.244
1576517138.144090,106116.667,17937,3,GX,1,100,0.122
1576517138.182521,106149.000,17937,3,GX,1,100,-0.671
1576517138.220953,106181.333,17955,3,GX,1,100,-0.610
1576517138.259384,106213.667,17955,3,GX,1,100,-0.488
1576517138.297816,106246.000,17955,3,GX,1,100,-0.793
1576517138.339020,106280.667,17971,3,GX,1,100,-0.793
1576517138.380225,106315.333,17971,3,GX,1,100,-0.732
1576517138.421430,106350.000,17971,3,GX,1,100,-0.153
1576517138.466201,106387.667,17989,3,GX,1,100,-0.122
1576517138.510971,106425.333,17989,3,GX,1,100,-0.336
1576517138.555742,106463.000,17989,3,GX,1,100,0.122
1576517138.596154,106497.000,18008,3,GX,1,100,0.153
1576517138.636567,106531.000,18008,3,GX,1,100,-0.549
1576517138.676979,106565.000,18008,3,GX,1,100,-0.854
1576517138.714618,106596.667,18026,3,GX,1,100,-0.977
1576517138.752257,106628.333,18026,3,GX,1,100,-1.190
1576517138.789896,106660.000,18026,3,GX,1,100,-0.366
1576517138.829120,106693.000,18044,3,GX,1,100,-0.702
1576517138.868344,106726.000,18044,3,GX,1,100,-0.916
1576517138.907568,106759.000,18044,3,GX,1,100,-1.038
1576517138.947980,106793.000,18062,3,GX,1,100,-0.977
1576517138.988393,106827.000,18062,3,GX,1,100,-0.763
1576517139.028805,106861.000,18062,3,GX,1,100,-0.580
1576517139.069614,106895.333,18080,3,GX,1,100,-0.336
1576517139.110422,106929.667,18080,3,GX,1,100,-0.427
1576517139.151231,106964.000,18080,3,GX,1,100,-0.488
1576517139.192436,106998.667,18097,3,GX,1,100,-0.458
1576517139.233640,107033.333,18097,3,GX,1,100,-0.916
1576517139.274845,107068.000,18097,3,GX,1,100,-1.251
1576517139.316050,107102.667,18115,3,GX,1,100,-0.580
1576517139.357255,107137.333,18115,3,GX,1,100,0.031
1576517139.398460,107172.000,18115,3,GX,1,100,-1.190
1576517139.437684,107205.000,18133,3,GX,1,100,-2.350
1576517139.476907,107238.000,18133,3,GX,1,100,-1.892
1576517139.516131,107271.000,18133,3,GX,1,100,-2.075
1576517139.557336,107305.667,18150,3,GX,1,100,-5.463
1576517139.598541,107340.333,18150,3,GX,1,100,-7.568
1576517139.639746,107375.000,18150,3,GX,1,100,-7.294
1576517139.681347,107410.000,18168,2,GX,1,100,-4.181
1576517139.722948,107445.000,18168,2,GX,1,100,-3.143
1576517139.764549,107480.000,18186,3,GX,1,100,-7.355
1576517139.806150,107515.000,18186,3,GX,1,100,-8.881
1576517139.847751,107550.000,18186,3,GX,1,100,-5.280
1576517139.885786,107582.000,18204,4,GX,1,100,-4.608
1576517139.923821,107614.000,18204,4,GX,1,100,-4.578
1576517139.961857,107646.000,18204,4,GX,1,100,-3.448
1576517139.999892,107678.000,18204,4,GX,1,100,-2.533
1576517140.038521,107710.500,18222,2,GX,1,100,-1.190
1576517140.077151,107743.000,18222,2,GX,1,100,-0.824
1576517140.121129,107780.000,18240,3,GX,1,100,-2.289
1576517140.165107,107817.000,18240,3,GX,1,100,-2.228
1576517140.209085,107854.000,18240,3,GX,1,100,-0.244
1576517140.250290,107888.667,18258,3,GX,1,100,1.831
1576517140.291495,107923.333,18258,3,GX,1,100,1.831
1576517140.332700,107958.000,18258,3,GX,1,100,0.732
1576517140.373509,107992.333,18275,3,GX,1,100,0.061
1576517140.414317,108026.667,18275,3,GX,1,100,0.519
1576517140.455126,108061.000,18275,3,GX,1,100,-0.671
1576517140.494746,108094.333,18294,3,GX,1,100,-0.580
1576517140.534366,108127.667,18294,3,GX,1,100,0.275
1576517140.573986,108161.000,18294,3,GX,1,100,-1.038
1576517140.610832,108192.000,18312,3,GX,1,100,-1.617
1576517140.647679,108223.000,18312,3,GX,1,100,-1.526
1576517140.684526,108254.000,18312,3,GX,1,100,0.214
1576517140.724938,108288.000,18328,3,GX,1,100,1.587
1576517140.765351,108322.000,18328,3,GX,1,100,1.495
1576517140.805763,108356.000,18328,3,GX,1,100,0.977
1576517140.850137,108393.333,18346,3,GX,1,100,1.251
1576517140.894512,108430.667,18346,3,GX,1,100,1.434
1576517140.938886,108468.000,18346,3,GX,1,100,0.946
1576517140.977318,108500.333,18364,3,GX,1,100,-1.190
1576517141.015749,108532.667,18364,3,GX,1,100,-0.977
1576517141.054181,108565.000,18364,3,GX,1,100,-0.763
1576517141.099347,108603.000,18382,3,GX,1,100,-0.793
1576517141.144514,108641.000,18382,3,GX,1,100,-0.763
1576517141.189681,108679.000,18382,3,GX,1,100,-0.885
1576517141.227320,108710.667,18400,3,GX,1,100,-1.404
1576517141.264959,108742.333,18400,3,GX,1,100,-1.556
1576517141.302598,108774.000,18400,3,GX,1,100,-0.305
1576517141.347369,108811.667,18418,3,GX,1,100,-0.397
1576517141.392139,108849.333,18418,3,GX,1,100,-1.068
1576517141.436910,108887.000,18418,3,GX,1,100,-0.702
1576517141.478511,108922.000,18435,2,GX,1,100,-0.366
1576517141.520112,108957.000,18435,2,GX,1,100,-1.129
1576517141.558742,108989.500,18454,4,GX,1,100,-1.129
1576517141.597371,109022.000,18454,4,GX,1,100,-0.336
1576517141.636001,109054.500,18454,4,GX,1,100,0.519
1576517141.674630,109087.000,18454,4,GX,1,100,0.641
1576517141.713854,109120.000,18472,3,GX,1,100,-1.862
1576517141.753078,109153.000,18472,3,GX,1,100,-1.984
1576517141.792302,109186.000,18472,3,GX,1,100,-0.854
1576517141.832714,109220.000,18488,3,GX,1,100,-0.031
1576517141.873127,109254.000,18488,3,GX,1,100,0.366
1576517141.913539,109288.000,18488,3,GX,1,100,1.068
1576517141.955140,109323.000,18506,3,GX,1,100,0.946
1576517141.996741,109358.000,18506,3,GX,1,100,-0.153
1576517142.038342,109393.000,18506,3,GX,1,100,0.549
1576517142.079151,109427.333,18524,3,GX,1,100,0.519
1576517142.119959,109461.667,18524,3,GX,1,100,0.885
1576517142.160768,109496.000,18524,3,GX,1,100,2.472
1576517142.201775,109530.500,18542,2,GX,1,100,0.580
1576517142.242781,109565.000,18542,2,GX,1,100,-2.594
1576517142.284779,109600.333,18560,3,GX,1,100,-1.007
1576517142.326776,109635.667,18560,3,GX,1,100,2.991
1576517142.368773,109671.000,18560,3,GX,1,100,1.648
1576517142.410770,109706.333,18578,3,GX,1,100,-0.671
1576517142.452767,109741.667,18578,3,GX,1,100,0.366
1576517142.494765,109777.000,18578,3,GX,1,100,2.747
1576517142.529234,109806.000,18597,3,GX,1,100,2.167
1576517142.563704,109835.000,18597,3,GX,1,100,0.854
1576517142.598173,109864.000,18597,3,GX,1,100,0.671
1576517142.641755,109900.667,18614,3,GX,1,100,0.214
1576517142.685337,109937.333,18614,3,GX,1,100,0.397
1576517142.728919,109974.000,18614,3,GX,1,100,-0.092
1576517142.769728,110008.333,18632,3,GX,1,100,-0.671
1576517142.810536,110042.667,18632,3,GX,1,100,-0.214
1576517142.851345,110077.000,18632,3,GX,1,100,-0.031
1576517142.892550,110111.667,18648,3,GX,1,100,-0.916
1576517142.933754,110146.333,18648,3,GX,1,100,-1.434
1576517142.974959,110181.000,18648,3,GX,1,100,-1.160
1576517143.013470,110213.400,18669,5,GX,1,100,-0.214
1576517143.051981,110245.800,18669,5,GX,1,100,-0.458
1576517143.090491,110278.200,18669,5,GX,1,100,-1.617
1576517143.129002,110310.600,18669,5,GX,1,100,-1.038
1576517143.167513,110343.000,18669,5,GX,1,100,-0.610
1576517143.210699,110379.333,18689,3,GX,1,100,-0.946
1576517143.253884,110415.667,18689,3,GX,1,100,-0.793
1576517143.297070,110452.000,18689,3,GX,1,100,-0.305
1576517143.337879,110486.333,18706,3,GX,1,100,-0.854
1576517143.378687,110520.667,18706,3,GX,1,100,-0.275
1576517143.419496,110555.000,18706,3,GX,1,100,0.000
1576517143.460701,110589.667,18724,3,GX,1,100,-0.824
1576517143.501906,110624.333,18724,3,GX,1,100,-0.977
1576517143.543111,110659.000,18724,3,GX,1,100,-1.129
1576517143.584315,110693.667,18741,3,GX,1,100,-1.251
1576517143.625520,110728.333,18741,3,GX,1,100,-1.251
1576517143.666725,110763.000,18741,3,GX,1,100,-1.556
1576517143.704364,110794.667,18759,3,GX,1,100,-0.916
1576517143.742003,110826.333,18759,3,GX,1,100,-0.214
1576517143.779642,110858.000,18759,3,GX,1,100,-0.336
1576517143.818470,110890.667,18777,3,GX,1,100,-1.099
1576517143.857297,110923.333,18777,3,GX,1,100,-1.160
1576517143.896125,110956.000,18777,3,GX,1,100,-0.214
1576517143.936934,110990.333,18795,3,GX,1,100,-0.854
1576517143.977742,111024.667,18795,3,GX,1,100,-1.129
1576517144.018551,111059.000,18795,3,GX,1,100,-0.580
1576517144.060152,111094.000,18813,2,GX,1,100,-0.275
1576517144.101753,111129.000,18813,2,GX,1,100,-0.641
1576517144.146523,111166.667,18831,3,GX,1,100,-0.763
1576517144.191294,111204.333,18831,3,GX,1,100,-1.709
1576517144.236065,111242.000,18831,3,GX,1,100,-1.221
1576517144.274100,111274.000,18849,4,GX,1,100,-1.221
1576517144.312135,111306.000,18849,4,GX,1,100,-1.892
1576517144.350170,111338.000,18849,4,GX,1,100,-1.648
1576517144.388206,111370.000,18849,4,GX,1,100,0.122
1576517144.425448,111401.333,18867,3,GX,1,100,-0.519
1576517144.462691,111432.667,18867,3,GX,1,100,-2.197
1576517144.499934,111464.000,18867,3,GX,1,100,-1.801
1576517144.540743,111498.333,18886,3,GX,1,100,-0.916
1576517144.581551,111532.667,18886,3,GX,1,100,0.092
1576517144.622360,111567.000,18886,3,GX,1,100,0.610
1576517144.663565,111601.667,18903,3,GX,1,100,-0.488
1576517144.704770,111636.333,18903,3,GX,1,100,0.031
1576517144.745975,111671.000,18903,3,GX,1,100,2.808
1576517144.792924,111710.500,18921,2,GX,1,100,2.991
1576517144.839874,111750.000,18921,2,GX,1,100,1.404
1576517144.878305,111782.333,18937,3,GX,1,100,0.977
1576517144.916737,111814.667,18937,3,GX,1,100,0.885
1576517144.955168,111847.000,18937,3,GX,1,100,-1.282
1576517144.992807,111878.667,18955,3,GX,1,100,-0.519
1576517145.030446,111910.333,18955,3,GX,1,100,2.014
1576517145.068085,111942.000,18955,3,GX,1,100,-1.892
1576517145.107309,111975.000,18973,4,GX,1,100,-6.683
1576517145.146533,112008.000,18973,4,GX,1,100,-6.897
1576517145.185757,112041.000,18973,4,GX,1,100,-7.660
1576517145.224981,112074.000,18973,4,GX,1,100,-7.172
1576517145.264799,112107.500,18991,2,GX,1,100,-2.716
1576517145.304617,112141.000,18991,2,GX,1,100,3.174
1576517145.344435,112174.500,19009,4,GX,1,100,5.096
1576517145.384253,112208.000,19009,4,GX,1,100,2.533
1576517145.424071,112241.500,19009,4,GX,1,100,1.770
1576517145.463889,112275.000,19009,4,GX,1,100,6.134
1576517145.503906,112308.667,19028,3,GX,1,100,10.468
1576517145.543922,112342.333,19028,3,GX,1,100,9.460
1576517145.583938,112376.000,19028,3,GX,1,100,3.387
1576517145.624350,112410.000,19046,3,GX,1,100,-0.397
1576517145.664763,112444.000,19046,3,GX,1,100,2.258
1576517145.705175,112478.000,19046,3,GX,1,100,3.082
1576517145.746776,112513.000,19064,3,GX,1,100,-0.366
1576517145.788377,112548.000,19064,3,GX,1,100,-2.838
1576517145.829978,112583.000,19064,3,GX,1,100,-0.824
1576517145.871579,112618.000,19081,2,GX,1,100,-0.031
1576517145.913180,112653.000,19081,2,GX,1,100,-2.441
1576517145.953593,112687.000,19099,3,GX,1,100,-2.808
1576517145.994005,112721.000,19099,3,GX,1,100,0.092
1576517146.034418,112755.000,19099,3,GX,1,100,1.068
1576517146.075226,112789.333,19115,3,GX,1,100,-0.702
1576517146.116035,112823.667,19115,3,GX,1,100,-1.801
1576517146.156843,112858.000,19115,3,GX,1,100,-3.052
1576517146.194582,112889.750,19133,4,GX,1,100,-4.456
1576517146.232320,112921.500,19133,4,GX,1,100,-3.052
1576517146.270058,112953.250,19133,4,GX,1,100,1.495
1576517146.307796,112985.000,19133,4,GX,1,100,3.174
1576517146.347614,113018.500,19151,2,GX,1,100,-0.854
1576517146.387432,113052.000,19151,2,GX,1,100,-3.937
1576517146.431410,113089.000,19169,3,GX,1,100,-1.343
1576517146.475389,113126.000,19169,3,GX,1,100,1.160
1576517146.519367,113163.000,19169,3,GX,1,100,1.129
1576517146.560175,113197.333,19188,3,GX,1,100,0.519
1576517146.600984,113231.667,19188,3,GX,1,100,-0.793
1576517146.641793,113266.000,19188,3,GX,1,100,-1.465
1576517146.682205,113300.000,19206,3,GX,1,100,-1.160
1576517146.722617,113334.000,19206,3,GX,1,100,-0.610
1576517146.763030,113368.000,19206,3,GX,1,100,0.732
1576517146.801065,113400.000,19224,3,GX,1,100,-0.275
1576517146.839100,113432.000,19224,3,GX,1,100,-1.251
1576517146.877136,113464.000,19224,3,GX,1,100,-0.916
1576517146.915765,113496.500,19242,4,GX,1,100,-1.556
1576517146.954395,113529.000,19242,4,GX,1,100,-0.946
1576517146.993024,113561.500,19242,4,GX,1,100,-1.770
1576517147.031654,113594.000,19242,4,GX,1,100,-2.655
1576517147.072066,113628.000,19259,2,GX,1,100,-2.686
1576517147.112478,113662.000,19259,2,GX,1,100,-1.892
1576517147.156853,113699.333,19277,3,GX,1,100,-2.136
1576517147.201227,113736.667,19277,3,GX,1,100,-0.732
1576517147.245602,113774.000,19277,3,GX,1,100,0.702
1576517147.286807,113808.667,19293,3,GX,1,100,-0.641
1576517147.328012,113843.333,19293,3,GX,1,100,-2.838
1576517147.369216,113878.000,19293,3,GX,1,100,-1.648
1576517147.407251,113910.000,19311,3,GX,1,100,0.061
1576517147.445287,113942.000,19311,3,GX,1,100,-0.366
1576517147.483322,113974.000,19311,3,GX,1,100,-0.946
1576517147.521357,114006.000,19330,3,GX,1,100,-0.153
1576517147.559392,114038.000,19330,3,GX,1,100,-0.519
1576517147.597428,114070.000,19330,3,GX,1,100,-0.916
1576517147.637840,114104.000,19348,3,GX,1,100,-0.488
1576517147.678252,114138.000,19348,3,GX,1,100,-0.885
1576517147.718665,114172.000,19348,3,GX,1,100,-0.580
1576517147.760266,114207.000,19366,3,GX,1,100,-1.038
1576517147.801867,114242.000,19366,3,GX,1,100,-1.740
1576517147.843468,114277.000,19366,3,GX,1,100,-0.580
1576517147.888635,114315.000,19384,3,GX,1,100,0.549
1576517147.933802,114353.000,19384,3,GX,1,100,-2.289
1576517147.978968,114391.000,19384,3,GX,1,100,-2.930
1576517148.015419,114421.667,19402,3,GX,1,100,0.092
1576517148.051869,114452.333,19402,3,GX,1,100,1.007
1576517148.088320,114483.000,19402,3,GX,1,100,-0.671
1576517148.127543,114516.000,19420,3,GX,1,100,-1.282
1576517148.166767,114549.000,19420,3,GX,1,100,-0.122
1576517148.205991,114582.000,19420,3,GX,1,100,0.305
1576517148.245611,114615.333,19438,3,GX,1,100,-0.610
1576517148.285231,114648.667,19438,3,GX,1,100,-1.587
1576517148.324851,114682.000,19438,3,GX,1,100,-0.244
1576517148.366056,114716.667,19455,3,GX,1,100,0.854
1576517148.407261,114751.333,19455,3,GX,1,100,-0.427
1576517148.448466,114786.000,19455,3,GX,1,100,-1.038
1576517148.489671,114820.667,19474,3,GX,1,100,-0.610
1576517148.530875,114855.333,19474,3,GX,1,100,0.580
1576517148.572080,114890.000,19474,3,GX,1,100,-0.549
1576517148.613681,114925.000,19492,3,GX,1,100,-1.465
1576517148.655282,114960.000,19492,3,GX,1,100,0.183
1576517148.696883,114995.000,19492,3,GX,1,100,0.641
1576517148.733334,115025.667,19508,3,GX,1,100,0.305
1576517148.769784,115056.333,19508,3,GX,1,100,-0.214
1576517148.806235,115087.000,19508,3,GX,1,100,-0.732
1576517148.847043,115121.333,19526,3,GX,1,100,-0.549
1576517148.887852,115155.667,19526,3,GX,1,100,-0.214
1576517148.928660,115190.000,19526,3,GX,1,100,0.641
1576517148.964715,115220.333,19544,3,GX,1,100,0.763
1576517149.000769,115250.667,19544,3,GX,1,100,0.763
1576517149.036823,115281.000,19544,3,GX,1,100,1.038
1576517149.076998,115314.800,19565,5,GX,1,100,1.495
1576517149.117172,115348.600,19565,5,GX,1,100,1.648
1576517149.157347,115382.400,19565,5,GX,1,100,1.831
1576517149.197522,115416.200,19565,5,GX,1,100,2.899
1576517149.237697,115450.000,19565,5,GX,1,100,5.646
1576517149.278505,115484.333,19584,3,GX,1,100,4.974
1576517149.319314,115518.667,19584,3,GX,1,100,3.448
1576517149.360122,115553.000,19584,3,GX,1,100,3.052
1576517149.400535,115587.000,19602,3,GX,1,100,4.303
1576517149.440947,115621.000,19602,3,GX,1,100,4.974
1576517149.481360,115655.000,19602,3,GX,1,100,3.174
1576517149.522961,115690.000,19619,3,GX,1,100,1.282
1576517149.564562,115725.000,19619,3,GX,1,100,2.106
1576517149.606163,115760.000,19619,3,GX,1,100,2.930
1576517149.644594,115792.333,19637,3,GX,1,100,2.014
1576517149.683026,115824.667,19637,3,GX,1,100,2.258
1576517149.721457,115857.000,19637,3,GX,1,100,4.059
1576517149.759492,115889.000,19655,3,GX,1,100,5.463
1576517149.797528,115921.000,19655,3,GX,1,100,4.974
1576517149.835563,115953.000,19655,3,GX,1,100,4.028
1576517149.877560,115988.333,19673,3,GX,1,100,3.906
1576517149.919557,116023.667,19673,3,GX,1,100,3.632
1576517149.961555,116059.000,19673,3,GX,1,100,2.777
1576517150.000382,116091.667,19691,3,GX,1,100,1.831
1576517150.039210,116124.333,19691,3,GX,1,100,0.854
1576517150.078037,116157.000,19691,3,GX,1,100,1.007
1576517150.122808,116194.667,19709,3,GX,1,100,0.732
1576517150.167578,116232.333,19709,3,GX,1,100,-0.305
1576517150.212349,116270.000,19709,3,GX,1,100,-1.190
1576517150.253158,116304.333,19727,3,GX,1,100,-1.343
1576517150.293967,116338.667,19727,3,GX,1,100,-2.045
1576517150.334775,116373.000,19727,3,GX,1,100,-1.587
1576517150.376376,116408.000,19744,3,GX,1,100,-0.275
1576517150.417977,116443.000,19744,3,GX,1,100,-1.221
1576517150.459578,116478.000,19744,3,GX,1,100,-1.251
1576517150.496821,116509.333,19763,3,GX,1,100,-0.488
1576517150.534064,116540.667,19763,3,GX,1,100,-1.373
1576517150.571307,116572.000,19763,3,GX,1,100,-1.678
1576517150.610134,116604.667,19781,3,GX,1,100,-0.702
1576517150.648962,116637.333,19781,3,GX,1,100,-0.366
1576517150.687789,116670.000,19781,3,GX,1,100,-0.122
1576517150.727806,116703.667,19797,3,GX,1,100,-0.153
1576517150.767822,116737.333,19797,3,GX,1,100,-0.854
1576517150.807838,116771.000,19797,3,GX,1,100,-1.495
1576517150.849043,116805.667,19815,3,GX,1,100,-1.038
1576517150.890248,116840.333,19815,3,GX,1,100,0.122
1576517150.931453,116875.000,19815,3,GX,1,100,0.061
1576517150.978997,116915.000,19833,2,GX,1,100,-0.916
1576517151.026541,116955.000,19833,2,GX,1,100,-1.160
1576517151.065170,116987.500,19851,4,GX,1,100,-0.305
1576517151.103800,117020.000,19851,4,GX,1,100,-0.885
1576517151.142429,117052.500,19851,4,GX,1,100,-3.265
1576517151.181059,117085.000,19851,4,GX,1,100,-1.678
1576517151.218698,117116.667,19869,3,GX,1,100,0.214
1576517151.256337,117148.333,19869,3,GX,1,100,-0.244
1576517151.293976,117180.000,19869,3,GX,1,100,-1.068
1576517151.335181,117214.667,19887,3,GX,1,100,-2.411
1576517151.376385,117249.333,19887,3,GX,1,100,-2.350
1576517151.417590,117284.000,19887,3,GX,1,100,-0.580
1576517151.459191,117319.000,19905,3,GX,1,100,-1.587
1576517151.500792,117354.000,19905,3,GX,1,100,-3.235
1576517151.542393,117389.000,19905,3,GX,1,100,-1.648
1576517151.583994,117424.000,19923,2,GX,1,100,-0.549
1576517151.625595,117459.000,19923,2,GX,1,100,-0.885
1576517151.668781,117495.333,19941,3,GX,1,100,-1.556
1576517151.711967,117531.667,19941,3,GX,1,100,-1.068
1576517151.755153,117568.000,19941,3,GX,1,100,0.488
1576517151.792000,117599.000,19959,3,GX,1,100,0.427
1576517151.828846,117630.000,19959,3,GX,1,100,-0.183
1576517151.865693,117661.000,19959,3,GX,1,100,-1.221
1576517151.906501,117695.333,19975,3,GX,1,100,-1.190
1576517151.947310,117729.667,19975,3,GX,1,100,-1.831
1576517151.988119,117764.000,19975,3,GX,1,100,-2.991
1576517152.028531,117798.000,19993,3,GX,1,100,-1.556
1576517152.068944,117832.000,19993,3,GX,1,100,0.092
1576517152.109356,117866.000,19993,3,GX,1,100,-1.038
1576517152.150165,117900.333,20011,3,GX,1,100,-1.923
1576517152.190973,117934.667,20011,3,GX,1,100,-0.488
1576517152.231782,117969.000,20011,3,GX,1,100,-0.336
1576517152.272987,118003.667,20029,3,GX,1,100,-1.770
1576517152.314191,118038.333,20029,3,GX,1,100,-1.160
1576517152.355396,118073.000,20029,3,GX,1,100,-0.763
1576517152.392243,118104.000,20047,3,GX,1,100,-0.977
1576517152.429090,118135.000,20047,3,GX,1,100,-1.068
1576517152.465936,118166.000,20047,3,GX,1,100,-1.038
1576517152.504863,118198.750,20066,4,GX,1,100,-0.702
1576517152.543789,118231.500,20066,4,GX,1,100,-0.336
1576517152.582716,118264.250,20066,4,GX,1,100,-1.282
1576517152.621643,118297.000,20066,4,GX,1,100,-1.129
1576517152.660470,118329.667,20084,3,GX,1,100,0.061
1576517152.699298,118362.333,20084,3,GX,1,100,0.092
1576517152.738126,118395.000,20084,3,GX,1,100,-0.214
1576517152.784481,118434.000,20102,2,GX,1,100,0.366
1576517152.830837,118473.000,20102,2,GX,1,100,0.549
1576517152.872438,118508.000,20119,3,GX,1,100,-1.160
1576517152.914039,118543.000,20119,3,GX,1,100,-0.580
1576517152.955640,118578.000,20119,3,GX,1,100,0.671
1576517152.996052,118612.000,20137,3,GX,1,100,0.824
1576517153.036464,118646.000,20137,3,GX,1,100,-0.122
1576517153.076877,118680.000,20137,3,GX,1,100,-0.854
1576517153.118082,118714.667,20153,3,GX,1,100,0.336
1576517153.159286,118749.333,20153,3,GX,1,100,0.153
1576517153.200491,118784.000,20153,3,GX,1,100,-1.099
1576517153.242092,118819.000,20171,3,GX,1,100,-0.793
1576517153.283694,118854.000,20171,3,GX,1,100,-1.007
1576517153.325294,118889.000,20171,3,GX,1,100,1.129
1576517153.364122,118921.667,20189,3,GX,1,100,-0.244
1576517153.402950,118954.333,20189,3,GX,1,100,-6.042
1576517153.441777,118987.000,20189,3,GX,1,100,-1.312
1576517153.480209,119019.333,20208,3,GX,1,100,5.341
1576517153.518640,119051.667,20208,3,GX,1,100,1.343
1576517153.557072,119084.000,20208,3,GX,1,100,-4.669
1576517153.595899,119116.667,20226,3,GX,1,100,-3.143
1576517153.634727,119149.333,20226,3,GX,1,100,-0.092
1576517153.673554,119182.000,20226,3,GX,1,100,2.075
1576517153.714759,119216.667,20244,3,GX,1,100,1.709
1576517153.755964,119251.333,20244,3,GX,1,100,-2.014
1576517153.797169,119286.000,20244,3,GX,1,100,-2.502
1576517153.837581,119320.000,20262,3,GX,1,100,0.122
1576517153.877994,119354.000,20262,3,GX,1,100,0.305
1576517153.918406,119388.000,20262,3,GX,1,100,0.214
1576517153.963573,119426.000,20279,3,GX,1,100,0.702
1576517154.008740,119464.000,20279,3,GX,1,100,-1.495
1576517154.053907,119502.000,20279,3,GX,1,100,-0.977
1576517154.091942,119534.000,20297,3,GX,1,100,0.946
1576517154.129977,119566.000,20297,3,GX,1,100,0.214
1576517154.168012,119598.000,20297,3,GX,1,100,-1.709
1576517154.210010,119633.333,20315,3,GX,1,100,-1.251
1576517154.252007,119668.667,20315,3,GX,1,100,-0.488
1576517154.294004,119704.000,20315,3,GX,1,100,0.214
1576517154.332039,119736.000,20331,3,GX,1,100,1.373
1576517154.370075,119768.000,20331,3,GX,1,100,-0.153
1576517154.408110,119800.000,20331,3,GX,1,100,-2.472
1576517154.447730,119833.333,20349,3,GX,1,100,0.671
1576517154.487350,119866.667,20349,3,GX,1,100,2.594
1576517154.526970,119900.000,20349,3,GX,1,100,-0.977
1576517154.568175,119934.667,20368,3,GX,1,100,-2.655
1576517154.609380,119969.333,20368,3,GX,1,100,-1.038
1576517154.650584,120004.000,20368,3,GX,1,100,-0.610
1576517154.690997,120038.000,20386,3,GX,1,100,0.610
1576517154.731409,120072.000,20386,3,GX,1,100,1.099
1576517154.771821,120106.000,20386,3,GX,1,100,0.000
1576517154.814611,120142.000,20404,3,GX,1,100,-1.526
1576517154.857401,120178.000,20404,3,GX,1,100,-1.343
1576517154.900190,120214.000,20404,3,GX,1,100,0.854
1576517154.938622,120246.333,20422,3,GX,1,100,1.984
1576517154.977053,120278.667,20422,3,GX,1,100,1.740
1576517155.015485,120311.000,20422,3,GX,1,100,2.838
1576517155.055501,120344.667,20440,3,GX,1,100,3.632
1576517155.095517,120378.333,20440,3,GX,1,100,0.519
1576517155.135533,120412.000,20440,3,GX,1,100,-4.425
1576517155.176837,120446.750,20461,4,GX,1,100,-5.981
1576517155.218141,120481.500,20461,4,GX,1,100,-1.892
1576517155.259445,120516.250,20461,4,GX,1,100,3.937
1576517155.300749,120551.000,20461,4,GX,1,100,-2.197
1576517155.342746,120586.333,20481,3,GX,1,100,-3.235
1576517155.384743,120621.667,20481,3,GX,1,100,1.068
1576517155.426741,120657.000,20481,3,GX,1,100,-0.061
1576517155.464776,120689.000,20499,3,GX,1,100,-0.031
1576517155.502811,120721.000,20499,3,GX,1,100,-3.815
1576517155.540846,120753.000,20499,3,GX,1,100,-12.207
1576517155.578089,120784.333,20518,3,GX,1,100,-5.798
1576517155.615332,120815.667,20518,3,GX,1,100,3.540
1576517155.652575,120847.000,20518,3,GX,1,100,0.641
1576517155.697345,120884.667,20536,3,GX,1,100,-7.446
1576517155.742116,120922.333,20536,3,GX,1,100,-5.432
1576517155.786887,120960.000,20536,3,GX,1,100,1.740
1576517155.828091,120994.667,20554,3,GX,1,100,3.326
1576517155.869296,121029.333,20554,3,GX,1,100,6.012
1576517155.910501,121064.000,20554,3,GX,1,100,2.319
1576517155.951310,121098.333,20571,3,GX,1,100,-4.669
1576517155.992118,121132.667,20571,3,GX,1,100,-1.160
1576517156.032927,121167.000,20571,3,GX,1,100,5.768
1576517156.072151,121200.000,20589,3,GX,1,100,1.068
1576517156.111375,121233.000,20589,3,GX,1,100,-0.519
1576517156.150598,121266.000,20589,3,GX,1,100,6.622
1576517156.187445,121297.000,20607,3,GX,1,100,4.730
1576517156.224292,121328.000,20607,3,GX,1,100,-3.357
1576517156.261138,121359.000,20607,3,GX,1,100,-7.416
1576517156.302343,121393.667,20623,3,GX,1,100,1.495
1576517156.343548,121428.333,20623,3,GX,1,100,3.601
1576517156.384753,121463.000,20623,3,GX,1,100,2.960
1576517156.422788,121495.000,20641,3,GX,1,100,1.587
1576517156.460823,121527.000,20641,3,GX,1,100,-6.683
1576517156.498858,121559.000,20641,3,GX,1,100,-6.348
1576517156.544421,121597.333,20660,3,GX,1,100,-3.235
1576517156.589984,121635.667,20660,3,GX,1,100,-1.495
1576517156.635547,121674.000,20660,3,GX,1,100,-3.326
1576517156.676752,121708.667,20678,3,GX,1,100,-0.122
1576517156.717957,121743.333,20678,3,GX,1,100,0.397
1576517156.759162,121778.000,20678,3,GX,1,100,-4.425
1576517156.799971,121812.333,20696,3,GX,1,100,-5.737
1576517156.840779,121846.667,20696,3,GX,1,100,-4.395
1576517156.881588,121881.000,20696,3,GX,1,100,-1.709
1576517156.922793,121915.667,20714,3,GX,1,100,1.984
1576517156.963998,121950.333,20714,3,GX,1,100,4.761
1576517157.005202,121985.000,20714,3,GX,1,100,3.815
1576517157.046407,122019.667,20731,3,GX,1,100,-4.822
1576517157.087612,122054.333,20731,3,GX,1,100,-3.571
1576517157.128817,122089.000,20731,3,GX,1,100,5.432
1576517157.166456,122120.667,20749,3,GX,1,100,6.348
1576517157.204095,122152.333,20749,3,GX,1,100,6.409
1576517157.241734,122184.000,20749,3,GX,1,100,1.190
1576517157.281354,122217.333,20767,3,GX,1,100,-1.617
1576517157.320974,122250.667,20767,3,GX,1,100,-0.275
1576517157.360594,122284.000,20767,3,GX,1,100,5.249
1576517157.401006,122318.000,20783,3,GX,1,100,5.493
1576517157.441419,122352.000,20783,3,GX,1,100,0.183
1576517157.481831,122386.000,20783,3,GX,1,100,-3.204
1576517157.523036,122420.667,20802,3,GX,1,100,-1.160
1576517157.564241,122455.333,20802,3,GX,1,100,0.214
1576517157.605446,122490.000,20802,3,GX,1,100,0.397
1576517157.646651,122524.667,20820,3,GX,1,100,0.641
1576517157.687855,122559.333,20820,3,GX,1,100,-0.183
1576517157.729060,122594.000,20820,3,GX,1,100,-0.336
1576517157.769869,122628.333,20838,3,GX,1,100,-0.488
1576517157.810677,122662.667,20838,3,GX,1,100,0.580
1576517157.851486,122697.000,20838,3,GX,1,100,3.235
1576517157.897841,122736.000,20856,2,GX,1,100,4.974
1576517157.944197,122775.000,20856,2,GX,1,100,4.364
1576517157.982232,122807.000,20874,3,GX,1,100,1.465
1576517158.020267,122839.000,20874,3,GX,1,100,0.488
1576517158.058303,122871.000,20874,3,GX,1,100,0.885
1576517158.096635,122903.250,20892,4,GX,1,100,0.214
1576517158.134967,122935.500,20892,4,GX,1,100,-0.702
1576517158.173300,122967.750,20892,4,GX,1,100,0.153
1576517158.211632,123000.000,20892,4,GX,1,100,1.648
1576517158.252044,123034.000,20910,3,GX,1,100,1.801
1576517158.292457,123068.000,20910,3,GX,1,100,2.167
1576517158.332869,123102.000,20910,3,GX,1,100,2.960
1576517158.373876,123136.500,20927,2,GX,1,100,2.533
1576517158.414883,123171.000,20927,2,GX,1,100,1.129
1576517158.456088,123205.667,20944,3,GX,1,100,1.312
1576517158.497293,123240.333,20944,3,GX,1,100,4.364
1576517158.538497,123275.000,20944,3,GX,1,100,6.287
1576517158.580891,123310.667,20962,3,GX,1,100,5.585
1576517158.623284,123346.333,20962,3,GX,1,100,4.791
1576517158.665678,123382.000,20962,3,GX,1,100,3.937
1576517158.702920,123413.333,20980,3,GX,1,100,2.258
1576517158.740163,123444.667,20980,3,GX,1,100,4.700
1576517158.777406,123476.000,20980,3,GX,1,100,11.505
1576517158.817818,123510.000,20998,3,GX,1,100,6.927
1576517158.858231,123544.000,20998,3,GX,1,100,-1.587
1576517158.898643,123578.000,20998,3,GX,1,100,-0.885
1576517158.940244,123613.000,21016,3,GX,1,100,-0.183
1576517158.981845,123648.000,21016,3,GX,1,100,-1.831
1576517159.023446,123683.000,21016,3,GX,1,100,-3.387
1576517159.064651,123717.667,21034,3,GX,1,100,-4.028
1576517159.105856,123752.333,21034,3,GX,1,100,-2.289
1576517159.147061,123787.000,21034,3,GX,1,100,-1.648
1576517159.186285,123820.000,21052,3,GX,1,100,-0.977
1576517159.225508,123853.000,21052,3,GX,1,100,1.251
1576517159.264732,123886.000,21052,3,GX,1,100,0.397
1576517159.301975,123917.333,21070,3,GX,1,100,-2.045
1576517159.339218,123948.667,21070,3,GX,1,100,-0.763
1576517159.376461,123980.000,21070,3,GX,1,100,0.366
1576517159.420439,124017.000,21088,3,GX,1,100,-0.214
1576517159.464417,124054.000,21088,3,GX,1,100,-0.092
1576517159.508395,124091.000,21088,3,GX,1,100,-0.702
1576517159.549600,124125.667,21106,3,GX,1,100,-1.617
1576517159.590805,124160.333,21106,3,GX,1,100,-1.709
1576517159.632010,124195.000,21106,3,GX,1,100,1.129
1576517159.673611,124230.000,21124,3,GX,1,100,0.977
1576517159.715212,124265.000,21124,3,GX,1,100,-1.343
1576517159.756813,124300.000,21124,3,GX,1,100,-1.007
1576517159.795641,124332.667,21140,3,GX,1,100,0.580
1576517159.834468,124365.333,21140,3,GX,1,100,0.061
1576517159.873296,124398.000,21140,3,GX,1,100,-1.190
1576517159.911331,124430.000,21158,3,GX,1,100,-0.854
1576517159.949366,124462.000,21158,3,GX,1,100,-0.641
1576517159.987401,124494.000,21158,3,GX,1,100,-1.251
1576517160.026229,124526.667,21176,3,GX,1,100,-1.190
1576517160.065057,124559.333,21176,3,GX,1,100,-1.099
1576517160.103884,124592.000,21176,3,GX,1,100,-1.343
1576517160.148655,124629.667,21194,3,GX,1,100,-1.526
1576517160.193426,124667.333,21194,3,GX,1,100,-0.488
1576517160.238196,124705.000,21194,3,GX,1,100,-0.336
1576517160.279401,124739.667,21212,3,GX,1,100,-0.824
1576517160.320606,124774.333,21212,3,GX,1,100,-0.610
1576517160.361811,124809.000,21212,3,GX,1,100,-0.793
1576517160.403808,124844.333,21230,3,GX,1,100,-1.160
1576517160.445805,124879.667,21230,3,GX,1,100,-1.617
1576517160.487803,124915.000,21230,3,GX,1,100,-0.397
1576517160.526234,124947.333,21249,3,GX,1,100,0.244
1576517160.564665,124979.667,21249,3,GX,1,100,-0.580
1576517160.603097,125012.000,21249,3,GX,1,100,-0.885
1576517160.644104,125046.500,21266,2,GX,1,100,-0.153
1576517160.685110,125081.000,21266,2,GX,1,100,-0.671
1576517160.730277,125119.000,21284,3,GX,1,100,-0.916
1576517160.775444,125157.000,21284,3,GX,1,100,-0.519
1576517160.820611,125195.000,21284,3,GX,1,100,-1.068
1576517160.859834,125228.000,21300,3,GX,1,100,-0.885
1576517160.899058,125261.000,21300,3,GX,1,100,-0.275
1576517160.938282,125294.000,21300,3,GX,1,100,-0.671
1576517160.976317,125326.000,21318,4,GX,1,100,-1.129
1576517161.014353,125358.000,21318,4,GX,1,100,-0.793
1576517161.052388,125390.000,21318,4,GX,1,100,-0.916
1576517161.090423,125422.000,21318,4,GX,1,100,-1.190
1576517161.131232,125456.333,21336,3,GX,1,100,-0.610
1576517161.172040,125490.667,21336,3,GX,1,100,-0.458
1576517161.212849,125525.000,21336,3,GX,1,100,-0.427
1576517161.254450,125560.000,21357,4,GX,1,100,-0.580
1576517161.296051,125595.000,21357,4,GX,1,100,-0.916
1576517161.337652,125630.000,21357,4,GX,1,100,-0.824
1576517161.379253,125665.000,21357,4,GX,1,100,-0.732
1576517161.420854,125700.000,21377,3,GX,1,100,-0.854
1576517161.462455,125735.000,21377,3,GX,1,100,-1.160
1576517161.504056,125770.000,21377,3,GX,1,100,-1.740
1576517161.545657,125805.000,21394,3,GX,1,100,-1.587
1576517161.587258,125840.000,21394,3,GX,1,100,-0.549
1576517161.628859,125875.000,21394,3,GX,1,100,-0.061
1576517161.672441,125911.667,21412,3,GX,1,100,-0.793
1576517161.716023,125948.333,21412,3,GX,1,100,-1.099
1576517161.759605,125985.000,21412,3,GX,1,100,-0.275
1576517161.797640,126017.000,21430,3,GX,1,100,0.153
1576517161.835676,126049.000,21430,3,GX,1,100,-1.038
1576517161.873711,126081.000,21430,3,GX,1,100,-1.007
1576517161.912539,126113.667,21448,3,GX,1,100,-0.061
1576517161.951366,126146.333,21448,3,GX,1,100,-0.549
1576517161.990194,126179.000,21448,3,GX,1,100,-0.519
1576517162.031399,126213.667,21466,3,GX,1,100,-0.916
1576517162.072603,126248.333,21466,3,GX,1,100,-0.641
1576517162.113808,126283.000,21466,3,GX,1,100,-0.092
1576517162.154617,126317.333,21484,3,GX,1,100,-0.732
1576517162.195426,126351.667,21484,3,GX,1,100,-1.648
1576517162.236234,126386.000,21484,3,GX,1,100,-0.427
1576517162.276250,126419.667,21502,3,GX,1,100,0.092
1576517162.316267,126453.333,21502,3,GX,1,100,-0.610
1576517162.356283,126487.000,21502,3,GX,1,100,-0.580
1576517162.394318,126519.000,21520,3,GX,1,100,-0.214
1576517162.432353,126551.000,21520,3,GX,1,100,-0.122
1576517162.470388,126583.000,21520,3,GX,1,100,-0.732
1576517162.513574,126619.333,21538,3,GX,1,100,-0.702
1576517162.556760,126655.667,21538,3,GX,1,100,0.214
1576517162.599946,126692.000,21538,3,GX,1,100,0.549
1576517162.640754,126726.333,21556,3,GX,1,100,-0.061
1576517162.681563,126760.667,21556,3,GX,1,100,-0.671
1576517162.722372,126795.000,21556,3,GX,1,100,-0.702
1576517162.763379,126829.500,21572,2,GX,1,100,-0.824
1576517162.804385,126864.000,21572,2,GX,1,100,-1.221
1576517162.845590,126898.667,21590,3,GX,1,100,-2.014
1576517162.886795,126933.333,21590,3,GX,1,100,-1.007
1576517162.928000,126968.000,21590,3,GX,1,100,0.214
1576517162.966332,127000.250,21608,4,GX,1,100,-0.336
1576517163.004664,127032.500,21608,4,GX,1,100,-0.763
1576517163.042997,127064.750,21608,4,GX,1,100,0.610
1576517163.081329,127097.000,21608,4,GX,1,100,0.397
1576517163.120157,127129.667,21626,3,GX,1,100,-0.153
1576517163.158984,127162.333,21626,3,GX,1,100,-0.122
1576517163.197812,127195.000,21626,3,GX,1,100,-0.244
1576517163.238225,127229.000,21644,2,GX,1,100,-0.122
1576517163.278637,127263.000,21644,2,GX,1,100,0.366
1576517163.323804,127301.000,21662,3,GX,1,100,0.244
1576517163.368971,127339.000,21662,3,GX,1,100,-0.671
1576517163.414137,127377.000,21662,3,GX,1,100,-0.885
1576517163.455342,127411.667,21680,3,GX,1,100,-1.251
1576517163.496547,127446.333,21680,3,GX,1,100,-2.167
1576517163.537752,127481.000,21680,3,GX,1,100,-3.937
1576517163.575787,127513.000,21698,3,GX,1,100,-3.357
1576517163.613822,127545.000,21698,3,GX,1,100,-0.732
1576517163.651858,127577.000,21698,3,GX,1,100,-0.885
1576517163.690685,127609.667,21716,3,GX,1,100,-2.747
1576517163.729513,127642.333,21716,3,GX,1,100,-3.235
1576517163.768340,127675.000,21716,3,GX,1,100,-3.510
1576517163.808159,127708.500,21734,4,GX,1,100,-4.486
1576517163.847977,127742.000,21734,4,GX,1,100,-5.524
1576517163.887795,127775.500,21734,4,GX,1,100,-4.395
1576517163.927613,127809.000,21734,4,GX,1,100,-1.373
1576517163.969214,127844.000,21750,2,GX,1,100,1.648
1576517164.010815,127879.000,21750,2,GX,1,100,0.793
1576517164.055982,127917.000,21768,3,GX,1,100,-2.655
1576517164.101149,127955.000,21768,3,GX,1,100,-4.120
1576517164.146316,127993.000,21768,3,GX,1,100,-7.812
1576517164.184747,128025.333,21786,3,GX,1,100,-9.369
1576517164.223178,128057.667,21786,3,GX,1,100,-0.885
1576517164.261610,128090.000,21786,3,GX,1,100,11.047
1576517164.307173,128128.333,21804,3,GX,1,100,10.742
1576517164.352736,128166.667,21804,3,GX,1,100,-0.549
1576517164.398299,128205.000,21804,3,GX,1,100,-13.855
1576517164.436334,128237.000,21822,3,GX,1,100,-14.862
1576517164.474369,128269.000,21822,3,GX,1,100,-2.991
1576517164.512404,128301.000,21822,3,GX,1,100,2.991
1576517164.559948,128341.000,21841,2,GX,1,100,-2.258
1576517164.607492,128381.000,21841,2,GX,1,100,-8.301
1576517164.645528,128413.000,21858,4,GX,1,100,-7.141
1576517164.683563,128445.000,21858,4,GX,1,100,1.892
1576517164.721598,128477.000,21858,4,GX,1,100,0.641
1576517164.759634,128509.000,21858,4,GX,1,100,-11.353
1576517164.798065,128541.333,21876,3,GX,1,100,-13.367
1576517164.836496,128573.667,21876,3,GX,1,100,-8.148
1576517164.874928,128606.000,21876,3,GX,1,100,-4.944
1576517164.916925,128641.333,21892,3,GX,1,100,-1.007
1576517164.958922,128676.667,21892,3,GX,1,100,-1.587
1576517165.000919,128712.000,21892,3,GX,1,100,-6.042
1576517165.040143,128745.000,21910,3,GX,1,100,-8.209
1576517165.079367,128778.000,21910,3,GX,1,100,-8.545
1576517165.118591,128811.000,21910,3,GX,1,100,-3.479
1576517165.159796,128845.667,21928,3,GX,1,100,-1.190
1576517165.201000,128880.333,21928,3,GX,1,100,-4.120
1576517165.242205,128915.000,21928,3,GX,1,100,-8.789
1576517165.283212,128949.500,21946,2,GX,1,100,-4.211
1576517165.324219,128984.000,21946,2,GX,1,100,2.655
1576517165.364928,129018.250,21964,4,GX,1,100,6.653
1576517165.405638,129052.500,21964,4,GX,1,100,1.892
1576517165.446347,129086.750,21964,4,GX,1,100,-5.249
1576517165.487057,129121.000,21964,4,GX,1,100,-9.186
1576517165.525489,129153.333,21982,3,GX,1,100,-6.805
1576517165.563920,129185.667,21982,3,GX,1,100,1.770
1576517165.602351,129218.000,21982,3,GX,1,100,6.561
1576517165.645735,129254.500,22001,2,GX,1,100,2.991
1576517165.689119,129291.000,22001,2,GX,1,100,-2.350
1576517165.728739,129324.333,22019,3,GX,1,100,-5.890
1576517165.768359,129357.667,22019,3,GX,1,100,-2.625
1576517165.807979,129391.000,22019,3,GX,1,100,1.526
1576517165.849184,129425.667,22036,3,GX,1,100,0.153
1576517165.890389,129460.333,22036,3,GX,1,100,-1.343
1576517165.931594,129495.000,22036,3,GX,1,100,4.578
1576517165.973195,129530.000,22054,3,GX,1,100,7.507
1576517166.014796,129565.000,22054,3,GX,1,100,9.918
1576517166.056397,129600.000,22054,3,GX,1,100,15.808
1576517166.094432,129632.000,22072,3,GX,1,100,16.815
1576517166.132467,129664.000,22072,3,GX,1,100,15.289
1576517166.170502,129696.000,22072,3,GX,1,100,14.954
1576517166.208835,129728.250,22088,4,GX,1,100,15.717
1576517166.247167,129760.500,22088,4,GX,1,100,16.785
1576517166.285500,129792.750,22088,4,GX,1,100,16.266
1576517166.323832,129825.000,22088,4,GX,1,100,17.120
1576517166.369593,129863.500,22106,2,GX,1,100,16.937
1576517166.415354,129902.000,22106,2,GX,1,100,13.031
1576517166.456955,129937.000,22124,3,GX,1,100,15.411
1576517166.498556,129972.000,22124,3,GX,1,100,15.564
1576517166.540157,130007.000,22124,3,GX,1,100,14.862
1576517166.581758,130042.000,22143,3,GX,1,100,11.169
1576517166.623359,130077.000,22143,3,GX,1,100,9.460
1576517166.664960,130112.000,22143,3,GX,1,100,9.613
1576517166.703392,130144.333,22161,3,GX,1,100,6.958
1576517166.741823,130176.667,22161,3,GX,1,100,5.371
1576517166.780255,130209.000,22161,3,GX,1,100,5.280
1576517166.818290,130241.000,22179,3,GX,1,100,4.913
1576517166.856325,130273.000,22179,3,GX,1,100,2.167
1576517166.894360,130305.000,22179,3,GX,1,100,1.068
1576517166.934376,130338.667,22197,3,GX,1,100,4.883
1576517166.974393,130372.333,22197,3,GX,1,100,4.639
1576517167.014409,130406.000,22197,3,GX,1,100,4.578
1576517167.059972,130444.333,22214,3,GX,1,100,7.690
1576517167.105535,130482.667,22214,3,GX,1,100,12.177
1576517167.151098,130521.000,22214,3,GX,1,100,17.700
1576517167.191907,130555.333,22232,3,GX,1,100,20.508
1576517167.232715,130589.667,22232,3,GX,1,100,25.238
1576517167.273524,130624.000,22232,3,GX,1,100,20.599
1576517167.312035,130656.400,22253,5,GX,1,100,12.421
1576517167.350545,130688.800,22253,5,GX,1,100,4.303
1576517167.389056,130721.200,22253,5,GX,1,100,3.601
1576517167.427567,130753.600,22253,5,GX,1,100,6.683
1576517167.466077,130786.000,22253,5,GX,1,100,6.348
1576517167.505301,130819.000,22274,3,GX,1,100,2.045
1576517167.544525,130852.000,22274,3,GX,1,100,-0.916
1576517167.583749,130885.000,22274,3,GX,1,100,0.458
1576517167.623765,130918.667,22292,3,GX,1,100,3.265
1576517167.663781,130952.333,22292,3,GX,1,100,3.204
1576517167.703797,130986.000,22292,3,GX,1,100,2.625
1576517167.745002,131020.667,22310,3,GX,1,100,0.458
1576517167.786207,131055.333,22310,3,GX,1,100,0.366
1576517167.827412,131090.000,22310,3,GX,1,100,2.625
1576517167.874362,131129.500,22327,2,GX,1,100,2.930
1576517167.921311,131169.000,22327,2,GX,1,100,1.190
1576517167.958752,131200.500,22345,4,GX,1,100,0.031
1576517167.996193,131232.000,22345,4,GX,1,100,0.122
1576517168.033634,131263.500,22345,4,GX,1,100,1.038
1576517168.071075,131295.000,22345,4,GX,1,100,1.556
1576517168.118025,131334.500,22361,2,GX,1,100,1.495
1576517168.164974,131374.000,22361,2,GX,1,100,1.007
1576517168.203010,131406.000,22379,4,GX,1,100,0.336
1576517168.241045,131438.000,22379,4,GX,1,100,0.427
1576517168.279080,131470.000,22379,4,GX,1,100,1.038
1576517168.317115,131502.000,22379,4,GX,1,100,1.312
1576517168.361094,131539.000,22397,2,GX,1,100,0.977
1576517168.405072,131576.000,22397,2,GX,1,100,-0.031
1576517168.442711,131607.667,22415,3,GX,1,100,-0.092
1576517168.480350,131639.333,22415,3,GX,1,100,1.556
1576517168.517989,131671.000,22415,3,GX,1,100,1.190
1576517168.558005,131704.667,22434,3,GX,1,100,0.549
1576517168.598021,131738.333,22434,3,GX,1,100,2.502
1576517168.638038,131772.000,22434,3,GX,1,100,2.502
1576517168.679242,131806.667,22452,3,GX,1,100,0.214
1576517168.720447,131841.333,22452,3,GX,1,100,-1.068
1576517168.761652,131876.000,22452,3,GX,1,100,1.343
1576517168.802857,131910.667,22470,3,GX,1,100,2.136
1576517168.844062,131945.333,22470,3,GX,1,100,-0.366
1576517168.885267,131980.000,22470,3,GX,1,100,-5.798
1576517168.926867,132015.000,22487,3,GX,1,100,-3.021
1576517168.968469,132050.000,22487,3,GX,1,100,-0.366
1576517169.010070,132085.000,22487,3,GX,1,100,-4.700
1576517169.050878,132119.333,22505,3,GX,1,100,-16.876
1576517169.091687,132153.667,22505,3,GX,1,100,-40.344
1576517169.132495,132188.000,22505,3,GX,1,100,-54.626
1576517169.172512,132221.667,22521,3,GX,1,100,-54.352
1576517169.212528,132255.333,22521,3,GX,1,100,-50.720
1576517169.252544,132289.000,22521,3,GX,1,100,-56.885
1576517169.290579,132321.000,22539,3,GX,1,100,-50.720
1576517169.328615,132353.000,22539,3,GX,1,100,-25.818
1576517169.366650,132385.000,22539,3,GX,1,100,-16.571
1576517169.409836,132421.333,22557,3,GX,1,100,-3.143
1576517169.453022,132457.667,22557,3,GX,1,100,7.965
1576517169.496207,132494.000,22557,3,GX,1,100,2.655
1576517169.536224,132527.667,22576,3,GX,1,100,-3.265
1576517169.576240,132561.333,22576,3,GX,1,100,-11.963
1576517169.616256,132595.000,22576,3,GX,1,100,-26.825
1576517169.657857,132630.000,22594,3,GX,1,100,-27.344
1576517169.699458,132665.000,22594,3,GX,1,100,-26.703
1576517169.741059,132700.000,22594,3,GX,1,100,-18.127
1576517169.781471,132734.000,22612,3,GX,1,100,5.005
1576517169.821884,132768.000,22612,3,GX,1,100,13.000
1576517169.862296,132802.000,22612,3,GX,1,100,9.583
1576517169.899935,132833.667,22630,3,GX,1,100,6.195
1576517169.937574,132865.333,22630,3,GX,1,100,5.585
1576517169.975213,132897.000,22630,3,GX,1,100,12.024
1576517170.013645,132929.333,22648,3,GX,1,100,22.736
1576517170.052076,132961.667,22648,3,GX,1,100,30.212
1576517170.090508,132994.000,22648,3,GX,1,100,31.219
1576517170.134486,133031.000,22665,3,GX,1,100,26.398
1576517170.178464,133068.000,22665,3,GX,1,100,27.222
1576517170.222442,133105.000,22665,3,GX,1,100,20.233
1576517170.263647,133139.667,22683,3,GX,1,100,10.315
1576517170.304852,133174.333,22683,3,GX,1,100,6.958
1576517170.346057,133209.000,22683,3,GX,1,100,6.470
1576517170.387262,133243.667,22699,3,GX,1,100,6.897
1576517170.428467,133278.333,22699,3,GX,1,100,-20.386
1576517170.469671,133313.000,22699,3,GX,1,100,-5.402
1576517170.507310,133344.667,22717,3,GX,1,100,6.744
1576517170.544949,133376.333,22717,3,GX,1,100,-0.702
1576517170.582588,133408.000,22717,3,GX,1,100,-9.460
1576517170.621416,133440.667,22736,3,GX,1,100,-23.346
1576517170.660244,133473.333,22736,3,GX,1,100,-30.182
1576517170.699071,133506.000,22736,3,GX,1,100,-19.653
1576517170.739484,133540.000,22754,3,GX,1,100,13.306
1576517170.779896,133574.000,22754,3,GX,1,100,25.513
1576517170.820308,133608.000,22754,3,GX,1,100,18.127
1576517170.865475,133646.000,22772,3,GX,1,100,-2.777
1576517170.910642,133684.000,22772,3,GX,1,100,-13.580
1576517170.955809,133722.000,22772,3,GX,1,100,-11.139
1576517170.996222,133756.000,22790,3,GX,1,100,7.324
1576517171.036634,133790.000,22790,3,GX,1,100,23.407
1576517171.077046,133824.000,22790,3,GX,1,100,21.088
1576517171.115082,133856.000,22808,3,GX,1,100,11.719
1576517171.153117,133888.000,22808,3,GX,1,100,2.289
1576517171.191152,133920.000,22808,3,GX,1,100,4.639
1576517171.228395,133951.333,22826,3,GX,1,100,7.843
1576517171.265638,133982.667,22826,3,GX,1,100,5.859
1576517171.302881,134014.000,22826,3,GX,1,100,0.824
1576517171.343689,134048.333,22844,3,GX,1,100,-7.690
1576517171.384498,134082.667,22844,3,GX,1,100,-4.639
1576517171.425306,134117.000,22844,3,GX,1,100,3.632
1576517171.466511,134151.667,22861,3,GX,1,100,1.343
1576517171.507716,134186.333,22861,3,GX,1,100,0.122
1576517171.548921,134221.000,22861,3,GX,1,100,-3.174
1576517171.589729,134255.333,22880,3,GX,1,100,-4.364
1576517171.630538,134289.667,22880,3,GX,1,100,0.916
1576517171.671347,134324.000,22880,3,GX,1,100,4.211
1576517171.714731,134360.500,22896,2,GX,1,100,2.991
1576517171.758115,134397.000,22896,2,GX,1,100,2.594
1576517171.796150,134429.000,22914,4,GX,1,100,-4.608
1576517171.834185,134461.000,22914,4,GX,1,100,-13.580
1576517171.872220,134493.000,22914,4,GX,1,100,-3.479
1576517171.910255,134525.000,22914,4,GX,1,100,15.564
1576517171.950272,134558.667,22932,3,GX,1,100,19.531
1576517171.990288,134592.333,22932,3,GX,1,100,8.026
1576517172.030304,134626.000,22932,3,GX,1,100,-1.343
1576517172.069132,134658.667,22950,3,GX,1,100,-9.705
1576517172.107959,134691.333,22950,3,GX,1,100,-6.622
1576517172.146787,134724.000,22950,3,GX,1,100,8.392
1576517172.187596,134758.333,22968,3,GX,1,100,11.566
1576517172.228404,134792.667,22968,3,GX,1,100,7.050
1576517172.269213,134827.000,22968,3,GX,1,100,-1.678
1576517172.307644,134859.333,22986,3,GX,1,100,-2.380
1576517172.346076,134891.667,22986,3,GX,1,100,6.500
1576517172.384507,134924.000,22986,3,GX,1,100,10.132
1576517172.425316,134958.333,23004,3,GX,1,100,3.113
1576517172.466124,134992.667,23004,3,GX,1,100,-0.336
1576517172.506933,135027.000,23004,3,GX,1,100,-4.669
1576517172.547345,135061.000,23023,3,GX,1,100,1.221
1576517172.587758,135095.000,23023,3,GX,1,100,7.507
1576517172.628170,135129.000,23023,3,GX,1,100,1.587
1576517172.669771,135164.000,23040,3,GX,1,100,2.380
1576517172.711372,135199.000,23040,3,GX,1,100,-2.106
1576517172.752973,135234.000,23040,3,GX,1,100,-7.172
1576517172.794574,135269.000,23058,3,GX,1,100,-3.815
1576517172.836175,135304.000,23058,3,GX,1,100,3.235
1576517172.877776,135339.000,23058,3,GX,1,100,5.432
1576517172.917396,135372.333,23074,3,GX,1,100,6.226
1576517172.957016,135405.667,23074,3,GX,1,100,3.937
1576517172.996636,135439.000,23074,3,GX,1,100,1.007
1576517173.034276,135470.667,23092,3,GX,1,100,-0.122
1576517173.071914,135502.333,23092,3,GX,1,100,-6.073
1576517173.109554,135534.000,23092,3,GX,1,100,-3.693
1576517173.149966,135568.000,23110,2,GX,1,100,4.181
1576517173.190378,135602.000,23110,2,GX,1,100,3.418
1576517173.234357,135639.000,23128,3,GX,1,100,9.003
1576517173.278335,135676.000,23128,3,GX,1,100,1.099
1576517173.322313,135713.000,23128,3,GX,1,100,-7.080
1576517173.363676,135747.800,23149,5,GX,1,100,-1.770
1576517173.405040,135782.600,23149,5,GX,1,100,1.404
1576517173.446403,135817.400,23149,5,GX,1,100,3.662
1576517173.487766,135852.200,23149,5,GX,1,100,3.510
1576517173.529130,135887.000,23149,5,GX,1,100,3.357
1576517173.567165,135919.000,23170,3,GX,1,100,7.935
1576517173.605200,135951.000,23170,3,GX,1,100,11.292
1576517173.643235,135983.000,23170,3,GX,1,100,7.355
1576517173.680874,136014.667,23186,3,GX,1,100,3.784
1576517173.718513,136046.333,23186,3,GX,1,100,3.967
1576517173.756152,136078.000,23186,3,GX,1,100,3.723
1576517173.796565,136112.000,23204,3,GX,1,100,4.425
1576517173.836977,136146.000,23204,3,GX,1,100,6.012
1576517173.877390,136180.000,23204,3,GX,1,100,11.505
1576517173.921764,136217.333,23222,3,GX,1,100,12.207
1576517173.966138,136254.667,23222,3,GX,1,100,9.033
1576517174.010513,136292.000,23222,3,GX,1,100,4.700
1576517174.051718,136326.667,23240,3,GX,1,100,9.125
1576517174.092922,136361.333,23240,3,GX,1,100,12.329
1576517174.134127,136396.000,23240,3,GX,1,100,9.003
1576517174.173351,136429.000,23258,3,GX,1,100,1.129
1576517174.212575,136462.000,23258,3,GX,1,100,-2.258
1576517174.251799,136495.000,23258,3,GX,1,100,-5.646
1576517174.289438,136526.667,23276,3,GX,1,100,-3.754
1576517174.327077,136558.333,23276,3,GX,1,100,0.641
1576517174.364716,136590.000,23276,3,GX,1,100,1.404
1576517174.404336,136623.333,23294,3,GX,1,100,-2.075
1576517174.443956,136656.667,23294,3,GX,1,100,-4.791
1576517174.483576,136690.000,23294,3,GX,1,100,-1.892
1576517174.524781,136724.667,23313,3,GX,1,100,7.050
1576517174.565986,136759.333,23313,3,GX,1,100,12.329
1576517174.607190,136794.000,23313,3,GX,1,100,7.843
1576517174.652357,136832.000,23330,3,GX,1,100,3.967
1576517174.697524,136870.000,23330,3,GX,1,100,1.678
1576517174.742691,136908.000,23330,3,GX,1,100,-0.946
1576517174.781518,136940.667,23348,3,GX,1,100,-4.791
1576517174.820346,136973.333,23348,3,GX,1,100,-5.737
1576517174.859174,137006.000,23348,3,GX,1,100,-6.409
1576517174.898001,137038.667,23365,3,GX,1,100,-6.683
1576517174.936829,137071.333,23365,3,GX,1,100,-5.341
1576517174.975657,137104.000,23365,3,GX,1,100,-3.082
1576517175.014088,137136.333,23382,3,GX,1,100,4.059
1576517175.052520,137168.667,23382,3,GX,1,100,1.343
1576517175.090951,137201.000,23382,3,GX,1,100,-5.798
1576517175.132156,137235.667,23400,3,GX,1,100,-7.996
1576517175.173361,137270.333,23400,3,GX,1,100,-5.615
1576517175.214565,137305.000,23400,3,GX,1,100,5.859
1576517175.255770,137339.667,23418,3,GX,1,100,9.491
1576517175.296975,137374.333,23418,3,GX,1,100,-1.068
1576517175.338180,137409.000,23418,3,GX,1,100,-9.674
1576517175.377404,137442.000,23436,3,GX,1,100,-2.258
1576517175.416627,137475.000,23436,3,GX,1,100,6.195
1576517175.455851,137508.000,23436,3,GX,1,100,5.798
1576517175.497849,137543.333,23454,3,GX,1,100,1.862
1576517175.539846,137578.667,23454,3,GX,1,100,1.465
1576517175.581843,137614.000,23454,3,GX,1,100,-1.678
1576517175.617501,137644.000,23473,3,GX,1,100,-3.143
1576517175.653159,137674.000,23473,3,GX,1,100,0.580
1576517175.688817,137704.000,23473,3,GX,1,100,2.808
1576517175.729229,137738.000,23491,3,GX,1,100,-0.031
1576517175.769642,137772.000,23491,3,GX,1,100,-6.409
1576517175.810054,137806.000,23491,3,GX,1,100,-4.974
1576517175.846901,137837.000,23509,3,GX,1,100,2.899
1576517175.883748,137868.000,23509,3,GX,1,100,-1.160
1576517175.920594,137899.000,23509,3,GX,1,100,-10.071
1576517175.963384,137935.000,23526,3,GX,1,100,-15.167
1576517176.006173,137971.000,23526,3,GX,1,100,-10.254
1576517176.048963,138007.000,23526,3,GX,1,100,1.190
1576517176.090564,138042.000,23544,3,GX,1,100,1.465
1576517176.132165,138077.000,23544,3,GX,1,100,-2.228
1576517176.173766,138112.000,23544,3,GX,1,100,-9.583
1576517176.211801,138144.000,23562,3,GX,1,100,-9.552
1576517176.249837,138176.000,23562,3,GX,1,100,1.160
1576517176.287872,138208.000,23562,3,GX,1,100,7.660
1576517176.328681,138242.333,23578,3,GX,1,100,5.585
1576517176.369489,138276.667,23578,3,GX,1,100,2.563
1576517176.410298,138311.000,23578,3,GX,1,100,-4.211
1576517176.451503,138345.667,23596,3,GX,1,100,-3.418
1576517176.492707,138380.333,23596,3,GX,1,100,2.228
1576517176.533912,138415.000,23596,3,GX,1,100,2.167
1576517176.575117,138449.667,23615,3,GX,1,100,3.143
1576517176.616322,138484.333,23615,3,GX,1,100,0.946
1576517176.657527,138519.000,23615,3,GX,1,100,-0.061
1576517176.696354,138551.667,23633,3,GX,1,100,3.906
1576517176.735182,138584.333,23633,3,GX,1,100,4.395
1576517176.774009,138617.000,23633,3,GX,1,100,4.639
1576517176.815214,138651.667,23651,3,GX,1,100,7.446
1576517176.856419,138686.333,23651,3,GX,1,100,2.869
1576517176.897624,138721.000,23651,3,GX,1,100,-2.838
1576517176.935659,138753.000,23669,3,GX,1,100,-0.610
1576517176.973695,138785.000,23669,3,GX,1,100,3.693
1576517177.011730,138817.000,23669,3,GX,1,100,1.709
1576517177.050557,138849.667,23687,3,GX,1,100,0.153
1576517177.089385,138882.333,23687,3,GX,1,100,2.991
1576517177.128212,138915.000,23687,3,GX,1,100,5.066
1576517177.173379,138953.000,23704,3,GX,1,100,0.519
1576517177.218546,138991.000,23704,3,GX,1,100,-3.845
1576517177.263713,139029.000,23704,3,GX,1,100,-1.465
1576517177.303729,139062.667,23722,3,GX,1,100,2.533
1576517177.343745,139096.333,23722,3,GX,1,100,1.007
1576517177.383762,139130.000,23722,3,GX,1,100,-0.031
1576517177.426551,139166.000,23738,2,GX,1,100,0.305
1576517177.469341,139202.000,23738,2,GX,1,100,1.862
1576517177.507079,139233.750,23757,4,GX,1,100,3.540
1576517177.544817,139265.500,23757,4,GX,1,100,1.892
1576517177.582555,139297.250,23757,4,GX,1,100,-1.953
1576517177.620293,139329.000,23757,4,GX,1,100,-4.608
1576517177.659121,139361.667,23775,3,GX,1,100,-2.472
1576517177.697948,139394.333,23775,3,GX,1,100,0.824
1576517177.736776,139427.000,23775,3,GX,1,100,0.977
1576517177.777981,139461.667,23793,3,GX,1,100,-1.831
1576517177.819186,139496.333,23793,3,GX,1,100,-4.974
1576517177.860391,139531.000,23793,3,GX,1,100,-2.289
1576517177.900407,139564.667,23811,3,GX,1,100,0.000
1576517177.940423,139598.333,23811,3,GX,1,100,-1.740
1576517177.980439,139632.000,23811,3,GX,1,100,-4.364
1576517178.029172,139673.000,23829,2,GX,1,100,-4.852
1576517178.077904,139714.000,23829,2,GX,1,100,-5.859
1576517178.115940,139746.000,23847,4,GX,1,100,-5.554
1576517178.153975,139778.000,23847,4,GX,1,100,-3.845
1576517178.192010,139810.000,23847,4,GX,1,100,-1.587
1576517178.230045,139842.000,23847,4,GX,1,100,-1.190
1576517178.268477,139874.333,23865,3,GX,1,100,-2.014
1576517178.306908,139906.667,23865,3,GX,1,100,-2.258
1576517178.345340,139939.000,23865,3,GX,1,100,0.061
1576517178.386148,139973.333,23882,3,GX,1,100,0.702
1576517178.426957,140007.667,23882,3,GX,1,100,0.702
1576517178.467766,140042.000,23882,3,GX,1,100,0.214
1576517178.508574,140076.333,23901,3,GX,1,100,-1.160
1576517178.549383,140110.667,23901,3,GX,1,100,-0.366
1576517178.590191,140145.000,23901,3,GX,1,100,0.122
1576517178.632387,140180.500,23917,2,GX,1,100,-1.160
1576517178.674582,140216.000,23917,2,GX,1,100,-0.885
1576517178.716579,140251.333,23935,3,GX,1,100,0.092
1576517178.758577,140286.667,23935,3,GX,1,100,-0.305
1576517178.800574,140322.000,23935,3,GX,1,100,0.854
1576517178.838213,140353.667,23953,3,GX,1,100,2.533
1576517178.875852,140385.333,23953,3,GX,1,100,2.045
1576517178.913491,140417.000,23953,3,GX,1,100,-0.244
1576517178.953507,140450.667,23971,3,GX,1,100,-0.549
1576517178.993523,140484.333,23971,3,GX,1,100,1.801
1576517179.033540,140518.000,23971,3,GX,1,100,2.106
1576517179.074744,140552.667,23989,3,GX,1,100,1.953
1576517179.115949,140587.333,23989,3,GX,1,100,1.038
1576517179.157154,140622.000,23989,3,GX,1,100,-0.610
1576517179.197963,140656.333,24007,3,GX,1,100,-1.007
1576517179.238771,140690.667,24007,3,GX,1,100,0.122
1576517179.279580,140725.000,24007,3,GX,1,100,1.099
1576517179.319596,140758.667,24025,3,GX,1,100,-0.427
1576517179.359612,140792.333,24025,3,GX,1,100,-1.434
1576517179.399629,140826.000,24025,3,GX,1,100,-0.732
1576517179.438139,140858.400,24046,5,GX,1,100,1.312
1576517179.476650,140890.800,24046,5,GX,1,100,1.770
1576517179.515161,140923.200,24046,5,GX,1,100,0.031
1576517179.553671,140955.600,24046,5,GX,1,100,-1.373
1576517179.592182,140988.000,24046,5,GX,1,100,-1.282
1576517179.629821,141019.667,24067,3,GX,1,100,-1.587
1576517179.667460,141051.333,24067,3,GX,1,100,-0.214
1576517179.705099,141083.000,24067,3,GX,1,100,0.946
1576517179.749077,141120.000,24085,3,GX,1,100,0.244
1576517179.793055,141157.000,24085,3,GX,1,100,-0.488
1576517179.837034,141194.000,24085,3,GX,1,100,0.549
1576517179.878635,141229.000,24103,3,GX,1,100,1.190
1576517179.920236,141264.000,24103,3,GX,1,100,-0.153
1576517179.961837,141299.000,24103,3,GX,1,100,-0.641
1576517180.002249,141333.000,24121,3,GX,1,100,-0.671
1576517180.042661,141367.000,24121,3,GX,1,100,-0.916
1576517180.083074,141401.000,24121,3,GX,1,100,-1.678
1576517180.122298,141434.000,24139,3,GX,1,100,-1.312
1576517180.161522,141467.000,24139,3,GX,1,100,0.244
1576517180.200745,141500.000,24139,3,GX,1,100,-2.045
1576517180.244328,141536.667,24156,3,GX,1,100,-8.484
1576517180.287910,141573.333,24156,3,GX,1,100,-8.820
1576517180.331491,141610.000,24156,3,GX,1,100,-2.075
1576517180.372696,141644.667,24174,3,GX,1,100,2.991
1576517180.413901,141679.333,24174,3,GX,1,100,4.333
1576517180.455106,141714.000,24174,3,GX,1,100,0.854
1576517180.496113,141748.500,24190,2,GX,1,100,-3.113
1576517180.537119,141783.000,24190,2,GX,1,100,-5.035
1576517180.576343,141816.000,24209,4,GX,1,100,-6.714
1576517180.615567,141849.000,24209,4,GX,1,100,-14.679
1576517180.654791,141882.000,24209,4,GX,1,100,-32.196
1576517180.694015,141915.000,24209,4,GX,1,100,-61.493
1576517180.731654,141946.667,24227,3,GX,1,100,-84.808
1576517180.769293,141978.333,24227,3,GX,1,100,-60.455
1576517180.806932,142010.000,24227,3,GX,1,100,-32.379
