EpochTimestamp,EmotiBitTimestamp,PacketNumber,DataLength,TypeTag,ProtocolVersion,DataReliability,MX
1576517088.567950,64407.000,10609,10,MX,1,100,-60
1576517088.567950,64407.000,10609,10,MX,1,100,-60
1576517088.567950,64407.000,10609,10,MX,1,100,-61
1576517088.567950,64407.000,10609,10,MX,1,100,-60
1576517088.567950,64407.000,10609,10,MX,1,100,-62
1576517088.567950,64407.000,10609,10,MX,1,100,-61
1576517088.567950,64407.000,10609,10,MX,1,100,-62
1576517088.567950,64407.000,10609,10,MX,1,100,-60
1576517088.567950,64407.000,10609,10,MX,1,100,-61
1576517088.567950,64407.000,10609,10,MX,1,100,-60
1576517088.608362,64441.000,10628,2,MX,1,100,-61
1576517088.648775,64475.000,10628,2,MX,1,100,-60
1576517088.689583,64509.333,10645,3,MX,1,100,-62
1576517088.730392,64543.667,10645,3,MX,1,100,-61
1576517088.771201,64578.000,10645,3,MX,1,100,-61
1576517088.812405,64612.667,10663,3,MX,1,100,-60
1576517088.853610,64647.333,10663,3,MX,1,100,-60
1576517088.894815,64682.000,10663,3,MX,1,100,-60
1576517088.935227,64716.000,10679,3,MX,1,100,-61
1576517088.975640,64750.000,10679,3,MX,1,100,-59
1576517089.016052,64784.000,10679,3,MX,1,100,-60
1576517089.054088,64816.000,10697,3,MX,1,100,-61
1576517089.092123,64848.000,10697,3,MX,1,100,-60
1576517089.130158,64880.000,10697,3,MX,1,100,-60
1576517089.172948,64916.000,10715,3,MX,1,100,-60
1576517089.215737,64952.000,10715,3,MX,1,100,-59
1576517089.258527,64988.000,10715,3,MX,1,100,-61
1576517089.298543,65021.667,10733,3,MX,1,100,-62
1576517089.338559,65055.333,10733,3,MX,1,100,-61
1576517089.378576,65089.000,10733,3,MX,1,100,-58
1576517089.419780,65123.667,10751,3,MX,1,100,-56
1576517089.460985,65158.333,10751,3,MX,1,100,-55
1576517089.502190,65193.000,10751,3,MX,1,100,-53
1576517089.543791,65228.000,10769,3,MX,1,100,-50
1576517089.585392,65263.000,10769,3,MX,1,100,-48
1576517089.626993,65298.000,10769,3,MX,1,100,-47
1576517089.663840,65329.000,10788,3,MX,1,100,-44
1576517089.700686,65360.000,10788,3,MX,1,100,-42
1576517089.737533,65391.000,10788,3,MX,1,100,-41
1576517089.776757,65424.000,10806,3,MX,1,100,-40
1576517089.815981,65457.000,10806,3,MX,1,100,-38
1576517089.855204,65490.000,10806,3,MX,1,100,-37
1576517089.899183,65527.000,10823,3,MX,1,100,-37
1576517089.943161,65564.000,10823,3,MX,1,100,-36
1576517089.987139,65601.000,10823,3,MX,1,100,-37
1576517090.025174,65633.000,10841,3,MX,1,100,-36
1576517090.063210,65665.000,10841,3,MX,1,100,-38
1576517090.101245,65697.000,10841,3,MX,1,100,-40
1576517090.141657,65731.000,10857,2,MX,1,100,-43
1576517090.182070,65765.000,10857,2,MX,1,100,-45
1576517090.223076,65799.500,10875,4,MX,1,100,-49
1576517090.264083,65834.000,10875,4,MX,1,100,-52
1576517090.305090,65868.500,10875,4,MX,1,100,-54
1576517090.346097,65903.000,10875,4,MX,1,100,-56
1576517090.387698,65938.000,10893,3,MX,1,100,-57
1576517090.429299,65973.000,10893,3,MX,1,100,-59
1576517090.470900,66008.000,10893,3,MX,1,100,-59
1576517090.517255,66047.000,10911,2,MX,1,100,-58
1576517090.563611,66086.000,10911,2,MX,1,100,-59
1576517090.602438,66118.667,10930,3,MX,1,100,-59
1576517090.641266,66151.333,10930,3,MX,1,100,-58
1576517090.680093,66184.000,10930,3,MX,1,100,-58
1576517090.725260,66222.000,10948,3,MX,1,100,-56
1576517090.770427,66260.000,10948,3,MX,1,100,-57
1576517090.815594,66298.000,10948,3,MX,1,100,-59
1576517090.854025,66330.333,10965,3,MX,1,100,-59
1576517090.892457,66362.667,10965,3,MX,1,100,-57
1576517090.930888,66395.000,10965,3,MX,1,100,-59
1576517090.972489,66430.000,10983,3,MX,1,100,-58
1576517091.014090,66465.000,10983,3,MX,1,100,-58
1576517091.055691,66500.000,10983,3,MX,1,100,-57
1576517091.097292,66535.000,10999,3,MX,1,100,-58
1576517091.138893,66570.000,10999,3,MX,1,100,-58
1576517091.180494,66605.000,10999,3,MX,1,100,-58
1576517091.218529,66637.000,11017,3,MX,1,100,-58
1576517091.256565,66669.000,11017,3,MX,1,100,-57
1576517091.294600,66701.000,11017,3,MX,1,100,-58
1576517091.334616,66734.667,11035,3,MX,1,100,-58
1576517091.374632,66768.333,11035,3,MX,1,100,-58
1576517091.414649,66802.000,11035,3,MX,1,100,-58
1576517091.455853,66836.667,11053,3,MX,1,100,-59
1576517091.497058,66871.333,11053,3,MX,1,100,-57
1576517091.538263,66906.000,11053,3,MX,1,100,-57
1576517091.579864,66941.000,11071,3,MX,1,100,-57
1576517091.621465,66976.000,11071,3,MX,1,100,-58
1576517091.663066,67011.000,11071,3,MX,1,100,-58
1576517091.704667,67046.000,11090,3,MX,1,100,-58
1576517091.746268,67081.000,11090,3,MX,1,100,-57
1576517091.787869,67116.000,11090,3,MX,1,100,-59
1576517091.829470,67151.000,11107,2,MX,1,100,-58
1576517091.871071,67186.000,11107,2,MX,1,100,-56
1576517091.910295,67219.000,11125,4,MX,1,100,-58
1576517091.949519,67252.000,11125,4,MX,1,100,-57
1576517091.988743,67285.000,11125,4,MX,1,100,-58
1576517092.027966,67318.000,11125,4,MX,1,100,-57
1576517092.066002,67350.000,11143,3,MX,1,100,-58
1576517092.104037,67382.000,11143,3,MX,1,100,-58
1576517092.142072,67414.000,11143,3,MX,1,100,-57
1576517092.182485,67448.000,11160,3,MX,1,100,-58
1576517092.222897,67482.000,11160,3,MX,1,100,-58
1576517092.263309,67516.000,11160,3,MX,1,100,-56
1576517092.310259,67555.500,11177,2,MX,1,100,-55
1576517092.357209,67595.000,11177,2,MX,1,100,-55
1576517092.397225,67628.667,11195,3,MX,1,100,-53
1576517092.437241,67662.333,11195,3,MX,1,100,-53
1576517092.477258,67696.000,11195,3,MX,1,100,-53
1576517092.518066,67730.333,11213,3,MX,1,100,-52
1576517092.558875,67764.667,11213,3,MX,1,100,-52
1576517092.599684,67799.000,11213,3,MX,1,100,-53
1576517092.637422,67830.750,11232,4,MX,1,100,-53
1576517092.675160,67862.500,11232,4,MX,1,100,-52
1576517092.712898,67894.250,11232,4,MX,1,100,-53
1576517092.750636,67926.000,11232,4,MX,1,100,-54
1576517092.789860,67959.000,11250,3,MX,1,100,-53
1576517092.829083,67992.000,11250,3,MX,1,100,-53
1576517092.868307,68025.000,11250,3,MX,1,100,-54
1576517092.910503,68060.500,11268,2,MX,1,100,-53
1576517092.952698,68096.000,11268,2,MX,1,100,-52
1576517092.997072,68133.333,11286,3,MX,1,100,-53
1576517093.041447,68170.667,11286,3,MX,1,100,-52
1576517093.085821,68208.000,11286,3,MX,1,100,-55
1576517093.126234,68242.000,11303,3,MX,1,100,-55
1576517093.166646,68276.000,11303,3,MX,1,100,-56
1576517093.207058,68310.000,11303,3,MX,1,100,-56
1576517093.245094,68342.000,11321,3,MX,1,100,-58
1576517093.283129,68374.000,11321,3,MX,1,100,-59
1576517093.321164,68406.000,11321,3,MX,1,100,-60
1576517093.359992,68438.667,11339,3,MX,1,100,-59
1576517093.398819,68471.333,11339,3,MX,1,100,-59
1576517093.437647,68504.000,11339,3,MX,1,100,-58
1576517093.479248,68539.000,11355,3,MX,1,100,-57
1576517093.520849,68574.000,11355,3,MX,1,100,-58
1576517093.562450,68609.000,11355,3,MX,1,100,-59
1576517093.603259,68643.333,11374,3,MX,1,100,-59
1576517093.644067,68677.667,11374,3,MX,1,100,-58
1576517093.684876,68712.000,11374,3,MX,1,100,-58
1576517093.726081,68746.667,11392,3,MX,1,100,-57
1576517093.767286,68781.333,11392,3,MX,1,100,-59
1576517093.808491,68816.000,11392,3,MX,1,100,-58
1576517093.848903,68850.000,11410,3,MX,1,100,-57
1576517093.889315,68884.000,11410,3,MX,1,100,-58
1576517093.929728,68918.000,11410,3,MX,1,100,-58
1576517093.969744,68951.667,11428,3,MX,1,100,-59
1576517094.009760,68985.333,11428,3,MX,1,100,-59
1576517094.049776,69019.000,11428,3,MX,1,100,-60
1576517094.090189,69053.000,11446,3,MX,1,100,-62
1576517094.130601,69087.000,11446,3,MX,1,100,-63
1576517094.171014,69121.000,11446,3,MX,1,100,-64
1576517094.212219,69155.667,11464,3,MX,1,100,-65
1576517094.253423,69190.333,11464,3,MX,1,100,-64
1576517094.294628,69225.000,11464,3,MX,1,100,-65
1576517094.335833,69259.667,11481,3,MX,1,100,-66
1576517094.377038,69294.333,11481,3,MX,1,100,-65
1576517094.418243,69329.000,11481,3,MX,1,100,-66
1576517094.455327,69360.200,11502,5,MX,1,100,-66
1576517094.492411,69391.400,11502,5,MX,1,100,-66
1576517094.529496,69422.600,11502,5,MX,1,100,-66
1576517094.566580,69453.800,11502,5,MX,1,100,-64
1576517094.603664,69485.000,11502,5,MX,1,100,-63
1576517094.642888,69518.000,11521,3,MX,1,100,-62
1576517094.682112,69551.000,11521,3,MX,1,100,-59
1576517094.721336,69584.000,11521,3,MX,1,100,-55
1576517094.760164,69616.667,11541,3,MX,1,100,-55
1576517094.798991,69649.333,11541,3,MX,1,100,-55
1576517094.837819,69682.000,11541,3,MX,1,100,-54
1576517094.881005,69718.333,11559,3,MX,1,100,-55
1576517094.924190,69754.667,11559,3,MX,1,100,-55
1576517094.967376,69791.000,11559,3,MX,1,100,-55
1576517095.008581,69825.667,11577,3,MX,1,100,-55
1576517095.049786,69860.333,11577,3,MX,1,100,-55
1576517095.090991,69895.000,11577,3,MX,1,100,-55
1576517095.132988,69930.333,11594,3,MX,1,100,-55
1576517095.174985,69965.667,11594,3,MX,1,100,-56
1576517095.216982,70001.000,11594,3,MX,1,100,-56
1576517095.258187,70035.667,11612,3,MX,1,100,-56
1576517095.299392,70070.333,11612,3,MX,1,100,-55
1576517095.340597,70105.000,11612,3,MX,1,100,-54
1576517095.382198,70140.000,11628,2,MX,1,100,-54
1576517095.423799,70175.000,11628,2,MX,1,100,-55
1576517095.462428,70207.500,11646,4,MX,1,100,-54
1576517095.501058,70240.000,11646,4,MX,1,100,-52
1576517095.539687,70272.500,11646,4,MX,1,100,-52
1576517095.578317,70305.000,11646,4,MX,1,100,-54
1576517095.616352,70337.000,11665,3,MX,1,100,-54
1576517095.654387,70369.000,11665,3,MX,1,100,-53
1576517095.692423,70401.000,11665,3,MX,1,100,-55
1576517095.732835,70435.000,11683,3,MX,1,100,-53
1576517095.773247,70469.000,11683,3,MX,1,100,-53
1576517095.813660,70503.000,11683,3,MX,1,100,-54
1576517095.854865,70537.667,11701,3,MX,1,100,-54
1576517095.896070,70572.333,11701,3,MX,1,100,-49
1576517095.937274,70607.000,11701,3,MX,1,100,-45
1576517095.979272,70642.333,11719,3,MX,1,100,-30
1576517096.021269,70677.667,11719,3,MX,1,100,-36
1576517096.063266,70713.000,11719,3,MX,1,100,-41
1576517096.106650,70749.500,11737,2,MX,1,100,-38
1576517096.150034,70786.000,11737,2,MX,1,100,-41
1576517096.188069,70818.000,11755,4,MX,1,100,-44
1576517096.226104,70850.000,11755,4,MX,1,100,-48
1576517096.264140,70882.000,11755,4,MX,1,100,-52
1576517096.302175,70914.000,11755,4,MX,1,100,-54
1576517096.342191,70947.667,11772,3,MX,1,100,-55
1576517096.382207,70981.333,11772,3,MX,1,100,-55
1576517096.422224,71015.000,11772,3,MX,1,100,-53
1576517096.463428,71049.667,11790,3,MX,1,100,-48
1576517096.504633,71084.333,11790,3,MX,1,100,-39
1576517096.545838,71119.000,11790,3,MX,1,100,-26
1576517096.586250,71153.000,11806,2,MX,1,100,-41
1576517096.626663,71187.000,11806,2,MX,1,100,-40
1576517096.667075,71221.000,11825,3,MX,1,100,-46
1576517096.707488,71255.000,11825,3,MX,1,100,-49
1576517096.747900,71289.000,11825,3,MX,1,100,-51
1576517096.789105,71323.667,11843,3,MX,1,100,-57
1576517096.830310,71358.333,11843,3,MX,1,100,-59
1576517096.871515,71393.000,11843,3,MX,1,100,-62
1576517096.911134,71426.333,11861,3,MX,1,100,-65
1576517096.950755,71459.667,11861,3,MX,1,100,-65
1576517096.990375,71493.000,11861,3,MX,1,100,-66
1576517097.031579,71527.667,11879,3,MX,1,100,-63
1576517097.072784,71562.333,11879,3,MX,1,100,-62
1576517097.113989,71597.000,11879,3,MX,1,100,-57
1576517097.155194,71631.667,11897,3,MX,1,100,-49
1576517097.196399,71666.333,11897,3,MX,1,100,-30
1576517097.237604,71701.000,11897,3,MX,1,100,-37
1576517097.278412,71735.333,11915,3,MX,1,100,-47
1576517097.319221,71769.667,11915,3,MX,1,100,-41
1576517097.360029,71804.000,11915,3,MX,1,100,-47
1576517097.397272,71835.333,11933,3,MX,1,100,-51
1576517097.434515,71866.667,11933,3,MX,1,100,-54
1576517097.471758,71898.000,11933,3,MX,1,100,-57
1576517097.510982,71931.000,11951,3,MX,1,100,-60
1576517097.550205,71964.000,11951,3,MX,1,100,-61
1576517097.589429,71997.000,11951,3,MX,1,100,-62
1576517097.634596,72035.000,11969,3,MX,1,100,-63
1576517097.679763,72073.000,11969,3,MX,1,100,-62
1576517097.724930,72111.000,11969,3,MX,1,100,-62
1576517097.766531,72146.000,11986,3,MX,1,100,-63
1576517097.808132,72181.000,11986,3,MX,1,100,-61
1576517097.849733,72216.000,11986,3,MX,1,100,-60
1576517097.889749,72249.667,12003,3,MX,1,100,-61
1576517097.929765,72283.333,12003,3,MX,1,100,-61
1576517097.969782,72317.000,12003,3,MX,1,100,-61
1576517098.007025,72348.333,12021,3,MX,1,100,-62
1576517098.044267,72379.667,12021,3,MX,1,100,-62
1576517098.081510,72411.000,12021,3,MX,1,100,-60
1576517098.119941,72443.333,12039,3,MX,1,100,-62
1576517098.158373,72475.667,12039,3,MX,1,100,-62
1576517098.196804,72508.000,12039,3,MX,1,100,-62
1576517098.238405,72543.000,12057,3,MX,1,100,-62
1576517098.280006,72578.000,12057,3,MX,1,100,-62
1576517098.321607,72613.000,12057,3,MX,1,100,-63
1576517098.362812,72647.667,12075,3,MX,1,100,-63
1576517098.404017,72682.333,12075,3,MX,1,100,-63
1576517098.445222,72717.000,12075,3,MX,1,100,-62
1576517098.489993,72754.667,12093,3,MX,1,100,-63
1576517098.534763,72792.333,12093,3,MX,1,100,-63
1576517098.579534,72830.000,12093,3,MX,1,100,-62
1576517098.615588,72860.333,12112,3,MX,1,100,-62
1576517098.651642,72890.667,12112,3,MX,1,100,-62
1576517098.687696,72921.000,12112,3,MX,1,100,-61
1576517098.731278,72957.667,12129,3,MX,1,100,-62
1576517098.774860,72994.333,12129,3,MX,1,100,-62
1576517098.818443,73031.000,12129,3,MX,1,100,-62
1576517098.856478,73063.000,12147,3,MX,1,100,-63
1576517098.894513,73095.000,12147,3,MX,1,100,-63
1576517098.932548,73127.000,12147,3,MX,1,100,-61
1576517098.972564,73160.667,12165,3,MX,1,100,-62
1576517099.012581,73194.333,12165,3,MX,1,100,-62
1576517099.052597,73228.000,12165,3,MX,1,100,-61
1576517099.091028,73260.333,12182,3,MX,1,100,-61
1576517099.129460,73292.667,12182,3,MX,1,100,-62
1576517099.167891,73325.000,12182,3,MX,1,100,-62
1576517099.207511,73358.333,12199,3,MX,1,100,-62
1576517099.247131,73391.667,12199,3,MX,1,100,-61
1576517099.286751,73425.000,12199,3,MX,1,100,-62
1576517099.327956,73459.667,12217,3,MX,1,100,-61
1576517099.369161,73494.333,12217,3,MX,1,100,-62
1576517099.410366,73529.000,12217,3,MX,1,100,-62
1576517099.451967,73564.000,12235,3,MX,1,100,-62
1576517099.493568,73599.000,12235,3,MX,1,100,-61
1576517099.535169,73634.000,12235,3,MX,1,100,-62
1576517099.575581,73668.000,12253,3,MX,1,100,-62
1576517099.615993,73702.000,12253,3,MX,1,100,-61
1576517099.656406,73736.000,12253,3,MX,1,100,-62
1576517099.694045,73767.667,12272,3,MX,1,100,-61
1576517099.731684,73799.333,12272,3,MX,1,100,-63
1576517099.769323,73831.000,12272,3,MX,1,100,-62
1576517099.812509,73867.333,12290,3,MX,1,100,-63
1576517099.855695,73903.667,12290,3,MX,1,100,-61
1576517099.898880,73940.000,12290,3,MX,1,100,-61
1576517099.939293,73974.000,12308,3,MX,1,100,-61
1576517099.979705,74008.000,12308,3,MX,1,100,-63
1576517100.020118,74042.000,12308,3,MX,1,100,-62
1576517100.061323,74076.667,12325,3,MX,1,100,-60
1576517100.102527,74111.333,12325,3,MX,1,100,-62
1576517100.143732,74146.000,12325,3,MX,1,100,-63
1576517100.183352,74179.333,12343,3,MX,1,100,-62
1576517100.222972,74212.667,12343,3,MX,1,100,-61
1576517100.262592,74246.000,12343,3,MX,1,100,-61
1576517100.301024,74278.333,12360,3,MX,1,100,-61
1576517100.339455,74310.667,12360,3,MX,1,100,-62
1576517100.377887,74343.000,12360,3,MX,1,100,-62
1576517100.416318,74375.333,12377,3,MX,1,100,-61
1576517100.454750,74407.667,12377,3,MX,1,100,-62
1576517100.493181,74440.000,12377,3,MX,1,100,-60
1576517100.533593,74474.000,12398,4,MX,1,100,-61
1576517100.574006,74508.000,12398,4,MX,1,100,-62
1576517100.614418,74542.000,12398,4,MX,1,100,-61
1576517100.654831,74576.000,12398,4,MX,1,100,-62
1576517100.699997,74614.000,12418,3,MX,1,100,-61
1576517100.745164,74652.000,12418,3,MX,1,100,-60
1576517100.790331,74690.000,12418,3,MX,1,100,-61
1576517100.830744,74724.000,12436,3,MX,1,100,-62
1576517100.871156,74758.000,12436,3,MX,1,100,-62
1576517100.911568,74792.000,12436,3,MX,1,100,-61
1576517100.949604,74824.000,12454,3,MX,1,100,-62
1576517100.987639,74856.000,12454,3,MX,1,100,-60
1576517101.025674,74888.000,12454,3,MX,1,100,-60
1576517101.064898,74921.000,12470,3,MX,1,100,-62
1576517101.104122,74954.000,12470,3,MX,1,100,-60
1576517101.143346,74987.000,12470,3,MX,1,100,-62
1576517101.184154,75021.333,12488,3,MX,1,100,-62
1576517101.224963,75055.667,12488,3,MX,1,100,-62
1576517101.265771,75090.000,12488,3,MX,1,100,-60
1576517101.306976,75124.667,12506,3,MX,1,100,-62
1576517101.348181,75159.333,12506,3,MX,1,100,-62
1576517101.389386,75194.000,12506,3,MX,1,100,-62
1576517101.433364,75231.000,12524,3,MX,1,100,-63
1576517101.477342,75268.000,12524,3,MX,1,100,-61
1576517101.521321,75305.000,12524,3,MX,1,100,-62
1576517101.559356,75337.000,12542,3,MX,1,100,-63
1576517101.597391,75369.000,12542,3,MX,1,100,-60
1576517101.635426,75401.000,12542,3,MX,1,100,-62
1576517101.674254,75433.667,12561,3,MX,1,100,-61
1576517101.713081,75466.333,12561,3,MX,1,100,-62
1576517101.751909,75499.000,12561,3,MX,1,100,-61
1576517101.793510,75534.000,12579,3,MX,1,100,-61
1576517101.835111,75569.000,12579,3,MX,1,100,-62
1576517101.876712,75604.000,12579,3,MX,1,100,-62
1576517101.917521,75638.333,12596,3,MX,1,100,-62
1576517101.958329,75672.667,12596,3,MX,1,100,-61
1576517101.999138,75707.000,12596,3,MX,1,100,-62
1576517102.039154,75740.667,12614,3,MX,1,100,-60
1576517102.079170,75774.333,12614,3,MX,1,100,-62
1576517102.119187,75808.000,12614,3,MX,1,100,-62
1576517102.157618,75840.333,12632,3,MX,1,100,-61
1576517102.196049,75872.667,12632,3,MX,1,100,-61
1576517102.234481,75905.000,12632,3,MX,1,100,-61
1576517102.275686,75939.667,12650,3,MX,1,100,-61
1576517102.316891,75974.333,12650,3,MX,1,100,-61
1576517102.358095,76009.000,12650,3,MX,1,100,-62
1576517102.396131,76041.000,12666,3,MX,1,100,-60
1576517102.434166,76073.000,12666,3,MX,1,100,-61
1576517102.472201,76105.000,12666,3,MX,1,100,-62
1576517102.515387,76141.333,12684,3,MX,1,100,-62
1576517102.558573,76177.667,12684,3,MX,1,100,-62
1576517102.601759,76214.000,12684,3,MX,1,100,-61
1576517102.637813,76244.333,12703,3,MX,1,100,-62
1576517102.673867,76274.667,12703,3,MX,1,100,-62
1576517102.709921,76305.000,12703,3,MX,1,100,-62
1576517102.751126,76339.667,12721,3,MX,1,100,-61
1576517102.792331,76374.333,12721,3,MX,1,100,-59
1576517102.833536,76409.000,12721,3,MX,1,100,-61
1576517102.877910,76446.333,12739,3,MX,1,100,-63
1576517102.922285,76483.667,12739,3,MX,1,100,-60
1576517102.966659,76521.000,12739,3,MX,1,100,-61
1576517103.008260,76556.000,12757,3,MX,1,100,-62
1576517103.049861,76591.000,12757,3,MX,1,100,-62
1576517103.091462,76626.000,12757,3,MX,1,100,-60
1576517103.131082,76659.333,12774,3,MX,1,100,-62
1576517103.170702,76692.667,12774,3,MX,1,100,-62
1576517103.210322,76726.000,12774,3,MX,1,100,-62
1576517103.247961,76757.667,12792,3,MX,1,100,-62
1576517103.285600,76789.333,12792,3,MX,1,100,-61
1576517103.323239,76821.000,12792,3,MX,1,100,-60
1576517103.363256,76854.667,12810,3,MX,1,100,-62
1576517103.403272,76888.333,12810,3,MX,1,100,-61
1576517103.443288,76922.000,12810,3,MX,1,100,-61
1576517103.484097,76956.333,12826,3,MX,1,100,-62
1576517103.524905,76990.667,12826,3,MX,1,100,-61
1576517103.565714,77025.000,12826,3,MX,1,100,-60
1576517103.607315,77060.000,12845,3,MX,1,100,-61
1576517103.648916,77095.000,12845,3,MX,1,100,-60
1576517103.690517,77130.000,12845,3,MX,1,100,-60
1576517103.737467,77169.500,12863,2,MX,1,100,-63
1576517103.784416,77209.000,12863,2,MX,1,100,-63
1576517103.821857,77240.500,12881,4,MX,1,100,-65
1576517103.859298,77272.000,12881,4,MX,1,100,-67
1576517103.896739,77303.500,12881,4,MX,1,100,-68
1576517103.934180,77335.000,12881,4,MX,1,100,-66
1576517103.973008,77367.667,12899,3,MX,1,100,-66
1576517104.011835,77400.333,12899,3,MX,1,100,-66
1576517104.050663,77433.000,12899,3,MX,1,100,-66
1576517104.091471,77467.333,12917,3,MX,1,100,-65
1576517104.132280,77501.667,12917,3,MX,1,100,-65
1576517104.173089,77536.000,12917,3,MX,1,100,-65
1576517104.213897,77570.333,12935,3,MX,1,100,-64
1576517104.254706,77604.667,12935,3,MX,1,100,-63
1576517104.295515,77639.000,12935,3,MX,1,100,-63
1576517104.337710,77674.500,12952,2,MX,1,100,-63
1576517104.379905,77710.000,12952,2,MX,1,100,-64
1576517104.417148,77741.333,12970,3,MX,1,100,-65
1576517104.454391,77772.667,12970,3,MX,1,100,-65
1576517104.491634,77804.000,12970,3,MX,1,100,-65
1576517104.532938,77838.750,12988,4,MX,1,100,-67
1576517104.574241,77873.500,12988,4,MX,1,100,-67
1576517104.615545,77908.250,12988,4,MX,1,100,-65
1576517104.656849,77943.000,12988,4,MX,1,100,-66
1576517104.697856,77977.500,13005,2,MX,1,100,-66
1576517104.738863,78012.000,13005,2,MX,1,100,-67
1576517104.779671,78046.333,13023,3,MX,1,100,-66
1576517104.820480,78080.667,13023,3,MX,1,100,-66
1576517104.861289,78115.000,13023,3,MX,1,100,-66
1576517104.902493,78149.667,13041,3,MX,1,100,-66
1576517104.943698,78184.333,13041,3,MX,1,100,-65
1576517104.984903,78219.000,13041,3,MX,1,100,-63
1576517105.023731,78251.667,13059,3,MX,1,100,-65
1576517105.062558,78284.333,13059,3,MX,1,100,-66
1576517105.101386,78317.000,13059,3,MX,1,100,-66
1576517105.139718,78349.250,13077,4,MX,1,100,-66
1576517105.178051,78381.500,13077,4,MX,1,100,-66
1576517105.216383,78413.750,13077,4,MX,1,100,-66
1576517105.254715,78446.000,13077,4,MX,1,100,-67
1576517105.295128,78480.000,13095,2,MX,1,100,-67
1576517105.335540,78514.000,13095,2,MX,1,100,-68
1576517105.380707,78552.000,13113,3,MX,1,100,-68
1576517105.425874,78590.000,13113,3,MX,1,100,-69
1576517105.471041,78628.000,13113,3,MX,1,100,-69
1576517105.512246,78662.667,13130,3,MX,1,100,-69
1576517105.553450,78697.333,13130,3,MX,1,100,-69
1576517105.594655,78732.000,13130,3,MX,1,100,-69
1576517105.631898,78763.333,13149,3,MX,1,100,-68
1576517105.669141,78794.667,13149,3,MX,1,100,-69
1576517105.706384,78826.000,13149,3,MX,1,100,-69
1576517105.745211,78858.667,13167,3,MX,1,100,-69
1576517105.784039,78891.333,13167,3,MX,1,100,-69
1576517105.822867,78924.000,13167,3,MX,1,100,-70
1576517105.862090,78957.000,13185,3,MX,1,100,-70
1576517105.901314,78990.000,13185,3,MX,1,100,-70
1576517105.940538,79023.000,13185,3,MX,1,100,-71
1576517105.982139,79058.000,13201,3,MX,1,100,-69
1576517106.023740,79093.000,13201,3,MX,1,100,-69
1576517106.065341,79128.000,13201,3,MX,1,100,-71
1576517106.110508,79166.000,13219,3,MX,1,100,-71
1576517106.155675,79204.000,13219,3,MX,1,100,-71
1576517106.200842,79242.000,13219,3,MX,1,100,-70
1576517106.239273,79274.333,13237,3,MX,1,100,-70
1576517106.277704,79306.667,13237,3,MX,1,100,-69
1576517106.316136,79339.000,13237,3,MX,1,100,-71
1576517106.357737,79374.000,13255,3,MX,1,100,-71
1576517106.399338,79409.000,13255,3,MX,1,100,-70
1576517106.440939,79444.000,13255,3,MX,1,100,-69
1576517106.482144,79478.667,13273,3,MX,1,100,-70
1576517106.523349,79513.333,13273,3,MX,1,100,-70
1576517106.564553,79548.000,13273,3,MX,1,100,-70
1576517106.603064,79580.400,13293,5,MX,1,100,-69
1576517106.641575,79612.800,13293,5,MX,1,100,-71
1576517106.680085,79645.200,13293,5,MX,1,100,-70
1576517106.718596,79677.600,13293,5,MX,1,100,-71
1576517106.757107,79710.000,13293,5,MX,1,100,-70
1576517106.794746,79741.667,13315,3,MX,1,100,-71
1576517106.832385,79773.333,13315,3,MX,1,100,-69
1576517106.870024,79805.000,13315,3,MX,1,100,-70
1576517106.910436,79839.000,13333,3,MX,1,100,-70
1576517106.950849,79873.000,13333,3,MX,1,100,-70
1576517106.991261,79907.000,13333,3,MX,1,100,-69
1576517107.032466,79941.667,13351,3,MX,1,100,-69
1576517107.073671,79976.333,13351,3,MX,1,100,-70
1576517107.114876,80011.000,13351,3,MX,1,100,-70
1576517107.156476,80046.000,13369,3,MX,1,100,-70
1576517107.198078,80081.000,13369,3,MX,1,100,-71
1576517107.239679,80116.000,13369,3,MX,1,100,-70
1576517107.278903,80149.000,13387,3,MX,1,100,-70
1576517107.318126,80182.000,13387,3,MX,1,100,-70
1576517107.357350,80215.000,13387,3,MX,1,100,-70
1576517107.395385,80247.000,13405,3,MX,1,100,-71
1576517107.433421,80279.000,13405,3,MX,1,100,-70
1576517107.471456,80311.000,13405,3,MX,1,100,-70
1576517107.514246,80347.000,13423,3,MX,1,100,-70
1576517107.557035,80383.000,13423,3,MX,1,100,-70
1576517107.599825,80419.000,13423,3,MX,1,100,-70
1576517107.641030,80453.667,13441,3,MX,1,100,-70
1576517107.682234,80488.333,13441,3,MX,1,100,-71
1576517107.723439,80523.000,13441,3,MX,1,100,-71
1576517107.763852,80557.000,13459,3,MX,1,100,-72
1576517107.804264,80591.000,13459,3,MX,1,100,-72
1576517107.844676,80625.000,13459,3,MX,1,100,-70
1576517107.886872,80660.500,13475,2,MX,1,100,-69
1576517107.929067,80696.000,13475,2,MX,1,100,-70
1576517107.966805,80727.750,13493,4,MX,1,100,-69
1576517108.004543,80759.500,13493,4,MX,1,100,-68
1576517108.042281,80791.250,13493,4,MX,1,100,-69
1576517108.080019,80823.000,13493,4,MX,1,100,-70
1576517108.118847,80855.667,13511,3,MX,1,100,-69
1576517108.157675,80888.333,13511,3,MX,1,100,-69
1576517108.196502,80921.000,13511,3,MX,1,100,-70
1576517108.238103,80956.000,13529,3,MX,1,100,-69
1576517108.279704,80991.000,13529,3,MX,1,100,-69
1576517108.321305,81026.000,13529,3,MX,1,100,-69
1576517108.367661,81065.000,13547,2,MX,1,100,-69
1576517108.414016,81104.000,13547,2,MX,1,100,-70
1576517108.455617,81139.000,13565,3,MX,1,100,-70
1576517108.497218,81174.000,13565,3,MX,1,100,-70
1576517108.538819,81209.000,13565,3,MX,1,100,-70
1576517108.576260,81240.500,13584,4,MX,1,100,-71
1576517108.613701,81272.000,13584,4,MX,1,100,-69
1576517108.651142,81303.500,13584,4,MX,1,100,-70
1576517108.688583,81335.000,13584,4,MX,1,100,-71
1576517108.727807,81368.000,13602,3,MX,1,100,-72
1576517108.767030,81401.000,13602,3,MX,1,100,-72
1576517108.806254,81434.000,13602,3,MX,1,100,-71
1576517108.847261,81468.500,13619,2,MX,1,100,-71
1576517108.888268,81503.000,13619,2,MX,1,100,-71
1576517108.929869,81538.000,13637,3,MX,1,100,-71
1576517108.971470,81573.000,13637,3,MX,1,100,-72
1576517109.013071,81608.000,13637,3,MX,1,100,-69
1576517109.055068,81643.333,13653,3,MX,1,100,-71
1576517109.097065,81678.667,13653,3,MX,1,100,-71
1576517109.139063,81714.000,13653,3,MX,1,100,-71
1576517109.180267,81748.667,13671,3,MX,1,100,-71
1576517109.221472,81783.333,13671,3,MX,1,100,-71
1576517109.262677,81818.000,13671,3,MX,1,100,-71
1576517109.299920,81849.333,13689,3,MX,1,100,-71
1576517109.337163,81880.667,13689,3,MX,1,100,-71
1576517109.374406,81912.000,13689,3,MX,1,100,-71
1576517109.415214,81946.333,13707,3,MX,1,100,-71
1576517109.456023,81980.667,13707,3,MX,1,100,-71
1576517109.496831,82015.000,13707,3,MX,1,100,-71
1576517109.538036,82049.667,13726,3,MX,1,100,-70
1576517109.579241,82084.333,13726,3,MX,1,100,-72
1576517109.620446,82119.000,13726,3,MX,1,100,-70
1576517109.661254,82153.333,13744,3,MX,1,100,-72
1576517109.702063,82187.667,13744,3,MX,1,100,-70
1576517109.742872,82222.000,13744,3,MX,1,100,-71
1576517109.781699,82254.667,13762,3,MX,1,100,-70
1576517109.820527,82287.333,13762,3,MX,1,100,-70
1576517109.859355,82320.000,13762,3,MX,1,100,-70
1576517109.896994,82351.667,13780,3,MX,1,100,-70
1576517109.934633,82383.333,13780,3,MX,1,100,-71
1576517109.972272,82415.000,13780,3,MX,1,100,-72
1576517110.011892,82448.333,13797,3,MX,1,100,-71
1576517110.051512,82481.667,13797,3,MX,1,100,-71
1576517110.091132,82515.000,13797,3,MX,1,100,-71
1576517110.130653,82548.250,13815,4,MX,1,100,-71
1576517110.170174,82581.500,13815,4,MX,1,100,-71
1576517110.209695,82614.750,13815,4,MX,1,100,-72
1576517110.249216,82648.000,13815,4,MX,1,100,-71
1576517110.294977,82686.500,13833,2,MX,1,100,-71
1576517110.340738,82725.000,13833,2,MX,1,100,-71
1576517110.379565,82757.667,13849,3,MX,1,100,-71
1576517110.418393,82790.333,13849,3,MX,1,100,-71
1576517110.457221,82823.000,13849,3,MX,1,100,-71
1576517110.501199,82860.000,13867,3,MX,1,100,-72
1576517110.545177,82897.000,13867,3,MX,1,100,-72
1576517110.589155,82934.000,13867,3,MX,1,100,-71
1576517110.630360,82968.667,13886,3,MX,1,100,-70
1576517110.671565,83003.333,13886,3,MX,1,100,-71
1576517110.712770,83038.000,13886,3,MX,1,100,-72
1576517110.754371,83073.000,13904,3,MX,1,100,-70
1576517110.795972,83108.000,13904,3,MX,1,100,-71
1576517110.837573,83143.000,13904,3,MX,1,100,-72
1576517110.875212,83174.667,13922,3,MX,1,100,-71
1576517110.912851,83206.333,13922,3,MX,1,100,-70
1576517110.950490,83238.000,13922,3,MX,1,100,-70
1576517110.989318,83270.667,13940,3,MX,1,100,-70
1576517111.028145,83303.333,13940,3,MX,1,100,-71
1576517111.066973,83336.000,13940,3,MX,1,100,-71
1576517111.107782,83370.333,13958,3,MX,1,100,-70
1576517111.148590,83404.667,13958,3,MX,1,100,-71
1576517111.189399,83439.000,13958,3,MX,1,100,-70
1576517111.230604,83473.667,13975,3,MX,1,100,-71
1576517111.271808,83508.333,13975,3,MX,1,100,-71
1576517111.313013,83543.000,13975,3,MX,1,100,-71
1576517111.355011,83578.333,13993,3,MX,1,100,-70
1576517111.397008,83613.667,13993,3,MX,1,100,-70
1576517111.439005,83649.000,13993,3,MX,1,100,-71
1576517111.480210,83683.667,14009,3,MX,1,100,-71
1576517111.521415,83718.333,14009,3,MX,1,100,-71
1576517111.562619,83753.000,14009,3,MX,1,100,-71
1576517111.600259,83784.667,14028,3,MX,1,100,-71
1576517111.637897,83816.333,14028,3,MX,1,100,-69
1576517111.675537,83848.000,14028,3,MX,1,100,-70
1576517111.715553,83881.667,14046,3,MX,1,100,-72
1576517111.755569,83915.333,14046,3,MX,1,100,-71
1576517111.795585,83949.000,14046,3,MX,1,100,-71
1576517111.836790,83983.667,14064,3,MX,1,100,-71
1576517111.877995,84018.333,14064,3,MX,1,100,-70
1576517111.919200,84053.000,14064,3,MX,1,100,-71
1576517111.960404,84087.667,14082,3,MX,1,100,-72
1576517112.001609,84122.333,14082,3,MX,1,100,-70
1576517112.042814,84157.000,14082,3,MX,1,100,-71
1576517112.082038,84190.000,14100,3,MX,1,100,-71
1576517112.121262,84223.000,14100,3,MX,1,100,-70
1576517112.160486,84256.000,14100,3,MX,1,100,-72
1576517112.201690,84290.667,14118,3,MX,1,100,-70
1576517112.242895,84325.333,14118,3,MX,1,100,-71
1576517112.284100,84360.000,14118,3,MX,1,100,-70
1576517112.324909,84394.333,14136,3,MX,1,100,-70
1576517112.365717,84428.667,14136,3,MX,1,100,-70
1576517112.406526,84463.000,14136,3,MX,1,100,-70
1576517112.447533,84497.500,14153,2,MX,1,100,-70
1576517112.488539,84532.000,14153,2,MX,1,100,-72
1576517112.529546,84566.500,14172,4,MX,1,100,-71
1576517112.570553,84601.000,14172,4,MX,1,100,-70
1576517112.611560,84635.500,14172,4,MX,1,100,-70
1576517112.652566,84670.000,14172,4,MX,1,100,-70
1576517112.691077,84702.400,14193,5,MX,1,100,-68
1576517112.729588,84734.800,14193,5,MX,1,100,-68
1576517112.768098,84767.200,14193,5,MX,1,100,-65
1576517112.806609,84799.600,14193,5,MX,1,100,-60
1576517112.845120,84832.000,14193,5,MX,1,100,-57
1576517112.884343,84865.000,14213,3,MX,1,100,-52
1576517112.923567,84898.000,14213,3,MX,1,100,-50
1576517112.962791,84931.000,14213,3,MX,1,100,-48
1576517113.009741,84970.500,14231,2,MX,1,100,-45
1576517113.056691,85010.000,14231,2,MX,1,100,-43
1576517113.098292,85045.000,14248,3,MX,1,100,-42
1576517113.139893,85080.000,14248,3,MX,1,100,-39
1576517113.181494,85115.000,14248,3,MX,1,100,-38
1576517113.222302,85149.333,14266,3,MX,1,100,-36
1576517113.263111,85183.667,14266,3,MX,1,100,-33
1576517113.303920,85218.000,14266,3,MX,1,100,-32
1576517113.342747,85250.667,14284,3,MX,1,100,-32
1576517113.381575,85283.333,14284,3,MX,1,100,-31
1576517113.420402,85316.000,14284,3,MX,1,100,-30
1576517113.457249,85347.000,14301,3,MX,1,100,-29
1576517113.494096,85378.000,14301,3,MX,1,100,-30
1576517113.530942,85409.000,14301,3,MX,1,100,-28
1576517113.571751,85443.333,14319,3,MX,1,100,-27
1576517113.612560,85477.667,14319,3,MX,1,100,-27
1576517113.653368,85512.000,14319,3,MX,1,100,-26
1576517113.694573,85546.667,14337,3,MX,1,100,-26
1576517113.735778,85581.333,14337,3,MX,1,100,-25
1576517113.776983,85616.000,14337,3,MX,1,100,-25
1576517113.822150,85654.000,14355,3,MX,1,100,-25
1576517113.867316,85692.000,14355,3,MX,1,100,-26
1576517113.912483,85730.000,14355,3,MX,1,100,-24
1576517113.950518,85762.000,14373,3,MX,1,100,-22
1576517113.988554,85794.000,14373,3,MX,1,100,-22
1576517114.026589,85826.000,14373,3,MX,1,100,-22
1576517114.068586,85861.333,14391,3,MX,1,100,-23
1576517114.110583,85896.667,14391,3,MX,1,100,-24
1576517114.152580,85932.000,14391,3,MX,1,100,-22
1576517114.188635,85962.333,14409,3,MX,1,100,-23
1576517114.224689,85992.667,14409,3,MX,1,100,-25
1576517114.260743,86023.000,14409,3,MX,1,100,-24
1576517114.300363,86056.333,14426,3,MX,1,100,-24
1576517114.339983,86089.667,14426,3,MX,1,100,-24
1576517114.379603,86123.000,14426,3,MX,1,100,-26
1576517114.420016,86157.000,14444,3,MX,1,100,-24
1576517114.460428,86191.000,14444,3,MX,1,100,-24
1576517114.500840,86225.000,14444,3,MX,1,100,-23
1576517114.540461,86258.333,14463,3,MX,1,100,-25
1576517114.580081,86291.667,14463,3,MX,1,100,-25
1576517114.619700,86325.000,14463,3,MX,1,100,-24
1576517114.659717,86358.667,14481,3,MX,1,100,-24
1576517114.699733,86392.333,14481,3,MX,1,100,-23
1576517114.739749,86426.000,14481,3,MX,1,100,-25
1576517114.780954,86460.667,14497,3,MX,1,100,-24
1576517114.822159,86495.333,14497,3,MX,1,100,-23
1576517114.863364,86530.000,14497,3,MX,1,100,-23
1576517114.904965,86565.000,14515,3,MX,1,100,-23
1576517114.946566,86600.000,14515,3,MX,1,100,-24
1576517114.988167,86635.000,14515,3,MX,1,100,-25
1576517115.025806,86666.667,14533,3,MX,1,100,-25
1576517115.063445,86698.333,14533,3,MX,1,100,-23
1576517115.101084,86730.000,14533,3,MX,1,100,-25
1576517115.141496,86764.000,14551,3,MX,1,100,-24
1576517115.181909,86798.000,14551,3,MX,1,100,-25
1576517115.222321,86832.000,14551,3,MX,1,100,-24
1576517115.260752,86864.333,14569,3,MX,1,100,-25
1576517115.299184,86896.667,14569,3,MX,1,100,-25
1576517115.337615,86929.000,14569,3,MX,1,100,-26
1576517115.377235,86962.333,14587,3,MX,1,100,-25
1576517115.416855,86995.667,14587,3,MX,1,100,-24
1576517115.456475,87029.000,14587,3,MX,1,100,-26
1576517115.500454,87066.000,14605,3,MX,1,100,-23
1576517115.544432,87103.000,14605,3,MX,1,100,-25
1576517115.588410,87140.000,14605,3,MX,1,100,-25
1576517115.629615,87174.667,14623,3,MX,1,100,-26
1576517115.670820,87209.333,14623,3,MX,1,100,-25
1576517115.712025,87244.000,14623,3,MX,1,100,-26
1576517115.751645,87277.333,14641,3,MX,1,100,-26
1576517115.791265,87310.667,14641,3,MX,1,100,-25
1576517115.830885,87344.000,14641,3,MX,1,100,-25
1576517115.869316,87376.333,14659,3,MX,1,100,-26
1576517115.907748,87408.667,14659,3,MX,1,100,-26
1576517115.946179,87441.000,14659,3,MX,1,100,-26
1576517115.984610,87473.333,14675,3,MX,1,100,-26
1576517116.023042,87505.667,14675,3,MX,1,100,-26
1576517116.061473,87538.000,14675,3,MX,1,100,-26
1576517116.101886,87572.000,14693,3,MX,1,100,-26
1576517116.142298,87606.000,14693,3,MX,1,100,-25
1576517116.182710,87640.000,14693,3,MX,1,100,-26
1576517116.227877,87678.000,14711,3,MX,1,100,-26
1576517116.273044,87716.000,14711,3,MX,1,100,-25
1576517116.318211,87754.000,14711,3,MX,1,100,-25
1576517116.358624,87788.000,14729,3,MX,1,100,-25
1576517116.399036,87822.000,14729,3,MX,1,100,-25
1576517116.439448,87856.000,14729,3,MX,1,100,-25
1576517116.477484,87888.000,14747,3,MX,1,100,-26
1576517116.515519,87920.000,14747,3,MX,1,100,-25
1576517116.553554,87952.000,14747,3,MX,1,100,-25
1576517116.592778,87985.000,14766,3,MX,1,100,-25
1576517116.632002,88018.000,14766,3,MX,1,100,-26
1576517116.671225,88051.000,14766,3,MX,1,100,-26
1576517116.712034,88085.333,14784,3,MX,1,100,-26
1576517116.752843,88119.667,14784,3,MX,1,100,-25
1576517116.793651,88154.000,14784,3,MX,1,100,-26
1576517116.834856,88188.667,14801,3,MX,1,100,-26
1576517116.876061,88223.333,14801,3,MX,1,100,-26
1576517116.917266,88258.000,14801,3,MX,1,100,-26
1576517116.958471,88292.667,14819,3,MX,1,100,-25
1576517116.999675,88327.333,14819,3,MX,1,100,-26
1576517117.040880,88362.000,14819,3,MX,1,100,-25
1576517117.079510,88394.500,14837,2,MX,1,100,-25
1576517117.118139,88427.000,14837,2,MX,1,100,-26
1576517117.158552,88461.000,14853,4,MX,1,100,-26
1576517117.198964,88495.000,14853,4,MX,1,100,-26
1576517117.239377,88529.000,14853,4,MX,1,100,-27
1576517117.279789,88563.000,14853,4,MX,1,100,-27
1576517117.320796,88597.500,14871,2,MX,1,100,-25
1576517117.361802,88632.000,14871,2,MX,1,100,-26
1576517117.403007,88666.667,14889,3,MX,1,100,-25
1576517117.444212,88701.333,14889,3,MX,1,100,-25
1576517117.485417,88736.000,14889,3,MX,1,100,-25
1576517117.526622,88770.667,14908,3,MX,1,100,-25
1576517117.567827,88805.333,14908,3,MX,1,100,-26
1576517117.609031,88840.000,14908,3,MX,1,100,-25
1576517117.647067,88872.000,14926,4,MX,1,100,-26
1576517117.685102,88904.000,14926,4,MX,1,100,-26
1576517117.723137,88936.000,14926,4,MX,1,100,-26
1576517117.761172,88968.000,14926,4,MX,1,100,-25
1576517117.798811,88999.667,14944,3,MX,1,100,-25
1576517117.836450,89031.333,14944,3,MX,1,100,-25
1576517117.874089,89063.000,14944,3,MX,1,100,-25
1576517117.921039,89102.500,14962,2,MX,1,100,-25
1576517117.967989,89142.000,14962,2,MX,1,100,-26
1576517118.005132,89173.250,14980,4,MX,1,100,-25
1576517118.042276,89204.500,14980,4,MX,1,100,-27
1576517118.079420,89235.750,14980,4,MX,1,100,-26
1576517118.116564,89267.000,14980,4,MX,1,100,-25
1576517118.164108,89307.000,14997,2,MX,1,100,-26
1576517118.211652,89347.000,14997,2,MX,1,100,-25
1576517118.252460,89381.333,15015,3,MX,1,100,-26
1576517118.293269,89415.667,15015,3,MX,1,100,-25
1576517118.334078,89450.000,15015,3,MX,1,100,-25
1576517118.375679,89485.000,15031,3,MX,1,100,-26
1576517118.417280,89520.000,15031,3,MX,1,100,-27
1576517118.458881,89555.000,15031,3,MX,1,100,-25
1576517118.498105,89588.000,15049,3,MX,1,100,-26
1576517118.537328,89621.000,15049,3,MX,1,100,-26
1576517118.576552,89654.000,15049,3,MX,1,100,-25
1576517118.618946,89689.667,15068,3,MX,1,100,-26
1576517118.661339,89725.333,15068,3,MX,1,100,-26
1576517118.703733,89761.000,15068,3,MX,1,100,-25
1576517118.741530,89792.800,15089,5,MX,1,100,-25
1576517118.779328,89824.600,15089,5,MX,1,100,-27
1576517118.817125,89856.400,15089,5,MX,1,100,-27
1576517118.854923,89888.200,15089,5,MX,1,100,-25
1576517118.892720,89920.000,15089,5,MX,1,100,-26
1576517118.932736,89953.667,15109,3,MX,1,100,-25
1576517118.972753,89987.333,15109,3,MX,1,100,-26
1576517119.012769,90021.000,15109,3,MX,1,100,-25
1576517119.053577,90055.333,15125,3,MX,1,100,-26
1576517119.094386,90089.667,15125,3,MX,1,100,-25
1576517119.135195,90124.000,15125,3,MX,1,100,-26
1576517119.176796,90159.000,15143,3,MX,1,100,-25
1576517119.218397,90194.000,15143,3,MX,1,100,-26
1576517119.259998,90229.000,15143,3,MX,1,100,-25
1576517119.306353,90268.000,15161,2,MX,1,100,-26
1576517119.352709,90307.000,15161,2,MX,1,100,-26
1576517119.390150,90338.500,15179,4,MX,1,100,-26
1576517119.427590,90370.000,15179,4,MX,1,100,-26
1576517119.465031,90401.500,15179,4,MX,1,100,-25
1576517119.502472,90433.000,15179,4,MX,1,100,-26
1576517119.541300,90465.667,15198,3,MX,1,100,-26
1576517119.580127,90498.333,15198,3,MX,1,100,-26
1576517119.618955,90531.000,15198,3,MX,1,100,-25
1576517119.659764,90565.333,15216,3,MX,1,100,-26
1576517119.700572,90599.667,15216,3,MX,1,100,-26
1576517119.741381,90634.000,15216,3,MX,1,100,-25
1576517119.781793,90668.000,15234,3,MX,1,100,-25
1576517119.822206,90702.000,15234,3,MX,1,100,-25
1576517119.862618,90736.000,15234,3,MX,1,100,-25
1576517119.902635,90769.667,15251,3,MX,1,100,-25
1576517119.942651,90803.333,15251,3,MX,1,100,-26
1576517119.982667,90837.000,15251,3,MX,1,100,-25
1576517120.024268,90872.000,15269,3,MX,1,100,-26
1576517120.065869,90907.000,15269,3,MX,1,100,-25
1576517120.107470,90942.000,15269,3,MX,1,100,-25
1576517120.146694,90975.000,15287,3,MX,1,100,-26
1576517120.185918,91008.000,15287,3,MX,1,100,-26
1576517120.225142,91041.000,15287,3,MX,1,100,-25
1576517120.266346,91075.667,15304,3,MX,1,100,-25
1576517120.307551,91110.333,15304,3,MX,1,100,-26
1576517120.348756,91145.000,15304,3,MX,1,100,-26
1576517120.389763,91179.500,15321,2,MX,1,100,-25
1576517120.430769,91214.000,15321,2,MX,1,100,-25
1576517120.472370,91249.000,15339,3,MX,1,100,-26
1576517120.513972,91284.000,15339,3,MX,1,100,-25
1576517120.555573,91319.000,15339,3,MX,1,100,-25
1576517120.593905,91351.250,15358,4,MX,1,100,-24
1576517120.632237,91383.500,15358,4,MX,1,100,-25
1576517120.670570,91415.750,15358,4,MX,1,100,-26
1576517120.708902,91448.000,15358,4,MX,1,100,-25
1576517120.747730,91480.667,15376,3,MX,1,100,-25
1576517120.786557,91513.333,15376,3,MX,1,100,-25
1576517120.825385,91546.000,15376,3,MX,1,100,-25
1576517120.865797,91580.000,15394,2,MX,1,100,-26
1576517120.906210,91614.000,15394,2,MX,1,100,-25
1576517120.951377,91652.000,15412,3,MX,1,100,-25
1576517120.996543,91690.000,15412,3,MX,1,100,-26
1576517121.041710,91728.000,15412,3,MX,1,100,-26
1576517121.082915,91762.667,15430,3,MX,1,100,-25
1576517121.124120,91797.333,15430,3,MX,1,100,-25
1576517121.165325,91832.000,15430,3,MX,1,100,-25
1576517121.202568,91863.333,15447,3,MX,1,100,-26
1576517121.239810,91894.667,15447,3,MX,1,100,-25
1576517121.277053,91926.000,15447,3,MX,1,100,-26
1576517121.315881,91958.667,15465,3,MX,1,100,-25
1576517121.354708,91991.333,15465,3,MX,1,100,-25
1576517121.393536,92024.000,15465,3,MX,1,100,-25
1576517121.433552,92057.667,15483,3,MX,1,100,-25
1576517121.473568,92091.333,15483,3,MX,1,100,-25
1576517121.513585,92125.000,15483,3,MX,1,100,-24
1576517121.555186,92160.000,15500,3,MX,1,100,-26
1576517121.596787,92195.000,15500,3,MX,1,100,-26
1576517121.638388,92230.000,15500,3,MX,1,100,-26
1576517121.683555,92268.000,15518,3,MX,1,100,-26
1576517121.728721,92306.000,15518,3,MX,1,100,-25
1576517121.773888,92344.000,15518,3,MX,1,100,-25
1576517121.812320,92376.333,15536,3,MX,1,100,-25
1576517121.850751,92408.667,15536,3,MX,1,100,-26
1576517121.889183,92441.000,15536,3,MX,1,100,-27
1576517121.934349,92479.000,15554,3,MX,1,100,-26
1576517121.979516,92517.000,15554,3,MX,1,100,-26
1576517122.024683,92555.000,15554,3,MX,1,100,-26
1576517122.062718,92587.000,15572,3,MX,1,100,-24
1576517122.100754,92619.000,15572,3,MX,1,100,-26
1576517122.138789,92651.000,15572,3,MX,1,100,-25
1576517122.174843,92681.333,15590,3,MX,1,100,-26
1576517122.210897,92711.667,15590,3,MX,1,100,-26
1576517122.246951,92742.000,15590,3,MX,1,100,-26
1576517122.287364,92776.000,15608,3,MX,1,100,-25
1576517122.327776,92810.000,15608,3,MX,1,100,-25
1576517122.368189,92844.000,15608,3,MX,1,100,-25
1576517122.406620,92876.333,15625,3,MX,1,100,-23
1576517122.445051,92908.667,15625,3,MX,1,100,-26
1576517122.483483,92941.000,15625,3,MX,1,100,-25
1576517122.524688,92975.667,15644,3,MX,1,100,-25
1576517122.565892,93010.333,15644,3,MX,1,100,-26
1576517122.607097,93045.000,15644,3,MX,1,100,-25
1576517122.647906,93079.333,15662,3,MX,1,100,-25
1576517122.688715,93113.667,15662,3,MX,1,100,-26
1576517122.729523,93148.000,15662,3,MX,1,100,-26
1576517122.771124,93183.000,15678,3,MX,1,100,-26
1576517122.812725,93218.000,15678,3,MX,1,100,-25
1576517122.854326,93253.000,15678,3,MX,1,100,-25
1576517122.892362,93285.000,15696,3,MX,1,100,-25
1576517122.930397,93317.000,15696,3,MX,1,100,-26
1576517122.968432,93349.000,15696,3,MX,1,100,-25
1576517123.010429,93384.333,15714,3,MX,1,100,-26
1576517123.052427,93419.667,15714,3,MX,1,100,-26
1576517123.094424,93455.000,15714,3,MX,1,100,-26
1576517123.134044,93488.333,15732,3,MX,1,100,-26
1576517123.173664,93521.667,15732,3,MX,1,100,-26
1576517123.213284,93555.000,15732,3,MX,1,100,-26
1576517123.254488,93589.667,15750,3,MX,1,100,-25
1576517123.295693,93624.333,15750,3,MX,1,100,-25
1576517123.336898,93659.000,15750,3,MX,1,100,-25
1576517123.378499,93694.000,15768,3,MX,1,100,-26
1576517123.420100,93729.000,15768,3,MX,1,100,-26
1576517123.461701,93764.000,15768,3,MX,1,100,-26
1576517123.499737,93796.000,15786,3,MX,1,100,-26
1576517123.537772,93828.000,15786,3,MX,1,100,-25
1576517123.575807,93860.000,15786,3,MX,1,100,-25
1576517123.614239,93892.333,15805,3,MX,1,100,-25
1576517123.652670,93924.667,15805,3,MX,1,100,-25
1576517123.691101,93957.000,15805,3,MX,1,100,-25
1576517123.730721,93990.333,15822,3,MX,1,100,-25
1576517123.770341,94023.667,15822,3,MX,1,100,-25
1576517123.809961,94057.000,15822,3,MX,1,100,-25
1576517123.855524,94095.333,15840,3,MX,1,100,-25
1576517123.901087,94133.667,15840,3,MX,1,100,-24
1576517123.946651,94172.000,15840,3,MX,1,100,-26
1576517123.987657,94206.500,15856,2,MX,1,100,-25
1576517124.028664,94241.000,15856,2,MX,1,100,-25
1576517124.068185,94274.250,15874,4,MX,1,100,-27
1576517124.107706,94307.500,15874,4,MX,1,100,-25
1576517124.147227,94340.750,15874,4,MX,1,100,-25
1576517124.186748,94374.000,15874,4,MX,1,100,-26
1576517124.224783,94406.000,15892,3,MX,1,100,-27
1576517124.262818,94438.000,15892,3,MX,1,100,-26
1576517124.300853,94470.000,15892,3,MX,1,100,-25
1576517124.340870,94503.667,15910,3,MX,1,100,-26
1576517124.380886,94537.333,15910,3,MX,1,100,-25
1576517124.420902,94571.000,15910,3,MX,1,100,-25
1576517124.462503,94606.000,15928,3,MX,1,100,-27
1576517124.504104,94641.000,15928,3,MX,1,100,-25
1576517124.545705,94676.000,15928,3,MX,1,100,-24
1576517124.587306,94711.000,15947,3,MX,1,100,-25
1576517124.628907,94746.000,15947,3,MX,1,100,-27
1576517124.670508,94781.000,15947,3,MX,1,100,-25
1576517124.715675,94819.000,15965,2,MX,1,100,-26
1576517124.760842,94857.000,15965,2,MX,1,100,-25
1576517124.798877,94889.000,15986,6,MX,1,100,-26
1576517124.836912,94921.000,15986,6,MX,1,100,-25
1576517124.874948,94953.000,15986,6,MX,1,100,-25
1576517124.912983,94985.000,15986,6,MX,1,100,-26
1576517124.951018,95017.000,15986,6,MX,1,100,-25
1576517124.989053,95049.000,15986,6,MX,1,100,-26
1576517125.028871,95082.500,16006,2,MX,1,100,-26
1576517125.068690,95116.000,16006,2,MX,1,100,-25
1576517125.109894,95150.667,16024,3,MX,1,100,-25
1576517125.151099,95185.333,16024,3,MX,1,100,-26
1576517125.192304,95220.000,16024,3,MX,1,100,-25
1576517125.233113,95254.333,16042,3,MX,1,100,-26
1576517125.273921,95288.667,16042,3,MX,1,100,-27
1576517125.314730,95323.000,16042,3,MX,1,100,-25
1576517125.353557,95355.667,16060,3,MX,1,100,-25
1576517125.392385,95388.333,16060,3,MX,1,100,-26
1576517125.431213,95421.000,16060,3,MX,1,100,-26
1576517125.472418,95455.667,16078,3,MX,1,100,-25
1576517125.513622,95490.333,16078,3,MX,1,100,-26
1576517125.554827,95525.000,16078,3,MX,1,100,-25
1576517125.590881,95555.333,16096,3,MX,1,100,-26
1576517125.626936,95585.667,16096,3,MX,1,100,-26
1576517125.662990,95616.000,16096,3,MX,1,100,-25
1576517125.706572,95652.667,16114,3,MX,1,100,-25
1576517125.750154,95689.333,16114,3,MX,1,100,-25
1576517125.793736,95726.000,16114,3,MX,1,100,-26
1576517125.829394,95756.000,16132,4,MX,1,100,-26
1576517125.865052,95786.000,16132,4,MX,1,100,-26
1576517125.900710,95816.000,16132,4,MX,1,100,-26
1576517125.936368,95846.000,16132,4,MX,1,100,-25
1576517125.980941,95883.500,16149,2,MX,1,100,-25
1576517126.025513,95921.000,16149,2,MX,1,100,-25
1576517126.066322,95955.333,16166,3,MX,1,100,-25
1576517126.107130,95989.667,16166,3,MX,1,100,-26
1576517126.147939,96024.000,16166,3,MX,1,100,-26
1576517126.189144,96058.667,16184,3,MX,1,100,-25
1576517126.230349,96093.333,16184,3,MX,1,100,-26
1576517126.271554,96128.000,16184,3,MX,1,100,-26
1576517126.312758,96162.667,16202,3,MX,1,100,-26
1576517126.353963,96197.333,16202,3,MX,1,100,-27
1576517126.395168,96232.000,16202,3,MX,1,100,-26
1576517126.432807,96263.667,16220,3,MX,1,100,-26
1576517126.470446,96295.333,16220,3,MX,1,100,-27
1576517126.508085,96327.000,16220,3,MX,1,100,-25
1576517126.546913,96359.667,16239,3,MX,1,100,-27
1576517126.585740,96392.333,16239,3,MX,1,100,-26
1576517126.624568,96425.000,16239,3,MX,1,100,-26
1576517126.665376,96459.333,16257,3,MX,1,100,-26
1576517126.706185,96493.667,16257,3,MX,1,100,-25
1576517126.746994,96528.000,16257,3,MX,1,100,-25
1576517126.792161,96566.000,16275,3,MX,1,100,-26
1576517126.837327,96604.000,16275,3,MX,1,100,-25
1576517126.882494,96642.000,16275,3,MX,1,100,-26
1576517126.923303,96676.333,16292,3,MX,1,100,-27
1576517126.964111,96710.667,16292,3,MX,1,100,-27
1576517127.004920,96745.000,16292,3,MX,1,100,-25
1576517127.043351,96777.333,16310,3,MX,1,100,-25
1576517127.081783,96809.667,16310,3,MX,1,100,-25
1576517127.120214,96842.000,16310,3,MX,1,100,-25
1576517127.157853,96873.667,16328,3,MX,1,100,-25
1576517127.195492,96905.333,16328,3,MX,1,100,-25
1576517127.233131,96937.000,16328,3,MX,1,100,-25
1576517127.273148,96970.667,16344,3,MX,1,100,-26
1576517127.313164,97004.333,16344,3,MX,1,100,-26
1576517127.353180,97038.000,16344,3,MX,1,100,-25
1576517127.394385,97072.667,16362,3,MX,1,100,-26
1576517127.435590,97107.333,16362,3,MX,1,100,-25
1576517127.476794,97142.000,16362,3,MX,1,100,-24
1576517127.517603,97176.333,16381,3,MX,1,100,-25
1576517127.558412,97210.667,16381,3,MX,1,100,-26
1576517127.599221,97245.000,16381,3,MX,1,100,-24
1576517127.640821,97280.000,16399,3,MX,1,100,-25
1576517127.682422,97315.000,16399,3,MX,1,100,-25
1576517127.724024,97350.000,16399,3,MX,1,100,-25
1576517127.762851,97382.667,16417,3,MX,1,100,-26
1576517127.801679,97415.333,16417,3,MX,1,100,-25
1576517127.840506,97448.000,16417,3,MX,1,100,-25
1576517127.881315,97482.333,16435,3,MX,1,100,-25
1576517127.922124,97516.667,16435,3,MX,1,100,-25
1576517127.962932,97551.000,16435,3,MX,1,100,-26
1576517128.004137,97585.667,16453,3,MX,1,100,-27
1576517128.045342,97620.333,16453,3,MX,1,100,-25
1576517128.086547,97655.000,16453,3,MX,1,100,-26
1576517128.127355,97689.333,16470,3,MX,1,100,-26
1576517128.168164,97723.667,16470,3,MX,1,100,-25
1576517128.208973,97758.000,16470,3,MX,1,100,-27
1576517128.247800,97790.667,16488,3,MX,1,100,-26
1576517128.286628,97823.333,16488,3,MX,1,100,-26
1576517128.325455,97856.000,16488,3,MX,1,100,-26
1576517128.367057,97891.000,16506,3,MX,1,100,-25
1576517128.408658,97926.000,16506,3,MX,1,100,-25
1576517128.450258,97961.000,16506,3,MX,1,100,-25
1576517128.491067,97995.333,16522,3,MX,1,100,-26
1576517128.531876,98029.667,16522,3,MX,1,100,-26
1576517128.572685,98064.000,16522,3,MX,1,100,-26
1576517128.613493,98098.333,16541,3,MX,1,100,-26
1576517128.654302,98132.667,16541,3,MX,1,100,-26
1576517128.695110,98167.000,16541,3,MX,1,100,-26
1576517128.736315,98201.667,16559,3,MX,1,100,-26
1576517128.777520,98236.333,16559,3,MX,1,100,-25
1576517128.818725,98271.000,16559,3,MX,1,100,-25
1576517128.857552,98303.667,16577,3,MX,1,100,-26
1576517128.896380,98336.333,16577,3,MX,1,100,-25
1576517128.935208,98369.000,16577,3,MX,1,100,-26
1576517128.972450,98400.333,16595,3,MX,1,100,-26
1576517129.009693,98431.667,16595,3,MX,1,100,-25
1576517129.046936,98463.000,16595,3,MX,1,100,-25
1576517129.086952,98496.667,16613,3,MX,1,100,-25
1576517129.126969,98530.333,16613,3,MX,1,100,-25
1576517129.166985,98564.000,16613,3,MX,1,100,-25
1576517129.211756,98601.667,16631,3,MX,1,100,-25
1576517129.256526,98639.333,16631,3,MX,1,100,-25
1576517129.301297,98677.000,16631,3,MX,1,100,-25
1576517129.339728,98709.333,16648,3,MX,1,100,-26
1576517129.378160,98741.667,16648,3,MX,1,100,-26
1576517129.416591,98774.000,16648,3,MX,1,100,-26
1576517129.463541,98813.500,16666,2,MX,1,100,-26
1576517129.510490,98853.000,16666,2,MX,1,100,-25
1576517129.548922,98885.333,16683,3,MX,1,100,-26
1576517129.587353,98917.667,16683,3,MX,1,100,-25
1576517129.625785,98950.000,16683,3,MX,1,100,-25
1576517129.666593,98984.333,16701,3,MX,1,100,-26
1576517129.707402,99018.667,16701,3,MX,1,100,-26
1576517129.748210,99053.000,16701,3,MX,1,100,-25
1576517129.793377,99091.000,16719,3,MX,1,100,-26
1576517129.838544,99129.000,16719,3,MX,1,100,-25
1576517129.883711,99167.000,16719,3,MX,1,100,-26
1576517129.923331,99200.333,16737,3,MX,1,100,-26
1576517129.962951,99233.667,16737,3,MX,1,100,-25
1576517130.002571,99267.000,16737,3,MX,1,100,-26
1576517130.044965,99302.667,16755,3,MX,1,100,-25
1576517130.087358,99338.333,16755,3,MX,1,100,-26
1576517130.129751,99374.000,16755,3,MX,1,100,-25
1576517130.167390,99405.667,16773,3,MX,1,100,-25
1576517130.205029,99437.333,16773,3,MX,1,100,-26
1576517130.242668,99469.000,16773,3,MX,1,100,-26
1576517130.281100,99501.333,16791,3,MX,1,100,-26
1576517130.319531,99533.667,16791,3,MX,1,100,-26
1576517130.357963,99566.000,16791,3,MX,1,100,-26
1576517130.398375,99600.000,16808,3,MX,1,100,-26
1576517130.438787,99634.000,16808,3,MX,1,100,-25
1576517130.479200,99668.000,16808,3,MX,1,100,-26
1576517130.520405,99702.667,16827,3,MX,1,100,-26
1576517130.561610,99737.333,16827,3,MX,1,100,-25
1576517130.602814,99772.000,16827,3,MX,1,100,-25
1576517130.644812,99807.333,16843,3,MX,1,100,-26
1576517130.686809,99842.667,16843,3,MX,1,100,-26
1576517130.728806,99878.000,16843,3,MX,1,100,-26
1576517130.770803,99913.333,16861,3,MX,1,100,-25
1576517130.812801,99948.667,16861,3,MX,1,100,-25
1576517130.854798,99984.000,16861,3,MX,1,100,-25
1576517130.893308,100016.400,16882,5,MX,1,100,-27
1576517130.931819,100048.800,16882,5,MX,1,100,-26
1576517130.970330,100081.200,16882,5,MX,1,100,-25
1576517131.008841,100113.600,16882,5,MX,1,100,-25
1576517131.047351,100146.000,16882,5,MX,1,100,-26
1576517131.087764,100180.000,16901,3,MX,1,100,-26
1576517131.128176,100214.000,16901,3,MX,1,100,-26
1576517131.168588,100248.000,16901,3,MX,1,100,-26
1576517131.209793,100282.667,16919,3,MX,1,100,-26
1576517131.250998,100317.333,16919,3,MX,1,100,-27
1576517131.292203,100352.000,16919,3,MX,1,100,-26
1576517131.331427,100385.000,16937,3,MX,1,100,-25
1576517131.370651,100418.000,16937,3,MX,1,100,-26
1576517131.409874,100451.000,16937,3,MX,1,100,-26
1576517131.448306,100483.333,16953,3,MX,1,100,-25
1576517131.486737,100515.667,16953,3,MX,1,100,-27
1576517131.525169,100548.000,16953,3,MX,1,100,-26
1576517131.567562,100583.667,16972,3,MX,1,100,-25
1576517131.609956,100619.333,16972,3,MX,1,100,-26
1576517131.652349,100655.000,16972,3,MX,1,100,-25
1576517131.692761,100689.000,16990,2,MX,1,100,-26
1576517131.733174,100723.000,16990,2,MX,1,100,-26
1576517131.774775,100758.000,17008,3,MX,1,100,-25
1576517131.816376,100793.000,17008,3,MX,1,100,-27
1576517131.857977,100828.000,17008,3,MX,1,100,-26
1576517131.899578,100863.000,17026,3,MX,1,100,-26
1576517131.941179,100898.000,17026,3,MX,1,100,-27
1576517131.982780,100933.000,17026,3,MX,1,100,-27
1576517132.020815,100965.000,17044,4,MX,1,100,-26
1576517132.058850,100997.000,17044,4,MX,1,100,-27
1576517132.096885,101029.000,17044,4,MX,1,100,-27
1576517132.134921,101061.000,17044,4,MX,1,100,-27
1576517132.173748,101093.667,17062,3,MX,1,100,-25
1576517132.212576,101126.333,17062,3,MX,1,100,-25
1576517132.251404,101159.000,17062,3,MX,1,100,-28
1576517132.292608,101193.667,17080,3,MX,1,100,-27
1576517132.333813,101228.333,17080,3,MX,1,100,-28
1576517132.375018,101263.000,17080,3,MX,1,100,-27
1576517132.421374,101302.000,17097,2,MX,1,100,-26
1576517132.467729,101341.000,17097,2,MX,1,100,-28
1576517132.509330,101376.000,17115,3,MX,1,100,-27
1576517132.550931,101411.000,17115,3,MX,1,100,-28
1576517132.592532,101446.000,17115,3,MX,1,100,-27
1576517132.630171,101477.667,17132,3,MX,1,100,-28
1576517132.667810,101509.333,17132,3,MX,1,100,-29
1576517132.705449,101541.000,17132,3,MX,1,100,-27
1576517132.743484,101573.000,17150,3,MX,1,100,-27
1576517132.781520,101605.000,17150,3,MX,1,100,-28
1576517132.819555,101637.000,17150,3,MX,1,100,-27
1576517132.859175,101670.333,17168,3,MX,1,100,-27
1576517132.898795,101703.667,17168,3,MX,1,100,-29
1576517132.938415,101737.000,17168,3,MX,1,100,-27
1576517132.979620,101771.667,17186,3,MX,1,100,-28
1576517133.020824,101806.333,17186,3,MX,1,100,-27
1576517133.062029,101841.000,17186,3,MX,1,100,-27
1576517133.103630,101876.000,17204,3,MX,1,100,-29
1576517133.145231,101911.000,17204,3,MX,1,100,-28
1576517133.186832,101946.000,17204,3,MX,1,100,-27
1576517133.229226,101981.667,17222,3,MX,1,100,-30
1576517133.271619,102017.333,17222,3,MX,1,100,-27
1576517133.314013,102053.000,17222,3,MX,1,100,-28
1576517133.350859,102084.000,17240,3,MX,1,100,-27
1576517133.387706,102115.000,17240,3,MX,1,100,-28
1576517133.424553,102146.000,17240,3,MX,1,100,-28
1576517133.465361,102180.333,17258,3,MX,1,100,-27
1576517133.506170,102214.667,17258,3,MX,1,100,-28
1576517133.546978,102249.000,17258,3,MX,1,100,-28
1576517133.583825,102280.000,17276,3,MX,1,100,-29
1576517133.620672,102311.000,17276,3,MX,1,100,-28
1576517133.657518,102342.000,17276,3,MX,1,100,-28
1576517133.698723,102376.667,17294,3,MX,1,100,-28
1576517133.739928,102411.333,17294,3,MX,1,100,-27
1576517133.781133,102446.000,17294,3,MX,1,100,-28
1576517133.819168,102478.000,17312,3,MX,1,100,-29
1576517133.857203,102510.000,17312,3,MX,1,100,-28
1576517133.895238,102542.000,17312,3,MX,1,100,-27
1576517133.936047,102576.333,17329,3,MX,1,100,-27
1576517133.976856,102610.667,17329,3,MX,1,100,-28
1576517134.017664,102645.000,17329,3,MX,1,100,-28
1576517134.059265,102680.000,17346,3,MX,1,100,-29
1576517134.100866,102715.000,17346,3,MX,1,100,-27
1576517134.142467,102750.000,17346,3,MX,1,100,-28
1576517134.184068,102785.000,17364,3,MX,1,100,-28
1576517134.225669,102820.000,17364,3,MX,1,100,-29
1576517134.267271,102855.000,17364,3,MX,1,100,-26
1576517134.305702,102887.333,17382,3,MX,1,100,-27
1576517134.344133,102919.667,17382,3,MX,1,100,-28
1576517134.382565,102952.000,17382,3,MX,1,100,-28
1576517134.420996,102984.333,17400,3,MX,1,100,-28
1576517134.459428,103016.667,17400,3,MX,1,100,-28
1576517134.497859,103049.000,17400,3,MX,1,100,-27
1576517134.538668,103083.333,17419,3,MX,1,100,-27
1576517134.579476,103117.667,17419,3,MX,1,100,-27
1576517134.620285,103152.000,17419,3,MX,1,100,-27
1576517134.659112,103184.667,17437,3,MX,1,100,-28
1576517134.697940,103217.333,17437,3,MX,1,100,-28
1576517134.736768,103250.000,17437,3,MX,1,100,-27
1576517134.781934,103288.000,17455,3,MX,1,100,-28
1576517134.827101,103326.000,17455,3,MX,1,100,-28
1576517134.872268,103364.000,17455,3,MX,1,100,-28
1576517134.912681,103398.000,17472,3,MX,1,100,-26
1576517134.953093,103432.000,17472,3,MX,1,100,-28
1576517134.993505,103466.000,17472,3,MX,1,100,-27
1576517135.035107,103501.000,17490,3,MX,1,100,-28
1576517135.076708,103536.000,17490,3,MX,1,100,-28
1576517135.118309,103571.000,17490,3,MX,1,100,-27
1576517135.155551,103602.333,17506,3,MX,1,100,-28
1576517135.192794,103633.667,17506,3,MX,1,100,-28
1576517135.230037,103665.000,17506,3,MX,1,100,-27
1576517135.268468,103697.333,17524,3,MX,1,100,-27
1576517135.306900,103729.667,17524,3,MX,1,100,-28
1576517135.345331,103762.000,17524,3,MX,1,100,-27
1576517135.386140,103796.333,17542,3,MX,1,100,-26
1576517135.426949,103830.667,17542,3,MX,1,100,-26
1576517135.467757,103865.000,17542,3,MX,1,100,-28
1576517135.507773,103898.667,17561,3,MX,1,100,-27
1576517135.547790,103932.333,17561,3,MX,1,100,-26
1576517135.587806,103966.000,17561,3,MX,1,100,-27
1576517135.632973,104004.000,17579,3,MX,1,100,-28
1576517135.678139,104042.000,17579,3,MX,1,100,-27
1576517135.723306,104080.000,17579,3,MX,1,100,-28
1576517135.761342,104112.000,17597,3,MX,1,100,-28
1576517135.799377,104144.000,17597,3,MX,1,100,-27
1576517135.837412,104176.000,17597,3,MX,1,100,-28
1576517135.876240,104208.667,17615,3,MX,1,100,-28
1576517135.915067,104241.333,17615,3,MX,1,100,-29
1576517135.953895,104274.000,17615,3,MX,1,100,-28
1576517135.994307,104308.000,17633,3,MX,1,100,-27
1576517136.034720,104342.000,17633,3,MX,1,100,-28
1576517136.075132,104376.000,17633,3,MX,1,100,-27
1576517136.115941,104410.333,17650,3,MX,1,100,-27
1576517136.156749,104444.667,17650,3,MX,1,100,-28
1576517136.197558,104479.000,17650,3,MX,1,100,-26
1576517136.238763,104513.667,17668,3,MX,1,100,-28
1576517136.279968,104548.333,17668,3,MX,1,100,-27
1576517136.321172,104583.000,17668,3,MX,1,100,-28
1576517136.361981,104617.333,17686,3,MX,1,100,-27
1576517136.402790,104651.667,17686,3,MX,1,100,-28
1576517136.443599,104686.000,17686,3,MX,1,100,-29
1576517136.482426,104718.667,17702,3,MX,1,100,-28
1576517136.521254,104751.333,17702,3,MX,1,100,-28
1576517136.560081,104784.000,17702,3,MX,1,100,-27
1576517136.600097,104817.667,17721,3,MX,1,100,-28
1576517136.640114,104851.333,17721,3,MX,1,100,-27
1576517136.680130,104885.000,17721,3,MX,1,100,-29
1576517136.721731,104920.000,17739,3,MX,1,100,-27
1576517136.763332,104955.000,17739,3,MX,1,100,-29
1576517136.804933,104990.000,17739,3,MX,1,100,-28
1576517136.846138,105024.667,17757,3,MX,1,100,-28
1576517136.887343,105059.333,17757,3,MX,1,100,-27
1576517136.928547,105094.000,17757,3,MX,1,100,-28
1576517136.966345,105125.800,17778,5,MX,1,100,-27
1576517137.004143,105157.600,17778,5,MX,1,100,-28
1576517137.041940,105189.400,17778,5,MX,1,100,-28
1576517137.079737,105221.200,17778,5,MX,1,100,-27
1576517137.117535,105253.000,17778,5,MX,1,100,-28
1576517137.162107,105290.500,17798,2,MX,1,100,-29
1576517137.206680,105328.000,17798,2,MX,1,100,-28
1576517137.247885,105362.667,17814,3,MX,1,100,-29
1576517137.289090,105397.333,17814,3,MX,1,100,-28
1576517137.330295,105432.000,17814,3,MX,1,100,-28
1576517137.371499,105466.667,17832,3,MX,1,100,-28
1576517137.412704,105501.333,17832,3,MX,1,100,-27
1576517137.453909,105536.000,17832,3,MX,1,100,-26
1576517137.495510,105571.000,17851,3,MX,1,100,-27
1576517137.537111,105606.000,17851,3,MX,1,100,-28
1576517137.578712,105641.000,17851,3,MX,1,100,-28
1576517137.615559,105672.000,17869,3,MX,1,100,-28
1576517137.652405,105703.000,17869,3,MX,1,100,-28
1576517137.689252,105734.000,17869,3,MX,1,100,-28
1576517137.734023,105771.667,17887,3,MX,1,100,-28
1576517137.778793,105809.333,17887,3,MX,1,100,-28
1576517137.823564,105847.000,17887,3,MX,1,100,-27
1576517137.865165,105882.000,17905,3,MX,1,100,-26
1576517137.906766,105917.000,17905,3,MX,1,100,-28
1576517137.948367,105952.000,17905,3,MX,1,100,-27
1576517137.987987,105985.333,17922,3,MX,1,100,-28
1576517138.027607,106018.667,17922,3,MX,1,100,-28
1576517138.067227,106052.000,17922,3,MX,1,100,-27
1576517138.105659,106084.333,17940,3,MX,1,100,-26
1576517138.144090,106116.667,17940,3,MX,1,100,-26
1576517138.182521,106149.000,17940,3,MX,1,100,-28
1576517138.220953,106181.333,17958,3,MX,1,100,-27
1576517138.259384,106213.667,17958,3,MX,1,100,-28
1576517138.297816,106246.000,17958,3,MX,1,100,-28
1576517138.339020,106280.667,17974,3,MX,1,100,-28
1576517138.380225,106315.333,17974,3,MX,1,100,-27
1576517138.421430,106350.000,17974,3,MX,1,100,-28
1576517138.466201,106387.667,17992,3,MX,1,100,-27
1576517138.510971,106425.333,17992,3,MX,1,100,-28
1576517138.555742,106463.000,17992,3,MX,1,100,-28
1576517138.596154,106497.000,18011,3,MX,1,100,-27
1576517138.636567,106531.000,18011,3,MX,1,100,-28
1576517138.676979,106565.000,18011,3,MX,1,100,-28
1576517138.714618,106596.667,18029,3,MX,1,100,-26
1576517138.752257,106628.333,18029,3,MX,1,100,-29
1576517138.789896,106660.000,18029,3,MX,1,100,-28
1576517138.829120,106693.000,18047,3,MX,1,100,-28
1576517138.868344,106726.000,18047,3,MX,1,100,-29
1576517138.907568,106759.000,18047,3,MX,1,100,-27
1576517138.947980,106793.000,18065,3,MX,1,100,-27
1576517138.988393,106827.000,18065,3,MX,1,100,-28
1576517139.028805,106861.000,18065,3,MX,1,100,-27
1576517139.069614,106895.333,18083,3,MX,1,100,-29
1576517139.110422,106929.667,18083,3,MX,1,100,-28
1576517139.151231,106964.000,18083,3,MX,1,100,-28
1576517139.192436,106998.667,18100,3,MX,1,100,-28
1576517139.233640,107033.333,18100,3,MX,1,100,-29
1576517139.274845,107068.000,18100,3,MX,1,100,-27
1576517139.316050,107102.667,18118,3,MX,1,100,-28
1576517139.357255,107137.333,18118,3,MX,1,100,-27
1576517139.398460,107172.000,18118,3,MX,1,100,-26
1576517139.437684,107205.000,18136,3,MX,1,100,-27
1576517139.476907,107238.000,18136,3,MX,1,100,-28
1576517139.516131,107271.000,18136,3,MX,1,100,-28
1576517139.557336,107305.667,18153,3,MX,1,100,-28
1576517139.598541,107340.333,18153,3,MX,1,100,-28
1576517139.639746,107375.000,18153,3,MX,1,100,-28
1576517139.681347,107410.000,18171,3,MX,1,100,-28
1576517139.722948,107445.000,18171,3,MX,1,100,-28
1576517139.764549,107480.000,18171,3,MX,1,100,-27
1576517139.806150,107515.000,18189,2,MX,1,100,-28
1576517139.847751,107550.000,18189,2,MX,1,100,-27
1576517139.885786,107582.000,18207,4,MX,1,100,-27
1576517139.923821,107614.000,18207,4,MX,1,100,-26
1576517139.961857,107646.000,18207,4,MX,1,100,-27
1576517139.999892,107678.000,18207,4,MX,1,100,-29
1576517140.038521,107710.500,18225,2,MX,1,100,-26
1576517140.077151,107743.000,18225,2,MX,1,100,-27
1576517140.121129,107780.000,18243,3,MX,1,100,-27
1576517140.165107,107817.000,18243,3,MX,1,100,-26
1576517140.209085,107854.000,18243,3,MX,1,100,-28
1576517140.250290,107888.667,18261,3,MX,1,100,-26
1576517140.291495,107923.333,18261,3,MX,1,100,-26
1576517140.332700,107958.000,18261,3,MX,1,100,-27
1576517140.373509,107992.333,18278,3,MX,1,100,-26
1576517140.414317,108026.667,18278,3,MX,1,100,-27
1576517140.455126,108061.000,18278,3,MX,1,100,-26
1576517140.494746,108094.333,18297,3,MX,1,100,-27
1576517140.534366,108127.667,18297,3,MX,1,100,-27
1576517140.573986,108161.000,18297,3,MX,1,100,-26
1576517140.611427,108192.500,18315,4,MX,1,100,-27
1576517140.648868,108224.000,18315,4,MX,1,100,-27
1576517140.686309,108255.500,18315,4,MX,1,100,-28
1576517140.723750,108287.000,18315,4,MX,1,100,-26
1576517140.764162,108321.000,18331,3,MX,1,100,-26
1576517140.804574,108355.000,18331,3,MX,1,100,-27
1576517140.844987,108389.000,18331,3,MX,1,100,-27
1576517140.891937,108428.500,18349,2,MX,1,100,-28
1576517140.938886,108468.000,18349,2,MX,1,100,-27
1576517140.977318,108500.333,18367,3,MX,1,100,-26
1576517141.015749,108532.667,18367,3,MX,1,100,-26
1576517141.054181,108565.000,18367,3,MX,1,100,-26
1576517141.099347,108603.000,18385,3,MX,1,100,-27
1576517141.144514,108641.000,18385,3,MX,1,100,-26
1576517141.189681,108679.000,18385,3,MX,1,100,-27
1576517141.227320,108710.667,18403,3,MX,1,100,-26
1576517141.264959,108742.333,18403,3,MX,1,100,-28
1576517141.302598,108774.000,18403,3,MX,1,100,-27
1576517141.347369,108811.667,18421,3,MX,1,100,-28
1576517141.392139,108849.333,18421,3,MX,1,100,-27
1576517141.436910,108887.000,18421,3,MX,1,100,-27
1576517141.478511,108922.000,18438,2,MX,1,100,-28
1576517141.520112,108957.000,18438,2,MX,1,100,-27
1576517141.558742,108989.500,18457,4,MX,1,100,-27
1576517141.597371,109022.000,18457,4,MX,1,100,-27
1576517141.636001,109054.500,18457,4,MX,1,100,-26
1576517141.674630,109087.000,18457,4,MX,1,100,-27
1576517141.713854,109120.000,18475,3,MX,1,100,-28
1576517141.753078,109153.000,18475,3,MX,1,100,-27
1576517141.792302,109186.000,18475,3,MX,1,100,-27
1576517141.832714,109220.000,18491,3,MX,1,100,-27
1576517141.873127,109254.000,18491,3,MX,1,100,-26
1576517141.913539,109288.000,18491,3,MX,1,100,-26
1576517141.955140,109323.000,18509,3,MX,1,100,-27
1576517141.996741,109358.000,18509,3,MX,1,100,-27
1576517142.038342,109393.000,18509,3,MX,1,100,-27
1576517142.079151,109427.333,18527,3,MX,1,100,-26
1576517142.119959,109461.667,18527,3,MX,1,100,-27
1576517142.160768,109496.000,18527,3,MX,1,100,-26
1576517142.201973,109530.667,18545,3,MX,1,100,-27
1576517142.243178,109565.333,18545,3,MX,1,100,-26
1576517142.284382,109600.000,18545,3,MX,1,100,-28
1576517142.326578,109635.500,18563,2,MX,1,100,-27
1576517142.368773,109671.000,18563,2,MX,1,100,-28
1576517142.410770,109706.333,18581,3,MX,1,100,-26
1576517142.452767,109741.667,18581,3,MX,1,100,-27
1576517142.494765,109777.000,18581,3,MX,1,100,-28
1576517142.533097,109809.250,18600,4,MX,1,100,-28
1576517142.571429,109841.500,18600,4,MX,1,100,-27
1576517142.609762,109873.750,18600,4,MX,1,100,-26
1576517142.648094,109906.000,18600,4,MX,1,100,-28
1576517142.688507,109940.000,18617,2,MX,1,100,-28
1576517142.728919,109974.000,18617,2,MX,1,100,-26
1576517142.769728,110008.333,18635,3,MX,1,100,-28
1576517142.810536,110042.667,18635,3,MX,1,100,-27
1576517142.851345,110077.000,18635,3,MX,1,100,-26
1576517142.892550,110111.667,18651,3,MX,1,100,-28
1576517142.933754,110146.333,18651,3,MX,1,100,-27
1576517142.974959,110181.000,18651,3,MX,1,100,-28
1576517143.013470,110213.400,18672,5,MX,1,100,-28
1576517143.051981,110245.800,18672,5,MX,1,100,-26
1576517143.090491,110278.200,18672,5,MX,1,100,-28
1576517143.129002,110310.600,18672,5,MX,1,100,-27
1576517143.167513,110343.000,18672,5,MX,1,100,-27
1576517143.210699,110379.333,18692,3,MX,1,100,-27
1576517143.253884,110415.667,18692,3,MX,1,100,-28
1576517143.297070,110452.000,18692,3,MX,1,100,-28
1576517143.337879,110486.333,18709,3,MX,1,100,-28
1576517143.378687,110520.667,18709,3,MX,1,100,-27
1576517143.419496,110555.000,18709,3,MX,1,100,-28
1576517143.460701,110589.667,18727,3,MX,1,100,-28
1576517143.501906,110624.333,18727,3,MX,1,100,-28
1576517143.543111,110659.000,18727,3,MX,1,100,-28
1576517143.584315,110693.667,18744,3,MX,1,100,-28
1576517143.625520,110728.333,18744,3,MX,1,100,-27
1576517143.666725,110763.000,18744,3,MX,1,100,-28
1576517143.704364,110794.667,18762,3,MX,1,100,-26
1576517143.742003,110826.333,18762,3,MX,1,100,-28
1576517143.779642,110858.000,18762,3,MX,1,100,-28
1576517143.818470,110890.667,18780,3,MX,1,100,-28
1576517143.857297,110923.333,18780,3,MX,1,100,-28
1576517143.896125,110956.000,18780,3,MX,1,100,-26
1576517143.936934,110990.333,18798,3,MX,1,100,-27
1576517143.977742,111024.667,18798,3,MX,1,100,-28
1576517144.018551,111059.000,18798,3,MX,1,100,-28
1576517144.063718,111097.000,18816,3,MX,1,100,-27
1576517144.108885,111135.000,18816,3,MX,1,100,-27
1576517144.154051,111173.000,18816,3,MX,1,100,-26
1576517144.194067,111206.667,18834,3,MX,1,100,-27
1576517144.234084,111240.333,18834,3,MX,1,100,-28
1576517144.274100,111274.000,18834,3,MX,1,100,-28
1576517144.312135,111306.000,18852,3,MX,1,100,-26
1576517144.350170,111338.000,18852,3,MX,1,100,-27
1576517144.388206,111370.000,18852,3,MX,1,100,-27
1576517144.425448,111401.333,18870,3,MX,1,100,-26
1576517144.462691,111432.667,18870,3,MX,1,100,-27
1576517144.499934,111464.000,18870,3,MX,1,100,-28
1576517144.540743,111498.333,18889,3,MX,1,100,-29
1576517144.581551,111532.667,18889,3,MX,1,100,-28
1576517144.622360,111567.000,18889,3,MX,1,100,-27
1576517144.663565,111601.667,18906,3,MX,1,100,-26
1576517144.704770,111636.333,18906,3,MX,1,100,-28
1576517144.745975,111671.000,18906,3,MX,1,100,-28
1576517144.792924,111710.500,18924,2,MX,1,100,-27
1576517144.839874,111750.000,18924,2,MX,1,100,-28
1576517144.878305,111782.333,18940,3,MX,1,100,-26
1576517144.916737,111814.667,18940,3,MX,1,100,-28
1576517144.955168,111847.000,18940,3,MX,1,100,-27
1576517144.992807,111878.667,18958,3,MX,1,100,-27
1576517145.030446,111910.333,18958,3,MX,1,100,-27
1576517145.068085,111942.000,18958,3,MX,1,100,-27
1576517145.107309,111975.000,18976,4,MX,1,100,-27
1576517145.146533,112008.000,18976,4,MX,1,100,-27
1576517145.185757,112041.000,18976,4,MX,1,100,-26
1576517145.224981,112074.000,18976,4,MX,1,100,-27
1576517145.266978,112109.333,18994,3,MX,1,100,-27
1576517145.308975,112144.667,18994,3,MX,1,100,-26
1576517145.350972,112180.000,18994,3,MX,1,100,-27
1576517145.388611,112211.667,19012,3,MX,1,100,-28
1576517145.426250,112243.333,19012,3,MX,1,100,-26
1576517145.463889,112275.000,19012,3,MX,1,100,-27
1576517145.503906,112308.667,19031,3,MX,1,100,-27
1576517145.543922,112342.333,19031,3,MX,1,100,-28
1576517145.583938,112376.000,19031,3,MX,1,100,-29
1576517145.624350,112410.000,19049,3,MX,1,100,-27
1576517145.664763,112444.000,19049,3,MX,1,100,-27
1576517145.705175,112478.000,19049,3,MX,1,100,-29
1576517145.746776,112513.000,19067,3,MX,1,100,-27
1576517145.788377,112548.000,19067,3,MX,1,100,-27
1576517145.829978,112583.000,19067,3,MX,1,100,-28
1576517145.871579,112618.000,19084,2,MX,1,100,-27
1576517145.913180,112653.000,19084,2,MX,1,100,-29
1576517145.953890,112687.250,19102,4,MX,1,100,-26
1576517145.994600,112721.500,19102,4,MX,1,100,-28
1576517146.035309,112755.750,19102,4,MX,1,100,-27
1576517146.076019,112790.000,19102,4,MX,1,100,-27
1576517146.116431,112824.000,19118,2,MX,1,100,-28
1576517146.156843,112858.000,19118,2,MX,1,100,-27
1576517146.194582,112889.750,19136,4,MX,1,100,-28
1576517146.232320,112921.500,19136,4,MX,1,100,-27
1576517146.270058,112953.250,19136,4,MX,1,100,-28
1576517146.307796,112985.000,19136,4,MX,1,100,-27
1576517146.347614,113018.500,19154,2,MX,1,100,-27
1576517146.387432,113052.000,19154,2,MX,1,100,-28
1576517146.431410,113089.000,19172,3,MX,1,100,-26
1576517146.475389,113126.000,19172,3,MX,1,100,-27
1576517146.519367,113163.000,19172,3,MX,1,100,-27
1576517146.560175,113197.333,19191,3,MX,1,100,-28
1576517146.600984,113231.667,19191,3,MX,1,100,-27
1576517146.641793,113266.000,19191,3,MX,1,100,-28
1576517146.682205,113300.000,19209,3,MX,1,100,-28
1576517146.722617,113334.000,19209,3,MX,1,100,-28
1576517146.763030,113368.000,19209,3,MX,1,100,-28
1576517146.801065,113400.000,19227,4,MX,1,100,-27
1576517146.839100,113432.000,19227,4,MX,1,100,-28
1576517146.877136,113464.000,19227,4,MX,1,100,-29
1576517146.915171,113496.000,19227,4,MX,1,100,-27
1576517146.953998,113528.667,19245,3,MX,1,100,-28
1576517146.992826,113561.333,19245,3,MX,1,100,-28
1576517147.031654,113594.000,19245,3,MX,1,100,-26
1576517147.072066,113628.000,19262,2,MX,1,100,-28
1576517147.112478,113662.000,19262,2,MX,1,100,-28
1576517147.156853,113699.333,19280,3,MX,1,100,-27
1576517147.201227,113736.667,19280,3,MX,1,100,-28
1576517147.245602,113774.000,19280,3,MX,1,100,-27
1576517147.286807,113808.667,19296,3,MX,1,100,-26
1576517147.328012,113843.333,19296,3,MX,1,100,-27
1576517147.369216,113878.000,19296,3,MX,1,100,-27
1576517147.407251,113910.000,19314,3,MX,1,100,-26
1576517147.445287,113942.000,19314,3,MX,1,100,-27
1576517147.483322,113974.000,19314,3,MX,1,100,-27
1576517147.521951,114006.500,19333,4,MX,1,100,-27
1576517147.560581,114039.000,19333,4,MX,1,100,-27
1576517147.599211,114071.500,19333,4,MX,1,100,-27
1576517147.637840,114104.000,19333,4,MX,1,100,-29
1576517147.678252,114138.000,19351,2,MX,1,100,-28
1576517147.718665,114172.000,19351,2,MX,1,100,-26
1576517147.760266,114207.000,19369,3,MX,1,100,-26
1576517147.801867,114242.000,19369,3,MX,1,100,-26
1576517147.843468,114277.000,19369,3,MX,1,100,-28
1576517147.888635,114315.000,19387,3,MX,1,100,-27
1576517147.933802,114353.000,19387,3,MX,1,100,-26
1576517147.978968,114391.000,19387,3,MX,1,100,-28
1576517148.015419,114421.667,19405,3,MX,1,100,-26
1576517148.051869,114452.333,19405,3,MX,1,100,-27
1576517148.088320,114483.000,19405,3,MX,1,100,-27
1576517148.127543,114516.000,19423,3,MX,1,100,-27
1576517148.166767,114549.000,19423,3,MX,1,100,-27
1576517148.205991,114582.000,19423,3,MX,1,100,-27
1576517148.245611,114615.333,19441,3,MX,1,100,-27
1576517148.285231,114648.667,19441,3,MX,1,100,-26
1576517148.324851,114682.000,19441,3,MX,1,100,-27
1576517148.366056,114716.667,19458,3,MX,1,100,-26
1576517148.407261,114751.333,19458,3,MX,1,100,-27
1576517148.448466,114786.000,19458,3,MX,1,100,-26
1576517148.489671,114820.667,19477,3,MX,1,100,-26
1576517148.530875,114855.333,19477,3,MX,1,100,-28
1576517148.572080,114890.000,19477,3,MX,1,100,-27
1576517148.613681,114925.000,19495,3,MX,1,100,-27
1576517148.655282,114960.000,19495,3,MX,1,100,-26
1576517148.696883,114995.000,19495,3,MX,1,100,-27
1576517148.733334,115025.667,19511,3,MX,1,100,-26
1576517148.769784,115056.333,19511,3,MX,1,100,-26
1576517148.806235,115087.000,19511,3,MX,1,100,-27
1576517148.847043,115121.333,19529,3,MX,1,100,-28
1576517148.887852,115155.667,19529,3,MX,1,100,-26
1576517148.928660,115190.000,19529,3,MX,1,100,-27
1576517148.964913,115220.500,19547,4,MX,1,100,-25
1576517149.001165,115251.000,19547,4,MX,1,100,-26
1576517149.037417,115281.500,19547,4,MX,1,100,-28
1576517149.073670,115312.000,19547,4,MX,1,100,-28
1576517149.114676,115346.500,19568,4,MX,1,100,-26
1576517149.155683,115381.000,19568,4,MX,1,100,-27
1576517149.196690,115415.500,19568,4,MX,1,100,-28
1576517149.237697,115450.000,19568,4,MX,1,100,-28
1576517149.278505,115484.333,19587,3,MX,1,100,-27
1576517149.319314,115518.667,19587,3,MX,1,100,-28
1576517149.360122,115553.000,19587,3,MX,1,100,-28
1576517149.400535,115587.000,19605,3,MX,1,100,-28
1576517149.440947,115621.000,19605,3,MX,1,100,-28
1576517149.481360,115655.000,19605,3,MX,1,100,-26
1576517149.522961,115690.000,19622,3,MX,1,100,-27
1576517149.564562,115725.000,19622,3,MX,1,100,-28
1576517149.606163,115760.000,19622,3,MX,1,100,-27
1576517149.644594,115792.333,19640,3,MX,1,100,-28
1576517149.683026,115824.667,19640,3,MX,1,100,-28
1576517149.721457,115857.000,19640,3,MX,1,100,-28
1576517149.759492,115889.000,19658,3,MX,1,100,-28
1576517149.797528,115921.000,19658,3,MX,1,100,-28
1576517149.835563,115953.000,19658,3,MX,1,100,-28
1576517149.877560,115988.333,19676,3,MX,1,100,-27
1576517149.919557,116023.667,19676,3,MX,1,100,-28
1576517149.961555,116059.000,19676,3,MX,1,100,-27
1576517150.000382,116091.667,19694,3,MX,1,100,-27
1576517150.039210,116124.333,19694,3,MX,1,100,-28
1576517150.078037,116157.000,19694,3,MX,1,100,-28
1576517150.122808,116194.667,19712,3,MX,1,100,-28
1576517150.167578,116232.333,19712,3,MX,1,100,-28
1576517150.212349,116270.000,19712,3,MX,1,100,-28
1576517150.253158,116304.333,19730,3,MX,1,100,-29
1576517150.293967,116338.667,19730,3,MX,1,100,-28
1576517150.334775,116373.000,19730,3,MX,1,100,-28
1576517150.376376,116408.000,19747,3,MX,1,100,-27
1576517150.417977,116443.000,19747,3,MX,1,100,-28
1576517150.459578,116478.000,19747,3,MX,1,100,-27
1576517150.496821,116509.333,19766,3,MX,1,100,-27
1576517150.534064,116540.667,19766,3,MX,1,100,-28
1576517150.571307,116572.000,19766,3,MX,1,100,-29
1576517150.610134,116604.667,19784,3,MX,1,100,-28
1576517150.648962,116637.333,19784,3,MX,1,100,-29
1576517150.687789,116670.000,19784,3,MX,1,100,-28
1576517150.727806,116703.667,19800,3,MX,1,100,-28
1576517150.767822,116737.333,19800,3,MX,1,100,-27
1576517150.807838,116771.000,19800,3,MX,1,100,-28
1576517150.849043,116805.667,19818,3,MX,1,100,-28
1576517150.890248,116840.333,19818,3,MX,1,100,-28
1576517150.931453,116875.000,19818,3,MX,1,100,-28
1576517150.978997,116915.000,19836,2,MX,1,100,-28
1576517151.026541,116955.000,19836,2,MX,1,100,-28
1576517151.065170,116987.500,19854,4,MX,1,100,-28
1576517151.103800,117020.000,19854,4,MX,1,100,-27
1576517151.142429,117052.500,19854,4,MX,1,100,-28
1576517151.181059,117085.000,19854,4,MX,1,100,-27
1576517151.218698,117116.667,19872,3,MX,1,100,-27
1576517151.256337,117148.333,19872,3,MX,1,100,-28
1576517151.293976,117180.000,19872,3,MX,1,100,-27
1576517151.335181,117214.667,19890,3,MX,1,100,-29
1576517151.376385,117249.333,19890,3,MX,1,100,-28
1576517151.417590,117284.000,19890,3,MX,1,100,-28
1576517151.459191,117319.000,19908,3,MX,1,100,-27
1576517151.500792,117354.000,19908,3,MX,1,100,-28
1576517151.542393,117389.000,19908,3,MX,1,100,-28
1576517151.583994,117424.000,19926,2,MX,1,100,-28
1576517151.625595,117459.000,19926,2,MX,1,100,-28
1576517151.668781,117495.333,19944,3,MX,1,100,-28
1576517151.711967,117531.667,19944,3,MX,1,100,-28
1576517151.755153,117568.000,19944,3,MX,1,100,-28
1576517151.792594,117599.500,19962,4,MX,1,100,-29
1576517151.830035,117631.000,19962,4,MX,1,100,-27
1576517151.867476,117662.500,19962,4,MX,1,100,-28
1576517151.904917,117694.000,19962,4,MX,1,100,-29
1576517151.945725,117728.333,19978,3,MX,1,100,-28
1576517151.986534,117762.667,19978,3,MX,1,100,-28
1576517152.027343,117797.000,19978,3,MX,1,100,-28
1576517152.068349,117831.500,19996,2,MX,1,100,-28
1576517152.109356,117866.000,19996,2,MX,1,100,-28
1576517152.150165,117900.333,20014,3,MX,1,100,-28
1576517152.190973,117934.667,20014,3,MX,1,100,-28
1576517152.231782,117969.000,20014,3,MX,1,100,-28
1576517152.272987,118003.667,20032,3,MX,1,100,-28
1576517152.314191,118038.333,20032,3,MX,1,100,-28
1576517152.355396,118073.000,20032,3,MX,1,100,-27
1576517152.392243,118104.000,20050,3,MX,1,100,-28
1576517152.429090,118135.000,20050,3,MX,1,100,-28
1576517152.465936,118166.000,20050,3,MX,1,100,-28
1576517152.504863,118198.750,20069,4,MX,1,100,-28
1576517152.543789,118231.500,20069,4,MX,1,100,-28
1576517152.582716,118264.250,20069,4,MX,1,100,-28
1576517152.621643,118297.000,20069,4,MX,1,100,-29
1576517152.660470,118329.667,20087,3,MX,1,100,-27
1576517152.699298,118362.333,20087,3,MX,1,100,-28
1576517152.738126,118395.000,20087,3,MX,1,100,-28
1576517152.784481,118434.000,20105,2,MX,1,100,-28
1576517152.830837,118473.000,20105,2,MX,1,100,-29
1576517152.872438,118508.000,20122,3,MX,1,100,-27
1576517152.914039,118543.000,20122,3,MX,1,100,-28
1576517152.955640,118578.000,20122,3,MX,1,100,-28
1576517152.996052,118612.000,20140,3,MX,1,100,-28
1576517153.036464,118646.000,20140,3,MX,1,100,-27
1576517153.076877,118680.000,20140,3,MX,1,100,-28
1576517153.118082,118714.667,20156,3,MX,1,100,-28
1576517153.159286,118749.333,20156,3,MX,1,100,-28
1576517153.200491,118784.000,20156,3,MX,1,100,-28
1576517153.242092,118819.000,20174,3,MX,1,100,-28
1576517153.283694,118854.000,20174,3,MX,1,100,-27
1576517153.325294,118889.000,20174,3,MX,1,100,-28
1576517153.364122,118921.667,20192,3,MX,1,100,-28
1576517153.402950,118954.333,20192,3,MX,1,100,-28
1576517153.441777,118987.000,20192,3,MX,1,100,-28
1576517153.480209,119019.333,20211,3,MX,1,100,-28
1576517153.518640,119051.667,20211,3,MX,1,100,-27
1576517153.557072,119084.000,20211,3,MX,1,100,-26
1576517153.595899,119116.667,20229,3,MX,1,100,-27
1576517153.634727,119149.333,20229,3,MX,1,100,-27
1576517153.673554,119182.000,20229,3,MX,1,100,-28
1576517153.714759,119216.667,20247,3,MX,1,100,-27
1576517153.755964,119251.333,20247,3,MX,1,100,-28
1576517153.797169,119286.000,20247,3,MX,1,100,-28
1576517153.837581,119320.000,20265,3,MX,1,100,-28
1576517153.877994,119354.000,20265,3,MX,1,100,-28
1576517153.918406,119388.000,20265,3,MX,1,100,-26
1576517153.963573,119426.000,20282,3,MX,1,100,-27
1576517154.008740,119464.000,20282,3,MX,1,100,-26
1576517154.053907,119502.000,20282,3,MX,1,100,-28
1576517154.091942,119534.000,20300,3,MX,1,100,-26
1576517154.129977,119566.000,20300,3,MX,1,100,-28
1576517154.168012,119598.000,20300,3,MX,1,100,-27
1576517154.210010,119633.333,20318,3,MX,1,100,-27
1576517154.252007,119668.667,20318,3,MX,1,100,-28
1576517154.294004,119704.000,20318,3,MX,1,100,-28
1576517154.332039,119736.000,20334,3,MX,1,100,-28
1576517154.370075,119768.000,20334,3,MX,1,100,-28
1576517154.408110,119800.000,20334,3,MX,1,100,-27
1576517154.447730,119833.333,20352,3,MX,1,100,-28
1576517154.487350,119866.667,20352,3,MX,1,100,-28
1576517154.526970,119900.000,20352,3,MX,1,100,-27
1576517154.568175,119934.667,20371,3,MX,1,100,-27
1576517154.609380,119969.333,20371,3,MX,1,100,-28
1576517154.650584,120004.000,20371,3,MX,1,100,-28
1576517154.690997,120038.000,20389,3,MX,1,100,-29
1576517154.731409,120072.000,20389,3,MX,1,100,-28
1576517154.771821,120106.000,20389,3,MX,1,100,-28
1576517154.814611,120142.000,20407,3,MX,1,100,-28
1576517154.857401,120178.000,20407,3,MX,1,100,-28
1576517154.900190,120214.000,20407,3,MX,1,100,-28
1576517154.938622,120246.333,20425,3,MX,1,100,-28
1576517154.977053,120278.667,20425,3,MX,1,100,-27
1576517155.015485,120311.000,20425,3,MX,1,100,-27
1576517155.055501,120344.667,20443,3,MX,1,100,-27
1576517155.095517,120378.333,20443,3,MX,1,100,-29
1576517155.135533,120412.000,20443,3,MX,1,100,-28
1576517155.176897,120446.800,20464,5,MX,1,100,-26
1576517155.218260,120481.600,20464,5,MX,1,100,-27
1576517155.259623,120516.400,20464,5,MX,1,100,-27
1576517155.300987,120551.200,20464,5,MX,1,100,-27
1576517155.342350,120586.000,20464,5,MX,1,100,-26
1576517155.384545,120621.500,20484,2,MX,1,100,-27
1576517155.426741,120657.000,20484,2,MX,1,100,-28
1576517155.464776,120689.000,20502,3,MX,1,100,-29
1576517155.502811,120721.000,20502,3,MX,1,100,-27
1576517155.540846,120753.000,20502,3,MX,1,100,-27
1576517155.578089,120784.333,20521,3,MX,1,100,-26
1576517155.615332,120815.667,20521,3,MX,1,100,-27
1576517155.652575,120847.000,20521,3,MX,1,100,-28
1576517155.697345,120884.667,20539,3,MX,1,100,-26
1576517155.742116,120922.333,20539,3,MX,1,100,-27
1576517155.786887,120960.000,20539,3,MX,1,100,-26
1576517155.828091,120994.667,20557,3,MX,1,100,-27
1576517155.869296,121029.333,20557,3,MX,1,100,-27
1576517155.910501,121064.000,20557,3,MX,1,100,-27
1576517155.951310,121098.333,20574,3,MX,1,100,-28
1576517155.992118,121132.667,20574,3,MX,1,100,-26
1576517156.032927,121167.000,20574,3,MX,1,100,-27
1576517156.072151,121200.000,20592,3,MX,1,100,-28
1576517156.111375,121233.000,20592,3,MX,1,100,-27
1576517156.150598,121266.000,20592,3,MX,1,100,-27
1576517156.187445,121297.000,20610,3,MX,1,100,-28
1576517156.224292,121328.000,20610,3,MX,1,100,-28
1576517156.261138,121359.000,20610,3,MX,1,100,-29
1576517156.302343,121393.667,20626,3,MX,1,100,-29
1576517156.343548,121428.333,20626,3,MX,1,100,-28
1576517156.384753,121463.000,20626,3,MX,1,100,-28
1576517156.422788,121495.000,20644,3,MX,1,100,-29
1576517156.460823,121527.000,20644,3,MX,1,100,-28
1576517156.498858,121559.000,20644,3,MX,1,100,-27
1576517156.544421,121597.333,20663,3,MX,1,100,-27
1576517156.589984,121635.667,20663,3,MX,1,100,-27
1576517156.635547,121674.000,20663,3,MX,1,100,-26
1576517156.676752,121708.667,20681,3,MX,1,100,-28
1576517156.717957,121743.333,20681,3,MX,1,100,-29
1576517156.759162,121778.000,20681,3,MX,1,100,-28
1576517156.799971,121812.333,20699,3,MX,1,100,-27
1576517156.840779,121846.667,20699,3,MX,1,100,-28
1576517156.881588,121881.000,20699,3,MX,1,100,-26
1576517156.922793,121915.667,20717,3,MX,1,100,-29
1576517156.963998,121950.333,20717,3,MX,1,100,-28
1576517157.005202,121985.000,20717,3,MX,1,100,-27
1576517157.046407,122019.667,20734,3,MX,1,100,-28
1576517157.087612,122054.333,20734,3,MX,1,100,-28
1576517157.128817,122089.000,20734,3,MX,1,100,-28
1576517157.166456,122120.667,20752,3,MX,1,100,-28
1576517157.204095,122152.333,20752,3,MX,1,100,-28
1576517157.241734,122184.000,20752,3,MX,1,100,-28
1576517157.281354,122217.333,20770,3,MX,1,100,-28
1576517157.320974,122250.667,20770,3,MX,1,100,-28
1576517157.360594,122284.000,20770,3,MX,1,100,-28
1576517157.401006,122318.000,20786,3,MX,1,100,-28
1576517157.441419,122352.000,20786,3,MX,1,100,-28
1576517157.481831,122386.000,20786,3,MX,1,100,-26
1576517157.523036,122420.667,20805,3,MX,1,100,-28
1576517157.564241,122455.333,20805,3,MX,1,100,-28
1576517157.605446,122490.000,20805,3,MX,1,100,-27
1576517157.646651,122524.667,20823,3,MX,1,100,-28
1576517157.687855,122559.333,20823,3,MX,1,100,-28
1576517157.729060,122594.000,20823,3,MX,1,100,-29
1576517157.769869,122628.333,20841,3,MX,1,100,-26
1576517157.810677,122662.667,20841,3,MX,1,100,-28
1576517157.851486,122697.000,20841,3,MX,1,100,-27
1576517157.891898,122731.000,20859,3,MX,1,100,-29
1576517157.932311,122765.000,20859,3,MX,1,100,-27
1576517157.972723,122799.000,20859,3,MX,1,100,-29
1576517158.013928,122833.667,20877,3,MX,1,100,-27
1576517158.055133,122868.333,20877,3,MX,1,100,-29
1576517158.096338,122903.000,20877,3,MX,1,100,-27
1576517158.134769,122935.333,20895,3,MX,1,100,-28
1576517158.173201,122967.667,20895,3,MX,1,100,-28
1576517158.211632,123000.000,20895,3,MX,1,100,-28
1576517158.252044,123034.000,20913,3,MX,1,100,-28
1576517158.292457,123068.000,20913,3,MX,1,100,-27
1576517158.332869,123102.000,20913,3,MX,1,100,-28
1576517158.374074,123136.667,20930,3,MX,1,100,-28
1576517158.415279,123171.333,20930,3,MX,1,100,-28
1576517158.456484,123206.000,20930,3,MX,1,100,-27
1576517158.497490,123240.500,20947,2,MX,1,100,-29
1576517158.538497,123275.000,20947,2,MX,1,100,-28
1576517158.580891,123310.667,20965,3,MX,1,100,-29
1576517158.623284,123346.333,20965,3,MX,1,100,-29
1576517158.665678,123382.000,20965,3,MX,1,100,-29
1576517158.703713,123414.000,20983,4,MX,1,100,-28
1576517158.741748,123446.000,20983,4,MX,1,100,-28
1576517158.779783,123478.000,20983,4,MX,1,100,-29
1576517158.817818,123510.000,20983,4,MX,1,100,-29
1576517158.859023,123544.667,21001,3,MX,1,100,-29
1576517158.900228,123579.333,21001,3,MX,1,100,-28
1576517158.941433,123614.000,21001,3,MX,1,100,-30
1576517158.982440,123648.500,21019,2,MX,1,100,-28
1576517159.023446,123683.000,21019,2,MX,1,100,-29
1576517159.064651,123717.667,21037,3,MX,1,100,-28
1576517159.105856,123752.333,21037,3,MX,1,100,-28
1576517159.147061,123787.000,21037,3,MX,1,100,-28
1576517159.185393,123819.250,21055,4,MX,1,100,-28
1576517159.223726,123851.500,21055,4,MX,1,100,-27
1576517159.262058,123883.750,21055,4,MX,1,100,-29
1576517159.300390,123916.000,21055,4,MX,1,100,-29
1576517159.338426,123948.000,21073,2,MX,1,100,-28
1576517159.376461,123980.000,21073,2,MX,1,100,-28
1576517159.420439,124017.000,21091,3,MX,1,100,-29
1576517159.464417,124054.000,21091,3,MX,1,100,-29
1576517159.508395,124091.000,21091,3,MX,1,100,-30
1576517159.549600,124125.667,21109,3,MX,1,100,-28
1576517159.590805,124160.333,21109,3,MX,1,100,-29
1576517159.632010,124195.000,21109,3,MX,1,100,-29
1576517159.673611,124230.000,21127,3,MX,1,100,-29
1576517159.715212,124265.000,21127,3,MX,1,100,-29
1576517159.756813,124300.000,21127,3,MX,1,100,-28
1576517159.795641,124332.667,21143,3,MX,1,100,-29
1576517159.834468,124365.333,21143,3,MX,1,100,-29
1576517159.873296,124398.000,21143,3,MX,1,100,-29
1576517159.911331,124430.000,21161,3,MX,1,100,-29
1576517159.949366,124462.000,21161,3,MX,1,100,-28
1576517159.987401,124494.000,21161,3,MX,1,100,-29
1576517160.026229,124526.667,21179,3,MX,1,100,-29
1576517160.065057,124559.333,21179,3,MX,1,100,-29
1576517160.103884,124592.000,21179,3,MX,1,100,-28
1576517160.148655,124629.667,21197,3,MX,1,100,-28
1576517160.193426,124667.333,21197,3,MX,1,100,-28
1576517160.238196,124705.000,21197,3,MX,1,100,-29
1576517160.279401,124739.667,21215,3,MX,1,100,-29
1576517160.320606,124774.333,21215,3,MX,1,100,-29
1576517160.361811,124809.000,21215,3,MX,1,100,-29
1576517160.403808,124844.333,21233,3,MX,1,100,-28
1576517160.445805,124879.667,21233,3,MX,1,100,-28
1576517160.487803,124915.000,21233,3,MX,1,100,-28
1576517160.526234,124947.333,21252,3,MX,1,100,-29
1576517160.564665,124979.667,21252,3,MX,1,100,-29
1576517160.603097,125012.000,21252,3,MX,1,100,-29
1576517160.647867,125049.667,21269,3,MX,1,100,-28
1576517160.692638,125087.333,21269,3,MX,1,100,-29
1576517160.737409,125125.000,21269,3,MX,1,100,-29
1576517160.779010,125160.000,21287,3,MX,1,100,-28
1576517160.820611,125195.000,21287,3,MX,1,100,-28
1576517160.862212,125230.000,21287,3,MX,1,100,-29
1576517160.900643,125262.333,21303,3,MX,1,100,-27
1576517160.939075,125294.667,21303,3,MX,1,100,-28
1576517160.977506,125327.000,21303,3,MX,1,100,-29
1576517161.015145,125358.667,21321,3,MX,1,100,-27
1576517161.052784,125390.333,21321,3,MX,1,100,-30
1576517161.090423,125422.000,21321,3,MX,1,100,-28
1576517161.131232,125456.333,21339,3,MX,1,100,-29
1576517161.172040,125490.667,21339,3,MX,1,100,-29
1576517161.212849,125525.000,21339,3,MX,1,100,-29
1576517161.254450,125560.000,21360,4,MX,1,100,-28
1576517161.296051,125595.000,21360,4,MX,1,100,-27
1576517161.337652,125630.000,21360,4,MX,1,100,-28
1576517161.379253,125665.000,21360,4,MX,1,100,-28
1576517161.420854,125700.000,21380,3,MX,1,100,-30
1576517161.462455,125735.000,21380,3,MX,1,100,-28
1576517161.504056,125770.000,21380,3,MX,1,100,-28
1576517161.545657,125805.000,21397,3,MX,1,100,-28
1576517161.587258,125840.000,21397,3,MX,1,100,-28
1576517161.628859,125875.000,21397,3,MX,1,100,-29
1576517161.672441,125911.667,21415,3,MX,1,100,-29
1576517161.716023,125948.333,21415,3,MX,1,100,-28
1576517161.759605,125985.000,21415,3,MX,1,100,-29
1576517161.797640,126017.000,21433,3,MX,1,100,-28
1576517161.835676,126049.000,21433,3,MX,1,100,-28
1576517161.873711,126081.000,21433,3,MX,1,100,-28
1576517161.912539,126113.667,21451,3,MX,1,100,-27
1576517161.951366,126146.333,21451,3,MX,1,100,-29
1576517161.990194,126179.000,21451,3,MX,1,100,-28
1576517162.031399,126213.667,21469,3,MX,1,100,-28
1576517162.072603,126248.333,21469,3,MX,1,100,-28
1576517162.113808,126283.000,21469,3,MX,1,100,-28
1576517162.154617,126317.333,21487,3,MX,1,100,-28
1576517162.195426,126351.667,21487,3,MX,1,100,-27
1576517162.236234,126386.000,21487,3,MX,1,100,-28
1576517162.276250,126419.667,21505,3,MX,1,100,-29
1576517162.316267,126453.333,21505,3,MX,1,100,-29
1576517162.356283,126487.000,21505,3,MX,1,100,-29
1576517162.394318,126519.000,21523,3,MX,1,100,-28
1576517162.432353,126551.000,21523,3,MX,1,100,-28
1576517162.470388,126583.000,21523,3,MX,1,100,-29
1576517162.513574,126619.333,21541,3,MX,1,100,-27
1576517162.556760,126655.667,21541,3,MX,1,100,-28
1576517162.599946,126692.000,21541,3,MX,1,100,-28
1576517162.640754,126726.333,21559,3,MX,1,100,-28
1576517162.681563,126760.667,21559,3,MX,1,100,-28
1576517162.722372,126795.000,21559,3,MX,1,100,-28
1576517162.763577,126829.667,21575,3,MX,1,100,-29
1576517162.804781,126864.333,21575,3,MX,1,100,-28
1576517162.845986,126899.000,21575,3,MX,1,100,-29
1576517162.886399,126933.000,21593,3,MX,1,100,-28
1576517162.926811,126967.000,21593,3,MX,1,100,-28
1576517162.967224,127001.000,21593,3,MX,1,100,-29
1576517163.005259,127033.000,21611,3,MX,1,100,-29
1576517163.043294,127065.000,21611,3,MX,1,100,-29
1576517163.081329,127097.000,21611,3,MX,1,100,-28
1576517163.120157,127129.667,21629,3,MX,1,100,-27
1576517163.158984,127162.333,21629,3,MX,1,100,-28
1576517163.197812,127195.000,21629,3,MX,1,100,-29
1576517163.238225,127229.000,21647,2,MX,1,100,-28
1576517163.278637,127263.000,21647,2,MX,1,100,-28
1576517163.323804,127301.000,21665,3,MX,1,100,-27
1576517163.368971,127339.000,21665,3,MX,1,100,-26
1576517163.414137,127377.000,21665,3,MX,1,100,-29
1576517163.455342,127411.667,21683,3,MX,1,100,-28
1576517163.496547,127446.333,21683,3,MX,1,100,-28
1576517163.537752,127481.000,21683,3,MX,1,100,-28
1576517163.575787,127513.000,21701,3,MX,1,100,-28
1576517163.613822,127545.000,21701,3,MX,1,100,-28
1576517163.651858,127577.000,21701,3,MX,1,100,-28
1576517163.690784,127609.750,21719,4,MX,1,100,-28
1576517163.729711,127642.500,21719,4,MX,1,100,-26
1576517163.768638,127675.250,21719,4,MX,1,100,-27
1576517163.807564,127708.000,21719,4,MX,1,100,-28
1576517163.847580,127741.667,21737,3,MX,1,100,-28
1576517163.887597,127775.333,21737,3,MX,1,100,-28
1576517163.927613,127809.000,21737,3,MX,1,100,-28
1576517163.969214,127844.000,21753,2,MX,1,100,-28
1576517164.010815,127879.000,21753,2,MX,1,100,-28
1576517164.055982,127917.000,21771,3,MX,1,100,-27
1576517164.101149,127955.000,21771,3,MX,1,100,-28
1576517164.146316,127993.000,21771,3,MX,1,100,-27
1576517164.184747,128025.333,21789,3,MX,1,100,-28
1576517164.223178,128057.667,21789,3,MX,1,100,-29
1576517164.261610,128090.000,21789,3,MX,1,100,-27
1576517164.307173,128128.333,21807,3,MX,1,100,-29
1576517164.352736,128166.667,21807,3,MX,1,100,-28
1576517164.398299,128205.000,21807,3,MX,1,100,-28
1576517164.436334,128237.000,21825,3,MX,1,100,-28
1576517164.474369,128269.000,21825,3,MX,1,100,-28
1576517164.512404,128301.000,21825,3,MX,1,100,-28
1576517164.556779,128338.333,21844,3,MX,1,100,-28
1576517164.601153,128375.667,21844,3,MX,1,100,-28
1576517164.645528,128413.000,21844,3,MX,1,100,-28
1576517164.683563,128445.000,21861,3,MX,1,100,-28
1576517164.721598,128477.000,21861,3,MX,1,100,-28
1576517164.759634,128509.000,21861,3,MX,1,100,-28
1576517164.798065,128541.333,21879,3,MX,1,100,-27
1576517164.836496,128573.667,21879,3,MX,1,100,-28
1576517164.874928,128606.000,21879,3,MX,1,100,-27
1576517164.916925,128641.333,21895,3,MX,1,100,-27
1576517164.958922,128676.667,21895,3,MX,1,100,-26
1576517165.000919,128712.000,21895,3,MX,1,100,-28
1576517165.040143,128745.000,21913,3,MX,1,100,-27
1576517165.079367,128778.000,21913,3,MX,1,100,-26
1576517165.118591,128811.000,21913,3,MX,1,100,-26
1576517165.159796,128845.667,21931,3,MX,1,100,-26
1576517165.201000,128880.333,21931,3,MX,1,100,-26
1576517165.242205,128915.000,21931,3,MX,1,100,-26
1576517165.283410,128949.667,21949,3,MX,1,100,-26
1576517165.324615,128984.333,21949,3,MX,1,100,-28
1576517165.365820,129019.000,21949,3,MX,1,100,-27
1576517165.406232,129053.000,21967,3,MX,1,100,-28
1576517165.446645,129087.000,21967,3,MX,1,100,-25
1576517165.487057,129121.000,21967,3,MX,1,100,-25
1576517165.525489,129153.333,21985,3,MX,1,100,-27
1576517165.563920,129185.667,21985,3,MX,1,100,-26
1576517165.602351,129218.000,21985,3,MX,1,100,-25
1576517165.644349,129253.333,22004,3,MX,1,100,-28
1576517165.686346,129288.667,22004,3,MX,1,100,-26
1576517165.728343,129324.000,22004,3,MX,1,100,-26
1576517165.768755,129358.000,22022,3,MX,1,100,-27
1576517165.809168,129392.000,22022,3,MX,1,100,-26
1576517165.849580,129426.000,22022,3,MX,1,100,-25
1576517165.890587,129460.500,22039,2,MX,1,100,-26
1576517165.931594,129495.000,22039,2,MX,1,100,-27
1576517165.973195,129530.000,22057,3,MX,1,100,-27
1576517166.014796,129565.000,22057,3,MX,1,100,-27
1576517166.056397,129600.000,22057,3,MX,1,100,-27
1576517166.094135,129631.750,22075,4,MX,1,100,-26
1576517166.131873,129663.500,22075,4,MX,1,100,-28
1576517166.169611,129695.250,22075,4,MX,1,100,-26
1576517166.207349,129727.000,22075,4,MX,1,100,-28
1576517166.246177,129759.667,22091,3,MX,1,100,-28
1576517166.285004,129792.333,22091,3,MX,1,100,-29
1576517166.323832,129825.000,22091,3,MX,1,100,-28
1576517166.369593,129863.500,22109,2,MX,1,100,-28
1576517166.415354,129902.000,22109,2,MX,1,100,-28
1576517166.456955,129937.000,22127,3,MX,1,100,-28
1576517166.498556,129972.000,22127,3,MX,1,100,-30
1576517166.540157,130007.000,22127,3,MX,1,100,-29
1576517166.581758,130042.000,22146,3,MX,1,100,-28
1576517166.623359,130077.000,22146,3,MX,1,100,-29
1576517166.664960,130112.000,22146,3,MX,1,100,-29
1576517166.703392,130144.333,22164,3,MX,1,100,-29
1576517166.741823,130176.667,22164,3,MX,1,100,-29
1576517166.780255,130209.000,22164,3,MX,1,100,-31
1576517166.818290,130241.000,22182,4,MX,1,100,-29
1576517166.856325,130273.000,22182,4,MX,1,100,-29
1576517166.894360,130305.000,22182,4,MX,1,100,-30
1576517166.932395,130337.000,22182,4,MX,1,100,-29
1576517166.973402,130371.500,22200,2,MX,1,100,-29
1576517167.014409,130406.000,22200,2,MX,1,100,-28
1576517167.059972,130444.333,22217,3,MX,1,100,-29
1576517167.105535,130482.667,22217,3,MX,1,100,-29
1576517167.151098,130521.000,22217,3,MX,1,100,-29
1576517167.191907,130555.333,22235,3,MX,1,100,-29
1576517167.232715,130589.667,22235,3,MX,1,100,-29
1576517167.273524,130624.000,22235,3,MX,1,100,-29
1576517167.312035,130656.400,22256,5,MX,1,100,-29
1576517167.350545,130688.800,22256,5,MX,1,100,-29
1576517167.389056,130721.200,22256,5,MX,1,100,-29
1576517167.427567,130753.600,22256,5,MX,1,100,-29
1576517167.466077,130786.000,22256,5,MX,1,100,-28
1576517167.505301,130819.000,22277,3,MX,1,100,-28
1576517167.544525,130852.000,22277,3,MX,1,100,-29
1576517167.583749,130885.000,22277,3,MX,1,100,-28
1576517167.623765,130918.667,22295,3,MX,1,100,-28
1576517167.663781,130952.333,22295,3,MX,1,100,-28
1576517167.703797,130986.000,22295,3,MX,1,100,-29
1576517167.745002,131020.667,22313,3,MX,1,100,-29
1576517167.786207,131055.333,22313,3,MX,1,100,-28
1576517167.827412,131090.000,22313,3,MX,1,100,-29
1576517167.874362,131129.500,22330,2,MX,1,100,-27
1576517167.921311,131169.000,22330,2,MX,1,100,-28
1576517167.958752,131200.500,22348,4,MX,1,100,-30
1576517167.996193,131232.000,22348,4,MX,1,100,-28
1576517168.033634,131263.500,22348,4,MX,1,100,-29
1576517168.071075,131295.000,22348,4,MX,1,100,-29
1576517168.118025,131334.500,22364,2,MX,1,100,-28
1576517168.164974,131374.000,22364,2,MX,1,100,-28
1576517168.203010,131406.000,22382,4,MX,1,100,-29
1576517168.241045,131438.000,22382,4,MX,1,100,-28
1576517168.279080,131470.000,22382,4,MX,1,100,-28
1576517168.317115,131502.000,22382,4,MX,1,100,-28
1576517168.361094,131539.000,22400,2,MX,1,100,-28
1576517168.405072,131576.000,22400,2,MX,1,100,-29
1576517168.443107,131608.000,22418,4,MX,1,100,-27
1576517168.481142,131640.000,22418,4,MX,1,100,-29
1576517168.519177,131672.000,22418,4,MX,1,100,-29
1576517168.557213,131704.000,22418,4,MX,1,100,-29
1576517168.598021,131738.333,22437,3,MX,1,100,-27
1576517168.638830,131772.667,22437,3,MX,1,100,-29
1576517168.679639,131807.000,22437,3,MX,1,100,-28
1576517168.720645,131841.500,22455,2,MX,1,100,-29
1576517168.761652,131876.000,22455,2,MX,1,100,-28
1576517168.802857,131910.667,22473,3,MX,1,100,-28
1576517168.844062,131945.333,22473,3,MX,1,100,-28
1576517168.885267,131980.000,22473,3,MX,1,100,-27
1576517168.926867,132015.000,22490,3,MX,1,100,-28
1576517168.968469,132050.000,22490,3,MX,1,100,-29
1576517169.010070,132085.000,22490,3,MX,1,100,-29
1576517169.050878,132119.333,22508,3,MX,1,100,-29
1576517169.091687,132153.667,22508,3,MX,1,100,-28
1576517169.132495,132188.000,22508,3,MX,1,100,-28
1576517169.172512,132221.667,22524,3,MX,1,100,-27
1576517169.212528,132255.333,22524,3,MX,1,100,-27
1576517169.252544,132289.000,22524,3,MX,1,100,-26
1576517169.290579,132321.000,22542,3,MX,1,100,-26
1576517169.328615,132353.000,22542,3,MX,1,100,-26
1576517169.366650,132385.000,22542,3,MX,1,100,-26
1576517169.409836,132421.333,22560,3,MX,1,100,-27
1576517169.453022,132457.667,22560,3,MX,1,100,-26
1576517169.496207,132494.000,22560,3,MX,1,100,-27
1576517169.536224,132527.667,22579,3,MX,1,100,-27
1576517169.576240,132561.333,22579,3,MX,1,100,-26
1576517169.616256,132595.000,22579,3,MX,1,100,-26
1576517169.657857,132630.000,22597,3,MX,1,100,-28
1576517169.699458,132665.000,22597,3,MX,1,100,-26
1576517169.741059,132700.000,22597,3,MX,1,100,-27
1576517169.781471,132734.000,22615,3,MX,1,100,-26
1576517169.821884,132768.000,22615,3,MX,1,100,-26
1576517169.862296,132802.000,22615,3,MX,1,100,-26
1576517169.899935,132833.667,22633,3,MX,1,100,-27
1576517169.937574,132865.333,22633,3,MX,1,100,-27
1576517169.975213,132897.000,22633,3,MX,1,100,-25
1576517170.013645,132929.333,22651,3,MX,1,100,-26
1576517170.052076,132961.667,22651,3,MX,1,100,-27
1576517170.090508,132994.000,22651,3,MX,1,100,-27
1576517170.134486,133031.000,22668,3,MX,1,100,-27
1576517170.178464,133068.000,22668,3,MX,1,100,-28
1576517170.222442,133105.000,22668,3,MX,1,100,-28
1576517170.263647,133139.667,22686,3,MX,1,100,-27
1576517170.304852,133174.333,22686,3,MX,1,100,-27
1576517170.346057,133209.000,22686,3,MX,1,100,-28
1576517170.387262,133243.667,22702,3,MX,1,100,-28
1576517170.428467,133278.333,22702,3,MX,1,100,-27
1576517170.469671,133313.000,22702,3,MX,1,100,-28
1576517170.507310,133344.667,22720,3,MX,1,100,-28
1576517170.544949,133376.333,22720,3,MX,1,100,-28
1576517170.582588,133408.000,22720,3,MX,1,100,-28
1576517170.621416,133440.667,22739,3,MX,1,100,-28
1576517170.660244,133473.333,22739,3,MX,1,100,-27
1576517170.699071,133506.000,22739,3,MX,1,100,-27
1576517170.739484,133540.000,22757,3,MX,1,100,-27
1576517170.779896,133574.000,22757,3,MX,1,100,-27
1576517170.820308,133608.000,22757,3,MX,1,100,-28
1576517170.865475,133646.000,22775,3,MX,1,100,-28
1576517170.910642,133684.000,22775,3,MX,1,100,-29
1576517170.955809,133722.000,22775,3,MX,1,100,-26
1576517170.996222,133756.000,22793,3,MX,1,100,-28
1576517171.036634,133790.000,22793,3,MX,1,100,-27
1576517171.077046,133824.000,22793,3,MX,1,100,-28
1576517171.115082,133856.000,22811,3,MX,1,100,-28
1576517171.153117,133888.000,22811,3,MX,1,100,-28
1576517171.191152,133920.000,22811,3,MX,1,100,-30
1576517171.228395,133951.333,22829,3,MX,1,100,-28
1576517171.265638,133982.667,22829,3,MX,1,100,-29
1576517171.302881,134014.000,22829,3,MX,1,100,-30
1576517171.343689,134048.333,22847,3,MX,1,100,-29
1576517171.384498,134082.667,22847,3,MX,1,100,-28
1576517171.425306,134117.000,22847,3,MX,1,100,-29
1576517171.466511,134151.667,22864,3,MX,1,100,-29
1576517171.507716,134186.333,22864,3,MX,1,100,-29
1576517171.548921,134221.000,22864,3,MX,1,100,-29
1576517171.589729,134255.333,22883,3,MX,1,100,-28
1576517171.630538,134289.667,22883,3,MX,1,100,-29
1576517171.671347,134324.000,22883,3,MX,1,100,-29
1576517171.712948,134359.000,22899,3,MX,1,100,-29
1576517171.754549,134394.000,22899,3,MX,1,100,-29
1576517171.796150,134429.000,22899,3,MX,1,100,-28
1576517171.834185,134461.000,22917,3,MX,1,100,-28
1576517171.872220,134493.000,22917,3,MX,1,100,-29
1576517171.910255,134525.000,22917,3,MX,1,100,-29
1576517171.950272,134558.667,22935,3,MX,1,100,-29
1576517171.990288,134592.333,22935,3,MX,1,100,-30
1576517172.030304,134626.000,22935,3,MX,1,100,-30
1576517172.069132,134658.667,22953,3,MX,1,100,-31
1576517172.107959,134691.333,22953,3,MX,1,100,-30
1576517172.146787,134724.000,22953,3,MX,1,100,-29
1576517172.187596,134758.333,22971,3,MX,1,100,-30
1576517172.228404,134792.667,22971,3,MX,1,100,-29
1576517172.269213,134827.000,22971,3,MX,1,100,-30
1576517172.307644,134859.333,22989,3,MX,1,100,-28
1576517172.346076,134891.667,22989,3,MX,1,100,-30
1576517172.384507,134924.000,22989,3,MX,1,100,-30
1576517172.425316,134958.333,23007,3,MX,1,100,-30
1576517172.466124,134992.667,23007,3,MX,1,100,-30
1576517172.506933,135027.000,23007,3,MX,1,100,-29
1576517172.547345,135061.000,23026,3,MX,1,100,-30
1576517172.587758,135095.000,23026,3,MX,1,100,-30
1576517172.628170,135129.000,23026,3,MX,1,100,-30
1576517172.669771,135164.000,23043,3,MX,1,100,-30
1576517172.711372,135199.000,23043,3,MX,1,100,-30
1576517172.752973,135234.000,23043,3,MX,1,100,-30
1576517172.794574,135269.000,23061,3,MX,1,100,-30
1576517172.836175,135304.000,23061,3,MX,1,100,-30
1576517172.877776,135339.000,23061,3,MX,1,100,-31
1576517172.917396,135372.333,23077,3,MX,1,100,-31
1576517172.957016,135405.667,23077,3,MX,1,100,-32
1576517172.996636,135439.000,23077,3,MX,1,100,-30
1576517173.034276,135470.667,23095,3,MX,1,100,-31
1576517173.071914,135502.333,23095,3,MX,1,100,-30
1576517173.109554,135534.000,23095,3,MX,1,100,-30
1576517173.153136,135570.667,23113,3,MX,1,100,-30
1576517173.196718,135607.333,23113,3,MX,1,100,-30
1576517173.240300,135644.000,23113,3,MX,1,100,-30
1576517173.280712,135678.000,23131,3,MX,1,100,-30
1576517173.321125,135712.000,23131,3,MX,1,100,-29
1576517173.361537,135746.000,23131,3,MX,1,100,-31
1576517173.403435,135781.250,23152,4,MX,1,100,-30
1576517173.445333,135816.500,23152,4,MX,1,100,-31
1576517173.487231,135851.750,23152,4,MX,1,100,-30
1576517173.529130,135887.000,23152,4,MX,1,100,-30
1576517173.567165,135919.000,23173,3,MX,1,100,-30
1576517173.605200,135951.000,23173,3,MX,1,100,-31
1576517173.643235,135983.000,23173,3,MX,1,100,-32
1576517173.680874,136014.667,23189,3,MX,1,100,-31
1576517173.718513,136046.333,23189,3,MX,1,100,-30
1576517173.756152,136078.000,23189,3,MX,1,100,-30
1576517173.796565,136112.000,23207,3,MX,1,100,-30
1576517173.836977,136146.000,23207,3,MX,1,100,-31
1576517173.877390,136180.000,23207,3,MX,1,100,-31
1576517173.921764,136217.333,23225,3,MX,1,100,-33
1576517173.966138,136254.667,23225,3,MX,1,100,-32
1576517174.010513,136292.000,23225,3,MX,1,100,-32
1576517174.051718,136326.667,23243,3,MX,1,100,-32
1576517174.092922,136361.333,23243,3,MX,1,100,-32
1576517174.134127,136396.000,23243,3,MX,1,100,-32
1576517174.173351,136429.000,23261,3,MX,1,100,-32
1576517174.212575,136462.000,23261,3,MX,1,100,-32
1576517174.251799,136495.000,23261,3,MX,1,100,-31
1576517174.289438,136526.667,23279,3,MX,1,100,-30
1576517174.327077,136558.333,23279,3,MX,1,100,-32
1576517174.364716,136590.000,23279,3,MX,1,100,-32
1576517174.404336,136623.333,23297,3,MX,1,100,-32
1576517174.443956,136656.667,23297,3,MX,1,100,-32
1576517174.483576,136690.000,23297,3,MX,1,100,-32
1576517174.524781,136724.667,23316,3,MX,1,100,-33
1576517174.565986,136759.333,23316,3,MX,1,100,-32
1576517174.607190,136794.000,23316,3,MX,1,100,-31
1576517174.652357,136832.000,23333,3,MX,1,100,-33
1576517174.697524,136870.000,23333,3,MX,1,100,-31
1576517174.742691,136908.000,23333,3,MX,1,100,-33
1576517174.781518,136940.667,23351,3,MX,1,100,-31
1576517174.820346,136973.333,23351,3,MX,1,100,-32
1576517174.859174,137006.000,23351,3,MX,1,100,-32
1576517174.898001,137038.667,23368,3,MX,1,100,-32
1576517174.936829,137071.333,23368,3,MX,1,100,-32
1576517174.975657,137104.000,23368,3,MX,1,100,-31
1576517175.014088,137136.333,23385,3,MX,1,100,-32
1576517175.052520,137168.667,23385,3,MX,1,100,-32
1576517175.090951,137201.000,23385,3,MX,1,100,-31
1576517175.132156,137235.667,23403,3,MX,1,100,-32
1576517175.173361,137270.333,23403,3,MX,1,100,-31
1576517175.214565,137305.000,23403,3,MX,1,100,-32
1576517175.255770,137339.667,23421,3,MX,1,100,-33
1576517175.296975,137374.333,23421,3,MX,1,100,-31
1576517175.338180,137409.000,23421,3,MX,1,100,-31
1576517175.377404,137442.000,23439,3,MX,1,100,-33
1576517175.416627,137475.000,23439,3,MX,1,100,-32
1576517175.455851,137508.000,23439,3,MX,1,100,-32
1576517175.497849,137543.333,23457,3,MX,1,100,-32
1576517175.539846,137578.667,23457,3,MX,1,100,-31
1576517175.581843,137614.000,23457,3,MX,1,100,-32
1576517175.617501,137644.000,23476,3,MX,1,100,-32
1576517175.653159,137674.000,23476,3,MX,1,100,-32
1576517175.688817,137704.000,23476,3,MX,1,100,-33
1576517175.729229,137738.000,23494,3,MX,1,100,-33
1576517175.769642,137772.000,23494,3,MX,1,100,-33
1576517175.810054,137806.000,23494,3,MX,1,100,-31
1576517175.846901,137837.000,23512,3,MX,1,100,-33
1576517175.883748,137868.000,23512,3,MX,1,100,-33
1576517175.920594,137899.000,23512,3,MX,1,100,-32
1576517175.963384,137935.000,23529,3,MX,1,100,-30
1576517176.006173,137971.000,23529,3,MX,1,100,-32
1576517176.048963,138007.000,23529,3,MX,1,100,-33
1576517176.090564,138042.000,23547,3,MX,1,100,-30
1576517176.132165,138077.000,23547,3,MX,1,100,-33
1576517176.173766,138112.000,23547,3,MX,1,100,-33
1576517176.211801,138144.000,23565,3,MX,1,100,-31
1576517176.249837,138176.000,23565,3,MX,1,100,-31
1576517176.287872,138208.000,23565,3,MX,1,100,-33
1576517176.328681,138242.333,23581,3,MX,1,100,-32
1576517176.369489,138276.667,23581,3,MX,1,100,-32
1576517176.410298,138311.000,23581,3,MX,1,100,-31
1576517176.451503,138345.667,23599,3,MX,1,100,-32
1576517176.492707,138380.333,23599,3,MX,1,100,-32
1576517176.533912,138415.000,23599,3,MX,1,100,-30
1576517176.575117,138449.667,23618,3,MX,1,100,-31
1576517176.616322,138484.333,23618,3,MX,1,100,-31
1576517176.657527,138519.000,23618,3,MX,1,100,-32
1576517176.696354,138551.667,23636,3,MX,1,100,-31
1576517176.735182,138584.333,23636,3,MX,1,100,-33
1576517176.774009,138617.000,23636,3,MX,1,100,-32
1576517176.815214,138651.667,23654,3,MX,1,100,-32
1576517176.856419,138686.333,23654,3,MX,1,100,-32
1576517176.897624,138721.000,23654,3,MX,1,100,-32
1576517176.935659,138753.000,23672,3,MX,1,100,-32
1576517176.973695,138785.000,23672,3,MX,1,100,-33
1576517177.011730,138817.000,23672,3,MX,1,100,-32
1576517177.050557,138849.667,23690,3,MX,1,100,-32
1576517177.089385,138882.333,23690,3,MX,1,100,-33
1576517177.128212,138915.000,23690,3,MX,1,100,-32
1576517177.173379,138953.000,23707,3,MX,1,100,-33
1576517177.218546,138991.000,23707,3,MX,1,100,-32
1576517177.263713,139029.000,23707,3,MX,1,100,-34
1576517177.303729,139062.667,23725,3,MX,1,100,-33
1576517177.343745,139096.333,23725,3,MX,1,100,-33
1576517177.383762,139130.000,23725,3,MX,1,100,-32
1576517177.424967,139164.667,23741,3,MX,1,100,-32
1576517177.466171,139199.333,23741,3,MX,1,100,-33
1576517177.507376,139234.000,23741,3,MX,1,100,-32
1576517177.545015,139265.667,23760,3,MX,1,100,-33
1576517177.582654,139297.333,23760,3,MX,1,100,-32
1576517177.620293,139329.000,23760,3,MX,1,100,-32
1576517177.659121,139361.667,23778,3,MX,1,100,-32
1576517177.697948,139394.333,23778,3,MX,1,100,-32
1576517177.736776,139427.000,23778,3,MX,1,100,-32
1576517177.777981,139461.667,23796,3,MX,1,100,-33
1576517177.819186,139496.333,23796,3,MX,1,100,-33
1576517177.860391,139531.000,23796,3,MX,1,100,-33
1576517177.900407,139564.667,23814,3,MX,1,100,-32
1576517177.940423,139598.333,23814,3,MX,1,100,-32
1576517177.980439,139632.000,23814,3,MX,1,100,-33
1576517178.029172,139673.000,23832,2,MX,1,100,-32
1576517178.077904,139714.000,23832,2,MX,1,100,-33
1576517178.115940,139746.000,23850,4,MX,1,100,-32
1576517178.153975,139778.000,23850,4,MX,1,100,-33
1576517178.192010,139810.000,23850,4,MX,1,100,-32
1576517178.230045,139842.000,23850,4,MX,1,100,-32
1576517178.268477,139874.333,23868,3,MX,1,100,-33
1576517178.306908,139906.667,23868,3,MX,1,100,-32
1576517178.345340,139939.000,23868,3,MX,1,100,-32
1576517178.386148,139973.333,23885,3,MX,1,100,-33
1576517178.426957,140007.667,23885,3,MX,1,100,-32
1576517178.467766,140042.000,23885,3,MX,1,100,-33
1576517178.508574,140076.333,23904,3,MX,1,100,-32
1576517178.549383,140110.667,23904,3,MX,1,100,-33
1576517178.590191,140145.000,23904,3,MX,1,100,-32
1576517178.632387,140180.500,23920,2,MX,1,100,-33
1576517178.674582,140216.000,23920,2,MX,1,100,-33
1576517178.716579,140251.333,23938,3,MX,1,100,-32
1576517178.758577,140286.667,23938,3,MX,1,100,-32
1576517178.800574,140322.000,23938,3,MX,1,100,-31
1576517178.839203,140354.500,23956,4,MX,1,100,-32
1576517178.877833,140387.000,23956,4,MX,1,100,-33
1576517178.916462,140419.500,23956,4,MX,1,100,-32
1576517178.955092,140452.000,23956,4,MX,1,100,-31
1576517178.994712,140485.333,23974,3,MX,1,100,-32
1576517179.034332,140518.667,23974,3,MX,1,100,-32
1576517179.073952,140552.000,23974,3,MX,1,100,-32
1576517179.115553,140587.000,23992,2,MX,1,100,-32
1576517179.157154,140622.000,23992,2,MX,1,100,-31
1576517179.197963,140656.333,24010,3,MX,1,100,-33
1576517179.238771,140690.667,24010,3,MX,1,100,-32
1576517179.279580,140725.000,24010,3,MX,1,100,-33
1576517179.318506,140757.750,24028,4,MX,1,100,-32
1576517179.357433,140790.500,24028,4,MX,1,100,-33
1576517179.396360,140823.250,24028,4,MX,1,100,-33
1576517179.435287,140856.000,24028,4,MX,1,100,-32
1576517179.473797,140888.400,24049,5,MX,1,100,-32
1576517179.512308,140920.800,24049,5,MX,1,100,-32
1576517179.550818,140953.200,24049,5,MX,1,100,-33
1576517179.589329,140985.600,24049,5,MX,1,100,-32
1576517179.627840,141018.000,24049,5,MX,1,100,-32
1576517179.666469,141050.500,24070,2,MX,1,100,-31
1576517179.705099,141083.000,24070,2,MX,1,100,-32
1576517179.749077,141120.000,24088,3,MX,1,100,-32
1576517179.793055,141157.000,24088,3,MX,1,100,-32
1576517179.837034,141194.000,24088,3,MX,1,100,-31
1576517179.878635,141229.000,24106,3,MX,1,100,-32
1576517179.920236,141264.000,24106,3,MX,1,100,-31
1576517179.961837,141299.000,24106,3,MX,1,100,-32
1576517180.002249,141333.000,24124,3,MX,1,100,-32
1576517180.042661,141367.000,24124,3,MX,1,100,-33
1576517180.083074,141401.000,24124,3,MX,1,100,-33
1576517180.122298,141434.000,24142,3,MX,1,100,-32
1576517180.161522,141467.000,24142,3,MX,1,100,-32
1576517180.200745,141500.000,24142,3,MX,1,100,-33
1576517180.244328,141536.667,24159,3,MX,1,100,-31
1576517180.287910,141573.333,24159,3,MX,1,100,-31
1576517180.331491,141610.000,24159,3,MX,1,100,-32
1576517180.372696,141644.667,24177,3,MX,1,100,-30
1576517180.413901,141679.333,24177,3,MX,1,100,-32
1576517180.455106,141714.000,24177,3,MX,1,100,-31
1576517180.496707,141749.000,24193,3,MX,1,100,-32
1576517180.538308,141784.000,24193,3,MX,1,100,-31
1576517180.579909,141819.000,24193,3,MX,1,100,-32
1576517180.617944,141851.000,24212,3,MX,1,100,-32
1576517180.655979,141883.000,24212,3,MX,1,100,-32
1576517180.694015,141915.000,24212,3,MX,1,100,-32
1576517180.731654,141946.667,24230,3,MX,1,100,-32
1576517180.769293,141978.333,24230,3,MX,1,100,-35
1576517180.806932,142010.000,24230,3,MX,1,100,-36
1576517180.847344,142044.000,24248,3,MX,1,100,-39
1576517180.887757,142078.000,24248,3,MX,1,100,-41
1576517180.928169,142112.000,24248,3,MX,1,100,-43
1576517180.969176,142146.500,24266,2,MX,1,100,-43
1576517181.010183,142181.000,24266,2,MX,1,100,-42
1576517181.055349,142219.000,24284,3,MX,1,100,-41
1576517181.100516,142257.000,24284,3,MX,1,100,-42
1576517181.145683,142295.000,24284,3,MX,1,100,-42
1576517181.186095,142329.000,24302,3,MX,1,100,-42
1576517181.226508,142363.000,24302,3,MX,1,100,-43
1576517181.266920,142397.000,24302,3,MX,1,100,-44
1576517181.304658,142428.750,24320,4,MX,1,100,-41
1576517181.342396,142460.500,24320,4,MX,1,100,-43
1576517181.380135,142492.250,24320,4,MX,1,100,-43
1576517181.417873,142524.000,24320,4,MX,1,100,-42
1576517181.457493,142557.333,24338,3,MX,1,100,-42
1576517181.497113,142590.667,24338,3,MX,1,100,-41
1576517181.536733,142624.000,24338,3,MX,1,100,-40
1576517181.577937,142658.667,24356,3,MX,1,100,-39
1576517181.619142,142693.333,24356,3,MX,1,100,-38
1576517181.660347,142728.000,24356,3,MX,1,100,-39
1576517181.700760,142762.000,24374,3,MX,1,100,-37
1576517181.741172,142796.000,24374,3,MX,1,100,-35
1576517181.781585,142830.000,24374,3,MX,1,100,-35
1576517181.828534,142869.500,24390,2,MX,1,100,-33
1576517181.875484,142909.000,24390,2,MX,1,100,-33
1576517181.912727,142940.333,24408,3,MX,1,100,-31
1576517181.949970,142971.667,24408,3,MX,1,100,-29
1576517181.987212,143003.000,24408,3,MX,1,100,-29
1576517182.027030,143036.500,24426,4,MX,1,100,-31
1576517182.066849,143070.000,24426,4,MX,1,100,-30
1576517182.106667,143103.500,24426,4,MX,1,100,-32
1576517182.146485,143137.000,24426,4,MX,1,100,-32
1576517182.187491,143171.500,24444,2,MX,1,100,-31
1576517182.228498,143206.000,24444,2,MX,1,100,-32
1576517182.270099,143241.000,24462,3,MX,1,100,-32
1576517182.311700,143276.000,24462,3,MX,1,100,-32
1576517182.353301,143311.000,24462,3,MX,1,100,-32
1576517182.394902,143346.000,24480,3,MX,1,100,-31
1576517182.436503,143381.000,24480,3,MX,1,100,-32
1576517182.478104,143416.000,24480,3,MX,1,100,-31
1576517182.518913,143450.333,24499,3,MX,1,100,-32
1576517182.559722,143484.667,24499,3,MX,1,100,-32
1576517182.600530,143519.000,24499,3,MX,1,100,-32
1576517182.638566,143551.000,24517,3,MX,1,100,-30
1576517182.676601,143583.000,24517,3,MX,1,100,-30
1576517182.714636,143615.000,24517,3,MX,1,100,-31
1576517182.755841,143649.667,24534,3,MX,1,100,-32
1576517182.797046,143684.333,24534,3,MX,1,100,-32
1576517182.838250,143719.000,24534,3,MX,1,100,-32
1576517182.879455,143753.667,24552,3,MX,1,100,-33
1576517182.920660,143788.333,24552,3,MX,1,100,-32
1576517182.961865,143823.000,24552,3,MX,1,100,-32
1576517183.003070,143857.667,24568,3,MX,1,100,-33
1576517183.044275,143892.333,24568,3,MX,1,100,-32
1576517183.085479,143927.000,24568,3,MX,1,100,-31
1576517183.123118,143958.667,24586,3,MX,1,100,-32
1576517183.160758,143990.333,24586,3,MX,1,100,-32
1576517183.198396,144022.000,24586,3,MX,1,100,-32
1576517183.239997,144057.000,24604,3,MX,1,100,-32
1576517183.281599,144092.000,24604,3,MX,1,100,-32
1576517183.323200,144127.000,24604,3,MX,1,100,-33
1576517183.359254,144157.333,24622,3,MX,1,100,-32
1576517183.395308,144187.667,24622,3,MX,1,100,-32
1576517183.431362,144218.000,24622,3,MX,1,100,-31
1576517183.474944,144254.667,24641,3,MX,1,100,-31
1576517183.518526,144291.333,24641,3,MX,1,100,-31
1576517183.562108,144328.000,24641,3,MX,1,100,-31
1576517183.597469,144357.750,24659,4,MX,1,100,-33
1576517183.632830,144387.500,24659,4,MX,1,100,-33
1576517183.668191,144417.250,24659,4,MX,1,100,-31
1576517183.703552,144447.000,24659,4,MX,1,100,-31
1576517183.745153,144482.000,24677,2,MX,1,100,-32
1576517183.786754,144517.000,24677,2,MX,1,100,-32
1576517183.831524,144554.667,24695,3,MX,1,100,-33
1576517183.876295,144592.333,24695,3,MX,1,100,-33
1576517183.921066,144630.000,24695,3,MX,1,100,-32
1576517183.959101,144662.000,24712,3,MX,1,100,-32
1576517183.997136,144694.000,24712,3,MX,1,100,-32
1576517184.035171,144726.000,24712,3,MX,1,100,-31
1576517184.079942,144763.667,24730,3,MX,1,100,-30
1576517184.124713,144801.333,24730,3,MX,1,100,-32
1576517184.169483,144839.000,24730,3,MX,1,100,-32
1576517184.211084,144874.000,24746,3,MX,1,100,-32
1576517184.252685,144909.000,24746,3,MX,1,100,-31
1576517184.294286,144944.000,24746,3,MX,1,100,-30
1576517184.333114,144976.667,24764,3,MX,1,100,-32
1576517184.371942,145009.333,24764,3,MX,1,100,-31
1576517184.410769,145042.000,24764,3,MX,1,100,-32
1576517184.449201,145074.333,24782,3,MX,1,100,-32
1576517184.487632,145106.667,24782,3,MX,1,100,-31
1576517184.526063,145139.000,24782,3,MX,1,100,-31
1576517184.565683,145172.333,24801,3,MX,1,100,-32
1576517184.605304,145205.667,24801,3,MX,1,100,-32
1576517184.644923,145239.000,24801,3,MX,1,100,-33
1576517184.686921,145274.333,24819,3,MX,1,100,-33
1576517184.728918,145309.667,24819,3,MX,1,100,-32
1576517184.770915,145345.000,24819,3,MX,1,100,-31
1576517184.811328,145379.000,24837,3,MX,1,100,-32
1576517184.851740,145413.000,24837,3,MX,1,100,-31
1576517184.892153,145447.000,24837,3,MX,1,100,-31
1576517184.933357,145481.667,24855,3,MX,1,100,-32
1576517184.974562,145516.333,24855,3,MX,1,100,-31
1576517185.015767,145551.000,24855,3,MX,1,100,-30
1576517185.063311,145591.000,24872,2,MX,1,100,-33
1576517185.110855,145631.000,24872,2,MX,1,100,-32
1576517185.150079,145664.000,24890,3,MX,1,100,-32
1576517185.189303,145697.000,24890,3,MX,1,100,-30
1576517185.228527,145730.000,24890,3,MX,1,100,-32
1576517185.266264,145761.750,24908,4,MX,1,100,-32
1576517185.304003,145793.500,24908,4,MX,1,100,-30
1576517185.341741,145825.250,24908,4,MX,1,100,-32
1576517185.379479,145857.000,24908,4,MX,1,100,-32
1576517185.419891,145891.000,24924,3,MX,1,100,-32
1576517185.460304,145925.000,24924,3,MX,1,100,-32
1576517185.500716,145959.000,24924,3,MX,1,100,-32
1576517185.541723,145993.500,24944,4,MX,1,100,-32
1576517185.582730,146028.000,24944,4,MX,1,100,-31
1576517185.623736,146062.500,24944,4,MX,1,100,-32
1576517185.664743,146097.000,24944,4,MX,1,100,-32
1576517185.705552,146131.333,24963,3,MX,1,100,-32
1576517185.746360,146165.667,24963,3,MX,1,100,-31
1576517185.787169,146200.000,24963,3,MX,1,100,-31
1576517185.828374,146234.667,24981,3,MX,1,100,-31
