EpochTimestamp,EmotiBitTimestamp,PacketNumber,DataLength,TypeTag,ProtocolVersion,DataReliability,MX
1576518600.298524,33672.000,5358,9,MX,1,100,-49
1576518600.298524,33672.000,5358,9,MX,1,100,-48
1576518600.298524,33672.000,5358,9,MX,1,100,-48
1576518600.298524,33672.000,5358,9,MX,1,100,-48
1576518600.298524,33672.000,5358,9,MX,1,100,-48
1576518600.298524,33672.000,5358,9,MX,1,100,-48
1576518600.298524,33672.000,5358,9,MX,1,100,-48
1576518600.298524,33672.000,5358,9,MX,1,100,-48
1576518600.298524,33672.000,5358,9,MX,1,100,-50
1576518600.336968,33704.333,5376,3,MX,1,100,-50
1576518600.375412,33736.667,5376,3,MX,1,100,-50
1576518600.413856,33769.000,5376,3,MX,1,100,-48
1576518600.460820,33808.500,5393,2,MX,1,100,-48
1576518600.507785,33848.000,5393,2,MX,1,100,-49
1576518600.546625,33880.667,5411,3,MX,1,100,-49
1576518600.585465,33913.333,5411,3,MX,1,100,-49
1576518600.624305,33946.000,5411,3,MX,1,100,-49
1576518600.662650,33978.250,5429,4,MX,1,100,-48
1576518600.700995,34010.500,5429,4,MX,1,100,-49
1576518600.739339,34042.750,5429,4,MX,1,100,-50
1576518600.777684,34075.000,5429,4,MX,1,100,-48
1576518600.817515,34108.500,5445,2,MX,1,100,-50
1576518600.857346,34142.000,5445,2,MX,1,100,-48
1576518600.898366,34176.500,5463,4,MX,1,100,-49
1576518600.939385,34211.000,5463,4,MX,1,100,-49
1576518600.980405,34245.500,5463,4,MX,1,100,-48
1576518601.021425,34280.000,5463,4,MX,1,100,-48
1576518601.063040,34315.000,5482,2,MX,1,100,-48
1576518601.104654,34350.000,5482,2,MX,1,100,-48
1576518601.144287,34383.333,5500,3,MX,1,100,-49
1576518601.183919,34416.667,5500,3,MX,1,100,-47
1576518601.223552,34450.000,5500,3,MX,1,100,-48
1576518601.264374,34484.333,5518,3,MX,1,100,-48
1576518601.305196,34518.667,5518,3,MX,1,100,-48
1576518601.346017,34553.000,5518,3,MX,1,100,-48
1576518601.384857,34585.667,5536,3,MX,1,100,-48
1576518601.423697,34618.333,5536,3,MX,1,100,-46
1576518601.462538,34651.000,5536,3,MX,1,100,-47
1576518601.504152,34686.000,5554,3,MX,1,100,-47
1576518601.545766,34721.000,5554,3,MX,1,100,-48
1576518601.587381,34756.000,5554,3,MX,1,100,-47
1576518601.627013,34789.333,5572,3,MX,1,100,-48
1576518601.666646,34822.667,5572,3,MX,1,100,-47
1576518601.706279,34856.000,5572,3,MX,1,100,-47
1576518601.747893,34891.000,5589,3,MX,1,100,-47
1576518601.789507,34926.000,5589,3,MX,1,100,-46
1576518601.831122,34961.000,5589,3,MX,1,100,-47
1576518601.871943,34995.333,5607,3,MX,1,100,-47
1576518601.912765,35029.667,5607,3,MX,1,100,-47
1576518601.953587,35064.000,5607,3,MX,1,100,-47
1576518601.992427,35096.667,5623,3,MX,1,100,-47
1576518602.031267,35129.333,5623,3,MX,1,100,-47
1576518602.070107,35162.000,5623,3,MX,1,100,-48
1576518602.108155,35194.000,5642,3,MX,1,100,-48
1576518602.146202,35226.000,5642,3,MX,1,100,-47
1576518602.184249,35258.000,5642,3,MX,1,100,-48
1576518602.227449,35294.333,5660,3,MX,1,100,-47
1576518602.270649,35330.667,5660,3,MX,1,100,-48
1576518602.313848,35367.000,5660,3,MX,1,100,-47
1576518602.355463,35402.000,5678,3,MX,1,100,-47
1576518602.397077,35437.000,5678,3,MX,1,100,-47
1576518602.438692,35472.000,5678,3,MX,1,100,-47
1576518602.480306,35507.000,5696,3,MX,1,100,-48
1576518602.521920,35542.000,5696,3,MX,1,100,-47
1576518602.563535,35577.000,5696,3,MX,1,100,-47
1576518602.602771,35610.000,5714,3,MX,1,100,-47
1576518602.642007,35643.000,5714,3,MX,1,100,-46
1576518602.681244,35676.000,5714,3,MX,1,100,-46
1576518602.719291,35708.000,5732,3,MX,1,100,-46
1576518602.757339,35740.000,5732,3,MX,1,100,-46
1576518602.795386,35772.000,5732,3,MX,1,100,-47
1576518602.834623,35805.000,5750,3,MX,1,100,-47
1576518602.873859,35838.000,5750,3,MX,1,100,-46
1576518602.913095,35871.000,5750,3,MX,1,100,-46
1576518602.954710,35906.000,5767,3,MX,1,100,-47
1576518602.996324,35941.000,5767,3,MX,1,100,-47
1576518603.037938,35976.000,5767,3,MX,1,100,-47
1576518603.082723,36013.667,5786,3,MX,1,100,-47
1576518603.127508,36051.333,5786,3,MX,1,100,-46
1576518603.172293,36089.000,5786,3,MX,1,100,-46
1576518603.211530,36122.000,5802,3,MX,1,100,-46
1576518603.250766,36155.000,5802,3,MX,1,100,-47
1576518603.290003,36188.000,5802,3,MX,1,100,-47
1576518603.326861,36219.000,5820,3,MX,1,100,-47
1576518603.363719,36250.000,5820,3,MX,1,100,-47
1576518603.400578,36281.000,5820,3,MX,1,100,-46
1576518603.441400,36315.333,5838,3,MX,1,100,-47
1576518603.482221,36349.667,5838,3,MX,1,100,-47
1576518603.523043,36384.000,5838,3,MX,1,100,-47
1576518603.563468,36418.000,5856,3,MX,1,100,-47
1576518603.603894,36452.000,5856,3,MX,1,100,-47
1576518603.644319,36486.000,5856,3,MX,1,100,-46
1576518603.685141,36520.333,5874,3,MX,1,100,-46
1576518603.725963,36554.667,5874,3,MX,1,100,-47
1576518603.766784,36589.000,5874,3,MX,1,100,-46
1576518603.808993,36624.500,5892,2,MX,1,100,-47
1576518603.851202,36660.000,5892,2,MX,1,100,-46
1576518603.892519,36694.750,5910,4,MX,1,100,-46
1576518603.933836,36729.500,5910,4,MX,1,100,-46
1576518603.975153,36764.250,5910,4,MX,1,100,-47
1576518604.016470,36799.000,5910,4,MX,1,100,-47
1576518604.056301,36832.500,5928,2,MX,1,100,-47
1576518604.096132,36866.000,5928,2,MX,1,100,-48
1576518604.136558,36900.000,5946,4,MX,1,100,-48
1576518604.176983,36934.000,5946,4,MX,1,100,-48
1576518604.217408,36968.000,5946,4,MX,1,100,-49
1576518604.257834,37002.000,5946,4,MX,1,100,-49
1576518604.296278,37034.333,5964,3,MX,1,100,-50
1576518604.334721,37066.667,5964,3,MX,1,100,-49
1576518604.373165,37099.000,5964,3,MX,1,100,-50
1576518604.412005,37131.667,5982,3,MX,1,100,-52
1576518604.450845,37164.333,5982,3,MX,1,100,-51
1576518604.489685,37197.000,5982,3,MX,1,100,-51
1576518604.529318,37230.333,5998,3,MX,1,100,-50
1576518604.568951,37263.667,5998,3,MX,1,100,-52
1576518604.608583,37297.000,5998,3,MX,1,100,-52
1576518604.649801,37331.667,6016,3,MX,1,100,-52
1576518604.691020,37366.333,6016,3,MX,1,100,-53
1576518604.732238,37401.000,6016,3,MX,1,100,-55
1576518604.773852,37436.000,6034,3,MX,1,100,-55
1576518604.815466,37471.000,6034,3,MX,1,100,-56
1576518604.857080,37506.000,6034,3,MX,1,100,-55
1576518604.895921,37538.667,6052,3,MX,1,100,-57
1576518604.934761,37571.333,6052,3,MX,1,100,-58
1576518604.973601,37604.000,6052,3,MX,1,100,-58
1576518605.012044,37636.333,6070,3,MX,1,100,-60
1576518605.050488,37668.667,6070,3,MX,1,100,-61
1576518605.088932,37701.000,6070,3,MX,1,100,-60
1576518605.131735,37737.000,6089,3,MX,1,100,-60
1576518605.174539,37773.000,6089,3,MX,1,100,-59
1576518605.217342,37809.000,6089,3,MX,1,100,-62
1576518605.258164,37843.333,6107,3,MX,1,100,-62
1576518605.298985,37877.667,6107,3,MX,1,100,-62
1576518605.339807,37912.000,6107,3,MX,1,100,-65
1576518605.381025,37946.667,6124,3,MX,1,100,-65
1576518605.422243,37981.333,6124,3,MX,1,100,-65
1576518605.463461,38016.000,6124,3,MX,1,100,-64
1576518605.503490,38049.667,6142,3,MX,1,100,-61
1576518605.543519,38083.333,6142,3,MX,1,100,-54
1576518605.583549,38117.000,6142,3,MX,1,100,-37
1576518605.620803,38148.333,6160,3,MX,1,100,-46
1576518605.658058,38179.667,6160,3,MX,1,100,-55
1576518605.695313,38211.000,6160,3,MX,1,100,-57
1576518605.734549,38244.000,6178,3,MX,1,100,-61
1576518605.773786,38277.000,6178,3,MX,1,100,-64
1576518605.813022,38310.000,6178,3,MX,1,100,-65
1576518605.853447,38344.000,6194,2,MX,1,100,-68
1576518605.893873,38378.000,6194,2,MX,1,100,-66
1576518605.939054,38416.000,6212,3,MX,1,100,-58
1576518605.984235,38454.000,6212,3,MX,1,100,-48
1576518606.029417,38492.000,6212,3,MX,1,100,-57
1576518606.071031,38527.000,6231,3,MX,1,100,-60
1576518606.112645,38562.000,6231,3,MX,1,100,-64
1576518606.154260,38597.000,6231,3,MX,1,100,-66
1576518606.192505,38629.167,6252,6,MX,1,100,-68
1576518606.230751,38661.333,6252,6,MX,1,100,-68
1576518606.268996,38693.500,6252,6,MX,1,100,-65
1576518606.307242,38725.667,6252,6,MX,1,100,-56
1576518606.345488,38757.833,6252,6,MX,1,100,-50
1576518606.383733,38790.000,6252,6,MX,1,100,-58
1576518606.424159,38824.000,6271,2,MX,1,100,-61
1576518606.464584,38858.000,6271,2,MX,1,100,-63
1576518606.505802,38892.667,6288,3,MX,1,100,-65
1576518606.547020,38927.333,6288,3,MX,1,100,-66
1576518606.588238,38962.000,6288,3,MX,1,100,-65
1576518606.633023,38999.667,6306,3,MX,1,100,-65
1576518606.677808,39037.333,6306,3,MX,1,100,-62
1576518606.722593,39075.000,6306,3,MX,1,100,-58
1576518606.761037,39107.333,6324,3,MX,1,100,-55
1576518606.799480,39139.667,6324,3,MX,1,100,-51
1576518606.837924,39172.000,6324,3,MX,1,100,-46
1576518606.875179,39203.333,6342,3,MX,1,100,-44
1576518606.912434,39234.667,6342,3,MX,1,100,-42
1576518606.949689,39266.000,6342,3,MX,1,100,-43
1576518606.989718,39299.667,6361,3,MX,1,100,-41
1576518607.029747,39333.333,6361,3,MX,1,100,-40
1576518607.069776,39367.000,6361,3,MX,1,100,-38
1576518607.110201,39401.000,6379,3,MX,1,100,-40
1576518607.150626,39435.000,6379,3,MX,1,100,-39
1576518607.191052,39469.000,6379,3,MX,1,100,-40
1576518607.232270,39503.667,6397,3,MX,1,100,-40
1576518607.273488,39538.333,6397,3,MX,1,100,-40
1576518607.314706,39573.000,6397,3,MX,1,100,-39
1576518607.354339,39606.333,6414,3,MX,1,100,-41
1576518607.393971,39639.667,6414,3,MX,1,100,-40
1576518607.433604,39673.000,6414,3,MX,1,100,-39
1576518607.474426,39707.333,6432,3,MX,1,100,-37
1576518607.515248,39741.667,6432,3,MX,1,100,-38
1576518607.556069,39776.000,6432,3,MX,1,100,-38
1576518607.594513,39808.333,6450,3,MX,1,100,-38
1576518607.632957,39840.667,6450,3,MX,1,100,-39
1576518607.671401,39873.000,6450,3,MX,1,100,-38
1576518607.711826,39907.000,6468,3,MX,1,100,-37
1576518607.752251,39941.000,6468,3,MX,1,100,-38
1576518607.792677,39975.000,6468,3,MX,1,100,-37
1576518607.830724,40007.000,6484,3,MX,1,100,-39
1576518607.868772,40039.000,6484,3,MX,1,100,-39
1576518607.906819,40071.000,6484,3,MX,1,100,-39
1576518607.948830,40106.333,6502,3,MX,1,100,-38
1576518607.990840,40141.667,6502,3,MX,1,100,-38
1576518608.032851,40177.000,6502,3,MX,1,100,-39
1576518608.068917,40207.333,6521,3,MX,1,100,-37
1576518608.104983,40237.667,6521,3,MX,1,100,-38
1576518608.141048,40268.000,6521,3,MX,1,100,-39
1576518608.183852,40304.000,6539,3,MX,1,100,-38
1576518608.226655,40340.000,6539,3,MX,1,100,-38
1576518608.269458,40376.000,6539,3,MX,1,100,-37
1576518608.309487,40409.667,6557,3,MX,1,100,-38
1576518608.349516,40443.333,6557,3,MX,1,100,-37
1576518608.389545,40477.000,6557,3,MX,1,100,-39
1576518608.430763,40511.667,6575,3,MX,1,100,-38
1576518608.471982,40546.333,6575,3,MX,1,100,-39
1576518608.513200,40581.000,6575,3,MX,1,100,-37
1576518608.554418,40615.667,6593,3,MX,1,100,-39
1576518608.595636,40650.333,6593,3,MX,1,100,-37
1576518608.636854,40685.000,6593,3,MX,1,100,-39
1576518608.674505,40716.667,6610,3,MX,1,100,-39
1576518608.712156,40748.333,6610,3,MX,1,100,-39
1576518608.749807,40780.000,6610,3,MX,1,100,-38
1576518608.789440,40813.333,6628,3,MX,1,100,-39
1576518608.829072,40846.667,6628,3,MX,1,100,-39
1576518608.868705,40880.000,6628,3,MX,1,100,-38
1576518608.908734,40913.667,6646,3,MX,1,100,-38
1576518608.948763,40947.333,6646,3,MX,1,100,-38
1576518608.988792,40981.000,6646,3,MX,1,100,-39
1576518609.033974,41019.000,6663,3,MX,1,100,-38
1576518609.079155,41057.000,6663,3,MX,1,100,-39
1576518609.124336,41095.000,6663,3,MX,1,100,-38
1576518609.165158,41129.333,6681,3,MX,1,100,-39
1576518609.205980,41163.667,6681,3,MX,1,100,-38
1576518609.246801,41198.000,6681,3,MX,1,100,-37
1576518609.284849,41230.000,6699,3,MX,1,100,-39
1576518609.322896,41262.000,6699,3,MX,1,100,-38
1576518609.360944,41294.000,6699,3,MX,1,100,-38
1576518609.398595,41325.667,6717,3,MX,1,100,-38
1576518609.436246,41357.333,6717,3,MX,1,100,-39
1576518609.473897,41389.000,6717,3,MX,1,100,-38
1576518609.514322,41423.000,6735,3,MX,1,100,-39
1576518609.554748,41457.000,6735,3,MX,1,100,-39
1576518609.595173,41491.000,6735,3,MX,1,100,-38
1576518609.635995,41525.333,6753,3,MX,1,100,-39
1576518609.676816,41559.667,6753,3,MX,1,100,-37
1576518609.717638,41594.000,6753,3,MX,1,100,-37
1576518609.763216,41632.333,6771,3,MX,1,100,-37
1576518609.808794,41670.667,6771,3,MX,1,100,-39
1576518609.854371,41709.000,6771,3,MX,1,100,-38
1576518609.892419,41741.000,6788,3,MX,1,100,-39
1576518609.930466,41773.000,6788,3,MX,1,100,-40
1576518609.968513,41805.000,6788,3,MX,1,100,-39
1576518610.006561,41837.000,6807,3,MX,1,100,-40
1576518610.044608,41869.000,6807,3,MX,1,100,-40
1576518610.082656,41901.000,6807,3,MX,1,100,-38
1576518610.123081,41935.000,6825,3,MX,1,100,-40
1576518610.163507,41969.000,6825,3,MX,1,100,-39
1576518610.203932,42003.000,6825,3,MX,1,100,-39
1576518610.245546,42038.000,6841,3,MX,1,100,-39
1576518610.287161,42073.000,6841,3,MX,1,100,-39
1576518610.328775,42108.000,6841,3,MX,1,100,-39
1576518610.369993,42142.667,6859,3,MX,1,100,-40
1576518610.411211,42177.333,6859,3,MX,1,100,-39
1576518610.452429,42212.000,6859,3,MX,1,100,-38
1576518610.491665,42245.000,6877,3,MX,1,100,-39
1576518610.530902,42278.000,6877,3,MX,1,100,-39
1576518610.570138,42311.000,6877,3,MX,1,100,-40
1576518610.610960,42345.333,6895,3,MX,1,100,-39
1576518610.651782,42379.667,6895,3,MX,1,100,-38
1576518610.692603,42414.000,6895,3,MX,1,100,-40
1576518610.732236,42447.333,6913,3,MX,1,100,-40
1576518610.771869,42480.667,6913,3,MX,1,100,-39
1576518610.811502,42514.000,6913,3,MX,1,100,-39
1576518610.852720,42548.667,6931,3,MX,1,100,-39
1576518610.893938,42583.333,6931,3,MX,1,100,-39
1576518610.935156,42618.000,6931,3,MX,1,100,-39
1576518610.976176,42652.500,6949,2,MX,1,100,-39
1576518611.017195,42687.000,6949,2,MX,1,100,-40
1576518611.056432,42720.000,6968,4,MX,1,100,-39
1576518611.095668,42753.000,6968,4,MX,1,100,-40
1576518611.134905,42786.000,6968,4,MX,1,100,-40
1576518611.174141,42819.000,6968,4,MX,1,100,-39
1576518611.212188,42851.000,6985,3,MX,1,100,-40
1576518611.250236,42883.000,6985,3,MX,1,100,-40
1576518611.288283,42915.000,6985,3,MX,1,100,-40
1576518611.332870,42952.500,7003,2,MX,1,100,-39
1576518611.377457,42990.000,7003,2,MX,1,100,-39
1576518611.414910,43021.500,7021,4,MX,1,100,-40
1576518611.452363,43053.000,7021,4,MX,1,100,-39
1576518611.489816,43084.500,7021,4,MX,1,100,-40
1576518611.527269,43116.000,7021,4,MX,1,100,-40
1576518611.574233,43155.500,7037,2,MX,1,100,-37
1576518611.621198,43195.000,7037,2,MX,1,100,-39
1576518611.658354,43226.250,7055,4,MX,1,100,-40
1576518611.695509,43257.500,7055,4,MX,1,100,-40
1576518611.732665,43288.750,7055,4,MX,1,100,-39
1576518611.769821,43320.000,7055,4,MX,1,100,-39
1576518611.817380,43360.000,7073,2,MX,1,100,-38
1576518611.864939,43400.000,7073,2,MX,1,100,-39
1576518611.905761,43434.333,7091,3,MX,1,100,-38
1576518611.946583,43468.667,7091,3,MX,1,100,-39
1576518611.987405,43503.000,7091,3,MX,1,100,-40
1576518612.029019,43538.000,7110,3,MX,1,100,-39
1576518612.070633,43573.000,7110,3,MX,1,100,-38
1576518612.112248,43608.000,7110,3,MX,1,100,-40
1576518612.153862,43643.000,7128,3,MX,1,100,-39
1576518612.195476,43678.000,7128,3,MX,1,100,-39
1576518612.237091,43713.000,7128,3,MX,1,100,-39
1576518612.277278,43746.800,7149,5,MX,1,100,-39
1576518612.317466,43780.600,7149,5,MX,1,100,-39
1576518612.357653,43814.400,7149,5,MX,1,100,-39
1576518612.397841,43848.200,7149,5,MX,1,100,-39
1576518612.438029,43882.000,7149,5,MX,1,100,-39
1576518612.476076,43914.000,7167,3,MX,1,100,-39
1576518612.514123,43946.000,7167,3,MX,1,100,-39
1576518612.552171,43978.000,7167,3,MX,1,100,-39
1576518612.592200,44011.667,7187,3,MX,1,100,-39
1576518612.632229,44045.333,7187,3,MX,1,100,-39
1576518612.672258,44079.000,7187,3,MX,1,100,-39
1576518612.713080,44113.333,7205,3,MX,1,100,-39
1576518612.753901,44147.667,7205,3,MX,1,100,-39
1576518612.794723,44182.000,7205,3,MX,1,100,-39
1576518612.836338,44217.000,7223,2,MX,1,100,-39
1576518612.877952,44252.000,7223,2,MX,1,100,-39
1576518612.920755,44288.000,7240,4,MX,1,100,-38
1576518612.963559,44324.000,7240,4,MX,1,100,-40
1576518613.006362,44360.000,7240,4,MX,1,100,-39
1576518613.049165,44396.000,7240,4,MX,1,100,-39
1576518613.087213,44428.000,7259,3,MX,1,100,-37
1576518613.125260,44460.000,7259,3,MX,1,100,-39
1576518613.163307,44492.000,7259,3,MX,1,100,-39
1576518613.202147,44524.667,7277,3,MX,1,100,-40
1576518613.240988,44557.333,7277,3,MX,1,100,-37
1576518613.279828,44590.000,7277,3,MX,1,100,-39
1576518613.321442,44625.000,7293,3,MX,1,100,-39
1576518613.363056,44660.000,7293,3,MX,1,100,-39
1576518613.404671,44695.000,7293,3,MX,1,100,-37
1576518613.445493,44729.333,7311,3,MX,1,100,-38
1576518613.486314,44763.667,7311,3,MX,1,100,-40
1576518613.527136,44798.000,7311,3,MX,1,100,-38
1576518613.568750,44833.000,7329,2,MX,1,100,-39
1576518613.610365,44868.000,7329,2,MX,1,100,-39
1576518613.650493,44901.750,7347,4,MX,1,100,-39
1576518613.690621,44935.500,7347,4,MX,1,100,-38
1576518613.730749,44969.250,7347,4,MX,1,100,-39
1576518613.770877,45003.000,7347,4,MX,1,100,-39
1576518613.810510,45036.333,7365,3,MX,1,100,-39
1576518613.850143,45069.667,7365,3,MX,1,100,-37
1576518613.889776,45103.000,7365,3,MX,1,100,-39
1576518613.930597,45137.333,7383,3,MX,1,100,-39
1576518613.971419,45171.667,7383,3,MX,1,100,-39
1576518614.012241,45206.000,7383,3,MX,1,100,-39
1576518614.053260,45240.500,7402,2,MX,1,100,-39
1576518614.094280,45275.000,7402,2,MX,1,100,-38
1576518614.135895,45310.000,7419,3,MX,1,100,-39
1576518614.177509,45345.000,7419,3,MX,1,100,-39
1576518614.219123,45380.000,7419,3,MX,1,100,-39
1576518614.257468,45412.250,7437,4,MX,1,100,-39
1576518614.295813,45444.500,7437,4,MX,1,100,-39
1576518614.334157,45476.750,7437,4,MX,1,100,-38
1576518614.372502,45509.000,7437,4,MX,1,100,-38
1576518614.416494,45546.000,7455,2,MX,1,100,-38
1576518614.460487,45583.000,7455,2,MX,1,100,-39
1576518614.500119,45616.333,7473,3,MX,1,100,-39
1576518614.539752,45649.667,7473,3,MX,1,100,-39
1576518614.579385,45683.000,7473,3,MX,1,100,-38
1576518614.620999,45718.000,7489,3,MX,1,100,-39
1576518614.662614,45753.000,7489,3,MX,1,100,-40
1576518614.704228,45788.000,7489,3,MX,1,100,-39
1576518614.745842,45823.000,7507,3,MX,1,100,-39
1576518614.787457,45858.000,7507,3,MX,1,100,-38
1576518614.829071,45893.000,7507,3,MX,1,100,-38
1576518614.866722,45924.667,7525,3,MX,1,100,-39
1576518614.904373,45956.333,7525,3,MX,1,100,-38
1576518614.942024,45988.000,7525,3,MX,1,100,-39
1576518614.980864,46020.667,7544,3,MX,1,100,-39
1576518615.019705,46053.333,7544,3,MX,1,100,-38
1576518615.058545,46086.000,7544,3,MX,1,100,-39
1576518615.097781,46119.000,7562,3,MX,1,100,-40
1576518615.137017,46152.000,7562,3,MX,1,100,-39
1576518615.176254,46185.000,7562,3,MX,1,100,-38
1576518615.219057,46221.000,7580,3,MX,1,100,-39
1576518615.261860,46257.000,7580,3,MX,1,100,-39
1576518615.304664,46293.000,7580,3,MX,1,100,-39
1576518615.345089,46327.000,7598,3,MX,1,100,-39
1576518615.385514,46361.000,7598,3,MX,1,100,-37
1576518615.425940,46395.000,7598,3,MX,1,100,-38
1576518615.467951,46430.333,7615,3,MX,1,100,-39
1576518615.509961,46465.667,7615,3,MX,1,100,-39
1576518615.551972,46501.000,7615,3,MX,1,100,-38
1576518615.593586,46536.000,7633,3,MX,1,100,-39
1576518615.635201,46571.000,7633,3,MX,1,100,-38
1576518615.676815,46606.000,7633,3,MX,1,100,-39
1576518615.721204,46643.333,7649,3,MX,1,100,-38
1576518615.765592,46680.667,7649,3,MX,1,100,-39
1576518615.809981,46718.000,7649,3,MX,1,100,-38
1576518615.850803,46752.333,7667,3,MX,1,100,-39
1576518615.891624,46786.667,7667,3,MX,1,100,-39
1576518615.932446,46821.000,7667,3,MX,1,100,-39
1576518615.970890,46853.333,7685,3,MX,1,100,-38
1576518616.009334,46885.667,7685,3,MX,1,100,-39
1576518616.047777,46918.000,7685,3,MX,1,100,-38
1576518616.087014,46951.000,7704,3,MX,1,100,-38
1576518616.126250,46984.000,7704,3,MX,1,100,-39
1576518616.165487,47017.000,7704,3,MX,1,100,-39
1576518616.203930,47049.333,7722,3,MX,1,100,-38
1576518616.242374,47081.667,7722,3,MX,1,100,-39
1576518616.280818,47114.000,7722,3,MX,1,100,-39
1576518616.319262,47146.333,7740,3,MX,1,100,-38
1576518616.357705,47178.667,7740,3,MX,1,100,-38
1576518616.396149,47211.000,7740,3,MX,1,100,-38
1576518616.437367,47245.667,7758,3,MX,1,100,-38
1576518616.478585,47280.333,7758,3,MX,1,100,-38
1576518616.519803,47315.000,7758,3,MX,1,100,-39
1576518616.561418,47350.000,7775,3,MX,1,100,-37
1576518616.603032,47385.000,7775,3,MX,1,100,-38
1576518616.644646,47420.000,7775,3,MX,1,100,-39
1576518616.686261,47455.000,7793,2,MX,1,100,-37
1576518616.727875,47490.000,7793,2,MX,1,100,-39
1576518616.768300,47524.000,7811,4,MX,1,100,-39
1576518616.808726,47558.000,7811,4,MX,1,100,-38
1576518616.849151,47592.000,7811,4,MX,1,100,-38
1576518616.889576,47626.000,7811,4,MX,1,100,-38
1576518616.928813,47659.000,7827,3,MX,1,100,-38
1576518616.968049,47692.000,7827,3,MX,1,100,-38
1576518617.007286,47725.000,7827,3,MX,1,100,-39
1576518617.047711,47759.000,7846,3,MX,1,100,-39
1576518617.088136,47793.000,7846,3,MX,1,100,-39
1576518617.128562,47827.000,7846,3,MX,1,100,-38
1576518617.169384,47861.333,7864,3,MX,1,100,-37
1576518617.210205,47895.667,7864,3,MX,1,100,-39
1576518617.251027,47930.000,7864,3,MX,1,100,-38
1576518617.293236,47965.500,7882,2,MX,1,100,-39
1576518617.335445,48001.000,7882,2,MX,1,100,-38
1576518617.373195,48032.750,7900,4,MX,1,100,-37
1576518617.410945,48064.500,7900,4,MX,1,100,-39
1576518617.448695,48096.250,7900,4,MX,1,100,-40
1576518617.486445,48128.000,7900,4,MX,1,100,-38
1576518617.529249,48164.000,7918,3,MX,1,100,-38
1576518617.572052,48200.000,7918,3,MX,1,100,-39
1576518617.614856,48236.000,7918,3,MX,1,100,-39
1576518617.655875,48270.500,7936,2,MX,1,100,-37
1576518617.696895,48305.000,7936,2,MX,1,100,-38
1576518617.738510,48340.000,7953,3,MX,1,100,-38
1576518617.780124,48375.000,7953,3,MX,1,100,-40
1576518617.821738,48410.000,7953,3,MX,1,100,-39
1576518617.863353,48445.000,7971,3,MX,1,100,-38
1576518617.904967,48480.000,7971,3,MX,1,100,-39
1576518617.946581,48515.000,7971,3,MX,1,100,-37
1576518617.985025,48547.333,7989,3,MX,1,100,-38
1576518618.023469,48579.667,7989,3,MX,1,100,-39
1576518618.061913,48612.000,7989,3,MX,1,100,-40
1576518618.099960,48644.000,8008,4,MX,1,100,-39
1576518618.138007,48676.000,8008,4,MX,1,100,-38
1576518618.176055,48708.000,8008,4,MX,1,100,-39
1576518618.214102,48740.000,8008,4,MX,1,100,-38
1576518618.261067,48779.500,8024,2,MX,1,100,-38
1576518618.308032,48819.000,8024,2,MX,1,100,-37
1576518618.349408,48853.800,8045,5,MX,1,100,-38
1576518618.390785,48888.600,8045,5,MX,1,100,-37
1576518618.432162,48923.400,8045,5,MX,1,100,-37
1576518618.473538,48958.200,8045,5,MX,1,100,-40
1576518618.514915,48993.000,8045,5,MX,1,100,-39
1576518618.555340,49027.000,8065,3,MX,1,100,-38
1576518618.595765,49061.000,8065,3,MX,1,100,-38
1576518618.636191,49095.000,8065,3,MX,1,100,-38
1576518618.673049,49126.000,8083,3,MX,1,100,-38
1576518618.709908,49157.000,8083,3,MX,1,100,-39
1576518618.746766,49188.000,8083,3,MX,1,100,-37
1576518618.786399,49221.333,8099,3,MX,1,100,-37
1576518618.826032,49254.667,8099,3,MX,1,100,-39
1576518618.865664,49288.000,8099,3,MX,1,100,-37
1576518618.906090,49322.000,8117,3,MX,1,100,-38
1576518618.946515,49356.000,8117,3,MX,1,100,-38
1576518618.986940,49390.000,8117,3,MX,1,100,-38
1576518619.029347,49425.667,8136,3,MX,1,100,-39
1576518619.071754,49461.333,8136,3,MX,1,100,-37
1576518619.114161,49497.000,8136,3,MX,1,100,-38
1576518619.154983,49531.333,8154,3,MX,1,100,-37
1576518619.195805,49565.667,8154,3,MX,1,100,-37
1576518619.236627,49600.000,8154,3,MX,1,100,-38
1576518619.277647,49634.500,8172,2,MX,1,100,-38
1576518619.318666,49669.000,8172,2,MX,1,100,-37
1576518619.363055,49706.333,8190,3,MX,1,100,-37
1576518619.407444,49743.667,8190,3,MX,1,100,-38
1576518619.451832,49781.000,8190,3,MX,1,100,-39
1576518619.488691,49812.000,8207,3,MX,1,100,-37
1576518619.525549,49843.000,8207,3,MX,1,100,-38
1576518619.562408,49874.000,8207,3,MX,1,100,-38
1576518619.606400,49911.000,8225,3,MX,1,100,-38
1576518619.650392,49948.000,8225,3,MX,1,100,-37
1576518619.694385,49985.000,8225,3,MX,1,100,-38
1576518619.732036,50016.667,8243,3,MX,1,100,-38
1576518619.769687,50048.333,8243,3,MX,1,100,-39
1576518619.807338,50080.000,8243,3,MX,1,100,-38
1576518619.846178,50112.667,8261,3,MX,1,100,-37
1576518619.885018,50145.333,8261,3,MX,1,100,-38
1576518619.923858,50178.000,8261,3,MX,1,100,-39
1576518619.965076,50212.667,8277,3,MX,1,100,-38
1576518620.006294,50247.333,8277,3,MX,1,100,-38
1576518620.047512,50282.000,8277,3,MX,1,100,-37
1576518620.088730,50316.667,8296,3,MX,1,100,-38
1576518620.129948,50351.333,8296,3,MX,1,100,-37
1576518620.171166,50386.000,8296,3,MX,1,100,-39
1576518620.212781,50421.000,8314,3,MX,1,100,-37
1576518620.254395,50456.000,8314,3,MX,1,100,-37
1576518620.296010,50491.000,8314,3,MX,1,100,-38
1576518620.337228,50525.667,8332,3,MX,1,100,-38
1576518620.378446,50560.333,8332,3,MX,1,100,-37
1576518620.419663,50595.000,8332,3,MX,1,100,-37
1576518620.459693,50628.667,8350,3,MX,1,100,-37
1576518620.499722,50662.333,8350,3,MX,1,100,-38
1576518620.539751,50696.000,8350,3,MX,1,100,-39
1576518620.581761,50731.333,8368,3,MX,1,100,-39
1576518620.623772,50766.667,8368,3,MX,1,100,-36
1576518620.665783,50802.000,8368,3,MX,1,100,-38
1576518620.705415,50835.333,8385,3,MX,1,100,-38
1576518620.745048,50868.667,8385,3,MX,1,100,-37
1576518620.784681,50902.000,8385,3,MX,1,100,-39
1576518620.825106,50936.000,8403,3,MX,1,100,-36
1576518620.865532,50970.000,8403,3,MX,1,100,-37
1576518620.905957,51004.000,8403,3,MX,1,100,-38
1576518620.947175,51038.667,8421,3,MX,1,100,-37
1576518620.988393,51073.333,8421,3,MX,1,100,-38
1576518621.029611,51108.000,8421,3,MX,1,100,-38
1576518621.069640,51141.667,8438,3,MX,1,100,-37
1576518621.109669,51175.333,8438,3,MX,1,100,-39
1576518621.149698,51209.000,8438,3,MX,1,100,-38
1576518621.187350,51240.667,8456,3,MX,1,100,-39
1576518621.225001,51272.333,8456,3,MX,1,100,-39
1576518621.262652,51304.000,8456,3,MX,1,100,-37
1576518621.301888,51337.000,8474,3,MX,1,100,-39
1576518621.341125,51370.000,8474,3,MX,1,100,-38
1576518621.380361,51403.000,8474,3,MX,1,100,-39
1576518621.424750,51440.333,8492,3,MX,1,100,-39
1576518621.469138,51477.667,8492,3,MX,1,100,-38
1576518621.513527,51515.000,8492,3,MX,1,100,-37
1576518621.554745,51549.667,8510,3,MX,1,100,-37
1576518621.595963,51584.333,8510,3,MX,1,100,-39
1576518621.637181,51619.000,8510,3,MX,1,100,-38
1576518621.678795,51654.000,8528,2,MX,1,100,-39
1576518621.720410,51689.000,8528,2,MX,1,100,-37
1576518621.758754,51721.250,8546,4,MX,1,100,-37
1576518621.797099,51753.500,8546,4,MX,1,100,-37
1576518621.835444,51785.750,8546,4,MX,1,100,-38
1576518621.873788,51818.000,8546,4,MX,1,100,-39
1576518621.912628,51850.667,8564,3,MX,1,100,-39
1576518621.951468,51883.333,8564,3,MX,1,100,-39
1576518621.990309,51916.000,8564,3,MX,1,100,-38
1576518622.031130,51950.333,8582,3,MX,1,100,-38
1576518622.071952,51984.667,8582,3,MX,1,100,-39
1576518622.112774,52019.000,8582,3,MX,1,100,-39
1576518622.154388,52054.000,8600,2,MX,1,100,-39
1576518622.196002,52089.000,8600,2,MX,1,100,-39
1576518622.240787,52126.667,8616,3,MX,1,100,-39
1576518622.285572,52164.333,8616,3,MX,1,100,-39
1576518622.330357,52202.000,8616,3,MX,1,100,-39
1576518622.368405,52234.000,8634,4,MX,1,100,-38
1576518622.406452,52266.000,8634,4,MX,1,100,-39
1576518622.444499,52298.000,8634,4,MX,1,100,-39
1576518622.482547,52330.000,8634,4,MX,1,100,-40
1576518622.519802,52361.333,8652,3,MX,1,100,-39
1576518622.557056,52392.667,8652,3,MX,1,100,-38
1576518622.594311,52424.000,8652,3,MX,1,100,-38
1576518622.635133,52458.333,8670,3,MX,1,100,-38
1576518622.675955,52492.667,8670,3,MX,1,100,-39
1576518622.716776,52527.000,8670,3,MX,1,100,-38
1576518622.757994,52561.667,8688,3,MX,1,100,-39
1576518622.799212,52596.333,8688,3,MX,1,100,-39
1576518622.840430,52631.000,8688,3,MX,1,100,-39
1576518622.881252,52665.333,8706,3,MX,1,100,-39
1576518622.922074,52699.667,8706,3,MX,1,100,-39
1576518622.962896,52734.000,8706,3,MX,1,100,-38
1576518623.006294,52770.500,8724,2,MX,1,100,-39
1576518623.049691,52807.000,8724,2,MX,1,100,-39
1576518623.087144,52838.500,8743,4,MX,1,100,-39
1576518623.124597,52870.000,8743,4,MX,1,100,-39
1576518623.162050,52901.500,8743,4,MX,1,100,-38
1576518623.199503,52933.000,8743,4,MX,1,100,-39
1576518623.239136,52966.333,8760,3,MX,1,100,-38
1576518623.278769,52999.667,8760,3,MX,1,100,-39
1576518623.318401,53033.000,8760,3,MX,1,100,-40
1576518623.357241,53065.667,8778,3,MX,1,100,-39
1576518623.396081,53098.333,8778,3,MX,1,100,-39
1576518623.434922,53131.000,8778,3,MX,1,100,-38
1576518623.475743,53165.333,8796,3,MX,1,100,-39
1576518623.516565,53199.667,8796,3,MX,1,100,-39
1576518623.557387,53234.000,8796,3,MX,1,100,-39
1576518623.597416,53267.667,8812,3,MX,1,100,-39
1576518623.637445,53301.333,8812,3,MX,1,100,-38
1576518623.677474,53335.000,8812,3,MX,1,100,-39
1576518623.718295,53369.333,8830,3,MX,1,100,-38
1576518623.759117,53403.667,8830,3,MX,1,100,-39
1576518623.799939,53438.000,8830,3,MX,1,100,-39
1576518623.841553,53473.000,8848,3,MX,1,100,-39
1576518623.883168,53508.000,8848,3,MX,1,100,-40
1576518623.924782,53543.000,8848,3,MX,1,100,-38
1576518623.966396,53578.000,8866,2,MX,1,100,-39
1576518624.008011,53613.000,8866,2,MX,1,100,-39
1576518624.045761,53644.750,8885,4,MX,1,100,-38
1576518624.083511,53676.500,8885,4,MX,1,100,-38
1576518624.121261,53708.250,8885,4,MX,1,100,-39
1576518624.159011,53740.000,8885,4,MX,1,100,-39
1576518624.199833,53774.333,8903,3,MX,1,100,-40
1576518624.240655,53808.667,8903,3,MX,1,100,-39
1576518624.281476,53843.000,8903,3,MX,1,100,-38
1576518624.319920,53875.333,8921,3,MX,1,100,-39
1576518624.358364,53907.667,8921,3,MX,1,100,-38
1576518624.396808,53940.000,8921,3,MX,1,100,-39
1576518624.439908,53976.250,8940,4,MX,1,100,-39
1576518624.483009,54012.500,8940,4,MX,1,100,-37
1576518624.526109,54048.750,8940,4,MX,1,100,-40
1576518624.569210,54085.000,8940,4,MX,1,100,-38
1576518624.609239,54118.667,8962,3,MX,1,100,-39
1576518624.649268,54152.333,8962,3,MX,1,100,-38
1576518624.689297,54186.000,8962,3,MX,1,100,-39
1576518624.731704,54221.667,8980,3,MX,1,100,-38
1576518624.774111,54257.333,8980,3,MX,1,100,-38
1576518624.816518,54293.000,8980,3,MX,1,100,-39
1576518624.854169,54324.667,8998,3,MX,1,100,-38
1576518624.891820,54356.333,8998,3,MX,1,100,-38
1576518624.929471,54388.000,8998,3,MX,1,100,-39
1576518624.967123,54419.667,9016,3,MX,1,100,-39
1576518625.004774,54451.333,9016,3,MX,1,100,-38
1576518625.042425,54483.000,9016,3,MX,1,100,-39
1576518625.082454,54516.667,9035,3,MX,1,100,-38
1576518625.122483,54550.333,9035,3,MX,1,100,-37
1576518625.162512,54584.000,9035,3,MX,1,100,-38
1576518625.202541,54617.667,9053,3,MX,1,100,-39
1576518625.242570,54651.333,9053,3,MX,1,100,-38
1576518625.282599,54685.000,9053,3,MX,1,100,-38
1576518625.327780,54723.000,9070,3,MX,1,100,-39
1576518625.372962,54761.000,9070,3,MX,1,100,-38
1576518625.418143,54799.000,9070,3,MX,1,100,-38
1576518625.457380,54832.000,9088,3,MX,1,100,-38
1576518625.496616,54865.000,9088,3,MX,1,100,-39
1576518625.535852,54898.000,9088,3,MX,1,100,-39
1576518625.573900,54930.000,9104,3,MX,1,100,-38
1576518625.611947,54962.000,9104,3,MX,1,100,-38
1576518625.649995,54994.000,9104,3,MX,1,100,-39
1576518625.689627,55027.333,9122,3,MX,1,100,-38
1576518625.729260,55060.667,9122,3,MX,1,100,-38
1576518625.768893,55094.000,9122,3,MX,1,100,-39
1576518625.810111,55128.667,9140,3,MX,1,100,-38
1576518625.851329,55163.333,9140,3,MX,1,100,-37
1576518625.892547,55198.000,9140,3,MX,1,100,-38
1576518625.933765,55232.667,9158,3,MX,1,100,-39
1576518625.974983,55267.333,9158,3,MX,1,100,-39
1576518626.016201,55302.000,9158,3,MX,1,100,-37
1576518626.058608,55337.667,9177,3,MX,1,100,-39
1576518626.101015,55373.333,9177,3,MX,1,100,-37
1576518626.143422,55409.000,9177,3,MX,1,100,-39
1576518626.181469,55441.000,9195,3,MX,1,100,-38
1576518626.219517,55473.000,9195,3,MX,1,100,-38
1576518626.257564,55505.000,9195,3,MX,1,100,-40
1576518626.297197,55538.333,9213,3,MX,1,100,-39
1576518626.336830,55571.667,9213,3,MX,1,100,-38
1576518626.376462,55605.000,9213,3,MX,1,100,-40
1576518626.418077,55640.000,9231,3,MX,1,100,-39
1576518626.459691,55675.000,9231,3,MX,1,100,-39
1576518626.501306,55710.000,9231,3,MX,1,100,-40
1576518626.542524,55744.667,9248,3,MX,1,100,-38
1576518626.583742,55779.333,9248,3,MX,1,100,-39
1576518626.624960,55814.000,9248,3,MX,1,100,-39
1576518626.664196,55847.000,9266,3,MX,1,100,-38
1576518626.703432,55880.000,9266,3,MX,1,100,-38
1576518626.742669,55913.000,9266,3,MX,1,100,-38
1576518626.781113,55945.333,9284,3,MX,1,100,-37
1576518626.819556,55977.667,9284,3,MX,1,100,-38
1576518626.858000,56010.000,9284,3,MX,1,100,-39
1576518626.900803,56046.000,9300,3,MX,1,100,-39
1576518626.943607,56082.000,9300,3,MX,1,100,-37
1576518626.986410,56118.000,9300,3,MX,1,100,-38
1576518627.024457,56150.000,9319,3,MX,1,100,-38
1576518627.062505,56182.000,9319,3,MX,1,100,-39
1576518627.100552,56214.000,9319,3,MX,1,100,-38
1576518627.144545,56251.000,9337,3,MX,1,100,-38
1576518627.188537,56288.000,9337,3,MX,1,100,-38
1576518627.232529,56325.000,9337,3,MX,1,100,-38
1576518627.268991,56355.667,9355,3,MX,1,100,-40
1576518627.305454,56386.333,9355,3,MX,1,100,-38
1576518627.341916,56417.000,9355,3,MX,1,100,-38
1576518627.386701,56454.667,9373,3,MX,1,100,-37
1576518627.431486,56492.333,9373,3,MX,1,100,-39
1576518627.476271,56530.000,9373,3,MX,1,100,-39
1576518627.516696,56564.000,9391,3,MX,1,100,-38
1576518627.557121,56598.000,9391,3,MX,1,100,-39
1576518627.597547,56632.000,9391,3,MX,1,100,-39
1576518627.639161,56667.000,9408,2,MX,1,100,-38
1576518627.680775,56702.000,9408,2,MX,1,100,-39
1576518627.720408,56735.333,9426,3,MX,1,100,-38
1576518627.760041,56768.667,9426,3,MX,1,100,-38
1576518627.799674,56802.000,9426,3,MX,1,100,-39
1576518627.837721,56834.000,9444,4,MX,1,100,-39
1576518627.875768,56866.000,9444,4,MX,1,100,-38
1576518627.913816,56898.000,9444,4,MX,1,100,-37
1576518627.951863,56930.000,9444,4,MX,1,100,-37
1576518627.992685,56964.333,9460,3,MX,1,100,-38
1576518628.033507,56998.667,9460,3,MX,1,100,-37
1576518628.074328,57033.000,9460,3,MX,1,100,-38
1576518628.115348,57067.500,9479,2,MX,1,100,-38
1576518628.156368,57102.000,9479,2,MX,1,100,-37
1576518628.197586,57136.667,9497,3,MX,1,100,-40
1576518628.238804,57171.333,9497,3,MX,1,100,-38
1576518628.280022,57206.000,9497,3,MX,1,100,-39
1576518628.324411,57243.333,9515,3,MX,1,100,-38
1576518628.368800,57280.667,9515,3,MX,1,100,-38
1576518628.413188,57318.000,9515,3,MX,1,100,-40
1576518628.450839,57349.667,9533,3,MX,1,100,-38
1576518628.488491,57381.333,9533,3,MX,1,100,-39
1576518628.526142,57413.000,9533,3,MX,1,100,-39
1576518628.564982,57445.667,9551,3,MX,1,100,-38
1576518628.603822,57478.333,9551,3,MX,1,100,-38
1576518628.642662,57511.000,9551,3,MX,1,100,-37
1576518628.684276,57546.000,9569,3,MX,1,100,-39
1576518628.725890,57581.000,9569,3,MX,1,100,-40
1576518628.767505,57616.000,9569,3,MX,1,100,-38
1576518628.807534,57649.667,9586,3,MX,1,100,-39
1576518628.847563,57683.333,9586,3,MX,1,100,-39
1576518628.887592,57717.000,9586,3,MX,1,100,-39
1576518628.931981,57754.333,9604,3,MX,1,100,-39
1576518628.976369,57791.667,9604,3,MX,1,100,-37
1576518629.020758,57829.000,9604,3,MX,1,100,-39
1576518629.058805,57861.000,9623,3,MX,1,100,-38
1576518629.096853,57893.000,9623,3,MX,1,100,-39
1576518629.134900,57925.000,9623,3,MX,1,100,-39
1576518629.173740,57957.667,9639,3,MX,1,100,-39
1576518629.212580,57990.333,9639,3,MX,1,100,-39
1576518629.251420,58023.000,9639,3,MX,1,100,-39
1576518629.293035,58058.000,9657,3,MX,1,100,-39
1576518629.334649,58093.000,9657,3,MX,1,100,-38
1576518629.376264,58128.000,9657,3,MX,1,100,-38
1576518629.417085,58162.333,9675,3,MX,1,100,-37
1576518629.457907,58196.667,9675,3,MX,1,100,-38
1576518629.498729,58231.000,9675,3,MX,1,100,-39
1576518629.539947,58265.667,9693,3,MX,1,100,-39
1576518629.581165,58300.333,9693,3,MX,1,100,-39
1576518629.622383,58335.000,9693,3,MX,1,100,-39
1576518629.663601,58369.667,9711,3,MX,1,100,-39
1576518629.704819,58404.333,9711,3,MX,1,100,-39
1576518629.746037,58439.000,9711,3,MX,1,100,-38
1576518629.785273,58472.000,9729,3,MX,1,100,-37
1576518629.824510,58505.000,9729,3,MX,1,100,-38
1576518629.863746,58538.000,9729,3,MX,1,100,-38
1576518629.903775,58571.667,9747,3,MX,1,100,-38
1576518629.943804,58605.333,9747,3,MX,1,100,-40
1576518629.983833,58639.000,9747,3,MX,1,100,-38
1576518630.025051,58673.667,9766,3,MX,1,100,-39
1576518630.066269,58708.333,9766,3,MX,1,100,-39
1576518630.107487,58743.000,9766,3,MX,1,100,-38
1576518630.149102,58778.000,9783,3,MX,1,100,-37
1576518630.190716,58813.000,9783,3,MX,1,100,-38
1576518630.232331,58848.000,9783,3,MX,1,100,-39
1576518630.269189,58879.000,9801,3,MX,1,100,-39
1576518630.306047,58910.000,9801,3,MX,1,100,-39
1576518630.342906,58941.000,9801,3,MX,1,100,-39
1576518630.382142,58974.000,9819,3,MX,1,100,-39
1576518630.421379,59007.000,9819,3,MX,1,100,-39
1576518630.460615,59040.000,9819,3,MX,1,100,-38
1576518630.503656,59076.200,9840,5,MX,1,100,-39
1576518630.546697,59112.400,9840,5,MX,1,100,-39
1576518630.589738,59148.600,9840,5,MX,1,100,-39
1576518630.632780,59184.800,9840,5,MX,1,100,-39
1576518630.675821,59221.000,9840,5,MX,1,100,-38
1576518630.711490,59251.000,9858,2,MX,1,100,-38
1576518630.747159,59281.000,9858,2,MX,1,100,-39
1576518630.792341,59319.000,9877,3,MX,1,100,-39
1576518630.837522,59357.000,9877,3,MX,1,100,-39
1576518630.882704,59395.000,9877,3,MX,1,100,-39
1576518630.919958,59426.333,9895,3,MX,1,100,-39
1576518630.957213,59457.667,9895,3,MX,1,100,-38
1576518630.994468,59489.000,9895,3,MX,1,100,-39
1576518631.037271,59525.000,9912,3,MX,1,100,-38
1576518631.080075,59561.000,9912,3,MX,1,100,-39
1576518631.122878,59597.000,9912,3,MX,1,100,-39
1576518631.163303,59631.000,9930,3,MX,1,100,-39
1576518631.203729,59665.000,9930,3,MX,1,100,-39
1576518631.244154,59699.000,9930,3,MX,1,100,-38
1576518631.288939,59736.667,9948,3,MX,1,100,-38
1576518631.333724,59774.333,9948,3,MX,1,100,-39
1576518631.378509,59812.000,9948,3,MX,1,100,-39
1576518631.420123,59847.000,9966,3,MX,1,100,-39
1576518631.461738,59882.000,9966,3,MX,1,100,-40
1576518631.503352,59917.000,9966,3,MX,1,100,-38
1576518631.541003,59948.667,9984,3,MX,1,100,-38
1576518631.578654,59980.333,9984,3,MX,1,100,-39
1576518631.616305,60012.000,9984,3,MX,1,100,-38
1576518631.654749,60044.333,10002,3,MX,1,100,-39
1576518631.693193,60076.667,10002,3,MX,1,100,-38
1576518631.731637,60109.000,10002,3,MX,1,100,-40
1576518631.772062,60143.000,10020,3,MX,1,100,-39
1576518631.812487,60177.000,10020,3,MX,1,100,-38
1576518631.852913,60211.000,10020,3,MX,1,100,-38
1576518631.894131,60245.667,10037,3,MX,1,100,-39
1576518631.935349,60280.333,10037,3,MX,1,100,-38
1576518631.976567,60315.000,10037,3,MX,1,100,-38
1576518632.018181,60350.000,10053,3,MX,1,100,-39
1576518632.059796,60385.000,10053,3,MX,1,100,-37
1576518632.101410,60420.000,10053,3,MX,1,100,-39
1576518632.143420,60455.333,10072,3,MX,1,100,-39
1576518632.185431,60490.667,10072,3,MX,1,100,-38
1576518632.227442,60526.000,10072,3,MX,1,100,-37
1576518632.265093,60557.667,10090,3,MX,1,100,-40
1576518632.302744,60589.333,10090,3,MX,1,100,-39
1576518632.340395,60621.000,10090,3,MX,1,100,-37
1576518632.380424,60654.667,10108,3,MX,1,100,-38
1576518632.420453,60688.333,10108,3,MX,1,100,-38
1576518632.460482,60722.000,10108,3,MX,1,100,-39
1576518632.501700,60756.667,10126,3,MX,1,100,-39
1576518632.542918,60791.333,10126,3,MX,1,100,-38
1576518632.584136,60826.000,10126,3,MX,1,100,-39
1576518632.624958,60860.333,10144,3,MX,1,100,-37
1576518632.665780,60894.667,10144,3,MX,1,100,-39
1576518632.706602,60929.000,10144,3,MX,1,100,-40
1576518632.746234,60962.333,10162,3,MX,1,100,-38
1576518632.785867,60995.667,10162,3,MX,1,100,-40
1576518632.825500,61029.000,10162,3,MX,1,100,-37
1576518632.866718,61063.667,10180,3,MX,1,100,-38
1576518632.907936,61098.333,10180,3,MX,1,100,-39
1576518632.949154,61133.000,10180,3,MX,1,100,-39
1576518632.989579,61167.000,10198,3,MX,1,100,-38
1576518633.030005,61201.000,10198,3,MX,1,100,-37
1576518633.070430,61235.000,10198,3,MX,1,100,-39
1576518633.111450,61269.500,10216,2,MX,1,100,-40
1576518633.152470,61304.000,10216,2,MX,1,100,-38
1576518633.193688,61338.667,10234,3,MX,1,100,-38
1576518633.234906,61373.333,10234,3,MX,1,100,-38
1576518633.276124,61408.000,10234,3,MX,1,100,-39
1576518633.317342,61442.667,10250,3,MX,1,100,-38
1576518633.358560,61477.333,10250,3,MX,1,100,-40
1576518633.399778,61512.000,10250,3,MX,1,100,-39
1576518633.437528,61543.750,10268,4,MX,1,100,-40
1576518633.475278,61575.500,10268,4,MX,1,100,-37
1576518633.513029,61607.250,10268,4,MX,1,100,-38
1576518633.550779,61639.000,10268,4,MX,1,100,-38
1576518633.589421,61671.500,10286,2,MX,1,100,-38
1576518633.628062,61704.000,10286,2,MX,1,100,-39
1576518633.673244,61742.000,10304,3,MX,1,100,-38
1576518633.718425,61780.000,10304,3,MX,1,100,-38
1576518633.763607,61818.000,10304,3,MX,1,100,-38
1576518633.804825,61852.667,10322,3,MX,1,100,-40
1576518633.846043,61887.333,10322,3,MX,1,100,-38
1576518633.887261,61922.000,10322,3,MX,1,100,-38
1576518633.927686,61956.000,10340,3,MX,1,100,-37
1576518633.968111,61990.000,10340,3,MX,1,100,-37
1576518634.008537,62024.000,10340,3,MX,1,100,-39
1576518634.046188,62055.667,10359,3,MX,1,100,-39
1576518634.083839,62087.333,10359,3,MX,1,100,-37
1576518634.121490,62119.000,10359,3,MX,1,100,-38
1576518634.159537,62151.000,10377,3,MX,1,100,-38
1576518634.197585,62183.000,10377,3,MX,1,100,-38
1576518634.235632,62215.000,10377,3,MX,1,100,-37
1576518634.276850,62249.667,10394,3,MX,1,100,-38
1576518634.318068,62284.333,10394,3,MX,1,100,-39
1576518634.359286,62319.000,10394,3,MX,1,100,-37
1576518634.404468,62357.000,10412,3,MX,1,100,-38
1576518634.449649,62395.000,10412,3,MX,1,100,-39
1576518634.494830,62433.000,10412,3,MX,1,100,-38
1576518634.532878,62465.000,10428,3,MX,1,100,-39
1576518634.570925,62497.000,10428,3,MX,1,100,-39
1576518634.608973,62529.000,10428,3,MX,1,100,-38
1576518634.651380,62564.667,10446,3,MX,1,100,-39
1576518634.693787,62600.333,10446,3,MX,1,100,-39
1576518634.736194,62636.000,10446,3,MX,1,100,-38
1576518634.777412,62670.667,10464,3,MX,1,100,-39
1576518634.818630,62705.333,10464,3,MX,1,100,-38
1576518634.859848,62740.000,10464,3,MX,1,100,-38
1576518634.906218,62779.000,10482,2,MX,1,100,-39
1576518634.952588,62818.000,10482,2,MX,1,100,-38
1576518634.993806,62852.667,10500,3,MX,1,100,-39
1576518635.035024,62887.333,10500,3,MX,1,100,-39
1576518635.076242,62922.000,10500,3,MX,1,100,-39
1576518635.116668,62956.000,10519,3,MX,1,100,-39
1576518635.157093,62990.000,10519,3,MX,1,100,-37
1576518635.197519,63024.000,10519,3,MX,1,100,-39
1576518635.237548,63057.667,10536,3,MX,1,100,-39
1576518635.277577,63091.333,10536,3,MX,1,100,-38
1576518635.317606,63125.000,10536,3,MX,1,100,-39
1576518635.355653,63157.000,10554,4,MX,1,100,-38
1576518635.393701,63189.000,10554,4,MX,1,100,-39
1576518635.431748,63221.000,10554,4,MX,1,100,-39
1576518635.469795,63253.000,10554,4,MX,1,100,-38
1576518635.510221,63287.000,10572,3,MX,1,100,-39
1576518635.550646,63321.000,10572,3,MX,1,100,-39
1576518635.591072,63355.000,10572,3,MX,1,100,-38
1576518635.632091,63389.500,10588,2,MX,1,100,-39
1576518635.673111,63424.000,10588,2,MX,1,100,-39
1576518635.713933,63458.333,10606,3,MX,1,100,-38
1576518635.754755,63492.667,10606,3,MX,1,100,-38
1576518635.795576,63527.000,10606,3,MX,1,100,-38
1576518635.836398,63561.333,10624,3,MX,1,100,-38
1576518635.877220,63595.667,10624,3,MX,1,100,-39
1576518635.918041,63630.000,10624,3,MX,1,100,-38
1576518635.959260,63664.667,10642,3,MX,1,100,-39
1576518636.000478,63699.333,10642,3,MX,1,100,-38
1576518636.041696,63734.000,10642,3,MX,1,100,-38
1576518636.080139,63766.333,10661,3,MX,1,100,-39
1576518636.118583,63798.667,10661,3,MX,1,100,-40
1576518636.157027,63831.000,10661,3,MX,1,100,-38
1576518636.197452,63865.000,10679,3,MX,1,100,-39
1576518636.237878,63899.000,10679,3,MX,1,100,-37
1576518636.278303,63933.000,10679,3,MX,1,100,-39
1576518636.319521,63967.667,10697,3,MX,1,100,-38
1576518636.360739,64002.333,10697,3,MX,1,100,-38
1576518636.401957,64037.000,10697,3,MX,1,100,-38
1576518636.441986,64070.667,10714,3,MX,1,100,-39
1576518636.482015,64104.333,10714,3,MX,1,100,-39
1576518636.522044,64138.000,10714,3,MX,1,100,-39
1576518636.562232,64171.800,10735,5,MX,1,100,-40
1576518636.602419,64205.600,10735,5,MX,1,100,-39
1576518636.642607,64239.400,10735,5,MX,1,100,-38
1576518636.682795,64273.200,10735,5,MX,1,100,-39
1576518636.722982,64307.000,10735,5,MX,1,100,-38
1576518636.763407,64341.000,10755,3,MX,1,100,-38
1576518636.803833,64375.000,10755,3,MX,1,100,-38
1576518636.844258,64409.000,10755,3,MX,1,100,-39
1576518636.885873,64444.000,10773,3,MX,1,100,-39
1576518636.927487,64479.000,10773,3,MX,1,100,-39
1576518636.969101,64514.000,10773,3,MX,1,100,-39
1576518637.010319,64548.667,10791,3,MX,1,100,-39
1576518637.051538,64583.333,10791,3,MX,1,100,-39
1576518637.092756,64618.000,10791,3,MX,1,100,-38
1576518637.131992,64651.000,10809,3,MX,1,100,-39
1576518637.171228,64684.000,10809,3,MX,1,100,-39
1576518637.210465,64717.000,10809,3,MX,1,100,-38
1576518637.247720,64748.333,10827,3,MX,1,100,-37
1576518637.284974,64779.667,10827,3,MX,1,100,-38
1576518637.322229,64811.000,10827,3,MX,1,100,-38
1576518637.361862,64844.333,10845,3,MX,1,100,-40
1576518637.401495,64877.667,10845,3,MX,1,100,-39
1576518637.441127,64911.000,10845,3,MX,1,100,-38
1576518637.486309,64949.000,10862,3,MX,1,100,-38
1576518637.531490,64987.000,10862,3,MX,1,100,-38
1576518637.576671,65025.000,10862,3,MX,1,100,-39
1576518637.618285,65060.000,10879,2,MX,1,100,-39
1576518637.659900,65095.000,10879,2,MX,1,100,-39
1576518637.699136,65128.000,10897,4,MX,1,100,-39
1576518637.738373,65161.000,10897,4,MX,1,100,-39
1576518637.777609,65194.000,10897,4,MX,1,100,-39
1576518637.816845,65227.000,10897,4,MX,1,100,-39
1576518637.854893,65259.000,10915,3,MX,1,100,-37
1576518637.892940,65291.000,10915,3,MX,1,100,-39
1576518637.930988,65323.000,10915,3,MX,1,100,-39
1576518637.970224,65356.000,10933,3,MX,1,100,-39
1576518638.009460,65389.000,10933,3,MX,1,100,-37
1576518638.048697,65422.000,10933,3,MX,1,100,-39
1576518638.089519,65456.333,10952,3,MX,1,100,-39
1576518638.130340,65490.667,10952,3,MX,1,100,-37
1576518638.171162,65525.000,10952,3,MX,1,100,-39
1576518638.218127,65564.500,10970,2,MX,1,100,-39
1576518638.265092,65604.000,10970,2,MX,1,100,-39
1576518638.304031,65636.750,10988,4,MX,1,100,-40
1576518638.342970,65669.500,10988,4,MX,1,100,-39
1576518638.381909,65702.250,10988,4,MX,1,100,-40
1576518638.420848,65735.000,10988,4,MX,1,100,-39
1576518638.468407,65775.000,11005,2,MX,1,100,-38
1576518638.515967,65815.000,11005,2,MX,1,100,-39
1576518638.553618,65846.667,11023,3,MX,1,100,-39
1576518638.591269,65878.333,11023,3,MX,1,100,-39
1576518638.628920,65910.000,11023,3,MX,1,100,-39
1576518638.670138,65944.667,11039,3,MX,1,100,-38
1576518638.711356,65979.333,11039,3,MX,1,100,-38
1576518638.752574,66014.000,11039,3,MX,1,100,-39
1576518638.794585,66049.333,11057,3,MX,1,100,-38
1576518638.836596,66084.667,11057,3,MX,1,100,-39
1576518638.878606,66120.000,11057,3,MX,1,100,-38
1576518638.916257,66151.667,11075,3,MX,1,100,-39
1576518638.953908,66183.333,11075,3,MX,1,100,-38
1576518638.991560,66215.000,11075,3,MX,1,100,-39
1576518639.032778,66249.667,11094,3,MX,1,100,-39
1576518639.073996,66284.333,11094,3,MX,1,100,-39
1576518639.115214,66319.000,11094,3,MX,1,100,-39
1576518639.152865,66350.667,11112,3,MX,1,100,-39
1576518639.190516,66382.333,11112,3,MX,1,100,-38
1576518639.228167,66414.000,11112,3,MX,1,100,-37
1576518639.268592,66448.000,11130,3,MX,1,100,-37
1576518639.309018,66482.000,11130,3,MX,1,100,-39
1576518639.349443,66516.000,11130,3,MX,1,100,-38
1576518639.391057,66551.000,11148,3,MX,1,100,-37
1576518639.432672,66586.000,11148,3,MX,1,100,-38
1576518639.474286,66621.000,11148,3,MX,1,100,-39
1576518639.516297,66656.333,11165,3,MX,1,100,-39
1576518639.558307,66691.667,11165,3,MX,1,100,-39
1576518639.600318,66727.000,11165,3,MX,1,100,-39
1576518639.639158,66759.667,11183,3,MX,1,100,-39
1576518639.677998,66792.333,11183,3,MX,1,100,-39
1576518639.716838,66825.000,11183,3,MX,1,100,-37
1576518639.758056,66859.667,11201,3,MX,1,100,-38
1576518639.799274,66894.333,11201,3,MX,1,100,-37
1576518639.840492,66929.000,11201,3,MX,1,100,-38
1576518639.880522,66962.667,11217,3,MX,1,100,-39
1576518639.920551,66996.333,11217,3,MX,1,100,-38
1576518639.960580,67030.000,11217,3,MX,1,100,-38
1576518640.001401,67064.333,11235,3,MX,1,100,-39
1576518640.042223,67098.667,11235,3,MX,1,100,-40
1576518640.083045,67133.000,11235,3,MX,1,100,-38
1576518640.124659,67168.000,11254,3,MX,1,100,-38
1576518640.166274,67203.000,11254,3,MX,1,100,-39
1576518640.207888,67238.000,11254,3,MX,1,100,-38
1576518640.245935,67270.000,11272,3,MX,1,100,-39
1576518640.283983,67302.000,11272,3,MX,1,100,-38
1576518640.322030,67334.000,11272,3,MX,1,100,-39
1576518640.360474,67366.333,11290,3,MX,1,100,-39
1576518640.398918,67398.667,11290,3,MX,1,100,-39
1576518640.437361,67431.000,11290,3,MX,1,100,-39
1576518640.480561,67467.333,11308,3,MX,1,100,-39
1576518640.523761,67503.667,11308,3,MX,1,100,-39
1576518640.566960,67540.000,11308,3,MX,1,100,-38
1576518640.608575,67575.000,11326,3,MX,1,100,-38
1576518640.650189,67610.000,11326,3,MX,1,100,-39
1576518640.691803,67645.000,11326,3,MX,1,100,-39
1576518640.733418,67680.000,11343,3,MX,1,100,-37
1576518640.775032,67715.000,11343,3,MX,1,100,-39
1576518640.816647,67750.000,11343,3,MX,1,100,-40
1576518640.855487,67782.667,11361,3,MX,1,100,-38
1576518640.894327,67815.333,11361,3,MX,1,100,-39
1576518640.933167,67848.000,11361,3,MX,1,100,-38
1576518640.971214,67880.000,11379,3,MX,1,100,-39
1576518641.009262,67912.000,11379,3,MX,1,100,-38
1576518641.047309,67944.000,11379,3,MX,1,100,-38
1576518641.087338,67977.667,11398,3,MX,1,100,-37
1576518641.127367,68011.333,11398,3,MX,1,100,-38
1576518641.167396,68045.000,11398,3,MX,1,100,-37
1576518641.209011,68080.000,11414,3,MX,1,100,-38
1576518641.250625,68115.000,11414,3,MX,1,100,-38
1576518641.292239,68150.000,11414,3,MX,1,100,-39
1576518641.338610,68189.000,11432,2,MX,1,100,-38
1576518641.384980,68228.000,11432,2,MX,1,100,-38
1576518641.426594,68263.000,11450,3,MX,1,100,-39
1576518641.468209,68298.000,11450,3,MX,1,100,-38
1576518641.509823,68333.000,11450,3,MX,1,100,-39
1576518641.547276,68364.500,11468,4,MX,1,100,-38
1576518641.584729,68396.000,11468,4,MX,1,100,-39
1576518641.622182,68427.500,11468,4,MX,1,100,-38
1576518641.659635,68459.000,11468,4,MX,1,100,-39
1576518641.698871,68492.000,11486,3,MX,1,100,-39
1576518641.738107,68525.000,11486,3,MX,1,100,-37
1576518641.777344,68558.000,11486,3,MX,1,100,-39
1576518641.818562,68592.667,11504,3,MX,1,100,-38
1576518641.859780,68627.333,11504,3,MX,1,100,-37
1576518641.900998,68662.000,11504,3,MX,1,100,-39
1576518641.941423,68696.000,11522,3,MX,1,100,-38
1576518641.981849,68730.000,11522,3,MX,1,100,-39
1576518642.022274,68764.000,11522,3,MX,1,100,-37
1576518642.070428,68804.500,11540,2,MX,1,100,-40
1576518642.118582,68845.000,11540,2,MX,1,100,-39
1576518642.157025,68877.333,11558,3,MX,1,100,-39
1576518642.195469,68909.667,11558,3,MX,1,100,-37
1576518642.233913,68942.000,11558,3,MX,1,100,-38
1576518642.278301,68979.333,11574,3,MX,1,100,-40
1576518642.322690,69016.667,11574,3,MX,1,100,-38
1576518642.367079,69054.000,11574,3,MX,1,100,-39
1576518642.405126,69086.000,11592,3,MX,1,100,-37
1576518642.443174,69118.000,11592,3,MX,1,100,-38
1576518642.481221,69150.000,11592,3,MX,1,100,-38
1576518642.520061,69182.667,11610,3,MX,1,100,-39
1576518642.558901,69215.333,11610,3,MX,1,100,-39
1576518642.597741,69248.000,11610,3,MX,1,100,-38
1576518642.634124,69278.600,11631,5,MX,1,100,-38
1576518642.670507,69309.200,11631,5,MX,1,100,-39
1576518642.706890,69339.800,11631,5,MX,1,100,-39
1576518642.743273,69370.400,11631,5,MX,1,100,-39
1576518642.779655,69401.000,11631,5,MX,1,100,-38
1576518642.821270,69436.000,11650,3,MX,1,100,-38
1576518642.862884,69471.000,11650,3,MX,1,100,-39
1576518642.904499,69506.000,11650,3,MX,1,100,-39
1576518642.942942,69538.333,11668,3,MX,1,100,-39
1576518642.981386,69570.667,11668,3,MX,1,100,-38
1576518643.019830,69603.000,11668,3,MX,1,100,-39
1576518643.061048,69637.667,11685,3,MX,1,100,-41
1576518643.102266,69672.333,11685,3,MX,1,100,-39
1576518643.143484,69707.000,11685,3,MX,1,100,-39
1576518643.185098,69742.000,11703,3,MX,1,100,-40
1576518643.226713,69777.000,11703,3,MX,1,100,-38
1576518643.268327,69812.000,11703,3,MX,1,100,-39
1576518643.308753,69846.000,11721,3,MX,1,100,-39
1576518643.349178,69880.000,11721,3,MX,1,100,-39
1576518643.389603,69914.000,11721,3,MX,1,100,-40
1576518643.428047,69946.333,11739,3,MX,1,100,-39
1576518643.466491,69978.667,11739,3,MX,1,100,-39
1576518643.504935,70011.000,11739,3,MX,1,100,-39
1576518643.546945,70046.333,11757,3,MX,1,100,-39
1576518643.588956,70081.667,11757,3,MX,1,100,-38
1576518643.630966,70117.000,11757,3,MX,1,100,-38
1576518643.667825,70148.000,11775,3,MX,1,100,-38
1576518643.704683,70179.000,11775,3,MX,1,100,-39
1576518643.741542,70210.000,11775,3,MX,1,100,-38
1576518643.784741,70246.333,11793,3,MX,1,100,-39
1576518643.827941,70282.667,11793,3,MX,1,100,-37
1576518643.871141,70319.000,11793,3,MX,1,100,-38
1576518643.912359,70353.667,11811,3,MX,1,100,-39
1576518643.953577,70388.333,11811,3,MX,1,100,-38
1576518643.994795,70423.000,11811,3,MX,1,100,-39
1576518644.035220,70457.000,11829,3,MX,1,100,-39
1576518644.075646,70491.000,11829,3,MX,1,100,-39
1576518644.116071,70525.000,11829,3,MX,1,100,-39
1576518644.156893,70559.333,11847,3,MX,1,100,-38
1576518644.197715,70593.667,11847,3,MX,1,100,-37
1576518644.238536,70628.000,11847,3,MX,1,100,-37
1576518644.276584,70660.000,11863,3,MX,1,100,-38
1576518644.314631,70692.000,11863,3,MX,1,100,-39
1576518644.352679,70724.000,11863,3,MX,1,100,-39
1576518644.391519,70756.667,11881,3,MX,1,100,-39
1576518644.430359,70789.333,11881,3,MX,1,100,-39
1576518644.469199,70822.000,11881,3,MX,1,100,-39
1576518644.514380,70860.000,11899,3,MX,1,100,-39
1576518644.559561,70898.000,11899,3,MX,1,100,-38
1576518644.604743,70936.000,11899,3,MX,1,100,-38
1576518644.645564,70970.333,11917,3,MX,1,100,-39
1576518644.686386,71004.667,11917,3,MX,1,100,-39
1576518644.727208,71039.000,11917,3,MX,1,100,-39
1576518644.767237,71072.667,11935,3,MX,1,100,-39
1576518644.807266,71106.333,11935,3,MX,1,100,-38
1576518644.847295,71140.000,11935,3,MX,1,100,-38
1576518644.885342,71172.000,11953,3,MX,1,100,-39
1576518644.923390,71204.000,11953,3,MX,1,100,-38
1576518644.961437,71236.000,11953,3,MX,1,100,-39
1576518645.000277,71268.667,11971,3,MX,1,100,-38
1576518645.039117,71301.333,11971,3,MX,1,100,-38
1576518645.077957,71334.000,11971,3,MX,1,100,-39
1576518645.119175,71368.667,11990,3,MX,1,100,-39
1576518645.160393,71403.333,11990,3,MX,1,100,-38
1576518645.201612,71438.000,11990,3,MX,1,100,-39
1576518645.242433,71472.333,12007,3,MX,1,100,-39
1576518645.283255,71506.667,12007,3,MX,1,100,-39
1576518645.324077,71541.000,12007,3,MX,1,100,-37
1576518645.365691,71576.000,12025,2,MX,1,100,-39
1576518645.407305,71611.000,12025,2,MX,1,100,-38
1576518645.446839,71644.250,12043,4,MX,1,100,-38
1576518645.486373,71677.500,12043,4,MX,1,100,-38
1576518645.525906,71710.750,12043,4,MX,1,100,-38
1576518645.565440,71744.000,12043,4,MX,1,100,-38
1576518645.605073,71777.333,12059,3,MX,1,100,-37
1576518645.644705,71810.667,12059,3,MX,1,100,-39
1576518645.684338,71844.000,12059,3,MX,1,100,-39
1576518645.724763,71878.000,12077,3,MX,1,100,-37
1576518645.765189,71912.000,12077,3,MX,1,100,-40
1576518645.805614,71946.000,12077,3,MX,1,100,-39
1576518645.846832,71980.667,12095,3,MX,1,100,-39
1576518645.888050,72015.333,12095,3,MX,1,100,-38
1576518645.929268,72050.000,12095,3,MX,1,100,-38
1576518645.970486,72084.667,12113,3,MX,1,100,-37
1576518646.011704,72119.333,12113,3,MX,1,100,-40
1576518646.052922,72154.000,12113,3,MX,1,100,-38
1576518646.095726,72190.000,12132,2,MX,1,100,-37
1576518646.138529,72226.000,12132,2,MX,1,100,-38
1576518646.178063,72259.250,12150,4,MX,1,100,-39
1576518646.217597,72292.500,12150,4,MX,1,100,-38
1576518646.257130,72325.750,12150,4,MX,1,100,-39
1576518646.296664,72359.000,12150,4,MX,1,100,-39
1576518646.334711,72391.000,12168,3,MX,1,100,-39
1576518646.372759,72423.000,12168,3,MX,1,100,-39
1576518646.410806,72455.000,12168,3,MX,1,100,-39
1576518646.447664,72486.000,12186,3,MX,1,100,-38
1576518646.484523,72517.000,12186,3,MX,1,100,-39
1576518646.521381,72548.000,12186,3,MX,1,100,-38
1576518646.562203,72582.333,12204,3,MX,1,100,-38
1576518646.603025,72616.667,12204,3,MX,1,100,-39
1576518646.643847,72651.000,12204,3,MX,1,100,-37
1576518646.683479,72684.333,12221,3,MX,1,100,-39
1576518646.723112,72717.667,12221,3,MX,1,100,-38
1576518646.762745,72751.000,12221,3,MX,1,100,-38
1576518646.804359,72786.000,12239,3,MX,1,100,-40
1576518646.845973,72821.000,12239,3,MX,1,100,-38
1576518646.887588,72856.000,12239,3,MX,1,100,-40
1576518646.928409,72890.333,12255,3,MX,1,100,-39
1576518646.969231,72924.667,12255,3,MX,1,100,-39
1576518647.010053,72959.000,12255,3,MX,1,100,-39
1576518647.050082,72992.667,12274,3,MX,1,100,-39
1576518647.090111,73026.333,12274,3,MX,1,100,-38
1576518647.130140,73060.000,12274,3,MX,1,100,-40
1576518647.168980,73092.667,12292,3,MX,1,100,-38
1576518647.207820,73125.333,12292,3,MX,1,100,-39
1576518647.246660,73158.000,12292,3,MX,1,100,-39
1576518647.285500,73190.667,12310,3,MX,1,100,-39
1576518647.324340,73223.333,12310,3,MX,1,100,-39
1576518647.363180,73256.000,12310,3,MX,1,100,-38
1576518647.401624,73288.333,12328,3,MX,1,100,-39
1576518647.440068,73320.667,12328,3,MX,1,100,-37
1576518647.478512,73353.000,12328,3,MX,1,100,-38
1576518647.517748,73386.000,12346,3,MX,1,100,-39
1576518647.556984,73419.000,12346,3,MX,1,100,-38
1576518647.596221,73452.000,12346,3,MX,1,100,-39
1576518647.641402,73490.000,12364,3,MX,1,100,-39
1576518647.686584,73528.000,12364,3,MX,1,100,-39
1576518647.731765,73566.000,12364,3,MX,1,100,-38
1576518647.772983,73600.667,12381,3,MX,1,100,-37
1576518647.814201,73635.333,12381,3,MX,1,100,-39
1576518647.855419,73670.000,12381,3,MX,1,100,-39
1576518647.895052,73703.333,12399,3,MX,1,100,-40
1576518647.934684,73736.667,12399,3,MX,1,100,-39
1576518647.974317,73770.000,12399,3,MX,1,100,-38
1576518648.011968,73801.667,12417,3,MX,1,100,-39
1576518648.049619,73833.333,12417,3,MX,1,100,-39
1576518648.087270,73865.000,12417,3,MX,1,100,-38
1576518648.126903,73898.333,12436,3,MX,1,100,-37
1576518648.166536,73931.667,12436,3,MX,1,100,-40
1576518648.206169,73965.000,12436,3,MX,1,100,-39
1576518648.246990,73999.333,12452,3,MX,1,100,-39
1576518648.287812,74033.667,12452,3,MX,1,100,-38
1576518648.328634,74068.000,12452,3,MX,1,100,-37
1576518648.375598,74107.500,12470,2,MX,1,100,-38
1576518648.422563,74147.000,12470,2,MX,1,100,-38
1576518648.463781,74181.667,12488,3,MX,1,100,-39
1576518648.504999,74216.333,12488,3,MX,1,100,-39
1576518648.546217,74251.000,12488,3,MX,1,100,-40
1576518648.583670,74282.500,12506,4,MX,1,100,-38
1576518648.621123,74314.000,12506,4,MX,1,100,-39
1576518648.658576,74345.500,12506,4,MX,1,100,-39
1576518648.696029,74377.000,12506,4,MX,1,100,-39
1576518648.736217,74410.800,12527,5,MX,1,100,-39
1576518648.776404,74444.600,12527,5,MX,1,100,-40
1576518648.816592,74478.400,12527,5,MX,1,100,-39
1576518648.856779,74512.200,12527,5,MX,1,100,-39
1576518648.896967,74546.000,12527,5,MX,1,100,-39
1576518648.938581,74581.000,12545,2,MX,1,100,-39
1576518648.980196,74616.000,12545,2,MX,1,100,-39
1576518649.021017,74650.333,12564,3,MX,1,100,-39
1576518649.061839,74684.667,12564,3,MX,1,100,-39
1576518649.102661,74719.000,12564,3,MX,1,100,-40
1576518649.145068,74754.667,12582,3,MX,1,100,-41
1576518649.187475,74790.333,12582,3,MX,1,100,-40
1576518649.229882,74826.000,12582,3,MX,1,100,-40
1576518649.267533,74857.667,12600,3,MX,1,100,-40
1576518649.305184,74889.333,12600,3,MX,1,100,-39
1576518649.342835,74921.000,12600,3,MX,1,100,-40
1576518649.383260,74955.000,12618,3,MX,1,100,-40
1576518649.423686,74989.000,12618,3,MX,1,100,-40
1576518649.464111,75023.000,12618,3,MX,1,100,-41
1576518649.504933,75057.333,12636,3,MX,1,100,-39
1576518649.545755,75091.667,12636,3,MX,1,100,-41
1576518649.586576,75126.000,12636,3,MX,1,100,-41
1576518649.627795,75160.667,12654,3,MX,1,100,-40
1576518649.669013,75195.333,12654,3,MX,1,100,-40
1576518649.710231,75230.000,12654,3,MX,1,100,-40
1576518649.749467,75263.000,12671,3,MX,1,100,-40
1576518649.788703,75296.000,12671,3,MX,1,100,-40
1576518649.827940,75329.000,12671,3,MX,1,100,-40
1576518649.869158,75363.667,12689,3,MX,1,100,-40
1576518649.910376,75398.333,12689,3,MX,1,100,-40
1576518649.951594,75433.000,12689,3,MX,1,100,-39
1576518649.992812,75467.667,12708,3,MX,1,100,-41
1576518650.034030,75502.333,12708,3,MX,1,100,-40
1576518650.075248,75537.000,12708,3,MX,1,100,-41
1576518650.113295,75569.000,12726,3,MX,1,100,-41
1576518650.151343,75601.000,12726,3,MX,1,100,-40
1576518650.189390,75633.000,12726,3,MX,1,100,-40
1576518650.227438,75665.000,12742,3,MX,1,100,-40
1576518650.265485,75697.000,12742,3,MX,1,100,-40
1576518650.303532,75729.000,12742,3,MX,1,100,-40
1576518650.345147,75764.000,12760,3,MX,1,100,-40
1576518650.386761,75799.000,12760,3,MX,1,100,-40
1576518650.428375,75834.000,12760,3,MX,1,100,-40
1576518650.469594,75868.667,12778,3,MX,1,100,-40
1576518650.510812,75903.333,12778,3,MX,1,100,-40
1576518650.552030,75938.000,12778,3,MX,1,100,-39
1576518650.593248,75972.667,12796,3,MX,1,100,-40
1576518650.634466,76007.333,12796,3,MX,1,100,-40
1576518650.675684,76042.000,12796,3,MX,1,100,-40
1576518650.717695,76077.333,12814,3,MX,1,100,-39
1576518650.759705,76112.667,12814,3,MX,1,100,-40
1576518650.801716,76148.000,12814,3,MX,1,100,-40
1576518650.841745,76181.667,12832,3,MX,1,100,-39
1576518650.881774,76215.333,12832,3,MX,1,100,-40
1576518650.921803,76249.000,12832,3,MX,1,100,-40
1576518650.964012,76284.500,12849,2,MX,1,100,-42
1576518651.006221,76320.000,12849,2,MX,1,100,-40
1576518651.043971,76351.750,12868,4,MX,1,100,-41
1576518651.081721,76383.500,12868,4,MX,1,100,-40
1576518651.119471,76415.250,12868,4,MX,1,100,-40
1576518651.157221,76447.000,12868,4,MX,1,100,-40
1576518651.196854,76480.333,12886,3,MX,1,100,-40
1576518651.236487,76513.667,12886,3,MX,1,100,-39
1576518651.276120,76547.000,12886,3,MX,1,100,-40
1576518651.316545,76581.000,12902,3,MX,1,100,-40
1576518651.356970,76615.000,12902,3,MX,1,100,-41
1576518651.397396,76649.000,12902,3,MX,1,100,-40
1576518651.439010,76684.000,12920,2,MX,1,100,-40
1576518651.480624,76719.000,12920,2,MX,1,100,-39
1576518651.526202,76757.333,12938,3,MX,1,100,-41
1576518651.571780,76795.667,12938,3,MX,1,100,-39
1576518651.617357,76834.000,12938,3,MX,1,100,-42
1576518651.655405,76866.000,12956,4,MX,1,100,-39
1576518651.693452,76898.000,12956,4,MX,1,100,-39
1576518651.731500,76930.000,12956,4,MX,1,100,-40
1576518651.769547,76962.000,12956,4,MX,1,100,-40
1576518651.807595,76994.000,12974,3,MX,1,100,-40
1576518651.845642,77026.000,12974,3,MX,1,100,-39
1576518651.883689,77058.000,12974,3,MX,1,100,-40
1576518651.924115,77092.000,12992,3,MX,1,100,-40
1576518651.964540,77126.000,12992,3,MX,1,100,-40
1576518652.004966,77160.000,12992,3,MX,1,100,-40
1576518652.045787,77194.333,13011,3,MX,1,100,-40
1576518652.086609,77228.667,13011,3,MX,1,100,-40
1576518652.127431,77263.000,13011,3,MX,1,100,-39
1576518652.174395,77302.500,13028,2,MX,1,100,-40
1576518652.221360,77342.000,13028,2,MX,1,100,-41
1576518652.260597,77375.000,13046,3,MX,1,100,-40
1576518652.299833,77408.000,13046,3,MX,1,100,-39
1576518652.339069,77441.000,13046,3,MX,1,100,-40
1576518652.377117,77473.000,13064,4,MX,1,100,-40
1576518652.415164,77505.000,13064,4,MX,1,100,-40
1576518652.453212,77537.000,13064,4,MX,1,100,-42
1576518652.491259,77569.000,13064,4,MX,1,100,-41
1576518652.531684,77603.000,13080,2,MX,1,100,-40
1576518652.572110,77637.000,13080,2,MX,1,100,-41
1576518652.613328,77671.667,13098,3,MX,1,100,-40
1576518652.654546,77706.333,13098,3,MX,1,100,-40
1576518652.695764,77741.000,13098,3,MX,1,100,-40
1576518652.736982,77775.667,13116,3,MX,1,100,-40
1576518652.778200,77810.333,13116,3,MX,1,100,-40
1576518652.819418,77845.000,13116,3,MX,1,100,-39
1576518652.863014,77881.667,13134,3,MX,1,100,-41
1576518652.906610,77918.333,13134,3,MX,1,100,-41
1576518652.950206,77955.000,13134,3,MX,1,100,-40
1576518652.988253,77987.000,13152,3,MX,1,100,-39
1576518653.026301,78019.000,13152,3,MX,1,100,-40
1576518653.064348,78051.000,13152,3,MX,1,100,-40
1576518653.102792,78083.333,13171,3,MX,1,100,-40
1576518653.141236,78115.667,13171,3,MX,1,100,-40
1576518653.179679,78148.000,13171,3,MX,1,100,-40
1576518653.220897,78182.667,13189,3,MX,1,100,-40
1576518653.262115,78217.333,13189,3,MX,1,100,-40
1576518653.303334,78252.000,13189,3,MX,1,100,-40
1576518653.344552,78286.667,13206,3,MX,1,100,-40
1576518653.385770,78321.333,13206,3,MX,1,100,-40
1576518653.426988,78356.000,13206,3,MX,1,100,-40
1576518653.466224,78389.000,13224,3,MX,1,100,-40
1576518653.505461,78422.000,13224,3,MX,1,100,-41
1576518653.544697,78455.000,13224,3,MX,1,100,-39
1576518653.583141,78487.333,13242,3,MX,1,100,-40
1576518653.621584,78519.667,13242,3,MX,1,100,-40
1576518653.660028,78552.000,13242,3,MX,1,100,-40
1576518653.703228,78588.333,13260,3,MX,1,100,-40
1576518653.746428,78624.667,13260,3,MX,1,100,-40
1576518653.789627,78661.000,13260,3,MX,1,100,-39
1576518653.827675,78693.000,13276,3,MX,1,100,-39
1576518653.865722,78725.000,13276,3,MX,1,100,-39
1576518653.903769,78757.000,13276,3,MX,1,100,-39
1576518653.947366,78793.667,13294,3,MX,1,100,-41
1576518653.990961,78830.333,13294,3,MX,1,100,-40
1576518654.034557,78867.000,13294,3,MX,1,100,-40
1576518654.071019,78897.667,13313,3,MX,1,100,-39
1576518654.107482,78928.333,13313,3,MX,1,100,-41
1576518654.143944,78959.000,13313,3,MX,1,100,-40
1576518654.188729,78996.667,13331,3,MX,1,100,-41
1576518654.233514,79034.333,13331,3,MX,1,100,-39
1576518654.278299,79072.000,13331,3,MX,1,100,-40
1576518654.319120,79106.333,13349,3,MX,1,100,-40
1576518654.359942,79140.667,13349,3,MX,1,100,-40
1576518654.400764,79175.000,13349,3,MX,1,100,-40
1576518654.442378,79210.000,13367,3,MX,1,100,-41
1576518654.483993,79245.000,13367,3,MX,1,100,-39
1576518654.525607,79280.000,13367,3,MX,1,100,-40
1576518654.566627,79314.500,13384,2,MX,1,100,-39
1576518654.607647,79349.000,13384,2,MX,1,100,-40
1576518654.649261,79384.000,13402,3,MX,1,100,-40
1576518654.690875,79419.000,13402,3,MX,1,100,-39
1576518654.732490,79454.000,13402,3,MX,1,100,-40
1576518654.770933,79486.333,13423,6,MX,1,100,-40
1576518654.809377,79518.667,13423,6,MX,1,100,-41
1576518654.847821,79551.000,13423,6,MX,1,100,-40
1576518654.886265,79583.333,13423,6,MX,1,100,-40
1576518654.924708,79615.667,13423,6,MX,1,100,-41
1576518654.963152,79648.000,13423,6,MX,1,100,-39
1576518655.002983,79681.500,13443,2,MX,1,100,-41
1576518655.042814,79715.000,13443,2,MX,1,100,-41
1576518655.084032,79749.667,13462,3,MX,1,100,-40
1576518655.125250,79784.333,13462,3,MX,1,100,-39
1576518655.166468,79819.000,13462,3,MX,1,100,-40
1576518655.207686,79853.667,13479,3,MX,1,100,-39
1576518655.248904,79888.333,13479,3,MX,1,100,-41
1576518655.290122,79923.000,13479,3,MX,1,100,-40
1576518655.334907,79960.667,13497,3,MX,1,100,-39
1576518655.379692,79998.333,13497,3,MX,1,100,-39
1576518655.424477,80036.000,13497,3,MX,1,100,-41
1576518655.461732,80067.333,13515,3,MX,1,100,-40
1576518655.498987,80098.667,13515,3,MX,1,100,-41
1576518655.536242,80130.000,13515,3,MX,1,100,-41
1576518655.574685,80162.333,13531,3,MX,1,100,-39
1576518655.613129,80194.667,13531,3,MX,1,100,-41
1576518655.651573,80227.000,13531,3,MX,1,100,-41
1576518655.693187,80262.000,13549,3,MX,1,100,-40
1576518655.734801,80297.000,13549,3,MX,1,100,-40
1576518655.776416,80332.000,13549,3,MX,1,100,-40
1576518655.816445,80365.667,13567,3,MX,1,100,-41
1576518655.856474,80399.333,13567,3,MX,1,100,-40
1576518655.896503,80433.000,13567,3,MX,1,100,-40
1576518655.941288,80470.667,13585,3,MX,1,100,-40
1576518655.986073,80508.333,13585,3,MX,1,100,-41
1576518656.030858,80546.000,13585,3,MX,1,100,-40
1576518656.068905,80578.000,13604,3,MX,1,100,-40
1576518656.106953,80610.000,13604,3,MX,1,100,-41
1576518656.145000,80642.000,13604,3,MX,1,100,-40
1576518656.183444,80674.333,13622,3,MX,1,100,-40
1576518656.221888,80706.667,13622,3,MX,1,100,-40
1576518656.260331,80739.000,13622,3,MX,1,100,-40
1576518656.301153,80773.333,13640,3,MX,1,100,-40
1576518656.341975,80807.667,13640,3,MX,1,100,-41
1576518656.382797,80842.000,13640,3,MX,1,100,-40
1576518656.423618,80876.333,13657,3,MX,1,100,-40
1576518656.464440,80910.667,13657,3,MX,1,100,-40
1576518656.505262,80945.000,13657,3,MX,1,100,-40
1576518656.546876,80980.000,13675,3,MX,1,100,-41
1576518656.588490,81015.000,13675,3,MX,1,100,-40
1576518656.630105,81050.000,13675,3,MX,1,100,-39
1576518656.671323,81084.667,13693,3,MX,1,100,-40
1576518656.712541,81119.333,13693,3,MX,1,100,-40
1576518656.753759,81154.000,13693,3,MX,1,100,-40
1576518656.792995,81187.000,13709,3,MX,1,100,-40
1576518656.832232,81220.000,13709,3,MX,1,100,-39
1576518656.871468,81253.000,13709,3,MX,1,100,-39
1576518656.911101,81286.333,13727,3,MX,1,100,-40
1576518656.950733,81319.667,13727,3,MX,1,100,-39
1576518656.990366,81353.000,13727,3,MX,1,100,-40
1576518657.031584,81387.667,13746,3,MX,1,100,-40
1576518657.072802,81422.333,13746,3,MX,1,100,-40
1576518657.114020,81457.000,13746,3,MX,1,100,-40
1576518657.155635,81492.000,13764,3,MX,1,100,-40
1576518657.197249,81527.000,13764,3,MX,1,100,-40
1576518657.238863,81562.000,13764,3,MX,1,100,-40
1576518657.276118,81593.333,13782,3,MX,1,100,-41
1576518657.313373,81624.667,13782,3,MX,1,100,-41
1576518657.350628,81656.000,13782,3,MX,1,100,-39
1576518657.389468,81688.667,13800,3,MX,1,100,-40
1576518657.428308,81721.333,13800,3,MX,1,100,-40
1576518657.467148,81754.000,13800,3,MX,1,100,-40
1576518657.511140,81791.000,13818,3,MX,1,100,-40
1576518657.555133,81828.000,13818,3,MX,1,100,-39
1576518657.599125,81865.000,13818,3,MX,1,100,-40
1576518657.637965,81897.667,13835,3,MX,1,100,-40
1576518657.676805,81930.333,13835,3,MX,1,100,-39
1576518657.715645,81963.000,13835,3,MX,1,100,-41
1576518657.761421,82001.500,13853,2,MX,1,100,-40
1576518657.807197,82040.000,13853,2,MX,1,100,-40
1576518657.846136,82072.750,13869,4,MX,1,100,-40
1576518657.885075,82105.500,13869,4,MX,1,100,-40
1576518657.924014,82138.250,13869,4,MX,1,100,-41
1576518657.962953,82171.000,13869,4,MX,1,100,-40
1576518658.009918,82210.500,13887,2,MX,1,100,-40
1576518658.056883,82250.000,13887,2,MX,1,100,-40
1576518658.094930,82282.000,13906,3,MX,1,100,-39
1576518658.132978,82314.000,13906,3,MX,1,100,-39
1576518658.171025,82346.000,13906,3,MX,1,100,-40
1576518658.216207,82384.000,13924,3,MX,1,100,-41
1576518658.261388,82422.000,13924,3,MX,1,100,-39
1576518658.306569,82460.000,13924,3,MX,1,100,-40
1576518658.347391,82494.333,13942,3,MX,1,100,-40
1576518658.388212,82528.667,13942,3,MX,1,100,-40
1576518658.429034,82563.000,13942,3,MX,1,100,-38
1576518658.469460,82597.000,13960,3,MX,1,100,-41
1576518658.509885,82631.000,13960,3,MX,1,100,-41
1576518658.550310,82665.000,13960,3,MX,1,100,-40
1576518658.588358,82697.000,13978,3,MX,1,100,-39
1576518658.626405,82729.000,13978,3,MX,1,100,-41
1576518658.664453,82761.000,13978,3,MX,1,100,-41
1576518658.702896,82793.333,13995,3,MX,1,100,-40
1576518658.741340,82825.667,13995,3,MX,1,100,-40
1576518658.779784,82858.000,13995,3,MX,1,100,-40
1576518658.821002,82892.667,14013,3,MX,1,100,-40
1576518658.862220,82927.333,14013,3,MX,1,100,-40
1576518658.903438,82962.000,14013,3,MX,1,100,-39
1576518658.943863,82996.000,14031,3,MX,1,100,-40
1576518658.984289,83030.000,14031,3,MX,1,100,-39
1576518659.024714,83064.000,14031,3,MX,1,100,-40
1576518659.069896,83102.000,14048,3,MX,1,100,-40
1576518659.115077,83140.000,14048,3,MX,1,100,-40
1576518659.160258,83178.000,14048,3,MX,1,100,-40
1576518659.197909,83209.667,14066,3,MX,1,100,-40
1576518659.235560,83241.333,14066,3,MX,1,100,-40
1576518659.273211,83273.000,14066,3,MX,1,100,-41
1576518659.312051,83305.667,14084,3,MX,1,100,-40
1576518659.350891,83338.333,14084,3,MX,1,100,-40
1576518659.389731,83371.000,14084,3,MX,1,100,-40
1576518659.429760,83404.667,14102,3,MX,1,100,-40
1576518659.469790,83438.333,14102,3,MX,1,100,-41
1576518659.509819,83472.000,14102,3,MX,1,100,-40
1576518659.551037,83506.667,14120,3,MX,1,100,-39
1576518659.592255,83541.333,14120,3,MX,1,100,-40
1576518659.633473,83576.000,14120,3,MX,1,100,-39
1576518659.675087,83611.000,14138,3,MX,1,100,-39
1576518659.716702,83646.000,14138,3,MX,1,100,-40
1576518659.758316,83681.000,14138,3,MX,1,100,-38
1576518659.799930,83716.000,14156,3,MX,1,100,-40
1576518659.841545,83751.000,14156,3,MX,1,100,-41
1576518659.883159,83786.000,14156,3,MX,1,100,-40
1576518659.921603,83818.333,14173,3,MX,1,100,-40
1576518659.960047,83850.667,14173,3,MX,1,100,-40
1576518659.998490,83883.000,14173,3,MX,1,100,-40
1576518660.038519,83916.667,14192,3,MX,1,100,-40
1576518660.078548,83950.333,14192,3,MX,1,100,-40
1576518660.118577,83984.000,14192,3,MX,1,100,-40
1576518660.160192,84019.000,14210,3,MX,1,100,-40
1576518660.201806,84054.000,14210,3,MX,1,100,-40
1576518660.243420,84089.000,14210,3,MX,1,100,-40
1576518660.284440,84123.500,14226,2,MX,1,100,-40
1576518660.325460,84158.000,14226,2,MX,1,100,-40
1576518660.365291,84191.500,14244,4,MX,1,100,-40
1576518660.405122,84225.000,14244,4,MX,1,100,-39
1576518660.444953,84258.500,14244,4,MX,1,100,-40
1576518660.484784,84292.000,14244,4,MX,1,100,-39
1576518660.522831,84324.000,14262,3,MX,1,100,-40
1576518660.560879,84356.000,14262,3,MX,1,100,-40
1576518660.598926,84388.000,14262,3,MX,1,100,-39
1576518660.645296,84427.000,14280,2,MX,1,100,-40
1576518660.691667,84466.000,14280,2,MX,1,100,-40
1576518660.732488,84500.333,14298,3,MX,1,100,-39
1576518660.773310,84534.667,14298,3,MX,1,100,-41
1576518660.814132,84569.000,14298,3,MX,1,100,-40
1576518660.855270,84603.600,14319,5,MX,1,100,-39
1576518660.896409,84638.200,14319,5,MX,1,100,-40
1576518660.937548,84672.800,14319,5,MX,1,100,-40
1576518660.978687,84707.400,14319,5,MX,1,100,-41
1576518661.019825,84742.000,14319,5,MX,1,100,-40
1576518661.057477,84773.667,14340,3,MX,1,100,-40
1576518661.095128,84805.333,14340,3,MX,1,100,-40
1576518661.132779,84837.000,14340,3,MX,1,100,-39
1576518661.170826,84869.000,14358,3,MX,1,100,-39
1576518661.208874,84901.000,14358,3,MX,1,100,-40
1576518661.246921,84933.000,14358,3,MX,1,100,-40
1576518661.292102,84971.000,14376,3,MX,1,100,-39
1576518661.337284,85009.000,14376,3,MX,1,100,-40
1576518661.382465,85047.000,14376,3,MX,1,100,-39
1576518661.423683,85081.667,14394,3,MX,1,100,-39
1576518661.464901,85116.333,14394,3,MX,1,100,-40
1576518661.506119,85151.000,14394,3,MX,1,100,-40
1576518661.547734,85186.000,14412,3,MX,1,100,-40
1576518661.589348,85221.000,14412,3,MX,1,100,-39
1576518661.630962,85256.000,14412,3,MX,1,100,-39
1576518661.669406,85288.333,14429,3,MX,1,100,-39
1576518661.707850,85320.667,14429,3,MX,1,100,-40
1576518661.746294,85353.000,14429,3,MX,1,100,-40
1576518661.787313,85387.500,14447,2,MX,1,100,-39
1576518661.828333,85422.000,14447,2,MX,1,100,-39
1576518661.870245,85457.250,14463,4,MX,1,100,-40
1576518661.912156,85492.500,14463,4,MX,1,100,-40
1576518661.954068,85527.750,14463,4,MX,1,100,-40
1576518661.995980,85563.000,14463,4,MX,1,100,-40
1576518662.036999,85597.500,14481,2,MX,1,100,-39
1576518662.078019,85632.000,14481,2,MX,1,100,-39
1576518662.123201,85670.000,14500,3,MX,1,100,-39
1576518662.168382,85708.000,14500,3,MX,1,100,-39
1576518662.213563,85746.000,14500,3,MX,1,100,-40
1576518662.253989,85780.000,14518,3,MX,1,100,-40
1576518662.294414,85814.000,14518,3,MX,1,100,-40
1576518662.334839,85848.000,14518,3,MX,1,100,-40
1576518662.372491,85879.667,14536,3,MX,1,100,-39
1576518662.410142,85911.333,14536,3,MX,1,100,-41
1576518662.447793,85943.000,14536,3,MX,1,100,-40
1576518662.487426,85976.333,14554,3,MX,1,100,-40
1576518662.527058,86009.667,14554,3,MX,1,100,-40
1576518662.566691,86043.000,14554,3,MX,1,100,-40
1576518662.607513,86077.333,14572,3,MX,1,100,-40
1576518662.648334,86111.667,14572,3,MX,1,100,-40
1576518662.689156,86146.000,14572,3,MX,1,100,-41
1576518662.730374,86180.667,14589,3,MX,1,100,-40
1576518662.771592,86215.333,14589,3,MX,1,100,-40
1576518662.812810,86250.000,14589,3,MX,1,100,-40
1576518662.854424,86285.000,14607,3,MX,1,100,-39
1576518662.896039,86320.000,14607,3,MX,1,100,-40
1576518662.937653,86355.000,14607,3,MX,1,100,-40
1576518662.979664,86390.333,14623,3,MX,1,100,-41
1576518663.021675,86425.667,14623,3,MX,1,100,-39
1576518663.063685,86461.000,14623,3,MX,1,100,-39
1576518663.106885,86497.333,14642,3,MX,1,100,-39
1576518663.150085,86533.667,14642,3,MX,1,100,-39
1576518663.193284,86570.000,14642,3,MX,1,100,-40
1576518663.230935,86601.667,14660,3,MX,1,100,-40
1576518663.268586,86633.333,14660,3,MX,1,100,-40
1576518663.306238,86665.000,14660,3,MX,1,100,-41
1576518663.345870,86698.333,14678,3,MX,1,100,-40
1576518663.385503,86731.667,14678,3,MX,1,100,-40
1576518663.425136,86765.000,14678,3,MX,1,100,-39
1576518663.465561,86799.000,14696,3,MX,1,100,-40
1576518663.505986,86833.000,14696,3,MX,1,100,-40
1576518663.546412,86867.000,14696,3,MX,1,100,-40
1576518663.588026,86902.000,14714,3,MX,1,100,-40
1576518663.629641,86937.000,14714,3,MX,1,100,-40
1576518663.671255,86972.000,14714,3,MX,1,100,-40
1576518663.711284,87005.667,14732,3,MX,1,100,-40
1576518663.751313,87039.333,14732,3,MX,1,100,-40
1576518663.791342,87073.000,14732,3,MX,1,100,-39
1576518663.832957,87108.000,14750,3,MX,1,100,-39
1576518663.874571,87143.000,14750,3,MX,1,100,-41
1576518663.916185,87178.000,14750,3,MX,1,100,-39
1576518663.955818,87211.333,14767,3,MX,1,100,-40
1576518663.995451,87244.667,14767,3,MX,1,100,-40
1576518664.035084,87278.000,14767,3,MX,1,100,-40
1576518664.075905,87312.333,14786,3,MX,1,100,-39
1576518664.116727,87346.667,14786,3,MX,1,100,-39
1576518664.157549,87381.000,14786,3,MX,1,100,-40
1576518664.199163,87416.000,14802,2,MX,1,100,-40
1576518664.240777,87451.000,14802,2,MX,1,100,-40
1576518664.281995,87485.667,14820,3,MX,1,100,-40
1576518664.323213,87520.333,14820,3,MX,1,100,-40
1576518664.364431,87555.000,14820,3,MX,1,100,-40
1576518664.402479,87587.000,14838,4,MX,1,100,-40
1576518664.440526,87619.000,14838,4,MX,1,100,-39
1576518664.478574,87651.000,14838,4,MX,1,100,-40
1576518664.516621,87683.000,14838,4,MX,1,100,-40
1576518664.555857,87716.000,14856,3,MX,1,100,-38
1576518664.595094,87749.000,14856,3,MX,1,100,-39
1576518664.634330,87782.000,14856,3,MX,1,100,-40
1576518664.681295,87821.500,14874,2,MX,1,100,-40
1576518664.728260,87861.000,14874,2,MX,1,100,-40
1576518664.768685,87895.000,14892,3,MX,1,100,-40
1576518664.809111,87929.000,14892,3,MX,1,100,-39
1576518664.849536,87963.000,14892,3,MX,1,100,-39
1576518664.891150,87998.000,14910,3,MX,1,100,-40
1576518664.932765,88033.000,14910,3,MX,1,100,-39
1576518664.974379,88068.000,14910,3,MX,1,100,-40
1576518665.012427,88100.000,14928,3,MX,1,100,-40
1576518665.050474,88132.000,14928,3,MX,1,100,-39
1576518665.088521,88164.000,14928,3,MX,1,100,-40
1576518665.125776,88195.333,14946,3,MX,1,100,-39
1576518665.163031,88226.667,14946,3,MX,1,100,-39
1576518665.200286,88258.000,14946,3,MX,1,100,-39
1576518665.240711,88292.000,14964,3,MX,1,100,-40
1576518665.281137,88326.000,14964,3,MX,1,100,-39
1576518665.321562,88360.000,14964,3,MX,1,100,-39
1576518665.366347,88397.667,14982,3,MX,1,100,-40
1576518665.411132,88435.333,14982,3,MX,1,100,-40
1576518665.455917,88473.000,14982,3,MX,1,100,-40
1576518665.494360,88505.333,14998,3,MX,1,100,-40
1576518665.532804,88537.667,14998,3,MX,1,100,-40
1576518665.571248,88570.000,14998,3,MX,1,100,-39
1576518665.616429,88608.000,15016,3,MX,1,100,-39
1576518665.661611,88646.000,15016,3,MX,1,100,-40
1576518665.706792,88684.000,15016,3,MX,1,100,-39
1576518665.745236,88716.333,15034,3,MX,1,100,-40
1576518665.783679,88748.667,15034,3,MX,1,100,-39
1576518665.822123,88781.000,15034,3,MX,1,100,-38
1576518665.866908,88818.667,15052,3,MX,1,100,-40
1576518665.911693,88856.333,15052,3,MX,1,100,-40
1576518665.956478,88894.000,15052,3,MX,1,100,-39
1576518665.998687,88929.500,15070,2,MX,1,100,-39
1576518666.040896,88965.000,15070,2,MX,1,100,-40
1576518666.078943,88997.000,15089,4,MX,1,100,-39
1576518666.116991,89029.000,15089,4,MX,1,100,-39
1576518666.155038,89061.000,15089,4,MX,1,100,-40
1576518666.193085,89093.000,15089,4,MX,1,100,-39
1576518666.231925,89125.667,15106,3,MX,1,100,-40
1576518666.270766,89158.333,15106,3,MX,1,100,-37
1576518666.309606,89191.000,15106,3,MX,1,100,-40
1576518666.351220,89226.000,15124,3,MX,1,100,-40
1576518666.392834,89261.000,15124,3,MX,1,100,-39
1576518666.434449,89296.000,15124,3,MX,1,100,-39
1576518666.475667,89330.667,15140,3,MX,1,100,-39
1576518666.516885,89365.333,15140,3,MX,1,100,-39
1576518666.558103,89400.000,15140,3,MX,1,100,-39
1576518666.600312,89435.500,15158,2,MX,1,100,-40
1576518666.642521,89471.000,15158,2,MX,1,100,-39
1576518666.683739,89505.667,15176,3,MX,1,100,-39
1576518666.724957,89540.333,15176,3,MX,1,100,-40
1576518666.766175,89575.000,15176,3,MX,1,100,-39
1576518666.807789,89610.000,15194,3,MX,1,100,-40
1576518666.849403,89645.000,15194,3,MX,1,100,-39
1576518666.891018,89680.000,15194,3,MX,1,100,-38
1576518666.930968,89713.600,15215,5,MX,1,100,-39
1576518666.970917,89747.200,15215,5,MX,1,100,-39
1576518667.010867,89780.800,15215,5,MX,1,100,-40
1576518667.050817,89814.400,15215,5,MX,1,100,-39
1576518667.090767,89848.000,15215,5,MX,1,100,-39
1576518667.130399,89881.333,15234,3,MX,1,100,-39
1576518667.170032,89914.667,15234,3,MX,1,100,-40
1576518667.209665,89948.000,15234,3,MX,1,100,-39
1576518667.250090,89982.000,15252,3,MX,1,100,-39
1576518667.290516,90016.000,15252,3,MX,1,100,-39
1576518667.330941,90050.000,15252,3,MX,1,100,-39
1576518667.372159,90084.667,15270,3,MX,1,100,-39
1576518667.413377,90119.333,15270,3,MX,1,100,-40
1576518667.454595,90154.000,15270,3,MX,1,100,-39
1576518667.493435,90186.667,15288,3,MX,1,100,-40
1576518667.532275,90219.333,15288,3,MX,1,100,-39
1576518667.571115,90252.000,15288,3,MX,1,100,-39
1576518667.613126,90287.333,15306,3,MX,1,100,-38
1576518667.655137,90322.667,15306,3,MX,1,100,-38
1576518667.697147,90358.000,15306,3,MX,1,100,-39
1576518667.737176,90391.667,15324,3,MX,1,100,-40
1576518667.777205,90425.333,15324,3,MX,1,100,-39
1576518667.817235,90459.000,15324,3,MX,1,100,-39
1576518667.858453,90493.667,15342,3,MX,1,100,-39
1576518667.899671,90528.333,15342,3,MX,1,100,-39
1576518667.940889,90563.000,15342,3,MX,1,100,-39
1576518667.982107,90597.667,15359,3,MX,1,100,-39
1576518668.023325,90632.333,15359,3,MX,1,100,-39
1576518668.064543,90667.000,15359,3,MX,1,100,-41
1576518668.103779,90700.000,15378,3,MX,1,100,-39
1576518668.143016,90733.000,15378,3,MX,1,100,-40
1576518668.182252,90766.000,15378,3,MX,1,100,-39
1576518668.220299,90798.000,15396,3,MX,1,100,-39
1576518668.258347,90830.000,15396,3,MX,1,100,-39
1576518668.296394,90862.000,15396,3,MX,1,100,-39
1576518668.339594,90898.333,15412,3,MX,1,100,-38
1576518668.382794,90934.667,15412,3,MX,1,100,-39
1576518668.425993,90971.000,15412,3,MX,1,100,-39
1576518668.467013,91005.500,15430,2,MX,1,100,-39
1576518668.508033,91040.000,15430,2,MX,1,100,-39
1576518668.549251,91074.667,15448,3,MX,1,100,-39
1576518668.590469,91109.333,15448,3,MX,1,100,-39
1576518668.631687,91144.000,15448,3,MX,1,100,-40
1576518668.673698,91179.333,15466,3,MX,1,100,-40
1576518668.715708,91214.667,15466,3,MX,1,100,-39
1576518668.757719,91250.000,15466,3,MX,1,100,-38
1576518668.794875,91281.250,15484,4,MX,1,100,-39
1576518668.832031,91312.500,15484,4,MX,1,100,-40
1576518668.869186,91343.750,15484,4,MX,1,100,-40
1576518668.906342,91375.000,15484,4,MX,1,100,-40
1576518668.945182,91407.667,15502,3,MX,1,100,-41
1576518668.984022,91440.333,15502,3,MX,1,100,-40
1576518669.022862,91473.000,15502,3,MX,1,100,-39
1576518669.064080,91507.667,15520,3,MX,1,100,-40
1576518669.105298,91542.333,15520,3,MX,1,100,-40
1576518669.146516,91577.000,15520,3,MX,1,100,-41
1576518669.192887,91616.000,15539,2,MX,1,100,-40
1576518669.239257,91655.000,15539,2,MX,1,100,-40
1576518669.280871,91690.000,15556,3,MX,1,100,-41
1576518669.322486,91725.000,15556,3,MX,1,100,-40
1576518669.364100,91760.000,15556,3,MX,1,100,-40
1576518669.406507,91795.667,15572,3,MX,1,100,-39
1576518669.448914,91831.333,15572,3,MX,1,100,-39
1576518669.491321,91867.000,15572,3,MX,1,100,-40
1576518669.530161,91899.667,15590,3,MX,1,100,-40
1576518669.569001,91932.333,15590,3,MX,1,100,-40
1576518669.607841,91965.000,15590,3,MX,1,100,-41
1576518669.652626,92002.667,15608,3,MX,1,100,-40
1576518669.697411,92040.333,15608,3,MX,1,100,-39
1576518669.742196,92078.000,15608,3,MX,1,100,-39
1576518669.782622,92112.000,15626,3,MX,1,100,-39
1576518669.823047,92146.000,15626,3,MX,1,100,-40
1576518669.863472,92180.000,15626,3,MX,1,100,-39
1576518669.901916,92212.333,15644,3,MX,1,100,-39
1576518669.940360,92244.667,15644,3,MX,1,100,-39
1576518669.978804,92277.000,15644,3,MX,1,100,-39
1576518670.018436,92310.333,15662,3,MX,1,100,-38
1576518670.058069,92343.667,15662,3,MX,1,100,-39
1576518670.097702,92377.000,15662,3,MX,1,100,-38
1576518670.135749,92409.000,15681,3,MX,1,100,-39
1576518670.173797,92441.000,15681,3,MX,1,100,-39
1576518670.211844,92473.000,15681,3,MX,1,100,-39
1576518670.251477,92506.333,15699,3,MX,1,100,-39
1576518670.291109,92539.667,15699,3,MX,1,100,-39
1576518670.330742,92573.000,15699,3,MX,1,100,-39
1576518670.371960,92607.667,15716,3,MX,1,100,-39
1576518670.413178,92642.333,15716,3,MX,1,100,-38
1576518670.454396,92677.000,15716,3,MX,1,100,-39
1576518670.495614,92711.667,15734,3,MX,1,100,-37
1576518670.536832,92746.333,15734,3,MX,1,100,-39
1576518670.578050,92781.000,15734,3,MX,1,100,-39
1576518670.618476,92815.000,15750,2,MX,1,100,-37
1576518670.658901,92849.000,15750,2,MX,1,100,-39
1576518670.699029,92882.750,15768,4,MX,1,100,-39
1576518670.739157,92916.500,15768,4,MX,1,100,-38
1576518670.779286,92950.250,15768,4,MX,1,100,-39
1576518670.819414,92984.000,15768,4,MX,1,100,-39
1576518670.858650,93017.000,15786,3,MX,1,100,-38
1576518670.897887,93050.000,15786,3,MX,1,100,-40
1576518670.937123,93083.000,15786,3,MX,1,100,-39
1576518670.978737,93118.000,15804,3,MX,1,100,-39
1576518671.020352,93153.000,15804,3,MX,1,100,-38
1576518671.061966,93188.000,15804,3,MX,1,100,-40
1576518671.102391,93222.000,15823,3,MX,1,100,-39
1576518671.142817,93256.000,15823,3,MX,1,100,-39
1576518671.183242,93290.000,15823,3,MX,1,100,-39
1576518671.224064,93324.333,15841,3,MX,1,100,-38
1576518671.264886,93358.667,15841,3,MX,1,100,-39
1576518671.305707,93393.000,15841,3,MX,1,100,-39
1576518671.343358,93424.667,15859,3,MX,1,100,-38
1576518671.381009,93456.333,15859,3,MX,1,100,-39
1576518671.418661,93488.000,15859,3,MX,1,100,-39
1576518671.461860,93524.333,15877,3,MX,1,100,-39
1576518671.505060,93560.667,15877,3,MX,1,100,-39
1576518671.548259,93597.000,15877,3,MX,1,100,-39
1576518671.589279,93631.500,15894,2,MX,1,100,-40
1576518671.630299,93666.000,15894,2,MX,1,100,-38
1576518671.671914,93701.000,15912,3,MX,1,100,-39
1576518671.713528,93736.000,15912,3,MX,1,100,-39
1576518671.755142,93771.000,15912,3,MX,1,100,-40
1576518671.797153,93806.333,15928,3,MX,1,100,-39
1576518671.839164,93841.667,15928,3,MX,1,100,-39
1576518671.881175,93877.000,15928,3,MX,1,100,-38
1576518671.918627,93908.500,15946,4,MX,1,100,-39
1576518671.956080,93940.000,15946,4,MX,1,100,-39
1576518671.993533,93971.500,15946,4,MX,1,100,-39
1576518672.030986,94003.000,15946,4,MX,1,100,-38
1576518672.069826,94035.667,15964,3,MX,1,100,-39
1576518672.108666,94068.333,15964,3,MX,1,100,-40
1576518672.147506,94101.000,15964,3,MX,1,100,-39
1576518672.193877,94140.000,15983,2,MX,1,100,-39
1576518672.240247,94179.000,15983,2,MX,1,100,-39
1576518672.281861,94214.000,16001,3,MX,1,100,-40
1576518672.323476,94249.000,16001,3,MX,1,100,-40
1576518672.365090,94284.000,16001,3,MX,1,100,-40
1576518672.406308,94318.667,16019,3,MX,1,100,-39
1576518672.447526,94353.333,16019,3,MX,1,100,-40
1576518672.488744,94388.000,16019,3,MX,1,100,-39
1576518672.527188,94420.333,16037,3,MX,1,100,-40
1576518672.565632,94452.667,16037,3,MX,1,100,-40
1576518672.604075,94485.000,16037,3,MX,1,100,-39
1576518672.641726,94516.667,16055,3,MX,1,100,-38
1576518672.679378,94548.333,16055,3,MX,1,100,-39
1576518672.717029,94580.000,16055,3,MX,1,100,-40
1576518672.757454,94614.000,16072,3,MX,1,100,-37
1576518672.797879,94648.000,16072,3,MX,1,100,-39
1576518672.838305,94682.000,16072,3,MX,1,100,-41
1576518672.883486,94720.000,16090,3,MX,1,100,-40
1576518672.928668,94758.000,16090,3,MX,1,100,-39
1576518672.973849,94796.000,16090,3,MX,1,100,-39
1576518673.012847,94828.800,16111,5,MX,1,100,-39
1576518673.051846,94861.600,16111,5,MX,1,100,-39
1576518673.090845,94894.400,16111,5,MX,1,100,-39
1576518673.129843,94927.200,16111,5,MX,1,100,-39
1576518673.168842,94960.000,16111,5,MX,1,100,-39
1576518673.215212,94999.000,16132,2,MX,1,100,-39
1576518673.261582,95038.000,16132,2,MX,1,100,-38
1576518673.299927,95070.250,16149,4,MX,1,100,-38
1576518673.338272,95102.500,16149,4,MX,1,100,-39
1576518673.376616,95134.750,16149,4,MX,1,100,-39
1576518673.414961,95167.000,16149,4,MX,1,100,-39
1576518673.461926,95206.500,16167,2,MX,1,100,-38
1576518673.508891,95246.000,16167,2,MX,1,100,-39
1576518673.546938,95278.000,16183,4,MX,1,100,-40
1576518673.584985,95310.000,16183,4,MX,1,100,-40
1576518673.623033,95342.000,16183,4,MX,1,100,-39
1576518673.661080,95374.000,16183,4,MX,1,100,-39
1576518673.708045,95413.500,16201,2,MX,1,100,-39
1576518673.755010,95453.000,16201,2,MX,1,100,-39
1576518673.793057,95485.000,16219,3,MX,1,100,-38
1576518673.831105,95517.000,16219,3,MX,1,100,-39
1576518673.869152,95549.000,16219,3,MX,1,100,-39
1576518673.907596,95581.333,16237,3,MX,1,100,-39
1576518673.946039,95613.667,16237,3,MX,1,100,-39
1576518673.984483,95646.000,16237,3,MX,1,100,-39
1576518674.024116,95679.333,16255,3,MX,1,100,-39
1576518674.063749,95712.667,16255,3,MX,1,100,-39
1576518674.103381,95746.000,16255,3,MX,1,100,-39
1576518674.144599,95780.667,16274,3,MX,1,100,-40
1576518674.185817,95815.333,16274,3,MX,1,100,-38
1576518674.227036,95850.000,16274,3,MX,1,100,-39
1576518674.268650,95885.000,16292,3,MX,1,100,-39
1576518674.310264,95920.000,16292,3,MX,1,100,-39
1576518674.351879,95955.000,16292,3,MX,1,100,-39
1576518674.394286,95990.667,16310,3,MX,1,100,-40
1576518674.436693,96026.333,16310,3,MX,1,100,-39
1576518674.479100,96062.000,16310,3,MX,1,100,-39
1576518674.513977,96091.333,16327,3,MX,1,100,-38
1576518674.548853,96120.667,16327,3,MX,1,100,-39
1576518674.583730,96150.000,16327,3,MX,1,100,-39
1576518674.625741,96185.333,16345,3,MX,1,100,-40
1576518674.667752,96220.667,16345,3,MX,1,100,-40
1576518674.709762,96256.000,16345,3,MX,1,100,-40
1576518674.748107,96288.250,16363,4,MX,1,100,-39
1576518674.786452,96320.500,16363,4,MX,1,100,-39
1576518674.824796,96352.750,16363,4,MX,1,100,-40
1576518674.863141,96385.000,16363,4,MX,1,100,-39
1576518674.903170,96418.667,16381,3,MX,1,100,-39
1576518674.943199,96452.333,16381,3,MX,1,100,-39
1576518674.983228,96486.000,16381,3,MX,1,100,-40
1576518675.024842,96521.000,16397,2,MX,1,100,-39
1576518675.066457,96556.000,16397,2,MX,1,100,-39
1576518675.107278,96590.333,16416,3,MX,1,100,-40
1576518675.148100,96624.667,16416,3,MX,1,100,-39
1576518675.188922,96659.000,16416,3,MX,1,100,-39
1576518675.227267,96691.250,16434,4,MX,1,100,-38
1576518675.265611,96723.500,16434,4,MX,1,100,-39
1576518675.303956,96755.750,16434,4,MX,1,100,-40
1576518675.342300,96788.000,16434,4,MX,1,100,-39
1576518675.380942,96820.500,16452,2,MX,1,100,-38
1576518675.419584,96853.000,16452,2,MX,1,100,-39
1576518675.464369,96890.667,16470,3,MX,1,100,-38
1576518675.509154,96928.333,16470,3,MX,1,100,-39
1576518675.553939,96966.000,16470,3,MX,1,100,-38
1576518675.595157,97000.667,16488,3,MX,1,100,-40
1576518675.636375,97035.333,16488,3,MX,1,100,-39
1576518675.677593,97070.000,16488,3,MX,1,100,-39
1576518675.718415,97104.333,16506,3,MX,1,100,-39
1576518675.759237,97138.667,16506,3,MX,1,100,-38
1576518675.800059,97173.000,16506,3,MX,1,100,-39
1576518675.838899,97205.667,16523,3,MX,1,100,-40
1576518675.877739,97238.333,16523,3,MX,1,100,-39
1576518675.916579,97271.000,16523,3,MX,1,100,-39
1576518675.955023,97303.333,16541,3,MX,1,100,-38
1576518675.993466,97335.667,16541,3,MX,1,100,-38
1576518676.031910,97368.000,16541,3,MX,1,100,-39
1576518676.071939,97401.667,16559,3,MX,1,100,-40
1576518676.111968,97435.333,16559,3,MX,1,100,-39
1576518676.151997,97469.000,16559,3,MX,1,100,-39
1576518676.193611,97504.000,16576,3,MX,1,100,-39
1576518676.235226,97539.000,16576,3,MX,1,100,-38
1576518676.276840,97574.000,16576,3,MX,1,100,-38
1576518676.321625,97611.667,16594,3,MX,1,100,-39
1576518676.366410,97649.333,16594,3,MX,1,100,-39
1576518676.411195,97687.000,16594,3,MX,1,100,-39
1576518676.450035,97719.667,16612,3,MX,1,100,-38
1576518676.488875,97752.333,16612,3,MX,1,100,-38
1576518676.527715,97785.000,16612,3,MX,1,100,-40
1576518676.564970,97816.333,16630,3,MX,1,100,-39
1576518676.602225,97847.667,16630,3,MX,1,100,-39
1576518676.639480,97879.000,16630,3,MX,1,100,-40
1576518676.679509,97912.667,16648,3,MX,1,100,-39
1576518676.719538,97946.333,16648,3,MX,1,100,-39
1576518676.759567,97980.000,16648,3,MX,1,100,-39
1576518676.800389,98014.333,16666,3,MX,1,100,-39
1576518676.841210,98048.667,16666,3,MX,1,100,-40
1576518676.882032,98083.000,16666,3,MX,1,100,-39
1576518676.924439,98118.667,16684,3,MX,1,100,-39
1576518676.966846,98154.333,16684,3,MX,1,100,-39
1576518677.009253,98190.000,16684,3,MX,1,100,-40
1576518677.050471,98224.667,16701,3,MX,1,100,-38
1576518677.091689,98259.333,16701,3,MX,1,100,-38
1576518677.132907,98294.000,16701,3,MX,1,100,-39
1576518677.179872,98333.500,16720,2,MX,1,100,-39
1576518677.226837,98373.000,16720,2,MX,1,100,-37
1576518677.265776,98405.750,16736,4,MX,1,100,-38
1576518677.304715,98438.500,16736,4,MX,1,100,-38
1576518677.343654,98471.250,16736,4,MX,1,100,-39
1576518677.382593,98504.000,16736,4,MX,1,100,-38
1576518677.424802,98539.500,16754,2,MX,1,100,-38
1576518677.467011,98575.000,16754,2,MX,1,100,-39
1576518677.505653,98607.500,16772,4,MX,1,100,-40
1576518677.544295,98640.000,16772,4,MX,1,100,-38
1576518677.582937,98672.500,16772,4,MX,1,100,-37
1576518677.621579,98705.000,16772,4,MX,1,100,-39
1576518677.660815,98738.000,16790,3,MX,1,100,-39
1576518677.700052,98771.000,16790,3,MX,1,100,-39
1576518677.739288,98804.000,16790,3,MX,1,100,-38
1576518677.779317,98837.667,16808,3,MX,1,100,-38
1576518677.819346,98871.333,16808,3,MX,1,100,-39
1576518677.859375,98905.000,16808,3,MX,1,100,-39
1576518677.899008,98938.333,16826,3,MX,1,100,-38
1576518677.938640,98971.667,16826,3,MX,1,100,-39
1576518677.978273,99005.000,16826,3,MX,1,100,-38
1576518678.018302,99038.667,16844,3,MX,1,100,-38
1576518678.058331,99072.333,16844,3,MX,1,100,-39
1576518678.098360,99106.000,16844,3,MX,1,100,-39
1576518678.139975,99141.000,16863,3,MX,1,100,-39
1576518678.181589,99176.000,16863,3,MX,1,100,-39
1576518678.223203,99211.000,16863,3,MX,1,100,-40
1576518678.265412,99246.500,16880,2,MX,1,100,-38
1576518678.307621,99282.000,16880,2,MX,1,100,-39
1576518678.346065,99314.333,16898,3,MX,1,100,-39
1576518678.384509,99346.667,16898,3,MX,1,100,-38
1576518678.422952,99379.000,16898,3,MX,1,100,-39
1576518678.461297,99411.250,16916,4,MX,1,100,-39
1576518678.499642,99443.500,16916,4,MX,1,100,-39
1576518678.537986,99475.750,16916,4,MX,1,100,-38
1576518678.576331,99508.000,16916,4,MX,1,100,-40
1576518678.622107,99546.500,16932,2,MX,1,100,-39
1576518678.667883,99585.000,16932,2,MX,1,100,-37
1576518678.707912,99618.667,16950,3,MX,1,100,-39
1576518678.747941,99652.333,16950,3,MX,1,100,-39
1576518678.787970,99686.000,16950,3,MX,1,100,-39
1576518678.829584,99721.000,16968,3,MX,1,100,-37
1576518678.871199,99756.000,16968,3,MX,1,100,-39
1576518678.912813,99791.000,16968,3,MX,1,100,-39
1576518678.951257,99823.333,16986,3,MX,1,100,-38
1576518678.989700,99855.667,16986,3,MX,1,100,-39
1576518679.028144,99888.000,16986,3,MX,1,100,-39
1576518679.068807,99922.200,17007,5,MX,1,100,-39
1576518679.109471,99956.400,17007,5,MX,1,100,-40
1576518679.150134,99990.600,17007,5,MX,1,100,-38
1576518679.190797,100024.800,17007,5,MX,1,100,-39
1576518679.231460,100059.000,17007,5,MX,1,100,-39
1576518679.272678,100093.667,17026,3,MX,1,100,-39
1576518679.313896,100128.333,17026,3,MX,1,100,-39
1576518679.355114,100163.000,17026,3,MX,1,100,-39
1576518679.396332,100197.667,17044,3,MX,1,100,-39
1576518679.437550,100232.333,17044,3,MX,1,100,-40
1576518679.478768,100267.000,17044,3,MX,1,100,-39
1576518679.519194,100301.000,17062,3,MX,1,100,-39
1576518679.559619,100335.000,17062,3,MX,1,100,-40
1576518679.600044,100369.000,17062,3,MX,1,100,-39
1576518679.638092,100401.000,17080,3,MX,1,100,-40
1576518679.676139,100433.000,17080,3,MX,1,100,-38
1576518679.714187,100465.000,17080,3,MX,1,100,-39
1576518679.753027,100497.667,17098,3,MX,1,100,-37
1576518679.791867,100530.333,17098,3,MX,1,100,-39
1576518679.830707,100563.000,17098,3,MX,1,100,-39
1576518679.875888,100601.000,17116,3,MX,1,100,-39
1576518679.921069,100639.000,17116,3,MX,1,100,-39
1576518679.966251,100677.000,17116,3,MX,1,100,-39
1576518680.006676,100711.000,17134,3,MX,1,100,-38
1576518680.047101,100745.000,17134,3,MX,1,100,-39
1576518680.087527,100779.000,17134,3,MX,1,100,-38
1576518680.128349,100813.333,17152,3,MX,1,100,-39
1576518680.169170,100847.667,17152,3,MX,1,100,-39
1576518680.209992,100882.000,17152,3,MX,1,100,-40
1576518680.247247,100913.333,17170,3,MX,1,100,-39
1576518680.284502,100944.667,17170,3,MX,1,100,-39
1576518680.321756,100976.000,17170,3,MX,1,100,-38
1576518680.359804,101008.000,17188,3,MX,1,100,-39
1576518680.397851,101040.000,17188,3,MX,1,100,-39
1576518680.435899,101072.000,17188,3,MX,1,100,-39
1576518680.476720,101106.333,17205,3,MX,1,100,-39
1576518680.517542,101140.667,17205,3,MX,1,100,-40
1576518680.558364,101175.000,17205,3,MX,1,100,-39
1576518680.599185,101209.333,17222,3,MX,1,100,-39
1576518680.640007,101243.667,17222,3,MX,1,100,-39
1576518680.680829,101278.000,17222,3,MX,1,100,-38
1576518680.723632,101314.000,17240,3,MX,1,100,-38
1576518680.766436,101350.000,17240,3,MX,1,100,-38
1576518680.809239,101386.000,17240,3,MX,1,100,-38
1576518680.850061,101420.333,17258,3,MX,1,100,-39
1576518680.890882,101454.667,17258,3,MX,1,100,-38
1576518680.931704,101489.000,17258,3,MX,1,100,-38
1576518680.975102,101525.500,17276,2,MX,1,100,-39
1576518681.018500,101562.000,17276,2,MX,1,100,-38
1576518681.059321,101596.333,17294,3,MX,1,100,-38
1576518681.100143,101630.667,17294,3,MX,1,100,-39
1576518681.140965,101665.000,17294,3,MX,1,100,-38
1576518681.184561,101701.667,17312,3,MX,1,100,-38
1576518681.228157,101738.333,17312,3,MX,1,100,-38
1576518681.271753,101775.000,17312,3,MX,1,100,-39
1576518681.309800,101807.000,17330,3,MX,1,100,-39
1576518681.347848,101839.000,17330,3,MX,1,100,-39
1576518681.385895,101871.000,17330,3,MX,1,100,-39
1576518681.425132,101904.000,17348,3,MX,1,100,-39
1576518681.464368,101937.000,17348,3,MX,1,100,-39
1576518681.503604,101970.000,17348,3,MX,1,100,-39
1576518681.541652,102002.000,17366,4,MX,1,100,-39
1576518681.579699,102034.000,17366,4,MX,1,100,-39
1576518681.617747,102066.000,17366,4,MX,1,100,-39
1576518681.655794,102098.000,17366,4,MX,1,100,-39
1576518681.695625,102131.500,17382,2,MX,1,100,-39
1576518681.735456,102165.000,17382,2,MX,1,100,-38
1576518681.777070,102200.000,17400,3,MX,1,100,-38
1576518681.818685,102235.000,17400,3,MX,1,100,-39
1576518681.860299,102270.000,17400,3,MX,1,100,-38
1576518681.901517,102304.667,17418,3,MX,1,100,-37
1576518681.942735,102339.333,17418,3,MX,1,100,-39
1576518681.983953,102374.000,17418,3,MX,1,100,-39
1576518682.024775,102408.333,17436,3,MX,1,100,-39
1576518682.065596,102442.667,17436,3,MX,1,100,-38
1576518682.106418,102477.000,17436,3,MX,1,100,-39
1576518682.148032,102512.000,17455,3,MX,1,100,-39
1576518682.189647,102547.000,17455,3,MX,1,100,-38
1576518682.231261,102582.000,17455,3,MX,1,100,-38
1576518682.270101,102614.667,17473,3,MX,1,100,-38
1576518682.308941,102647.333,17473,3,MX,1,100,-39
1576518682.347781,102680.000,17473,3,MX,1,100,-37
1576518682.389396,102715.000,17491,3,MX,1,100,-37
1576518682.431010,102750.000,17491,3,MX,1,100,-38
1576518682.472625,102785.000,17491,3,MX,1,100,-39
1576518682.513050,102819.000,17508,3,MX,1,100,-39
1576518682.553475,102853.000,17508,3,MX,1,100,-39
1576518682.593901,102887.000,17508,3,MX,1,100,-38
1576518682.635515,102922.000,17526,3,MX,1,100,-39
1576518682.677129,102957.000,17526,3,MX,1,100,-37
1576518682.718744,102992.000,17526,3,MX,1,100,-39
1576518682.755998,103023.333,17544,3,MX,1,100,-39
1576518682.793253,103054.667,17544,3,MX,1,100,-39
1576518682.830508,103086.000,17544,3,MX,1,100,-39
1576518682.868952,103118.333,17560,3,MX,1,100,-38
1576518682.907395,103150.667,17560,3,MX,1,100,-39
1576518682.945839,103183.000,17560,3,MX,1,100,-39
1576518682.991417,103221.333,17578,3,MX,1,100,-38
1576518683.036994,103259.667,17578,3,MX,1,100,-38
1576518683.082572,103298.000,17578,3,MX,1,100,-38
1576518683.123394,103332.333,17597,3,MX,1,100,-39
1576518683.164216,103366.667,17597,3,MX,1,100,-38
1576518683.205037,103401.000,17597,3,MX,1,100,-39
1576518683.246255,103435.667,17615,3,MX,1,100,-39
1576518683.287473,103470.333,17615,3,MX,1,100,-39
1576518683.328691,103505.000,17615,3,MX,1,100,-37
1576518683.366739,103537.000,17633,3,MX,1,100,-39
1576518683.404786,103569.000,17633,3,MX,1,100,-39
1576518683.442834,103601.000,17633,3,MX,1,100,-39
1576518683.481277,103633.333,17651,3,MX,1,100,-38
1576518683.519721,103665.667,17651,3,MX,1,100,-38
1576518683.558165,103698.000,17651,3,MX,1,100,-38
1576518683.598590,103732.000,17669,3,MX,1,100,-39
1576518683.639016,103766.000,17669,3,MX,1,100,-37
1576518683.679441,103800.000,17669,3,MX,1,100,-39
1576518683.724226,103837.667,17686,3,MX,1,100,-40
1576518683.769011,103875.333,17686,3,MX,1,100,-39
1576518683.813796,103913.000,17686,3,MX,1,100,-39
1576518683.855410,103948.000,17704,3,MX,1,100,-39
1576518683.897025,103983.000,17704,3,MX,1,100,-39
1576518683.938639,104018.000,17704,3,MX,1,100,-38
1576518683.975497,104049.000,17722,3,MX,1,100,-38
1576518684.012356,104080.000,17722,3,MX,1,100,-37
1576518684.049214,104111.000,17722,3,MX,1,100,-39
1576518684.088451,104144.000,17738,3,MX,1,100,-37
1576518684.127687,104177.000,17738,3,MX,1,100,-38
1576518684.166924,104210.000,17738,3,MX,1,100,-38
1576518684.206160,104243.000,17757,3,MX,1,100,-38
1576518684.245396,104276.000,17757,3,MX,1,100,-39
1576518684.284633,104309.000,17757,3,MX,1,100,-38
1576518684.326247,104344.000,17775,3,MX,1,100,-38
1576518684.367862,104379.000,17775,3,MX,1,100,-39
1576518684.409476,104414.000,17775,3,MX,1,100,-39
1576518684.456441,104453.500,17793,2,MX,1,100,-38
1576518684.503405,104493.000,17793,2,MX,1,100,-39
1576518684.542047,104525.500,17811,4,MX,1,100,-39
1576518684.580689,104558.000,17811,4,MX,1,100,-39
1576518684.619331,104590.500,17811,4,MX,1,100,-38
1576518684.657973,104623.000,17811,4,MX,1,100,-38
1576518684.705532,104663.000,17829,2,MX,1,100,-38
1576518684.753092,104703.000,17829,2,MX,1,100,-39
1576518684.790743,104734.667,17846,3,MX,1,100,-39
1576518684.828394,104766.333,17846,3,MX,1,100,-39
1576518684.866045,104798.000,17846,3,MX,1,100,-40
1576518684.911226,104836.000,17864,3,MX,1,100,-38
1576518684.956408,104874.000,17864,3,MX,1,100,-38
1576518685.001589,104912.000,17864,3,MX,1,100,-38
1576518685.040033,104944.333,17880,3,MX,1,100,-38
1576518685.078476,104976.667,17880,3,MX,1,100,-40
1576518685.116920,105009.000,17880,3,MX,1,100,-38
1576518685.157345,105043.000,17902,5,MX,1,100,-38
1576518685.197771,105077.000,17902,5,MX,1,100,-36
1576518685.238196,105111.000,17902,5,MX,1,100,-38
1576518685.278621,105145.000,17902,5,MX,1,100,-39
1576518685.319047,105179.000,17902,5,MX,1,100,-38
1576518685.357491,105211.333,17922,3,MX,1,100,-37
1576518685.395934,105243.667,17922,3,MX,1,100,-38
1576518685.434378,105276.000,17922,3,MX,1,100,-39
1576518685.474803,105310.000,17939,3,MX,1,100,-38
1576518685.515229,105344.000,17939,3,MX,1,100,-39
1576518685.555654,105378.000,17939,3,MX,1,100,-39
1576518685.597269,105413.000,17957,3,MX,1,100,-39
1576518685.638883,105448.000,17957,3,MX,1,100,-38
1576518685.680497,105483.000,17957,3,MX,1,100,-37
1576518685.722112,105518.000,17973,3,MX,1,100,-39
1576518685.763726,105553.000,17973,3,MX,1,100,-38
1576518685.805341,105588.000,17973,3,MX,1,100,-38
1576518685.847549,105623.500,17991,2,MX,1,100,-38
1576518685.889758,105659.000,17991,2,MX,1,100,-39
1576518685.931769,105694.333,18009,3,MX,1,100,-37
1576518685.973780,105729.667,18009,3,MX,1,100,-39
1576518686.015790,105765.000,18009,3,MX,1,100,-38
1576518686.054234,105797.333,18027,3,MX,1,100,-39
1576518686.092678,105829.667,18027,3,MX,1,100,-38
1576518686.131121,105862.000,18027,3,MX,1,100,-39
1576518686.172736,105897.000,18046,3,MX,1,100,-38
1576518686.214350,105932.000,18046,3,MX,1,100,-38
1576518686.255965,105967.000,18046,3,MX,1,100,-37
1576518686.295597,106000.333,18064,3,MX,1,100,-38
1576518686.335230,106033.667,18064,3,MX,1,100,-38
1576518686.374863,106067.000,18064,3,MX,1,100,-39
1576518686.416081,106101.667,18082,3,MX,1,100,-36
1576518686.457299,106136.333,18082,3,MX,1,100,-37
1576518686.498517,106171.000,18082,3,MX,1,100,-38
1576518686.538942,106205.000,18099,3,MX,1,100,-38
1576518686.579368,106239.000,18099,3,MX,1,100,-38
1576518686.619793,106273.000,18099,3,MX,1,100,-37
1576518686.659822,106306.667,18117,3,MX,1,100,-39
1576518686.699851,106340.333,18117,3,MX,1,100,-36
1576518686.739880,106374.000,18117,3,MX,1,100,-38
1576518686.777135,106405.333,18135,3,MX,1,100,-38
1576518686.814390,106436.667,18135,3,MX,1,100,-39
1576518686.851645,106468.000,18135,3,MX,1,100,-37
1576518686.890485,106500.667,18151,3,MX,1,100,-38
1576518686.929325,106533.333,18151,3,MX,1,100,-38
1576518686.968165,106566.000,18151,3,MX,1,100,-39
1576518687.013742,106604.333,18169,3,MX,1,100,-39
1576518687.059320,106642.667,18169,3,MX,1,100,-37
1576518687.104897,106681.000,18169,3,MX,1,100,-38
1576518687.145719,106715.333,18188,3,MX,1,100,-38
1576518687.186541,106749.667,18188,3,MX,1,100,-37
1576518687.227363,106784.000,18188,3,MX,1,100,-37
1576518687.266995,106817.333,18206,3,MX,1,100,-38
1576518687.306628,106850.667,18206,3,MX,1,100,-38
1576518687.346261,106884.000,18206,3,MX,1,100,-36
1576518687.384705,106916.333,18224,3,MX,1,100,-37
1576518687.423148,106948.667,18224,3,MX,1,100,-39
1576518687.461592,106981.000,18224,3,MX,1,100,-38
1576518687.501225,107014.333,18242,3,MX,1,100,-38
1576518687.540858,107047.667,18242,3,MX,1,100,-37
1576518687.580490,107081.000,18242,3,MX,1,100,-38
1576518687.622105,107116.000,18260,3,MX,1,100,-39
1576518687.663719,107151.000,18260,3,MX,1,100,-38
1576518687.705333,107186.000,18260,3,MX,1,100,-37
1576518687.750118,107223.667,18277,3,MX,1,100,-38
1576518687.794903,107261.333,18277,3,MX,1,100,-38
1576518687.839688,107299.000,18277,3,MX,1,100,-38
1576518687.879717,107332.667,18295,3,MX,1,100,-38
1576518687.919746,107366.333,18295,3,MX,1,100,-38
1576518687.959775,107400.000,18295,3,MX,1,100,-39
1576518687.996634,107431.000,18313,3,MX,1,100,-38
1576518688.033492,107462.000,18313,3,MX,1,100,-39
1576518688.070351,107493.000,18313,3,MX,1,100,-39
1576518688.110380,107526.667,18331,3,MX,1,100,-38
1576518688.150409,107560.333,18331,3,MX,1,100,-37
1576518688.190438,107594.000,18331,3,MX,1,100,-38
1576518688.230863,107628.000,18348,3,MX,1,100,-40
1576518688.271289,107662.000,18348,3,MX,1,100,-38
1576518688.311714,107696.000,18348,3,MX,1,100,-39
1576518688.352932,107730.667,18366,3,MX,1,100,-39
1576518688.394150,107765.333,18366,3,MX,1,100,-39
1576518688.435368,107800.000,18366,3,MX,1,100,-38
1576518688.482928,107840.000,18384,2,MX,1,100,-38
1576518688.530487,107880.000,18384,2,MX,1,100,-37
1576518688.567345,107911.000,18402,4,MX,1,100,-39
1576518688.604204,107942.000,18402,4,MX,1,100,-39
1576518688.641062,107973.000,18402,4,MX,1,100,-38
1576518688.677921,108004.000,18402,4,MX,1,100,-38
1576518688.724885,108043.500,18420,2,MX,1,100,-37
1576518688.771850,108083.000,18420,2,MX,1,100,-38
1576518688.809897,108115.000,18438,4,MX,1,100,-38
1576518688.847945,108147.000,18438,4,MX,1,100,-38
1576518688.885992,108179.000,18438,4,MX,1,100,-37
1576518688.924040,108211.000,18438,4,MX,1,100,-39
1576518688.964069,108244.667,18455,3,MX,1,100,-39
1576518689.004098,108278.333,18455,3,MX,1,100,-39
1576518689.044127,108312.000,18455,3,MX,1,100,-39
1576518689.084949,108346.333,18473,3,MX,1,100,-37
1576518689.125770,108380.667,18473,3,MX,1,100,-39
1576518689.166592,108415.000,18473,3,MX,1,100,-39
1576518689.207017,108449.000,18492,3,MX,1,100,-37
1576518689.247443,108483.000,18492,3,MX,1,100,-39
1576518689.287868,108517.000,18492,3,MX,1,100,-37
1576518689.327501,108550.333,18508,3,MX,1,100,-38
1576518689.367134,108583.667,18508,3,MX,1,100,-39
1576518689.406766,108617.000,18508,3,MX,1,100,-37
1576518689.446795,108650.667,18526,3,MX,1,100,-39
1576518689.486825,108684.333,18526,3,MX,1,100,-39
1576518689.526854,108718.000,18526,3,MX,1,100,-37
1576518689.567675,108752.333,18544,3,MX,1,100,-39
1576518689.608497,108786.667,18544,3,MX,1,100,-38
1576518689.649319,108821.000,18544,3,MX,1,100,-38
1576518689.690933,108856.000,18562,2,MX,1,100,-37
1576518689.732548,108891.000,18562,2,MX,1,100,-39
1576518689.771487,108923.750,18580,4,MX,1,100,-39
1576518689.810426,108956.500,18580,4,MX,1,100,-37
1576518689.849365,108989.250,18580,4,MX,1,100,-38
1576518689.888304,109022.000,18580,4,MX,1,100,-39
1576518689.926748,109054.333,18598,3,MX,1,100,-38
1576518689.965192,109086.667,18598,3,MX,1,100,-39
1576518690.003635,109119.000,18598,3,MX,1,100,-40
1576518690.048817,109157.000,18616,2,MX,1,100,-38
1576518690.093998,109195.000,18616,2,MX,1,100,-38
1576518690.134423,109229.000,18635,3,MX,1,100,-37
1576518690.174849,109263.000,18635,3,MX,1,100,-39
1576518690.215274,109297.000,18635,3,MX,1,100,-37
1576518690.256888,109332.000,18652,3,MX,1,100,-38
1576518690.298503,109367.000,18652,3,MX,1,100,-37
1576518690.340117,109402.000,18652,3,MX,1,100,-38
1576518690.379750,109435.333,18670,3,MX,1,100,-38
1576518690.419383,109468.667,18670,3,MX,1,100,-38
1576518690.459015,109502.000,18670,3,MX,1,100,-39
1576518690.496468,109533.500,18687,4,MX,1,100,-39
1576518690.533921,109565.000,18687,4,MX,1,100,-38
1576518690.571374,109596.500,18687,4,MX,1,100,-38
1576518690.608827,109628.000,18687,4,MX,1,100,-38
1576518690.649252,109662.000,18704,2,MX,1,100,-37
1576518690.689678,109696.000,18704,2,MX,1,100,-37
1576518690.734463,109733.667,18722,3,MX,1,100,-39
1576518690.779248,109771.333,18722,3,MX,1,100,-38
1576518690.824033,109809.000,18722,3,MX,1,100,-39
1576518690.865251,109843.667,18740,3,MX,1,100,-37
1576518690.906469,109878.333,18740,3,MX,1,100,-38
1576518690.947687,109913.000,18740,3,MX,1,100,-39
1576518690.988112,109947.000,18758,3,MX,1,100,-38
1576518691.028538,109981.000,18758,3,MX,1,100,-38
1576518691.068963,110015.000,18758,3,MX,1,100,-39
1576518691.106614,110046.667,18776,3,MX,1,100,-39
1576518691.144265,110078.333,18776,3,MX,1,100,-37
1576518691.181916,110110.000,18776,3,MX,1,100,-38
1576518691.221628,110143.400,18798,5,MX,1,100,-38
1576518691.261340,110176.800,18798,5,MX,1,100,-39
1576518691.301052,110210.200,18798,5,MX,1,100,-39
1576518691.340764,110243.600,18798,5,MX,1,100,-39
1576518691.380476,110277.000,18798,5,MX,1,100,-37
1576518691.421694,110311.667,18818,3,MX,1,100,-37
1576518691.462912,110346.333,18818,3,MX,1,100,-39
1576518691.504130,110381.000,18818,3,MX,1,100,-38
1576518691.549312,110419.000,18836,3,MX,1,100,-38
1576518691.594493,110457.000,18836,3,MX,1,100,-38
1576518691.639674,110495.000,18836,3,MX,1,100,-38
1576518691.677325,110526.667,18854,3,MX,1,100,-38
1576518691.714977,110558.333,18854,3,MX,1,100,-37
1576518691.752628,110590.000,18854,3,MX,1,100,-38
1576518691.789882,110621.333,18872,3,MX,1,100,-38
1576518691.827137,110652.667,18872,3,MX,1,100,-37
1576518691.864392,110684.000,18872,3,MX,1,100,-38
1576518691.904817,110718.000,18890,3,MX,1,100,-37
1576518691.945243,110752.000,18890,3,MX,1,100,-37
1576518691.985668,110786.000,18890,3,MX,1,100,-38
1576518692.026093,110820.000,18908,3,MX,1,100,-38
1576518692.066519,110854.000,18908,3,MX,1,100,-38
1576518692.106944,110888.000,18908,3,MX,1,100,-39
1576518692.148162,110922.667,18927,3,MX,1,100,-37
1576518692.189380,110957.333,18927,3,MX,1,100,-38
1576518692.230598,110992.000,18927,3,MX,1,100,-39
1576518692.272213,111027.000,18944,3,MX,1,100,-38
1576518692.313827,111062.000,18944,3,MX,1,100,-38
1576518692.355441,111097.000,18944,3,MX,1,100,-37
1576518692.393092,111128.667,18962,3,MX,1,100,-38
1576518692.430743,111160.333,18962,3,MX,1,100,-39
1576518692.468395,111192.000,18962,3,MX,1,100,-39
1576518692.510405,111227.333,18978,3,MX,1,100,-37
1576518692.552416,111262.667,18978,3,MX,1,100,-38
1576518692.594427,111298.000,18978,3,MX,1,100,-38
1576518692.631285,111329.000,18996,3,MX,1,100,-38
1576518692.668144,111360.000,18996,3,MX,1,100,-37
1576518692.705002,111391.000,18996,3,MX,1,100,-39
1576518692.744635,111424.333,19014,3,MX,1,100,-37
1576518692.784267,111457.667,19014,3,MX,1,100,-37
1576518692.823900,111491.000,19014,3,MX,1,100,-37
1576518692.862344,111523.333,19032,3,MX,1,100,-38
1576518692.900788,111555.667,19032,3,MX,1,100,-37
1576518692.939231,111588.000,19032,3,MX,1,100,-37
1576518692.980449,111622.667,19050,3,MX,1,100,-37
1576518693.021667,111657.333,19050,3,MX,1,100,-38
1576518693.062886,111692.000,19050,3,MX,1,100,-38
1576518693.102915,111725.667,19069,3,MX,1,100,-35
1576518693.142944,111759.333,19069,3,MX,1,100,-37
1576518693.182973,111793.000,19069,3,MX,1,100,-37
1576518693.223398,111827.000,19087,3,MX,1,100,-38
1576518693.263824,111861.000,19087,3,MX,1,100,-39
1576518693.304249,111895.000,19087,3,MX,1,100,-37
1576518693.345863,111930.000,19105,3,MX,1,100,-38
1576518693.387478,111965.000,19105,3,MX,1,100,-39
1576518693.429092,112000.000,19105,3,MX,1,100,-37
1576518693.469121,112033.667,19123,3,MX,1,100,-37
1576518693.509150,112067.333,19123,3,MX,1,100,-38
1576518693.549179,112101.000,19123,3,MX,1,100,-38
1576518693.590397,112135.667,19140,3,MX,1,100,-37
1576518693.631615,112170.333,19140,3,MX,1,100,-38
1576518693.672833,112205.000,19140,3,MX,1,100,-38
1576518693.712070,112238.000,19158,3,MX,1,100,-38
1576518693.751306,112271.000,19158,3,MX,1,100,-38
1576518693.790542,112304.000,19158,3,MX,1,100,-37
1576518693.828193,112335.667,19175,3,MX,1,100,-37
1576518693.865844,112367.333,19175,3,MX,1,100,-37
1576518693.903496,112399.000,19175,3,MX,1,100,-39
1576518693.947092,112435.667,19192,3,MX,1,100,-37
1576518693.990688,112472.333,19192,3,MX,1,100,-36
1576518694.034284,112509.000,19192,3,MX,1,100,-38
1576518694.074709,112543.000,19210,3,MX,1,100,-37
1576518694.115134,112577.000,19210,3,MX,1,100,-37
1576518694.155560,112611.000,19210,3,MX,1,100,-38
1576518694.197174,112646.000,19229,3,MX,1,100,-37
1576518694.238789,112681.000,19229,3,MX,1,100,-37
1576518694.280403,112716.000,19229,3,MX,1,100,-38
1576518694.318847,112748.333,19247,3,MX,1,100,-37
1576518694.357290,112780.667,19247,3,MX,1,100,-38
1576518694.395734,112813.000,19247,3,MX,1,100,-37
1576518694.434178,112845.333,19265,3,MX,1,100,-37
1576518694.472622,112877.667,19265,3,MX,1,100,-37
1576518694.511065,112910.000,19265,3,MX,1,100,-37
1576518694.549905,112942.667,19283,3,MX,1,100,-37
1576518694.588746,112975.333,19283,3,MX,1,100,-37
1576518694.627586,113008.000,19283,3,MX,1,100,-37
1576518694.672370,113045.667,19301,3,MX,1,100,-38
1576518694.717155,113083.333,19301,3,MX,1,100,-37
1576518694.761940,113121.000,19301,3,MX,1,100,-37
1576518694.802960,113155.500,19318,2,MX,1,100,-39
1576518694.843980,113190.000,19318,2,MX,1,100,-37
1576518694.883811,113223.500,19336,4,MX,1,100,-37
1576518694.923642,113257.000,19336,4,MX,1,100,-37
1576518694.963473,113290.500,19336,4,MX,1,100,-37
1576518695.003304,113324.000,19336,4,MX,1,100,-37
1576518695.041351,113356.000,19354,3,MX,1,100,-37
1576518695.079399,113388.000,19354,3,MX,1,100,-39
1576518695.117446,113420.000,19354,3,MX,1,100,-37
1576518695.157079,113453.333,19371,3,MX,1,100,-38
1576518695.196712,113486.667,19371,3,MX,1,100,-37
1576518695.236344,113520.000,19371,3,MX,1,100,-38
1576518695.277562,113554.667,19389,3,MX,1,100,-37
1576518695.318780,113589.333,19389,3,MX,1,100,-38
1576518695.359998,113624.000,19389,3,MX,1,100,-39
1576518695.401018,113658.500,19407,2,MX,1,100,-37
1576518695.442038,113693.000,19407,2,MX,1,100,-39
1576518695.487219,113731.000,19425,3,MX,1,100,-37
1576518695.532401,113769.000,19425,3,MX,1,100,-37
1576518695.577582,113807.000,19425,3,MX,1,100,-37
1576518695.614440,113838.000,19443,3,MX,1,100,-38
1576518695.651299,113869.000,19443,3,MX,1,100,-38
1576518695.688157,113900.000,19443,3,MX,1,100,-38
1576518695.727394,113933.000,19461,4,MX,1,100,-37
1576518695.766630,113966.000,19461,4,MX,1,100,-38
1576518695.805866,113999.000,19461,4,MX,1,100,-39
1576518695.845103,114032.000,19461,4,MX,1,100,-39
1576518695.885528,114066.000,19479,2,MX,1,100,-38
1576518695.925954,114100.000,19479,2,MX,1,100,-37
1576518695.967172,114134.667,19496,3,MX,1,100,-37
1576518696.008390,114169.333,19496,3,MX,1,100,-39
1576518696.049608,114204.000,19496,3,MX,1,100,-38
1576518696.091222,114239.000,19515,3,MX,1,100,-38
1576518696.132837,114274.000,19515,3,MX,1,100,-38
1576518696.174451,114309.000,19515,3,MX,1,100,-38
1576518696.216065,114344.000,19533,3,MX,1,100,-37
1576518696.257680,114379.000,19533,3,MX,1,100,-37
1576518696.299294,114414.000,19533,3,MX,1,100,-37
1576518696.335261,114444.250,19549,4,MX,1,100,-38
1576518696.371228,114474.500,19549,4,MX,1,100,-39
1576518696.407194,114504.750,19549,4,MX,1,100,-37
1576518696.443161,114535.000,19549,4,MX,1,100,-37
1576518696.486559,114571.500,19567,2,MX,1,100,-37
1576518696.529956,114608.000,19567,2,MX,1,100,-38
1576518696.566220,114638.500,19585,4,MX,1,100,-39
1576518696.602484,114669.000,19585,4,MX,1,100,-39
1576518696.638748,114699.500,19585,4,MX,1,100,-38
1576518696.675012,114730.000,19585,4,MX,1,100,-37
1576518696.715041,114763.667,19603,3,MX,1,100,-38
1576518696.755070,114797.333,19603,3,MX,1,100,-38
1576518696.795099,114831.000,19603,3,MX,1,100,-38
1576518696.832354,114862.333,19621,3,MX,1,100,-37
1576518696.869609,114893.667,19621,3,MX,1,100,-37
1576518696.906864,114925.000,19621,3,MX,1,100,-38
1576518696.948874,114960.333,19639,3,MX,1,100,-39
1576518696.990885,114995.667,19639,3,MX,1,100,-37
1576518697.032896,115031.000,19639,3,MX,1,100,-38
1576518697.073717,115065.333,19657,3,MX,1,100,-38
1576518697.114539,115099.667,19657,3,MX,1,100,-37
1576518697.155361,115134.000,19657,3,MX,1,100,-37
1576518697.195786,115168.000,19676,3,MX,1,100,-39
1576518697.236212,115202.000,19676,3,MX,1,100,-39
1576518697.276637,115236.000,19676,3,MX,1,100,-37
1576518697.317062,115270.000,19697,5,MX,1,100,-38
1576518697.357488,115304.000,19697,5,MX,1,100,-37
1576518697.397913,115338.000,19697,5,MX,1,100,-38
1576518697.438339,115372.000,19697,5,MX,1,100,-39
1576518697.478764,115406.000,19697,5,MX,1,100,-37
1576518697.516811,115438.000,19717,3,MX,1,100,-39
1576518697.554859,115470.000,19717,3,MX,1,100,-37
1576518697.592906,115502.000,19717,3,MX,1,100,-39
1576518697.637493,115539.500,19735,2,MX,1,100,-38
1576518697.682080,115577.000,19735,2,MX,1,100,-38
1576518697.722505,115611.000,19753,3,MX,1,100,-38
1576518697.762931,115645.000,19753,3,MX,1,100,-37
1576518697.803356,115679.000,19753,3,MX,1,100,-39
1576518697.844178,115713.333,19771,3,MX,1,100,-37
1576518697.885000,115747.667,19771,3,MX,1,100,-38
1576518697.925821,115782.000,19771,3,MX,1,100,-39
1576518697.967435,115817.000,19789,3,MX,1,100,-37
1576518698.009050,115852.000,19789,3,MX,1,100,-37
1576518698.050664,115887.000,19789,3,MX,1,100,-39
1576518698.087919,115918.333,19808,3,MX,1,100,-37
1576518698.125174,115949.667,19808,3,MX,1,100,-37
1576518698.162428,115981.000,19808,3,MX,1,100,-38
1576518698.201269,116013.667,19825,3,MX,1,100,-37
1576518698.240109,116046.333,19825,3,MX,1,100,-38
1576518698.278949,116079.000,19825,3,MX,1,100,-37
1576518698.319374,116113.000,19843,3,MX,1,100,-38
1576518698.359799,116147.000,19843,3,MX,1,100,-37
1576518698.400225,116181.000,19843,3,MX,1,100,-39
1576518698.445802,116219.333,19859,3,MX,1,100,-39
1576518698.491380,116257.667,19859,3,MX,1,100,-36
1576518698.536958,116296.000,19859,3,MX,1,100,-38
1576518698.578969,116331.333,19877,3,MX,1,100,-37
1576518698.620979,116366.667,19877,3,MX,1,100,-37
1576518698.662990,116402.000,19877,3,MX,1,100,-38
1576518698.699848,116433.000,19895,3,MX,1,100,-38
1576518698.736707,116464.000,19895,3,MX,1,100,-38
1576518698.773565,116495.000,19895,3,MX,1,100,-38
1576518698.812009,116527.333,19913,3,MX,1,100,-38
1576518698.850453,116559.667,19913,3,MX,1,100,-37
1576518698.888896,116592.000,19913,3,MX,1,100,-37
1576518698.930115,116626.667,19931,3,MX,1,100,-38
1576518698.971333,116661.333,19931,3,MX,1,100,-38
1576518699.012551,116696.000,19931,3,MX,1,100,-39
1576518699.054165,116731.000,19949,3,MX,1,100,-38
1576518699.095779,116766.000,19949,3,MX,1,100,-37
