EpochTimestamp,EmotiBitTimestamp,PacketNumber,DataLength,TypeTag,ProtocolVersion,DataReliability,PI
1576518600.256910,33637.000,5343,5,PI,1,100,175319
1576518600.256910,33637.000,5343,5,PI,1,100,175483
1576518600.256910,33637.000,5343,5,PI,1,100,175495
1576518600.256910,33637.000,5343,5,PI,1,100,175397
1576518600.256910,33637.000,5343,5,PI,1,100,175290
1576518600.295354,33669.333,5361,3,PI,1,100,175283
1576518600.333797,33701.667,5361,3,PI,1,100,175211
1576518600.372241,33734.000,5361,3,PI,1,100,175214
1576518600.413856,33769.000,5379,3,PI,1,100,175228
1576518600.455470,33804.000,5379,3,PI,1,100,175232
1576518600.497084,33839.000,5379,3,PI,1,100,175229
1576518600.536321,33872.000,5396,3,PI,1,100,175177
1576518600.575557,33905.000,5396,3,PI,1,100,175196
1576518600.614794,33938.000,5396,3,PI,1,100,175245
1576518600.652841,33970.000,5414,3,PI,1,100,175251
1576518600.690888,34002.000,5414,3,PI,1,100,175216
1576518600.728936,34034.000,5414,3,PI,1,100,175270
1576518600.768569,34067.333,5432,3,PI,1,100,175334
1576518600.808201,34100.667,5432,3,PI,1,100,175342
1576518600.847834,34134.000,5432,3,PI,1,100,175156
1576518600.888656,34168.333,5448,3,PI,1,100,175032
1576518600.929477,34202.667,5448,3,PI,1,100,175004
1576518600.970299,34237.000,5448,3,PI,1,100,175013
1576518601.011517,34271.667,5467,3,PI,1,100,175021
1576518601.052735,34306.333,5467,3,PI,1,100,175018
1576518601.093953,34341.000,5467,3,PI,1,100,175023
1576518601.133982,34374.667,5485,3,PI,1,100,175018
1576518601.174011,34408.333,5485,3,PI,1,100,175016
1576518601.214040,34442.000,5485,3,PI,1,100,175054
1576518601.254466,34476.000,5503,3,PI,1,100,175047
1576518601.294891,34510.000,5503,3,PI,1,100,175079
1576518601.335316,34544.000,5503,3,PI,1,100,175096
1576518601.374553,34577.000,5521,3,PI,1,100,175121
1576518601.413789,34610.000,5521,3,PI,1,100,175104
1576518601.453026,34643.000,5521,3,PI,1,100,175017
1576518601.491073,34675.000,5539,3,PI,1,100,174896
1576518601.529120,34707.000,5539,3,PI,1,100,174845
1576518601.567168,34739.000,5539,3,PI,1,100,174823
1576518601.606801,34772.333,5557,3,PI,1,100,174814
1576518601.646433,34805.667,5557,3,PI,1,100,174821
1576518601.686066,34839.000,5557,3,PI,1,100,174820
1576518601.726888,34873.333,5575,3,PI,1,100,174818
1576518601.767709,34907.667,5575,3,PI,1,100,174779
1576518601.808531,34942.000,5575,3,PI,1,100,174779
1576518601.849353,34976.333,5592,3,PI,1,100,174790
1576518601.890175,35010.667,5592,3,PI,1,100,174826
1576518601.930996,35045.000,5592,3,PI,1,100,174887
1576518601.970629,35078.333,5610,3,PI,1,100,174886
1576518602.010262,35111.667,5610,3,PI,1,100,174867
1576518602.049895,35145.000,5610,3,PI,1,100,174909
1576518602.087942,35177.000,5627,4,PI,1,100,174878
1576518602.125989,35209.000,5627,4,PI,1,100,174719
1576518602.164037,35241.000,5627,4,PI,1,100,174607
1576518602.202084,35273.000,5627,4,PI,1,100,174585
1576518602.242113,35306.667,5645,3,PI,1,100,174571
1576518602.282142,35340.333,5645,3,PI,1,100,174560
1576518602.322171,35374.000,5645,3,PI,1,100,174569
1576518602.363786,35409.000,5663,2,PI,1,100,174596
1576518602.405400,35444.000,5663,2,PI,1,100,174581
1576518602.446618,35478.667,5681,3,PI,1,100,174562
1576518602.487836,35513.333,5681,3,PI,1,100,174609
1576518602.529054,35548.000,5681,3,PI,1,100,174650
1576518602.573443,35585.333,5699,3,PI,1,100,174673
1576518602.617831,35622.667,5699,3,PI,1,100,174699
1576518602.662220,35660.000,5699,3,PI,1,100,174720
1576518602.699871,35691.667,5717,3,PI,1,100,174737
1576518602.737522,35723.333,5717,3,PI,1,100,174668
1576518602.775173,35755.000,5717,3,PI,1,100,174497
1576518602.814410,35788.000,5735,3,PI,1,100,174429
1576518602.853646,35821.000,5735,3,PI,1,100,174408
1576518602.892883,35854.000,5735,3,PI,1,100,174362
1576518602.934101,35888.667,5753,3,PI,1,100,174432
1576518602.975319,35923.333,5753,3,PI,1,100,174438
1576518603.016537,35958.000,5753,3,PI,1,100,174418
1576518603.054981,35990.333,5771,3,PI,1,100,174393
1576518603.093424,36022.667,5771,3,PI,1,100,174461
1576518603.131868,36055.000,5771,3,PI,1,100,174499
1576518603.172293,36089.000,5789,3,PI,1,100,174504
1576518603.212719,36123.000,5789,3,PI,1,100,174515
1576518603.253144,36157.000,5789,3,PI,1,100,174537
1576518603.290003,36188.000,5805,4,PI,1,100,174571
1576518603.326861,36219.000,5805,4,PI,1,100,174603
1576518603.363719,36250.000,5805,4,PI,1,100,174638
1576518603.400578,36281.000,5805,4,PI,1,100,174583
1576518603.441400,36315.333,5823,3,PI,1,100,174410
1576518603.482221,36349.667,5823,3,PI,1,100,174356
1576518603.523043,36384.000,5823,3,PI,1,100,174371
1576518603.562874,36417.500,5841,2,PI,1,100,174380
1576518603.602705,36451.000,5841,2,PI,1,100,174377
1576518603.646301,36487.667,5859,3,PI,1,100,174388
1576518603.689897,36524.333,5859,3,PI,1,100,174381
1576518603.733493,36561.000,5859,3,PI,1,100,174381
1576518603.775900,36596.667,5877,3,PI,1,100,174376
1576518603.818307,36632.333,5877,3,PI,1,100,174391
1576518603.860714,36668.000,5877,3,PI,1,100,174425
1576518603.898761,36700.000,5895,3,PI,1,100,174420
1576518603.936809,36732.000,5895,3,PI,1,100,174488
1576518603.974856,36764.000,5895,3,PI,1,100,174507
1576518604.015281,36798.000,5914,3,PI,1,100,174563
1576518604.055707,36832.000,5914,3,PI,1,100,174601
1576518604.096132,36866.000,5914,3,PI,1,100,174552
1576518604.136954,36900.333,5931,3,PI,1,100,174431
1576518604.177776,36934.667,5931,3,PI,1,100,174299
1576518604.218597,36969.000,5931,3,PI,1,100,174257
1576518604.254861,36999.500,5949,4,PI,1,100,174293
1576518604.291125,37030.000,5949,4,PI,1,100,174344
1576518604.327389,37060.500,5949,4,PI,1,100,174367
1576518604.363653,37091.000,5949,4,PI,1,100,174353
1576518604.402493,37123.667,5967,3,PI,1,100,174376
1576518604.441333,37156.333,5967,3,PI,1,100,174381
1576518604.480173,37189.000,5967,3,PI,1,100,174371
1576518604.519410,37222.000,5985,3,PI,1,100,174387
1576518604.558646,37255.000,5985,3,PI,1,100,174447
1576518604.597883,37288.000,5985,3,PI,1,100,174567
1576518604.639497,37323.000,6001,3,PI,1,100,174679
1576518604.681111,37358.000,6001,3,PI,1,100,174746
1576518604.722726,37393.000,6001,3,PI,1,100,174822
1576518604.763746,37427.500,6019,2,PI,1,100,175023
1576518604.804765,37462.000,6019,2,PI,1,100,175105
1576518604.844596,37495.500,6037,4,PI,1,100,174945
1576518604.884427,37529.000,6037,4,PI,1,100,174909
1576518604.924258,37562.500,6037,4,PI,1,100,174935
1576518604.964089,37596.000,6037,4,PI,1,100,174963
1576518605.002533,37628.333,6055,3,PI,1,100,175014
1576518605.040977,37660.667,6055,3,PI,1,100,175076
1576518605.079420,37693.000,6055,3,PI,1,100,175183
1576518605.118260,37725.667,6074,3,PI,1,100,175271
1576518605.157100,37758.333,6074,3,PI,1,100,175408
1576518605.195940,37791.000,6074,3,PI,1,100,175592
1576518605.236960,37825.500,6092,2,PI,1,100,175748
1576518605.277980,37860.000,6092,2,PI,1,100,175892
1576518605.322765,37897.667,6110,3,PI,1,100,176028
1576518605.367550,37935.333,6110,3,PI,1,100,176140
1576518605.412335,37973.000,6110,3,PI,1,100,176236
1576518605.453553,38007.667,6127,3,PI,1,100,176338
1576518605.494771,38042.333,6127,3,PI,1,100,176406
1576518605.535989,38077.000,6127,3,PI,1,100,176330
1576518605.573640,38108.667,6145,3,PI,1,100,176124
1576518605.611291,38140.333,6145,3,PI,1,100,175693
1576518605.648942,38172.000,6145,3,PI,1,100,174714
1576518605.687584,38204.500,6163,4,PI,1,100,174975
1576518605.726226,38237.000,6163,4,PI,1,100,174889
1576518605.764868,38269.500,6163,4,PI,1,100,175038
1576518605.803510,38302.000,6163,4,PI,1,100,175215
1576518605.843935,38336.000,6181,3,PI,1,100,175265
1576518605.884361,38370.000,6181,3,PI,1,100,175303
1576518605.924786,38404.000,6181,3,PI,1,100,175332
1576518605.966401,38439.000,6197,2,PI,1,100,175261
1576518606.008015,38474.000,6197,2,PI,1,100,174896
1576518606.050026,38509.333,6216,3,PI,1,100,174042
1576518606.092036,38544.667,6216,3,PI,1,100,174282
1576518606.134047,38580.000,6216,3,PI,1,100,174220
1576518606.171857,38611.800,6237,5,PI,1,100,174297
1576518606.209666,38643.600,6237,5,PI,1,100,174414
1576518606.247476,38675.400,6237,5,PI,1,100,174486
1576518606.285285,38707.200,6237,5,PI,1,100,174450
1576518606.323095,38739.000,6237,5,PI,1,100,174352
1576518606.363124,38772.667,6257,3,PI,1,100,173954
1576518606.403153,38806.333,6257,3,PI,1,100,173310
1576518606.443182,38840.000,6257,3,PI,1,100,174187
1576518606.484004,38874.333,6274,3,PI,1,100,174106
1576518606.524826,38908.667,6274,3,PI,1,100,174086
1576518606.565647,38943.000,6274,3,PI,1,100,174094
1576518606.607262,38978.000,6291,3,PI,1,100,174112
1576518606.648876,39013.000,6291,3,PI,1,100,174277
1576518606.690490,39048.000,6291,3,PI,1,100,174600
1576518606.729727,39081.000,6309,3,PI,1,100,174909
1576518606.768963,39114.000,6309,3,PI,1,100,175123
1576518606.808200,39147.000,6309,3,PI,1,100,175436
1576518606.845454,39178.333,6327,3,PI,1,100,175675
1576518606.882709,39209.667,6327,3,PI,1,100,175660
1576518606.919964,39241.000,6327,3,PI,1,100,175393
1576518606.958804,39273.667,6346,3,PI,1,100,174989
1576518606.997644,39306.333,6346,3,PI,1,100,174686
1576518607.036484,39339.000,6346,3,PI,1,100,174444
1576518607.077306,39373.333,6364,3,PI,1,100,174365
1576518607.118128,39407.667,6364,3,PI,1,100,174329
1576518607.158949,39442.000,6364,3,PI,1,100,174203
1576518607.200167,39476.667,6382,3,PI,1,100,174193
1576518607.241385,39511.333,6382,3,PI,1,100,174172
1576518607.282604,39546.000,6382,3,PI,1,100,174140
1576518607.323029,39580.000,6400,3,PI,1,100,174125
1576518607.363454,39614.000,6400,3,PI,1,100,174094
1576518607.403880,39648.000,6400,3,PI,1,100,174095
1576518607.441927,39680.000,6417,4,PI,1,100,174096
1576518607.479975,39712.000,6417,4,PI,1,100,174061
1576518607.518022,39744.000,6417,4,PI,1,100,174063
1576518607.556069,39776.000,6417,4,PI,1,100,174033
1576518607.594513,39808.333,6435,3,PI,1,100,173877
1576518607.632957,39840.667,6435,3,PI,1,100,173773
1576518607.671401,39873.000,6435,3,PI,1,100,173737
1576518607.711826,39907.000,6453,3,PI,1,100,173694
1576518607.752251,39941.000,6453,3,PI,1,100,173657
1576518607.792677,39975.000,6453,3,PI,1,100,173643
1576518607.830724,40007.000,6471,3,PI,1,100,173629
1576518607.868772,40039.000,6471,3,PI,1,100,173589
1576518607.906819,40071.000,6471,3,PI,1,100,173541
1576518607.948830,40106.333,6487,3,PI,1,100,173595
1576518607.990840,40141.667,6487,3,PI,1,100,173643
1576518608.032851,40177.000,6487,3,PI,1,100,173660
1576518608.068917,40207.333,6506,3,PI,1,100,173694
1576518608.104983,40237.667,6506,3,PI,1,100,173720
1576518608.141048,40268.000,6506,3,PI,1,100,173744
1576518608.180681,40301.333,6524,3,PI,1,100,173752
1576518608.220314,40334.667,6524,3,PI,1,100,173682
1576518608.259947,40368.000,6524,3,PI,1,100,173523
1576518608.299579,40401.333,6542,3,PI,1,100,173434
1576518608.339212,40434.667,6542,3,PI,1,100,173389
1576518608.378845,40468.000,6542,3,PI,1,100,173367
1576518608.420063,40502.667,6560,3,PI,1,100,173337
1576518608.461281,40537.333,6560,3,PI,1,100,173337
1576518608.502499,40572.000,6560,3,PI,1,100,173303
1576518608.544113,40607.000,6578,3,PI,1,100,173319
1576518608.585727,40642.000,6578,3,PI,1,100,173252
1576518608.627342,40677.000,6578,3,PI,1,100,173319
1576518608.664993,40708.667,6596,3,PI,1,100,173408
1576518608.702644,40740.333,6596,3,PI,1,100,173412
1576518608.740295,40772.000,6596,3,PI,1,100,173409
1576518608.779928,40805.333,6613,3,PI,1,100,173446
1576518608.819561,40838.667,6613,3,PI,1,100,173558
1576518608.859193,40872.000,6613,3,PI,1,100,173558
1576518608.898826,40905.333,6631,3,PI,1,100,173352
1576518608.938459,40938.667,6631,3,PI,1,100,173191
1576518608.978091,40972.000,6631,3,PI,1,100,173147
1576518609.019706,41007.000,6650,3,PI,1,100,173134
1576518609.061320,41042.000,6650,3,PI,1,100,173100
1576518609.102935,41077.000,6650,3,PI,1,100,173090
1576518609.144153,41111.667,6666,3,PI,1,100,173099
1576518609.185371,41146.333,6666,3,PI,1,100,173104
1576518609.226589,41181.000,6666,3,PI,1,100,173128
1576518609.264636,41213.000,6684,3,PI,1,100,173145
1576518609.302684,41245.000,6684,3,PI,1,100,173193
1576518609.340731,41277.000,6684,3,PI,1,100,173206
1576518609.382742,41312.333,6702,3,PI,1,100,173256
1576518609.424752,41347.667,6702,3,PI,1,100,173320
1576518609.466763,41383.000,6702,3,PI,1,100,173357
1576518609.506000,41416.000,6720,3,PI,1,100,173399
1576518609.545236,41449.000,6720,3,PI,1,100,173389
1576518609.584472,41482.000,6720,3,PI,1,100,173187
1576518609.625294,41516.333,6738,3,PI,1,100,173114
1576518609.666116,41550.667,6738,3,PI,1,100,173113
1576518609.706937,41585.000,6738,3,PI,1,100,173090
1576518609.748948,41620.333,6756,3,PI,1,100,173021
1576518609.790959,41655.667,6756,3,PI,1,100,173129
1576518609.832969,41691.000,6756,3,PI,1,100,173209
1576518609.871413,41723.333,6774,3,PI,1,100,173177
1576518609.909857,41755.667,6774,3,PI,1,100,173160
1576518609.948301,41788.000,6774,3,PI,1,100,173218
1576518609.986744,41820.333,6792,3,PI,1,100,173242
1576518610.025188,41852.667,6792,3,PI,1,100,173300
1576518610.063632,41885.000,6792,3,PI,1,100,173366
1576518610.103265,41918.333,6810,3,PI,1,100,173415
1576518610.142897,41951.667,6810,3,PI,1,100,173469
1576518610.182530,41985.000,6810,3,PI,1,100,173492
1576518610.223748,42019.667,6828,3,PI,1,100,173424
1576518610.264966,42054.333,6828,3,PI,1,100,173268
1576518610.306184,42089.000,6828,3,PI,1,100,173221
1576518610.347799,42124.000,6844,3,PI,1,100,173232
1576518610.389413,42159.000,6844,3,PI,1,100,173254
1576518610.431027,42194.000,6844,3,PI,1,100,173255
1576518610.470660,42227.333,6862,3,PI,1,100,173265
1576518610.510293,42260.667,6862,3,PI,1,100,173253
1576518610.549926,42294.000,6862,3,PI,1,100,173236
1576518610.587973,42326.000,6880,3,PI,1,100,173231
1576518610.626020,42358.000,6880,3,PI,1,100,173341
1576518610.664068,42390.000,6880,3,PI,1,100,173384
1576518610.702512,42422.333,6898,3,PI,1,100,173359
1576518610.740955,42454.667,6898,3,PI,1,100,173384
1576518610.779399,42487.000,6898,3,PI,1,100,173510
1576518610.820221,42521.333,6916,3,PI,1,100,173476
1576518610.861042,42555.667,6916,3,PI,1,100,173307
1576518610.901864,42590.000,6916,3,PI,1,100,173174
1576518610.943082,42624.667,6934,3,PI,1,100,173170
1576518610.984300,42659.333,6934,3,PI,1,100,173160
1576518611.025518,42694.000,6934,3,PI,1,100,173133
1576518611.065151,42727.333,6953,3,PI,1,100,173180
1576518611.104784,42760.667,6953,3,PI,1,100,173184
1576518611.144416,42794.000,6953,3,PI,1,100,173188
1576518611.182860,42826.333,6971,3,PI,1,100,173190
1576518611.221304,42858.667,6971,3,PI,1,100,173242
1576518611.259748,42891.000,6971,3,PI,1,100,173280
1576518611.298984,42924.000,6988,3,PI,1,100,173296
1576518611.338220,42957.000,6988,3,PI,1,100,173318
1576518611.377457,42990.000,6988,3,PI,1,100,173379
1576518611.415504,43022.000,7006,3,PI,1,100,173426
1576518611.453552,43054.000,7006,3,PI,1,100,173407
1576518611.491599,43086.000,7006,3,PI,1,100,173241
1576518611.534799,43122.333,7024,3,PI,1,100,173131
1576518611.577998,43158.667,7024,3,PI,1,100,173116
1576518611.621198,43195.000,7024,3,PI,1,100,173080
1576518611.657264,43225.333,7040,3,PI,1,100,173060
1576518611.693330,43255.667,7040,3,PI,1,100,173050
1576518611.729395,43286.000,7040,3,PI,1,100,173084
1576518611.771010,43321.000,7058,3,PI,1,100,173066
1576518611.812624,43356.000,7058,3,PI,1,100,173060
1576518611.854239,43391.000,7058,3,PI,1,100,173103
1576518611.898627,43428.333,7076,3,PI,1,100,173153
1576518611.943016,43465.667,7076,3,PI,1,100,173184
1576518611.987405,43503.000,7076,3,PI,1,100,173234
1576518612.025848,43535.333,7095,3,PI,1,100,173290
1576518612.064292,43567.667,7095,3,PI,1,100,173326
1576518612.102736,43600.000,7095,3,PI,1,100,173353
1576518612.143954,43634.667,7113,3,PI,1,100,173361
1576518612.185172,43669.333,7113,3,PI,1,100,173266
1576518612.226390,43704.000,7113,3,PI,1,100,173120
1576518612.266815,43738.000,7134,5,PI,1,100,173066
1576518612.307241,43772.000,7134,5,PI,1,100,173046
1576518612.347666,43806.000,7134,5,PI,1,100,173025
1576518612.388091,43840.000,7134,5,PI,1,100,172994
1576518612.428517,43874.000,7134,5,PI,1,100,173017
1576518612.466564,43906.000,7152,3,PI,1,100,173012
1576518612.504611,43938.000,7152,3,PI,1,100,173002
1576518612.542659,43970.000,7152,3,PI,1,100,173004
1576518612.582688,44003.667,7172,3,PI,1,100,173017
1576518612.622717,44037.333,7172,3,PI,1,100,173113
1576518612.662746,44071.000,7172,3,PI,1,100,173157
1576518612.703171,44105.000,7190,3,PI,1,100,173125
1576518612.743597,44139.000,7190,3,PI,1,100,173209
1576518612.784022,44173.000,7190,3,PI,1,100,173300
1576518612.825637,44208.000,7208,3,PI,1,100,173344
1576518612.867251,44243.000,7208,3,PI,1,100,173345
1576518612.908865,44278.000,7208,3,PI,1,100,173241
1576518612.949291,44312.000,7226,3,PI,1,100,173113
1576518612.989716,44346.000,7226,3,PI,1,100,173080
1576518613.030142,44380.000,7226,3,PI,1,100,173061
1576518613.067793,44411.667,7244,3,PI,1,100,173053
1576518613.105444,44443.333,7244,3,PI,1,100,173073
1576518613.143095,44475.000,7244,3,PI,1,100,173088
1576518613.182331,44508.000,7262,3,PI,1,100,173136
1576518613.221568,44541.000,7262,3,PI,1,100,173146
1576518613.260804,44574.000,7262,3,PI,1,100,173175
1576518613.305193,44611.333,7280,3,PI,1,100,173219
1576518613.349581,44648.667,7280,3,PI,1,100,173249
1576518613.393970,44686.000,7280,3,PI,1,100,173304
1576518613.434990,44720.500,7296,2,PI,1,100,173357
1576518613.476010,44755.000,7296,2,PI,1,100,173378
1576518613.517624,44790.000,7314,3,PI,1,100,173415
1576518613.559238,44825.000,7314,3,PI,1,100,173467
1576518613.600853,44860.000,7314,3,PI,1,100,173543
1576518613.638306,44891.500,7332,4,PI,1,100,173538
1576518613.675759,44923.000,7332,4,PI,1,100,173381
1576518613.713212,44954.500,7332,4,PI,1,100,173245
1576518613.750664,44986.000,7332,4,PI,1,100,173313
1576518613.790297,45019.333,7350,3,PI,1,100,173392
1576518613.829930,45052.667,7350,3,PI,1,100,173386
1576518613.869563,45086.000,7350,3,PI,1,100,173368
1576518613.909988,45120.000,7368,3,PI,1,100,173368
1576518613.950413,45154.000,7368,3,PI,1,100,173429
1576518613.990839,45188.000,7368,3,PI,1,100,173407
1576518614.032057,45222.667,7387,3,PI,1,100,173433
1576518614.073275,45257.333,7387,3,PI,1,100,173496
1576518614.114493,45292.000,7387,3,PI,1,100,173521
1576518614.156107,45327.000,7405,2,PI,1,100,173574
1576518614.197722,45362.000,7405,2,PI,1,100,173619
1576518614.236364,45394.500,7422,4,PI,1,100,173688
1576518614.275006,45427.000,7422,4,PI,1,100,173741
1576518614.313648,45459.500,7422,4,PI,1,100,173732
1576518614.352289,45492.000,7422,4,PI,1,100,173626
1576518614.391129,45524.667,7440,3,PI,1,100,173526
1576518614.429970,45557.333,7440,3,PI,1,100,173517
1576518614.468810,45590.000,7440,3,PI,1,100,173530
1576518614.508442,45623.333,7458,3,PI,1,100,173534
1576518614.548075,45656.667,7458,3,PI,1,100,173533
1576518614.587708,45690.000,7458,3,PI,1,100,173583
1576518614.628926,45724.667,7476,3,PI,1,100,173629
1576518614.670144,45759.333,7476,3,PI,1,100,173619
1576518614.711362,45794.000,7476,3,PI,1,100,173594
1576518614.753571,45829.500,7492,2,PI,1,100,173673
1576518614.795779,45865.000,7492,2,PI,1,100,173749
1576518614.834421,45897.500,7510,4,PI,1,100,173768
1576518614.873063,45930.000,7510,4,PI,1,100,173787
1576518614.911705,45962.500,7510,4,PI,1,100,173825
1576518614.950347,45995.000,7510,4,PI,1,100,173894
1576518614.989187,46027.667,7529,3,PI,1,100,173856
1576518615.028027,46060.333,7529,3,PI,1,100,173720
1576518615.066867,46093.000,7529,3,PI,1,100,173660
1576518615.106104,46126.000,7547,3,PI,1,100,173644
1576518615.145340,46159.000,7547,3,PI,1,100,173674
1576518615.184577,46192.000,7547,3,PI,1,100,173676
1576518615.224606,46225.667,7565,3,PI,1,100,173704
1576518615.264635,46259.333,7565,3,PI,1,100,173732
1576518615.304664,46293.000,7565,3,PI,1,100,173722
1576518615.345089,46327.000,7583,3,PI,1,100,173732
1576518615.385514,46361.000,7583,3,PI,1,100,173737
1576518615.425940,46395.000,7583,3,PI,1,100,173761
1576518615.467951,46430.333,7601,3,PI,1,100,173797
1576518615.509961,46465.667,7601,3,PI,1,100,173853
1576518615.551972,46501.000,7601,3,PI,1,100,173890
1576518615.592992,46535.500,7618,2,PI,1,100,173907
1576518615.634012,46570.000,7618,2,PI,1,100,173952
1576518615.675230,46604.667,7636,3,PI,1,100,173982
1576518615.716448,46639.333,7636,3,PI,1,100,173924
1576518615.757666,46674.000,7636,3,PI,1,100,173782
1576518615.799677,46709.333,7652,3,PI,1,100,173710
1576518615.841687,46744.667,7652,3,PI,1,100,173729
1576518615.883698,46780.000,7652,3,PI,1,100,173731
1576518615.925709,46815.333,7670,3,PI,1,100,173725
1576518615.967719,46850.667,7670,3,PI,1,100,173723
1576518616.009730,46886.000,7670,3,PI,1,100,173736
1576518616.046291,46916.750,7689,4,PI,1,100,173749
1576518616.082852,46947.500,7689,4,PI,1,100,173740
1576518616.119414,46978.250,7689,4,PI,1,100,173767
1576518616.155975,47009.000,7689,4,PI,1,100,173785
1576518616.194418,47041.333,7707,3,PI,1,100,173844
1576518616.232862,47073.667,7707,3,PI,1,100,173879
1576518616.271306,47106.000,7707,3,PI,1,100,173922
1576518616.309750,47138.333,7725,3,PI,1,100,173956
1576518616.348193,47170.667,7725,3,PI,1,100,173988
1576518616.386637,47203.000,7725,3,PI,1,100,174018
1576518616.427855,47237.667,7743,3,PI,1,100,173948
1576518616.469073,47272.333,7743,3,PI,1,100,173799
1576518616.510291,47307.000,7743,3,PI,1,100,173722
1576518616.551509,47341.667,7761,3,PI,1,100,173709
1576518616.592727,47376.333,7761,3,PI,1,100,173703
1576518616.633945,47411.000,7761,3,PI,1,100,173728
1576518616.674767,47445.333,7778,3,PI,1,100,173736
1576518616.715589,47479.667,7778,3,PI,1,100,173680
1576518616.756411,47514.000,7778,3,PI,1,100,173724
1576518616.794458,47546.000,7796,3,PI,1,100,173782
1576518616.832505,47578.000,7796,3,PI,1,100,173787
1576518616.870553,47610.000,7796,3,PI,1,100,173768
1576518616.908997,47642.333,7814,3,PI,1,100,173793
1576518616.947440,47674.667,7814,3,PI,1,100,173829
1576518616.985884,47707.000,7814,3,PI,1,100,173864
1576518617.026309,47741.000,7831,3,PI,1,100,173887
1576518617.066735,47775.000,7831,3,PI,1,100,173943
1576518617.107160,47809.000,7831,3,PI,1,100,173961
1576518617.147982,47843.333,7849,3,PI,1,100,173834
1576518617.188804,47877.667,7849,3,PI,1,100,173721
1576518617.229625,47912.000,7849,3,PI,1,100,173716
1576518617.271240,47947.000,7867,2,PI,1,100,173719
1576518617.312854,47982.000,7867,2,PI,1,100,173699
1576518617.355261,48017.667,7885,3,PI,1,100,173675
1576518617.397668,48053.333,7885,3,PI,1,100,173701
1576518617.440075,48089.000,7885,3,PI,1,100,173705
1576518617.478717,48121.500,7903,4,PI,1,100,173700
1576518617.517359,48154.000,7903,4,PI,1,100,173698
1576518617.556001,48186.500,7903,4,PI,1,100,173699
1576518617.594643,48219.000,7903,4,PI,1,100,173685
1576518617.635068,48253.000,7921,3,PI,1,100,173817
1576518617.675493,48287.000,7921,3,PI,1,100,173869
1576518617.715919,48321.000,7921,3,PI,1,100,173831
1576518617.758128,48356.500,7939,2,PI,1,100,173867
1576518617.800337,48392.000,7939,2,PI,1,100,173996
1576518617.841555,48426.667,7956,3,PI,1,100,173950
1576518617.882773,48461.333,7956,3,PI,1,100,173750
1576518617.923991,48496.000,7956,3,PI,1,100,173657
1576518617.963624,48529.333,7974,3,PI,1,100,173697
1576518618.003256,48562.667,7974,3,PI,1,100,173691
1576518618.042889,48596.000,7974,3,PI,1,100,173660
1576518618.080639,48627.750,7993,4,PI,1,100,173677
1576518618.118389,48659.500,7993,4,PI,1,100,173692
1576518618.156139,48691.250,7993,4,PI,1,100,173712
1576518618.193890,48723.000,7993,4,PI,1,100,173714
1576518618.234315,48757.000,8011,3,PI,1,100,173730
1576518618.274740,48791.000,8011,3,PI,1,100,173772
1576518618.315166,48825.000,8011,3,PI,1,100,173806
1576518618.357077,48860.250,8030,4,PI,1,100,173864
1576518618.398989,48895.500,8030,4,PI,1,100,173908
1576518618.440901,48930.750,8030,4,PI,1,100,173944
1576518618.482812,48966.000,8030,4,PI,1,100,173975
1576518618.524030,49000.667,8050,3,PI,1,100,173924
1576518618.565248,49035.333,8050,3,PI,1,100,173796
1576518618.606466,49070.000,8050,3,PI,1,100,173752
1576518618.643325,49101.000,8068,3,PI,1,100,173763
1576518618.680183,49132.000,8068,3,PI,1,100,173745
1576518618.717041,49163.000,8068,3,PI,1,100,173695
1576518618.755485,49195.333,8086,3,PI,1,100,173837
1576518618.793929,49227.667,8086,3,PI,1,100,173877
1576518618.832373,49260.000,8086,3,PI,1,100,173823
1576518618.873194,49294.333,8102,3,PI,1,100,173833
1576518618.914016,49328.667,8102,3,PI,1,100,173849
1576518618.954838,49363.000,8102,3,PI,1,100,173918
1576518618.997245,49398.667,8121,3,PI,1,100,173926
1576518619.039652,49434.333,8121,3,PI,1,100,173974
1576518619.082059,49470.000,8121,3,PI,1,100,174005
1576518619.119710,49501.667,8139,3,PI,1,100,174033
1576518619.157361,49533.333,8139,3,PI,1,100,174077
1576518619.195012,49565.000,8139,3,PI,1,100,173975
1576518619.236230,49599.667,8157,3,PI,1,100,173843
1576518619.277448,49634.333,8157,3,PI,1,100,173809
1576518619.318666,49669.000,8157,3,PI,1,100,173814
1576518619.363055,49706.333,8175,3,PI,1,100,173843
1576518619.407444,49743.667,8175,3,PI,1,100,173841
1576518619.451832,49781.000,8175,3,PI,1,100,173829
1576518619.488691,49812.000,8193,3,PI,1,100,173871
1576518619.525549,49843.000,8193,3,PI,1,100,173896
1576518619.562408,49874.000,8193,3,PI,1,100,173889
1576518619.603229,49908.333,8210,3,PI,1,100,173898
1576518619.644051,49942.667,8210,3,PI,1,100,173946
1576518619.684873,49977.000,8210,3,PI,1,100,173985
1576518619.722524,50008.667,8228,3,PI,1,100,174026
1576518619.760175,50040.333,8228,3,PI,1,100,174046
1576518619.797826,50072.000,8228,3,PI,1,100,174018
1576518619.837062,50105.000,8246,3,PI,1,100,173909
1576518619.876299,50138.000,8246,3,PI,1,100,173838
1576518619.915535,50171.000,8246,3,PI,1,100,173828
1576518619.959527,50208.000,8264,3,PI,1,100,173827
1576518620.003520,50245.000,8264,3,PI,1,100,173829
1576518620.047512,50282.000,8264,3,PI,1,100,173875
1576518620.085560,50314.000,8281,3,PI,1,100,173856
1576518620.123607,50346.000,8281,3,PI,1,100,173836
1576518620.161654,50378.000,8281,3,PI,1,100,173843
1576518620.202873,50412.667,8299,3,PI,1,100,173872
1576518620.244091,50447.333,8299,3,PI,1,100,173913
1576518620.285309,50482.000,8299,3,PI,1,100,173946
1576518620.326527,50516.667,8317,3,PI,1,100,173980
1576518620.367745,50551.333,8317,3,PI,1,100,174007
1576518620.408963,50586.000,8317,3,PI,1,100,173969
1576518620.449388,50620.000,8335,3,PI,1,100,173834
1576518620.489814,50654.000,8335,3,PI,1,100,173734
1576518620.530239,50688.000,8335,3,PI,1,100,173721
1576518620.568683,50720.333,8353,3,PI,1,100,173725
1576518620.607126,50752.667,8353,3,PI,1,100,173709
1576518620.645570,50785.000,8353,3,PI,1,100,173764
1576518620.684807,50818.000,8371,3,PI,1,100,173787
1576518620.724043,50851.000,8371,3,PI,1,100,173754
1576518620.763279,50884.000,8371,3,PI,1,100,173684
1576518620.804101,50918.333,8388,3,PI,1,100,173684
1576518620.844923,50952.667,8388,3,PI,1,100,173789
1576518620.885744,50987.000,8388,3,PI,1,100,173834
1576518620.926170,51021.000,8406,3,PI,1,100,173821
1576518620.966595,51055.000,8406,3,PI,1,100,173830
1576518621.007020,51089.000,8406,3,PI,1,100,173749
1576518621.047842,51123.333,8425,3,PI,1,100,173609
1576518621.088664,51157.667,8425,3,PI,1,100,173560
1576518621.129486,51192.000,8425,3,PI,1,100,173577
1576518621.167137,51223.667,8441,3,PI,1,100,173578
1576518621.204788,51255.333,8441,3,PI,1,100,173577
1576518621.242439,51287.000,8441,3,PI,1,100,173599
1576518621.281279,51319.667,8459,3,PI,1,100,173581
1576518621.320119,51352.333,8459,3,PI,1,100,173607
1576518621.358959,51385.000,8459,3,PI,1,100,173604
1576518621.403744,51422.667,8477,3,PI,1,100,173631
1576518621.448529,51460.333,8477,3,PI,1,100,173680
1576518621.493314,51498.000,8477,3,PI,1,100,173699
1576518621.534136,51532.333,8495,3,PI,1,100,173714
1576518621.574958,51566.667,8495,3,PI,1,100,173721
1576518621.615779,51601.000,8495,3,PI,1,100,173771
1576518621.657394,51636.000,8513,3,PI,1,100,173750
1576518621.699008,51671.000,8513,3,PI,1,100,173573
1576518621.740622,51706.000,8513,3,PI,1,100,173502
1576518621.778273,51737.667,8531,3,PI,1,100,173450
1576518621.815924,51769.333,8531,3,PI,1,100,173375
1576518621.853576,51801.000,8531,3,PI,1,100,173335
1576518621.892019,51833.333,8549,3,PI,1,100,173380
1576518621.930463,51865.667,8549,3,PI,1,100,173433
1576518621.968907,51898.000,8549,3,PI,1,100,173368
1576518622.010125,51932.667,8568,3,PI,1,100,173367
1576518622.051343,51967.333,8568,3,PI,1,100,173348
1576518622.092561,52002.000,8568,3,PI,1,100,173370
1576518622.133383,52036.333,8585,3,PI,1,100,173415
1576518622.174204,52070.667,8585,3,PI,1,100,173465
1576518622.215026,52105.000,8585,3,PI,1,100,173487
1576518622.253470,52137.333,8603,3,PI,1,100,173517
1576518622.291914,52169.667,8603,3,PI,1,100,173543
1576518622.330357,52202.000,8603,3,PI,1,100,173599
1576518622.368008,52233.667,8619,3,PI,1,100,173662
1576518622.405659,52265.333,8619,3,PI,1,100,173715
1576518622.443310,52297.000,8619,3,PI,1,100,173619
1576518622.483340,52330.667,8637,3,PI,1,100,173457
1576518622.523369,52364.333,8637,3,PI,1,100,173378
1576518622.563398,52398.000,8637,3,PI,1,100,173353
1576518622.603823,52432.000,8655,3,PI,1,100,173325
1576518622.644248,52466.000,8655,3,PI,1,100,173280
1576518622.684674,52500.000,8655,3,PI,1,100,173245
1576518622.725496,52534.333,8673,3,PI,1,100,173240
1576518622.766317,52568.667,8673,3,PI,1,100,173314
1576518622.807139,52603.000,8673,3,PI,1,100,173357
1576518622.847961,52637.333,8691,3,PI,1,100,173306
1576518622.888783,52671.667,8691,3,PI,1,100,173285
1576518622.929604,52706.000,8691,3,PI,1,100,173414
1576518622.969633,52739.667,8709,3,PI,1,100,173485
1576518623.009662,52773.333,8709,3,PI,1,100,173487
1576518623.049691,52807.000,8709,3,PI,1,100,173513
1576518623.086946,52838.333,8728,3,PI,1,100,173551
1576518623.124201,52869.667,8728,3,PI,1,100,173598
1576518623.161456,52901.000,8728,3,PI,1,100,173666
1576518623.202674,52935.667,8746,3,PI,1,100,173645
1576518623.243892,52970.333,8746,3,PI,1,100,173679
1576518623.285110,53005.000,8746,3,PI,1,100,173730
1576518623.322761,53036.667,8763,3,PI,1,100,173572
1576518623.360412,53068.333,8763,3,PI,1,100,173412
1576518623.398063,53100.000,8763,3,PI,1,100,173382
1576518623.435318,53131.333,8781,3,PI,1,100,173442
1576518623.472573,53162.667,8781,3,PI,1,100,173444
1576518623.509827,53194.000,8781,3,PI,1,100,173394
1576518623.548667,53226.667,8799,3,PI,1,100,173396
1576518623.587507,53259.333,8799,3,PI,1,100,173465
1576518623.626348,53292.000,8799,3,PI,1,100,173478
1576518623.667169,53326.333,8815,3,PI,1,100,173493
1576518623.707991,53360.667,8815,3,PI,1,100,173508
1576518623.748813,53395.000,8815,3,PI,1,100,173539
1576518623.790031,53429.667,8833,3,PI,1,100,173575
1576518623.831249,53464.333,8833,3,PI,1,100,173632
1576518623.872467,53499.000,8833,3,PI,1,100,173675
1576518623.914477,53534.333,8851,3,PI,1,100,173714
1576518623.956488,53569.667,8851,3,PI,1,100,173743
1576518623.998499,53605.000,8851,3,PI,1,100,173773
1576518624.036150,53636.667,8870,3,PI,1,100,173842
1576518624.073801,53668.333,8870,3,PI,1,100,173908
1576518624.111452,53700.000,8870,3,PI,1,100,173881
1576518624.153859,53735.667,8888,3,PI,1,100,173726
1576518624.196266,53771.333,8888,3,PI,1,100,173682
1576518624.238673,53807.000,8888,3,PI,1,100,173711
1576518624.275829,53838.250,8906,4,PI,1,100,173705
1576518624.312984,53869.500,8906,4,PI,1,100,173690
1576518624.350140,53900.750,8906,4,PI,1,100,173726
1576518624.387296,53932.000,8906,4,PI,1,100,173741
1576518624.427127,53965.500,8925,4,PI,1,100,173780
1576518624.466958,53999.000,8925,4,PI,1,100,173797
1576518624.506788,54032.500,8925,4,PI,1,100,173813
1576518624.546619,54066.000,8925,4,PI,1,100,173832
1576518624.587441,54100.333,8947,3,PI,1,100,173891
1576518624.628263,54134.667,8947,3,PI,1,100,173937
1576518624.669085,54169.000,8947,3,PI,1,100,173957
1576518624.710699,54204.000,8965,3,PI,1,100,173986
1576518624.752313,54239.000,8965,3,PI,1,100,174029
1576518624.793928,54274.000,8965,3,PI,1,100,174037
1576518624.832371,54306.333,8983,3,PI,1,100,174136
1576518624.870815,54338.667,8983,3,PI,1,100,174199
1576518624.909259,54371.000,8983,3,PI,1,100,174180
1576518624.946910,54402.667,9001,3,PI,1,100,174179
1576518624.984561,54434.333,9001,3,PI,1,100,174138
1576518625.022212,54466.000,9001,3,PI,1,100,174086
1576518625.061845,54499.333,9020,3,PI,1,100,174071
1576518625.101478,54532.667,9020,3,PI,1,100,174094
1576518625.141110,54566.000,9020,3,PI,1,100,174109
1576518625.181536,54600.000,9038,3,PI,1,100,174122
1576518625.221961,54634.000,9038,3,PI,1,100,174161
1576518625.262387,54668.000,9038,3,PI,1,100,174189
1576518625.303208,54702.333,9056,3,PI,1,100,174191
1576518625.344030,54736.667,9056,3,PI,1,100,174213
1576518625.384852,54771.000,9056,3,PI,1,100,174244
1576518625.424881,54804.667,9073,3,PI,1,100,174332
1576518625.464910,54838.333,9073,3,PI,1,100,174372
1576518625.504939,54872.000,9073,3,PI,1,100,174392
1576518625.546553,54907.000,9091,3,PI,1,100,174397
1576518625.588167,54942.000,9091,3,PI,1,100,174452
1576518625.629782,54977.000,9091,3,PI,1,100,174487
1576518625.669018,55010.000,9107,3,PI,1,100,174524
1576518625.708255,55043.000,9107,3,PI,1,100,174529
1576518625.747491,55076.000,9107,3,PI,1,100,174551
1576518625.789105,55111.000,9125,3,PI,1,100,174492
1576518625.830720,55146.000,9125,3,PI,1,100,174435
1576518625.872334,55181.000,9125,3,PI,1,100,174463
1576518625.913156,55215.333,9143,3,PI,1,100,174478
1576518625.953978,55249.667,9143,3,PI,1,100,174435
1576518625.994799,55284.000,9143,3,PI,1,100,174481
1576518626.032450,55315.667,9162,3,PI,1,100,174544
1576518626.070101,55347.333,9162,3,PI,1,100,174585
1576518626.107753,55379.000,9162,3,PI,1,100,174558
1576518626.145205,55410.500,9180,4,PI,1,100,174570
1576518626.182658,55442.000,9180,4,PI,1,100,174591
1576518626.220111,55473.500,9180,4,PI,1,100,174629
1576518626.257564,55505.000,9180,4,PI,1,100,174654
1576518626.297197,55538.333,9198,3,PI,1,100,174690
1576518626.336830,55571.667,9198,3,PI,1,100,174711
1576518626.376462,55605.000,9198,3,PI,1,100,174731
1576518626.418671,55640.500,9216,2,PI,1,100,174782
1576518626.460880,55676.000,9216,2,PI,1,100,174823
1576518626.504476,55712.667,9234,3,PI,1,100,174850
1576518626.548072,55749.333,9234,3,PI,1,100,174860
1576518626.591668,55786.000,9234,3,PI,1,100,174846
1576518626.632093,55820.000,9251,3,PI,1,100,174768
1576518626.672519,55854.000,9251,3,PI,1,100,174718
1576518626.712944,55888.000,9251,3,PI,1,100,174738
1576518626.750992,55920.000,9269,3,PI,1,100,174753
1576518626.789039,55952.000,9269,3,PI,1,100,174780
1576518626.827086,55984.000,9269,3,PI,1,100,174778
1576518626.866719,56017.333,9287,3,PI,1,100,174824
1576518626.906352,56050.667,9287,3,PI,1,100,174886
1576518626.945985,56084.000,9287,3,PI,1,100,174870
1576518626.987599,56119.000,9304,3,PI,1,100,174862
1576518627.029213,56154.000,9304,3,PI,1,100,174872
1576518627.070828,56189.000,9304,3,PI,1,100,174983
1576518627.110857,56222.667,9322,3,PI,1,100,175043
1576518627.150886,56256.333,9322,3,PI,1,100,174969
1576518627.190915,56290.000,9322,3,PI,1,100,174953
1576518627.228962,56322.000,9340,3,PI,1,100,175046
1576518627.267010,56354.000,9340,3,PI,1,100,175101
1576518627.305057,56386.000,9340,3,PI,1,100,175091
1576518627.344690,56419.333,9358,3,PI,1,100,175079
1576518627.384323,56452.667,9358,3,PI,1,100,175044
1576518627.423955,56486.000,9358,3,PI,1,100,174961
1576518627.464777,56520.333,9376,3,PI,1,100,174959
1576518627.505599,56554.667,9376,3,PI,1,100,174988
1576518627.546421,56589.000,9376,3,PI,1,100,175007
1576518627.587639,56623.667,9394,3,PI,1,100,175057
1576518627.628857,56658.333,9394,3,PI,1,100,175085
1576518627.670075,56693.000,9394,3,PI,1,100,175105
1576518627.710104,56726.667,9411,3,PI,1,100,175025
1576518627.750133,56760.333,9411,3,PI,1,100,175074
1576518627.790162,56794.000,9411,3,PI,1,100,175183
1576518627.828209,56826.000,9429,3,PI,1,100,175193
1576518627.866257,56858.000,9429,3,PI,1,100,175178
1576518627.904304,56890.000,9429,3,PI,1,100,175181
1576518627.943541,56923.000,9447,3,PI,1,100,175202
1576518627.982777,56956.000,9447,3,PI,1,100,175226
1576518628.022013,56989.000,9447,3,PI,1,100,175241
1576518628.063231,57023.667,9464,3,PI,1,100,175263
1576518628.104449,57058.333,9464,3,PI,1,100,175245
1576518628.145667,57093.000,9464,3,PI,1,100,175143
1576518628.186885,57127.667,9482,3,PI,1,100,175136
1576518628.228103,57162.333,9482,3,PI,1,100,175163
1576518628.269321,57197.000,9482,3,PI,1,100,175198
1576518628.314106,57234.667,9500,3,PI,1,100,175216
1576518628.358891,57272.333,9500,3,PI,1,100,175237
1576518628.403677,57310.000,9500,3,PI,1,100,175241
1576518628.441328,57341.667,9518,3,PI,1,100,175246
1576518628.478979,57373.333,9518,3,PI,1,100,175239
1576518628.516630,57405.000,9518,3,PI,1,100,175257
1576518628.555470,57437.667,9536,3,PI,1,100,175255
1576518628.594310,57470.333,9536,3,PI,1,100,175305
1576518628.633150,57503.000,9536,3,PI,1,100,175358
1576518628.674368,57537.667,9554,3,PI,1,100,175375
1576518628.715586,57572.333,9554,3,PI,1,100,175319
1576518628.756804,57607.000,9554,3,PI,1,100,175367
1576518628.797626,57641.333,9572,3,PI,1,100,175422
1576518628.838447,57675.667,9572,3,PI,1,100,175396
1576518628.879269,57710.000,9572,3,PI,1,100,175275
1576518628.920091,57744.333,9589,3,PI,1,100,175231
1576518628.960912,57778.667,9589,3,PI,1,100,175253
1576518629.001734,57813.000,9589,3,PI,1,100,175280
1576518629.039385,57844.667,9608,3,PI,1,100,175299
1576518629.077036,57876.333,9608,3,PI,1,100,175319
1576518629.114687,57908.000,9608,3,PI,1,100,175344
1576518629.153131,57940.333,9626,3,PI,1,100,175347
1576518629.191575,57972.667,9626,3,PI,1,100,175328
1576518629.230019,58005.000,9626,3,PI,1,100,175387
1576518629.271237,58039.667,9642,3,PI,1,100,175414
1576518629.312455,58074.333,9642,3,PI,1,100,175422
1576518629.353673,58109.000,9642,3,PI,1,100,175406
1576518629.395287,58144.000,9660,3,PI,1,100,175447
1576518629.436902,58179.000,9660,3,PI,1,100,175465
1576518629.478516,58214.000,9660,3,PI,1,100,175468
1576518629.519734,58248.667,9678,3,PI,1,100,175472
1576518629.560952,58283.333,9678,3,PI,1,100,175472
1576518629.602170,58318.000,9678,3,PI,1,100,175329
1576518629.640218,58350.000,9696,3,PI,1,100,175319
1576518629.678265,58382.000,9696,3,PI,1,100,175378
1576518629.716312,58414.000,9696,3,PI,1,100,175360
1576518629.754360,58446.000,9714,3,PI,1,100,175325
1576518629.792407,58478.000,9714,3,PI,1,100,175386
1576518629.830455,58510.000,9714,3,PI,1,100,175435
1576518629.870880,58544.000,9732,3,PI,1,100,175431
1576518629.911305,58578.000,9732,3,PI,1,100,175401
1576518629.951731,58612.000,9732,3,PI,1,100,175418
1576518629.992949,58646.667,9751,3,PI,1,100,175432
1576518630.034167,58681.333,9751,3,PI,1,100,175448
1576518630.075385,58716.000,9751,3,PI,1,100,175472
1576518630.116603,58750.667,9769,3,PI,1,100,175496
1576518630.157821,58785.333,9769,3,PI,1,100,175514
1576518630.199039,58820.000,9769,3,PI,1,100,175502
1576518630.237086,58852.000,9786,3,PI,1,100,175548
1576518630.275134,58884.000,9786,3,PI,1,100,175529
1576518630.313181,58916.000,9786,3,PI,1,100,175427
1576518630.351625,58948.333,9804,3,PI,1,100,175348
1576518630.390069,58980.667,9804,3,PI,1,100,175387
1576518630.428513,59013.000,9804,3,PI,1,100,175419
1576518630.469414,59047.400,9825,5,PI,1,100,175408
1576518630.510314,59081.800,9825,5,PI,1,100,175404
1576518630.551215,59116.200,9825,5,PI,1,100,175382
1576518630.592116,59150.600,9825,5,PI,1,100,175387
1576518630.633017,59185.000,9825,5,PI,1,100,175372
1576518630.673839,59219.333,9843,3,PI,1,100,175434
1576518630.714661,59253.667,9843,3,PI,1,100,175486
1576518630.755482,59288.000,9843,3,PI,1,100,175456
1576518630.797889,59323.667,9863,3,PI,1,100,175490
1576518630.840297,59359.333,9863,3,PI,1,100,175497
1576518630.882704,59395.000,9863,3,PI,1,100,175499
1576518630.919958,59426.333,9880,3,PI,1,100,175510
1576518630.957213,59457.667,9880,3,PI,1,100,175546
1576518630.994468,59489.000,9880,3,PI,1,100,175483
1576518631.037271,59525.000,9899,3,PI,1,100,175358
1576518631.080075,59561.000,9899,3,PI,1,100,175346
1576518631.122878,59597.000,9899,3,PI,1,100,175348
1576518631.163303,59631.000,9915,3,PI,1,100,175351
1576518631.203729,59665.000,9915,3,PI,1,100,175340
1576518631.244154,59699.000,9915,3,PI,1,100,175327
1576518631.285372,59733.667,9933,3,PI,1,100,175345
1576518631.326590,59768.333,9933,3,PI,1,100,175368
1576518631.367808,59803.000,9933,3,PI,1,100,175360
1576518631.409422,59838.000,9951,2,PI,1,100,175356
1576518631.451037,59873.000,9951,2,PI,1,100,175373
1576518631.489976,59905.750,9969,4,PI,1,100,175387
1576518631.528915,59938.500,9969,4,PI,1,100,175393
1576518631.567854,59971.250,9969,4,PI,1,100,175376
1576518631.606793,60004.000,9969,4,PI,1,100,175399
1576518631.645633,60036.667,9987,3,PI,1,100,175398
1576518631.684474,60069.333,9987,3,PI,1,100,175384
1576518631.723314,60102.000,9987,3,PI,1,100,175392
1576518631.762946,60135.333,10005,3,PI,1,100,175271
1576518631.802579,60168.667,10005,3,PI,1,100,175177
1576518631.842212,60202.000,10005,3,PI,1,100,175156
1576518631.883430,60236.667,10023,3,PI,1,100,175245
1576518631.924648,60271.333,10023,3,PI,1,100,175231
1576518631.965866,60306.000,10023,3,PI,1,100,175176
1576518632.007480,60341.000,10040,3,PI,1,100,175171
1576518632.049095,60376.000,10040,3,PI,1,100,175158
1576518632.090709,60411.000,10040,3,PI,1,100,175176
1576518632.129549,60443.667,10057,3,PI,1,100,175166
1576518632.168389,60476.333,10057,3,PI,1,100,175191
1576518632.207229,60509.000,10057,3,PI,1,100,175214
1576518632.245277,60541.000,10075,3,PI,1,100,175211
1576518632.283324,60573.000,10075,3,PI,1,100,175251
1576518632.321372,60605.000,10075,3,PI,1,100,175290
1576518632.364175,60641.000,10093,3,PI,1,100,175284
1576518632.406978,60677.000,10093,3,PI,1,100,175306
1576518632.449782,60713.000,10093,3,PI,1,100,175298
1576518632.490801,60747.500,10111,2,PI,1,100,175205
1576518632.531821,60782.000,10111,2,PI,1,100,175086
1576518632.573436,60817.000,10129,3,PI,1,100,175039
1576518632.615050,60852.000,10129,3,PI,1,100,175050
1576518632.656664,60887.000,10129,3,PI,1,100,175018
1576518632.697090,60921.000,10147,3,PI,1,100,175033
1576518632.737515,60955.000,10147,3,PI,1,100,175071
1576518632.777941,60989.000,10147,3,PI,1,100,175025
1576518632.815691,61020.750,10165,4,PI,1,100,174976
1576518632.853441,61052.500,10165,4,PI,1,100,174999
1576518632.891191,61084.250,10165,4,PI,1,100,175102
1576518632.928941,61116.000,10165,4,PI,1,100,175120
1576518632.968970,61149.667,10183,3,PI,1,100,175066
1576518633.008999,61183.333,10183,3,PI,1,100,175080
1576518633.049028,61217.000,10183,3,PI,1,100,175096
1576518633.089850,61251.333,10202,3,PI,1,100,175122
1576518633.130672,61285.667,10202,3,PI,1,100,175140
1576518633.171494,61320.000,10202,3,PI,1,100,175158
1576518633.213108,61355.000,10219,2,PI,1,100,175076
1576518633.254722,61390.000,10219,2,PI,1,100,174934
1576518633.296337,61425.000,10237,3,PI,1,100,174916
1576518633.337951,61460.000,10237,3,PI,1,100,174937
1576518633.379565,61495.000,10237,3,PI,1,100,174933
1576518633.417315,61526.750,10253,4,PI,1,100,174940
1576518633.455066,61558.500,10253,4,PI,1,100,174935
1576518633.492816,61590.250,10253,4,PI,1,100,174926
1576518633.530566,61622.000,10253,4,PI,1,100,174912
1576518633.569803,61655.000,10271,3,PI,1,100,174892
1576518633.609039,61688.000,10271,3,PI,1,100,174903
1576518633.648275,61721.000,10271,3,PI,1,100,174909
1576518633.689493,61755.667,10289,3,PI,1,100,174907
1576518633.730711,61790.333,10289,3,PI,1,100,174987
1576518633.771929,61825.000,10289,3,PI,1,100,174994
1576518633.812949,61859.500,10307,2,PI,1,100,174960
1576518633.853969,61894.000,10307,2,PI,1,100,174999
1576518633.895187,61928.667,10325,3,PI,1,100,175007
1576518633.936405,61963.333,10325,3,PI,1,100,174882
1576518633.977623,61998.000,10325,3,PI,1,100,174754
1576518634.015076,62029.500,10344,4,PI,1,100,174741
1576518634.052529,62061.000,10344,4,PI,1,100,174736
1576518634.089982,62092.500,10344,4,PI,1,100,174719
1576518634.127435,62124.000,10344,4,PI,1,100,174724
1576518634.166275,62156.667,10362,3,PI,1,100,174735
1576518634.205115,62189.333,10362,3,PI,1,100,174702
1576518634.243955,62222.000,10362,3,PI,1,100,174708
1576518634.285173,62256.667,10380,3,PI,1,100,174735
1576518634.326391,62291.333,10380,3,PI,1,100,174761
1576518634.367609,62326.000,10380,3,PI,1,100,174743
1576518634.410413,62362.000,10397,2,PI,1,100,174780
1576518634.453216,62398.000,10397,2,PI,1,100,174804
1576518634.492155,62430.750,10415,4,PI,1,100,174815
1576518634.531094,62463.500,10415,4,PI,1,100,174825
1576518634.570033,62496.250,10415,4,PI,1,100,174871
1576518634.608973,62529.000,10415,4,PI,1,100,174889
1576518634.656532,62569.000,10431,2,PI,1,100,174757
1576518634.704091,62609.000,10431,2,PI,1,100,174633
1576518634.742138,62641.000,10449,3,PI,1,100,174570
1576518634.780186,62673.000,10449,3,PI,1,100,174572
1576518634.818233,62705.000,10449,3,PI,1,100,174519
1576518634.859451,62739.667,10467,3,PI,1,100,174511
1576518634.900669,62774.333,10467,3,PI,1,100,174526
1576518634.941887,62809.000,10467,3,PI,1,100,174527
1576518634.986672,62846.667,10485,3,PI,1,100,174496
1576518635.031457,62884.333,10485,3,PI,1,100,174499
1576518635.076242,62922.000,10485,3,PI,1,100,174511
1576518635.113101,62953.000,10504,3,PI,1,100,174511
1576518635.149959,62984.000,10504,3,PI,1,100,174518
1576518635.186818,63015.000,10504,3,PI,1,100,174573
1576518635.227243,63049.000,10522,3,PI,1,100,174614
1576518635.267668,63083.000,10522,3,PI,1,100,174610
1576518635.308094,63117.000,10522,3,PI,1,100,174643
1576518635.345745,63148.667,10539,3,PI,1,100,174664
1576518635.383396,63180.333,10539,3,PI,1,100,174708
1576518635.421047,63212.000,10539,3,PI,1,100,174639
1576518635.461076,63245.667,10557,3,PI,1,100,174482
1576518635.501105,63279.333,10557,3,PI,1,100,174361
1576518635.541134,63313.000,10557,3,PI,1,100,174299
1576518635.581560,63347.000,10575,3,PI,1,100,174367
1576518635.621985,63381.000,10575,3,PI,1,100,174365
1576518635.662410,63415.000,10575,3,PI,1,100,174291
1576518635.703232,63449.333,10591,3,PI,1,100,174287
1576518635.744054,63483.667,10591,3,PI,1,100,174387
1576518635.784876,63518.000,10591,3,PI,1,100,174347
1576518635.826094,63552.667,10609,3,PI,1,100,174315
1576518635.867312,63587.333,10609,3,PI,1,100,174327
1576518635.908530,63622.000,10609,3,PI,1,100,174370
1576518635.946181,63653.667,10627,3,PI,1,100,174380
1576518635.983832,63685.333,10627,3,PI,1,100,174426
1576518636.021483,63717.000,10627,3,PI,1,100,174446
1576518636.059927,63749.333,10646,3,PI,1,100,174442
1576518636.098370,63781.667,10646,3,PI,1,100,174523
1576518636.136814,63814.000,10646,3,PI,1,100,174564
1576518636.180410,63850.667,10664,3,PI,1,100,174588
1576518636.224006,63887.333,10664,3,PI,1,100,174546
1576518636.267602,63924.000,10664,3,PI,1,100,174377
1576518636.308820,63958.667,10682,3,PI,1,100,174280
1576518636.350038,63993.333,10682,3,PI,1,100,174264
1576518636.391256,64028.000,10682,3,PI,1,100,174232
1576518636.432474,64062.667,10700,3,PI,1,100,174204
1576518636.473692,64097.333,10700,3,PI,1,100,174214
1576518636.514910,64132.000,10700,3,PI,1,100,174269
1576518636.552720,64163.800,10720,5,PI,1,100,174264
1576518636.590530,64195.600,10720,5,PI,1,100,174196
1576518636.628339,64227.400,10720,5,PI,1,100,174273
1576518636.666149,64259.200,10720,5,PI,1,100,174349
1576518636.703959,64291.000,10720,5,PI,1,100,174381
1576518636.743591,64324.333,10740,3,PI,1,100,174370
1576518636.783224,64357.667,10740,3,PI,1,100,174441
1576518636.822857,64391.000,10740,3,PI,1,100,174433
1576518636.864075,64425.667,10758,3,PI,1,100,174476
1576518636.905293,64460.333,10758,3,PI,1,100,174519
1576518636.946511,64495.000,10758,3,PI,1,100,174560
1576518636.988125,64530.000,10776,3,PI,1,100,174583
1576518637.029739,64565.000,10776,3,PI,1,100,174521
1576518637.071354,64600.000,10776,3,PI,1,100,174418
1576518637.110986,64633.333,10795,3,PI,1,100,174333
1576518637.150619,64666.667,10795,3,PI,1,100,174349
1576518637.190252,64700.000,10795,3,PI,1,100,174362
1576518637.228299,64732.000,10812,3,PI,1,100,174373
1576518637.266347,64764.000,10812,3,PI,1,100,174387
1576518637.304394,64796.000,10812,3,PI,1,100,174377
1576518637.343234,64828.667,10830,3,PI,1,100,174357
1576518637.382074,64861.333,10830,3,PI,1,100,174360
1576518637.420914,64894.000,10830,3,PI,1,100,174433
1576518637.461736,64928.333,10848,3,PI,1,100,174483
1576518637.502558,64962.667,10848,3,PI,1,100,174463
1576518637.543380,64997.000,10848,3,PI,1,100,174481
1576518637.584994,65032.000,10865,3,PI,1,100,174578
1576518637.626608,65067.000,10865,3,PI,1,100,174635
1576518637.668223,65102.000,10865,3,PI,1,100,174611
1576518637.707855,65135.333,10882,3,PI,1,100,174607
1576518637.747488,65168.667,10882,3,PI,1,100,174499
1576518637.787121,65202.000,10882,3,PI,1,100,174401
1576518637.825565,65234.333,10900,3,PI,1,100,174346
1576518637.864008,65266.667,10900,3,PI,1,100,174348
1576518637.902452,65299.000,10900,3,PI,1,100,174370
1576518637.940500,65331.000,10918,3,PI,1,100,174406
1576518637.978547,65363.000,10918,3,PI,1,100,174414
1576518638.016594,65395.000,10918,3,PI,1,100,174434
1576518638.057020,65429.000,10937,3,PI,1,100,174412
1576518638.097445,65463.000,10937,3,PI,1,100,174442
1576518638.137871,65497.000,10937,3,PI,1,100,174472
1576518638.180278,65532.667,10955,3,PI,1,100,174514
1576518638.222685,65568.333,10955,3,PI,1,100,174519
1576518638.265092,65604.000,10955,3,PI,1,100,174548
1576518638.306310,65638.667,10973,3,PI,1,100,174528
1576518638.347528,65673.333,10973,3,PI,1,100,174614
1576518638.388746,65708.000,10973,3,PI,1,100,174642
1576518638.431153,65743.667,10991,3,PI,1,100,174646
1576518638.473560,65779.333,10991,3,PI,1,100,174513
1576518638.515967,65815.000,10991,3,PI,1,100,174370
1576518638.553618,65846.667,11008,3,PI,1,100,174323
1576518638.591269,65878.333,11008,3,PI,1,100,174364
1576518638.628920,65910.000,11008,3,PI,1,100,174380
1576518638.670138,65944.667,11026,3,PI,1,100,174353
1576518638.711356,65979.333,11026,3,PI,1,100,174386
1576518638.752574,66014.000,11026,3,PI,1,100,174377
1576518638.794585,66049.333,11042,3,PI,1,100,174379
1576518638.836596,66084.667,11042,3,PI,1,100,174384
1576518638.878606,66120.000,11042,3,PI,1,100,174406
1576518638.916257,66151.667,11060,3,PI,1,100,174410
1576518638.953908,66183.333,11060,3,PI,1,100,174450
1576518638.991560,66215.000,11060,3,PI,1,100,174517
1576518639.029607,66247.000,11079,3,PI,1,100,174560
1576518639.067654,66279.000,11079,3,PI,1,100,174598
1576518639.105702,66311.000,11079,3,PI,1,100,174620
1576518639.143353,66342.667,11097,3,PI,1,100,174641
1576518639.181004,66374.333,11097,3,PI,1,100,174552
1576518639.218655,66406.000,11097,3,PI,1,100,174329
1576518639.259080,66440.000,11115,3,PI,1,100,174302
1576518639.299506,66474.000,11115,3,PI,1,100,174373
1576518639.339931,66508.000,11115,3,PI,1,100,174308
1576518639.381149,66542.667,11133,3,PI,1,100,174263
1576518639.422367,66577.333,11133,3,PI,1,100,174352
1576518639.463585,66612.000,11133,3,PI,1,100,174392
1576518639.505596,66647.333,11151,3,PI,1,100,174333
1576518639.547607,66682.667,11151,3,PI,1,100,174332
1576518639.589617,66718.000,11151,3,PI,1,100,174353
1576518639.628854,66751.000,11168,3,PI,1,100,174393
1576518639.668090,66784.000,11168,3,PI,1,100,174412
1576518639.707327,66817.000,11168,3,PI,1,100,174453
1576518639.744978,66848.667,11186,3,PI,1,100,174489
1576518639.782629,66880.333,11186,3,PI,1,100,174510
1576518639.820280,66912.000,11186,3,PI,1,100,174558
1576518639.863479,66948.333,11204,3,PI,1,100,174599
1576518639.906679,66984.667,11204,3,PI,1,100,174611
1576518639.949879,67021.000,11204,3,PI,1,100,174473
1576518639.991097,67055.667,11220,3,PI,1,100,174312
1576518640.032315,67090.333,11220,3,PI,1,100,174251
1576518640.073533,67125.000,11220,3,PI,1,100,174241
1576518640.114751,67159.667,11239,3,PI,1,100,174222
1576518640.155969,67194.333,11239,3,PI,1,100,174190
1576518640.197187,67229.000,11239,3,PI,1,100,174221
1576518640.236423,67262.000,11257,3,PI,1,100,174271
1576518640.275660,67295.000,11257,3,PI,1,100,174246
1576518640.314896,67328.000,11257,3,PI,1,100,174200
1576518640.352547,67359.667,11275,3,PI,1,100,174255
1576518640.390198,67391.333,11275,3,PI,1,100,174339
1576518640.427850,67423.000,11275,3,PI,1,100,174345
1576518640.467086,67456.000,11293,3,PI,1,100,174356
1576518640.506322,67489.000,11293,3,PI,1,100,174376
1576518640.545559,67522.000,11293,3,PI,1,100,174413
1576518640.587173,67557.000,11311,3,PI,1,100,174472
1576518640.628788,67592.000,11311,3,PI,1,100,174489
1576518640.670402,67627.000,11311,3,PI,1,100,174453
1576518640.711620,67661.667,11329,3,PI,1,100,174299
1576518640.752838,67696.333,11329,3,PI,1,100,174158
1576518640.794056,67731.000,11329,3,PI,1,100,174152
1576518640.834481,67765.000,11346,3,PI,1,100,174164
1576518640.874907,67799.000,11346,3,PI,1,100,174137
1576518640.915332,67833.000,11346,3,PI,1,100,174135
1576518640.952587,67864.333,11364,3,PI,1,100,174144
1576518640.989842,67895.667,11364,3,PI,1,100,174135
1576518641.027096,67927.000,11364,3,PI,1,100,174130
1576518641.066729,67960.333,11383,3,PI,1,100,174131
1576518641.106362,67993.667,11383,3,PI,1,100,174141
1576518641.145994,68027.000,11383,3,PI,1,100,174252
1576518641.187212,68061.667,11401,3,PI,1,100,174255
1576518641.228431,68096.333,11401,3,PI,1,100,174232
1576518641.269649,68131.000,11401,3,PI,1,100,174295
1576518641.310867,68165.667,11417,3,PI,1,100,174405
1576518641.352085,68200.333,11417,3,PI,1,100,174419
1576518641.393303,68235.000,11417,3,PI,1,100,174407
1576518641.434917,68270.000,11435,3,PI,1,100,174381
1576518641.476532,68305.000,11435,3,PI,1,100,174229
1576518641.518146,68340.000,11435,3,PI,1,100,174112
1576518641.555004,68371.000,11453,3,PI,1,100,174099
1576518641.591863,68402.000,11453,3,PI,1,100,174116
1576518641.628721,68433.000,11453,3,PI,1,100,174090
1576518641.667561,68465.667,11471,3,PI,1,100,174119
1576518641.706401,68498.333,11471,3,PI,1,100,174112
1576518641.745241,68531.000,11471,3,PI,1,100,174108
1576518641.785667,68565.000,11489,3,PI,1,100,174079
1576518641.826092,68599.000,11489,3,PI,1,100,174096
1576518641.866518,68633.000,11489,3,PI,1,100,174131
1576518641.907736,68667.667,11507,3,PI,1,100,174144
1576518641.948954,68702.333,11507,3,PI,1,100,174163
1576518641.990172,68737.000,11507,3,PI,1,100,174191
1576518642.032975,68773.000,11526,3,PI,1,100,174190
1576518642.075778,68809.000,11526,3,PI,1,100,174308
1576518642.118582,68845.000,11526,3,PI,1,100,174310
1576518642.159800,68879.667,11543,3,PI,1,100,174089
1576518642.201018,68914.333,11543,3,PI,1,100,173975
1576518642.242236,68949.000,11543,3,PI,1,100,173909
1576518642.283850,68984.000,11561,3,PI,1,100,173902
1576518642.325464,69019.000,11561,3,PI,1,100,173844
1576518642.367079,69054.000,11561,3,PI,1,100,173880
1576518642.405126,69086.000,11577,3,PI,1,100,173898
1576518642.443174,69118.000,11577,3,PI,1,100,173839
1576518642.481221,69150.000,11577,3,PI,1,100,173831
1576518642.520061,69182.667,11595,3,PI,1,100,173924
1576518642.558901,69215.333,11595,3,PI,1,100,173941
1576518642.597741,69248.000,11595,3,PI,1,100,173890
1576518642.634124,69278.600,11616,5,PI,1,100,173928
1576518642.670507,69309.200,11616,5,PI,1,100,174043
1576518642.706890,69339.800,11616,5,PI,1,100,174065
1576518642.743273,69370.400,11616,5,PI,1,100,174037
1576518642.779655,69401.000,11616,5,PI,1,100,174138
1576518642.818099,69433.333,11636,3,PI,1,100,174094
1576518642.856543,69465.667,11636,3,PI,1,100,173916
1576518642.894987,69498.000,11636,3,PI,1,100,173743
1576518642.933430,69530.333,11653,3,PI,1,100,173754
1576518642.971874,69562.667,11653,3,PI,1,100,173782
1576518643.010318,69595.000,11653,3,PI,1,100,173717
1576518643.051536,69629.667,11672,3,PI,1,100,173663
1576518643.092754,69664.333,11672,3,PI,1,100,173775
1576518643.133972,69699.000,11672,3,PI,1,100,173811
1576518643.175190,69733.667,11688,3,PI,1,100,173745
1576518643.216408,69768.333,11688,3,PI,1,100,173743
1576518643.257626,69803.000,11688,3,PI,1,100,173777
1576518643.298448,69837.333,11706,3,PI,1,100,173839
1576518643.339270,69871.667,11706,3,PI,1,100,173876
1576518643.380091,69906.000,11706,3,PI,1,100,173921
1576518643.418535,69938.333,11724,3,PI,1,100,173954
1576518643.456979,69970.667,11724,3,PI,1,100,174002
1576518643.495423,70003.000,11724,3,PI,1,100,174053
1576518643.537433,70038.333,11742,3,PI,1,100,173969
1576518643.579444,70073.667,11742,3,PI,1,100,173765
1576518643.621455,70109.000,11742,3,PI,1,100,173698
1576518643.658313,70140.000,11760,3,PI,1,100,173703
1576518643.695172,70171.000,11760,3,PI,1,100,173704
1576518643.732030,70202.000,11760,3,PI,1,100,173683
1576518643.771266,70235.000,11778,3,PI,1,100,173723
1576518643.810503,70268.000,11778,3,PI,1,100,173738
1576518643.849739,70301.000,11778,3,PI,1,100,173724
1576518643.890561,70335.333,11796,3,PI,1,100,173744
1576518643.931383,70369.667,11796,3,PI,1,100,173771
1576518643.972204,70404.000,11796,3,PI,1,100,173816
1576518644.013422,70438.667,11815,3,PI,1,100,173837
1576518644.054640,70473.333,11815,3,PI,1,100,173870
1576518644.095858,70508.000,11815,3,PI,1,100,173899
1576518644.136680,70542.333,11832,3,PI,1,100,173920
1576518644.177502,70576.667,11832,3,PI,1,100,173998
1576518644.218323,70611.000,11832,3,PI,1,100,173917
1576518644.256371,70643.000,11850,3,PI,1,100,173706
1576518644.294418,70675.000,11850,3,PI,1,100,173622
1576518644.332466,70707.000,11850,3,PI,1,100,173679
1576518644.370909,70739.333,11866,3,PI,1,100,173679
1576518644.409353,70771.667,11866,3,PI,1,100,173633
1576518644.447797,70804.000,11866,3,PI,1,100,173645
1576518644.488619,70838.333,11884,3,PI,1,100,173663
1576518644.529440,70872.667,11884,3,PI,1,100,173685
1576518644.570262,70907.000,11884,3,PI,1,100,173691
1576518644.611876,70942.000,11902,3,PI,1,100,173732
1576518644.653491,70977.000,11902,3,PI,1,100,173734
1576518644.695105,71012.000,11902,3,PI,1,100,173798
1576518644.735927,71046.333,11920,3,PI,1,100,173860
1576518644.776749,71080.667,11920,3,PI,1,100,173911
1576518644.817570,71115.000,11920,3,PI,1,100,173949
1576518644.858788,71149.667,11938,3,PI,1,100,173886
1576518644.900007,71184.333,11938,3,PI,1,100,173694
1576518644.941225,71219.000,11938,3,PI,1,100,173606
1576518644.979668,71251.333,11956,3,PI,1,100,173571
1576518645.018112,71283.667,11956,3,PI,1,100,173587
1576518645.056556,71316.000,11956,3,PI,1,100,173588
1576518645.097378,71350.333,11975,3,PI,1,100,173678
1576518645.138199,71384.667,11975,3,PI,1,100,173709
1576518645.179021,71419.000,11975,3,PI,1,100,173623
1576518645.220635,71454.000,11993,3,PI,1,100,173682
1576518645.262249,71489.000,11993,3,PI,1,100,173764
1576518645.303864,71524.000,11993,3,PI,1,100,173806
1576518645.344686,71558.333,12010,3,PI,1,100,173827
1576518645.385507,71592.667,12010,3,PI,1,100,173876
1576518645.426329,71627.000,12010,3,PI,1,100,173903
1576518645.460809,71656.000,12028,3,PI,1,100,173950
1576518645.495290,71685.000,12028,3,PI,1,100,173939
1576518645.529770,71714.000,12028,3,PI,1,100,173776
1576518645.567025,71745.333,12046,3,PI,1,100,173651
1576518645.604280,71776.667,12046,3,PI,1,100,173665
1576518645.641535,71808.000,12046,3,PI,1,100,173696
1576518645.685527,71845.000,12062,3,PI,1,100,173691
1576518645.729519,71882.000,12062,3,PI,1,100,173683
1576518645.773512,71919.000,12062,3,PI,1,100,173681
1576518645.814730,71953.667,12080,3,PI,1,100,173649
1576518645.855948,71988.333,12080,3,PI,1,100,173655
1576518645.897166,72023.000,12080,3,PI,1,100,173670
1576518645.938384,72057.667,12098,3,PI,1,100,173664
1576518645.979602,72092.333,12098,3,PI,1,100,173742
1576518646.020820,72127.000,12098,3,PI,1,100,173825
1576518646.060056,72160.000,12117,3,PI,1,100,173818
1576518646.099293,72193.000,12117,3,PI,1,100,173797
1576518646.138529,72226.000,12117,3,PI,1,100,173832
1576518646.176973,72258.333,12135,3,PI,1,100,173647
1576518646.215417,72290.667,12135,3,PI,1,100,173486
1576518646.253860,72323.000,12135,3,PI,1,100,173437
1576518646.293493,72356.333,12153,3,PI,1,100,173411
1576518646.333126,72389.667,12153,3,PI,1,100,173394
1576518646.372759,72423.000,12153,3,PI,1,100,173392
1576518646.412391,72456.333,12171,3,PI,1,100,173382
1576518646.452024,72489.667,12171,3,PI,1,100,173453
1576518646.491657,72523.000,12171,3,PI,1,100,173423
1576518646.527326,72553.000,12189,4,PI,1,100,173422
1576518646.562996,72583.000,12189,4,PI,1,100,173454
1576518646.598665,72613.000,12189,4,PI,1,100,173526
1576518646.634335,72643.000,12189,4,PI,1,100,173557
1576518646.673967,72676.333,12207,3,PI,1,100,173537
1576518646.713600,72709.667,12207,3,PI,1,100,173624
1576518646.753233,72743.000,12207,3,PI,1,100,173679
1576518646.794451,72777.667,12224,3,PI,1,100,173521
1576518646.835669,72812.333,12224,3,PI,1,100,173316
1576518646.876887,72847.000,12224,3,PI,1,100,173241
1576518646.917709,72881.333,12242,3,PI,1,100,173236
1576518646.958530,72915.667,12242,3,PI,1,100,173200
1576518646.999352,72950.000,12242,3,PI,1,100,173184
1576518647.041561,72985.500,12259,2,PI,1,100,173156
1576518647.083770,73021.000,12259,2,PI,1,100,173197
1576518647.121421,73052.667,12277,3,PI,1,100,173198
1576518647.159072,73084.333,12277,3,PI,1,100,173218
1576518647.196723,73116.000,12277,3,PI,1,100,173260
1576518647.235959,73149.000,12295,4,PI,1,100,173308
1576518647.275196,73182.000,12295,4,PI,1,100,173338
1576518647.314432,73215.000,12295,4,PI,1,100,173380
1576518647.353669,73248.000,12295,4,PI,1,100,173431
1576518647.392112,73280.333,12313,3,PI,1,100,173489
1576518647.430556,73312.667,12313,3,PI,1,100,173534
1576518647.469000,73345.000,12313,3,PI,1,100,173437
1576518647.508236,73378.000,12331,3,PI,1,100,173273
1576518647.547473,73411.000,12331,3,PI,1,100,173239
1576518647.586709,73444.000,12331,3,PI,1,100,173227
1576518647.627927,73478.667,12349,3,PI,1,100,173212
1576518647.669145,73513.333,12349,3,PI,1,100,173194
1576518647.710363,73548.000,12349,3,PI,1,100,173189
1576518647.751581,73582.667,12367,3,PI,1,100,173226
1576518647.792799,73617.333,12367,3,PI,1,100,173270
1576518647.834017,73652.000,12367,3,PI,1,100,173279
1576518647.874046,73685.667,12384,3,PI,1,100,173250
1576518647.914075,73719.333,12384,3,PI,1,100,173351
1576518647.954104,73753.000,12384,3,PI,1,100,173431
1576518647.992152,73785.000,12402,3,PI,1,100,173444
1576518648.030199,73817.000,12402,3,PI,1,100,173471
1576518648.068247,73849.000,12402,3,PI,1,100,173509
1576518648.107087,73881.667,12421,3,PI,1,100,173555
1576518648.145927,73914.333,12421,3,PI,1,100,173564
1576518648.184767,73947.000,12421,3,PI,1,100,173423
1576518648.225589,73981.333,12439,3,PI,1,100,173275
1576518648.266410,74015.667,12439,3,PI,1,100,173268
1576518648.307232,74050.000,12439,3,PI,1,100,173302
1576518648.348252,74084.500,12455,2,PI,1,100,173300
1576518648.389272,74119.000,12455,2,PI,1,100,173331
1576518648.434850,74157.333,12473,3,PI,1,100,173338
1576518648.480427,74195.667,12473,3,PI,1,100,173328
1576518648.526005,74234.000,12473,3,PI,1,100,173341
1576518648.564052,74266.000,12491,4,PI,1,100,173334
1576518648.602099,74298.000,12491,4,PI,1,100,173359
1576518648.640147,74330.000,12491,4,PI,1,100,173387
1576518648.678194,74362.000,12491,4,PI,1,100,173475
1576518648.717431,74395.000,12512,4,PI,1,100,173560
1576518648.756667,74428.000,12512,4,PI,1,100,173532
1576518648.795903,74461.000,12512,4,PI,1,100,173561
1576518648.835140,74494.000,12512,4,PI,1,100,173700
1576518648.875962,74528.333,12532,3,PI,1,100,173726
1576518648.916783,74562.667,12532,3,PI,1,100,173540
1576518648.957605,74597.000,12532,3,PI,1,100,173408
1576518648.999219,74632.000,12549,3,PI,1,100,173391
1576518649.040834,74667.000,12549,3,PI,1,100,173428
1576518649.082448,74702.000,12549,3,PI,1,100,173463
1576518649.119307,74733.000,12567,4,PI,1,100,173479
1576518649.156165,74764.000,12567,4,PI,1,100,173510
1576518649.193023,74795.000,12567,4,PI,1,100,173509
1576518649.229882,74826.000,12567,4,PI,1,100,173533
1576518649.271496,74861.000,12585,2,PI,1,100,173567
1576518649.313111,74896.000,12585,2,PI,1,100,173584
1576518649.352347,74929.000,12603,3,PI,1,100,173629
1576518649.391583,74962.000,12603,3,PI,1,100,173674
1576518649.430820,74995.000,12603,3,PI,1,100,173722
1576518649.472038,75029.667,12621,3,PI,1,100,173767
1576518649.513256,75064.333,12621,3,PI,1,100,173788
1576518649.554474,75099.000,12621,3,PI,1,100,173880
1576518649.595692,75133.667,12639,3,PI,1,100,173837
1576518649.636910,75168.333,12639,3,PI,1,100,173659
1576518649.678128,75203.000,12639,3,PI,1,100,173561
1576518649.718157,75236.667,12657,3,PI,1,100,173663
1576518649.758186,75270.333,12657,3,PI,1,100,173693
1576518649.798215,75304.000,12657,3,PI,1,100,173665
1576518649.836659,75336.333,12674,3,PI,1,100,173678
1576518649.875103,75368.667,12674,3,PI,1,100,173681
1576518649.913546,75401.000,12674,3,PI,1,100,173698
1576518649.953179,75434.333,12693,3,PI,1,100,173752
1576518649.992812,75467.667,12693,3,PI,1,100,173774
1576518650.032445,75501.000,12693,3,PI,1,100,173765
1576518650.071681,75534.000,12711,4,PI,1,100,173842
1576518650.110917,75567.000,12711,4,PI,1,100,173886
1576518650.150154,75600.000,12711,4,PI,1,100,173901
1576518650.189390,75633.000,12711,4,PI,1,100,173938
1576518650.227438,75665.000,12729,3,PI,1,100,173964
1576518650.265485,75697.000,12729,3,PI,1,100,173931
1576518650.303532,75729.000,12729,3,PI,1,100,173779
1576518650.341976,75761.333,12745,3,PI,1,100,173764
1576518650.380420,75793.667,12745,3,PI,1,100,173763
1576518650.418864,75826.000,12745,3,PI,1,100,173758
1576518650.459685,75860.333,12763,3,PI,1,100,173758
1576518650.500507,75894.667,12763,3,PI,1,100,173788
1576518650.541329,75929.000,12763,3,PI,1,100,173804
1576518650.582547,75963.667,12781,3,PI,1,100,173815
1576518650.623765,75998.333,12781,3,PI,1,100,173823
1576518650.664983,76033.000,12781,3,PI,1,100,173855
1576518650.706994,76068.333,12799,3,PI,1,100,173923
1576518650.749004,76103.667,12799,3,PI,1,100,173954
1576518650.791015,76139.000,12799,3,PI,1,100,174005
1576518650.831044,76172.667,12817,3,PI,1,100,174034
1576518650.871073,76206.333,12817,3,PI,1,100,174059
1576518650.911102,76240.000,12817,3,PI,1,100,174100
1576518650.953311,76275.500,12835,2,PI,1,100,174066
1576518650.995520,76311.000,12835,2,PI,1,100,173944
1576518651.033567,76343.000,12853,4,PI,1,100,173907
1576518651.071615,76375.000,12853,4,PI,1,100,173910
1576518651.109662,76407.000,12853,4,PI,1,100,173911
1576518651.147710,76439.000,12853,4,PI,1,100,173922
1576518651.187342,76472.333,12871,3,PI,1,100,173930
1576518651.226975,76505.667,12871,3,PI,1,100,173950
1576518651.266608,76539.000,12871,3,PI,1,100,173946
1576518651.306637,76572.667,12889,3,PI,1,100,173950
1576518651.346666,76606.333,12889,3,PI,1,100,173970
1576518651.386695,76640.000,12889,3,PI,1,100,174065
1576518651.427913,76674.667,12905,3,PI,1,100,174109
1576518651.469131,76709.333,12905,3,PI,1,100,174065
1576518651.510349,76744.000,12905,3,PI,1,100,174138
1576518651.552558,76779.500,12923,2,PI,1,100,174226
1576518651.594767,76815.000,12923,2,PI,1,100,174242
1576518651.633409,76847.500,12941,4,PI,1,100,174243
1576518651.672050,76880.000,12941,4,PI,1,100,174190
1576518651.710692,76912.500,12941,4,PI,1,100,174078
1576518651.749334,76945.000,12941,4,PI,1,100,174022
1576518651.787778,76977.333,12959,3,PI,1,100,174053
1576518651.826222,77009.667,12959,3,PI,1,100,174055
1576518651.864666,77042.000,12959,3,PI,1,100,174065
1576518651.903902,77075.000,12977,3,PI,1,100,174115
1576518651.943138,77108.000,12977,3,PI,1,100,174135
1576518651.982375,77141.000,12977,3,PI,1,100,174137
1576518652.029934,77181.000,12996,2,PI,1,100,174161
1576518652.077493,77221.000,12996,2,PI,1,100,174183
1576518652.118315,77255.333,13014,3,PI,1,100,174209
1576518652.159137,77289.667,13014,3,PI,1,100,174208
1576518652.199959,77324.000,13014,3,PI,1,100,174242
1576518652.239591,77357.333,13031,3,PI,1,100,174241
1576518652.279224,77390.667,13031,3,PI,1,100,174308
1576518652.318857,77424.000,13031,3,PI,1,100,174396
1576518652.357201,77456.250,13049,4,PI,1,100,174327
1576518652.395546,77488.500,13049,4,PI,1,100,174230
1576518652.433891,77520.750,13049,4,PI,1,100,174196
1576518652.472235,77553.000,13049,4,PI,1,100,174200
1576518652.511868,77586.333,13067,3,PI,1,100,174164
1576518652.551501,77619.667,13067,3,PI,1,100,174203
1576518652.591134,77653.000,13067,3,PI,1,100,174202
1576518652.633342,77688.500,13083,2,PI,1,100,174216
1576518652.675551,77724.000,13083,2,PI,1,100,174228
1576518652.716373,77758.333,13101,3,PI,1,100,174232
1576518652.757195,77792.667,13101,3,PI,1,100,174260
1576518652.798016,77827.000,13101,3,PI,1,100,174292
1576518652.838838,77861.333,13119,3,PI,1,100,174338
1576518652.879660,77895.667,13119,3,PI,1,100,174343
1576518652.920481,77930.000,13119,3,PI,1,100,174368
1576518652.958529,77962.000,13137,4,PI,1,100,174396
1576518652.996576,77994.000,13137,4,PI,1,100,174417
1576518653.034624,78026.000,13137,4,PI,1,100,174434
1576518653.072671,78058.000,13137,4,PI,1,100,174351
1576518653.111115,78090.333,13156,3,PI,1,100,174212
1576518653.149559,78122.667,13156,3,PI,1,100,174230
1576518653.188002,78155.000,13156,3,PI,1,100,174278
1576518653.228824,78189.333,13174,3,PI,1,100,174269
1576518653.269646,78223.667,13174,3,PI,1,100,174222
1576518653.310467,78258.000,13174,3,PI,1,100,174360
1576518653.352082,78293.000,13192,2,PI,1,100,174359
1576518653.393696,78328.000,13192,2,PI,1,100,174322
1576518653.433527,78361.500,13209,4,PI,1,100,174324
1576518653.473358,78395.000,13209,4,PI,1,100,174339
1576518653.513189,78428.500,13209,4,PI,1,100,174362
1576518653.553020,78462.000,13209,4,PI,1,100,174397
1576518653.591464,78494.333,13227,3,PI,1,100,174415
1576518653.629907,78526.667,13227,3,PI,1,100,174409
1576518653.668351,78559.000,13227,3,PI,1,100,174481
1576518653.708776,78593.000,13245,3,PI,1,100,174489
1576518653.749202,78627.000,13245,3,PI,1,100,174354
1576518653.789627,78661.000,13245,3,PI,1,100,174253
1576518653.827675,78693.000,13263,3,PI,1,100,174259
1576518653.865722,78725.000,13263,3,PI,1,100,174262
1576518653.903769,78757.000,13263,3,PI,1,100,174259
1576518653.948356,78794.500,13279,2,PI,1,100,174309
1576518653.992943,78832.000,13279,2,PI,1,100,174300
1576518654.030693,78863.750,13298,4,PI,1,100,174284
1576518654.068443,78895.500,13298,4,PI,1,100,174299
1576518654.106194,78927.250,13298,4,PI,1,100,174301
1576518654.143944,78959.000,13298,4,PI,1,100,174335
1576518654.185162,78993.667,13316,3,PI,1,100,174350
1576518654.226380,79028.333,13316,3,PI,1,100,174347
1576518654.267598,79063.000,13316,3,PI,1,100,174372
1576518654.308023,79097.000,13334,2,PI,1,100,174422
1576518654.348449,79131.000,13334,2,PI,1,100,174431
1576518654.393630,79169.000,13352,3,PI,1,100,174387
1576518654.438811,79207.000,13352,3,PI,1,100,174264
1576518654.483993,79245.000,13352,3,PI,1,100,174173
1576518654.521644,79276.667,13370,3,PI,1,100,174140
1576518654.559295,79308.333,13370,3,PI,1,100,174182
1576518654.596946,79340.000,13370,3,PI,1,100,174199
1576518654.638560,79375.000,13387,3,PI,1,100,174165
1576518654.680175,79410.000,13387,3,PI,1,100,174182
1576518654.721789,79445.000,13387,3,PI,1,100,174177
1576518654.760550,79477.600,13408,5,PI,1,100,174161
1576518654.799310,79510.200,13408,5,PI,1,100,174172
1576518654.838071,79542.800,13408,5,PI,1,100,174194
1576518654.876832,79575.400,13408,5,PI,1,100,174153
1576518654.915593,79608.000,13408,5,PI,1,100,174238
1576518654.954829,79641.000,13428,3,PI,1,100,174306
1576518654.994066,79674.000,13428,3,PI,1,100,174273
1576518655.033302,79707.000,13428,3,PI,1,100,174223
1576518655.074124,79741.333,13447,3,PI,1,100,174177
1576518655.114946,79775.667,13447,3,PI,1,100,174112
1576518655.155767,79810.000,13447,3,PI,1,100,174050
1576518655.196985,79844.667,13465,3,PI,1,100,174038
1576518655.238203,79879.333,13465,3,PI,1,100,174021
1576518655.279421,79914.000,13465,3,PI,1,100,174038
1576518655.321036,79949.000,13482,3,PI,1,100,174037
1576518655.362650,79984.000,13482,3,PI,1,100,174037
1576518655.404264,80019.000,13482,3,PI,1,100,174020
1576518655.441519,80050.333,13500,3,PI,1,100,174036
1576518655.478774,80081.667,13500,3,PI,1,100,174082
1576518655.516029,80113.000,13500,3,PI,1,100,174102
1576518655.558039,80148.333,13518,3,PI,1,100,174111
1576518655.600050,80183.667,13518,3,PI,1,100,174139
1576518655.642061,80219.000,13518,3,PI,1,100,174161
1576518655.683279,80253.667,13534,3,PI,1,100,174122
1576518655.724497,80288.333,13534,3,PI,1,100,173967
1576518655.765715,80323.000,13534,3,PI,1,100,173872
1576518655.806537,80357.333,13552,3,PI,1,100,173856
1576518655.847358,80391.667,13552,3,PI,1,100,173898
1576518655.888180,80426.000,13552,3,PI,1,100,173916
1576518655.929398,80460.667,13570,3,PI,1,100,173813
1576518655.970616,80495.333,13570,3,PI,1,100,173837
1576518656.011834,80530.000,13570,3,PI,1,100,173921
1576518656.049485,80561.667,13589,3,PI,1,100,173880
1576518656.087136,80593.333,13589,3,PI,1,100,173861
1576518656.124787,80625.000,13589,3,PI,1,100,173878
1576518656.162835,80657.000,13607,3,PI,1,100,173921
1576518656.200882,80689.000,13607,3,PI,1,100,173924
1576518656.238930,80721.000,13607,3,PI,1,100,173954
1576518656.279355,80755.000,13625,3,PI,1,100,173979
1576518656.319780,80789.000,13625,3,PI,1,100,173950
1576518656.360206,80823.000,13625,3,PI,1,100,173834
1576518656.401820,80858.000,13643,3,PI,1,100,173774
1576518656.443434,80893.000,13643,3,PI,1,100,173731
1576518656.485049,80928.000,13643,3,PI,1,100,173729
1576518656.526267,80962.667,13660,3,PI,1,100,173695
1576518656.567485,80997.333,13660,3,PI,1,100,173712
1576518656.608703,81032.000,13660,3,PI,1,100,173699
1576518656.647147,81064.333,13678,3,PI,1,100,173688
1576518656.685591,81096.667,13678,3,PI,1,100,173658
1576518656.724034,81129.000,13678,3,PI,1,100,173671
1576518656.762082,81161.000,13696,3,PI,1,100,173739
1576518656.800129,81193.000,13696,3,PI,1,100,173775
1576518656.838176,81225.000,13696,3,PI,1,100,173754
1576518656.878206,81258.667,13712,3,PI,1,100,173801
1576518656.918235,81292.333,13712,3,PI,1,100,173881
1576518656.958264,81326.000,13712,3,PI,1,100,173883
1576518656.999482,81360.667,13731,3,PI,1,100,173779
1576518657.040700,81395.333,13731,3,PI,1,100,173630
1576518657.081918,81430.000,13731,3,PI,1,100,173582
1576518657.123136,81464.667,13749,3,PI,1,100,173582
1576518657.164354,81499.333,13749,3,PI,1,100,173570
1576518657.205572,81534.000,13749,3,PI,1,100,173538
1576518657.244016,81566.333,13767,3,PI,1,100,173524
1576518657.282459,81598.667,13767,3,PI,1,100,173576
1576518657.320903,81631.000,13767,3,PI,1,100,173595
1576518657.359347,81663.333,13785,3,PI,1,100,173567
1576518657.397791,81695.667,13785,3,PI,1,100,173589
1576518657.436234,81728.000,13785,3,PI,1,100,173636
1576518657.477056,81762.333,13803,3,PI,1,100,173643
1576518657.517878,81796.667,13803,3,PI,1,100,173672
1576518657.558700,81831.000,13803,3,PI,1,100,173699
1576518657.600314,81866.000,13821,3,PI,1,100,173715
1576518657.641928,81901.000,13821,3,PI,1,100,173725
1576518657.683542,81936.000,13821,3,PI,1,100,173682
1576518657.724761,81970.667,13838,3,PI,1,100,173570
1576518657.765979,82005.333,13838,3,PI,1,100,173511
1576518657.807197,82040.000,13838,3,PI,1,100,173534
1576518657.846037,82072.667,13856,3,PI,1,100,173505
1576518657.884877,82105.333,13856,3,PI,1,100,173492
1576518657.923717,82138.000,13856,3,PI,1,100,173474
1576518657.968106,82175.333,13872,3,PI,1,100,173517
1576518658.012494,82212.667,13872,3,PI,1,100,173537
1576518658.056883,82250.000,13872,3,PI,1,100,173540
1576518658.094930,82282.000,13891,3,PI,1,100,173566
1576518658.132978,82314.000,13891,3,PI,1,100,173598
1576518658.171025,82346.000,13891,3,PI,1,100,173614
1576518658.212640,82381.000,13909,3,PI,1,100,173648
1576518658.254254,82416.000,13909,3,PI,1,100,173700
1576518658.295868,82451.000,13909,3,PI,1,100,173745
1576518658.336690,82485.333,13927,3,PI,1,100,173762
1576518658.377512,82519.667,13927,3,PI,1,100,173682
1576518658.418333,82554.000,13927,3,PI,1,100,173546
1576518658.459155,82588.333,13945,3,PI,1,100,173516
1576518658.499977,82622.667,13945,3,PI,1,100,173495
1576518658.540798,82657.000,13945,3,PI,1,100,173488
1576518658.578846,82689.000,13963,3,PI,1,100,173481
1576518658.616893,82721.000,13963,3,PI,1,100,173526
1576518658.654941,82753.000,13963,3,PI,1,100,173577
1576518658.693384,82785.333,13981,3,PI,1,100,173534
1576518658.731828,82817.667,13981,3,PI,1,100,173470
1576518658.770272,82850.000,13981,3,PI,1,100,173597
1576518658.811094,82884.333,13998,3,PI,1,100,173675
1576518658.851915,82918.667,13998,3,PI,1,100,173650
1576518658.892737,82953.000,13998,3,PI,1,100,173673
1576518658.933162,82987.000,14016,3,PI,1,100,173719
1576518658.973588,83021.000,14016,3,PI,1,100,173758
1576518659.014013,83055.000,14016,3,PI,1,100,173810
1576518659.056024,83090.333,14035,3,PI,1,100,173760
1576518659.098035,83125.667,14035,3,PI,1,100,173634
1576518659.140045,83161.000,14035,3,PI,1,100,173609
1576518659.177696,83192.667,14051,3,PI,1,100,173649
1576518659.215348,83224.333,14051,3,PI,1,100,173687
1576518659.252999,83256.000,14051,3,PI,1,100,173677
1576518659.295406,83291.667,14069,3,PI,1,100,173711
1576518659.337813,83327.333,14069,3,PI,1,100,173737
1576518659.380220,83363.000,14069,3,PI,1,100,173762
1576518659.420645,83397.000,14087,3,PI,1,100,173762
1576518659.461070,83431.000,14087,3,PI,1,100,173807
1576518659.501496,83465.000,14087,3,PI,1,100,173822
1576518659.541921,83499.000,14105,3,PI,1,100,173931
1576518659.582347,83533.000,14105,3,PI,1,100,173948
1576518659.622772,83567.000,14105,3,PI,1,100,173951
1576518659.664386,83602.000,14123,3,PI,1,100,174021
1576518659.706001,83637.000,14123,3,PI,1,100,174120
1576518659.747615,83672.000,14123,3,PI,1,100,174066
1576518659.786059,83704.333,14141,3,PI,1,100,173889
1576518659.824502,83736.667,14141,3,PI,1,100,173887
1576518659.862946,83769.000,14141,3,PI,1,100,173923
1576518659.900994,83801.000,14159,3,PI,1,100,173950
1576518659.939041,83833.000,14159,3,PI,1,100,173994
1576518659.977088,83865.000,14159,3,PI,1,100,174018
1576518660.017514,83899.000,14177,3,PI,1,100,174006
1576518660.057939,83933.000,14177,3,PI,1,100,174049
1576518660.098365,83967.000,14177,3,PI,1,100,174091
1576518660.139583,84001.667,14195,3,PI,1,100,174117
1576518660.180801,84036.333,14195,3,PI,1,100,174118
1576518660.222019,84071.000,14195,3,PI,1,100,174166
1576518660.263633,84106.000,14213,3,PI,1,100,174208
1576518660.305248,84141.000,14213,3,PI,1,100,174240
1576518660.346862,84176.000,14213,3,PI,1,100,174236
1576518660.386098,84209.000,14229,3,PI,1,100,174121
1576518660.425335,84242.000,14229,3,PI,1,100,174001
1576518660.464571,84275.000,14229,3,PI,1,100,174071
1576518660.502619,84307.000,14247,3,PI,1,100,174107
1576518660.540666,84339.000,14247,3,PI,1,100,174049
1576518660.578713,84371.000,14247,3,PI,1,100,174120
1576518660.619139,84405.000,14265,3,PI,1,100,174201
1576518660.659564,84439.000,14265,3,PI,1,100,174180
1576518660.699990,84473.000,14265,3,PI,1,100,174164
1576518660.740811,84507.333,14283,3,PI,1,100,174192
1576518660.781633,84541.667,14283,3,PI,1,100,174251
1576518660.822455,84576.000,14283,3,PI,1,100,174251
1576518660.863772,84610.750,14304,4,PI,1,100,174296
1576518660.905089,84645.500,14304,4,PI,1,100,174322
1576518660.946406,84680.250,14304,4,PI,1,100,174354
1576518660.987723,84715.000,14304,4,PI,1,100,174325
1576518661.026563,84747.667,14325,3,PI,1,100,174213
1576518661.065403,84780.333,14325,3,PI,1,100,174134
1576518661.104243,84813.000,14325,3,PI,1,100,174164
1576518661.141994,84844.750,14343,4,PI,1,100,174172
1576518661.179744,84876.500,14343,4,PI,1,100,174167
1576518661.217494,84908.250,14343,4,PI,1,100,174165
1576518661.255244,84940.000,14343,4,PI,1,100,174179
1576518661.297453,84975.500,14361,2,PI,1,100,174134
1576518661.339662,85011.000,14361,2,PI,1,100,174202
1576518661.381276,85046.000,14379,3,PI,1,100,174258
1576518661.422890,85081.000,14379,3,PI,1,100,174249
1576518661.464505,85116.000,14379,3,PI,1,100,174256
1576518661.506516,85151.333,14397,3,PI,1,100,174366
1576518661.548526,85186.667,14397,3,PI,1,100,174405
1576518661.590537,85222.000,14397,3,PI,1,100,174345
1576518661.631755,85256.667,14415,3,PI,1,100,174279
1576518661.672973,85291.333,14415,3,PI,1,100,174250
1576518661.714191,85326.000,14415,3,PI,1,100,174192
1576518661.752238,85358.000,14432,3,PI,1,100,174115
1576518661.790286,85390.000,14432,3,PI,1,100,174162
1576518661.828333,85422.000,14432,3,PI,1,100,174164
1576518661.870740,85457.667,14450,3,PI,1,100,174185
1576518661.913147,85493.333,14450,3,PI,1,100,174156
1576518661.955554,85529.000,14450,3,PI,1,100,174222
1576518661.996376,85563.333,14466,3,PI,1,100,174213
1576518662.037198,85597.667,14466,3,PI,1,100,174254
1576518662.078019,85632.000,14466,3,PI,1,100,174275
1576518662.119634,85667.000,14485,3,PI,1,100,174305
1576518662.161248,85702.000,14485,3,PI,1,100,174324
1576518662.202863,85737.000,14485,3,PI,1,100,174354
1576518662.243684,85771.333,14503,3,PI,1,100,174380
1576518662.284506,85805.667,14503,3,PI,1,100,174426
1576518662.325328,85840.000,14503,3,PI,1,100,174296
1576518662.362979,85871.667,14521,3,PI,1,100,174112
1576518662.400630,85903.333,14521,3,PI,1,100,174171
1576518662.438281,85935.000,14521,3,PI,1,100,174244
1576518662.478310,85968.667,14539,3,PI,1,100,174183
1576518662.518339,86002.333,14539,3,PI,1,100,174169
1576518662.558368,86036.000,14539,3,PI,1,100,174200
1576518662.598397,86069.667,14557,3,PI,1,100,174211
1576518662.638426,86103.333,14557,3,PI,1,100,174227
1576518662.678455,86137.000,14557,3,PI,1,100,174232
1576518662.719673,86171.667,14575,3,PI,1,100,174257
1576518662.760891,86206.333,14575,3,PI,1,100,174300
1576518662.802109,86241.000,14575,3,PI,1,100,174356
1576518662.847291,86279.000,14592,3,PI,1,100,174378
1576518662.892472,86317.000,14592,3,PI,1,100,174419
1576518662.937653,86355.000,14592,3,PI,1,100,174437
1576518662.976097,86387.333,14610,3,PI,1,100,174441
1576518663.014541,86419.667,14610,3,PI,1,100,174312
1576518663.052984,86452.000,14610,3,PI,1,100,174221
1576518663.093014,86485.667,14627,3,PI,1,100,174211
1576518663.133043,86519.333,14627,3,PI,1,100,174237
1576518663.173072,86553.000,14627,3,PI,1,100,174233
1576518663.210723,86584.667,14645,3,PI,1,100,174242
1576518663.248374,86616.333,14645,3,PI,1,100,174247
1576518663.286025,86648.000,14645,3,PI,1,100,174257
1576518663.325261,86681.000,14663,3,PI,1,100,174240
1576518663.364498,86714.000,14663,3,PI,1,100,174237
1576518663.403734,86747.000,14663,3,PI,1,100,174292
1576518663.444556,86781.333,14681,3,PI,1,100,174350
1576518663.485378,86815.667,14681,3,PI,1,100,174353
1576518663.526199,86850.000,14681,3,PI,1,100,174361
1576518663.567021,86884.333,14699,3,PI,1,100,174439
1576518663.607843,86918.667,14699,3,PI,1,100,174498
1576518663.648664,86953.000,14699,3,PI,1,100,174486
1576518663.689486,86987.333,14717,3,PI,1,100,174408
1576518663.730308,87021.667,14717,3,PI,1,100,174281
1576518663.771130,87056.000,14717,3,PI,1,100,174247
1576518663.809177,87088.000,14735,3,PI,1,100,174271
1576518663.847224,87120.000,14735,3,PI,1,100,174285
1576518663.885272,87152.000,14735,3,PI,1,100,174278
1576518663.924112,87184.667,14753,3,PI,1,100,174318
1576518663.962952,87217.333,14753,3,PI,1,100,174334
1576518664.001792,87250.000,14753,3,PI,1,100,174305
1576518664.046973,87288.000,14771,3,PI,1,100,174338
1576518664.092155,87326.000,14771,3,PI,1,100,174354
1576518664.137336,87364.000,14771,3,PI,1,100,174385
1576518664.178158,87398.333,14789,3,PI,1,100,174412
1576518664.218979,87432.667,14789,3,PI,1,100,174420
1576518664.259801,87467.000,14789,3,PI,1,100,174438
1576518664.302010,87502.500,14805,2,PI,1,100,174548
1576518664.344219,87538.000,14805,2,PI,1,100,174556
1576518664.382266,87570.000,14823,4,PI,1,100,174505
1576518664.420314,87602.000,14823,4,PI,1,100,174493
1576518664.458361,87634.000,14823,4,PI,1,100,174371
1576518664.496408,87666.000,14823,4,PI,1,100,174300
1576518664.535249,87698.667,14841,3,PI,1,100,174311
1576518664.574089,87731.333,14841,3,PI,1,100,174331
1576518664.612929,87764.000,14841,3,PI,1,100,174384
1576518664.651372,87796.333,14859,3,PI,1,100,174388
1576518664.689816,87828.667,14859,3,PI,1,100,174380
1576518664.728260,87861.000,14859,3,PI,1,100,174375
1576518664.768685,87895.000,14877,3,PI,1,100,174412
1576518664.809111,87929.000,14877,3,PI,1,100,174459
1576518664.849536,87963.000,14877,3,PI,1,100,174498
1576518664.893528,88000.000,14895,3,PI,1,100,174511
1576518664.937521,88037.000,14895,3,PI,1,100,174543
1576518664.981513,88074.000,14895,3,PI,1,100,174568
1576518665.019957,88106.333,14913,3,PI,1,100,174597
1576518665.058400,88138.667,14913,3,PI,1,100,174622
1576518665.096844,88171.000,14913,3,PI,1,100,174580
1576518665.134099,88202.333,14932,3,PI,1,100,174440
1576518665.171354,88233.667,14932,3,PI,1,100,174426
1576518665.208609,88265.000,14932,3,PI,1,100,174381
1576518665.249034,88299.000,14949,3,PI,1,100,174356
1576518665.289459,88333.000,14949,3,PI,1,100,174440
1576518665.329885,88367.000,14949,3,PI,1,100,174506
1576518665.371895,88402.333,14967,3,PI,1,100,174474
1576518665.413906,88437.667,14967,3,PI,1,100,174468
1576518665.455917,88473.000,14967,3,PI,1,100,174463
1576518665.494360,88505.333,14985,3,PI,1,100,174495
1576518665.532804,88537.667,14985,3,PI,1,100,174519
1576518665.571248,88570.000,14985,3,PI,1,100,174557
1576518665.618213,88609.500,15001,2,PI,1,100,174610
1576518665.665178,88649.000,15001,2,PI,1,100,174665
1576518665.703621,88681.333,15019,3,PI,1,100,174647
1576518665.742065,88713.667,15019,3,PI,1,100,174678
1576518665.780509,88746.000,15019,3,PI,1,100,174639
1576518665.821727,88780.667,15037,3,PI,1,100,174498
1576518665.862945,88815.333,15037,3,PI,1,100,174365
1576518665.904163,88850.000,15037,3,PI,1,100,174452
1576518665.946174,88885.333,15055,3,PI,1,100,174502
1576518665.988184,88920.667,15055,3,PI,1,100,174491
1576518666.030195,88956.000,15055,3,PI,1,100,174497
1576518666.069035,88988.667,15074,3,PI,1,100,174496
1576518666.107875,89021.333,15074,3,PI,1,100,174513
1576518666.146715,89054.000,15074,3,PI,1,100,174515
1576518666.185060,89086.250,15092,4,PI,1,100,174547
1576518666.223404,89118.500,15092,4,PI,1,100,174557
1576518666.261749,89150.750,15092,4,PI,1,100,174605
1576518666.300094,89183.000,15092,4,PI,1,100,174648
1576518666.345870,89221.500,15109,2,PI,1,100,174683
1576518666.391645,89260.000,15109,2,PI,1,100,174704
1576518666.433260,89295.000,15127,3,PI,1,100,174705
1576518666.474874,89330.000,15127,3,PI,1,100,174575
1576518666.516489,89365.000,15127,3,PI,1,100,174447
1576518666.554932,89397.333,15143,3,PI,1,100,174424
1576518666.593376,89429.667,15143,3,PI,1,100,174407
1576518666.631820,89462.000,15143,3,PI,1,100,174477
1576518666.673038,89496.667,15161,3,PI,1,100,174515
1576518666.714256,89531.333,15161,3,PI,1,100,174533
1576518666.755474,89566.000,15161,3,PI,1,100,174504
1576518666.797485,89601.333,15179,3,PI,1,100,174495
1576518666.839495,89636.667,15179,3,PI,1,100,174516
1576518666.881506,89672.000,15179,3,PI,1,100,174505
1576518666.919316,89703.800,15200,5,PI,1,100,174533
1576518666.957125,89735.600,15200,5,PI,1,100,174633
1576518666.994935,89767.400,15200,5,PI,1,100,174630
1576518667.032744,89799.200,15200,5,PI,1,100,174622
1576518667.070554,89831.000,15200,5,PI,1,100,174691
1576518667.110187,89864.333,15221,3,PI,1,100,174577
1576518667.149819,89897.667,15221,3,PI,1,100,174409
1576518667.189452,89931.000,15221,3,PI,1,100,174362
1576518667.229481,89964.667,15237,3,PI,1,100,174378
1576518667.269510,89998.333,15237,3,PI,1,100,174387
1576518667.309539,90032.000,15237,3,PI,1,100,174373
1576518667.350361,90066.333,15255,3,PI,1,100,174401
1576518667.391183,90100.667,15255,3,PI,1,100,174392
1576518667.432004,90135.000,15255,3,PI,1,100,174395
1576518667.475997,90172.000,15273,3,PI,1,100,174425
1576518667.519989,90209.000,15273,3,PI,1,100,174428
1576518667.563982,90246.000,15273,3,PI,1,100,174459
1576518667.601633,90277.667,15291,3,PI,1,100,174477
1576518667.639284,90309.333,15291,3,PI,1,100,174501
1576518667.676935,90341.000,15291,3,PI,1,100,174514
1576518667.716568,90374.333,15309,3,PI,1,100,174534
1576518667.756200,90407.667,15309,3,PI,1,100,174396
1576518667.795833,90441.000,15309,3,PI,1,100,174294
1576518667.837051,90475.667,15327,3,PI,1,100,174228
1576518667.878269,90510.333,15327,3,PI,1,100,174174
1576518667.919487,90545.000,15327,3,PI,1,100,174153
1576518667.960309,90579.333,15345,3,PI,1,100,174217
1576518668.001131,90613.667,15345,3,PI,1,100,174195
1576518668.041952,90648.000,15345,3,PI,1,100,174178
1576518668.082774,90682.333,15363,3,PI,1,100,174165
1576518668.123595,90716.667,15363,3,PI,1,100,174172
1576518668.164417,90751.000,15363,3,PI,1,100,174186
1576518668.201672,90782.333,15381,3,PI,1,100,174219
1576518668.238927,90813.667,15381,3,PI,1,100,174259
1576518668.276182,90845.000,15381,3,PI,1,100,174271
1576518668.315418,90878.000,15399,3,PI,1,100,174311
1576518668.354654,90911.000,15399,3,PI,1,100,174357
1576518668.393891,90944.000,15399,3,PI,1,100,174379
1576518668.434712,90978.333,15415,3,PI,1,100,174324
1576518668.475534,91012.667,15415,3,PI,1,100,174144
1576518668.516356,91047.000,15415,3,PI,1,100,174062
1576518668.557574,91081.667,15433,3,PI,1,100,174028
1576518668.598792,91116.333,15433,3,PI,1,100,174020
1576518668.640010,91151.000,15433,3,PI,1,100,174049
1576518668.682021,91186.333,15451,3,PI,1,100,174078
1576518668.724031,91221.667,15451,3,PI,1,100,174069
1576518668.766042,91257.000,15451,3,PI,1,100,173996
1576518668.802901,91288.000,15469,3,PI,1,100,174101
1576518668.839759,91319.000,15469,3,PI,1,100,174099
1576518668.876617,91350.000,15469,3,PI,1,100,174115
1576518668.914665,91382.000,15487,3,PI,1,100,174137
1576518668.952712,91414.000,15487,3,PI,1,100,174181
1576518668.990760,91446.000,15487,3,PI,1,100,174235
1576518669.031185,91480.000,15505,3,PI,1,100,174274
1576518669.071610,91514.000,15505,3,PI,1,100,174284
1576518669.112036,91548.000,15505,3,PI,1,100,174298
1576518669.154443,91583.667,15524,3,PI,1,100,174274
1576518669.196850,91619.333,15524,3,PI,1,100,174129
1576518669.239257,91655.000,15524,3,PI,1,100,173997
1576518669.280871,91690.000,15542,3,PI,1,100,174008
1576518669.322486,91725.000,15542,3,PI,1,100,174001
1576518669.364100,91760.000,15542,3,PI,1,100,173958
1576518669.406507,91795.667,15559,3,PI,1,100,173944
1576518669.448914,91831.333,15559,3,PI,1,100,173984
1576518669.491321,91867.000,15559,3,PI,1,100,174010
1576518669.530161,91899.667,15575,3,PI,1,100,173967
1576518669.569001,91932.333,15575,3,PI,1,100,173994
1576518669.607841,91965.000,15575,3,PI,1,100,174024
1576518669.649059,91999.667,15593,3,PI,1,100,174039
1576518669.690277,92034.333,15593,3,PI,1,100,174058
1576518669.731495,92069.000,15593,3,PI,1,100,174099
1576518669.773110,92104.000,15611,2,PI,1,100,174160
1576518669.814724,92139.000,15611,2,PI,1,100,174186
1576518669.856339,92174.000,15629,3,PI,1,100,174191
1576518669.897953,92209.000,15629,3,PI,1,100,174240
1576518669.939567,92244.000,15629,3,PI,1,100,174257
1576518669.976723,92275.250,15647,4,PI,1,100,174115
1576518670.013879,92306.500,15647,4,PI,1,100,173972
1576518670.051034,92337.750,15647,4,PI,1,100,173973
1576518670.088190,92369.000,15647,4,PI,1,100,173994
1576518670.126237,92401.000,15666,3,PI,1,100,173944
1576518670.164285,92433.000,15666,3,PI,1,100,173930
1576518670.202332,92465.000,15666,3,PI,1,100,173926
1576518670.241965,92498.333,15684,3,PI,1,100,173908
1576518670.281598,92531.667,15684,3,PI,1,100,173902
1576518670.321230,92565.000,15684,3,PI,1,100,173920
1576518670.362052,92599.333,15702,3,PI,1,100,173897
1576518670.402874,92633.667,15702,3,PI,1,100,174028
1576518670.443696,92668.000,15702,3,PI,1,100,174066
1576518670.484914,92702.667,15719,3,PI,1,100,174031
1576518670.526132,92737.333,15719,3,PI,1,100,174102
1576518670.567349,92772.000,15719,3,PI,1,100,174200
1576518670.607379,92805.667,15737,3,PI,1,100,174166
1576518670.647408,92839.333,15737,3,PI,1,100,174183
1576518670.687437,92873.000,15737,3,PI,1,100,174214
1576518670.724691,92904.333,15753,3,PI,1,100,174232
1576518670.761946,92935.667,15753,3,PI,1,100,174071
1576518670.799201,92967.000,15753,3,PI,1,100,173973
1576518670.838041,92999.667,15771,3,PI,1,100,173934
1576518670.876881,93032.333,15771,3,PI,1,100,173939
1576518670.915721,93065.000,15771,3,PI,1,100,173971
1576518670.960902,93103.000,15789,3,PI,1,100,173964
1576518671.006084,93141.000,15789,3,PI,1,100,173979
1576518671.051265,93179.000,15789,3,PI,1,100,173983
1576518671.092285,93213.500,15808,2,PI,1,100,173970
1576518671.133305,93248.000,15808,2,PI,1,100,173975
1576518671.174919,93283.000,15826,3,PI,1,100,173998
1576518671.216534,93318.000,15826,3,PI,1,100,174011
1576518671.258148,93353.000,15826,3,PI,1,100,174101
1576518671.295898,93384.750,15844,4,PI,1,100,174182
1576518671.333648,93416.500,15844,4,PI,1,100,174126
1576518671.371398,93448.250,15844,4,PI,1,100,174164
1576518671.409149,93480.000,15844,4,PI,1,100,174291
1576518671.448385,93513.000,15862,3,PI,1,100,174284
1576518671.487622,93546.000,15862,3,PI,1,100,174314
1576518671.526858,93579.000,15862,3,PI,1,100,174300
1576518671.568076,93613.667,15880,3,PI,1,100,174160
1576518671.609294,93648.333,15880,3,PI,1,100,174039
1576518671.650512,93683.000,15880,3,PI,1,100,174035
1576518671.692126,93718.000,15897,2,PI,1,100,174039
1576518671.733741,93753.000,15897,2,PI,1,100,174054
1576518671.775355,93788.000,15915,3,PI,1,100,174066
1576518671.816969,93823.000,15915,3,PI,1,100,174097
1576518671.858584,93858.000,15915,3,PI,1,100,174076
1576518671.896631,93890.000,15931,4,PI,1,100,174094
1576518671.934679,93922.000,15931,4,PI,1,100,174110
1576518671.972726,93954.000,15931,4,PI,1,100,174127
1576518672.010773,93986.000,15931,4,PI,1,100,174155
1576518672.049217,94018.333,15949,3,PI,1,100,174181
1576518672.087661,94050.667,15949,3,PI,1,100,174193
1576518672.126105,94083.000,15949,3,PI,1,100,174307
1576518672.166926,94117.333,15968,3,PI,1,100,174321
1576518672.207748,94151.667,15968,3,PI,1,100,174301
1576518672.248570,94186.000,15968,3,PI,1,100,174391
1576518672.290184,94221.000,15986,3,PI,1,100,174479
1576518672.331799,94256.000,15986,3,PI,1,100,174428
1576518672.373413,94291.000,15986,3,PI,1,100,174253
1576518672.414433,94325.500,16004,2,PI,1,100,174141
1576518672.455453,94360.000,16004,2,PI,1,100,174158
1576518672.494095,94392.500,16022,4,PI,1,100,174145
1576518672.532737,94425.000,16022,4,PI,1,100,174151
1576518672.571378,94457.500,16022,4,PI,1,100,174158
1576518672.610020,94490.000,16022,4,PI,1,100,174200
1576518672.648464,94522.333,16040,3,PI,1,100,174199
1576518672.686908,94554.667,16040,3,PI,1,100,174210
1576518672.725352,94587.000,16040,3,PI,1,100,174235
1576518672.765777,94621.000,16058,3,PI,1,100,174255
1576518672.806202,94655.000,16058,3,PI,1,100,174294
1576518672.846628,94689.000,16058,3,PI,1,100,174292
1576518672.889035,94724.667,16075,3,PI,1,100,174345
1576518672.931442,94760.333,16075,3,PI,1,100,174353
1576518672.973849,94796.000,16075,3,PI,1,100,174445
1576518673.014274,94830.000,16096,4,PI,1,100,174491
1576518673.054699,94864.000,16096,4,PI,1,100,174491
1576518673.095125,94898.000,16096,4,PI,1,100,174533
1576518673.135550,94932.000,16096,4,PI,1,100,174473
1576518673.177561,94967.333,16117,3,PI,1,100,174295
1576518673.219572,95002.667,16117,3,PI,1,100,174161
1576518673.261582,95038.000,16117,3,PI,1,100,174246
1576518673.301611,95071.667,16135,3,PI,1,100,174301
1576518673.341640,95105.333,16135,3,PI,1,100,174240
1576518673.381670,95139.000,16135,3,PI,1,100,174273
1576518673.424077,95174.667,16152,3,PI,1,100,174346
1576518673.466484,95210.333,16152,3,PI,1,100,174280
1576518673.508891,95246.000,16152,3,PI,1,100,174245
1576518673.546145,95277.333,16170,3,PI,1,100,174338
1576518673.583400,95308.667,16170,3,PI,1,100,174374
1576518673.620655,95340.000,16170,3,PI,1,100,174359
1576518673.661873,95374.667,16186,3,PI,1,100,174414
1576518673.703091,95409.333,16186,3,PI,1,100,174443
1576518673.744309,95444.000,16186,3,PI,1,100,174474
1576518673.782753,95476.333,16204,3,PI,1,100,174476
1576518673.821197,95508.667,16204,3,PI,1,100,174557
1576518673.859640,95541.000,16204,3,PI,1,100,174609
1576518673.898084,95573.333,16222,3,PI,1,100,174440
1576518673.936528,95605.667,16222,3,PI,1,100,174257
1576518673.974972,95638.000,16222,3,PI,1,100,174321
1576518674.014208,95671.000,16240,3,PI,1,100,174335
1576518674.053444,95704.000,16240,3,PI,1,100,174322
1576518674.092681,95737.000,16240,3,PI,1,100,174337
1576518674.134295,95772.000,16259,3,PI,1,100,174352
1576518674.175909,95807.000,16259,3,PI,1,100,174343
1576518674.217524,95842.000,16259,3,PI,1,100,174338
1576518674.258742,95876.667,16277,3,PI,1,100,174346
1576518674.299960,95911.333,16277,3,PI,1,100,174390
1576518674.341178,95946.000,16277,3,PI,1,100,174440
1576518674.383981,95982.000,16295,3,PI,1,100,174448
1576518674.426785,96018.000,16295,3,PI,1,100,174468
1576518674.469588,96054.000,16295,3,PI,1,100,174489
1576518674.507635,96086.000,16313,3,PI,1,100,174513
1576518674.545683,96118.000,16313,3,PI,1,100,174525
1576518674.583730,96150.000,16313,3,PI,1,100,174399
1576518674.619003,96179.667,16330,3,PI,1,100,174211
1576518674.654276,96209.333,16330,3,PI,1,100,174219
1576518674.689549,96239.000,16330,3,PI,1,100,174236
1576518674.727597,96271.000,16348,4,PI,1,100,174252
1576518674.765644,96303.000,16348,4,PI,1,100,174233
1576518674.803692,96335.000,16348,4,PI,1,100,174214
1576518674.841739,96367.000,16348,4,PI,1,100,174187
1576518674.882164,96401.000,16366,3,PI,1,100,174108
1576518674.922590,96435.000,16366,3,PI,1,100,174167
1576518674.963015,96469.000,16366,3,PI,1,100,174232
1576518675.003441,96503.000,16384,3,PI,1,100,174208
1576518675.043866,96537.000,16384,3,PI,1,100,174237
1576518675.084291,96571.000,16384,3,PI,1,100,174299
1576518675.126500,96606.500,16401,2,PI,1,100,174351
1576518675.168709,96642.000,16401,2,PI,1,100,174343
1576518675.207054,96674.250,16419,4,PI,1,100,174352
1576518675.245399,96706.500,16419,4,PI,1,100,174227
1576518675.283743,96738.750,16419,4,PI,1,100,174042
1576518675.322088,96771.000,16419,4,PI,1,100,173975
1576518675.360928,96803.667,16437,3,PI,1,100,173957
1576518675.399768,96836.333,16437,3,PI,1,100,173927
1576518675.438608,96869.000,16437,3,PI,1,100,173948
1576518675.484978,96908.000,16455,2,PI,1,100,173960
1576518675.531349,96947.000,16455,2,PI,1,100,173950
1576518675.572567,96981.667,16473,3,PI,1,100,173912
1576518675.613785,97016.333,16473,3,PI,1,100,173907
1576518675.655003,97051.000,16473,3,PI,1,100,173909
1576518675.696617,97086.000,16491,3,PI,1,100,173933
1576518675.738231,97121.000,16491,3,PI,1,100,173956
1576518675.779846,97156.000,16491,3,PI,1,100,174043
1576518675.819082,97189.000,16509,3,PI,1,100,174082
1576518675.858319,97222.000,16509,3,PI,1,100,174024
1576518675.897555,97255.000,16509,3,PI,1,100,174014
1576518675.935602,97287.000,16526,3,PI,1,100,173881
1576518675.973650,97319.000,16526,3,PI,1,100,173736
1576518676.011697,97351.000,16526,3,PI,1,100,173706
1576518676.051330,97384.333,16544,3,PI,1,100,173742
1576518676.090963,97417.667,16544,3,PI,1,100,173682
1576518676.130595,97451.000,16544,3,PI,1,100,173724
1576518676.169039,97483.333,16563,3,PI,1,100,173722
1576518676.207483,97515.667,16563,3,PI,1,100,173701
1576518676.245927,97548.000,16563,3,PI,1,100,173720
1576518676.290315,97585.333,16579,3,PI,1,100,173757
1576518676.334704,97622.667,16579,3,PI,1,100,173777
1576518676.379093,97660.000,16579,3,PI,1,100,173807
1576518676.418725,97693.333,16597,3,PI,1,100,173835
1576518676.458358,97726.667,16597,3,PI,1,100,173847
1576518676.497991,97760.000,16597,3,PI,1,100,173880
1576518676.535246,97791.333,16615,3,PI,1,100,173898
1576518676.572500,97822.667,16615,3,PI,1,100,173820
1576518676.609755,97854.000,16615,3,PI,1,100,173706
1576518676.648595,97886.667,16633,3,PI,1,100,173520
1576518676.687435,97919.333,16633,3,PI,1,100,173485
1576518676.726275,97952.000,16633,3,PI,1,100,173523
1576518676.767493,97986.667,16651,3,PI,1,100,173491
1576518676.808712,98021.333,16651,3,PI,1,100,173446
1576518676.849930,98056.000,16651,3,PI,1,100,173475
1576518676.892336,98091.667,16669,3,PI,1,100,173437
1576518676.934743,98127.333,16669,3,PI,1,100,173428
1576518676.977150,98163.000,16669,3,PI,1,100,173469
1576518677.015198,98195.000,16687,3,PI,1,100,173505
1576518677.053245,98227.000,16687,3,PI,1,100,173577
1576518677.091293,98259.000,16687,3,PI,1,100,173596
1576518677.136474,98297.000,16705,3,PI,1,100,173622
1576518677.181655,98335.000,16705,3,PI,1,100,173659
1576518677.226837,98373.000,16705,3,PI,1,100,173695
1576518677.266073,98406.000,16723,3,PI,1,100,173756
1576518677.305310,98439.000,16723,3,PI,1,100,173709
1576518677.344546,98472.000,16723,3,PI,1,100,173552
1576518677.381801,98503.333,16739,3,PI,1,100,173411
1576518677.419055,98534.667,16739,3,PI,1,100,173347
1576518677.456310,98566.000,16739,3,PI,1,100,173274
1576518677.495943,98599.333,16757,3,PI,1,100,173233
1576518677.535576,98632.667,16757,3,PI,1,100,173213
1576518677.575208,98666.000,16757,3,PI,1,100,173211
1576518677.612859,98697.667,16775,3,PI,1,100,173220
1576518677.650511,98729.333,16775,3,PI,1,100,173214
1576518677.688162,98761.000,16775,3,PI,1,100,173215
1576518677.729380,98795.667,16793,3,PI,1,100,173241
1576518677.770598,98830.333,16793,3,PI,1,100,173276
1576518677.811816,98865.000,16793,3,PI,1,100,173299
1576518677.850260,98897.333,16811,3,PI,1,100,173319
1576518677.888703,98929.667,16811,3,PI,1,100,173374
1576518677.927147,98962.000,16811,3,PI,1,100,173428
1576518677.967275,98995.750,16829,4,PI,1,100,173490
1576518678.007403,99029.500,16829,4,PI,1,100,173515
1576518678.047531,99063.250,16829,4,PI,1,100,173546
1576518678.087660,99097.000,16829,4,PI,1,100,173407
1576518678.129274,99132.000,16848,2,PI,1,100,173233
1576518678.170888,99167.000,16848,2,PI,1,100,173150
1576518678.212899,99202.333,16866,3,PI,1,100,173113
1576518678.254910,99237.667,16866,3,PI,1,100,173129
1576518678.296920,99273.000,16866,3,PI,1,100,173132
1576518678.335760,99305.667,16883,3,PI,1,100,173123
1576518678.374600,99338.333,16883,3,PI,1,100,173084
1576518678.413440,99371.000,16883,3,PI,1,100,173182
1576518678.451785,99403.250,16901,4,PI,1,100,173181
1576518678.490130,99435.500,16901,4,PI,1,100,173180
1576518678.528475,99467.750,16901,4,PI,1,100,173198
1576518678.566819,99500.000,16901,4,PI,1,100,173242
1576518678.606452,99533.333,16919,3,PI,1,100,173309
1576518678.646085,99566.667,16919,3,PI,1,100,173363
1576518678.685717,99600.000,16919,3,PI,1,100,173408
1576518678.726539,99634.333,16935,3,PI,1,100,173430
1576518678.767361,99668.667,16935,3,PI,1,100,173506
1576518678.808182,99703.000,16935,3,PI,1,100,173589
1576518678.855147,99742.500,16953,2,PI,1,100,173600
1576518678.902112,99782.000,16953,2,PI,1,100,173473
1576518678.940952,99814.667,16971,3,PI,1,100,173332
1576518678.979792,99847.333,16971,3,PI,1,100,173293
1576518679.018632,99880.000,16971,3,PI,1,100,173290
1576518679.056917,99912.200,16992,5,PI,1,100,173295
1576518679.095203,99944.400,16992,5,PI,1,100,173263
1576518679.133488,99976.600,16992,5,PI,1,100,173384
1576518679.171773,100008.800,16992,5,PI,1,100,173429
1576518679.210058,100041.000,16992,5,PI,1,100,173340
1576518679.250880,100075.333,17013,3,PI,1,100,173417
1576518679.291702,100109.667,17013,3,PI,1,100,173504
1576518679.332524,100144.000,17013,3,PI,1,100,173511
1576518679.373742,100178.667,17029,3,PI,1,100,173516
1576518679.414960,100213.333,17029,3,PI,1,100,173551
1576518679.456178,100248.000,17029,3,PI,1,100,173632
1576518679.498188,100283.333,17047,3,PI,1,100,173631
1576518679.540199,100318.667,17047,3,PI,1,100,173660
1576518679.582210,100354.000,17047,3,PI,1,100,173703
1576518679.619464,100385.333,17065,3,PI,1,100,173764
1576518679.656719,100416.667,17065,3,PI,1,100,173754
1576518679.693974,100448.000,17065,3,PI,1,100,173624
1576518679.732418,100480.333,17083,3,PI,1,100,173503
1576518679.770861,100512.667,17083,3,PI,1,100,173498
1576518679.809305,100545.000,17083,3,PI,1,100,173520
1576518679.850127,100579.333,17101,3,PI,1,100,173510
1576518679.890949,100613.667,17101,3,PI,1,100,173514
1576518679.931770,100648.000,17101,3,PI,1,100,173520
1576518679.972988,100682.667,17119,3,PI,1,100,173554
1576518680.014206,100717.333,17119,3,PI,1,100,173611
1576518680.055424,100752.000,17119,3,PI,1,100,173566
1576518680.097039,100787.000,17138,3,PI,1,100,173602
1576518680.138653,100822.000,17138,3,PI,1,100,173704
1576518680.180268,100857.000,17138,3,PI,1,100,173761
1576518680.217522,100888.333,17155,3,PI,1,100,173780
1576518680.254777,100919.667,17155,3,PI,1,100,173831
1576518680.292032,100951.000,17155,3,PI,1,100,173852
1576518680.329287,100982.333,17173,3,PI,1,100,173890
1576518680.366541,101013.667,17173,3,PI,1,100,173947
1576518680.403796,101045.000,17173,3,PI,1,100,173944
1576518680.443825,101078.667,17191,3,PI,1,100,173802
1576518680.483854,101112.333,17191,3,PI,1,100,173694
1576518680.523883,101146.000,17191,3,PI,1,100,173693
1576518680.565101,101180.667,17208,3,PI,1,100,173739
1576518680.606319,101215.333,17208,3,PI,1,100,173728
1576518680.647537,101250.000,17208,3,PI,1,100,173744
1576518680.690341,101286.000,17225,3,PI,1,100,173758
1576518680.733144,101322.000,17225,3,PI,1,100,173752
1576518680.775947,101358.000,17225,3,PI,1,100,173729
1576518680.816769,101392.333,17243,3,PI,1,100,173717
1576518680.857591,101426.667,17243,3,PI,1,100,173797
1576518680.898412,101461.000,17243,3,PI,1,100,173843
1576518680.938442,101494.667,17261,3,PI,1,100,173889
1576518680.978471,101528.333,17261,3,PI,1,100,173916
1576518681.018500,101562.000,17261,3,PI,1,100,173944
1576518681.059321,101596.333,17279,3,PI,1,100,173989
1576518681.100143,101630.667,17279,3,PI,1,100,174029
1576518681.140965,101665.000,17279,3,PI,1,100,174054
1576518681.184561,101701.667,17298,3,PI,1,100,173994
1576518681.228157,101738.333,17298,3,PI,1,100,173847
1576518681.271753,101775.000,17298,3,PI,1,100,173804
1576518681.309800,101807.000,17315,3,PI,1,100,173810
1576518681.347848,101839.000,17315,3,PI,1,100,173827
1576518681.385895,101871.000,17315,3,PI,1,100,173800
1576518681.421961,101901.333,17333,3,PI,1,100,173879
1576518681.458027,101931.667,17333,3,PI,1,100,173874
1576518681.494092,101962.000,17333,3,PI,1,100,173894
1576518681.532140,101994.000,17351,3,PI,1,100,173901
1576518681.570187,102026.000,17351,3,PI,1,100,173905
1576518681.608235,102058.000,17351,3,PI,1,100,173934
1576518681.647471,102091.000,17369,3,PI,1,100,173958
1576518681.686707,102124.000,17369,3,PI,1,100,174020
1576518681.725944,102157.000,17369,3,PI,1,100,174101
1576518681.767162,102191.667,17385,3,PI,1,100,174078
1576518681.808380,102226.333,17385,3,PI,1,100,174108
1576518681.849598,102261.000,17385,3,PI,1,100,174199
1576518681.890816,102295.667,17403,3,PI,1,100,174099
1576518681.932034,102330.333,17403,3,PI,1,100,173943
1576518681.973252,102365.000,17403,3,PI,1,100,173924
1576518682.014470,102399.667,17421,3,PI,1,100,173956
1576518682.055688,102434.333,17421,3,PI,1,100,173980
1576518682.096906,102469.000,17421,3,PI,1,100,173993
1576518682.134954,102501.000,17440,3,PI,1,100,173995
1576518682.173001,102533.000,17440,3,PI,1,100,174027
1576518682.211048,102565.000,17440,3,PI,1,100,174048
1576518682.253455,102600.667,17458,3,PI,1,100,174071
1576518682.295862,102636.333,17458,3,PI,1,100,174099
1576518682.338269,102672.000,17458,3,PI,1,100,174141
1576518682.379488,102706.667,17476,3,PI,1,100,174165
1576518682.420706,102741.333,17476,3,PI,1,100,174184
1576518682.461924,102776.000,17476,3,PI,1,100,174213
1576518682.503142,102810.667,17494,3,PI,1,100,174213
1576518682.544360,102845.333,17494,3,PI,1,100,174286
1576518682.585578,102880.000,17494,3,PI,1,100,174302
1576518682.626796,102914.667,17511,3,PI,1,100,174094
1576518682.668014,102949.333,17511,3,PI,1,100,174018
1576518682.709232,102984.000,17511,3,PI,1,100,174080
1576518682.746487,103015.333,17529,3,PI,1,100,174087
1576518682.783741,103046.667,17529,3,PI,1,100,174077
1576518682.820996,103078.000,17529,3,PI,1,100,174098
1576518682.859440,103110.333,17547,3,PI,1,100,174135
1576518682.897884,103142.667,17547,3,PI,1,100,174115
1576518682.936327,103175.000,17547,3,PI,1,100,174118
1576518682.977545,103209.667,17563,3,PI,1,100,174151
1576518683.018764,103244.333,17563,3,PI,1,100,174191
1576518683.059982,103279.000,17563,3,PI,1,100,174223
1576518683.101596,103314.000,17582,3,PI,1,100,174264
1576518683.143210,103349.000,17582,3,PI,1,100,174288
1576518683.184824,103384.000,17582,3,PI,1,100,174312
1576518683.226043,103418.667,17600,3,PI,1,100,174343
1576518683.267261,103453.333,17600,3,PI,1,100,174291
1576518683.308479,103488.000,17600,3,PI,1,100,174162
1576518683.346526,103520.000,17618,3,PI,1,100,174049
1576518683.384573,103552.000,17618,3,PI,1,100,174094
1576518683.422621,103584.000,17618,3,PI,1,100,174148
1576518683.460668,103616.000,17636,3,PI,1,100,174074
1576518683.498716,103648.000,17636,3,PI,1,100,174092
1576518683.536763,103680.000,17636,3,PI,1,100,174190
1576518683.576792,103713.667,17654,3,PI,1,100,174189
1576518683.616821,103747.333,17654,3,PI,1,100,174164
1576518683.656850,103781.000,17654,3,PI,1,100,174193
1576518683.698465,103816.000,17672,3,PI,1,100,174208
1576518683.740079,103851.000,17672,3,PI,1,100,174234
1576518683.781693,103886.000,17672,3,PI,1,100,174274
1576518683.822912,103920.667,17689,3,PI,1,100,174287
1576518683.864130,103955.333,17689,3,PI,1,100,174332
1576518683.905348,103990.000,17689,3,PI,1,100,174379
1576518683.943395,104022.000,17707,3,PI,1,100,174346
1576518683.981442,104054.000,17707,3,PI,1,100,174196
1576518684.019490,104086.000,17707,3,PI,1,100,174099
1576518684.057934,104118.333,17725,3,PI,1,100,174112
1576518684.096377,104150.667,17725,3,PI,1,100,174117
1576518684.134821,104183.000,17725,3,PI,1,100,174117
1576518684.174454,104216.333,17742,3,PI,1,100,174076
1576518684.214087,104249.667,17742,3,PI,1,100,174140
1576518684.253719,104283.000,17742,3,PI,1,100,174161
1576518684.294937,104317.667,17760,3,PI,1,100,174108
1576518684.336155,104352.333,17760,3,PI,1,100,174135
1576518684.377373,104387.000,17760,3,PI,1,100,174239
1576518684.419384,104422.333,17778,3,PI,1,100,174247
1576518684.461395,104457.667,17778,3,PI,1,100,174231
1576518684.503405,104493.000,17778,3,PI,1,100,174260
1576518684.543831,104527.000,17796,3,PI,1,100,174288
1576518684.584256,104561.000,17796,3,PI,1,100,174309
1576518684.624681,104595.000,17796,3,PI,1,100,174231
1576518684.667485,104631.000,17814,3,PI,1,100,174122
1576518684.710288,104667.000,17814,3,PI,1,100,174032
1576518684.753092,104703.000,17814,3,PI,1,100,174036
1576518684.790743,104734.667,17832,3,PI,1,100,174038
1576518684.828394,104766.333,17832,3,PI,1,100,174048
1576518684.866045,104798.000,17832,3,PI,1,100,174041
1576518684.907659,104833.000,17849,2,PI,1,100,174020
1576518684.949274,104868.000,17849,2,PI,1,100,174071
1576518684.991185,104903.250,17867,4,PI,1,100,174069
1576518685.033097,104938.500,17867,4,PI,1,100,174072
1576518685.075008,104973.750,17867,4,PI,1,100,174132
1576518685.116920,105009.000,17867,4,PI,1,100,174160
1576518685.155443,105041.400,17887,5,PI,1,100,174133
1576518685.193966,105073.800,17887,5,PI,1,100,174189
1576518685.232489,105106.200,17887,5,PI,1,100,174255
1576518685.271012,105138.600,17887,5,PI,1,100,174230
1576518685.309535,105171.000,17887,5,PI,1,100,174115
1576518685.348375,105203.667,17907,3,PI,1,100,173958
1576518685.387215,105236.333,17907,3,PI,1,100,173910
1576518685.426055,105269.000,17907,3,PI,1,100,173911
1576518685.465688,105302.333,17925,3,PI,1,100,173897
1576518685.505321,105335.667,17925,3,PI,1,100,173853
1576518685.544954,105369.000,17925,3,PI,1,100,173906
1576518685.591918,105408.500,17942,2,PI,1,100,173903
1576518685.638883,105448.000,17942,2,PI,1,100,173882
1576518685.680497,105483.000,17960,3,PI,1,100,173882
1576518685.722112,105518.000,17960,3,PI,1,100,173889
1576518685.763726,105553.000,17960,3,PI,1,100,173911
1576518685.802170,105585.333,17976,3,PI,1,100,173919
1576518685.840614,105617.667,17976,3,PI,1,100,173920
1576518685.879057,105650.000,17976,3,PI,1,100,174000
1576518685.921068,105685.333,17994,3,PI,1,100,174049
1576518685.963079,105720.667,17994,3,PI,1,100,174071
1576518686.005090,105756.000,17994,3,PI,1,100,174049
1576518686.043930,105788.667,18012,3,PI,1,100,173892
1576518686.082770,105821.333,18012,3,PI,1,100,173771
1576518686.121610,105854.000,18012,3,PI,1,100,173675
1576518686.159657,105886.000,18031,3,PI,1,100,173728
1576518686.197705,105918.000,18031,3,PI,1,100,173715
1576518686.235752,105950.000,18031,3,PI,1,100,173632
1576518686.274988,105983.000,18049,3,PI,1,100,173691
1576518686.314225,106016.000,18049,3,PI,1,100,173714
1576518686.353461,106049.000,18049,3,PI,1,100,173680
1576518686.394283,106083.333,18067,3,PI,1,100,173665
1576518686.435105,106117.667,18067,3,PI,1,100,173686
1576518686.475926,106152.000,18067,3,PI,1,100,173731
1576518686.517144,106186.667,18085,3,PI,1,100,173771
1576518686.558362,106221.333,18085,3,PI,1,100,173776
1576518686.599580,106256.000,18085,3,PI,1,100,173819
1576518686.643176,106292.667,18102,3,PI,1,100,173879
1576518686.686772,106329.333,18102,3,PI,1,100,173912
1576518686.730368,106366.000,18102,3,PI,1,100,173921
1576518686.767623,106397.333,18120,3,PI,1,100,173804
1576518686.804878,106428.667,18120,3,PI,1,100,173647
1576518686.842133,106460.000,18120,3,PI,1,100,173597
1576518686.880973,106492.667,18138,3,PI,1,100,173585
1576518686.919813,106525.333,18138,3,PI,1,100,173522
1576518686.958653,106558.000,18138,3,PI,1,100,173601
1576518686.999871,106592.667,18154,3,PI,1,100,173640
1576518687.041089,106627.333,18154,3,PI,1,100,173533
1576518687.082307,106662.000,18154,3,PI,1,100,173589
1576518687.123921,106697.000,18173,3,PI,1,100,173653
1576518687.165536,106732.000,18173,3,PI,1,100,173630
1576518687.207150,106767.000,18173,3,PI,1,100,173643
1576518687.247179,106800.667,18191,3,PI,1,100,173676
1576518687.287208,106834.333,18191,3,PI,1,100,173749
1576518687.327237,106868.000,18191,3,PI,1,100,173757
1576518687.365285,106900.000,18209,3,PI,1,100,173788
1576518687.403332,106932.000,18209,3,PI,1,100,173798
1576518687.441380,106964.000,18209,3,PI,1,100,173733
1576518687.480616,106997.000,18227,3,PI,1,100,173564
1576518687.519852,107030.000,18227,3,PI,1,100,173512
1576518687.559089,107063.000,18227,3,PI,1,100,173526
1576518687.600307,107097.667,18245,3,PI,1,100,173502
1576518687.641525,107132.333,18245,3,PI,1,100,173488
1576518687.682743,107167.000,18245,3,PI,1,100,173502
1576518687.724357,107202.000,18263,3,PI,1,100,173477
1576518687.765971,107237.000,18263,3,PI,1,100,173492
1576518687.807586,107272.000,18263,3,PI,1,100,173558
1576518687.848408,107306.333,18280,3,PI,1,100,173547
1576518687.889229,107340.667,18280,3,PI,1,100,173563
1576518687.930051,107375.000,18280,3,PI,1,100,173664
1576518687.966909,107406.000,18298,3,PI,1,100,173714
1576518688.003768,107437.000,18298,3,PI,1,100,173711
1576518688.040626,107468.000,18298,3,PI,1,100,173739
1576518688.079466,107500.667,18316,3,PI,1,100,173807
1576518688.118306,107533.333,18316,3,PI,1,100,173794
1576518688.157146,107566.000,18316,3,PI,1,100,173752
1576518688.197968,107600.333,18335,3,PI,1,100,173561
1576518688.238790,107634.667,18335,3,PI,1,100,173467
1576518688.279612,107669.000,18335,3,PI,1,100,173485
1576518688.320830,107703.667,18351,3,PI,1,100,173495
1576518688.362048,107738.333,18351,3,PI,1,100,173441
1576518688.403266,107773.000,18351,3,PI,1,100,173446
1576518688.445673,107808.667,18369,3,PI,1,100,173457
1576518688.488080,107844.333,18369,3,PI,1,100,173442
1576518688.530487,107880.000,18369,3,PI,1,100,173436
1576518688.568534,107912.000,18387,3,PI,1,100,173455
1576518688.606582,107944.000,18387,3,PI,1,100,173474
1576518688.644629,107976.000,18387,3,PI,1,100,173600
1576518688.687036,108011.667,18405,3,PI,1,100,173588
1576518688.729443,108047.333,18405,3,PI,1,100,173644
1576518688.771850,108083.000,18405,3,PI,1,100,173670
1576518688.808709,108114.000,18423,3,PI,1,100,173694
1576518688.845567,108145.000,18423,3,PI,1,100,173699
1576518688.882425,108176.000,18423,3,PI,1,100,173776
1576518688.925229,108212.000,18441,3,PI,1,100,173741
1576518688.968032,108248.000,18441,3,PI,1,100,173579
1576518689.010835,108284.000,18441,3,PI,1,100,173473
1576518689.049279,108316.333,18458,3,PI,1,100,173441
1576518689.087723,108348.667,18458,3,PI,1,100,173443
1576518689.126167,108381.000,18458,3,PI,1,100,173434
1576518689.164214,108413.000,18477,3,PI,1,100,173427
1576518689.202261,108445.000,18477,3,PI,1,100,173447
1576518689.240309,108477.000,18477,3,PI,1,100,173446
1576518689.278753,108509.333,18495,3,PI,1,100,173452
1576518689.317196,108541.667,18495,3,PI,1,100,173470
1576518689.355640,108574.000,18495,3,PI,1,100,173502
1576518689.395669,108607.667,18511,3,PI,1,100,173492
1576518689.435698,108641.333,18511,3,PI,1,100,173593
1576518689.475727,108675.000,18511,3,PI,1,100,173678
1576518689.516945,108709.667,18529,3,PI,1,100,173658
1576518689.558163,108744.333,18529,3,PI,1,100,173671
1576518689.599381,108779.000,18529,3,PI,1,100,173823
1576518689.640203,108813.333,18547,3,PI,1,100,173861
1576518689.681025,108847.667,18547,3,PI,1,100,173844
1576518689.721847,108882.000,18547,3,PI,1,100,173708
1576518689.761479,108915.333,18565,3,PI,1,100,173568
1576518689.801112,108948.667,18565,3,PI,1,100,173532
1576518689.840745,108982.000,18565,3,PI,1,100,173558
1576518689.878792,109014.000,18583,3,PI,1,100,173562
1576518689.916840,109046.000,18583,3,PI,1,100,173545
1576518689.954887,109078.000,18583,3,PI,1,100,173607
1576518689.998087,109114.333,18601,3,PI,1,100,173628
1576518690.041286,109150.667,18601,3,PI,1,100,173621
1576518690.084486,109187.000,18601,3,PI,1,100,173628
1576518690.125308,109221.333,18620,3,PI,1,100,173656
1576518690.166129,109255.667,18620,3,PI,1,100,173693
1576518690.206951,109290.000,18620,3,PI,1,100,173718
1576518690.247773,109324.333,18638,3,PI,1,100,173740
1576518690.288594,109358.667,18638,3,PI,1,100,173778
1576518690.329416,109393.000,18638,3,PI,1,100,173857
1576518690.369445,109426.667,18655,3,PI,1,100,173892
1576518690.409474,109460.333,18655,3,PI,1,100,173816
1576518690.449503,109494.000,18655,3,PI,1,100,173713
1576518690.487154,109525.667,18673,3,PI,1,100,173630
1576518690.524806,109557.333,18673,3,PI,1,100,173608
1576518690.562457,109589.000,18673,3,PI,1,100,173601
1576518690.601693,109622.000,18690,3,PI,1,100,173612
1576518690.640929,109655.000,18690,3,PI,1,100,173651
1576518690.680166,109688.000,18690,3,PI,1,100,173690
1576518690.721384,109722.667,18707,3,PI,1,100,173680
1576518690.762602,109757.333,18707,3,PI,1,100,173649
1576518690.803820,109792.000,18707,3,PI,1,100,173716
1576518690.844642,109826.333,18725,3,PI,1,100,173781
1576518690.885463,109860.667,18725,3,PI,1,100,173788
1576518690.926285,109895.000,18725,3,PI,1,100,173836
1576518690.967107,109929.333,18743,3,PI,1,100,173877
1576518691.007929,109963.667,18743,3,PI,1,100,173888
1576518691.048750,109998.000,18743,3,PI,1,100,173917
1576518691.086401,110029.667,18761,3,PI,1,100,173946
1576518691.124053,110061.333,18761,3,PI,1,100,173893
1576518691.161704,110093.000,18761,3,PI,1,100,173748
1576518691.200940,110126.000,18783,5,PI,1,100,173714
1576518691.240176,110159.000,18783,5,PI,1,100,173638
1576518691.279413,110192.000,18783,5,PI,1,100,173634
1576518691.318649,110225.000,18783,5,PI,1,100,173711
1576518691.357886,110258.000,18783,5,PI,1,100,173711
1576518691.399104,110292.667,18803,3,PI,1,100,173702
1576518691.440322,110327.333,18803,3,PI,1,100,173687
1576518691.481540,110362.000,18803,3,PI,1,100,173727
1576518691.523550,110397.333,18821,3,PI,1,100,173705
1576518691.565561,110432.667,18821,3,PI,1,100,173746
1576518691.607572,110468.000,18821,3,PI,1,100,173776
1576518691.646015,110500.333,18839,3,PI,1,100,173813
1576518691.684459,110532.667,18839,3,PI,1,100,173861
1576518691.722903,110565.000,18839,3,PI,1,100,173911
1576518691.760158,110596.333,18857,3,PI,1,100,173930
1576518691.797412,110627.667,18857,3,PI,1,100,173966
1576518691.834667,110659.000,18857,3,PI,1,100,173877
1576518691.873904,110692.000,18875,3,PI,1,100,173707
1576518691.913140,110725.000,18875,3,PI,1,100,173636
1576518691.952376,110758.000,18875,3,PI,1,100,173626
1576518691.993198,110792.333,18893,3,PI,1,100,173596
1576518692.034020,110826.667,18893,3,PI,1,100,173693
1576518692.074841,110861.000,18893,3,PI,1,100,173665
1576518692.116060,110895.667,18912,3,PI,1,100,173628
1576518692.157278,110930.333,18912,3,PI,1,100,173689
1576518692.198496,110965.000,18912,3,PI,1,100,173753
1576518692.238128,110998.333,18930,3,PI,1,100,173713
1576518692.277761,111031.667,18930,3,PI,1,100,173759
1576518692.317394,111065.000,18930,3,PI,1,100,173786
1576518692.356630,111098.000,18947,3,PI,1,100,173829
1576518692.395867,111131.000,18947,3,PI,1,100,173880
1576518692.435103,111164.000,18947,3,PI,1,100,173917
1576518692.475132,111197.667,18965,3,PI,1,100,173999
1576518692.515161,111231.333,18965,3,PI,1,100,173896
1576518692.555190,111265.000,18965,3,PI,1,100,173708
1576518692.592643,111296.500,18981,4,PI,1,100,173635
1576518692.630096,111328.000,18981,4,PI,1,100,173643
1576518692.667549,111359.500,18981,4,PI,1,100,173645
1576518692.705002,111391.000,18981,4,PI,1,100,173682
