47944,7524,3,EL,1,100,0.373224
47944,7524,3,EL,1,100,0.373425
47944,7524,3,EL,1,100,0.373224
47994,7542,2,EL,1,100,0.367584
48044,7542,2,EL,1,100,0.372015
48094,7560,2,EL,1,100,0.371210
48145,7560,2,EL,1,100,0.372418
48179,7578,3,EL,1,100,0.374030
48213,7578,3,EL,1,100,0.372418
48248,7578,3,EL,1,100,0.374030
48297,7596,2,EL,1,100,0.372418
48347,7596,2,EL,1,100,0.373627
48397,7614,2,EL,1,100,0.371411
48448,7614,2,EL,1,100,0.373425
48498,7632,2,EL,1,100,0.372418
48549,7632,2,EL,1,100,0.372217
48600,7650,2,EL,1,100,0.372418
48651,7650,2,EL,1,100,0.371613
48701,7669,2,EL,1,100,0.375238
48751,7669,2,EL,1,100,0.371411
48801,7687,2,EL,1,100,0.373022
48852,7687,2,EL,1,100,0.372015
48905,7708,3,EL,1,100,0.374030
48958,7708,3,EL,1,100,0.373022
49012,7708,3,EL,1,100,0.374432
49063,7728,2,EL,1,100,0.374231
49114,7728,2,EL,1,100,0.373425
49163,7746,2,EL,1,100,0.374030
49213,7746,2,EL,1,100,0.373425
49263,7764,2,EL,1,100,0.373022
49314,7764,2,EL,1,100,0.370404
49364,7782,2,EL,1,100,0.373627
49415,7782,2,EL,1,100,0.371814
49465,7801,2,EL,1,100,0.373224
49516,7801,2,EL,1,100,0.372620
49550,7819,3,EL,1,100,0.374231
49584,7819,3,EL,1,100,0.372620
49619,7819,3,EL,1,100,0.374634
49669,7837,2,EL,1,100,0.373627
49719,7837,2,EL,1,100,0.374634
49769,7855,2,EL,1,100,0.372418
49819,7855,2,EL,1,100,0.375037
49869,7873,2,EL,1,100,0.373828
49920,7873,2,EL,1,100,0.374432
49970,7891,2,EL,1,100,0.375641
50021,7891,2,EL,1,100,0.373425
50071,7909,2,EL,1,100,0.375439
50122,7909,2,EL,1,100,0.374030
50172,7928,2,EL,1,100,0.374634
50223,7928,2,EL,1,100,0.374432
50273,7946,2,EL,1,100,0.375037
50324,7946,2,EL,1,100,0.373627
50374,7964,2,EL,1,100,0.375439
50425,7964,2,EL,1,100,0.374432
50475,7982,2,EL,1,100,0.375842
50526,7982,2,EL,1,100,0.373224
50577,8000,2,EL,1,100,0.374634
50629,8000,2,EL,1,100,0.374634
50678,8018,2,EL,1,100,0.376447
50728,8018,2,EL,1,100,0.373425
50778,8036,2,EL,1,100,0.374432
50829,8036,2,EL,1,100,0.374030
50879,8055,2,EL,1,100,0.376245
50930,8055,2,EL,1,100,0.373828
50980,8073,2,EL,1,100,0.374432
51031,8073,2,EL,1,100,0.373627
51065,8091,3,EL,1,100,0.376044
51099,8091,3,EL,1,100,0.374634
51133,8091,3,EL,1,100,0.374835
51183,8109,2,EL,1,100,0.374030
51233,8109,2,EL,1,100,0.374231
51283,8127,2,EL,1,100,0.374231
51334,8127,2,EL,1,100,0.373828
51384,8145,2,EL,1,100,0.373627
51435,8145,2,EL,1,100,0.374432
51486,8163,2,EL,1,100,0.373828
51537,8163,2,EL,1,100,0.374432
51587,8181,2,EL,1,100,0.373425
51637,8181,2,EL,1,100,0.372015
51687,8200,2,EL,1,100,0.375238
51738,8200,2,EL,1,100,0.374231
51788,8218,2,EL,1,100,0.374835
51839,8218,2,EL,1,100,0.373224
51889,8236,2,EL,1,100,0.374634
51940,8236,2,EL,1,100,0.372821
51990,8254,2,EL,1,100,0.374030
52041,8254,2,EL,1,100,0.373224
52091,8272,2,EL,1,100,0.373627
52142,8272,2,EL,1,100,0.373224
52192,8290,2,EL,1,100,0.373022
52243,8290,2,EL,1,100,0.372418
52293,8308,2,EL,1,100,0.373828
52344,8308,2,EL,1,100,0.373224
52394,8327,2,EL,1,100,0.373022
52445,8327,2,EL,1,100,0.372217
52495,8345,2,EL,1,100,0.372620
52546,8345,2,EL,1,100,0.373425
52596,8363,2,EL,1,100,0.373425
52647,8363,2,EL,1,100,0.371210
52681,8381,3,EL,1,100,0.374231
52715,8381,3,EL,1,100,0.372015
52749,8381,3,EL,1,100,0.373224
52799,8399,2,EL,1,100,0.373425
52849,8399,2,EL,1,100,0.373425
52900,8417,2,EL,1,100,0.371008
52952,8417,2,EL,1,100,0.373224
53001,8435,2,EL,1,100,0.373224
53051,8435,2,EL,1,100,0.371613
53101,8453,2,EL,1,100,0.372821
53152,8453,2,EL,1,100,0.372620
53202,8472,2,EL,1,100,0.372217
53253,8472,2,EL,1,100,0.372015
53303,8490,2,EL,1,100,0.372620
53354,8490,2,EL,1,100,0.371814
53405,8508,2,EL,1,100,0.372418
53456,8508,2,EL,1,100,0.371411
53506,8526,2,EL,1,100,0.372015
53556,8526,2,EL,1,100,0.370605
53606,8544,2,EL,1,100,0.371814
53657,8544,2,EL,1,100,0.372217
53707,8562,2,EL,1,100,0.371613
53758,8562,2,EL,1,100,0.370807
53808,8580,2,EL,1,100,0.371411
53859,8580,2,EL,1,100,0.371008
53909,8599,2,EL,1,100,0.371210
53960,8599,2,EL,1,100,0.371411
54010,8617,2,EL,1,100,0.372620
54061,8617,2,EL,1,100,0.370203
54111,8635,2,EL,1,100,0.371613
54162,8635,2,EL,1,100,0.372620
54212,8653,2,EL,1,100,0.371210
54263,8653,2,EL,1,100,0.370605
54297,8671,3,EL,1,100,0.371210
54331,8671,3,EL,1,100,0.371613
54365,8671,3,EL,1,100,0.372418
54415,8689,2,EL,1,100,0.372418
54465,8689,2,EL,1,100,0.372217
54515,8707,2,EL,1,100,0.369397
54566,8707,2,EL,1,100,0.371814
54617,8726,2,EL,1,100,0.372015
54668,8726,2,EL,1,100,0.370605
54718,8744,2,EL,1,100,0.371613
54768,8744,2,EL,1,100,0.368591
54818,8762,2,EL,1,100,0.372217
54869,8762,2,EL,1,100,0.372015
54919,8780,2,EL,1,100,0.371613
54970,8780,2,EL,1,100,0.371210
55020,8798,2,EL,1,100,0.371613
55071,8798,2,EL,1,100,0.371613
55121,8816,2,EL,1,100,0.371613
55172,8816,2,EL,1,100,0.367181
55222,8834,2,EL,1,100,0.371210
55273,8834,2,EL,1,100,0.371210
55324,8852,2,EL,1,100,0.370807
55375,8852,2,EL,1,100,0.371008
55425,8871,2,EL,1,100,0.372015
55475,8871,2,EL,1,100,0.371411
55525,8889,2,EL,1,100,0.373627
55576,8889,2,EL,1,100,0.371008
55626,8907,2,EL,1,100,0.373022
55677,8907,2,EL,1,100,0.371411
55727,8925,2,EL,1,100,0.372821
55778,8925,2,EL,1,100,0.371210
55812,8943,3,EL,1,100,0.373022
55846,8943,3,EL,1,100,0.370807
55880,8943,3,EL,1,100,0.371210
55930,8961,2,EL,1,100,0.370605
55980,8961,2,EL,1,100,0.373022
56030,8979,2,EL,1,100,0.371814
56081,8979,2,EL,1,100,0.372217
56132,8998,2,EL,1,100,0.372821
56184,8998,2,EL,1,100,0.372217
56233,9016,2,EL,1,100,0.371814
56283,9016,2,EL,1,100,0.372418
56333,9034,2,EL,1,100,0.373224
56384,9034,2,EL,1,100,0.372217
56434,9052,2,EL,1,100,0.372620
56485,9052,2,EL,1,100,0.372015
56535,9070,2,EL,1,100,0.372620
56586,9070,2,EL,1,100,0.371411
56636,9088,2,EL,1,100,0.374634
56687,9088,2,EL,1,100,0.372217
56737,9106,2,EL,1,100,0.373425
56788,9106,2,EL,1,100,0.373828
56838,9125,2,EL,1,100,0.372015
56889,9125,2,EL,1,100,0.373022
56940,9143,2,EL,1,100,0.373828
56992,9143,2,EL,1,100,0.371814
57041,9161,2,EL,1,100,0.374030
57091,9161,2,EL,1,100,0.371411
57141,9179,2,EL,1,100,0.374030
57192,9179,2,EL,1,100,0.372418
57242,9197,2,EL,1,100,0.374432
57293,9197,2,EL,1,100,0.372821
57327,9215,3,EL,1,100,0.374231
57361,9215,3,EL,1,100,0.373022
57395,9215,3,EL,1,100,0.374835
57445,9233,2,EL,1,100,0.373627
57495,9233,2,EL,1,100,0.375037
57545,9251,2,EL,1,100,0.374835
57596,9251,2,EL,1,100,0.373224
57647,9270,2,EL,1,100,0.376044
57698,9270,2,EL,1,100,0.374835
57748,9288,2,EL,1,100,0.375238
57798,9288,2,EL,1,100,0.373022
57848,9306,2,EL,1,100,0.375238
57899,9306,2,EL,1,100,0.374231
57949,9324,2,EL,1,100,0.374634
58000,9324,2,EL,1,100,0.372015
58051,9342,2,EL,1,100,0.374835
58102,9342,2,EL,1,100,0.374030
58152,9360,2,EL,1,100,0.374835
58202,9360,2,EL,1,100,0.373828
58252,9378,2,EL,1,100,0.374432
58303,9378,2,EL,1,100,0.373828
58353,9397,2,EL,1,100,0.375842
58404,9397,2,EL,1,100,0.374432
58455,9415,2,EL,1,100,0.375037
58506,9415,2,EL,1,100,0.374432
58556,9433,2,EL,1,100,0.375641
58606,9433,2,EL,1,100,0.373022
58656,9451,2,EL,1,100,0.375641
58707,9451,2,EL,1,100,0.372620
58757,9469,2,EL,1,100,0.375641
58808,9469,2,EL,1,100,0.375439
58858,9487,2,EL,1,100,0.376044
58909,9487,2,EL,1,100,0.374835
58943,9505,3,EL,1,100,0.376849
58977,9505,3,EL,1,100,0.375037
59011,9505,3,EL,1,100,0.376447
59061,9523,2,EL,1,100,0.374231
59111,9523,2,EL,1,100,0.375439
59161,9542,2,EL,1,100,0.374030
59212,9542,2,EL,1,100,0.375439
59263,9560,2,EL,1,100,0.375037
59314,9560,2,EL,1,100,0.373828
59364,9578,2,EL,1,100,0.375641
59414,9578,2,EL,1,100,0.373828
59464,9596,2,EL,1,100,0.376849
59515,9596,2,EL,1,100,0.374231
59565,9614,2,EL,1,100,0.375037
59616,9614,2,EL,1,100,0.374231
59666,9632,2,EL,1,100,0.376648
59717,9632,2,EL,1,100,0.376245
59763,9653,4,EL,1,100,0.376849
59809,9653,4,EL,1,100,0.375238
59855,9653,4,EL,1,100,0.375842
59901,9653,4,EL,1,100,0.376648
59952,9674,2,EL,1,100,0.375439
60003,9674,2,EL,1,100,0.375439
60053,9692,2,EL,1,100,0.376447
60104,9692,2,EL,1,100,0.374432
60155,9710,2,EL,1,100,0.377454
60206,9710,2,EL,1,100,0.376447
60256,9728,2,EL,1,100,0.377454
60307,9728,2,EL,1,100,0.376849
60357,9746,2,EL,1,100,0.377856
60408,9746,2,EL,1,100,0.374432
60459,9764,2,EL,1,100,0.376849
60510,9764,2,EL,1,100,0.374231
60560,9782,2,EL,1,100,0.377454
60610,9782,2,EL,1,100,0.374634
60660,9801,2,EL,1,100,0.377252
60711,9801,2,EL,1,100,0.375842
60761,9819,2,EL,1,100,0.376447
60812,9819,2,EL,1,100,0.374835
60862,9837,2,EL,1,100,0.378461
60913,9837,2,EL,1,100,0.375439
60947,9855,3,EL,1,100,0.378058
60981,9855,3,EL,1,100,0.377252
61015,9855,3,EL,1,100,0.377051
61065,9873,2,EL,1,100,0.376245
61115,9873,2,EL,1,100,0.377454
61165,9891,2,EL,1,100,0.375238
61216,9891,2,EL,1,100,0.377051
61267,9909,2,EL,1,100,0.376447
61318,9909,2,EL,1,100,0.375037
61368,9928,2,EL,1,100,0.378058
61418,9928,2,EL,1,100,0.376648
61468,9946,2,EL,1,100,0.376849
61519,9946,2,EL,1,100,0.376648
61569,9964,2,EL,1,100,0.376849
61620,9964,2,EL,1,100,0.377856
61670,9982,2,EL,1,100,0.377252
61721,9982,2,EL,1,100,0.375238
61771,10000,2,EL,1,100,0.378461
61822,10000,2,EL,1,100,0.377051
61872,10018,2,EL,1,100,0.379065
61923,10018,2,EL,1,100,0.375842
61973,10036,2,EL,1,100,0.379266
62024,10036,2,EL,1,100,0.376245
62074,10055,2,EL,1,100,0.377655
62125,10055,2,EL,1,100,0.377856
62175,10073,2,EL,1,100,0.377454
62226,10073,2,EL,1,100,0.376648
62276,10091,2,EL,1,100,0.378058
62327,10091,2,EL,1,100,0.375037
62377,10109,2,EL,1,100,0.378058
62428,10109,2,EL,1,100,0.375238
62462,10127,3,EL,1,100,0.378259
62496,10127,3,EL,1,100,0.377856
62530,10127,3,EL,1,100,0.376849
62580,10145,2,EL,1,100,0.375842
62630,10145,2,EL,1,100,0.378058
62680,10163,2,EL,1,100,0.375238
62731,10163,2,EL,1,100,0.378259
62782,10181,2,EL,1,100,0.376044
62833,10181,2,EL,1,100,0.376245
62883,10200,2,EL,1,100,0.377655
62933,10200,2,EL,1,100,0.376044
62983,10218,2,EL,1,100,0.377454
63034,10218,2,EL,1,100,0.377051
63084,10236,2,EL,1,100,0.377051
63135,10236,2,EL,1,100,0.375842
63185,10254,2,EL,1,100,0.378058
63236,10254,2,EL,1,100,0.372821
63287,10272,2,EL,1,100,0.378058
63339,10272,2,EL,1,100,0.375641
63388,10290,2,EL,1,100,0.379065
63438,10290,2,EL,1,100,0.376849
63488,10308,2,EL,1,100,0.380475
63539,10308,2,EL,1,100,0.377655
63590,10327,2,EL,1,100,0.377856
63641,10327,2,EL,1,100,0.376044
63691,10345,2,EL,1,100,0.378259
63741,10345,2,EL,1,100,0.378662
63791,10363,2,EL,1,100,0.377856
63842,10363,2,EL,1,100,0.377655
63892,10381,2,EL,1,100,0.380072
63943,10381,2,EL,1,100,0.376849
63993,10399,2,EL,1,100,0.379468
64044,10399,2,EL,1,100,0.377252
64078,10417,3,EL,1,100,0.381281
64112,10417,3,EL,1,100,0.378662
64146,10417,3,EL,1,100,0.377454
64196,10435,2,EL,1,100,0.377655
64246,10435,2,EL,1,100,0.380878
64297,10454,2,EL,1,100,0.379266
64348,10454,2,EL,1,100,0.378461
64398,10472,2,EL,1,100,0.380676
64448,10472,2,EL,1,100,0.380072
64498,10490,2,EL,1,100,0.379468
64549,10490,2,EL,1,100,0.380273
64599,10508,2,EL,1,100,0.379468
64650,10508,2,EL,1,100,0.378259
64700,10526,2,EL,1,100,0.379266
64751,10526,2,EL,1,100,0.375439
64801,10544,2,EL,1,100,0.379266
64852,10544,2,EL,1,100,0.376044
64902,10562,2,EL,1,100,0.378259
64953,10562,2,EL,1,100,0.378259
65003,10580,2,EL,1,100,0.379266
65054,10580,2,EL,1,100,0.375238
65104,10599,2,EL,1,100,0.379871
65155,10599,2,EL,1,100,0.378864
65206,10617,2,EL,1,100,0.379266
65258,10617,2,EL,1,100,0.379669
65307,10635,2,EL,1,100,0.380475
65357,10635,2,EL,1,100,0.378461
65407,10653,2,EL,1,100,0.379669
65458,10653,2,EL,1,100,0.377252
65508,10671,2,EL,1,100,0.380878
65559,10671,2,EL,1,100,0.378058
65609,10689,2,EL,1,100,0.379669
65660,10689,2,EL,1,100,0.378461
65694,10707,3,EL,1,100,0.379669
65728,10707,3,EL,1,100,0.378461
65762,10707,3,EL,1,100,0.380273
65812,10726,2,EL,1,100,0.378259
65862,10726,2,EL,1,100,0.381683
65912,10744,2,EL,1,100,0.380475
65963,10744,2,EL,1,100,0.381281
66013,10762,2,EL,1,100,0.381079
66064,10762,2,EL,1,100,0.382892
66114,10780,2,EL,1,100,0.382086
66165,10780,2,EL,1,100,0.382288
66215,10798,2,EL,1,100,0.381079
66266,10798,2,EL,1,100,0.379468
66316,10816,2,EL,1,100,0.380072
66367,10816,2,EL,1,100,0.378662
66418,10834,2,EL,1,100,0.381079
66469,10834,2,EL,1,100,0.377051
66519,10852,2,EL,1,100,0.380273
66569,10852,2,EL,1,100,0.380273
66619,10871,2,EL,1,100,0.381281
66670,10871,2,EL,1,100,0.379266
66721,10889,2,EL,1,100,0.381683
66773,10889,2,EL,1,100,0.380475
66822,10907,2,EL,1,100,0.382690
66872,10907,2,EL,1,100,0.381281
66922,10925,2,EL,1,100,0.382086
66973,10925,2,EL,1,100,0.379468
67023,10943,2,EL,1,100,0.381281
67074,10943,2,EL,1,100,0.379266
67124,10961,2,EL,1,100,0.381885
67175,10961,2,EL,1,100,0.379266
67209,10979,3,EL,1,100,0.381683
67243,10979,3,EL,1,100,0.378259
67278,10979,3,EL,1,100,0.377454
67333,10998,4,EL,1,100,0.379468
67389,10998,4,EL,1,100,0.378259
67444,10998,4,EL,1,100,0.379065
67500,10998,4,EL,1,100,0.377655
67556,11016,2,EL,1,100,0.378058
67613,11016,2,EL,1,100,0.376245
67663,11034,2,EL,1,100,0.373627
67713,11034,2,EL,1,100,0.375037
67747,11052,3,EL,1,100,0.375842
67781,11052,3,EL,1,100,0.375439
67816,11052,3,EL,1,100,0.374231
67866,11070,2,EL,1,100,0.372418
67916,11070,2,EL,1,100,0.372620
67966,11088,2,EL,1,100,0.371613
68016,11088,2,EL,1,100,0.371411
68066,11107,2,EL,1,100,0.367987
68117,11107,2,EL,1,100,0.369397
68167,11125,2,EL,1,100,0.368390
68218,11125,2,EL,1,100,0.368793
68268,11143,2,EL,1,100,0.368188
68319,11143,2,EL,1,100,0.365771
68369,11161,2,EL,1,100,0.365973
68420,11161,2,EL,1,100,0.364563
68470,11179,2,EL,1,100,0.364764
68521,11179,2,EL,1,100,0.362146
68572,11197,2,EL,1,100,0.362146
68624,11197,2,EL,1,100,0.358722
68674,11215,2,EL,1,100,0.359528
68724,11215,2,EL,1,100,0.356506
68774,11234,2,EL,1,100,0.359930
68825,11234,2,EL,1,100,0.357312
68875,11252,2,EL,1,100,0.357715
68926,11252,2,EL,1,100,0.354492
68976,11270,2,EL,1,100,0.357111
69027,11270,2,EL,1,100,0.351874
69077,11288,2,EL,1,100,0.354492
69128,11288,2,EL,1,100,0.351874
69178,11306,2,EL,1,100,0.353082
69229,11306,2,EL,1,100,0.350061
69263,11324,3,EL,1,100,0.351471
69297,11324,3,EL,1,100,0.348853
69331,11324,3,EL,1,100,0.348450
69381,11342,2,EL,1,100,0.348047
69432,11342,2,EL,1,100,0.349054
69482,11360,2,EL,1,100,0.347443
69532,11360,2,EL,1,100,0.347443
69582,11379,2,EL,1,100,0.346436
69633,11379,2,EL,1,100,0.345026
69683,11397,2,EL,1,100,0.344220
69734,11397,2,EL,1,100,0.342407
69784,11415,2,EL,1,100,0.344623
69835,11415,2,EL,1,100,0.342004
69885,11433,2,EL,1,100,0.341803
69936,11433,2,EL,1,100,0.340594
69986,11451,2,EL,1,100,0.342407
70037,11451,2,EL,1,100,0.340393
70087,11469,2,EL,1,100,0.340393
70138,11469,2,EL,1,100,0.337775
70189,11487,2,EL,1,100,0.339386
70240,11487,2,EL,1,100,0.337976
70290,11506,2,EL,1,100,0.339386
70340,11506,2,EL,1,100,0.334149
70390,11524,2,EL,1,100,0.336969
70441,11524,2,EL,1,100,0.334149
70491,11542,2,EL,1,100,0.337372
70542,11542,2,EL,1,100,0.334351
70592,11560,2,EL,1,100,0.336969
70643,11560,2,EL,1,100,0.333545
70695,11581,3,EL,1,100,0.335559
70748,11581,3,EL,1,100,0.333142
70801,11581,3,EL,1,100,0.336365
70834,11600,3,EL,1,100,0.335358
70868,11600,3,EL,1,100,0.333948
70902,11600,3,EL,1,100,0.330725
70952,11619,2,EL,1,100,0.333344
71002,11619,2,EL,1,100,0.333545
71052,11638,2,EL,1,100,0.332538
71103,11638,2,EL,1,100,0.333142
71153,11656,2,EL,1,100,0.333746
71204,11656,2,EL,1,100,0.331934
71254,11674,2,EL,1,100,0.332941
71305,11674,2,EL,1,100,0.331329
71355,11692,2,EL,1,100,0.333344
71406,11692,2,EL,1,100,0.332336
71456,11710,2,EL,1,100,0.334149
71507,11710,2,EL,1,100,0.330725
71557,11728,2,EL,1,100,0.333142
71608,11728,2,EL,1,100,0.333948
71658,11746,2,EL,1,100,0.333344
71709,11746,2,EL,1,100,0.331531
71760,11765,2,EL,1,100,0.332941
71811,11765,2,EL,1,100,0.333142
71861,11783,2,EL,1,100,0.334149
71911,11783,2,EL,1,100,0.331329
71961,11801,2,EL,1,100,0.333948
72012,11801,2,EL,1,100,0.330927
72062,11819,2,EL,1,100,0.333344
72113,11819,2,EL,1,100,0.331732
72147,11837,3,EL,1,100,0.332336
72181,11837,3,EL,1,100,0.332538
72216,11837,3,EL,1,100,0.331732
72265,11855,2,EL,1,100,0.332538
72315,11855,2,EL,1,100,0.329718
72365,11873,2,EL,1,100,0.331329
72416,11873,2,EL,1,100,0.333344
72466,11891,2,EL,1,100,0.331329
72517,11891,2,EL,1,100,0.332739
72568,11910,2,EL,1,100,0.330121
72620,11910,2,EL,1,100,0.332538
72669,11928,2,EL,1,100,0.333142
72719,11928,2,EL,1,100,0.328912
72769,11946,2,EL,1,100,0.333142
72820,11946,2,EL,1,100,0.331732
72870,11964,2,EL,1,100,0.333344
72921,11964,2,EL,1,100,0.332739
72971,11982,2,EL,1,100,0.333344
73022,11982,2,EL,1,100,0.333746
73072,12000,2,EL,1,100,0.333746
73123,12000,2,EL,1,100,0.331732
73173,12018,2,EL,1,100,0.334552
73224,12018,2,EL,1,100,0.333545
73274,12037,2,EL,1,100,0.335962
73325,12037,2,EL,1,100,0.334351
73375,12055,2,EL,1,100,0.335559
73426,12055,2,EL,1,100,0.335156
73476,12073,2,EL,1,100,0.335559
73527,12073,2,EL,1,100,0.334351
73577,12091,2,EL,1,100,0.336969
73628,12091,2,EL,1,100,0.335559
73678,12109,2,EL,1,100,0.335962
73729,12109,2,EL,1,100,0.334753
73763,12127,3,EL,1,100,0.335559
73797,12127,3,EL,1,100,0.334753
73831,12127,3,EL,1,100,0.336566
73881,12145,2,EL,1,100,0.334351
73931,12145,2,EL,1,100,0.335761
73981,12163,2,EL,1,100,0.334955
74032,12163,2,EL,1,100,0.336768
74083,12182,2,EL,1,100,0.337372
74134,12182,2,EL,1,100,0.337170
74184,12200,2,EL,1,100,0.337170
74234,12200,2,EL,1,100,0.333344
74284,12218,2,EL,1,100,0.337775
74335,12218,2,EL,1,100,0.335962
74385,12236,2,EL,1,100,0.338177
74436,12236,2,EL,1,100,0.337170
74486,12254,2,EL,1,100,0.337573
74537,12254,2,EL,1,100,0.339386
74588,12272,2,EL,1,100,0.339185
74639,12272,2,EL,1,100,0.338177
74689,12290,2,EL,1,100,0.339386
74739,12290,2,EL,1,100,0.336566
74789,12309,2,EL,1,100,0.339789
74840,12309,2,EL,1,100,0.339990
74890,12327,2,EL,1,100,0.339789
74941,12327,2,EL,1,100,0.339386
74991,12345,2,EL,1,100,0.339789
75042,12345,2,EL,1,100,0.337976
75092,12363,2,EL,1,100,0.340997
75143,12363,2,EL,1,100,0.338379
75193,12381,2,EL,1,100,0.340393
75244,12381,2,EL,1,100,0.340393
75294,12399,2,EL,1,100,0.342206
75345,12399,2,EL,1,100,0.341199
75379,12417,3,EL,1,100,0.342004
75413,12417,3,EL,1,100,0.341602
75447,12417,3,EL,1,100,0.342609
75497,12436,2,EL,1,100,0.341199
75547,12436,2,EL,1,100,0.344421
75597,12454,2,EL,1,100,0.342004
75648,12454,2,EL,1,100,0.341803
75698,12472,2,EL,1,100,0.344019
75749,12472,2,EL,1,100,0.340997
75799,12490,2,EL,1,100,0.344019
75850,12490,2,EL,1,100,0.342407
75900,12508,2,EL,1,100,0.344019
75951,12508,2,EL,1,100,0.343414
76002,12526,2,EL,1,100,0.344824
76053,12526,2,EL,1,100,0.344623
76103,12544,2,EL,1,100,0.345630
76153,12544,2,EL,1,100,0.344421
76203,12562,2,EL,1,100,0.345227
76254,12562,2,EL,1,100,0.344421
76304,12581,2,EL,1,100,0.346234
76355,12581,2,EL,1,100,0.345227
76406,12599,2,EL,1,100,0.345831
76457,12599,2,EL,1,100,0.344824
76507,12617,2,EL,1,100,0.347040
76557,12617,2,EL,1,100,0.345630
76607,12635,2,EL,1,100,0.347040
76658,12635,2,EL,1,100,0.344623
76708,12653,2,EL,1,100,0.347040
76759,12653,2,EL,1,100,0.345831
76809,12671,2,EL,1,100,0.343817
76860,12671,2,EL,1,100,0.346838
76894,12689,3,EL,1,100,0.346033
76928,12689,3,EL,1,100,0.347644
76962,12689,3,EL,1,100,0.349457
77012,12708,2,EL,1,100,0.348047
77062,12708,2,EL,1,100,0.347644
77112,12726,2,EL,1,100,0.349054
77163,12726,2,EL,1,100,0.349255
77214,12744,2,EL,1,100,0.348047
77266,12744,2,EL,1,100,0.349658
77315,12762,2,EL,1,100,0.350867
77365,12762,2,EL,1,100,0.349255
77415,12780,2,EL,1,100,0.349658
77466,12780,2,EL,1,100,0.349658
77516,12798,2,EL,1,100,0.350464
77567,12798,2,EL,1,100,0.349054
77617,12816,2,EL,1,100,0.352075
77668,12816,2,EL,1,100,0.351068
77719,12834,2,EL,1,100,0.352075
77770,12834,2,EL,1,100,0.351068
77820,12853,2,EL,1,100,0.351471
77870,12853,2,EL,1,100,0.350665
77920,12871,2,EL,1,100,0.352881
77971,12871,2,EL,1,100,0.349457
78022,12889,2,EL,1,100,0.351874
78074,12889,2,EL,1,100,0.349658
78123,12907,2,EL,1,100,0.351874
78173,12907,2,EL,1,100,0.350262
78223,12925,2,EL,1,100,0.352679
78274,12925,2,EL,1,100,0.350867
78324,12943,2,EL,1,100,0.352277
78375,12943,2,EL,1,100,0.349860
78409,12961,3,EL,1,100,0.351672
78443,12961,3,EL,1,100,0.351874
78478,12961,3,EL,1,100,0.352075
78528,12980,2,EL,1,100,0.351874
78578,12980,2,EL,1,100,0.353888
78628,12998,2,EL,1,100,0.351270
78678,12998,2,EL,1,100,0.354492
78728,13016,2,EL,1,100,0.352075
78779,13016,2,EL,1,100,0.351270
78829,13034,2,EL,1,100,0.354291
78880,13034,2,EL,1,100,0.352277
78930,13052,2,EL,1,100,0.354089
78981,13052,2,EL,1,100,0.352075
79031,13070,2,EL,1,100,0.354694
79082,13070,2,EL,1,100,0.353485
79132,13088,2,EL,1,100,0.353082
79183,13088,2,EL,1,100,0.352679
79234,13107,2,EL,1,100,0.354291
79285,13107,2,EL,1,100,0.353687
79335,13125,2,EL,1,100,0.355096
79385,13125,2,EL,1,100,0.353082
79435,13143,2,EL,1,100,0.354291
79486,13143,2,EL,1,100,0.352881
79536,13161,2,EL,1,100,0.355096
79587,13161,2,EL,1,100,0.352881
79637,13179,2,EL,1,100,0.355902
79688,13179,2,EL,1,100,0.354492
79738,13197,2,EL,1,100,0.355499
79789,13197,2,EL,1,100,0.353687
79839,13215,2,EL,1,100,0.355499
79890,13215,2,EL,1,100,0.354492
79940,13233,2,EL,1,100,0.356909
79991,13233,2,EL,1,100,0.356305
80041,13252,2,EL,1,100,0.356305
80092,13252,2,EL,1,100,0.356305
80126,13270,3,EL,1,100,0.355701
80160,13270,3,EL,1,100,0.353485
80194,13270,3,EL,1,100,0.355096
80244,13288,2,EL,1,100,0.355499
80294,13288,2,EL,1,100,0.355902
80344,13306,2,EL,1,100,0.355902
80395,13306,2,EL,1,100,0.356506
80445,13324,2,EL,1,100,0.357312
80496,13324,2,EL,1,100,0.356305
80546,13342,2,EL,1,100,0.357715
80597,13342,2,EL,1,100,0.353687
80647,13360,2,EL,1,100,0.357916
80698,13360,2,EL,1,100,0.356305
80748,13379,2,EL,1,100,0.357513
80799,13379,2,EL,1,100,0.355298
80849,13397,2,EL,1,100,0.358521
80900,13397,2,EL,1,100,0.357111
80950,13415,2,EL,1,100,0.358923
81001,13415,2,EL,1,100,0.356708
81052,13433,2,EL,1,100,0.359125
81103,13433,2,EL,1,100,0.357916
81153,13451,2,EL,1,100,0.359528
81203,13451,2,EL,1,100,0.357111
81253,13469,2,EL,1,100,0.359326
81304,13469,2,EL,1,100,0.356506
81354,13487,2,EL,1,100,0.357715
81405,13487,2,EL,1,100,0.355499
81455,13506,2,EL,1,100,0.359326
81506,13506,2,EL,1,100,0.357715
81551,13527,4,EL,1,100,0.359528
81597,13527,4,EL,1,100,0.359326
81643,13527,4,EL,1,100,0.359125
81689,13527,4,EL,1,100,0.360535
81740,13547,2,EL,1,100,0.360333
81792,13547,2,EL,1,100,0.359930
81842,13565,2,EL,1,100,0.357513
81892,13565,2,EL,1,100,0.357916
81942,13583,2,EL,1,100,0.360535
81993,13583,2,EL,1,100,0.360132
82043,13601,2,EL,1,100,0.361743
82094,13601,2,EL,1,100,0.358521
82144,13619,2,EL,1,100,0.359326
82195,13619,2,EL,1,100,0.359528
82229,13638,3,EL,1,100,0.360938
82263,13638,3,EL,1,100,0.360535
82298,13638,3,EL,1,100,0.361139
82347,13656,2,EL,1,100,0.360132
82397,13656,2,EL,1,100,0.361340
82447,13674,2,EL,1,100,0.360736
82498,13674,2,EL,1,100,0.362549
82548,13692,2,EL,1,100,0.362750
82599,13692,2,EL,1,100,0.361945
82649,13710,2,EL,1,100,0.363757
82700,13710,2,EL,1,100,0.361945
82750,13728,2,EL,1,100,0.363153
82801,13728,2,EL,1,100,0.360535
82851,13746,2,EL,1,100,0.363556
82902,13746,2,EL,1,100,0.360535
82953,13765,2,EL,1,100,0.361743
83004,13765,2,EL,1,100,0.361139
83054,13783,2,EL,1,100,0.363153
83104,13783,2,EL,1,100,0.361945
83154,13801,2,EL,1,100,0.363757
83205,13801,2,EL,1,100,0.361743
83256,13819,2,EL,1,100,0.364563
83307,13819,2,EL,1,100,0.362347
83357,13837,2,EL,1,100,0.363354
83407,13837,2,EL,1,100,0.361743
83457,13855,2,EL,1,100,0.362750
83508,13855,2,EL,1,100,0.361542
83558,13873,2,EL,1,100,0.363959
83609,13873,2,EL,1,100,0.361945
83643,13891,3,EL,1,100,0.364160
83677,13891,3,EL,1,100,0.361139
83712,13891,3,EL,1,100,0.362146
83762,13910,2,EL,1,100,0.361945
83812,13910,2,EL,1,100,0.363556
83862,13928,2,EL,1,100,0.362146
83912,13928,2,EL,1,100,0.363757
83962,13946,2,EL,1,100,0.363153
84013,13946,2,EL,1,100,0.363556
84063,13964,2,EL,1,100,0.363757
84114,13964,2,EL,1,100,0.362952
84164,13982,2,EL,1,100,0.363354
84215,13982,2,EL,1,100,0.363153
84265,14000,2,EL,1,100,0.365369
84316,14000,2,EL,1,100,0.362146
84366,14018,2,EL,1,100,0.365369
84417,14018,2,EL,1,100,0.362952
84467,14037,2,EL,1,100,0.363959
84518,14037,2,EL,1,100,0.364160
84568,14055,2,EL,1,100,0.365369
84619,14055,2,EL,1,100,0.364362
84670,14073,2,EL,1,100,0.364966
84721,14073,2,EL,1,100,0.363153
84771,14091,2,EL,1,100,0.366174
84821,14091,2,EL,1,100,0.363556
84872,14109,2,EL,1,100,0.366577
84923,14109,2,EL,1,100,0.363556
84973,14127,2,EL,1,100,0.364966
85023,14127,2,EL,1,100,0.363757
85073,14145,2,EL,1,100,0.366577
85124,14145,2,EL,1,100,0.363153
85174,14163,2,EL,1,100,0.365167
85225,14163,2,EL,1,100,0.363354
85259,14182,3,EL,1,100,0.365570
85293,14182,3,EL,1,100,0.365369
85327,14182,3,EL,1,100,0.366577
85377,14200,2,EL,1,100,0.364966
85427,14200,2,EL,1,100,0.366376
85477,14218,2,EL,1,100,0.363153
85528,14218,2,EL,1,100,0.365771
85578,14236,2,EL,1,100,0.365167
85629,14236,2,EL,1,100,0.364764
85679,14254,2,EL,1,100,0.366577
85730,14254,2,EL,1,100,0.365167
85780,14272,2,EL,1,100,0.366376
85831,14272,2,EL,1,100,0.364563
85881,14290,2,EL,1,100,0.366779
85932,14290,2,EL,1,100,0.366577
85982,14309,2,EL,1,100,0.366376
86033,14309,2,EL,1,100,0.362146
86083,14327,2,EL,1,100,0.365570
86134,14327,2,EL,1,100,0.365771
86184,14345,2,EL,1,100,0.367383
86235,14345,2,EL,1,100,0.364160
86285,14363,2,EL,1,100,0.367584
86336,14363,2,EL,1,100,0.366376
86386,14381,2,EL,1,100,0.367181
86437,14381,2,EL,1,100,0.364966
86487,14399,2,EL,1,100,0.367181
86538,14399,2,EL,1,100,0.365570
86588,14417,2,EL,1,100,0.367383
86639,14417,2,EL,1,100,0.365167
86689,14436,2,EL,1,100,0.367786
86740,14436,2,EL,1,100,0.365369
86774,14454,3,EL,1,100,0.367987
86808,14454,3,EL,1,100,0.367786
86843,14454,3,EL,1,100,0.367181
86893,14472,2,EL,1,100,0.364966
86943,14472,2,EL,1,100,0.366980
86993,14490,2,EL,1,100,0.365570
87043,14490,2,EL,1,100,0.367181
87093,14508,2,EL,1,100,0.366376
87144,14508,2,EL,1,100,0.366376
87194,14526,2,EL,1,100,0.367584
87245,14526,2,EL,1,100,0.365570
87295,14544,2,EL,1,100,0.368390
87346,14544,2,EL,1,100,0.366174
87396,14562,2,EL,1,100,0.368793
87447,14562,2,EL,1,100,0.364563
87498,14581,2,EL,1,100,0.367987
87550,14581,2,EL,1,100,0.368591
87599,14599,2,EL,1,100,0.368793
87649,14599,2,EL,1,100,0.366779
87699,14617,2,EL,1,100,0.367584
87750,14617,2,EL,1,100,0.367584
87800,14635,2,EL,1,100,0.368793
87851,14635,2,EL,1,100,0.365973
87901,14653,2,EL,1,100,0.370001
87952,14653,2,EL,1,100,0.367987
88002,14671,2,EL,1,100,0.367786
88053,14671,2,EL,1,100,0.367584
88103,14689,2,EL,1,100,0.368994
88154,14689,2,EL,1,100,0.366174
88204,14708,2,EL,1,100,0.369598
88255,14708,2,EL,1,100,0.366174
88289,14726,3,EL,1,100,0.369196
88323,14726,3,EL,1,100,0.365771
88357,14726,3,EL,1,100,0.369598
88407,14744,2,EL,1,100,0.366980
88457,14744,2,EL,1,100,0.368188
88507,14762,2,EL,1,100,0.367987
88558,14762,2,EL,1,100,0.368793
88608,14780,2,EL,1,100,0.367987
88659,14780,2,EL,1,100,0.368188
88709,14798,2,EL,1,100,0.367987
88760,14798,2,EL,1,100,0.367383
88810,14816,2,EL,1,100,0.369800
88861,14816,2,EL,1,100,0.367987
88911,14835,2,EL,1,100,0.369397
88962,14835,2,EL,1,100,0.365570
89012,14853,2,EL,1,100,0.369598
89063,14853,2,EL,1,100,0.366980
89113,14871,2,EL,1,100,0.369397
89164,14871,2,EL,1,100,0.368188
89215,14889,2,EL,1,100,0.370001
89267,14889,2,EL,1,100,0.367584
89316,14907,2,EL,1,100,0.371411
89366,14907,2,EL,1,100,0.369196
89417,14925,2,EL,1,100,0.369196
89469,14925,2,EL,1,100,0.367987
89518,14943,2,EL,1,100,0.370001
89568,14943,2,EL,1,100,0.369196
89618,14961,2,EL,1,100,0.370203
89669,14961,2,EL,1,100,0.366779
89719,14980,2,EL,1,100,0.369598
89770,14980,2,EL,1,100,0.368994
89820,14998,2,EL,1,100,0.370404
89871,14998,2,EL,1,100,0.368188
89905,15016,3,EL,1,100,0.370203
89939,15016,3,EL,1,100,0.368591
89973,15016,3,EL,1,100,0.370404
90023,15034,2,EL,1,100,0.370203
90073,15034,2,EL,1,100,0.370001
90123,15052,2,EL,1,100,0.368793
90174,15052,2,EL,1,100,0.370404
90224,15070,2,EL,1,100,0.370404
90275,15070,2,EL,1,100,0.368591
90325,15088,2,EL,1,100,0.371008
90376,15088,2,EL,1,100,0.369800
90426,15107,2,EL,1,100,0.371613
90477,15107,2,EL,1,100,0.368793
90528,15125,2,EL,1,100,0.370404
90580,15125,2,EL,1,100,0.370001
90629,15143,2,EL,1,100,0.371210
90679,15143,2,EL,1,100,0.369800
90729,15161,2,EL,1,100,0.370001
90780,15161,2,EL,1,100,0.368188
90830,15179,2,EL,1,100,0.370807
90881,15179,2,EL,1,100,0.369196
90932,15197,2,EL,1,100,0.372821
90984,15197,2,EL,1,100,0.369598
91033,15215,2,EL,1,100,0.370605
91083,15215,2,EL,1,100,0.368793
91133,15233,2,EL,1,100,0.371210
91184,15233,2,EL,1,100,0.368994
91234,15252,2,EL,1,100,0.371210
91285,15252,2,EL,1,100,0.370203
91335,15270,2,EL,1,100,0.371411
91386,15270,2,EL,1,100,0.371008
91436,15288,2,EL,1,100,0.371210
91487,15288,2,EL,1,100,0.369598
91521,15306,3,EL,1,100,0.368793
91555,15306,3,EL,1,100,0.372418
91589,15306,3,EL,1,100,0.371613
91639,15324,2,EL,1,100,0.368994
91689,15324,2,EL,1,100,0.372015
91739,15342,2,EL,1,100,0.370605
91790,15342,2,EL,1,100,0.372015
91840,15360,2,EL,1,100,0.371814
91891,15360,2,EL,1,100,0.371008
91941,15379,2,EL,1,100,0.372418
91992,15379,2,EL,1,100,0.370203
92042,15397,2,EL,1,100,0.371210
92093,15397,2,EL,1,100,0.371210
92143,15415,2,EL,1,100,0.372217
92194,15415,2,EL,1,100,0.371613
92245,15433,2,EL,1,100,0.373425
92296,15433,2,EL,1,100,0.371210
92346,15451,2,EL,1,100,0.373022
92396,15451,2,EL,1,100,0.371814
92441,15472,4,EL,1,100,0.371008
92486,15472,4,EL,1,100,0.370807
92531,15472,4,EL,1,100,0.373224
92577,15472,4,EL,1,100,0.372821
92627,15491,2,EL,1,100,0.371411
92677,15491,2,EL,1,100,0.370203
92727,15510,2,EL,1,100,0.369196
92778,15510,2,EL,1,100,0.371411
92828,15528,2,EL,1,100,0.372821
92879,15528,2,EL,1,100,0.368188
92930,15546,2,EL,1,100,0.373425
92981,15546,2,EL,1,100,0.370203
93031,15564,2,EL,1,100,0.371210
93081,15564,2,EL,1,100,0.371008
93131,15582,2,EL,1,100,0.372217
93182,15582,2,EL,1,100,0.371613
93232,15600,2,EL,1,100,0.372821
93283,15600,2,EL,1,100,0.371613
93333,15618,2,EL,1,100,0.372418
93384,15618,2,EL,1,100,0.371008
93434,15637,2,EL,1,100,0.372418
93485,15637,2,EL,1,100,0.368793
93535,15655,2,EL,1,100,0.371411
93586,15655,2,EL,1,100,0.370001
93636,15673,2,EL,1,100,0.372821
93687,15673,2,EL,1,100,0.371613
93737,15691,2,EL,1,100,0.373425
93788,15691,2,EL,1,100,0.370404
93822,15709,3,EL,1,100,0.373022
93856,15709,3,EL,1,100,0.372620
93891,15709,3,EL,1,100,0.373627
93940,15727,2,EL,1,100,0.371613
93990,15727,2,EL,1,100,0.371613
94040,15745,2,EL,1,100,0.372821
94091,15745,2,EL,1,100,0.373224
94141,15764,2,EL,1,100,0.372418
94192,15764,2,EL,1,100,0.372015
94242,15782,2,EL,1,100,0.373224
94293,15782,2,EL,1,100,0.371613
94343,15800,2,EL,1,100,0.373425
94394,15800,2,EL,1,100,0.372217
94444,15818,2,EL,1,100,0.373022
94495,15818,2,EL,1,100,0.372217
94545,15836,2,EL,1,100,0.374835
94596,15836,2,EL,1,100,0.370605
94646,15854,2,EL,1,100,0.374432
94697,15854,2,EL,1,100,0.372620
94747,15872,2,EL,1,100,0.373224
94798,15872,2,EL,1,100,0.369598
94848,15890,2,EL,1,100,0.371814
94899,15890,2,EL,1,100,0.372217
94949,15909,2,EL,1,100,0.373224
95000,15909,2,EL,1,100,0.372217
95050,15927,2,EL,1,100,0.374231
95101,15927,2,EL,1,100,0.374030
95151,15945,2,EL,1,100,0.374231
95202,15945,2,EL,1,100,0.372821
95236,15963,3,EL,1,100,0.374634
95270,15963,3,EL,1,100,0.371411
95304,15963,3,EL,1,100,0.375641
95354,15981,2,EL,1,100,0.374231
95404,15981,2,EL,1,100,0.374432
95454,15999,2,EL,1,100,0.372418
95505,15999,2,EL,1,100,0.374030
95555,16017,2,EL,1,100,0.372620
95606,16017,2,EL,1,100,0.373627
95656,16036,2,EL,1,100,0.373627
95707,16036,2,EL,1,100,0.373627
95757,16054,2,EL,1,100,0.374432
95808,16054,2,EL,1,100,0.372418
95858,16072,2,EL,1,100,0.375439
95909,16072,2,EL,1,100,0.372821
95959,16090,2,EL,1,100,0.374432
96010,16090,2,EL,1,100,0.372418
96060,16108,2,EL,1,100,0.374432
96111,16108,2,EL,1,100,0.373627
96161,16126,2,EL,1,100,0.374432
96212,16126,2,EL,1,100,0.373022
96262,16144,2,EL,1,100,0.375037
96313,16144,2,EL,1,100,0.372620
96363,16162,2,EL,1,100,0.375037
96414,16162,2,EL,1,100,0.373425
96464,16181,2,EL,1,100,0.374634
96515,16181,2,EL,1,100,0.375037
96565,16199,2,EL,1,100,0.375439
96616,16199,2,EL,1,100,0.371613
96666,16217,2,EL,1,100,0.374231
96717,16217,2,EL,1,100,0.373828
96767,16235,2,EL,1,100,0.375439
96818,16235,2,EL,1,100,0.374835
96852,16253,3,EL,1,100,0.374835
96886,16253,3,EL,1,100,0.373022
96921,16253,3,EL,1,100,0.375238
96970,16271,2,EL,1,100,0.374432
97020,16271,2,EL,1,100,0.372821
97070,16289,2,EL,1,100,0.373224
97121,16289,2,EL,1,100,0.375238
97171,16308,2,EL,1,100,0.374835
97222,16308,2,EL,1,100,0.374835
97272,16326,2,EL,1,100,0.374432
97323,16326,2,EL,1,100,0.373828
97373,16344,2,EL,1,100,0.376447
97424,16344,2,EL,1,100,0.373224
97474,16362,2,EL,1,100,0.375238
97525,16362,2,EL,1,100,0.373828
97576,16380,2,EL,1,100,0.375238
97628,16380,2,EL,1,100,0.374634
97677,16398,2,EL,1,100,0.375037
97727,16398,2,EL,1,100,0.373425
97777,16416,2,EL,1,100,0.375842
97828,16416,2,EL,1,100,0.374432
97878,16435,2,EL,1,100,0.375037
97929,16435,2,EL,1,100,0.374432
97979,16453,2,EL,1,100,0.376245
98030,16453,2,EL,1,100,0.375238
98080,16471,2,EL,1,100,0.375037
98131,16471,2,EL,1,100,0.372620
98181,16489,2,EL,1,100,0.374231
98232,16489,2,EL,1,100,0.373627
98282,16507,2,EL,1,100,0.375842
98333,16507,2,EL,1,100,0.373425
98383,16525,2,EL,1,100,0.375842
98434,16525,2,EL,1,100,0.374634
98468,16543,3,EL,1,100,0.375439
98502,16543,3,EL,1,100,0.375439
98536,16543,3,EL,1,100,0.375641
98586,16561,2,EL,1,100,0.374634
98636,16561,2,EL,1,100,0.376245
98686,16580,2,EL,1,100,0.373627
98737,16580,2,EL,1,100,0.375641
98787,16598,2,EL,1,100,0.375641
98838,16598,2,EL,1,100,0.373627
98888,16616,2,EL,1,100,0.376044
98939,16616,2,EL,1,100,0.373425
98989,16634,2,EL,1,100,0.374835
99040,16634,2,EL,1,100,0.374030
99090,16652,2,EL,1,100,0.374634
99141,16652,2,EL,1,100,0.373627
99191,16670,2,EL,1,100,0.374835
99242,16670,2,EL,1,100,0.374432
99292,16688,2,EL,1,100,0.375037
99343,16688,2,EL,1,100,0.374432
99394,16707,2,EL,1,100,0.374030
99446,16707,2,EL,1,100,0.373224
99495,16725,2,EL,1,100,0.375037
99545,16725,2,EL,1,100,0.373224
99595,16743,2,EL,1,100,0.374835
99646,16743,2,EL,1,100,0.372217
99696,16761,2,EL,1,100,0.373425
99747,16761,2,EL,1,100,0.373627
99797,16779,2,EL,1,100,0.373425
99848,16779,2,EL,1,100,0.371814
99882,16797,3,EL,1,100,0.373627
99916,16797,3,EL,1,100,0.371613
99950,16797,3,EL,1,100,0.371814
100000,16815,2,EL,1,100,0.372217
100050,16815,2,EL,1,100,0.372418
100100,16834,2,EL,1,100,0.371210
100151,16834,2,EL,1,100,0.372418
100201,16852,2,EL,1,100,0.371613
100252,16852,2,EL,1,100,0.372620
100302,16870,2,EL,1,100,0.370203
100353,16870,2,EL,1,100,0.371814
100403,16888,2,EL,1,100,0.371613
100454,16888,2,EL,1,100,0.368793
100504,16906,2,EL,1,100,0.370203
100555,16906,2,EL,1,100,0.367181
100605,16924,2,EL,1,100,0.369598
100656,16924,2,EL,1,100,0.368188
100706,16942,2,EL,1,100,0.370404
100757,16942,2,EL,1,100,0.369196
100808,16960,2,EL,1,100,0.368793
100859,16960,2,EL,1,100,0.368994
100909,16979,2,EL,1,100,0.368994
100959,16979,2,EL,1,100,0.367181
101009,16997,2,EL,1,100,0.367987
101060,16997,2,EL,1,100,0.364966
101110,17015,2,EL,1,100,0.368390
101161,17015,2,EL,1,100,0.366779
101212,17033,2,EL,1,100,0.367181
101263,17033,2,EL,1,100,0.364764
101313,17051,2,EL,1,100,0.367786
101363,17051,2,EL,1,100,0.363354
101413,17069,2,EL,1,100,0.366980
101464,17069,2,EL,1,100,0.366577
101498,17087,3,EL,1,100,0.365973
101532,17087,3,EL,1,100,0.363959
101566,17087,3,EL,1,100,0.365771
101616,17106,2,EL,1,100,0.364160
101666,17106,2,EL,1,100,0.365570
101716,17124,2,EL,1,100,0.365167
101767,17124,2,EL,1,100,0.364563
101818,17142,2,EL,1,100,0.365369
101869,17142,2,EL,1,100,0.362549
101919,17160,2,EL,1,100,0.364966
101969,17160,2,EL,1,100,0.362952
102019,17178,2,EL,1,100,0.364563
102070,17178,2,EL,1,100,0.361542
102120,17196,2,EL,1,100,0.365167
102171,17196,2,EL,1,100,0.362952
102221,17214,2,EL,1,100,0.363757
102272,17214,2,EL,1,100,0.363757
102323,17232,2,EL,1,100,0.363959
102374,17232,2,EL,1,100,0.363757
102424,17251,2,EL,1,100,0.363354
102474,17251,2,EL,1,100,0.361542
102524,17269,2,EL,1,100,0.364966
102575,17269,2,EL,1,100,0.362347
102625,17287,2,EL,1,100,0.363757
102676,17287,2,EL,1,100,0.361542
102726,17305,2,EL,1,100,0.362549
102777,17305,2,EL,1,100,0.360938
102827,17323,2,EL,1,100,0.364160
102878,17323,2,EL,1,100,0.361743
102928,17341,2,EL,1,100,0.361945
102979,17341,2,EL,1,100,0.362146
103029,17359,2,EL,1,100,0.362549
103080,17359,2,EL,1,100,0.361340
103114,17378,3,EL,1,100,0.362952
103148,17378,3,EL,1,100,0.361743
103182,17378,3,EL,1,100,0.362750
103232,17396,2,EL,1,100,0.362750
103282,17396,2,EL,1,100,0.362750
103343,17417,3,EL,1,100,0.361340
103404,17417,3,EL,1,100,0.360132
103465,17417,3,EL,1,100,0.361340
103501,17436,3,EL,1,100,0.361945
103537,17436,3,EL,1,100,0.363556
103573,17436,3,EL,1,100,0.358319
103623,17455,2,EL,1,100,0.361743
103673,17455,2,EL,1,100,0.362750
103723,17473,2,EL,1,100,0.361542
103774,17473,2,EL,1,100,0.362952
103824,17491,2,EL,1,100,0.361139
103875,17491,2,EL,1,100,0.361743
103925,17510,2,EL,1,100,0.361945
103976,17510,2,EL,1,100,0.357513
104026,17528,2,EL,1,100,0.363354
104077,17528,2,EL,1,100,0.360132
104127,17546,2,EL,1,100,0.363153
104178,17546,2,EL,1,100,0.361945
104228,17564,2,EL,1,100,0.362549
104279,17564,2,EL,1,100,0.360736
104329,17582,2,EL,1,100,0.362146
104380,17582,2,EL,1,100,0.360535
104430,17600,2,EL,1,100,0.361743
104481,17600,2,EL,1,100,0.357513
104531,17618,2,EL,1,100,0.361743
104582,17618,2,EL,1,100,0.361340
104632,17637,2,EL,1,100,0.362347
104683,17637,2,EL,1,100,0.361945
104733,17655,2,EL,1,100,0.363354
104784,17655,2,EL,1,100,0.360333
104834,17673,2,EL,1,100,0.363354
104885,17673,2,EL,1,100,0.359729
104935,17691,2,EL,1,100,0.364160
104986,17691,2,EL,1,100,0.359528
105020,17709,3,EL,1,100,0.362549
105054,17709,3,EL,1,100,0.362146
105088,17709,3,EL,1,100,0.362347
105138,17727,2,EL,1,100,0.361945
105188,17727,2,EL,1,100,0.363757
105238,17745,2,EL,1,100,0.361945
105289,17745,2,EL,1,100,0.362549
105339,17764,2,EL,1,100,0.361340
105390,17764,2,EL,1,100,0.362750
105440,17782,2,EL,1,100,0.361340
105491,17782,2,EL,1,100,0.363354
105541,17800,2,EL,1,100,0.363354
105592,17800,2,EL,1,100,0.361945
105642,17818,2,EL,1,100,0.364160
105693,17818,2,EL,1,100,0.362146
105743,17836,2,EL,1,100,0.363959
105794,17836,2,EL,1,100,0.362347
105844,17854,2,EL,1,100,0.363354
105895,17854,2,EL,1,100,0.363354
105945,17872,2,EL,1,100,0.364563
105996,17872,2,EL,1,100,0.362549
106046,17890,2,EL,1,100,0.363153
106097,17890,2,EL,1,100,0.362549
106148,17909,2,EL,1,100,0.363556
106199,17909,2,EL,1,100,0.361945
106249,17927,2,EL,1,100,0.364764
106299,17927,2,EL,1,100,0.360736
106349,17945,2,EL,1,100,0.363757
106400,17945,2,EL,1,100,0.361340
106450,17963,2,EL,1,100,0.364764
106501,17963,2,EL,1,100,0.363354
106535,17981,3,EL,1,100,0.364362
106569,17981,3,EL,1,100,0.363556
106603,17981,3,EL,1,100,0.364966
106653,17999,2,EL,1,100,0.363153
106703,17999,2,EL,1,100,0.364160
106753,18017,2,EL,1,100,0.363153
106804,18017,2,EL,1,100,0.364764
106854,18036,2,EL,1,100,0.363757
106905,18036,2,EL,1,100,0.364764
106955,18054,2,EL,1,100,0.364160
107006,18054,2,EL,1,100,0.364362
107056,18072,2,EL,1,100,0.364563
107107,18072,2,EL,1,100,0.362549
107157,18090,2,EL,1,100,0.364563
107208,18090,2,EL,1,100,0.364563
107258,18108,2,EL,1,100,0.364966
107309,18108,2,EL,1,100,0.363153
107359,18126,2,EL,1,100,0.364764
107410,18126,2,EL,1,100,0.363757
107460,18144,2,EL,1,100,0.364160
107511,18144,2,EL,1,100,0.364764
107562,18162,2,EL,1,100,0.365369
107614,18162,2,EL,1,100,0.363757
107663,18181,2,EL,1,100,0.366980
107713,18181,2,EL,1,100,0.362549
107764,18199,2,EL,1,100,0.366174
107816,18199,2,EL,1,100,0.363959
107865,18217,2,EL,1,100,0.366577
107915,18217,2,EL,1,100,0.364764
107965,18235,2,EL,1,100,0.365771
108016,18235,2,EL,1,100,0.364160
108066,18253,2,EL,1,100,0.366376
108117,18253,2,EL,1,100,0.365369
108151,18271,3,EL,1,100,0.366174
108185,18271,3,EL,1,100,0.364966
108219,18271,3,EL,1,100,0.367181
108269,18289,2,EL,1,100,0.364764
108320,18289,2,EL,1,100,0.366577
108370,18308,2,EL,1,100,0.364764
108420,18308,2,EL,1,100,0.366577
108470,18326,2,EL,1,100,0.364362
108521,18326,2,EL,1,100,0.363354
108571,18344,2,EL,1,100,0.367181
108622,18344,2,EL,1,100,0.365771
108672,18362,2,EL,1,100,0.367383
108723,18362,2,EL,1,100,0.366577
108773,18380,2,EL,1,100,0.367786
108824,18380,2,EL,1,100,0.367584
108875,18398,2,EL,1,100,0.367584
108927,18398,2,EL,1,100,0.364966
108976,18416,2,EL,1,100,0.367383
109026,18416,2,EL,1,100,0.365973
109076,18435,2,EL,1,100,0.368390
109127,18435,2,EL,1,100,0.365570
109177,18453,2,EL,1,100,0.367987
109228,18453,2,EL,1,100,0.366577
109279,18471,2,EL,1,100,0.368188
109331,18471,2,EL,1,100,0.367383
109380,18489,2,EL,1,100,0.367987
109430,18489,2,EL,1,100,0.365771
109480,18507,2,EL,1,100,0.369598
109531,18507,2,EL,1,100,0.365771
109581,18525,2,EL,1,100,0.368793
109632,18525,2,EL,1,100,0.368188
109682,18543,2,EL,1,100,0.368994
109733,18543,2,EL,1,100,0.368188
109767,18561,3,EL,1,100,0.367383
109801,18561,3,EL,1,100,0.366779
109835,18561,3,EL,1,100,0.367181
109885,18580,2,EL,1,100,0.366779
109936,18580,2,EL,1,100,0.367786
109986,18598,2,EL,1,100,0.367584
110036,18598,2,EL,1,100,0.369196
110086,18616,2,EL,1,100,0.366980
110137,18616,2,EL,1,100,0.367584
110187,18634,2,EL,1,100,0.370203
110238,18634,2,EL,1,100,0.367584
110288,18652,2,EL,1,100,0.369800
110339,18652,2,EL,1,100,0.369196
110389,18670,2,EL,1,100,0.370404
110440,18670,2,EL,1,100,0.368994
110490,18688,2,EL,1,100,0.368793
110541,18688,2,EL,1,100,0.368591
110592,18707,2,EL,1,100,0.369196
110643,18707,2,EL,1,100,0.368793
110693,18725,2,EL,1,100,0.370203
110743,18725,2,EL,1,100,0.368390
110793,18743,2,EL,1,100,0.370404
110844,18743,2,EL,1,100,0.368591
110894,18761,2,EL,1,100,0.369598
110945,18761,2,EL,1,100,0.369196
110995,18779,2,EL,1,100,0.370807
111046,18779,2,EL,1,100,0.366376
111096,18797,2,EL,1,100,0.368994
111147,18797,2,EL,1,100,0.368591
111197,18815,2,EL,1,100,0.370203
111248,18815,2,EL,1,100,0.368591
111282,18834,3,EL,1,100,0.370001
111316,18834,3,EL,1,100,0.370203
111350,18834,3,EL,1,100,0.371008
111400,18852,2,EL,1,100,0.369800
111451,18852,2,EL,1,100,0.371411
111501,18870,2,EL,1,100,0.369598
111551,18870,2,EL,1,100,0.369598
111601,18888,2,EL,1,100,0.369196
111652,18888,2,EL,1,100,0.370807
111702,18906,2,EL,1,100,0.371814
111753,18906,2,EL,1,100,0.369196
111803,18924,2,EL,1,100,0.371008
111854,18924,2,EL,1,100,0.370807
111904,18942,2,EL,1,100,0.371008
111955,18942,2,EL,1,100,0.369598
112005,18960,2,EL,1,100,0.371008
112056,18960,2,EL,1,100,0.368390
112106,18979,2,EL,1,100,0.371411
112157,18979,2,EL,1,100,0.370404
112207,18997,2,EL,1,100,0.370605
112258,18997,2,EL,1,100,0.366779
112308,19015,2,EL,1,100,0.371613
112359,19015,2,EL,1,100,0.370605
112409,19033,2,EL,1,100,0.371411
112460,19033,2,EL,1,100,0.370807
112511,19051,2,EL,1,100,0.370807
112562,19051,2,EL,1,100,0.369800
112612,19069,2,EL,1,100,0.371814
112662,19069,2,EL,1,100,0.370404
112712,19087,2,EL,1,100,0.371613
112763,19087,2,EL,1,100,0.370404
112813,19106,2,EL,1,100,0.373022
112864,19106,2,EL,1,100,0.368994
112898,19124,3,EL,1,100,0.371814
112932,19124,3,EL,1,100,0.371008
112966,19124,3,EL,1,100,0.373022
113016,19142,2,EL,1,100,0.370404
113066,19142,2,EL,1,100,0.371814
113116,19160,2,EL,1,100,0.371008
113167,19160,2,EL,1,100,0.373425
113217,19178,2,EL,1,100,0.371814
113268,19178,2,EL,1,100,0.370203
113318,19196,2,EL,1,100,0.372620
113369,19196,2,EL,1,100,0.370807
113419,19214,2,EL,1,100,0.373224
113470,19214,2,EL,1,100,0.371008
113520,19232,2,EL,1,100,0.372217
113571,19232,2,EL,1,100,0.369397
113621,19251,2,EL,1,100,0.373627
113672,19251,2,EL,1,100,0.372821
113722,19269,2,EL,1,100,0.374030
113773,19269,2,EL,1,100,0.371411
113823,19287,2,EL,1,100,0.375037
113874,19287,2,EL,1,100,0.373224
113924,19305,2,EL,1,100,0.373224
113975,19305,2,EL,1,100,0.371613
114025,19323,2,EL,1,100,0.373022
114076,19323,2,EL,1,100,0.373022
114126,19341,2,EL,1,100,0.372620
114177,19341,2,EL,1,100,0.372620
114221,19362,4,EL,1,100,0.374030
114265,19362,4,EL,1,100,0.370605
114309,19362,4,EL,1,100,0.369397
114353,19362,4,EL,1,100,0.375641
114403,19383,2,EL,1,100,0.373627
114454,19383,2,EL,1,100,0.371210
114504,19401,2,EL,1,100,0.372418
114554,19401,2,EL,1,100,0.372620
114604,19419,2,EL,1,100,0.374231
114655,19419,2,EL,1,100,0.372620
114705,19437,2,EL,1,100,0.374030
114756,19437,2,EL,1,100,0.372821
114806,19455,2,EL,1,100,0.374634
114857,19455,2,EL,1,100,0.371008
114907,19473,2,EL,1,100,0.374030
114958,19473,2,EL,1,100,0.372620
115008,19491,2,EL,1,100,0.376245
115059,19491,2,EL,1,100,0.372620
115109,19510,2,EL,1,100,0.374835
115160,19510,2,EL,1,100,0.372217
115210,19528,2,EL,1,100,0.374634
115261,19528,2,EL,1,100,0.372015
115295,19546,3,EL,1,100,0.374231
115329,19546,3,EL,1,100,0.372620
115363,19546,3,EL,1,100,0.375037
115413,19564,2,EL,1,100,0.374030
115463,19564,2,EL,1,100,0.374432
115514,19582,2,EL,1,100,0.373425
115565,19582,2,EL,1,100,0.373224
115615,19600,2,EL,1,100,0.374432
115665,19600,2,EL,1,100,0.372620
115715,19618,2,EL,1,100,0.375238
115766,19618,2,EL,1,100,0.372821
115816,19637,2,EL,1,100,0.374835
115867,19637,2,EL,1,100,0.371613
115917,19655,2,EL,1,100,0.374634
115968,19655,2,EL,1,100,0.372821
116019,19673,2,EL,1,100,0.375439
116070,19673,2,EL,1,100,0.374634
116120,19691,2,EL,1,100,0.374432
116170,19691,2,EL,1,100,0.375037
116220,19709,2,EL,1,100,0.375238
116271,19709,2,EL,1,100,0.373425
116322,19727,2,EL,1,100,0.374030
116374,19727,2,EL,1,100,0.373022
116423,19745,2,EL,1,100,0.375439
116473,19745,2,EL,1,100,0.372418
116523,19764,2,EL,1,100,0.375842
116574,19764,2,EL,1,100,0.374432
116624,19782,2,EL,1,100,0.376245
116675,19782,2,EL,1,100,0.374231
116725,19800,2,EL,1,100,0.376447
116776,19800,2,EL,1,100,0.373224
116810,19818,3,EL,1,100,0.377252
116844,19818,3,EL,1,100,0.372217
116878,19818,3,EL,1,100,0.376245
116928,19836,2,EL,1,100,0.374030
116979,19836,2,EL,1,100,0.376044
117029,19854,2,EL,1,100,0.373828
117079,19854,2,EL,1,100,0.375238
117129,19872,2,EL,1,100,0.374030
117180,19872,2,EL,1,100,0.376849
117230,19890,2,EL,1,100,0.375842
117281,19890,2,EL,1,100,0.375439
117331,19909,2,EL,1,100,0.375238
117382,19909,2,EL,1,100,0.374030
117432,19927,2,EL,1,100,0.375439
117483,19927,2,EL,1,100,0.373627
117533,19945,2,EL,1,100,0.375641
117584,19945,2,EL,1,100,0.373425
117634,19963,2,EL,1,100,0.375439
117685,19963,2,EL,1,100,0.374231
117735,19981,2,EL,1,100,0.376447
117786,19981,2,EL,1,100,0.374030
117837,19999,2,EL,1,100,0.375439
117888,19999,2,EL,1,100,0.373022
117938,20017,2,EL,1,100,0.376447
117988,20017,2,EL,1,100,0.374231
118038,20036,2,EL,1,100,0.377051
118089,20036,2,EL,1,100,0.375037
118139,20054,2,EL,1,100,0.376044
118190,20054,2,EL,1,100,0.375641
118240,20072,2,EL,1,100,0.376447
118291,20072,2,EL,1,100,0.374231
118325,20090,3,EL,1,100,0.376447
118359,20090,3,EL,1,100,0.375238
118393,20090,3,EL,1,100,0.375842
118443,20108,2,EL,1,100,0.375842
118494,20108,2,EL,1,100,0.376648
118544,20126,2,EL,1,100,0.375641
118594,20126,2,EL,1,100,0.376849
118644,20144,2,EL,1,100,0.376245
118695,20144,2,EL,1,100,0.376044
118746,20162,2,EL,1,100,0.377051
118797,20162,2,EL,1,100,0.374634
118847,20181,2,EL,1,100,0.377655
118897,20181,2,EL,1,100,0.374634
118947,20199,2,EL,1,100,0.377252
118998,20199,2,EL,1,100,0.375037
119048,20217,2,EL,1,100,0.377051
119099,20217,2,EL,1,100,0.373022
119149,20235,2,EL,1,100,0.376849
119200,20235,2,EL,1,100,0.376648
119250,20253,2,EL,1,100,0.378259
119301,20253,2,EL,1,100,0.376044
119351,20271,2,EL,1,100,0.377655
119402,20271,2,EL,1,100,0.376245
119452,20289,2,EL,1,100,0.377454
119503,20289,2,EL,1,100,0.375439
119554,20308,2,EL,1,100,0.376849
119606,20308,2,EL,1,100,0.375037
119655,20326,2,EL,1,100,0.376849
119705,20326,2,EL,1,100,0.376648
119755,20344,2,EL,1,100,0.378058
119806,20344,2,EL,1,100,0.376245
119856,20362,2,EL,1,100,0.378058
119907,20362,2,EL,1,100,0.375641
119941,20380,3,EL,1,100,0.377454
119975,20380,3,EL,1,100,0.376245
120009,20380,3,EL,1,100,0.376849
120059,20398,2,EL,1,100,0.376849
120109,20398,2,EL,1,100,0.377252
120159,20416,2,EL,1,100,0.377856
120210,20416,2,EL,1,100,0.377051
120261,20435,2,EL,1,100,0.377051
120312,20435,2,EL,1,100,0.376044
120362,20453,2,EL,1,100,0.377856
120412,20453,2,EL,1,100,0.376447
120462,20471,2,EL,1,100,0.378461
120513,20471,2,EL,1,100,0.377454
120563,20489,2,EL,1,100,0.379065
120614,20489,2,EL,1,100,0.376245
120664,20507,2,EL,1,100,0.377856
120715,20507,2,EL,1,100,0.377454
120765,20525,2,EL,1,100,0.378259
120816,20525,2,EL,1,100,0.375842
120866,20543,2,EL,1,100,0.377655
120917,20543,2,EL,1,100,0.376849
120967,20561,2,EL,1,100,0.378259
121018,20561,2,EL,1,100,0.376245
121069,20580,2,EL,1,100,0.378461
121121,20580,2,EL,1,100,0.377454
121170,20598,2,EL,1,100,0.379266
121220,20598,2,EL,1,100,0.376648
121270,20616,2,EL,1,100,0.378259
121321,20616,2,EL,1,100,0.376447
121371,20634,2,EL,1,100,0.379065
121422,20634,2,EL,1,100,0.376849
121472,20652,2,EL,1,100,0.379065
121523,20652,2,EL,1,100,0.376245
121557,20670,3,EL,1,100,0.378058
121591,20670,3,EL,1,100,0.377454
121625,20670,3,EL,1,100,0.377454
121675,20688,2,EL,1,100,0.375842
121725,20688,2,EL,1,100,0.377856
121775,20707,2,EL,1,100,0.376044
121826,20707,2,EL,1,100,0.376849
121877,20725,2,EL,1,100,0.376245
121928,20725,2,EL,1,100,0.372821
121978,20743,2,EL,1,100,0.377454
122028,20743,2,EL,1,100,0.374634
122078,20761,2,EL,1,100,0.377051
122129,20761,2,EL,1,100,0.375641
122179,20779,2,EL,1,100,0.376648
122230,20779,2,EL,1,100,0.375641
122280,20797,2,EL,1,100,0.376245
122331,20797,2,EL,1,100,0.375439
122381,20815,2,EL,1,100,0.375641
122432,20815,2,EL,1,100,0.374432
122483,20834,2,EL,1,100,0.374432
122535,20834,2,EL,1,100,0.374634
122585,20852,2,EL,1,100,0.375842
122635,20852,2,EL,1,100,0.374432
122685,20870,2,EL,1,100,0.376447
122735,20870,2,EL,1,100,0.372418
122785,20888,2,EL,1,100,0.374432
122836,20888,2,EL,1,100,0.372821
122886,20906,2,EL,1,100,0.374432
122937,20906,2,EL,1,100,0.373627
122987,20924,2,EL,1,100,0.374432
123038,20924,2,EL,1,100,0.372620
123072,20942,3,EL,1,100,0.374231
123106,20942,3,EL,1,100,0.372015
123140,20942,3,EL,1,100,0.373224
123190,20960,2,EL,1,100,0.371411
123240,20960,2,EL,1,100,0.373627
123290,20979,2,EL,1,100,0.371008
123341,20979,2,EL,1,100,0.372418
123392,20997,2,EL,1,100,0.371613
123443,20997,2,EL,1,100,0.372418
123493,21015,2,EL,1,100,0.372217
123543,21015,2,EL,1,100,0.368994
123593,21033,2,EL,1,100,0.372217
123644,21033,2,EL,1,100,0.371411
123694,21051,2,EL,1,100,0.371411
123745,21051,2,EL,1,100,0.370001
123795,21069,2,EL,1,100,0.369397
123846,21069,2,EL,1,100,0.369196
123896,21087,2,EL,1,100,0.370203
123947,21087,2,EL,1,100,0.370203
123997,21106,2,EL,1,100,0.371411
124048,21106,2,EL,1,100,0.369800
124098,21124,2,EL,1,100,0.369800
124149,21124,2,EL,1,100,0.368994
124200,21142,2,EL,1,100,0.368793
124252,21142,2,EL,1,100,0.365771
124301,21160,2,EL,1,100,0.369196
124351,21160,2,EL,1,100,0.368188
124401,21178,2,EL,1,100,0.369196
124452,21178,2,EL,1,100,0.366980
124502,21196,2,EL,1,100,0.368390
124553,21196,2,EL,1,100,0.368994
124587,21214,3,EL,1,100,0.367383
124621,21214,3,EL,1,100,0.367383
124655,21214,3,EL,1,100,0.368591
124705,21232,2,EL,1,100,0.367987
124755,21232,2,EL,1,100,0.368591
124805,21251,2,EL,1,100,0.367181
124856,21251,2,EL,1,100,0.368390
124907,21269,2,EL,1,100,0.368188
124958,21269,2,EL,1,100,0.368390
125008,21287,2,EL,1,100,0.368591
125058,21287,2,EL,1,100,0.365771
125103,21308,4,EL,1,100,0.367786
125149,21308,4,EL,1,100,0.366174
125195,21308,4,EL,1,100,0.368390
125241,21308,4,EL,1,100,0.368994
125293,21327,2,EL,1,100,0.366174
125345,21327,2,EL,1,100,0.366779
125395,21346,2,EL,1,100,0.366174
125445,21346,2,EL,1,100,0.368390
125495,21365,2,EL,1,100,0.367181
125546,21365,2,EL,1,100,0.366174
125596,21383,2,EL,1,100,0.366779
125647,21383,2,EL,1,100,0.365167
125697,21401,2,EL,1,100,0.368591
125748,21401,2,EL,1,100,0.365167
125798,21419,2,EL,1,100,0.367987
125849,21419,2,EL,1,100,0.362549
125899,21437,2,EL,1,100,0.367181
125950,21437,2,EL,1,100,0.367181
126000,21455,2,EL,1,100,0.367786
126051,21455,2,EL,1,100,0.366174
126101,21473,2,EL,1,100,0.366577
126152,21473,2,EL,1,100,0.365973
126202,21491,2,EL,1,100,0.367987
126253,21491,2,EL,1,100,0.365570
126303,21510,2,EL,1,100,0.367181
126354,21510,2,EL,1,100,0.365771
126404,21528,2,EL,1,100,0.365973
126455,21528,2,EL,1,100,0.364764
126505,21546,2,EL,1,100,0.368188
126556,21546,2,EL,1,100,0.366376
126606,21564,2,EL,1,100,0.365973
126657,21564,2,EL,1,100,0.366577
126691,21582,3,EL,1,100,0.367987
126725,21582,3,EL,1,100,0.366577
126759,21582,3,EL,1,100,0.367181
126809,21600,2,EL,1,100,0.366174
126859,21600,2,EL,1,100,0.367383
126909,21618,2,EL,1,100,0.367786
126960,21618,2,EL,1,100,0.367584
127010,21637,2,EL,1,100,0.368591
127061,21637,2,EL,1,100,0.367181
127111,21655,2,EL,1,100,0.368390
127162,21655,2,EL,1,100,0.368390
127212,21673,2,EL,1,100,0.369196
127263,21673,2,EL,1,100,0.365973
127313,21691,2,EL,1,100,0.368188
127364,21691,2,EL,1,100,0.366779
127415,21709,2,EL,1,100,0.368390
127466,21709,2,EL,1,100,0.367786
127516,21727,2,EL,1,100,0.368390
127566,21727,2,EL,1,100,0.366980
127616,21745,2,EL,1,100,0.368390
127667,21745,2,EL,1,100,0.366980
127717,21764,2,EL,1,100,0.366980
127768,21764,2,EL,1,100,0.364160
127818,21782,2,EL,1,100,0.366376
127869,21782,2,EL,1,100,0.365570
127919,21800,2,EL,1,100,0.365973
127970,21800,2,EL,1,100,0.364563
128020,21818,2,EL,1,100,0.366376
128071,21818,2,EL,1,100,0.362952
128121,21836,2,EL,1,100,0.361945
128172,21836,2,EL,1,100,0.365167
128222,21854,2,EL,1,100,0.364764
128273,21854,2,EL,1,100,0.362952
128307,21872,3,EL,1,100,0.364563
128341,21872,3,EL,1,100,0.362952
128375,21872,3,EL,1,100,0.363354
128425,21890,2,EL,1,100,0.361743
128475,21890,2,EL,1,100,0.360333
128525,21909,2,EL,1,100,0.360333
128576,21909,2,EL,1,100,0.360736
128627,21927,2,EL,1,100,0.359528
128678,21927,2,EL,1,100,0.361542
128728,21945,2,EL,1,100,0.359930
128778,21945,2,EL,1,100,0.357111
128828,21963,2,EL,1,100,0.357513
128879,21963,2,EL,1,100,0.356305
128929,21981,2,EL,1,100,0.358118
128980,21981,2,EL,1,100,0.355701
129030,21999,2,EL,1,100,0.356104
129081,21999,2,EL,1,100,0.354492
129131,22017,2,EL,1,100,0.356909
129182,22017,2,EL,1,100,0.352478
129232,22036,2,EL,1,100,0.353888
129283,22036,2,EL,1,100,0.352881
129334,22054,2,EL,1,100,0.353888
129385,22054,2,EL,1,100,0.351471
129435,22072,2,EL,1,100,0.351068
129485,22072,2,EL,1,100,0.348853
129535,22090,2,EL,1,100,0.350867
129586,22090,2,EL,1,100,0.346838
129636,22108,2,EL,1,100,0.349457
129687,22108,2,EL,1,100,0.344824
129737,22126,2,EL,1,100,0.348248
129788,22126,2,EL,1,100,0.347443
129822,22144,3,EL,1,100,0.345630
129856,22144,3,EL,1,100,0.344421
129891,22144,3,EL,1,100,0.345831
129941,22163,2,EL,1,100,0.344019
129991,22163,2,EL,1,100,0.344220
130041,22181,2,EL,1,100,0.342609
130091,22181,2,EL,1,100,0.341400
130141,22199,2,EL,1,100,0.343213
130192,22199,2,EL,1,100,0.342004
130243,22217,2,EL,1,100,0.342206
130294,22217,2,EL,1,100,0.341602
130344,22235,2,EL,1,100,0.341199
130394,22235,2,EL,1,100,0.339386
130444,22253,2,EL,1,100,0.341602
130495,22253,2,EL,1,100,0.338782
130545,22271,2,EL,1,100,0.340997
130596,22271,2,EL,1,100,0.338379
130646,22289,2,EL,1,100,0.340192
130697,22289,2,EL,1,100,0.338782
130747,22308,2,EL,1,100,0.338782
130798,22308,2,EL,1,100,0.336365
130848,22326,2,EL,1,100,0.337775
130899,22326,2,EL,1,100,0.335358
130949,22344,2,EL,1,100,0.337170
131000,22344,2,EL,1,100,0.333545
131050,22362,2,EL,1,100,0.337372
131101,22362,2,EL,1,100,0.335358
131151,22380,2,EL,1,100,0.336566
131202,22380,2,EL,1,100,0.335962
131252,22398,2,EL,1,100,0.336768
131303,22398,2,EL,1,100,0.332336
131353,22416,2,EL,1,100,0.334955
131404,22416,2,EL,1,100,0.334753
131438,22435,3,EL,1,100,0.334552
131472,22435,3,EL,1,100,0.333545
131506,22435,3,EL,1,100,0.333142
131556,22453,2,EL,1,100,0.332739
131606,22453,2,EL,1,100,0.333948
131657,22471,2,EL,1,100,0.333948
131709,22471,2,EL,1,100,0.335156
131758,22489,2,EL,1,100,0.333746
131808,22489,2,EL,1,100,0.332336
131858,22507,2,EL,1,100,0.334149
131909,22507,2,EL,1,100,0.330121
131959,22525,2,EL,1,100,0.334753
132010,22525,2,EL,1,100,0.331329
132060,22543,2,EL,1,100,0.333344
132111,22543,2,EL,1,100,0.332135
132161,22561,2,EL,1,100,0.334149
132212,22561,2,EL,1,100,0.330121
132262,22580,2,EL,1,100,0.332336
132313,22580,2,EL,1,100,0.330524
132363,22598,2,EL,1,100,0.332336
132414,22598,2,EL,1,100,0.331531
132464,22616,2,EL,1,100,0.331934
132515,22616,2,EL,1,100,0.330725
132566,22634,2,EL,1,100,0.332135
132617,22634,2,EL,1,100,0.328912
132667,22652,2,EL,1,100,0.332336
132717,22652,2,EL,1,100,0.329919
132767,22670,2,EL,1,100,0.331329
132818,22670,2,EL,1,100,0.330725
132868,22688,2,EL,1,100,0.333142
132919,22688,2,EL,1,100,0.330121
132969,22707,2,EL,1,100,0.332336
133020,22707,2,EL,1,100,0.332336
133054,22725,3,EL,1,100,0.332336
133088,22725,3,EL,1,100,0.331329
133122,22725,3,EL,1,100,0.333545
133172,22743,2,EL,1,100,0.331732
133222,22743,2,EL,1,100,0.331531
133272,22761,2,EL,1,100,0.332336
133323,22761,2,EL,1,100,0.333344
133374,22779,2,EL,1,100,0.333142
133425,22779,2,EL,1,100,0.331128
133475,22797,2,EL,1,100,0.332941
133525,22797,2,EL,1,100,0.331732
133575,22815,2,EL,1,100,0.333142
133626,22815,2,EL,1,100,0.329718
133676,22834,2,EL,1,100,0.333142
133727,22834,2,EL,1,100,0.331934
133777,22852,2,EL,1,100,0.333142
133828,22852,2,EL,1,100,0.332941
133878,22870,2,EL,1,100,0.335358
133929,22870,2,EL,1,100,0.332538
133979,22888,2,EL,1,100,0.335156
134030,22888,2,EL,1,100,0.331329
134081,22906,2,EL,1,100,0.333746
134132,22906,2,EL,1,100,0.332941
134182,22924,2,EL,1,100,0.334955
134232,22924,2,EL,1,100,0.334149
134282,22942,2,EL,1,100,0.335358
134333,22942,2,EL,1,100,0.332135
134383,22960,2,EL,1,100,0.334955
134434,22960,2,EL,1,100,0.332739
134468,22979,3,EL,1,100,0.333344
134502,22979,3,EL,1,100,0.334351
134536,22979,3,EL,1,100,0.336969
134586,22997,2,EL,1,100,0.334552
134637,22997,2,EL,1,100,0.335962
134687,23015,2,EL,1,100,0.334753
134737,23015,2,EL,1,100,0.336969
134787,23033,2,EL,1,100,0.335156
134838,23033,2,EL,1,100,0.334149
134888,23051,2,EL,1,100,0.336768
134939,23051,2,EL,1,100,0.337573
134989,23069,2,EL,1,100,0.338177
135040,23069,2,EL,1,100,0.333746
135090,23087,2,EL,1,100,0.337372
135141,23087,2,EL,1,100,0.337170
135191,23106,2,EL,1,100,0.338580
135242,23106,2,EL,1,100,0.337372
135292,23124,2,EL,1,100,0.338983
135343,23124,2,EL,1,100,0.337170
135393,23142,2,EL,1,100,0.338580
135444,23142,2,EL,1,100,0.337573
135494,23160,2,EL,1,100,0.340393
135545,23160,2,EL,1,100,0.338983
135595,23178,2,EL,1,100,0.340594
135646,23178,2,EL,1,100,0.338177
135696,23196,2,EL,1,100,0.340594
135747,23196,2,EL,1,100,0.340393
135798,23214,2,EL,1,100,0.341602
135850,23214,2,EL,1,100,0.339990
135899,23232,2,EL,1,100,0.341602
135949,23232,2,EL,1,100,0.338580
135994,23254,4,EL,1,100,0.341400
136039,23254,4,EL,1,100,0.339587
136084,23254,4,EL,1,100,0.339990
136129,23254,4,EL,1,100,0.340796
136179,23273,2,EL,1,100,0.342407
136229,23273,2,EL,1,100,0.339789
136279,23292,2,EL,1,100,0.339789
136330,23292,2,EL,1,100,0.339185
136381,23310,2,EL,1,100,0.341803
136432,23310,2,EL,1,100,0.339990
136482,23328,2,EL,1,100,0.341602
136532,23328,2,EL,1,100,0.340192
136582,23346,2,EL,1,100,0.342810
136633,23346,2,EL,1,100,0.341400
136683,23365,2,EL,1,100,0.342004
136734,23365,2,EL,1,100,0.340997
136768,23383,3,EL,1,100,0.342206
136802,23383,3,EL,1,100,0.341400
136836,23383,3,EL,1,100,0.341803
136886,23401,2,EL,1,100,0.341602
136936,23401,2,EL,1,100,0.342407
136986,23419,2,EL,1,100,0.342609
137037,23419,2,EL,1,100,0.343011
137087,23437,2,EL,1,100,0.341199
137138,23437,2,EL,1,100,0.343011
137188,23455,2,EL,1,100,0.343414
137239,23455,2,EL,1,100,0.340997
137289,23473,2,EL,1,100,0.341803
137340,23473,2,EL,1,100,0.340796
137390,23491,2,EL,1,100,0.344019
137441,23491,2,EL,1,100,0.341602
137491,23510,2,EL,1,100,0.344421
137542,23510,2,EL,1,100,0.342609
137593,23528,2,EL,1,100,0.344019
137644,23528,2,EL,1,100,0.342407
137694,23546,2,EL,1,100,0.344824
137744,23546,2,EL,1,100,0.344421
137794,23564,2,EL,1,100,0.343616
137845,23564,2,EL,1,100,0.343011
137895,23582,2,EL,1,100,0.345227
137946,23582,2,EL,1,100,0.343213
137997,23600,2,EL,1,100,0.345428
138049,23600,2,EL,1,100,0.341199
138098,23618,2,EL,1,100,0.344220
138148,23618,2,EL,1,100,0.343616
138198,23637,2,EL,1,100,0.346033
138249,23637,2,EL,1,100,0.344019
138299,23655,2,EL,1,100,0.345630
138350,23655,2,EL,1,100,0.344019
138384,23673,3,EL,1,100,0.346838
138418,23673,3,EL,1,100,0.346234
138452,23673,3,EL,1,100,0.345831
138502,23691,2,EL,1,100,0.345831
138552,23691,2,EL,1,100,0.345831
138602,23709,2,EL,1,100,0.345227
138653,23709,2,EL,1,100,0.346637
138704,23727,2,EL,1,100,0.347845
138755,23727,2,EL,1,100,0.344220
138805,23745,2,EL,1,100,0.347443
138855,23745,2,EL,1,100,0.348047
138905,23764,2,EL,1,100,0.348651
138956,23764,2,EL,1,100,0.345227
139006,23782,2,EL,1,100,0.348450
139057,23782,2,EL,1,100,0.346637
139108,23800,2,EL,1,100,0.347040
139159,23800,2,EL,1,100,0.348047
139209,23818,2,EL,1,100,0.348248
139259,23818,2,EL,1,100,0.346637
139309,23836,2,EL,1,100,0.349255
139360,23836,2,EL,1,100,0.346838
139410,23854,2,EL,1,100,0.349054
139461,23854,2,EL,1,100,0.347845
139511,23872,2,EL,1,100,0.350262
139562,23872,2,EL,1,100,0.347845
139612,23890,2,EL,1,100,0.349054
139663,23890,2,EL,1,100,0.348047
139713,23909,2,EL,1,100,0.348853
139764,23909,2,EL,1,100,0.348248
139814,23927,2,EL,1,100,0.349255
139865,23927,2,EL,1,100,0.348651
139899,23945,3,EL,1,100,0.350665
139933,23945,3,EL,1,100,0.349860
139967,23945,3,EL,1,100,0.351068
140017,23963,2,EL,1,100,0.349658
140067,23963,2,EL,1,100,0.350061
140117,23981,2,EL,1,100,0.349860
140168,23981,2,EL,1,100,0.350665
140218,23999,2,EL,1,100,0.350867
140269,23999,2,EL,1,100,0.352277
140320,24017,2,EL,1,100,0.351874
140371,24017,2,EL,1,100,0.351068
140421,24036,2,EL,1,100,0.352277
140471,24036,2,EL,1,100,0.349255
140521,24054,2,EL,1,100,0.351672
140572,24054,2,EL,1,100,0.348651
140623,24072,2,EL,1,100,0.352679
140674,24072,2,EL,1,100,0.352679
140724,24090,2,EL,1,100,0.352478
140774,24090,2,EL,1,100,0.350867
140824,24108,2,EL,1,100,0.352478
140875,24108,2,EL,1,100,0.350867
140926,24126,2,EL,1,100,0.352075
140978,24126,2,EL,1,100,0.351270
141027,24144,2,EL,1,100,0.353687
141077,24144,2,EL,1,100,0.350061
141127,24162,2,EL,1,100,0.353687
141178,24162,2,EL,1,100,0.351270
141228,24181,2,EL,1,100,0.353082
141279,24181,2,EL,1,100,0.353082
141329,24199,2,EL,1,100,0.353687
141380,24199,2,EL,1,100,0.353485
141414,24217,3,EL,1,100,0.352679
141448,24217,3,EL,1,100,0.352679
141482,24217,3,EL,1,100,0.355298
141532,24235,2,EL,1,100,0.352679
141582,24235,2,EL,1,100,0.352478
141632,24253,2,EL,1,100,0.353082
141683,24253,2,EL,1,100,0.354694
141733,24271,2,EL,1,100,0.352679
141784,24271,2,EL,1,100,0.352679
141835,24289,2,EL,1,100,0.354895
141886,24289,2,EL,1,100,0.354492
141936,24308,2,EL,1,100,0.356506
141986,24308,2,EL,1,100,0.352478
142036,24326,2,EL,1,100,0.354895
142087,24326,2,EL,1,100,0.354291
142137,24344,2,EL,1,100,0.356506
142188,24344,2,EL,1,100,0.354291
142238,24362,2,EL,1,100,0.355701
142289,24362,2,EL,1,100,0.355298
142339,24380,2,EL,1,100,0.356506
142390,24380,2,EL,1,100,0.355298
142440,24398,2,EL,1,100,0.356708
142491,24398,2,EL,1,100,0.354895
142541,24416,2,EL,1,100,0.356305
142592,24416,2,EL,1,100,0.356506
142642,24435,2,EL,1,100,0.356708
142693,24435,2,EL,1,100,0.355902
142743,24453,2,EL,1,100,0.356708
142794,24453,2,EL,1,100,0.353082
142844,24471,2,EL,1,100,0.356506
142895,24471,2,EL,1,100,0.355701
142945,24489,2,EL,1,100,0.357312
142996,24489,2,EL,1,100,0.355701
143030,24507,3,EL,1,100,0.358118
143064,24507,3,EL,1,100,0.356909
143098,24507,3,EL,1,100,0.357715
143148,24525,2,EL,1,100,0.355499
143199,24525,2,EL,1,100,0.358319
143249,24543,2,EL,1,100,0.356708
143299,24543,2,EL,1,100,0.357312
143349,24561,2,EL,1,100,0.356909
143400,24561,2,EL,1,100,0.355902
143451,24580,2,EL,1,100,0.359125
143502,24580,2,EL,1,100,0.356305
143552,24598,2,EL,1,100,0.359528
143602,24598,2,EL,1,100,0.357312
143652,24616,2,EL,1,100,0.358722
143703,24616,2,EL,1,100,0.357111
143753,24634,2,EL,1,100,0.358722
143804,24634,2,EL,1,100,0.356104
143854,24652,2,EL,1,100,0.358319
143905,24652,2,EL,1,100,0.357715
143955,24670,2,EL,1,100,0.359528
144006,24670,2,EL,1,100,0.356104
144056,24688,2,EL,1,100,0.360333
144107,24688,2,EL,1,100,0.357111
144158,24707,2,EL,1,100,0.359326
144209,24707,2,EL,1,100,0.357715
144259,24725,2,EL,1,100,0.359930
144309,24725,2,EL,1,100,0.357513
144359,24743,2,EL,1,100,0.360333
144410,24743,2,EL,1,100,0.358319
144460,24761,2,EL,1,100,0.359326
144511,24761,2,EL,1,100,0.356708
144545,24779,3,EL,1,100,0.360535
144579,24779,3,EL,1,100,0.359528
144613,24779,3,EL,1,100,0.361542
144663,24797,2,EL,1,100,0.358923
144713,24797,2,EL,1,100,0.360132
144763,24815,2,EL,1,100,0.358521
144814,24815,2,EL,1,100,0.361139
144864,24834,2,EL,1,100,0.359125
144915,24834,2,EL,1,100,0.359930
144965,24852,2,EL,1,100,0.358722
145016,24852,2,EL,1,100,0.360333
145067,24870,2,EL,1,100,0.358521
145119,24870,2,EL,1,100,0.357715
145168,24888,2,EL,1,100,0.360333
145218,24888,2,EL,1,100,0.358319
145268,24906,2,EL,1,100,0.360736
145319,24906,2,EL,1,100,0.359729
145369,24924,2,EL,1,100,0.361542
145420,24924,2,EL,1,100,0.356708
145470,24942,2,EL,1,100,0.360535
145521,24942,2,EL,1,100,0.359528
145571,24960,2,EL,1,100,0.361743
145622,24960,2,EL,1,100,0.358923
145672,24979,2,EL,1,100,0.360535
145723,24979,2,EL,1,100,0.360333
145774,24997,2,EL,1,100,0.359125
145826,24997,2,EL,1,100,0.357513
145876,25015,2,EL,1,100,0.361340
145926,25015,2,EL,1,100,0.358319
145976,25033,2,EL,1,100,0.361542
146027,25033,2,EL,1,100,0.357916
146061,25051,3,EL,1,100,0.361542
146095,25051,3,EL,1,100,0.359729
146129,25051,3,EL,1,100,0.359528
146179,25069,2,EL,1,100,0.360333
146229,25069,2,EL,1,100,0.359125
146279,25087,2,EL,1,100,0.359326
146330,25087,2,EL,1,100,0.359930
146380,25106,2,EL,1,100,0.358722
146431,25106,2,EL,1,100,0.358521
146481,25124,2,EL,1,100,0.359326
146532,25124,2,EL,1,100,0.360736
146582,25142,2,EL,1,100,0.361139
146633,25142,2,EL,1,100,0.359729
146683,25160,2,EL,1,100,0.360535
146734,25160,2,EL,1,100,0.356506
146784,25178,2,EL,1,100,0.359930
146835,25178,2,EL,1,100,0.358923
146880,25199,4,EL,1,100,0.360736
146926,25199,4,EL,1,100,0.358118
146971,25199,4,EL,1,100,0.360736
147017,25199,4,EL,1,100,0.359326
147067,25218,2,EL,1,100,0.359528
147118,25218,2,EL,1,100,0.355902
147168,25238,2,EL,1,100,0.358118
147219,25238,2,EL,1,100,0.356708
147269,25256,2,EL,1,100,0.358118
147320,25256,2,EL,1,100,0.359528
147370,25274,2,EL,1,100,0.359326
147421,25274,2,EL,1,100,0.356708
147471,25292,2,EL,1,100,0.358521
147522,25292,2,EL,1,100,0.358722
147572,25310,2,EL,1,100,0.359528
147623,25310,2,EL,1,100,0.357111
147673,25328,2,EL,1,100,0.359528
147724,25328,2,EL,1,100,0.358722
147774,25346,2,EL,1,100,0.358319
147825,25346,2,EL,1,100,0.357312
147875,25365,2,EL,1,100,0.359528
147926,25365,2,EL,1,100,0.356305
147977,25383,2,EL,1,100,0.359729
148029,25383,2,EL,1,100,0.357715
148078,25401,2,EL,1,100,0.358923
148128,25401,2,EL,1,100,0.357513
148178,25419,2,EL,1,100,0.358722
148229,25419,2,EL,1,100,0.356305
148263,25437,3,EL,1,100,0.358923
148297,25437,3,EL,1,100,0.357916
148331,25437,3,EL,1,100,0.359125
148381,25455,2,EL,1,100,0.357715
148432,25455,2,EL,1,100,0.359729
148482,25473,2,EL,1,100,0.356708
148532,25473,2,EL,1,100,0.358118
148582,25491,2,EL,1,100,0.356708
148633,25491,2,EL,1,100,0.356909
148683,25510,2,EL,1,100,0.357312
148734,25510,2,EL,1,100,0.356305
148784,25528,2,EL,1,100,0.359125
148835,25528,2,EL,1,100,0.355298
148885,25546,2,EL,1,100,0.359326
148936,25546,2,EL,1,100,0.357513
148986,25564,2,EL,1,100,0.358521
149037,25564,2,EL,1,100,0.356104
149087,25582,2,EL,1,100,0.356909
149138,25582,2,EL,1,100,0.356909
149188,25600,2,EL,1,100,0.357715
149239,25600,2,EL,1,100,0.357513
149289,25618,2,EL,1,100,0.358521
149340,25618,2,EL,1,100,0.357916
149390,25637,2,EL,1,100,0.358319
149441,25637,2,EL,1,100,0.356104
149491,25655,2,EL,1,100,0.357513
149542,25655,2,EL,1,100,0.354492
149592,25673,2,EL,1,100,0.358118
149643,25673,2,EL,1,100,0.357715
149693,25691,2,EL,1,100,0.357715
149744,25691,2,EL,1,100,0.356506
149794,25709,2,EL,1,100,0.358118
149845,25709,2,EL,1,100,0.354895
149895,25727,2,EL,1,100,0.356708
149946,25727,2,EL,1,100,0.354694
149980,25745,3,EL,1,100,0.358118
150014,25745,3,EL,1,100,0.356104
150048,25745,3,EL,1,100,0.355096
150098,25764,2,EL,1,100,0.356104
150148,25764,2,EL,1,100,0.356305
150198,25782,2,EL,1,100,0.355499
150249,25782,2,EL,1,100,0.353888
150300,25800,2,EL,1,100,0.357111
150351,25800,2,EL,1,100,0.356909
150401,25818,2,EL,1,100,0.355902
150451,25818,2,EL,1,100,0.354694
150501,25836,2,EL,1,100,0.355298
150552,25836,2,EL,1,100,0.354492
150602,25854,2,EL,1,100,0.355499
150653,25854,2,EL,1,100,0.354492
150703,25872,2,EL,1,100,0.355298
150754,25872,2,EL,1,100,0.352881
150804,25890,2,EL,1,100,0.355499
150855,25890,2,EL,1,100,0.353284
150905,25909,2,EL,1,100,0.354492
150956,25909,2,EL,1,100,0.352881
151007,25927,2,EL,1,100,0.355096
151059,25927,2,EL,1,100,0.353284
151108,25945,2,EL,1,100,0.354694
151158,25945,2,EL,1,100,0.350061
151208,25963,2,EL,1,100,0.354291
151259,25963,2,EL,1,100,0.351471
151309,25981,2,EL,1,100,0.354492
151360,25981,2,EL,1,100,0.351068
151394,25999,3,EL,1,100,0.352679
151428,25999,3,EL,1,100,0.351672
151462,25999,3,EL,1,100,0.353284
151512,26017,2,EL,1,100,0.350665
151563,26017,2,EL,1,100,0.351672
151613,26036,2,EL,1,100,0.350061
151663,26036,2,EL,1,100,0.352075
151713,26054,2,EL,1,100,0.351270
151764,26054,2,EL,1,100,0.352679
151814,26072,2,EL,1,100,0.351270
151865,26072,2,EL,1,100,0.350061
151915,26090,2,EL,1,100,0.350665
151966,26090,2,EL,1,100,0.351471
152016,26108,2,EL,1,100,0.350867
152067,26108,2,EL,1,100,0.348047
152117,26126,2,EL,1,100,0.349255
152168,26126,2,EL,1,100,0.348248
152219,26144,2,EL,1,100,0.350665
152270,26144,2,EL,1,100,0.349054
152320,26162,2,EL,1,100,0.349860
152370,26162,2,EL,1,100,0.348450
152420,26181,2,EL,1,100,0.350061
152471,26181,2,EL,1,100,0.347845
152521,26199,2,EL,1,100,0.350464
152572,26199,2,EL,1,100,0.347644
152623,26217,2,EL,1,100,0.349658
152674,26217,2,EL,1,100,0.347241
152724,26235,2,EL,1,100,0.349054
152774,26235,2,EL,1,100,0.346436
152824,26253,2,EL,1,100,0.350665
152875,26253,2,EL,1,100,0.348248
152925,26271,2,EL,1,100,0.350262
152976,26271,2,EL,1,100,0.346436
153010,26289,3,EL,1,100,0.349255
153044,26289,3,EL,1,100,0.347845
153078,26289,3,EL,1,100,0.346838
153128,26308,2,EL,1,100,0.346838
153178,26308,2,EL,1,100,0.348450
153228,26326,2,EL,1,100,0.347443
153279,26326,2,EL,1,100,0.348450
153330,26344,2,EL,1,100,0.347644
153382,26344,2,EL,1,100,0.346436
153431,26362,2,EL,1,100,0.347845
153481,26362,2,EL,1,100,0.347845
153531,26380,2,EL,1,100,0.349457
153582,26380,2,EL,1,100,0.347241
153632,26398,2,EL,1,100,0.347241
153683,26398,2,EL,1,100,0.347040
153734,26416,2,EL,1,100,0.348047
153785,26416,2,EL,1,100,0.348450
153835,26435,2,EL,1,100,0.348853
153885,26435,2,EL,1,100,0.345026
153935,26453,2,EL,1,100,0.348853
153986,26453,2,EL,1,100,0.346838
154036,26471,2,EL,1,100,0.347845
154087,26471,2,EL,1,100,0.347644
154137,26489,2,EL,1,100,0.348853
154188,26489,2,EL,1,100,0.348651
154238,26507,2,EL,1,100,0.349054
154289,26507,2,EL,1,100,0.348248
154339,26525,2,EL,1,100,0.348853
154390,26525,2,EL,1,100,0.346637
154440,26543,2,EL,1,100,0.349054
154491,26543,2,EL,1,100,0.346838
154525,26561,3,EL,1,100,0.349860
154559,26561,3,EL,1,100,0.347241
154594,26561,3,EL,1,100,0.346838
154644,26580,2,EL,1,100,0.347040
154694,26580,2,EL,1,100,0.349658
154744,26598,2,EL,1,100,0.348047
154794,26598,2,EL,1,100,0.347644
154844,26616,2,EL,1,100,0.349255
154895,26616,2,EL,1,100,0.349054
154946,26634,2,EL,1,100,0.349860
154998,26634,2,EL,1,100,0.349255
155048,26652,2,EL,1,100,0.350061
155098,26652,2,EL,1,100,0.348450
155148,26670,2,EL,1,100,0.350061
155199,26670,2,EL,1,100,0.347241
155250,26688,2,EL,1,100,0.350061
155301,26688,2,EL,1,100,0.348248
155351,26707,2,EL,1,100,0.349860
155401,26707,2,EL,1,100,0.348248
155451,26725,2,EL,1,100,0.349860
155502,26725,2,EL,1,100,0.349054
155552,26743,2,EL,1,100,0.349255
155603,26743,2,EL,1,100,0.349255
155654,26761,2,EL,1,100,0.351471
155705,26761,2,EL,1,100,0.349255
155755,26779,2,EL,1,100,0.352075
155805,26779,2,EL,1,100,0.349860
155855,26797,2,EL,1,100,0.349860
155906,26797,2,EL,1,100,0.349255
155956,26815,2,EL,1,100,0.350262
156007,26815,2,EL,1,100,0.349860
156041,26834,3,EL,1,100,0.352075
156075,26834,3,EL,1,100,0.349457
156109,26834,3,EL,1,100,0.351270
156159,26852,2,EL,1,100,0.349457
156209,26852,2,EL,1,100,0.349054
156259,26870,2,EL,1,100,0.349658
156310,26870,2,EL,1,100,0.350061
156360,26888,2,EL,1,100,0.350061
156411,26888,2,EL,1,100,0.350867
156461,26906,2,EL,1,100,0.350464
156512,26906,2,EL,1,100,0.350464
156563,26924,2,EL,1,100,0.351068
156615,26924,2,EL,1,100,0.351672
156664,26942,2,EL,1,100,0.352478
156714,26942,2,EL,1,100,0.350464
156764,26960,2,EL,1,100,0.352478
156815,26960,2,EL,1,100,0.351471
156865,26979,2,EL,1,100,0.353485
156916,26979,2,EL,1,100,0.351672
156967,26997,2,EL,1,100,0.352881
157018,26997,2,EL,1,100,0.350867
157068,27015,2,EL,1,100,0.353082
157118,27015,2,EL,1,100,0.352075
157168,27033,2,EL,1,100,0.353888
157219,27033,2,EL,1,100,0.351874
157270,27051,2,EL,1,100,0.351874
157321,27051,2,EL,1,100,0.349658
157371,27069,2,EL,1,100,0.353888
157421,27069,2,EL,1,100,0.353687
157471,27087,2,EL,1,100,0.352679
157522,27087,2,EL,1,100,0.352881
157556,27106,3,EL,1,100,0.353888
157590,27106,3,EL,1,100,0.353082
157625,27106,3,EL,1,100,0.355499
157675,27124,2,EL,1,100,0.354089
157725,27124,2,EL,1,100,0.352679
157785,27145,3,EL,1,100,0.352881
157845,27145,3,EL,1,100,0.354895
157906,27145,3,EL,1,100,0.355499
157957,27164,2,EL,1,100,0.355701
158008,27164,2,EL,1,100,0.355701
158058,27183,2,EL,1,100,0.349658
158109,27183,2,EL,1,100,0.352277
158159,27201,2,EL,1,100,0.354291
158210,27201,2,EL,1,100,0.353284
158244,27219,3,EL,1,100,0.355499
158278,27219,3,EL,1,100,0.354291
158312,27219,3,EL,1,100,0.354895
158362,27238,2,EL,1,100,0.355096
158412,27238,2,EL,1,100,0.354089
158462,27256,2,EL,1,100,0.354291
158513,27256,2,EL,1,100,0.355499
158563,27274,2,EL,1,100,0.355902
158614,27274,2,EL,1,100,0.356506
158664,27292,2,EL,1,100,0.355701
158715,27292,2,EL,1,100,0.355701
158766,27310,2,EL,1,100,0.358118
158817,27310,2,EL,1,100,0.355499
158867,27328,2,EL,1,100,0.357111
158917,27328,2,EL,1,100,0.355298
158967,27346,2,EL,1,100,0.357312
159018,27346,2,EL,1,100,0.355902
159068,27365,2,EL,1,100,0.356104
159119,27365,2,EL,1,100,0.356104
159169,27383,2,EL,1,100,0.356104
159220,27383,2,EL,1,100,0.355701
159270,27401,2,EL,1,100,0.356104
159321,27401,2,EL,1,100,0.355499
159372,27419,2,EL,1,100,0.357513
159424,27419,2,EL,1,100,0.356104
159473,27437,2,EL,1,100,0.357715
159523,27437,2,EL,1,100,0.356909
159573,27455,2,EL,1,100,0.357513
159624,27455,2,EL,1,100,0.356305
159674,27473,2,EL,1,100,0.359125
159725,27473,2,EL,1,100,0.355902
159759,27491,3,EL,1,100,0.357513
159793,27491,3,EL,1,100,0.357916
159828,27491,3,EL,1,100,0.357715
159877,27510,2,EL,1,100,0.357111
159927,27510,2,EL,1,100,0.359326
159977,27528,2,EL,1,100,0.358118
160028,27528,2,EL,1,100,0.357715
160078,27546,2,EL,1,100,0.357513
160129,27546,2,EL,1,100,0.357715
160180,27564,2,EL,1,100,0.358722
160231,27564,2,EL,1,100,0.357111
160281,27582,2,EL,1,100,0.359528
160331,27582,2,EL,1,100,0.357312
160381,27600,2,EL,1,100,0.358319
160432,27600,2,EL,1,100,0.355701
160482,27618,2,EL,1,100,0.359326
160533,27618,2,EL,1,100,0.356506
160584,27637,2,EL,1,100,0.359125
160635,27637,2,EL,1,100,0.358118
160685,27655,2,EL,1,100,0.359125
160735,27655,2,EL,1,100,0.356708
160785,27673,2,EL,1,100,0.359326
160836,27673,2,EL,1,100,0.355902
160886,27691,2,EL,1,100,0.360333
160937,27691,2,EL,1,100,0.357513
160987,27709,2,EL,1,100,0.358722
161038,27709,2,EL,1,100,0.358319
161088,27727,2,EL,1,100,0.360535
161139,27727,2,EL,1,100,0.358923
161189,27745,2,EL,1,100,0.361340
161240,27745,2,EL,1,100,0.358923
161290,27764,2,EL,1,100,0.359528
161341,27764,2,EL,1,100,0.358521
161391,27782,2,EL,1,100,0.361340
161442,27782,2,EL,1,100,0.359528
161476,27800,3,EL,1,100,0.360333
161510,27800,3,EL,1,100,0.359125
161544,27800,3,EL,1,100,0.360938
161594,27818,2,EL,1,100,0.359528
161644,27818,2,EL,1,100,0.359528
161694,27836,2,EL,1,100,0.359326
161745,27836,2,EL,1,100,0.360535
161796,27854,2,EL,1,100,0.361139
161847,27854,2,EL,1,100,0.360736
161897,27872,2,EL,1,100,0.362549
161947,27872,2,EL,1,100,0.359326
161997,27890,2,EL,1,100,0.361945
162048,27890,2,EL,1,100,0.358722
162098,27909,2,EL,1,100,0.361340
162149,27909,2,EL,1,100,0.359528
162199,27927,2,EL,1,100,0.359729
162250,27927,2,EL,1,100,0.360132
162300,27945,2,EL,1,100,0.361542
162351,27945,2,EL,1,100,0.360333
162401,27963,2,EL,1,100,0.363153
162452,27963,2,EL,1,100,0.357513
162503,27981,2,EL,1,100,0.360535
162554,27981,2,EL,1,100,0.360736
162604,27999,2,EL,1,100,0.363354
162654,27999,2,EL,1,100,0.359930
162704,28017,2,EL,1,100,0.362347
162755,28017,2,EL,1,100,0.361743
162805,28036,2,EL,1,100,0.362347
162856,28036,2,EL,1,100,0.360736
162890,28054,3,EL,1,100,0.362952
162924,28054,3,EL,1,100,0.362347
162958,28054,3,EL,1,100,0.362952
163008,28072,2,EL,1,100,0.361340
163058,28072,2,EL,1,100,0.363354
163108,28090,2,EL,1,100,0.362347
163159,28090,2,EL,1,100,0.362347
163209,28108,2,EL,1,100,0.362347
163260,28108,2,EL,1,100,0.362146
163310,28126,2,EL,1,100,0.360535
163361,28126,2,EL,1,100,0.361340
163412,28144,2,EL,1,100,0.361340
163464,28144,2,EL,1,100,0.361743
163513,28162,2,EL,1,100,0.364362
163563,28162,2,EL,1,100,0.361139
163613,28181,2,EL,1,100,0.363959
163664,28181,2,EL,1,100,0.361340
163714,28199,2,EL,1,100,0.364362
163765,28199,2,EL,1,100,0.362952
163816,28217,2,EL,1,100,0.364160
163867,28217,2,EL,1,100,0.362750
163917,28235,2,EL,1,100,0.363354
163967,28235,2,EL,1,100,0.362549
164017,28253,2,EL,1,100,0.364764
164068,28253,2,EL,1,100,0.361743
164118,28271,2,EL,1,100,0.363556
164169,28271,2,EL,1,100,0.362146
164219,28289,2,EL,1,100,0.363757
164270,28289,2,EL,1,100,0.362549
164320,28308,2,EL,1,100,0.364362
164371,28308,2,EL,1,100,0.362952
164421,28326,2,EL,1,100,0.362952
164472,28326,2,EL,1,100,0.363153
164506,28344,3,EL,1,100,0.364764
164540,28344,3,EL,1,100,0.363959
164574,28344,3,EL,1,100,0.362347
164624,28362,2,EL,1,100,0.362347
164674,28362,2,EL,1,100,0.364160
164724,28380,2,EL,1,100,0.361945
164775,28380,2,EL,1,100,0.364362
164825,28398,2,EL,1,100,0.364764
164876,28398,2,EL,1,100,0.364160
164927,28416,2,EL,1,100,0.365369
164978,28416,2,EL,1,100,0.364966
165028,28435,2,EL,1,100,0.364362
165078,28435,2,EL,1,100,0.363354
165128,28453,2,EL,1,100,0.363354
165179,28453,2,EL,1,100,0.362549
165229,28471,2,EL,1,100,0.364563
165280,28471,2,EL,1,100,0.366577
165331,28489,2,EL,1,100,0.364966
165383,28489,2,EL,1,100,0.365570
165432,28507,2,EL,1,100,0.365570
165482,28507,2,EL,1,100,0.363757
165532,28525,2,EL,1,100,0.365973
165583,28525,2,EL,1,100,0.364362
165633,28543,2,EL,1,100,0.365771
165684,28543,2,EL,1,100,0.363354
165735,28561,2,EL,1,100,0.365369
165787,28561,2,EL,1,100,0.363757
165836,28580,2,EL,1,100,0.365973
165886,28580,2,EL,1,100,0.363354
165936,28598,2,EL,1,100,0.366577
165987,28598,2,EL,1,100,0.363354
166037,28616,2,EL,1,100,0.366779
166088,28616,2,EL,1,100,0.364160
166122,28634,3,EL,1,100,0.365167
166156,28634,3,EL,1,100,0.364563
166190,28634,3,EL,1,100,0.365369
166240,28652,2,EL,1,100,0.364160
166290,28652,2,EL,1,100,0.365167
166340,28670,2,EL,1,100,0.364160
166391,28670,2,EL,1,100,0.363556
166441,28688,2,EL,1,100,0.364160
166492,28688,2,EL,1,100,0.365369
166542,28707,2,EL,1,100,0.364764
166593,28707,2,EL,1,100,0.364563
166643,28725,2,EL,1,100,0.366376
166694,28725,2,EL,1,100,0.364362
166744,28743,2,EL,1,100,0.363757
166795,28743,2,EL,1,100,0.362750
166846,28761,2,EL,1,100,0.365369
166897,28761,2,EL,1,100,0.364362
166947,28779,2,EL,1,100,0.366174
166997,28779,2,EL,1,100,0.363556
167047,28797,2,EL,1,100,0.365771
167098,28797,2,EL,1,100,0.364160
167148,28815,2,EL,1,100,0.365570
167199,28815,2,EL,1,100,0.362146
167250,28834,2,EL,1,100,0.363354
167302,28834,2,EL,1,100,0.362952
167351,28852,2,EL,1,100,0.364563
167401,28852,2,EL,1,100,0.363556
167451,28870,2,EL,1,100,0.364362
167502,28870,2,EL,1,100,0.362347
167552,28888,2,EL,1,100,0.365167
167603,28888,2,EL,1,100,0.362146
167637,28906,3,EL,1,100,0.364764
167671,28906,3,EL,1,100,0.363959
167705,28906,3,EL,1,100,0.363757
167755,28924,2,EL,1,100,0.363153
167805,28924,2,EL,1,100,0.364160
167855,28942,2,EL,1,100,0.362952
167906,28942,2,EL,1,100,0.362146
167956,28960,2,EL,1,100,0.362549
168007,28960,2,EL,1,100,0.362347
168057,28979,2,EL,1,100,0.362750
168108,28979,2,EL,1,100,0.362750
168158,28997,2,EL,1,100,0.362549
168209,28997,2,EL,1,100,0.361340
168259,29015,2,EL,1,100,0.362146
168310,29015,2,EL,1,100,0.362347
168360,29033,2,EL,1,100,0.362952
168411,29033,2,EL,1,100,0.364764
168461,29051,2,EL,1,100,0.362750
168512,29051,2,EL,1,100,0.361542
168562,29069,2,EL,1,100,0.361945
168613,29069,2,EL,1,100,0.360132
168658,29090,4,EL,1,100,0.362347
168703,29090,4,EL,1,100,0.359125
168748,29090,4,EL,1,100,0.360535
168793,29090,4,EL,1,100,0.362549
168843,29111,2,EL,1,100,0.361340
168893,29111,2,EL,1,100,0.359930
168943,29128,2,EL,1,100,0.361139
168994,29128,2,EL,1,100,0.358923
169045,29146,2,EL,1,100,0.360333
169096,29146,2,EL,1,100,0.360333
169146,29164,2,EL,1,100,0.361945
169196,29164,2,EL,1,100,0.360132
169246,29182,2,EL,1,100,0.360736
169297,29182,2,EL,1,100,0.360333
169347,29200,2,EL,1,100,0.360333
169398,29200,2,EL,1,100,0.357916
169448,29218,2,EL,1,100,0.360535
169499,29218,2,EL,1,100,0.360535
169549,29237,2,EL,1,100,0.359729
169600,29237,2,EL,1,100,0.358319
169650,29255,2,EL,1,100,0.360535
169701,29255,2,EL,1,100,0.358319
169751,29273,2,EL,1,100,0.359930
169802,29273,2,EL,1,100,0.356506
169852,29291,2,EL,1,100,0.358923
169903,29291,2,EL,1,100,0.357916
169937,29309,3,EL,1,100,0.359528
169971,29309,3,EL,1,100,0.359326
170005,29309,3,EL,1,100,0.358521
170055,29327,2,EL,1,100,0.357312
170105,29327,2,EL,1,100,0.358319
170155,29345,2,EL,1,100,0.355701
170206,29345,2,EL,1,100,0.357513
170256,29364,2,EL,1,100,0.354895
170307,29364,2,EL,1,100,0.358118
170358,29382,2,EL,1,100,0.356506
170409,29382,2,EL,1,100,0.356909
170459,29400,2,EL,1,100,0.356305
170509,29400,2,EL,1,100,0.354291
170559,29418,2,EL,1,100,0.356708
170610,29418,2,EL,1,100,0.355902
170660,29436,2,EL,1,100,0.357111
170711,29436,2,EL,1,100,0.354089
170762,29454,2,EL,1,100,0.355902
170814,29454,2,EL,1,100,0.350867
170863,29472,2,EL,1,100,0.355902
170913,29472,2,EL,1,100,0.353888
170963,29490,2,EL,1,100,0.354694
171014,29490,2,EL,1,100,0.352277
171065,29509,2,EL,1,100,0.354089
171117,29509,2,EL,1,100,0.352679
171166,29527,2,EL,1,100,0.354291
171216,29527,2,EL,1,100,0.351874
171266,29545,2,EL,1,100,0.354694
171317,29545,2,EL,1,100,0.352679
171367,29563,2,EL,1,100,0.355096
171418,29563,2,EL,1,100,0.351068
171452,29581,3,EL,1,100,0.352075
171486,29581,3,EL,1,100,0.351270
171520,29581,3,EL,1,100,0.351471
171570,29599,2,EL,1,100,0.349658
171621,29599,2,EL,1,100,0.353284
171671,29617,2,EL,1,100,0.350262
171721,29617,2,EL,1,100,0.351672
171771,29636,2,EL,1,100,0.349860
171822,29636,2,EL,1,100,0.349457
171872,29654,2,EL,1,100,0.348248
171923,29654,2,EL,1,100,0.346033
171973,29672,2,EL,1,100,0.349054
172024,29672,2,EL,1,100,0.348047
172074,29690,2,EL,1,100,0.348651
172125,29690,2,EL,1,100,0.348047
172175,29708,2,EL,1,100,0.347644
172226,29708,2,EL,1,100,0.346838
172276,29726,2,EL,1,100,0.346838
172327,29726,2,EL,1,100,0.346033
172378,29744,2,EL,1,100,0.345026
172430,29744,2,EL,1,100,0.342609
172479,29763,2,EL,1,100,0.345630
172529,29763,2,EL,1,100,0.342810
172579,29781,2,EL,1,100,0.345630
172630,29781,2,EL,1,100,0.344220
172680,29799,2,EL,1,100,0.344019
172731,29799,2,EL,1,100,0.339789
172781,29817,2,EL,1,100,0.342810
172832,29817,2,EL,1,100,0.343616
172882,29835,2,EL,1,100,0.342609
172933,29835,2,EL,1,100,0.342004
172983,29853,2,EL,1,100,0.341803
173034,29853,2,EL,1,100,0.339386
173084,29871,2,EL,1,100,0.342004
173135,29871,2,EL,1,100,0.341400
173169,29889,3,EL,1,100,0.341400
173203,29889,3,EL,1,100,0.339990
173237,29889,3,EL,1,100,0.340594
173287,29908,2,EL,1,100,0.338379
173337,29908,2,EL,1,100,0.339587
173387,29926,2,EL,1,100,0.339386
173438,29926,2,EL,1,100,0.337170
173488,29944,2,EL,1,100,0.338379
173539,29944,2,EL,1,100,0.333545
173589,29962,2,EL,1,100,0.338580
173640,29962,2,EL,1,100,0.337573
173690,29980,2,EL,1,100,0.337775
173741,29980,2,EL,1,100,0.336365
173791,29998,2,EL,1,100,0.337976
173842,29998,2,EL,1,100,0.336365
173893,30016,2,EL,1,100,0.336566
173944,30016,2,EL,1,100,0.336163
173994,30035,2,EL,1,100,0.337170
174044,30035,2,EL,1,100,0.334351
174094,30053,2,EL,1,100,0.335761
174145,30053,2,EL,1,100,0.333545
174195,30071,2,EL,1,100,0.335559
174246,30071,2,EL,1,100,0.334552
174296,30089,2,EL,1,100,0.336365
174347,30089,2,EL,1,100,0.334351
174397,30107,2,EL,1,100,0.334955
174448,30107,2,EL,1,100,0.332941
174498,30125,2,EL,1,100,0.335156
174549,30125,2,EL,1,100,0.331934
174599,30143,2,EL,1,100,0.335358
174650,30143,2,EL,1,100,0.334149
174700,30161,2,EL,1,100,0.334351
174751,30161,2,EL,1,100,0.334149
174785,30180,3,EL,1,100,0.335962
174819,30180,3,EL,1,100,0.332739
174853,30180,3,EL,1,100,0.334955
174903,30198,2,EL,1,100,0.332941
174953,30198,2,EL,1,100,0.334552
175003,30216,2,EL,1,100,0.333948
175054,30216,2,EL,1,100,0.330121
175105,30234,2,EL,1,100,0.334552
175156,30234,2,EL,1,100,0.329517
175206,30252,2,EL,1,100,0.335358
175256,30252,2,EL,1,100,0.332941
175306,30270,2,EL,1,100,0.334552
175357,30270,2,EL,1,100,0.332941
175407,30288,2,EL,1,100,0.333948
175458,30288,2,EL,1,100,0.333545
175509,30307,2,EL,1,100,0.334955
175560,30307,2,EL,1,100,0.332336
175610,30325,2,EL,1,100,0.335156
175660,30325,2,EL,1,100,0.331934
175710,30343,2,EL,1,100,0.335559
175761,30343,2,EL,1,100,0.332538
175812,30361,2,EL,1,100,0.335559
175864,30361,2,EL,1,100,0.332135
175913,30379,2,EL,1,100,0.335962
175963,30379,2,EL,1,100,0.333545
176013,30397,2,EL,1,100,0.334753
176064,30397,2,EL,1,100,0.334149
176114,30415,2,EL,1,100,0.335962
176165,30415,2,EL,1,100,0.334351
176199,30434,3,EL,1,100,0.334753
176233,30434,3,EL,1,100,0.333948
176268,30434,3,EL,1,100,0.333142
176318,30452,2,EL,1,100,0.335358
176368,30452,2,EL,1,100,0.336768
176418,30470,2,EL,1,100,0.333948
176468,30470,2,EL,1,100,0.335559
176518,30488,2,EL,1,100,0.334753
176569,30488,2,EL,1,100,0.336365
176619,30506,2,EL,1,100,0.337372
176670,30506,2,EL,1,100,0.335962
176720,30524,2,EL,1,100,0.336163
176771,30524,2,EL,1,100,0.334753
176821,30542,2,EL,1,100,0.336365
176872,30542,2,EL,1,100,0.335559
176922,30560,2,EL,1,100,0.338782
176973,30560,2,EL,1,100,0.334955
177024,30579,2,EL,1,100,0.337573
177075,30579,2,EL,1,100,0.337775
177125,30597,2,EL,1,100,0.337775
177175,30597,2,EL,1,100,0.336768
177225,30615,2,EL,1,100,0.337573
177276,30615,2,EL,1,100,0.336768
177326,30633,2,EL,1,100,0.338782
177377,30633,2,EL,1,100,0.337573
177427,30651,2,EL,1,100,0.337976
177478,30651,2,EL,1,100,0.337372
177528,30669,2,EL,1,100,0.338379
177579,30669,2,EL,1,100,0.336566
177629,30687,2,EL,1,100,0.340192
177680,30687,2,EL,1,100,0.337976
177730,30706,2,EL,1,100,0.338580
177781,30706,2,EL,1,100,0.339587
177815,30724,3,EL,1,100,0.339587
177849,30724,3,EL,1,100,0.337976
177883,30724,3,EL,1,100,0.340192
177933,30742,2,EL,1,100,0.337775
177983,30742,2,EL,1,100,0.340393
178033,30760,2,EL,1,100,0.339386
178084,30760,2,EL,1,100,0.339789
178134,30778,2,EL,1,100,0.339386
178185,30778,2,EL,1,100,0.341199
178235,30796,2,EL,1,100,0.341602
178286,30796,2,EL,1,100,0.339386
178336,30814,2,EL,1,100,0.340393
178387,30814,2,EL,1,100,0.337976
178437,30833,2,EL,1,100,0.340594
178488,30833,2,EL,1,100,0.337976
178539,30851,2,EL,1,100,0.339789
178590,30851,2,EL,1,100,0.335962
178640,30869,2,EL,1,100,0.339789
178690,30869,2,EL,1,100,0.337372
178740,30887,2,EL,1,100,0.339990
178791,30887,2,EL,1,100,0.337976
178841,30905,2,EL,1,100,0.340393
178892,30905,2,EL,1,100,0.337976
178942,30923,2,EL,1,100,0.341199
178993,30923,2,EL,1,100,0.339587
179043,30941,2,EL,1,100,0.339386
179094,30941,2,EL,1,100,0.337372
179144,30959,2,EL,1,100,0.338580
179195,30959,2,EL,1,100,0.338782
179245,30978,2,EL,1,100,0.339990
179296,30978,2,EL,1,100,0.336566
179330,30996,3,EL,1,100,0.338580
179364,30996,3,EL,1,100,0.338379
179398,30996,3,EL,1,100,0.339386
179448,31014,2,EL,1,100,0.336566
179498,31014,2,EL,1,100,0.337775
179559,31035,3,EL,1,100,0.335761
179620,31035,3,EL,1,100,0.338983
179681,31035,3,EL,1,100,0.337573
179732,31055,2,EL,1,100,0.337976
179783,31055,2,EL,1,100,0.337372
179817,31073,3,EL,1,100,0.334955
179851,31073,3,EL,1,100,0.336768
179885,31073,3,EL,1,100,0.338177
179935,31092,2,EL,1,100,0.336566
179986,31092,2,EL,1,100,0.337775
180036,31110,2,EL,1,100,0.336163
180086,31110,2,EL,1,100,0.334955
180136,31128,2,EL,1,100,0.336768
180187,31128,2,EL,1,100,0.336969
180238,31146,2,EL,1,100,0.337573
180289,31146,2,EL,1,100,0.338379
180339,31164,2,EL,1,100,0.337775
180389,31164,2,EL,1,100,0.335962
180439,31182,2,EL,1,100,0.337372
180490,31182,2,EL,1,100,0.335358
180540,31200,2,EL,1,100,0.338379
180591,31200,2,EL,1,100,0.337170
180641,31218,2,EL,1,100,0.336566
180692,31218,2,EL,1,100,0.335156
180742,31237,2,EL,1,100,0.337573
180793,31237,2,EL,1,100,0.335761
180843,31255,2,EL,1,100,0.337976
180894,31255,2,EL,1,100,0.336768
180944,31273,2,EL,1,100,0.337573
180995,31273,2,EL,1,100,0.334149
181045,31291,2,EL,1,100,0.337573
181096,31291,2,EL,1,100,0.336163
181146,31309,2,EL,1,100,0.336768
181197,31309,2,EL,1,100,0.334753
181247,31327,2,EL,1,100,0.336768
181298,31327,2,EL,1,100,0.336365
181332,31345,3,EL,1,100,0.337976
181366,31345,3,EL,1,100,0.335761
181400,31345,3,EL,1,100,0.335962
181450,31364,2,EL,1,100,0.335761
181501,31364,2,EL,1,100,0.335761
181551,31382,2,EL,1,100,0.336566
181601,31382,2,EL,1,100,0.337775
181651,31400,2,EL,1,100,0.336768
181702,31400,2,EL,1,100,0.337976
181753,31418,2,EL,1,100,0.337573
181805,31418,2,EL,1,100,0.337775
181854,31436,2,EL,1,100,0.338580
181904,31436,2,EL,1,100,0.336768
181954,31454,2,EL,1,100,0.338580
182005,31454,2,EL,1,100,0.336365
182055,31472,2,EL,1,100,0.337775
182106,31472,2,EL,1,100,0.337170
182157,31490,2,EL,1,100,0.338580
182208,31490,2,EL,1,100,0.336969
182258,31509,2,EL,1,100,0.339185
182308,31509,2,EL,1,100,0.336768
182358,31527,2,EL,1,100,0.338177
182409,31527,2,EL,1,100,0.337170
182459,31545,2,EL,1,100,0.338580
182510,31545,2,EL,1,100,0.337372
182560,31563,2,EL,1,100,0.338177
182611,31563,2,EL,1,100,0.338177
182661,31581,2,EL,1,100,0.338983
182712,31581,2,EL,1,100,0.338379
182762,31599,2,EL,1,100,0.339386
182813,31599,2,EL,1,100,0.338379
182847,31617,3,EL,1,100,0.338782
182881,31617,3,EL,1,100,0.337170
182915,31617,3,EL,1,100,0.339386
182965,31636,2,EL,1,100,0.337976
183015,31636,2,EL,1,100,0.339789
183065,31654,2,EL,1,100,0.338782
183116,31654,2,EL,1,100,0.339587
183166,31672,2,EL,1,100,0.339789
183217,31672,2,EL,1,100,0.340997
183268,31690,2,EL,1,100,0.339587
183320,31690,2,EL,1,100,0.337170
183369,31708,2,EL,1,100,0.341199
183419,31708,2,EL,1,100,0.339789
183469,31726,2,EL,1,100,0.340796
183520,31726,2,EL,1,100,0.339789
183570,31744,2,EL,1,100,0.340796
183621,31744,2,EL,1,100,0.340192
183672,31763,2,EL,1,100,0.341199
183724,31763,2,EL,1,100,0.339386
183773,31781,2,EL,1,100,0.342407
183823,31781,2,EL,1,100,0.339990
183873,31799,2,EL,1,100,0.342810
183924,31799,2,EL,1,100,0.341199
183974,31817,2,EL,1,100,0.341199
184025,31817,2,EL,1,100,0.339990
184075,31835,2,EL,1,100,0.341400
184126,31835,2,EL,1,100,0.339386
184176,31853,2,EL,1,100,0.342609
184227,31853,2,EL,1,100,0.339185
184277,31871,2,EL,1,100,0.341803
184328,31871,2,EL,1,100,0.340393
184378,31889,2,EL,1,100,0.343213
184429,31889,2,EL,1,100,0.342407
184479,31908,2,EL,1,100,0.343414
184530,31908,2,EL,1,100,0.341803
184564,31926,3,EL,1,100,0.342810
184598,31926,3,EL,1,100,0.342004
184632,31926,3,EL,1,100,0.344421
184682,31944,2,EL,1,100,0.342206
184732,31944,2,EL,1,100,0.343817
184782,31962,2,EL,1,100,0.342407
184833,31962,2,EL,1,100,0.341400
184883,31980,2,EL,1,100,0.343213
184934,31980,2,EL,1,100,0.344019
184984,31998,2,EL,1,100,0.344220
185035,31998,2,EL,1,100,0.342004
185085,32016,2,EL,1,100,0.344220
185136,32016,2,EL,1,100,0.342004
185186,32035,2,EL,1,100,0.344421
185237,32035,2,EL,1,100,0.341400
185287,32053,2,EL,1,100,0.345026
185338,32053,2,EL,1,100,0.345026
185388,32071,2,EL,1,100,0.346234
185439,32071,2,EL,1,100,0.343414
185489,32089,2,EL,1,100,0.345630
185540,32089,2,EL,1,100,0.345227
185591,32107,2,EL,1,100,0.344824
185643,32107,2,EL,1,100,0.344421
185692,32125,2,EL,1,100,0.345831
185742,32125,2,EL,1,100,0.344421
185792,32143,2,EL,1,100,0.345630
185843,32143,2,EL,1,100,0.343414
185889,32162,3,EL,1,100,0.346838
185935,32162,3,EL,1,100,0.343616
185982,32162,3,EL,1,100,0.346234
186032,32180,2,EL,1,100,0.346033
186083,32180,2,EL,1,100,0.344824
186133,32198,2,EL,1,100,0.346234
186183,32198,2,EL,1,100,0.345227
186233,32216,2,EL,1,100,0.347040
186284,32216,2,EL,1,100,0.345630
186334,32234,2,EL,1,100,0.345630
186385,32234,2,EL,1,100,0.344824
186435,32252,2,EL,1,100,0.346838
186486,32252,2,EL,1,100,0.343213
186520,32270,3,EL,1,100,0.346436
186554,32270,3,EL,1,100,0.345227
186588,32270,3,EL,1,100,0.346234
186638,32289,2,EL,1,100,0.344019
186688,32289,2,EL,1,100,0.346234
186738,32307,2,EL,1,100,0.344220
186789,32307,2,EL,1,100,0.344220
186839,32325,2,EL,1,100,0.344421
186890,32325,2,EL,1,100,0.344019
186941,32343,2,EL,1,100,0.344421
186992,32343,2,EL,1,100,0.343213
187042,32361,2,EL,1,100,0.344220
187092,32361,2,EL,1,100,0.341199
187142,32379,2,EL,1,100,0.342810
187193,32379,2,EL,1,100,0.339185
187244,32397,2,EL,1,100,0.342206
187295,32397,2,EL,1,100,0.340192
187345,32415,2,EL,1,100,0.341400
187395,32415,2,EL,1,100,0.336365
187445,32434,2,EL,1,100,0.339185
187496,32434,2,EL,1,100,0.338379
187546,32452,2,EL,1,100,0.337775
187597,32452,2,EL,1,100,0.336365
187647,32470,2,EL,1,100,0.336566
187698,32470,2,EL,1,100,0.333746
187748,32488,2,EL,1,100,0.335962
187799,32488,2,EL,1,100,0.334552
187849,32506,2,EL,1,100,0.334955
187900,32506,2,EL,1,100,0.331934
187950,32524,2,EL,1,100,0.332739
188001,32524,2,EL,1,100,0.331732
188035,32542,3,EL,1,100,0.331329
188069,32542,3,EL,1,100,0.329718
188103,32542,3,EL,1,100,0.330121
188153,32561,2,EL,1,100,0.328107
188203,32561,2,EL,1,100,0.326697
188253,32579,2,EL,1,100,0.326898
188304,32579,2,EL,1,100,0.326093
188355,32597,2,EL,1,100,0.326495
188407,32597,2,EL,1,100,0.324280
188456,32615,2,EL,1,100,0.323273
188506,32615,2,EL,1,100,0.323676
188556,32633,2,EL,1,100,0.323071
188607,32633,2,EL,1,100,0.318842
188657,32651,2,EL,1,100,0.320856
188708,32651,2,EL,1,100,0.318237
188758,32669,2,EL,1,100,0.319446
188809,32669,2,EL,1,100,0.317834
188859,32687,2,EL,1,100,0.319043
188910,32687,2,EL,1,100,0.316425
188960,32706,2,EL,1,100,0.316223
189011,32706,2,EL,1,100,0.315619
189061,32724,2,EL,1,100,0.317230
189112,32724,2,EL,1,100,0.315216
189162,32742,2,EL,1,100,0.316626
189213,32742,2,EL,1,100,0.312598
189263,32760,2,EL,1,100,0.315216
189314,32760,2,EL,1,100,0.313000
189364,32778,2,EL,1,100,0.314008
189415,32778,2,EL,1,100,0.310986
189465,32796,2,EL,1,100,0.312396
189516,32796,2,EL,1,100,0.311188
189566,32814,2,EL,1,100,0.312195
189617,32814,2,EL,1,100,0.309576
189651,32833,3,EL,1,100,0.310986
189685,32833,3,EL,1,100,0.309778
189719,32833,3,EL,1,100,0.309979
189769,32851,2,EL,1,100,0.308167
189820,32851,2,EL,1,100,0.309576
189870,32869,2,EL,1,100,0.307562
189920,32869,2,EL,1,100,0.309375
189970,32887,2,EL,1,100,0.308368
190021,32887,2,EL,1,100,0.304944
190071,32905,2,EL,1,100,0.308167
190122,32905,2,EL,1,100,0.307562
190172,32923,2,EL,1,100,0.309174
190223,32923,2,EL,1,100,0.307159
190273,32941,2,EL,1,100,0.307159
190324,32941,2,EL,1,100,0.305750
190374,32960,2,EL,1,100,0.308368
190425,32960,2,EL,1,100,0.306354
190479,32981,3,EL,1,100,0.306757
190534,32981,3,EL,1,100,0.305951
190589,32981,3,EL,1,100,0.306354
190639,33001,2,EL,1,100,0.307562
190689,33001,2,EL,1,100,0.306152
190739,33019,2,EL,1,100,0.304541
190790,33019,2,EL,1,100,0.305548
190824,33037,3,EL,1,100,0.306354
190858,33037,3,EL,1,100,0.304944
190893,33037,3,EL,1,100,0.307361
190943,33055,2,EL,1,100,0.306152
190993,33055,2,EL,1,100,0.306555
191043,33073,2,EL,1,100,0.304541
191093,33073,2,EL,1,100,0.305548
191144,33092,2,EL,1,100,0.305951
191196,33092,2,EL,1,100,0.304944
191245,33110,2,EL,1,100,0.305145
191295,33110,2,EL,1,100,0.305145
191345,33128,2,EL,1,100,0.305347
191396,33128,2,EL,1,100,0.304138
191446,33146,2,EL,1,100,0.306354
191497,33146,2,EL,1,100,0.304944
191547,33164,2,EL,1,100,0.306757
191598,33164,2,EL,1,100,0.303534
191648,33182,2,EL,1,100,0.306555
191699,33182,2,EL,1,100,0.304742
191750,33200,2,EL,1,100,0.307159
191801,33200,2,EL,1,100,0.302124
191851,33218,2,EL,1,100,0.306152
191901,33218,2,EL,1,100,0.304944
191951,33237,2,EL,1,100,0.306555
192002,33237,2,EL,1,100,0.305145
192052,33255,2,EL,1,100,0.307361
192103,33255,2,EL,1,100,0.305347
192153,33273,2,EL,1,100,0.307361
192204,33273,2,EL,1,100,0.303937
192254,33291,2,EL,1,100,0.307159
192305,33291,2,EL,1,100,0.305750
192355,33309,2,EL,1,100,0.308167
192406,33309,2,EL,1,100,0.305951
192440,33327,3,EL,1,100,0.307159
192474,33327,3,EL,1,100,0.306958
192508,33327,3,EL,1,100,0.306958
192558,33345,2,EL,1,100,0.308569
192608,33345,2,EL,1,100,0.308569
192658,33364,2,EL,1,100,0.308368
192709,33364,2,EL,1,100,0.308972
192894,33400,2,EL,1,100,0.311591
193079,33400,2,EL,1,100,0.310785
193120,33418,4,EL,1,100,0.309174
193162,33418,4,EL,1,100,0.310382
193203,33418,4,EL,1,100,0.311389
193245,33418,4,EL,1,100,0.311993
193295,33436,2,EL,1,100,0.312396
193345,33436,2,EL,1,100,0.311389
193395,33455,2,EL,1,100,0.311993
193446,33455,2,EL,1,100,0.312195
193496,33473,2,EL,1,100,0.313202
193547,33473,2,EL,1,100,0.311792
193597,33491,2,EL,1,100,0.313202
193648,33491,2,EL,1,100,0.313000
193698,33509,2,EL,1,100,0.314410
193749,33509,2,EL,1,100,0.313202
193799,33527,2,EL,1,100,0.314410
193850,33527,2,EL,1,100,0.314813
193900,33545,2,EL,1,100,0.315216
193951,33545,2,EL,1,100,0.314410
194001,33563,2,EL,1,100,0.315619
194052,33563,2,EL,1,100,0.315619
194102,33581,2,EL,1,100,0.316022
194153,33581,2,EL,1,100,0.314410
194203,33600,2,EL,1,100,0.316827
194254,33600,2,EL,1,100,0.316022
194304,33618,2,EL,1,100,0.316827
194355,33618,2,EL,1,100,0.316626
194405,33636,2,EL,1,100,0.318439
194456,33636,2,EL,1,100,0.315820
194506,33654,2,EL,1,100,0.317834
194557,33654,2,EL,1,100,0.315820
194591,33672,3,EL,1,100,0.318640
194625,33672,3,EL,1,100,0.318640
194659,33672,3,EL,1,100,0.318640
194709,33690,2,EL,1,100,0.318439
194759,33690,2,EL,1,100,0.319647
194809,33708,2,EL,1,100,0.318237
194860,33708,2,EL,1,100,0.319446
194911,33727,2,EL,1,100,0.319647
194963,33727,2,EL,1,100,0.320654
195012,33745,2,EL,1,100,0.320050
195062,33745,2,EL,1,100,0.319849
195112,33763,2,EL,1,100,0.321259
195163,33763,2,EL,1,100,0.321259
195213,33781,2,EL,1,100,0.322064
195264,33781,2,EL,1,100,0.320856
195314,33799,2,EL,1,100,0.322870
195365,33799,2,EL,1,100,0.322266
195416,33817,2,EL,1,100,0.323474
195467,33817,2,EL,1,100,0.322870
195517,33835,2,EL,1,100,0.322870
195567,33835,2,EL,1,100,0.321661
195617,33854,2,EL,1,100,0.324280
195668,33854,2,EL,1,100,0.321863
195718,33872,2,EL,1,100,0.324078
195769,33872,2,EL,1,100,0.322266
195819,33890,2,EL,1,100,0.325085
195870,33890,2,EL,1,100,0.322064
195920,33908,2,EL,1,100,0.326294
195971,33908,2,EL,1,100,0.323676
196021,33926,2,EL,1,100,0.325690
196072,33926,2,EL,1,100,0.323273
196122,33944,2,EL,1,100,0.323273
196173,33944,2,EL,1,100,0.325488
196223,33962,2,EL,1,100,0.326898
196274,33962,2,EL,1,100,0.326294
196312,33980,4,EL,1,100,0.326294
196351,33980,4,EL,1,100,0.326495
196389,33980,4,EL,1,100,0.324884
196428,33980,4,EL,1,100,0.327502
196478,33999,2,EL,1,100,0.328107
196528,33999,2,EL,1,100,0.324078
196578,34017,2,EL,1,100,0.326495
196629,34017,2,EL,1,100,0.326294
196679,34035,2,EL,1,100,0.327100
196730,34035,2,EL,1,100,0.325891
196780,34053,2,EL,1,100,0.329114
196831,34053,2,EL,1,100,0.327502
196882,34071,2,EL,1,100,0.328912
196934,34071,2,EL,1,100,0.327905
196983,34089,2,EL,1,100,0.329114
197033,34089,2,EL,1,100,0.328510
197083,34107,2,EL,1,100,0.329517
197134,34107,2,EL,1,100,0.328107
197185,34126,2,EL,1,100,0.329315
197237,34126,2,EL,1,100,0.327905
197286,34144,2,EL,1,100,0.330927
197336,34144,2,EL,1,100,0.327502
197386,34162,2,EL,1,100,0.330725
197437,34162,2,EL,1,100,0.329919
197487,34180,2,EL,1,100,0.330322
197538,34180,2,EL,1,100,0.329114
197588,34198,2,EL,1,100,0.331329
197639,34198,2,EL,1,100,0.329718
197673,34216,3,EL,1,100,0.329919
197707,34216,3,EL,1,100,0.330725
197741,34216,3,EL,1,100,0.331732
197791,34234,2,EL,1,100,0.330927
197841,34234,2,EL,1,100,0.330121
197891,34253,2,EL,1,100,0.329718
197942,34253,2,EL,1,100,0.331732
197992,34271,2,EL,1,100,0.331531
198043,34271,2,EL,1,100,0.331329
198093,34289,2,EL,1,100,0.332135
198144,34289,2,EL,1,100,0.331531
198194,34307,2,EL,1,100,0.332336
198245,34307,2,EL,1,100,0.330927
198295,34325,2,EL,1,100,0.333344
198346,34325,2,EL,1,100,0.332739
198396,34343,2,EL,1,100,0.334149
198447,34343,2,EL,1,100,0.330524
198497,34361,2,EL,1,100,0.333948
198548,34361,2,EL,1,100,0.331531
198599,34380,2,EL,1,100,0.333746
198651,34380,2,EL,1,100,0.333948
198700,34398,2,EL,1,100,0.334149
198750,34398,2,EL,1,100,0.332941
198801,34416,2,EL,1,100,0.334351
198853,34416,2,EL,1,100,0.331934
198902,34434,2,EL,1,100,0.335559
198952,34434,2,EL,1,100,0.333344
199002,34452,2,EL,1,100,0.335962
199053,34452,2,EL,1,100,0.333746
199103,34470,2,EL,1,100,0.336163
199154,34470,2,EL,1,100,0.334552
199204,34488,2,EL,1,100,0.335761
199255,34488,2,EL,1,100,0.333746
199289,34506,3,EL,1,100,0.335962
199323,34506,3,EL,1,100,0.334149
199357,34506,3,EL,1,100,0.336163
199407,34525,2,EL,1,100,0.333948
199457,34525,2,EL,1,100,0.335962
199507,34543,2,EL,1,100,0.335761
199558,34543,2,EL,1,100,0.333948
199608,34561,2,EL,1,100,0.337573
199659,34561,2,EL,1,100,0.334552
199709,34579,2,EL,1,100,0.337372
199760,34579,2,EL,1,100,0.334753
199810,34597,2,EL,1,100,0.336768
199861,34597,2,EL,1,100,0.332336
199911,34615,2,EL,1,100,0.337573
199962,34615,2,EL,1,100,0.334149
200013,34633,2,EL,1,100,0.336365
200065,34633,2,EL,1,100,0.336969
200114,34652,2,EL,1,100,0.337372
200164,34652,2,EL,1,100,0.336365
200214,34670,2,EL,1,100,0.336969
200265,34670,2,EL,1,100,0.335962
200316,34688,2,EL,1,100,0.337372
200368,34688,2,EL,1,100,0.334552
200417,34706,2,EL,1,100,0.338177
200467,34706,2,EL,1,100,0.335559
200517,34724,2,EL,1,100,0.337775
200568,34724,2,EL,1,100,0.334552
200618,34742,2,EL,1,100,0.338580
200669,34742,2,EL,1,100,0.335962
200719,34760,2,EL,1,100,0.337976
200770,34760,2,EL,1,100,0.337573
200820,34779,2,EL,1,100,0.337170
200871,34779,2,EL,1,100,0.336365
200905,34797,3,EL,1,100,0.337976
200939,34797,3,EL,1,100,0.337372
200973,34797,3,EL,1,100,0.338782
201023,34815,2,EL,1,100,0.335962
201073,34815,2,EL,1,100,0.338177
201123,34833,2,EL,1,100,0.336768
201174,34833,2,EL,1,100,0.337573
201224,34851,2,EL,1,100,0.338580
201275,34851,2,EL,1,100,0.336969
201426,34891,2,EL,1,100,0.339789
201577,34891,2,EL,1,100,0.340192
201628,34911,2,EL,1,100,0.337573
201679,34911,2,EL,1,100,0.335559
201729,34929,2,EL,1,100,0.338782
201779,34929,2,EL,1,100,0.337976
201829,34947,2,EL,1,100,0.339587
201880,34947,2,EL,1,100,0.337976
201930,34965,2,EL,1,100,0.338983
201981,34965,2,EL,1,100,0.338983
202031,34983,2,EL,1,100,0.340192
202082,34983,2,EL,1,100,0.338983
202132,35001,2,EL,1,100,0.340594
202183,35001,2,EL,1,100,0.337170
202233,35019,2,EL,1,100,0.341199
202284,35019,2,EL,1,100,0.338177
202334,35038,2,EL,1,100,0.339990
202385,35038,2,EL,1,100,0.339185
202419,35056,3,EL,1,100,0.340796
202453,35056,3,EL,1,100,0.337775
202487,35056,3,EL,1,100,0.340393
202537,35074,2,EL,1,100,0.339185
202587,35074,2,EL,1,100,0.340796
202637,35092,2,EL,1,100,0.337976
202688,35092,2,EL,1,100,0.341602
202739,35110,2,EL,1,100,0.340796
202791,35110,2,EL,1,100,0.339990
202840,35128,2,EL,1,100,0.340997
202890,35128,2,EL,1,100,0.338177
202940,35146,2,EL,1,100,0.340594
202991,35146,2,EL,1,100,0.338177
203041,35164,2,EL,1,100,0.342206
203092,35164,2,EL,1,100,0.338580
203142,35183,2,EL,1,100,0.342609
203193,35183,2,EL,1,100,0.339185
203244,35201,2,EL,1,100,0.341803
203295,35201,2,EL,1,100,0.341400
203345,35219,2,EL,1,100,0.341803
203395,35219,2,EL,1,100,0.340393
203445,35237,2,EL,1,100,0.341602
203496,35237,2,EL,1,100,0.340594
203546,35255,2,EL,1,100,0.341803
203597,35255,2,EL,1,100,0.340192
203647,35273,2,EL,1,100,0.341602
203698,35273,2,EL,1,100,0.340594
203748,35291,2,EL,1,100,0.342609
203799,35291,2,EL,1,100,0.340997
203849,35310,2,EL,1,100,0.341602
203900,35310,2,EL,1,100,0.340997
203950,35328,2,EL,1,100,0.342407
204001,35328,2,EL,1,100,0.341602
204035,35346,3,EL,1,100,0.342810
204069,35346,3,EL,1,100,0.342004
204103,35346,3,EL,1,100,0.341803
204153,35364,2,EL,1,100,0.341400
204203,35364,2,EL,1,100,0.342206
204254,35382,2,EL,1,100,0.343213
204305,35382,2,EL,1,100,0.344220
204355,35400,2,EL,1,100,0.344220
204405,35400,2,EL,1,100,0.342407
204455,35418,2,EL,1,100,0.343011
204506,35418,2,EL,1,100,0.341400
204556,35437,2,EL,1,100,0.344824
204607,35437,2,EL,1,100,0.340192
204657,35455,2,EL,1,100,0.343414
204708,35455,2,EL,1,100,0.340796
204758,35473,2,EL,1,100,0.343011
204809,35473,2,EL,1,100,0.341199
204859,35491,2,EL,1,100,0.343616
204910,35491,2,EL,1,100,0.342810
204960,35509,2,EL,1,100,0.344421
205011,35509,2,EL,1,100,0.342609
205062,35527,2,EL,1,100,0.343817
205113,35527,2,EL,1,100,0.343616
205163,35545,2,EL,1,100,0.343011
205213,35545,2,EL,1,100,0.343616
205263,35563,2,EL,1,100,0.344019
205314,35563,2,EL,1,100,0.341803
205364,35582,2,EL,1,100,0.342810
205415,35582,2,EL,1,100,0.342810
205465,35600,2,EL,1,100,0.343616
205516,35600,2,EL,1,100,0.342609
205550,35618,3,EL,1,100,0.344824
205584,35618,3,EL,1,100,0.343817
205618,35618,3,EL,1,100,0.344623
205668,35636,2,EL,1,100,0.342810
205718,35636,2,EL,1,100,0.343616
205768,35654,2,EL,1,100,0.344421
205819,35654,2,EL,1,100,0.344220
205869,35672,2,EL,1,100,0.344019
205920,35672,2,EL,1,100,0.343414
205970,35690,2,EL,1,100,0.345831
206021,35690,2,EL,1,100,0.342206
206071,35709,2,EL,1,100,0.344220
206122,35709,2,EL,1,100,0.342407
206172,35727,2,EL,1,100,0.344220
206223,35727,2,EL,1,100,0.342609
206274,35745,2,EL,1,100,0.344421
206325,35745,2,EL,1,100,0.340997
206375,35763,2,EL,1,100,0.343817
206425,35763,2,EL,1,100,0.342407
206475,35781,2,EL,1,100,0.344623
206526,35781,2,EL,1,100,0.343213
206577,35799,2,EL,1,100,0.344220
206629,35799,2,EL,1,100,0.342004
206678,35817,2,EL,1,100,0.345026
206728,35817,2,EL,1,100,0.342810
206778,35835,2,EL,1,100,0.345026
206829,35835,2,EL,1,100,0.343817
206879,35854,2,EL,1,100,0.345026
206930,35854,2,EL,1,100,0.344019
206980,35872,2,EL,1,100,0.345026
207031,35872,2,EL,1,100,0.344623
207065,35890,3,EL,1,100,0.345026
207099,35890,3,EL,1,100,0.344220
207134,35890,3,EL,1,100,0.344824
207183,35908,2,EL,1,100,0.343213
207233,35908,2,EL,1,100,0.344421
207283,35926,2,EL,1,100,0.343213
207334,35926,2,EL,1,100,0.345428
207385,35944,2,EL,1,100,0.344623
207437,35944,2,EL,1,100,0.343817
207486,35962,2,EL,1,100,0.344019
207536,35962,2,EL,1,100,0.340796
207586,35981,2,EL,1,100,0.345227
207637,35981,2,EL,1,100,0.344019
207687,35999,2,EL,1,100,0.344019
207738,35999,2,EL,1,100,0.344019
207788,36017,2,EL,1,100,0.346234
207839,36017,2,EL,1,100,0.342609
207889,36035,2,EL,1,100,0.346033
207940,36035,2,EL,1,100,0.344421
207990,36053,2,EL,1,100,0.345831
208041,36053,2,EL,1,100,0.344623
208091,36071,2,EL,1,100,0.345630
208142,36071,2,EL,1,100,0.343616
208193,36089,2,EL,1,100,0.346838
208245,36089,2,EL,1,100,0.344220
208294,36108,2,EL,1,100,0.344220
208344,36108,2,EL,1,100,0.341199
208394,36126,2,EL,1,100,0.344220
208445,36126,2,EL,1,100,0.343817
208495,36144,2,EL,1,100,0.344623
208546,36144,2,EL,1,100,0.344019
208580,36162,3,EL,1,100,0.345831
208614,36162,3,EL,1,100,0.342810
208649,36162,3,EL,1,100,0.345831
208698,36180,2,EL,1,100,0.343817
208748,36180,2,EL,1,100,0.345630
208798,36198,2,EL,1,100,0.343213
208849,36198,2,EL,1,100,0.343817
208900,36216,2,EL,1,100,0.345831
208951,36216,2,EL,1,100,0.343817
209001,36234,2,EL,1,100,0.344220
209051,36234,2,EL,1,100,0.342206
209101,36253,2,EL,1,100,0.346234
209152,36253,2,EL,1,100,0.343213
209202,36271,2,EL,1,100,0.345630
209253,36271,2,EL,1,100,0.342609
209303,36289,2,EL,1,100,0.346234
209354,36289,2,EL,1,100,0.344623
209404,36307,2,EL,1,100,0.345630
209455,36307,2,EL,1,100,0.344220
209505,36325,2,EL,1,100,0.346033
209556,36325,2,EL,1,100,0.343817
209606,36343,2,EL,1,100,0.346838
209657,36343,2,EL,1,100,0.344824
209708,36361,2,EL,1,100,0.345227
209760,36361,2,EL,1,100,0.344220
209809,36380,2,EL,1,100,0.346033
209859,36380,2,EL,1,100,0.344824
209909,36398,2,EL,1,100,0.346234
209960,36398,2,EL,1,100,0.345831
210010,36416,2,EL,1,100,0.346234
210061,36416,2,EL,1,100,0.343213
210111,36434,2,EL,1,100,0.346033
210162,36434,2,EL,1,100,0.344019
210196,36452,3,EL,1,100,0.346637
210230,36452,3,EL,1,100,0.346033
210264,36452,3,EL,1,100,0.346838
210314,36470,2,EL,1,100,0.345831
210364,36470,2,EL,1,100,0.346033
210414,36488,2,EL,1,100,0.344220
210465,36488,2,EL,1,100,0.347443
210516,36507,2,EL,1,100,0.344421
210568,36507,2,EL,1,100,0.346838
210617,36525,2,EL,1,100,0.347845
210667,36525,2,EL,1,100,0.344220
210717,36543,2,EL,1,100,0.346436
210768,36543,2,EL,1,100,0.342810
210818,36561,2,EL,1,100,0.346436
210869,36561,2,EL,1,100,0.346838
210919,36579,2,EL,1,100,0.347040
210970,36579,2,EL,1,100,0.345227
211020,36597,2,EL,1,100,0.347040
211071,36597,2,EL,1,100,0.345026
211121,36615,2,EL,1,100,0.346838
211172,36615,2,EL,1,100,0.345026
211223,36633,2,EL,1,100,0.346838
211275,36633,2,EL,1,100,0.347040
211324,36652,2,EL,1,100,0.346838
211374,36652,2,EL,1,100,0.345227
211424,36670,2,EL,1,100,0.347644
211475,36670,2,EL,1,100,0.347040
211525,36688,2,EL,1,100,0.347443
211576,36688,2,EL,1,100,0.346234
211626,36706,2,EL,1,100,0.347845
211677,36706,2,EL,1,100,0.346436
211711,36724,3,EL,1,100,0.347845
211745,36724,3,EL,1,100,0.347040
211779,36724,3,EL,1,100,0.347845
211829,36742,2,EL,1,100,0.345630
211880,36742,2,EL,1,100,0.345831
211930,36760,2,EL,1,100,0.346838
211980,36760,2,EL,1,100,0.347241
212030,36779,2,EL,1,100,0.346838
212081,36779,2,EL,1,100,0.347443
212132,36797,2,EL,1,100,0.347443
212184,36797,2,EL,1,100,0.347644
212244,36818,3,EL,1,100,0.347443
212304,36818,3,EL,1,100,0.347644
212365,36818,3,EL,1,100,0.348651
212398,36838,3,EL,1,100,0.347040
212432,36838,3,EL,1,100,0.347845
212466,36838,3,EL,1,100,0.346637
212516,36856,2,EL,1,100,0.345428
212567,36856,2,EL,1,100,0.348248
212617,36874,2,EL,1,100,0.346033
212667,36874,2,EL,1,100,0.345428
212717,36892,2,EL,1,100,0.346637
212768,36892,2,EL,1,100,0.346234
212818,36911,2,EL,1,100,0.348450
212869,36911,2,EL,1,100,0.347040
212919,36929,2,EL,1,100,0.348651
212970,36929,2,EL,1,100,0.347644
213020,36947,2,EL,1,100,0.348047
213071,36947,2,EL,1,100,0.349054
213121,36965,2,EL,1,100,0.348047
213172,36965,2,EL,1,100,0.347241
213222,36983,2,EL,1,100,0.348248
213273,36983,2,EL,1,100,0.347845
213323,37001,2,EL,1,100,0.349658
213374,37001,2,EL,1,100,0.346838
213425,37019,2,EL,1,100,0.348450
213476,37019,2,EL,1,100,0.347040
213526,37038,2,EL,1,100,0.349255
213576,37038,2,EL,1,100,0.348450
213626,37056,2,EL,1,100,0.347845
213677,37056,2,EL,1,100,0.347040
213727,37074,2,EL,1,100,0.350262
213778,37074,2,EL,1,100,0.347845
213828,37092,2,EL,1,100,0.349054
213879,37092,2,EL,1,100,0.346637
213913,37110,3,EL,1,100,0.348651
213947,37110,3,EL,1,100,0.346637
213981,37110,3,EL,1,100,0.349860
214031,37128,2,EL,1,100,0.347241
214081,37128,2,EL,1,100,0.349255
214131,37146,2,EL,1,100,0.348450
214182,37146,2,EL,1,100,0.349255
214232,37164,2,EL,1,100,0.349054
214283,37164,2,EL,1,100,0.347040
214333,37183,2,EL,1,100,0.349255
214384,37183,2,EL,1,100,0.347845
214434,37201,2,EL,1,100,0.348651
214485,37201,2,EL,1,100,0.347845
214535,37219,2,EL,1,100,0.348853
214586,37219,2,EL,1,100,0.347443
214636,37237,2,EL,1,100,0.350262
214687,37237,2,EL,1,100,0.347845
214737,37255,2,EL,1,100,0.349658
214788,37255,2,EL,1,100,0.348047
214838,37273,2,EL,1,100,0.350464
214889,37273,2,EL,1,100,0.348450
214939,37291,2,EL,1,100,0.349860
214990,37291,2,EL,1,100,0.349457
215040,37310,2,EL,1,100,0.351270
215091,37310,2,EL,1,100,0.348047
215142,37328,2,EL,1,100,0.350464
215193,37328,2,EL,1,100,0.348651
215243,37346,2,EL,1,100,0.350262
215293,37346,2,EL,1,100,0.347040
215343,37364,2,EL,1,100,0.350665
215394,37364,2,EL,1,100,0.348853
215444,37382,2,EL,1,100,0.349457
215495,37382,2,EL,1,100,0.347845
215529,37400,3,EL,1,100,0.351068
215563,37400,3,EL,1,100,0.348047
215597,37400,3,EL,1,100,0.349457
215647,37418,2,EL,1,100,0.348651
215697,37418,2,EL,1,100,0.348047
215747,37437,2,EL,1,100,0.349054
215798,37437,2,EL,1,100,0.350262
215849,37455,2,EL,1,100,0.351270
215900,37455,2,EL,1,100,0.350262
215950,37473,2,EL,1,100,0.349054
216000,37473,2,EL,1,100,0.349658
216050,37491,2,EL,1,100,0.349860
216101,37491,2,EL,1,100,0.349255
216151,37509,2,EL,1,100,0.349054
216202,37509,2,EL,1,100,0.348450
216252,37527,2,EL,1,100,0.350262
216303,37527,2,EL,1,100,0.347443
216353,37545,2,EL,1,100,0.350061
216404,37545,2,EL,1,100,0.347644
216454,37563,2,EL,1,100,0.350464
216505,37563,2,EL,1,100,0.348450
216555,37582,2,EL,1,100,0.350867
216606,37582,2,EL,1,100,0.347443
216657,37600,2,EL,1,100,0.350061
216709,37600,2,EL,1,100,0.349860
216758,37618,2,EL,1,100,0.349457
216808,37618,2,EL,1,100,0.349054
216858,37636,2,EL,1,100,0.350061
216909,37636,2,EL,1,100,0.347644
216959,37654,2,EL,1,100,0.349860
217010,37654,2,EL,1,100,0.347241
217060,37672,2,EL,1,100,0.350262
217111,37672,2,EL,1,100,0.348248
217145,37690,3,EL,1,100,0.349255
217179,37690,3,EL,1,100,0.348248
217213,37690,3,EL,1,100,0.350262
217263,37709,2,EL,1,100,0.346637
217313,37709,2,EL,1,100,0.347241
217363,37727,2,EL,1,100,0.346234
217414,37727,2,EL,1,100,0.348248
217464,37745,2,EL,1,100,0.347845
217515,37745,2,EL,1,100,0.347443
217565,37763,2,EL,1,100,0.347845
217616,37763,2,EL,1,100,0.347443
217666,37781,2,EL,1,100,0.347845
217717,37781,2,EL,1,100,0.345026
217767,37799,2,EL,1,100,0.346838
217818,37799,2,EL,1,100,0.343616
217868,37817,2,EL,1,100,0.345831
217919,37817,2,EL,1,100,0.344421
217969,37835,2,EL,1,100,0.345831
218020,37835,2,EL,1,100,0.340997
218071,37854,2,EL,1,100,0.344623
218123,37854,2,EL,1,100,0.344824
218172,37872,2,EL,1,100,0.344623
218222,37872,2,EL,1,100,0.342004
218272,37890,2,EL,1,100,0.345026
218323,37890,2,EL,1,100,0.342206
218373,37908,2,EL,1,100,0.343414
218424,37908,2,EL,1,100,0.340997
218458,37926,3,EL,1,100,0.341602
218492,37926,3,EL,1,100,0.341803
218526,37926,3,EL,1,100,0.341602
218576,37944,2,EL,1,100,0.338177
218627,37944,2,EL,1,100,0.339587
218677,37962,2,EL,1,100,0.338782
218727,37962,2,EL,1,100,0.340192
218777,37981,2,EL,1,100,0.338379
218828,37981,2,EL,1,100,0.339386
218879,37999,2,EL,1,100,0.339185
218931,37999,2,EL,1,100,0.337573
218980,38017,2,EL,1,100,0.337372
219030,38017,2,EL,1,100,0.335156
219080,38035,2,EL,1,100,0.338782
219131,38035,2,EL,1,100,0.335962
219181,38053,2,EL,1,100,0.338177
219232,38053,2,EL,1,100,0.333948
219282,38071,2,EL,1,100,0.335962
219333,38071,2,EL,1,100,0.332336
219383,38089,2,EL,1,100,0.335358
219434,38089,2,EL,1,100,0.333746
219484,38108,2,EL,1,100,0.334149
219535,38108,2,EL,1,100,0.333142
219585,38126,2,EL,1,100,0.335156
219636,38126,2,EL,1,100,0.331732
219686,38144,2,EL,1,100,0.335559
219737,38144,2,EL,1,100,0.329315
219788,38162,2,EL,1,100,0.333344
219839,38162,2,EL,1,100,0.332135
219889,38180,2,EL,1,100,0.334351
219939,38180,2,EL,1,100,0.330121
219989,38198,2,EL,1,100,0.332941
220040,38198,2,EL,1,100,0.330927
220090,38216,2,EL,1,100,0.333142
220141,38216,2,EL,1,100,0.329718
220175,38234,3,EL,1,100,0.331128
220209,38234,3,EL,1,100,0.329315
220243,38234,3,EL,1,100,0.331531
220293,38253,2,EL,1,100,0.329517
220343,38253,2,EL,1,100,0.330121
220393,38271,2,EL,1,100,0.329315
220444,38271,2,EL,1,100,0.330725
220494,38289,2,EL,1,100,0.330322
220545,38289,2,EL,1,100,0.326898
220595,38307,2,EL,1,100,0.329517
220646,38307,2,EL,1,100,0.328308
220696,38325,2,EL,1,100,0.330322
220747,38325,2,EL,1,100,0.327905
220797,38343,2,EL,1,100,0.329517
220848,38343,2,EL,1,100,0.328308
220898,38361,2,EL,1,100,0.328912
220949,38361,2,EL,1,100,0.328510
220999,38380,2,EL,1,100,0.329114
221050,38380,2,EL,1,100,0.328308
221100,38398,2,EL,1,100,0.329315
221151,38398,2,EL,1,100,0.326093
221201,38416,2,EL,1,100,0.328912
221252,38416,2,EL,1,100,0.327100
221302,38434,2,EL,1,100,0.329919
221353,38434,2,EL,1,100,0.326495
221403,38452,2,EL,1,100,0.328711
221454,38452,2,EL,1,100,0.326093
221504,38470,2,EL,1,100,0.328308
221555,38470,2,EL,1,100,0.326898
221605,38488,2,EL,1,100,0.328711
221656,38488,2,EL,1,100,0.329114
221690,38507,3,EL,1,100,0.328510
221724,38507,3,EL,1,100,0.325287
221758,38507,3,EL,1,100,0.328510
221808,38525,2,EL,1,100,0.326294
221858,38525,2,EL,1,100,0.327502
221908,38543,2,EL,1,100,0.326294
221959,38543,2,EL,1,100,0.327100
222009,38561,2,EL,1,100,0.328711
222060,38561,2,EL,1,100,0.327502
222111,38579,2,EL,1,100,0.327301
222163,38579,2,EL,1,100,0.328308
222216,38597,3,EL,1,100,0.327905
222269,38597,3,EL,1,100,0.327502
222323,38597,3,EL,1,100,0.327704
222373,38615,2,EL,1,100,0.327905
222423,38615,2,EL,1,100,0.327502
222473,38634,2,EL,1,100,0.326093
222524,38634,2,EL,1,100,0.327502
222574,38652,2,EL,1,100,0.328107
222625,38652,2,EL,1,100,0.326898
222675,38670,2,EL,1,100,0.329517
222726,38670,2,EL,1,100,0.325085
222776,38688,2,EL,1,100,0.330322
222827,38688,2,EL,1,100,0.326898
222861,38706,3,EL,1,100,0.329315
222895,38706,3,EL,1,100,0.329517
222929,38706,3,EL,1,100,0.329517
222979,38724,2,EL,1,100,0.328107
223029,38724,2,EL,1,100,0.329114
223079,38742,2,EL,1,100,0.329114
223130,38742,2,EL,1,100,0.329114
223183,38763,3,EL,1,100,0.328912
223236,38763,3,EL,1,100,0.328711
223289,38763,3,EL,1,100,0.329919
223339,38784,2,EL,1,100,0.329718
223390,38784,2,EL,1,100,0.327301
223440,38802,2,EL,1,100,0.330524
223490,38802,2,EL,1,100,0.329718
223540,38820,2,EL,1,100,0.330927
223591,38820,2,EL,1,100,0.328510
223641,38838,2,EL,1,100,0.331128
223692,38838,2,EL,1,100,0.329114
223742,38856,2,EL,1,100,0.331329
223793,38856,2,EL,1,100,0.329919
223843,38874,2,EL,1,100,0.331329
223894,38874,2,EL,1,100,0.329114
223944,38893,2,EL,1,100,0.332135
223995,38893,2,EL,1,100,0.330322
224045,38911,2,EL,1,100,0.331128
224096,38911,2,EL,1,100,0.328711
224130,38929,3,EL,1,100,0.332538
224164,38929,3,EL,1,100,0.330725
224199,38929,3,EL,1,100,0.332538
224249,38947,2,EL,1,100,0.331934
224299,38947,2,EL,1,100,0.332336
224349,38965,2,EL,1,100,0.330725
224399,38965,2,EL,1,100,0.332135
224449,38983,2,EL,1,100,0.331732
224500,38983,2,EL,1,100,0.332941
224550,39001,2,EL,1,100,0.332739
224601,39001,2,EL,1,100,0.332941
224652,39019,2,EL,1,100,0.331934
224704,39019,2,EL,1,100,0.331531
224753,39038,2,EL,1,100,0.333545
224803,39038,2,EL,1,100,0.331531
224853,39056,2,EL,1,100,0.333545
224904,39056,2,EL,1,100,0.332739
224954,39074,2,EL,1,100,0.333344
225005,39074,2,EL,1,100,0.333746
225055,39092,2,EL,1,100,0.334955
225106,39092,2,EL,1,100,0.333142
225156,39110,2,EL,1,100,0.334552
225207,39110,2,EL,1,100,0.333948
225257,39128,2,EL,1,100,0.335156
225308,39128,2,EL,1,100,0.332336
225358,39146,2,EL,1,100,0.334753
225409,39146,2,EL,1,100,0.332336
225459,39165,2,EL,1,100,0.335156
225510,39165,2,EL,1,100,0.334552
225560,39183,2,EL,1,100,0.335559
225611,39183,2,EL,1,100,0.333948
225645,39201,3,EL,1,100,0.336163
225679,39201,3,EL,1,100,0.336566
225714,39201,3,EL,1,100,0.337573
225763,39219,2,EL,1,100,0.335559
225813,39219,2,EL,1,100,0.335358
225863,39237,2,EL,1,100,0.335761
225914,39237,2,EL,1,100,0.335559
225964,39255,2,EL,1,100,0.335962
226015,39255,2,EL,1,100,0.336365
226065,39273,2,EL,1,100,0.335761
226116,39273,2,EL,1,100,0.335962
226166,39291,2,EL,1,100,0.337573
226217,39291,2,EL,1,100,0.334955
226267,39310,2,EL,1,100,0.338177
226318,39310,2,EL,1,100,0.336365
226368,39328,2,EL,1,100,0.337775
226419,39328,2,EL,1,100,0.334955
226469,39346,2,EL,1,100,0.336163
226520,39346,2,EL,1,100,0.337372
226570,39364,2,EL,1,100,0.338177
226621,39364,2,EL,1,100,0.338379
226671,39382,2,EL,1,100,0.337372
226722,39382,2,EL,1,100,0.337976
226772,39400,2,EL,1,100,0.339587
226823,39400,2,EL,1,100,0.336768
226873,39418,2,EL,1,100,0.337775
226924,39418,2,EL,1,100,0.335761
226975,39437,2,EL,1,100,0.336969
227027,39437,2,EL,1,100,0.335559
227076,39455,2,EL,1,100,0.338177
227126,39455,2,EL,1,100,0.338177
227176,39473,2,EL,1,100,0.338580
227227,39473,2,EL,1,100,0.337170
227277,39491,2,EL,1,100,0.339185
227328,39491,2,EL,1,100,0.337976
227362,39509,3,EL,1,100,0.339386
227396,39509,3,EL,1,100,0.338379
227430,39509,3,EL,1,100,0.339990
227480,39527,2,EL,1,100,0.337372
227530,39527,2,EL,1,100,0.340192
227580,39545,2,EL,1,100,0.338177
227631,39545,2,EL,1,100,0.338983
227682,39564,2,EL,1,100,0.338782
227733,39564,2,EL,1,100,0.340192
227783,39582,2,EL,1,100,0.340796
227833,39582,2,EL,1,100,0.335156
227883,39600,2,EL,1,100,0.339789
227934,39600,2,EL,1,100,0.337775
227984,39618,2,EL,1,100,0.340594
228035,39618,2,EL,1,100,0.336365
228086,39636,2,EL,1,100,0.339789
