191077,33183,2,EA,1,100,0.642169
191077,33183,2,EA,1,100,0.642110
191127,33200,2,EA,1,100,0.642167
191178,33200,2,EA,1,100,0.641834
191228,33218,2,EA,1,100,0.641913
191279,33218,2,EA,1,100,0.641993
191329,33236,2,EA,1,100,0.642070
191380,33236,2,EA,1,100,0.641881
191430,33254,2,EA,1,100,0.642022
191481,33254,2,EA,1,100,0.642078
191531,33272,2,EA,1,100,0.641945
191582,33272,2,EA,1,100,0.642118
191632,33290,2,EA,1,100,0.641987
191683,33290,2,EA,1,100,0.641985
191733,33308,2,EA,1,100,0.642028
191784,33308,2,EA,1,100,0.641913
191834,33327,2,EA,1,100,0.642062
191885,33327,2,EA,1,100,0.642116
191918,33345,3,EA,1,100,0.642064
191952,33345,3,EA,1,100,0.642100
191986,33345,3,EA,1,100,0.642102
192036,33363,2,EA,1,100,0.642110
192087,33363,2,EA,1,100,0.642102
192137,33381,2,EA,1,100,0.642110
192188,33381,2,EA,1,100,0.642016
192238,33399,2,EA,1,100,0.642130
192289,33399,2,EA,1,100,0.641985
192339,33417,2,EA,1,100,0.642245
192390,33417,2,EA,1,100,0.641965
192440,33435,2,EA,1,100,0.641985
192491,33435,2,EA,1,100,0.641931
192541,33453,2,EA,1,100,0.641784
192592,33453,2,EA,1,100,0.642138
192642,33472,2,EA,1,100,0.642163
192693,33472,2,EA,1,100,0.642295
192743,33490,2,EA,1,100,0.642007
192794,33490,2,EA,1,100,0.642173
192844,33508,2,EA,1,100,0.642034
192895,33508,2,EA,1,100,0.642165
192945,33526,2,EA,1,100,0.642169
192996,33526,2,EA,1,100,0.642177
193046,33544,2,EA,1,100,0.642169
193097,33544,2,EA,1,100,0.642400
193147,33562,2,EA,1,100,0.642012
193198,33562,2,EA,1,100,0.641933
193248,33580,2,EA,1,100,0.642056
193299,33580,2,EA,1,100,0.642136
193349,33599,2,EA,1,100,0.641828
193400,33599,2,EA,1,100,0.642104
193450,33617,2,EA,1,100,0.641720
193501,33617,2,EA,1,100,0.641997
193551,33635,2,EA,1,100,0.642148
193602,33635,2,EA,1,100,0.641860
193635,33653,3,EA,1,100,0.641927
193669,33653,3,EA,1,100,0.642140
193703,33653,3,EA,1,100,0.642046
193753,33671,2,EA,1,100,0.642054
193804,33671,2,EA,1,100,0.642014
193854,33689,2,EA,1,100,0.641860
193905,33689,2,EA,1,100,0.641901
193955,33707,2,EA,1,100,0.642265
194006,33707,2,EA,1,100,0.642006
194056,33725,2,EA,1,100,0.642161
194107,33725,2,EA,1,100,0.641965
194157,33744,2,EA,1,100,0.642227
194208,33744,2,EA,1,100,0.641834
194258,33762,2,EA,1,100,0.642233
194309,33762,2,EA,1,100,0.642070
194359,33780,2,EA,1,100,0.641947
194410,33780,2,EA,1,100,0.641832
194460,33798,2,EA,1,100,0.641915
194511,33798,2,EA,1,100,0.641959
194561,33816,2,EA,1,100,0.641947
194612,33816,2,EA,1,100,0.642197
194662,33834,2,EA,1,100,0.641939
194713,33834,2,EA,1,100,0.642070
194763,33852,2,EA,1,100,0.642181
194814,33852,2,EA,1,100,0.642098
194864,33871,2,EA,1,100,0.642159
194915,33871,2,EA,1,100,0.642034
194965,33889,2,EA,1,100,0.641999
195016,33889,2,EA,1,100,0.641711
195049,33907,3,EA,1,100,0.641981
195083,33907,3,EA,1,100,0.642084
195117,33907,3,EA,1,100,0.642064
195167,33925,2,EA,1,100,0.641955
195218,33925,2,EA,1,100,0.641867
195268,33943,2,EA,1,100,0.641959
195319,33943,2,EA,1,100,0.641913
195369,33961,2,EA,1,100,0.641893
195420,33961,2,EA,1,100,0.641913
195470,33979,2,EA,1,100,0.641905
195521,33979,2,EA,1,100,0.641917
195571,33998,2,EA,1,100,0.641871
195622,33998,2,EA,1,100,0.642028
195672,34016,2,EA,1,100,0.641740
195723,34016,2,EA,1,100,0.642080
195773,34034,2,EA,1,100,0.641989
195824,34034,2,EA,1,100,0.641979
195874,34052,2,EA,1,100,0.641961
195925,34052,2,EA,1,100,0.642048
195975,34070,2,EA,1,100,0.641875
196026,34070,2,EA,1,100,0.641836
196076,34088,2,EA,1,100,0.641840
196127,34088,2,EA,1,100,0.642126
196177,34106,2,EA,1,100,0.641995
196228,34106,2,EA,1,100,0.641877
196278,34124,2,EA,1,100,0.641784
196329,34124,2,EA,1,100,0.642012
196379,34143,2,EA,1,100,0.641947
196430,34143,2,EA,1,100,0.641965
196480,34161,2,EA,1,100,0.641943
196531,34161,2,EA,1,100,0.641925
196581,34179,2,EA,1,100,0.641985
196632,34179,2,EA,1,100,0.642382
196665,34197,3,EA,1,100,0.642084
196699,34197,3,EA,1,100,0.641943
196733,34197,3,EA,1,100,0.642032
196783,34215,2,EA,1,100,0.641987
196834,34215,2,EA,1,100,0.641937
196884,34233,2,EA,1,100,0.641832
196935,34233,2,EA,1,100,0.641582
196985,34251,2,EA,1,100,0.642080
197036,34251,2,EA,1,100,0.641782
197086,34270,2,EA,1,100,0.641943
197137,34270,2,EA,1,100,0.642007
197187,34288,2,EA,1,100,0.641830
197238,34288,2,EA,1,100,0.641921
197288,34306,2,EA,1,100,0.642173
197339,34306,2,EA,1,100,0.642050
197389,34324,2,EA,1,100,0.641836
197440,34324,2,EA,1,100,0.641959
197490,34342,2,EA,1,100,0.641701
197541,34342,2,EA,1,100,0.642207
197591,34360,2,EA,1,100,0.642006
197642,34360,2,EA,1,100,0.641806
197692,34378,2,EA,1,100,0.641814
197743,34378,2,EA,1,100,0.642108
197793,34396,2,EA,1,100,0.641842
197844,34396,2,EA,1,100,0.641780
197894,34415,2,EA,1,100,0.641734
197945,34415,2,EA,1,100,0.641985
197995,34433,2,EA,1,100,0.642040
198046,34433,2,EA,1,100,0.642042
198096,34451,2,EA,1,100,0.641963
198147,34451,2,EA,1,100,0.642457
198180,34469,3,EA,1,100,0.641832
198214,34469,3,EA,1,100,0.642058
198248,34469,3,EA,1,100,0.642201
198298,34487,2,EA,1,100,0.642092
198349,34487,2,EA,1,100,0.642358
198399,34505,2,EA,1,100,0.641951
198450,34505,2,EA,1,100,0.641919
198500,34523,2,EA,1,100,0.642126
198551,34523,2,EA,1,100,0.641991
198601,34542,2,EA,1,100,0.641959
198652,34542,2,EA,1,100,0.641991
198702,34560,2,EA,1,100,0.641832
198753,34560,2,EA,1,100,0.641965
198803,34578,2,EA,1,100,0.641947
198854,34578,2,EA,1,100,0.642122
198904,34596,2,EA,1,100,0.641881
198955,34596,2,EA,1,100,0.642279
199005,34614,2,EA,1,100,0.641905
199056,34614,2,EA,1,100,0.642080
199106,34632,2,EA,1,100,0.642235
199157,34632,2,EA,1,100,0.641967
199207,34650,2,EA,1,100,0.641883
199258,34650,2,EA,1,100,0.641891
199308,34669,2,EA,1,100,0.642128
199359,34669,2,EA,1,100,0.642032
199409,34687,2,EA,1,100,0.641935
199460,34687,2,EA,1,100,0.641981
199510,34705,2,EA,1,100,0.642104
199561,34705,2,EA,1,100,0.642382
199611,34723,2,EA,1,100,0.642167
199662,34723,2,EA,1,100,0.642384
199695,34741,3,EA,1,100,0.642066
199729,34741,3,EA,1,100,0.641788
199763,34741,3,EA,1,100,0.642030
199813,34759,2,EA,1,100,0.642161
199864,34759,2,EA,1,100,0.642374
199914,34777,2,EA,1,100,0.642215
199965,34777,2,EA,1,100,0.641933
200015,34795,2,EA,1,100,0.642412
200066,34795,2,EA,1,100,0.642253
200116,34814,2,EA,1,100,0.642098
200167,34814,2,EA,1,100,0.642285
200217,34832,2,EA,1,100,0.642169
200268,34832,2,EA,1,100,0.642235
200318,34850,2,EA,1,100,0.642243
200369,34850,2,EA,1,100,0.642287
200419,34868,2,EA,1,100,0.642318
200470,34868,2,EA,1,100,0.642330
200520,34886,2,EA,1,100,0.642300
200571,34886,2,EA,1,100,0.642050
200621,34904,2,EA,1,100,0.642126
200672,34904,2,EA,1,100,0.642414
200722,34922,2,EA,1,100,0.642187
200773,34922,2,EA,1,100,0.642263
200823,34941,2,EA,1,100,0.642549
200874,34941,2,EA,1,100,0.642050
200924,34959,2,EA,1,100,0.642223
200975,34959,2,EA,1,100,0.642400
201025,34977,2,EA,1,100,0.642308
201076,34977,2,EA,1,100,0.642507
201126,34995,2,EA,1,100,0.642233
201177,34995,2,EA,1,100,0.642092
201227,35013,2,EA,1,100,0.642358
201278,35013,2,EA,1,100,0.642265
201316,35034,4,EA,1,100,0.642320
201355,35034,4,EA,1,100,0.642009
201393,35034,4,EA,1,100,0.642112
201432,35034,4,EA,1,100,0.642443
201482,35054,2,EA,1,100,0.642191
201533,35054,2,EA,1,100,0.642277
201583,35073,2,EA,1,100,0.642134
201634,35073,2,EA,1,100,0.642328
201684,35091,2,EA,1,100,0.642261
201735,35091,2,EA,1,100,0.642493
201785,35109,2,EA,1,100,0.642477
201836,35109,2,EA,1,100,0.642281
201886,35127,2,EA,1,100,0.642165
201937,35127,2,EA,1,100,0.642209
201987,35145,2,EA,1,100,0.642449
202038,35145,2,EA,1,100,0.642255
202088,35163,2,EA,1,100,0.642465
202139,35163,2,EA,1,100,0.642118
202189,35181,2,EA,1,100,0.642275
202240,35181,2,EA,1,100,0.642350
202290,35200,2,EA,1,100,0.642271
202341,35200,2,EA,1,100,0.642503
202391,35218,2,EA,1,100,0.642364
202442,35218,2,EA,1,100,0.642360
202492,35236,2,EA,1,100,0.642388
202543,35236,2,EA,1,100,0.642382
202593,35254,2,EA,1,100,0.642312
202644,35254,2,EA,1,100,0.642445
202694,35272,2,EA,1,100,0.642231
202745,35272,2,EA,1,100,0.642382
202795,35290,2,EA,1,100,0.642588
202846,35290,2,EA,1,100,0.642424
202879,35308,3,EA,1,100,0.642267
202913,35308,3,EA,1,100,0.642225
202947,35308,3,EA,1,100,0.642295
202997,35326,2,EA,1,100,0.642175
203048,35326,2,EA,1,100,0.642499
203098,35345,2,EA,1,100,0.642300
203149,35345,2,EA,1,100,0.642352
203199,35363,2,EA,1,100,0.642354
203250,35363,2,EA,1,100,0.642142
203300,35381,2,EA,1,100,0.642606
203351,35381,2,EA,1,100,0.642404
203401,35399,2,EA,1,100,0.642306
203452,35399,2,EA,1,100,0.642420
203502,35417,2,EA,1,100,0.642009
203553,35417,2,EA,1,100,0.642656
203603,35435,2,EA,1,100,0.642565
203654,35435,2,EA,1,100,0.642354
203704,35453,2,EA,1,100,0.642294
203755,35453,2,EA,1,100,0.642602
203805,35472,2,EA,1,100,0.642336
203856,35472,2,EA,1,100,0.642469
203906,35490,2,EA,1,100,0.642247
203957,35490,2,EA,1,100,0.642525
204007,35508,2,EA,1,100,0.642114
204058,35508,2,EA,1,100,0.642388
204108,35526,2,EA,1,100,0.642273
204159,35526,2,EA,1,100,0.642320
204209,35544,2,EA,1,100,0.642122
204260,35544,2,EA,1,100,0.642358
204310,35562,2,EA,1,100,0.642294
204361,35562,2,EA,1,100,0.642664
204394,35580,3,EA,1,100,0.642203
204428,35580,3,EA,1,100,0.642328
204462,35580,3,EA,1,100,0.642394
204512,35599,2,EA,1,100,0.642364
204563,35599,2,EA,1,100,0.642485
204613,35617,2,EA,1,100,0.642173
204664,35617,2,EA,1,100,0.642439
204714,35635,2,EA,1,100,0.642340
204765,35635,2,EA,1,100,0.642332
204815,35653,2,EA,1,100,0.642235
204866,35653,2,EA,1,100,0.642678
204916,35671,2,EA,1,100,0.642394
204967,35671,2,EA,1,100,0.642513
205017,35689,2,EA,1,100,0.642634
205068,35689,2,EA,1,100,0.642515
205118,35707,2,EA,1,100,0.642463
205169,35707,2,EA,1,100,0.642455
205219,35725,2,EA,1,100,0.642416
205270,35725,2,EA,1,100,0.642483
205320,35744,2,EA,1,100,0.642420
205371,35744,2,EA,1,100,0.642543
205421,35762,2,EA,1,100,0.642541
205472,35762,2,EA,1,100,0.642386
205522,35780,2,EA,1,100,0.642678
205573,35780,2,EA,1,100,0.642813
205623,35798,2,EA,1,100,0.642594
205674,35798,2,EA,1,100,0.642251
205724,35816,2,EA,1,100,0.642584
205775,35816,2,EA,1,100,0.642394
205825,35834,2,EA,1,100,0.642378
205876,35834,2,EA,1,100,0.642527
205926,35852,2,EA,1,100,0.642495
205977,35852,2,EA,1,100,0.642610
206027,35871,2,EA,1,100,0.642571
206078,35871,2,EA,1,100,0.642610
206111,35889,3,EA,1,100,0.642517
206145,35889,3,EA,1,100,0.642529
206179,35889,3,EA,1,100,0.642600
206229,35907,2,EA,1,100,0.642545
206280,35907,2,EA,1,100,0.642388
206330,35925,2,EA,1,100,0.642513
206381,35925,2,EA,1,100,0.642511
206431,35943,2,EA,1,100,0.642535
206482,35943,2,EA,1,100,0.642503
206532,35961,2,EA,1,100,0.642592
206583,35961,2,EA,1,100,0.642632
206633,35979,2,EA,1,100,0.642491
206684,35979,2,EA,1,100,0.642835
206734,35997,2,EA,1,100,0.642614
206785,35997,2,EA,1,100,0.642505
206836,36016,2,EA,1,100,0.642350
206887,36016,2,EA,1,100,0.642743
206937,36034,2,EA,1,100,0.642737
206988,36034,2,EA,1,100,0.642467
207038,36052,2,EA,1,100,0.642499
207089,36052,2,EA,1,100,0.642839
207139,36070,2,EA,1,100,0.642652
207190,36070,2,EA,1,100,0.642708
207240,36088,2,EA,1,100,0.642678
207291,36088,2,EA,1,100,0.642747
207341,36106,2,EA,1,100,0.642283
207392,36106,2,EA,1,100,0.642491
207425,36124,3,EA,1,100,0.642533
207459,36124,3,EA,1,100,0.642519
207493,36124,3,EA,1,100,0.642714
207543,36143,2,EA,1,100,0.642741
207594,36143,2,EA,1,100,0.642424
207644,36161,2,EA,1,100,0.642690
207695,36161,2,EA,1,100,0.642763
207745,36179,2,EA,1,100,0.642529
207796,36179,2,EA,1,100,0.642714
207846,36197,2,EA,1,100,0.642721
207897,36197,2,EA,1,100,0.642668
207947,36215,2,EA,1,100,0.642727
207998,36215,2,EA,1,100,0.642813
208048,36233,2,EA,1,100,0.642559
208099,36233,2,EA,1,100,0.642541
208149,36251,2,EA,1,100,0.642576
208200,36251,2,EA,1,100,0.642831
208250,36270,2,EA,1,100,0.642839
208301,36270,2,EA,1,100,0.642525
208351,36288,2,EA,1,100,0.642569
208402,36288,2,EA,1,100,0.642666
208452,36306,2,EA,1,100,0.642531
208503,36306,2,EA,1,100,0.642698
208553,36324,2,EA,1,100,0.642384
208604,36324,2,EA,1,100,0.642759
208654,36342,2,EA,1,100,0.642662
208705,36342,2,EA,1,100,0.643093
208755,36360,2,EA,1,100,0.642833
208806,36360,2,EA,1,100,0.643005
208856,36378,2,EA,1,100,0.642878
208907,36378,2,EA,1,100,0.642898
208957,36396,2,EA,1,100,0.642861
209008,36396,2,EA,1,100,0.642763
209041,36415,3,EA,1,100,0.642845
209075,36415,3,EA,1,100,0.642876
209109,36415,3,EA,1,100,0.642890
209159,36433,2,EA,1,100,0.642876
209210,36433,2,EA,1,100,0.642737
209260,36451,2,EA,1,100,0.642904
209311,36451,2,EA,1,100,0.642761
209361,36469,2,EA,1,100,0.642904
209412,36469,2,EA,1,100,0.643077
209462,36487,2,EA,1,100,0.642787
209513,36487,2,EA,1,100,0.642930
209563,36505,2,EA,1,100,0.642841
209614,36505,2,EA,1,100,0.642771
209664,36523,2,EA,1,100,0.642581
209715,36523,2,EA,1,100,0.643141
209765,36542,2,EA,1,100,0.642745
209816,36542,2,EA,1,100,0.642565
209866,36560,2,EA,1,100,0.642507
209917,36560,2,EA,1,100,0.642698
209967,36578,2,EA,1,100,0.642285
210018,36578,2,EA,1,100,0.642433
210068,36596,2,EA,1,100,0.642753
210119,36596,2,EA,1,100,0.643057
210169,36614,2,EA,1,100,0.642614
210220,36614,2,EA,1,100,0.642658
210270,36632,2,EA,1,100,0.642851
210321,36632,2,EA,1,100,0.642636
210371,36650,2,EA,1,100,0.642574
210422,36650,2,EA,1,100,0.642459
210472,36668,2,EA,1,100,0.642704
210523,36668,2,EA,1,100,0.643077
210573,36687,2,EA,1,100,0.642434
210624,36687,2,EA,1,100,0.642789
210657,36705,3,EA,1,100,0.642630
210691,36705,3,EA,1,100,0.642710
210725,36705,3,EA,1,100,0.642465
210775,36723,2,EA,1,100,0.642672
210826,36723,2,EA,1,100,0.642735
210876,36741,2,EA,1,100,0.642851
210927,36741,2,EA,1,100,0.642676
210977,36759,2,EA,1,100,0.642696
211028,36759,2,EA,1,100,0.642813
211078,36777,2,EA,1,100,0.642596
211129,36777,2,EA,1,100,0.642539
211179,36795,2,EA,1,100,0.642890
211230,36795,2,EA,1,100,0.642336
211280,36814,2,EA,1,100,0.642628
211331,36814,2,EA,1,100,0.642666
211381,36832,2,EA,1,100,0.642602
211432,36832,2,EA,1,100,0.642743
211482,36850,2,EA,1,100,0.642688
211533,36850,2,EA,1,100,0.642404
211583,36868,2,EA,1,100,0.642571
211634,36868,2,EA,1,100,0.642519
211684,36886,2,EA,1,100,0.642430
211735,36886,2,EA,1,100,0.642805
211785,36904,2,EA,1,100,0.642706
211836,36904,2,EA,1,100,0.642368
211886,36922,2,EA,1,100,0.642366
211937,36922,2,EA,1,100,0.642310
211987,36941,2,EA,1,100,0.642334
212038,36941,2,EA,1,100,0.642443
212088,36959,2,EA,1,100,0.642330
212139,36959,2,EA,1,100,0.642584
212184,36980,4,EA,1,100,0.642513
212229,36980,4,EA,1,100,0.642289
212274,36980,4,EA,1,100,0.642416
212320,36980,4,EA,1,100,0.642761
212370,37000,2,EA,1,100,0.642884
212421,37000,2,EA,1,100,0.642555
212471,37018,2,EA,1,100,0.642362
212522,37018,2,EA,1,100,0.642594
212572,37036,2,EA,1,100,0.642477
212623,37036,2,EA,1,100,0.642616
212673,37054,2,EA,1,100,0.642914
212724,37054,2,EA,1,100,0.642731
212774,37073,2,EA,1,100,0.642561
212825,37073,2,EA,1,100,0.642958
212858,37091,3,EA,1,100,0.642525
212892,37091,3,EA,1,100,0.642485
212926,37091,3,EA,1,100,0.642507
212976,37109,2,EA,1,100,0.642477
213027,37109,2,EA,1,100,0.642624
213081,37127,4,EA,1,100,0.642636
213135,37127,4,EA,1,100,0.642841
213189,37127,4,EA,1,100,0.642531
213243,37127,4,EA,1,100,0.642481
213298,37145,2,EA,1,100,0.642350
213353,37145,2,EA,1,100,0.642513
213403,37163,2,EA,1,100,0.642594
213454,37163,2,EA,1,100,0.642592
213504,37182,2,EA,1,100,0.642571
213555,37182,2,EA,1,100,0.642861
213605,37200,2,EA,1,100,0.642579
213656,37200,2,EA,1,100,0.642511
213689,37218,3,EA,1,100,0.642741
213723,37218,3,EA,1,100,0.642789
213757,37218,3,EA,1,100,0.642616
213807,37236,2,EA,1,100,0.642688
213858,37236,2,EA,1,100,0.642604
213908,37254,2,EA,1,100,0.642773
213959,37254,2,EA,1,100,0.642855
214009,37272,2,EA,1,100,0.642614
214060,37272,2,EA,1,100,0.642632
214110,37290,2,EA,1,100,0.642680
214161,37290,2,EA,1,100,0.642956
214211,37309,2,EA,1,100,0.643003
214262,37309,2,EA,1,100,0.643099
214312,37327,2,EA,1,100,0.642962
214363,37327,2,EA,1,100,0.643049
214413,37345,2,EA,1,100,0.642978
214464,37345,2,EA,1,100,0.643043
214514,37363,2,EA,1,100,0.643238
214565,37363,2,EA,1,100,0.643154
214615,37381,2,EA,1,100,0.643093
214666,37381,2,EA,1,100,0.643393
214716,37399,2,EA,1,100,0.643288
214767,37399,2,EA,1,100,0.643633
214817,37417,2,EA,1,100,0.643272
214868,37417,2,EA,1,100,0.643663
214918,37435,2,EA,1,100,0.643246
214969,37435,2,EA,1,100,0.643520
215019,37454,2,EA,1,100,0.643494
215070,37454,2,EA,1,100,0.643341
215120,37472,2,EA,1,100,0.643496
215171,37472,2,EA,1,100,0.643383
215221,37490,2,EA,1,100,0.643665
215272,37490,2,EA,1,100,0.643558
215305,37508,3,EA,1,100,0.643367
215339,37508,3,EA,1,100,0.643355
215373,37508,3,EA,1,100,0.643591
215423,37526,2,EA,1,100,0.643476
215474,37526,2,EA,1,100,0.643659
215524,37544,2,EA,1,100,0.643790
215575,37544,2,EA,1,100,0.643397
215625,37562,2,EA,1,100,0.643425
215676,37562,2,EA,1,100,0.643961
215726,37581,2,EA,1,100,0.643633
215777,37581,2,EA,1,100,0.643570
215827,37599,2,EA,1,100,0.643474
215878,37599,2,EA,1,100,0.643470
215928,37617,2,EA,1,100,0.643468
215979,37617,2,EA,1,100,0.643744
216029,37635,2,EA,1,100,0.643619
216080,37635,2,EA,1,100,0.643417
216130,37653,2,EA,1,100,0.643484
216181,37653,2,EA,1,100,0.643484
216231,37671,2,EA,1,100,0.643309
216282,37671,2,EA,1,100,0.643246
216332,37689,2,EA,1,100,0.643335
216383,37689,2,EA,1,100,0.643085
216433,37707,2,EA,1,100,0.643085
216484,37707,2,EA,1,100,0.642996
216534,37726,2,EA,1,100,0.643123
216585,37726,2,EA,1,100,0.643061
216635,37744,2,EA,1,100,0.643047
216686,37744,2,EA,1,100,0.642938
216736,37762,2,EA,1,100,0.642827
216787,37762,2,EA,1,100,0.643047
216820,37780,3,EA,1,100,0.642956
216854,37780,3,EA,1,100,0.643093
216888,37780,3,EA,1,100,0.643228
216938,37798,2,EA,1,100,0.643111
216989,37798,2,EA,1,100,0.643222
217039,37816,2,EA,1,100,0.643148
217090,37816,2,EA,1,100,0.643005
217140,37834,2,EA,1,100,0.643381
217191,37834,2,EA,1,100,0.643139
217241,37853,2,EA,1,100,0.643200
217292,37853,2,EA,1,100,0.642926
217342,37871,2,EA,1,100,0.643218
217393,37871,2,EA,1,100,0.643343
217443,37889,2,EA,1,100,0.643347
217494,37889,2,EA,1,100,0.643619
217544,37907,2,EA,1,100,0.643623
217595,37907,2,EA,1,100,0.643341
217645,37925,2,EA,1,100,0.643623
217696,37925,2,EA,1,100,0.643568
217746,37943,2,EA,1,100,0.643796
217797,37943,2,EA,1,100,0.643754
217847,37961,2,EA,1,100,0.643730
217898,37961,2,EA,1,100,0.643885
217948,37980,2,EA,1,100,0.643766
217999,37980,2,EA,1,100,0.643933
218049,37998,2,EA,1,100,0.643458
218100,37998,2,EA,1,100,0.643734
218150,38016,2,EA,1,100,0.643432
218201,38016,2,EA,1,100,0.643611
218251,38034,2,EA,1,100,0.643526
218302,38034,2,EA,1,100,0.643448
218352,38052,2,EA,1,100,0.643258
218403,38052,2,EA,1,100,0.643387
218453,38070,2,EA,1,100,0.643182
218504,38070,2,EA,1,100,0.643091
218537,38088,3,EA,1,100,0.643220
218571,38088,3,EA,1,100,0.643234
218605,38088,3,EA,1,100,0.643325
218655,38106,2,EA,1,100,0.643172
218706,38106,2,EA,1,100,0.643089
218756,38125,2,EA,1,100,0.643303
218807,38125,2,EA,1,100,0.643301
218857,38143,2,EA,1,100,0.643313
218908,38143,2,EA,1,100,0.643137
218958,38161,2,EA,1,100,0.643409
219009,38161,2,EA,1,100,0.643435
219059,38179,2,EA,1,100,0.643327
219110,38179,2,EA,1,100,0.643355
219160,38197,2,EA,1,100,0.643504
219211,38197,2,EA,1,100,0.643516
219261,38215,2,EA,1,100,0.643452
219312,38215,2,EA,1,100,0.643321
219362,38233,2,EA,1,100,0.643389
219413,38233,2,EA,1,100,0.643323
219463,38252,2,EA,1,100,0.643351
219514,38252,2,EA,1,100,0.643665
219564,38270,2,EA,1,100,0.643260
219615,38270,2,EA,1,100,0.643522
219665,38288,2,EA,1,100,0.643383
219716,38288,2,EA,1,100,0.643440
219766,38306,2,EA,1,100,0.643550
219817,38306,2,EA,1,100,0.643705
219867,38324,2,EA,1,100,0.643526
219918,38324,2,EA,1,100,0.643430
219968,38342,2,EA,1,100,0.643585
220019,38342,2,EA,1,100,0.643647
220052,38360,3,EA,1,100,0.643703
220086,38360,3,EA,1,100,0.643770
220120,38360,3,EA,1,100,0.643435
220170,38378,2,EA,1,100,0.643536
220221,38378,2,EA,1,100,0.643583
220271,38397,2,EA,1,100,0.643307
220322,38397,2,EA,1,100,0.643387
220372,38415,2,EA,1,100,0.643224
220423,38415,2,EA,1,100,0.642992
220473,38433,2,EA,1,100,0.643234
220524,38433,2,EA,1,100,0.643305
220574,38451,2,EA,1,100,0.643091
220625,38451,2,EA,1,100,0.642747
220675,38469,2,EA,1,100,0.643109
220726,38469,2,EA,1,100,0.642722
220776,38487,2,EA,1,100,0.642880
220827,38487,2,EA,1,100,0.642861
220877,38505,2,EA,1,100,0.642769
220928,38505,2,EA,1,100,0.642948
220978,38524,2,EA,1,100,0.642916
221029,38524,2,EA,1,100,0.642775
221079,38542,2,EA,1,100,0.642978
221130,38542,2,EA,1,100,0.642640
221180,38560,2,EA,1,100,0.642688
221231,38560,2,EA,1,100,0.642992
221281,38578,2,EA,1,100,0.642670
221332,38578,2,EA,1,100,0.642886
221382,38596,2,EA,1,100,0.642785
221433,38596,2,EA,1,100,0.642791
221483,38614,2,EA,1,100,0.642994
221534,38614,2,EA,1,100,0.642737
221567,38632,3,EA,1,100,0.642499
221601,38632,3,EA,1,100,0.642898
221635,38632,3,EA,1,100,0.642735
221685,38651,2,EA,1,100,0.642785
221736,38651,2,EA,1,100,0.642692
221786,38669,2,EA,1,100,0.642553
221837,38669,2,EA,1,100,0.642571
221887,38687,2,EA,1,100,0.642984
221938,38687,2,EA,1,100,0.642769
221988,38705,2,EA,1,100,0.642761
222039,38705,2,EA,1,100,0.642716
222089,38723,2,EA,1,100,0.642636
222140,38723,2,EA,1,100,0.642745
222190,38741,2,EA,1,100,0.642706
222241,38741,2,EA,1,100,0.642487
222291,38759,2,EA,1,100,0.642561
222342,38759,2,EA,1,100,0.642656
222392,38777,2,EA,1,100,0.642306
222443,38777,2,EA,1,100,0.642660
222493,38796,2,EA,1,100,0.642255
222544,38796,2,EA,1,100,0.641585
222594,38814,2,EA,1,100,0.641840
222645,38814,2,EA,1,100,0.641609
222695,38832,2,EA,1,100,0.641836
222746,38832,2,EA,1,100,0.642326
222796,38850,2,EA,1,100,0.642076
222847,38850,2,EA,1,100,0.642229
222897,38868,2,EA,1,100,0.641869
222948,38868,2,EA,1,100,0.642304
222998,38886,2,EA,1,100,0.641957
223049,38886,2,EA,1,100,0.642177
223089,38907,4,EA,1,100,0.641969
223129,38907,4,EA,1,100,0.642058
223169,38907,4,EA,1,100,0.642227
223210,38907,4,EA,1,100,0.642340
223260,38928,2,EA,1,100,0.642376
223311,38928,2,EA,1,100,0.642388
223361,38946,2,EA,1,100,0.642144
223412,38946,2,EA,1,100,0.642249
223462,38964,2,EA,1,100,0.642211
223513,38964,2,EA,1,100,0.642304
223563,38982,2,EA,1,100,0.642304
223614,38982,2,EA,1,100,0.642418
223664,39000,2,EA,1,100,0.642269
223715,39000,2,EA,1,100,0.640944
223765,39018,2,EA,1,100,0.640594
223816,39018,2,EA,1,100,0.640154
223866,39036,2,EA,1,100,0.639705
223917,39036,2,EA,1,100,0.639687
223967,39055,2,EA,1,100,0.638859
224018,39055,2,EA,1,100,0.639474
224068,39073,2,EA,1,100,0.638318
224119,39073,2,EA,1,100,0.638712
224169,39091,2,EA,1,100,0.638990
224220,39091,2,EA,1,100,0.638948
224270,39109,2,EA,1,100,0.636136
224321,39109,2,EA,1,100,0.633431
224371,39127,2,EA,1,100,0.633294
224422,39127,2,EA,1,100,0.630144
224455,39145,3,EA,1,100,0.629733
224489,39145,3,EA,1,100,0.635220
224523,39145,3,EA,1,100,0.636589
224573,39163,2,EA,1,100,0.632960
224624,39163,2,EA,1,100,0.634332
224674,39182,2,EA,1,100,0.636670
224725,39182,2,EA,1,100,0.638680
224775,39200,2,EA,1,100,0.639168
224826,39200,2,EA,1,100,0.639544
224876,39218,2,EA,1,100,0.639961
224927,39218,2,EA,1,100,0.640084
224977,39236,2,EA,1,100,0.640231
225028,39236,2,EA,1,100,0.640658
225078,39254,2,EA,1,100,0.640692
225129,39254,2,EA,1,100,0.640849
225179,39272,2,EA,1,100,0.640974
225230,39272,2,EA,1,100,0.641435
225280,39290,2,EA,1,100,0.641210
225331,39290,2,EA,1,100,0.641512
225381,39308,2,EA,1,100,0.641534
225432,39308,2,EA,1,100,0.641578
225482,39327,2,EA,1,100,0.641635
225533,39327,2,EA,1,100,0.641798
225583,39345,2,EA,1,100,0.641869
225634,39345,2,EA,1,100,0.642054
225684,39363,2,EA,1,100,0.641883
225735,39363,2,EA,1,100,0.641613
225785,39382,2,EA,1,100,0.642034
225836,39382,2,EA,1,100,0.641983
225886,39400,2,EA,1,100,0.641873
225937,39400,2,EA,1,100,0.642320
225987,39418,2,EA,1,100,0.642231
226038,39418,2,EA,1,100,0.642245
226071,39436,3,EA,1,100,0.642485
226105,39436,3,EA,1,100,0.641875
226139,39436,3,EA,1,100,0.642203
226189,39455,2,EA,1,100,0.642314
226240,39455,2,EA,1,100,0.642169
226290,39473,2,EA,1,100,0.642336
226341,39473,2,EA,1,100,0.642398
226391,39491,2,EA,1,100,0.643458
226442,39491,2,EA,1,100,0.642678
226492,39509,2,EA,1,100,0.642410
226543,39509,2,EA,1,100,0.642273
226593,39527,2,EA,1,100,0.642169
226644,39527,2,EA,1,100,0.642497
226694,39545,2,EA,1,100,0.642664
226745,39545,2,EA,1,100,0.642584
226795,39563,2,EA,1,100,0.642396
226846,39563,2,EA,1,100,0.642652
226896,39582,2,EA,1,100,0.642408
226947,39582,2,EA,1,100,0.642565
226997,39600,2,EA,1,100,0.642469
227048,39600,2,EA,1,100,0.642714
227098,39618,2,EA,1,100,0.642702
227149,39618,2,EA,1,100,0.642666
227199,39636,2,EA,1,100,0.642576
227250,39636,2,EA,1,100,0.642884
227300,39654,2,EA,1,100,0.642719
227351,39654,2,EA,1,100,0.642584
227401,39672,2,EA,1,100,0.642779
227452,39672,2,EA,1,100,0.642654
227485,39690,3,EA,1,100,0.642819
227519,39690,3,EA,1,100,0.642565
227553,39690,3,EA,1,100,0.642753
227603,39708,2,EA,1,100,0.642620
227654,39708,2,EA,1,100,0.642886
227704,39727,2,EA,1,100,0.643133
227755,39727,2,EA,1,100,0.642616
227805,39745,2,EA,1,100,0.642775
227856,39745,2,EA,1,100,0.642930
227906,39763,2,EA,1,100,0.642547
227957,39763,2,EA,1,100,0.642735
228007,39781,2,EA,1,100,0.642698
228058,39781,2,EA,1,100,0.643051
228108,39799,2,EA,1,100,0.642739
228159,39799,2,EA,1,100,0.643178
228209,39817,2,EA,1,100,0.642956
228260,39817,2,EA,1,100,0.643186
228310,39835,2,EA,1,100,0.642763
228361,39835,2,EA,1,100,0.642928
228411,39854,2,EA,1,100,0.642771
228462,39854,2,EA,1,100,0.642886
228512,39872,2,EA,1,100,0.642811
228563,39872,2,EA,1,100,0.642586
228613,39890,2,EA,1,100,0.642537
228664,39890,2,EA,1,100,0.642787
228714,39908,2,EA,1,100,0.642741
228765,39908,2,EA,1,100,0.642700
228815,39926,2,EA,1,100,0.642851
228866,39926,2,EA,1,100,0.642799
228916,39944,2,EA,1,100,0.642898
228967,39944,2,EA,1,100,0.642868
229017,39962,2,EA,1,100,0.642729
229068,39962,2,EA,1,100,0.643272
229101,39980,3,EA,1,100,0.642785
229135,39980,3,EA,1,100,0.642813
229169,39980,3,EA,1,100,0.642721
229219,39999,2,EA,1,100,0.643254
229270,39999,2,EA,1,100,0.642638
229320,40017,2,EA,1,100,0.643204
229371,40017,2,EA,1,100,0.642938
229421,40035,2,EA,1,100,0.643202
229472,40035,2,EA,1,100,0.642948
229522,40053,2,EA,1,100,0.643000
229573,40053,2,EA,1,100,0.643258
229623,40071,2,EA,1,100,0.643240
229674,40071,2,EA,1,100,0.643367
229724,40089,2,EA,1,100,0.643200
229775,40089,2,EA,1,100,0.643718
229825,40107,2,EA,1,100,0.643315
229876,40107,2,EA,1,100,0.643732
229926,40126,2,EA,1,100,0.643508
229977,40126,2,EA,1,100,0.643357
230027,40144,2,EA,1,100,0.643510
230078,40144,2,EA,1,100,0.643665
230128,40162,2,EA,1,100,0.643673
230179,40162,2,EA,1,100,0.643423
230229,40180,2,EA,1,100,0.643611
230280,40180,2,EA,1,100,0.643981
230330,40198,2,EA,1,100,0.643577
230381,40198,2,EA,1,100,0.643812
230431,40216,2,EA,1,100,0.643504
230482,40216,2,EA,1,100,0.643568
230532,40234,2,EA,1,100,0.643383
230583,40234,2,EA,1,100,0.643514
230633,40253,2,EA,1,100,0.643399
230684,40253,2,EA,1,100,0.643194
230717,40271,3,EA,1,100,0.643375
230751,40271,3,EA,1,100,0.643258
230785,40271,3,EA,1,100,0.643286
230835,40289,2,EA,1,100,0.643484
230886,40289,2,EA,1,100,0.643319
230936,40307,2,EA,1,100,0.643538
230987,40307,2,EA,1,100,0.643343
231037,40325,2,EA,1,100,0.643214
231088,40325,2,EA,1,100,0.643955
231138,40343,2,EA,1,100,0.643119
231189,40343,2,EA,1,100,0.643276
231239,40361,2,EA,1,100,0.643162
231290,40361,2,EA,1,100,0.643377
231340,40379,2,EA,1,100,0.643059
231391,40379,2,EA,1,100,0.643432
231441,40398,2,EA,1,100,0.643129
231492,40398,2,EA,1,100,0.643711
231542,40416,2,EA,1,100,0.643172
231593,40416,2,EA,1,100,0.643158
231643,40434,2,EA,1,100,0.642843
231694,40434,2,EA,1,100,0.643170
231744,40452,2,EA,1,100,0.643135
231795,40452,2,EA,1,100,0.643351
231845,40470,2,EA,1,100,0.643109
231896,40470,2,EA,1,100,0.643377
231946,40488,2,EA,1,100,0.642614
231997,40488,2,EA,1,100,0.642849
232047,40506,2,EA,1,100,0.642837
232098,40506,2,EA,1,100,0.643003
232131,40525,3,EA,1,100,0.643023
232165,40525,3,EA,1,100,0.643065
232199,40525,3,EA,1,100,0.642620
232249,40543,2,EA,1,100,0.643119
232300,40543,2,EA,1,100,0.642622
232350,40561,2,EA,1,100,0.642992
232401,40561,2,EA,1,100,0.642968
232451,40579,2,EA,1,100,0.642521
232502,40579,2,EA,1,100,0.643278
232552,40597,2,EA,1,100,0.642511
232603,40597,2,EA,1,100,0.642688
232653,40615,2,EA,1,100,0.642481
232704,40615,2,EA,1,100,0.642676
232754,40633,2,EA,1,100,0.642543
232805,40633,2,EA,1,100,0.642574
232855,40651,2,EA,1,100,0.642320
232906,40651,2,EA,1,100,0.642294
232956,40670,2,EA,1,100,0.642112
233007,40670,2,EA,1,100,0.642630
233057,40688,2,EA,1,100,0.642334
233108,40688,2,EA,1,100,0.642775
233158,40706,2,EA,1,100,0.642285
233209,40706,2,EA,1,100,0.642664
233259,40724,2,EA,1,100,0.642189
233310,40724,2,EA,1,100,0.642553
233360,40742,2,EA,1,100,0.642241
233411,40742,2,EA,1,100,0.642614
233461,40760,2,EA,1,100,0.642213
233512,40760,2,EA,1,100,0.642672
233562,40778,2,EA,1,100,0.642342
233613,40778,2,EA,1,100,0.642294
233646,40797,3,EA,1,100,0.642430
233680,40797,3,EA,1,100,0.642525
233714,40797,3,EA,1,100,0.642328
233764,40815,2,EA,1,100,0.642672
233815,40815,2,EA,1,100,0.642370
233865,40833,2,EA,1,100,0.642882
233916,40833,2,EA,1,100,0.642324
233976,40854,3,EA,1,100,0.642604
234037,40854,3,EA,1,100,0.642771
234098,40854,3,EA,1,100,0.642737
234148,40874,2,EA,1,100,0.642801
234199,40874,2,EA,1,100,0.642473
234232,40892,3,EA,1,100,0.643111
234266,40892,3,EA,1,100,0.642592
234300,40892,3,EA,1,100,0.642527
234350,40910,2,EA,1,100,0.642821
234401,40910,2,EA,1,100,0.642441
234451,40929,2,EA,1,100,0.643069
234502,40929,2,EA,1,100,0.642485
234552,40947,2,EA,1,100,0.642614
234603,40947,2,EA,1,100,0.642571
234653,40965,2,EA,1,100,0.642634
234704,40965,2,EA,1,100,0.643415
234754,40983,2,EA,1,100,0.642640
234805,40983,2,EA,1,100,0.642982
234855,41001,2,EA,1,100,0.642559
234906,41001,2,EA,1,100,0.643170
234956,41019,2,EA,1,100,0.642551
235007,41019,2,EA,1,100,0.642868
235057,41037,2,EA,1,100,0.642608
235108,41037,2,EA,1,100,0.642994
235158,41056,2,EA,1,100,0.642857
235209,41056,2,EA,1,100,0.643297
235259,41074,2,EA,1,100,0.642743
235310,41074,2,EA,1,100,0.643339
235360,41092,2,EA,1,100,0.643135
235411,41092,2,EA,1,100,0.643361
235461,41110,2,EA,1,100,0.643133
235512,41110,2,EA,1,100,0.643403
235562,41128,2,EA,1,100,0.643176
235613,41128,2,EA,1,100,0.643528
235663,41146,2,EA,1,100,0.643139
235714,41146,2,EA,1,100,0.643490
235764,41164,2,EA,1,100,0.643413
235815,41164,2,EA,1,100,0.643405
235848,41183,3,EA,1,100,0.643508
235882,41183,3,EA,1,100,0.644132
235916,41183,3,EA,1,100,0.643566
235966,41201,2,EA,1,100,0.643766
236017,41201,2,EA,1,100,0.643373
236067,41219,2,EA,1,100,0.643661
236118,41219,2,EA,1,100,0.643401
236168,41237,2,EA,1,100,0.643214
236219,41237,2,EA,1,100,0.643570
236269,41255,2,EA,1,100,0.643315
236320,41255,2,EA,1,100,0.643583
236370,41273,2,EA,1,100,0.643355
236421,41273,2,EA,1,100,0.643192
236471,41291,2,EA,1,100,0.643055
236522,41291,2,EA,1,100,0.643349
236572,41309,2,EA,1,100,0.643137
236623,41309,2,EA,1,100,0.643299
236673,41328,2,EA,1,100,0.643005
236724,41328,2,EA,1,100,0.643629
236774,41346,2,EA,1,100,0.643123
236825,41346,2,EA,1,100,0.643321
236875,41364,2,EA,1,100,0.643226
236926,41364,2,EA,1,100,0.643520
236976,41382,2,EA,1,100,0.642946
237027,41382,2,EA,1,100,0.643393
237077,41400,2,EA,1,100,0.642938
237128,41400,2,EA,1,100,0.643478
237178,41418,2,EA,1,100,0.642922
237229,41418,2,EA,1,100,0.643069
237279,41436,2,EA,1,100,0.642980
237330,41436,2,EA,1,100,0.643593
237363,41455,3,EA,1,100,0.643093
237397,41455,3,EA,1,100,0.643450
237431,41455,3,EA,1,100,0.642902
237481,41473,2,EA,1,100,0.643425
237532,41473,2,EA,1,100,0.643069
237582,41491,2,EA,1,100,0.643409
237633,41491,2,EA,1,100,0.643272
237683,41509,2,EA,1,100,0.643291
237734,41509,2,EA,1,100,0.643220
237784,41527,2,EA,1,100,0.643419
237835,41527,2,EA,1,100,0.643736
237885,41545,2,EA,1,100,0.643190
237936,41545,2,EA,1,100,0.643579
237986,41563,2,EA,1,100,0.643111
238037,41563,2,EA,1,100,0.643083
238087,41582,2,EA,1,100,0.642978
238138,41582,2,EA,1,100,0.643301
238188,41600,2,EA,1,100,0.643355
238239,41600,2,EA,1,100,0.643168
238289,41618,2,EA,1,100,0.643000
238340,41618,2,EA,1,100,0.643198
238390,41636,2,EA,1,100,0.642823
238441,41636,2,EA,1,100,0.643476
238491,41654,2,EA,1,100,0.642845
238542,41654,2,EA,1,100,0.643307
238592,41672,2,EA,1,100,0.642958
238643,41672,2,EA,1,100,0.643274
238693,41690,2,EA,1,100,0.642650
238744,41690,2,EA,1,100,0.643198
238794,41708,2,EA,1,100,0.643065
238845,41708,2,EA,1,100,0.643633
238888,41727,5,EA,1,100,0.642870
238931,41727,5,EA,1,100,0.642876
238975,41727,5,EA,1,100,0.642833
239018,41727,5,EA,1,100,0.642940
239062,41727,5,EA,1,100,0.643210
239115,41745,2,EA,1,100,0.643232
239169,41745,2,EA,1,100,0.642868
239219,41763,2,EA,1,100,0.643409
239270,41763,2,EA,1,100,0.643200
239320,41781,2,EA,1,100,0.642958
239371,41781,2,EA,1,100,0.643166
239421,41799,2,EA,1,100,0.643135
239472,41799,2,EA,1,100,0.643456
239522,41817,2,EA,1,100,0.643053
239573,41817,2,EA,1,100,0.643456
239623,41836,2,EA,1,100,0.642960
239674,41836,2,EA,1,100,0.643389
239724,41854,2,EA,1,100,0.643049
239775,41854,2,EA,1,100,0.643496
239808,41872,3,EA,1,100,0.643186
239842,41872,3,EA,1,100,0.643478
239876,41872,3,EA,1,100,0.643232
239926,41890,2,EA,1,100,0.643653
239977,41890,2,EA,1,100,0.643170
240027,41908,2,EA,1,100,0.643365
240078,41908,2,EA,1,100,0.643200
240128,41926,2,EA,1,100,0.643337
240179,41926,2,EA,1,100,0.643623
240229,41944,2,EA,1,100,0.642966
240280,41944,2,EA,1,100,0.643510
240330,41963,2,EA,1,100,0.643019
240381,41963,2,EA,1,100,0.643446
240431,41981,2,EA,1,100,0.642751
240482,41981,2,EA,1,100,0.643498
240532,41999,2,EA,1,100,0.642924
240583,41999,2,EA,1,100,0.643212
240633,42017,2,EA,1,100,0.643154
240684,42017,2,EA,1,100,0.643202
240734,42035,2,EA,1,100,0.642853
240785,42035,2,EA,1,100,0.643248
240835,42053,2,EA,1,100,0.643000
240886,42053,2,EA,1,100,0.643667
240936,42071,2,EA,1,100,0.643097
240987,42071,2,EA,1,100,0.643228
241037,42089,2,EA,1,100,0.642789
241088,42089,2,EA,1,100,0.643566
241138,42108,2,EA,1,100,0.643071
241189,42108,2,EA,1,100,0.643577
241239,42126,2,EA,1,100,0.642958
241290,42126,2,EA,1,100,0.643470
241323,42144,3,EA,1,100,0.643097
241357,42144,3,EA,1,100,0.643043
241391,42144,3,EA,1,100,0.643019
241441,42162,2,EA,1,100,0.643444
241492,42162,2,EA,1,100,0.643152
241542,42180,2,EA,1,100,0.643546
241593,42180,2,EA,1,100,0.643556
241643,42198,2,EA,1,100,0.643025
241694,42198,2,EA,1,100,0.643198
241744,42216,2,EA,1,100,0.643087
241795,42216,2,EA,1,100,0.643337
241845,42235,2,EA,1,100,0.643220
241896,42235,2,EA,1,100,0.643794
241946,42253,2,EA,1,100,0.643051
241997,42253,2,EA,1,100,0.643442
242047,42271,2,EA,1,100,0.643123
242098,42271,2,EA,1,100,0.643121
242148,42289,2,EA,1,100,0.642839
242199,42289,2,EA,1,100,0.643373
242249,42307,2,EA,1,100,0.642936
242300,42307,2,EA,1,100,0.643075
242350,42325,2,EA,1,100,0.642920
242401,42325,2,EA,1,100,0.643307
242451,42343,2,EA,1,100,0.642036
242502,42343,2,EA,1,100,0.641603
242552,42361,2,EA,1,100,0.640275
242603,42361,2,EA,1,100,0.642302
242653,42380,2,EA,1,100,0.642652
242704,42380,2,EA,1,100,0.642948
242754,42398,2,EA,1,100,0.642527
242805,42398,2,EA,1,100,0.642936
242855,42416,2,EA,1,100,0.642823
242906,42416,2,EA,1,100,0.643174
242956,42434,2,EA,1,100,0.642914
243007,42434,2,EA,1,100,0.643276
243040,42452,3,EA,1,100,0.642704
243074,42452,3,EA,1,100,0.642775
243108,42452,3,EA,1,100,0.642791
243158,42470,2,EA,1,100,0.643357
243209,42470,2,EA,1,100,0.643003
243259,42488,2,EA,1,100,0.643065
243310,42488,2,EA,1,100,0.643119
243360,42507,2,EA,1,100,0.642855
243411,42507,2,EA,1,100,0.643011
243461,42525,2,EA,1,100,0.642922
243512,42525,2,EA,1,100,0.642721
243562,42543,2,EA,1,100,0.642880
243613,42543,2,EA,1,100,0.642783
243663,42561,2,EA,1,100,0.642704
243714,42561,2,EA,1,100,0.643069
243764,42579,2,EA,1,100,0.642936
243815,42579,2,EA,1,100,0.643000
243865,42597,2,EA,1,100,0.642833
243916,42597,2,EA,1,100,0.643254
243966,42615,2,EA,1,100,0.642801
244017,42615,2,EA,1,100,0.643244
244067,42634,2,EA,1,100,0.642767
244118,42634,2,EA,1,100,0.642843
244168,42652,2,EA,1,100,0.642829
244219,42652,2,EA,1,100,0.643214
244269,42670,2,EA,1,100,0.642636
244320,42670,2,EA,1,100,0.642892
244370,42688,2,EA,1,100,0.642912
244421,42688,2,EA,1,100,0.643333
244471,42706,2,EA,1,100,0.642831
244522,42706,2,EA,1,100,0.642857
244555,42724,3,EA,1,100,0.642712
244589,42724,3,EA,1,100,0.643107
244623,42724,3,EA,1,100,0.643000
244673,42742,2,EA,1,100,0.642674
244724,42742,2,EA,1,100,0.642712
244774,42760,2,EA,1,100,0.642880
244825,42760,2,EA,1,100,0.643176
244878,42782,3,EA,1,100,0.642904
244932,42782,3,EA,1,100,0.643325
244986,42782,3,EA,1,100,0.642866
245036,42802,2,EA,1,100,0.642908
245087,42802,2,EA,1,100,0.643008
245137,42820,2,EA,1,100,0.642974
245188,42820,2,EA,1,100,0.642825
245238,42838,2,EA,1,100,0.643131
245289,42838,2,EA,1,100,0.643164
245339,42856,2,EA,1,100,0.642928
245390,42856,2,EA,1,100,0.643079
245440,42874,2,EA,1,100,0.642755
245491,42874,2,EA,1,100,0.643347
245541,42892,2,EA,1,100,0.642992
245592,42892,2,EA,1,100,0.642962
245642,42911,2,EA,1,100,0.642727
245693,42911,2,EA,1,100,0.643248
245743,42929,2,EA,1,100,0.642936
245794,42929,2,EA,1,100,0.643693
245827,42947,3,EA,1,100,0.642831
245861,42947,3,EA,1,100,0.642807
245895,42947,3,EA,1,100,0.642813
245945,42965,2,EA,1,100,0.643170
245996,42965,2,EA,1,100,0.643113
246046,42983,2,EA,1,100,0.643000
246097,42983,2,EA,1,100,0.643389
246147,43001,2,EA,1,100,0.643162
246198,43001,2,EA,1,100,0.643141
246248,43019,2,EA,1,100,0.642787
246299,43019,2,EA,1,100,0.643311
246349,43038,2,EA,1,100,0.642666
246400,43038,2,EA,1,100,0.643756
246450,43056,2,EA,1,100,0.643037
246501,43056,2,EA,1,100,0.643317
246551,43074,2,EA,1,100,0.642845
246602,43074,2,EA,1,100,0.643577
246652,43092,2,EA,1,100,0.642994
246703,43092,2,EA,1,100,0.643141
246753,43110,2,EA,1,100,0.642970
246804,43110,2,EA,1,100,0.643198
246854,43128,2,EA,1,100,0.642902
246905,43128,2,EA,1,100,0.643774
246955,43146,2,EA,1,100,0.642986
247006,43146,2,EA,1,100,0.643395
247056,43165,2,EA,1,100,0.642878
247107,43165,2,EA,1,100,0.643117
247157,43183,2,EA,1,100,0.642948
247208,43183,2,EA,1,100,0.643365
247258,43201,2,EA,1,100,0.642948
247309,43201,2,EA,1,100,0.643359
247342,43219,3,EA,1,100,0.643073
247376,43219,3,EA,1,100,0.642898
247410,43219,3,EA,1,100,0.642966
247460,43237,2,EA,1,100,0.643125
247511,43237,2,EA,1,100,0.643003
247561,43255,2,EA,1,100,0.643452
247612,43255,2,EA,1,100,0.643067
247662,43273,2,EA,1,100,0.643291
247713,43273,2,EA,1,100,0.643212
247763,43291,2,EA,1,100,0.643528
247814,43291,2,EA,1,100,0.643228
247864,43310,2,EA,1,100,0.643111
247915,43310,2,EA,1,100,0.643274
247965,43328,2,EA,1,100,0.643156
248016,43328,2,EA,1,100,0.643472
248066,43346,2,EA,1,100,0.643029
248117,43346,2,EA,1,100,0.643194
248167,43364,2,EA,1,100,0.643079
248218,43364,2,EA,1,100,0.643812
248268,43382,2,EA,1,100,0.642988
248319,43382,2,EA,1,100,0.643212
248369,43400,2,EA,1,100,0.642964
248420,43400,2,EA,1,100,0.643425
248470,43418,2,EA,1,100,0.643033
248521,43418,2,EA,1,100,0.643224
248571,43437,2,EA,1,100,0.643232
248622,43437,2,EA,1,100,0.643172
248672,43455,2,EA,1,100,0.643139
248723,43455,2,EA,1,100,0.643403
248756,43473,3,EA,1,100,0.643089
248790,43473,3,EA,1,100,0.643192
248824,43473,3,EA,1,100,0.643240
248874,43491,2,EA,1,100,0.643274
248925,43491,2,EA,1,100,0.643250
248975,43509,2,EA,1,100,0.643343
249026,43509,2,EA,1,100,0.643111
249076,43527,2,EA,1,100,0.643297
249127,43527,2,EA,1,100,0.643143
249177,43545,2,EA,1,100,0.643065
249228,43545,2,EA,1,100,0.643562
249278,43564,2,EA,1,100,0.643065
249329,43564,2,EA,1,100,0.643023
249379,43582,2,EA,1,100,0.642946
249430,43582,2,EA,1,100,0.643540
249480,43600,2,EA,1,100,0.643184
249531,43600,2,EA,1,100,0.643667
249581,43618,2,EA,1,100,0.642888
249632,43618,2,EA,1,100,0.643232
249682,43636,2,EA,1,100,0.643067
249733,43636,2,EA,1,100,0.643427
249783,43654,2,EA,1,100,0.643109
249834,43654,2,EA,1,100,0.643182
249884,43672,2,EA,1,100,0.643117
249935,43672,2,EA,1,100,0.643633
249985,43690,2,EA,1,100,0.643065
250036,43690,2,EA,1,100,0.643589
250086,43709,2,EA,1,100,0.643101
250137,43709,2,EA,1,100,0.643621
250187,43727,2,EA,1,100,0.642926
250238,43727,2,EA,1,100,0.643365
250288,43745,2,EA,1,100,0.643111
250339,43745,2,EA,1,100,0.643254
250389,43763,2,EA,1,100,0.643170
250440,43763,2,EA,1,100,0.643639
250473,43781,3,EA,1,100,0.642924
250507,43781,3,EA,1,100,0.643399
250541,43781,3,EA,1,100,0.643023
250591,43799,2,EA,1,100,0.643476
250642,43799,2,EA,1,100,0.643057
250692,43817,2,EA,1,100,0.643413
250743,43817,2,EA,1,100,0.643073
250793,43836,2,EA,1,100,0.643095
250844,43836,2,EA,1,100,0.643613
250894,43854,2,EA,1,100,0.643148
250945,43854,2,EA,1,100,0.643224
250995,43872,2,EA,1,100,0.643170
251046,43872,2,EA,1,100,0.643587
251096,43890,2,EA,1,100,0.643008
251147,43890,2,EA,1,100,0.643103
251197,43908,2,EA,1,100,0.643254
251248,43908,2,EA,1,100,0.643812
251298,43926,2,EA,1,100,0.643083
251349,43926,2,EA,1,100,0.643395
251399,43944,2,EA,1,100,0.643101
251450,43944,2,EA,1,100,0.643488
251500,43962,2,EA,1,100,0.643198
251551,43962,2,EA,1,100,0.643593
251601,43981,2,EA,1,100,0.643196
251652,43981,2,EA,1,100,0.643276
251702,43999,2,EA,1,100,0.643204
251753,43999,2,EA,1,100,0.643407
251803,44017,2,EA,1,100,0.642982
251854,44017,2,EA,1,100,0.643242
251887,44035,3,EA,1,100,0.642918
251921,44035,3,EA,1,100,0.643492
251955,44035,3,EA,1,100,0.643099
252005,44053,2,EA,1,100,0.643099
252056,44053,2,EA,1,100,0.643248
252106,44071,2,EA,1,100,0.643528
252157,44071,2,EA,1,100,0.643085
252207,44089,2,EA,1,100,0.643065
252258,44089,2,EA,1,100,0.643053
252308,44108,2,EA,1,100,0.643178
252359,44108,2,EA,1,100,0.643045
252409,44126,2,EA,1,100,0.642912
252460,44126,2,EA,1,100,0.643083
252510,44144,2,EA,1,100,0.642861
252561,44144,2,EA,1,100,0.643865
252611,44162,2,EA,1,100,0.642835
252662,44162,2,EA,1,100,0.643341
252712,44180,2,EA,1,100,0.642880
252763,44180,2,EA,1,100,0.643125
252813,44198,2,EA,1,100,0.642988
252864,44198,2,EA,1,100,0.643059
252914,44216,2,EA,1,100,0.642908
252965,44216,2,EA,1,100,0.643337
253015,44235,2,EA,1,100,0.643069
253066,44235,2,EA,1,100,0.643528
253116,44253,2,EA,1,100,0.642902
253167,44253,2,EA,1,100,0.643293
253217,44271,2,EA,1,100,0.643005
253268,44271,2,EA,1,100,0.643055
253318,44289,2,EA,1,100,0.642809
253369,44289,2,EA,1,100,0.643434
253419,44307,2,EA,1,100,0.642610
253470,44307,2,EA,1,100,0.643101
253503,44325,3,EA,1,100,0.642978
253537,44325,3,EA,1,100,0.642795
253571,44325,3,EA,1,100,0.642841
253621,44343,2,EA,1,100,0.643216
253672,44343,2,EA,1,100,0.643137
253722,44361,2,EA,1,100,0.643182
253773,44361,2,EA,1,100,0.642755
253823,44380,2,EA,1,100,0.642954
253874,44380,2,EA,1,100,0.643297
253924,44398,2,EA,1,100,0.642704
253975,44398,2,EA,1,100,0.643113
254025,44416,2,EA,1,100,0.642312
254076,44416,2,EA,1,100,0.641677
254126,44434,2,EA,1,100,0.640757
254177,44434,2,EA,1,100,0.639768
254227,44452,2,EA,1,100,0.638179
254278,44452,2,EA,1,100,0.639198
254328,44470,2,EA,1,100,0.638924
254379,44470,2,EA,1,100,0.640354
254429,44488,2,EA,1,100,0.640199
254480,44488,2,EA,1,100,0.639973
254530,44507,2,EA,1,100,0.639321
254581,44507,2,EA,1,100,0.639611
254631,44525,2,EA,1,100,0.640273
254682,44525,2,EA,1,100,0.640964
254732,44543,2,EA,1,100,0.640477
254783,44543,2,EA,1,100,0.640906
254833,44561,2,EA,1,100,0.639764
254884,44561,2,EA,1,100,0.639858
254934,44579,2,EA,1,100,0.639820
254985,44579,2,EA,1,100,0.640245
255035,44597,2,EA,1,100,0.640285
255086,44597,2,EA,1,100,0.640797
255119,44615,3,EA,1,100,0.639254
255153,44615,3,EA,1,100,0.639333
255187,44615,3,EA,1,100,0.639407
255237,44634,2,EA,1,100,0.638867
255288,44634,2,EA,1,100,0.639095
255338,44652,2,EA,1,100,0.640809
255389,44652,2,EA,1,100,0.640731
255439,44670,2,EA,1,100,0.640829
255490,44670,2,EA,1,100,0.641091
255540,44688,2,EA,1,100,0.640841
255591,44688,2,EA,1,100,0.641838
255641,44706,2,EA,1,100,0.641564
255692,44706,2,EA,1,100,0.641709
255737,44727,4,EA,1,100,0.641508
255783,44727,4,EA,1,100,0.641848
255828,44727,4,EA,1,100,0.641883
255874,44727,4,EA,1,100,0.641995
255924,44747,2,EA,1,100,0.642128
255975,44747,2,EA,1,100,0.642801
256025,44766,2,EA,1,100,0.642237
256076,44766,2,EA,1,100,0.641476
256126,44784,2,EA,1,100,0.640289
256177,44784,2,EA,1,100,0.640152
256227,44802,2,EA,1,100,0.638591
256278,44802,2,EA,1,100,0.638309
256328,44820,2,EA,1,100,0.637766
256379,44820,2,EA,1,100,0.637693
256429,44838,2,EA,1,100,0.636797
256480,44838,2,EA,1,100,0.637103
256530,44856,2,EA,1,100,0.636940
256581,44856,2,EA,1,100,0.637969
256631,44874,2,EA,1,100,0.637623
256682,44874,2,EA,1,100,0.638026
256732,44893,2,EA,1,100,0.637518
256783,44893,2,EA,1,100,0.638507
256833,44911,2,EA,1,100,0.637178
256884,44911,2,EA,1,100,0.638096
256934,44929,2,EA,1,100,0.637887
256985,44929,2,EA,1,100,0.638900
257035,44947,2,EA,1,100,0.638253
257086,44947,2,EA,1,100,0.638229
257136,44965,2,EA,1,100,0.638056
257187,44965,2,EA,1,100,0.637230
257237,44983,2,EA,1,100,0.636340
257288,44983,2,EA,1,100,0.635880
257321,45001,3,EA,1,100,0.634912
257355,45001,3,EA,1,100,0.634569
257389,45001,3,EA,1,100,0.633508
257439,45019,2,EA,1,100,0.632148
257490,45019,2,EA,1,100,0.626289
257540,45038,2,EA,1,100,0.620230
257591,45038,2,EA,1,100,0.613739
257641,45057,2,EA,1,100,0.609952
257692,45057,2,EA,1,100,0.608143
257742,45076,2,EA,1,100,0.609944
257793,45076,2,EA,1,100,0.609900
257843,45094,2,EA,1,100,0.609154
257894,45094,2,EA,1,100,0.609136
257944,45112,2,EA,1,100,0.607658
257995,45112,2,EA,1,100,0.607638
258045,45130,2,EA,1,100,0.607308
258096,45130,2,EA,1,100,0.606752
258146,45148,2,EA,1,100,0.602534
258197,45148,2,EA,1,100,0.597205
258247,45168,2,EA,1,100,0.591760
258298,45168,2,EA,1,100,0.588642
258348,45187,2,EA,1,100,0.583486
258399,45187,2,EA,1,100,0.580586
258449,45206,2,EA,1,100,0.577162
258500,45206,2,EA,1,100,0.575736
258550,45225,2,EA,1,100,0.573139
258601,45225,2,EA,1,100,0.571949
258651,45243,2,EA,1,100,0.571427
258702,45243,2,EA,1,100,0.572968
258752,45261,2,EA,1,100,0.573782
258803,45261,2,EA,1,100,0.576036
258836,45279,3,EA,1,100,0.576978
258870,45279,3,EA,1,100,0.578429
258904,45279,3,EA,1,100,0.579345
258954,45297,2,EA,1,100,0.580418
259005,45297,2,EA,1,100,0.581409
259055,45316,2,EA,1,100,0.582479
259106,45316,2,EA,1,100,0.582791
259156,45334,2,EA,1,100,0.583949
259207,45334,2,EA,1,100,0.583297
259257,45352,2,EA,1,100,0.583069
259308,45352,2,EA,1,100,0.584018
259358,45370,2,EA,1,100,0.584155
259409,45370,2,EA,1,100,0.585541
259459,45388,2,EA,1,100,0.585746
259510,45388,2,EA,1,100,0.586104
259560,45406,2,EA,1,100,0.586348
259611,45406,2,EA,1,100,0.587037
259661,45424,2,EA,1,100,0.588117
259712,45424,2,EA,1,100,0.588965
259762,45443,2,EA,1,100,0.589488
259813,45443,2,EA,1,100,0.590526
259863,45461,2,EA,1,100,0.590362
259914,45461,2,EA,1,100,0.591649
259964,45479,2,EA,1,100,0.591839
260015,45479,2,EA,1,100,0.592383
260065,45497,2,EA,1,100,0.593045
260116,45497,2,EA,1,100,0.593712
260166,45515,2,EA,1,100,0.594193
260217,45515,2,EA,1,100,0.594318
260267,45533,2,EA,1,100,0.593629
260318,45533,2,EA,1,100,0.592143
260351,45551,3,EA,1,100,0.592300
260385,45551,3,EA,1,100,0.593380
260419,45551,3,EA,1,100,0.594203
260469,45570,2,EA,1,100,0.595110
260520,45570,2,EA,1,100,0.595845
260570,45588,2,EA,1,100,0.596179
260621,45588,2,EA,1,100,0.596709
260671,45606,2,EA,1,100,0.596574
260722,45606,2,EA,1,100,0.596860
260772,45624,2,EA,1,100,0.596906
260823,45624,2,EA,1,100,0.598059
260873,45642,2,EA,1,100,0.598620
260924,45642,2,EA,1,100,0.599335
260974,45660,2,EA,1,100,0.599279
261025,45660,2,EA,1,100,0.598931
261075,45678,2,EA,1,100,0.599372
261126,45678,2,EA,1,100,0.600490
261176,45696,2,EA,1,100,0.600681
261227,45696,2,EA,1,100,0.601044
261277,45715,2,EA,1,100,0.601201
261328,45715,2,EA,1,100,0.601106
261378,45733,2,EA,1,100,0.601334
261429,45733,2,EA,1,100,0.602542
261479,45751,2,EA,1,100,0.602635
261530,45751,2,EA,1,100,0.603366
261580,45769,2,EA,1,100,0.603346
261631,45769,2,EA,1,100,0.603456
261681,45787,2,EA,1,100,0.603386
261732,45787,2,EA,1,100,0.603839
261765,45805,3,EA,1,100,0.603573
261799,45805,3,EA,1,100,0.604526
261833,45805,3,EA,1,100,0.604276
261883,45823,2,EA,1,100,0.604802
261934,45823,2,EA,1,100,0.604530
261984,45842,2,EA,1,100,0.604556
262035,45842,2,EA,1,100,0.603724
262085,45860,2,EA,1,100,0.604147
262136,45860,2,EA,1,100,0.603160
262186,45878,2,EA,1,100,0.602371
262237,45878,2,EA,1,100,0.602570
262287,45896,2,EA,1,100,0.602143
262338,45896,2,EA,1,100,0.602689
262388,45914,2,EA,1,100,0.603259
262439,45914,2,EA,1,100,0.603602
262489,45932,2,EA,1,100,0.603031
262540,45932,2,EA,1,100,0.603712
262590,45950,2,EA,1,100,0.603082
262641,45950,2,EA,1,100,0.603698
262691,45968,2,EA,1,100,0.603444
262742,45968,2,EA,1,100,0.603342
262792,45987,2,EA,1,100,0.602810
262843,45987,2,EA,1,100,0.602508
262893,46005,2,EA,1,100,0.601368
262944,46005,2,EA,1,100,0.600407
262994,46023,2,EA,1,100,0.599914
263045,46023,2,EA,1,100,0.599636
263095,46041,2,EA,1,100,0.599227
263146,46041,2,EA,1,100,0.599497
263196,46059,2,EA,1,100,0.599130
263247,46059,2,EA,1,100,0.600020
263297,46077,2,EA,1,100,0.600139
263348,46077,2,EA,1,100,0.600758
263381,46095,3,EA,1,100,0.600834
263415,46095,3,EA,1,100,0.601183
263449,46095,3,EA,1,100,0.601464
263499,46114,2,EA,1,100,0.601285
263550,46114,2,EA,1,100,0.600629
263600,46132,2,EA,1,100,0.599060
263651,46132,2,EA,1,100,0.597928
263701,46150,2,EA,1,100,0.597662
263752,46150,2,EA,1,100,0.597398
263802,46168,2,EA,1,100,0.597255
263853,46168,2,EA,1,100,0.597734
263903,46186,2,EA,1,100,0.596961
263954,46186,2,EA,1,100,0.596518
264004,46204,2,EA,1,100,0.596191
264055,46204,2,EA,1,100,0.596240
264105,46222,2,EA,1,100,0.595432
264156,46222,2,EA,1,100,0.595535
264206,46241,2,EA,1,100,0.595166
264257,46241,2,EA,1,100,0.595277
264307,46259,2,EA,1,100,0.594864
264358,46259,2,EA,1,100,0.594935
264408,46277,2,EA,1,100,0.594030
264459,46277,2,EA,1,100,0.594222
264509,46295,2,EA,1,100,0.593694
264560,46295,2,EA,1,100,0.593903
264730,46331,2,EA,1,100,0.592451
264901,46331,2,EA,1,100,0.592753
264943,46350,4,EA,1,100,0.592743
264985,46350,4,EA,1,100,0.592514
265027,46350,4,EA,1,100,0.592741
265070,46350,4,EA,1,100,0.592697
265120,46368,2,EA,1,100,0.592721
265171,46368,2,EA,1,100,0.593229
265221,46386,2,EA,1,100,0.592902
265272,46386,2,EA,1,100,0.592987
265322,46404,2,EA,1,100,0.593404
265373,46404,2,EA,1,100,0.593621
265423,46422,2,EA,1,100,0.592862
265474,46422,2,EA,1,100,0.593333
265524,46440,2,EA,1,100,0.592665
265575,46440,2,EA,1,100,0.593275
265625,46458,2,EA,1,100,0.592959
265676,46458,2,EA,1,100,0.593011
265726,46477,2,EA,1,100,0.592647
265777,46477,2,EA,1,100,0.593382
265827,46495,2,EA,1,100,0.592949
265878,46495,2,EA,1,100,0.593204
265928,46513,2,EA,1,100,0.593378
265979,46513,2,EA,1,100,0.594048
266029,46531,2,EA,1,100,0.594085
266080,46531,2,EA,1,100,0.594006
266113,46549,3,EA,1,100,0.593940
266147,46549,3,EA,1,100,0.594254
266181,46549,3,EA,1,100,0.594211
266231,46567,2,EA,1,100,0.594874
266282,46567,2,EA,1,100,0.594556
266332,46585,2,EA,1,100,0.595402
266383,46585,2,EA,1,100,0.594564
266433,46604,2,EA,1,100,0.594495
266484,46604,2,EA,1,100,0.594671
266534,46622,2,EA,1,100,0.594397
266585,46622,2,EA,1,100,0.593915
266644,46643,3,EA,1,100,0.594157
266703,46643,3,EA,1,100,0.594075
266762,46643,3,EA,1,100,0.593662
266812,46663,2,EA,1,100,0.593748
266863,46663,2,EA,1,100,0.593406
266896,46681,3,EA,1,100,0.593581
266930,46681,3,EA,1,100,0.593090
266964,46681,3,EA,1,100,0.592298
267014,46699,2,EA,1,100,0.591952
267065,46699,2,EA,1,100,0.591178
267115,46717,2,EA,1,100,0.590505
267166,46717,2,EA,1,100,0.589750
267216,46736,2,EA,1,100,0.590381
267267,46736,2,EA,1,100,0.590221
267317,46754,2,EA,1,100,0.589964
267368,46754,2,EA,1,100,0.589444
267418,46772,2,EA,1,100,0.588957
267469,46772,2,EA,1,100,0.588699
267519,46790,2,EA,1,100,0.587847
267570,46790,2,EA,1,100,0.588282
267620,46808,2,EA,1,100,0.587494
267671,46808,2,EA,1,100,0.587134
267721,46826,2,EA,1,100,0.586904
267772,46826,2,EA,1,100,0.586527
267822,46844,2,EA,1,100,0.585377
267873,46844,2,EA,1,100,0.585335
267923,46863,2,EA,1,100,0.584463
267974,46863,2,EA,1,100,0.584515
268024,46881,2,EA,1,100,0.583806
268075,46881,2,EA,1,100,0.583982
268125,46899,2,EA,1,100,0.582926
268176,46899,2,EA,1,100,0.582249
268226,46917,2,EA,1,100,0.581317
268277,46917,2,EA,1,100,0.580068
268327,46935,2,EA,1,100,0.577540
268378,46935,2,EA,1,100,0.577061
268411,46953,3,EA,1,100,0.576370
268445,46953,3,EA,1,100,0.576118
268479,46953,3,EA,1,100,0.575611
268529,46971,2,EA,1,100,0.575121
268580,46971,2,EA,1,100,0.574998
268630,46989,2,EA,1,100,0.574279
268681,46989,2,EA,1,100,0.573355
268731,47008,2,EA,1,100,0.573333
268782,47008,2,EA,1,100,0.572962
268832,47026,2,EA,1,100,0.572525
268883,47026,2,EA,1,100,0.571760
268933,47044,2,EA,1,100,0.571103
268984,47044,2,EA,1,100,0.571391
269034,47062,2,EA,1,100,0.570783
269085,47062,2,EA,1,100,0.571754
269135,47080,2,EA,1,100,0.571530
269186,47080,2,EA,1,100,0.572291
269236,47098,2,EA,1,100,0.571830
269287,47098,2,EA,1,100,0.572928
269337,47116,2,EA,1,100,0.572642
269388,47116,2,EA,1,100,0.572434
269438,47135,2,EA,1,100,0.572185
269489,47135,2,EA,1,100,0.572593
269539,47153,2,EA,1,100,0.572867
269590,47153,2,EA,1,100,0.572668
269640,47171,2,EA,1,100,0.572062
269691,47171,2,EA,1,100,0.572118
269741,47189,2,EA,1,100,0.571266
269792,47189,2,EA,1,100,0.570747
269842,47207,2,EA,1,100,0.569681
269893,47207,2,EA,1,100,0.568686
269943,47225,2,EA,1,100,0.566980
269994,47225,2,EA,1,100,0.565451
270027,47243,3,EA,1,100,0.563943
270061,47243,3,EA,1,100,0.563479
270095,47243,3,EA,1,100,0.562231
270146,47262,2,EA,1,100,0.562021
270197,47262,2,EA,1,100,0.560142
270247,47280,2,EA,1,100,0.559719
270298,47280,2,EA,1,100,0.559046
270348,47298,2,EA,1,100,0.558613
270399,47298,2,EA,1,100,0.558458
270449,47316,2,EA,1,100,0.557683
270500,47316,2,EA,1,100,0.556980
270550,47334,2,EA,1,100,0.556214
270601,47334,2,EA,1,100,0.554724
270651,47352,2,EA,1,100,0.552514
270702,47352,2,EA,1,100,0.550893
270752,47370,2,EA,1,100,0.549263
270803,47370,2,EA,1,100,0.547257
270853,47388,2,EA,1,100,0.544969
270904,47388,2,EA,1,100,0.543934
270954,47407,2,EA,1,100,0.542806
271005,47407,2,EA,1,100,0.542673
271055,47425,2,EA,1,100,0.542152
271106,47425,2,EA,1,100,0.541205
271156,47443,2,EA,1,100,0.540542
271207,47443,2,EA,1,100,0.540260
271257,47461,2,EA,1,100,0.539062
271308,47461,2,EA,1,100,0.538578
271358,47479,2,EA,1,100,0.536449
271409,47479,2,EA,1,100,0.534324
271442,47497,3,EA,1,100,0.532763
271476,47497,3,EA,1,100,0.531247
271510,47497,3,EA,1,100,0.531199
271560,47515,2,EA,1,100,0.531408
271611,47515,2,EA,1,100,0.531011
271661,47534,2,EA,1,100,0.531845
271712,47534,2,EA,1,100,0.532282
271762,47552,2,EA,1,100,0.532336
271813,47552,2,EA,1,100,0.531893
271863,47570,2,EA,1,100,0.531660
271914,47570,2,EA,1,100,0.531940
271964,47588,2,EA,1,100,0.531142
272015,47588,2,EA,1,100,0.531718
272065,47606,2,EA,1,100,0.531738
272116,47606,2,EA,1,100,0.532383
272166,47624,2,EA,1,100,0.533007
272217,47624,2,EA,1,100,0.533847
272267,47642,2,EA,1,100,0.533662
272318,47642,2,EA,1,100,0.534675
272368,47660,2,EA,1,100,0.534308
272419,47660,2,EA,1,100,0.534999
272469,47679,2,EA,1,100,0.535269
272520,47679,2,EA,1,100,0.535785
272570,47697,2,EA,1,100,0.535537
272621,47697,2,EA,1,100,0.536870
272671,47715,2,EA,1,100,0.536651
272722,47715,2,EA,1,100,0.536959
272772,47733,2,EA,1,100,0.537364
272823,47733,2,EA,1,100,0.537569
272873,47751,2,EA,1,100,0.537219
272924,47751,2,EA,1,100,0.537819
272957,47769,3,EA,1,100,0.537283
272991,47769,3,EA,1,100,0.537539
273025,47769,3,EA,1,100,0.537328
273075,47787,2,EA,1,100,0.537728
273126,47787,2,EA,1,100,0.536893
273176,47806,2,EA,1,100,0.537434
273227,47806,2,EA,1,100,0.537936
273277,47824,2,EA,1,100,0.538522
273328,47824,2,EA,1,100,0.539791
273378,47842,2,EA,1,100,0.540045
273429,47842,2,EA,1,100,0.541229
273479,47860,2,EA,1,100,0.541328
273530,47860,2,EA,1,100,0.542117
273580,47878,2,EA,1,100,0.541606
273631,47878,2,EA,1,100,0.542726
273681,47896,2,EA,1,100,0.542522
273732,47896,2,EA,1,100,0.542744
273782,47914,2,EA,1,100,0.543185
273833,47914,2,EA,1,100,0.543586
273883,47933,2,EA,1,100,0.543306
273934,47933,2,EA,1,100,0.544433
273984,47951,2,EA,1,100,0.544490
274035,47951,2,EA,1,100,0.545128
274085,47969,2,EA,1,100,0.545481
274136,47969,2,EA,1,100,0.546391
274186,47987,2,EA,1,100,0.546440
274237,47987,2,EA,1,100,0.547187
274287,48005,2,EA,1,100,0.547501
274338,48005,2,EA,1,100,0.547960
274388,48023,2,EA,1,100,0.547789
274439,48023,2,EA,1,100,0.548625
274489,48041,2,EA,1,100,0.548651
274540,48041,2,EA,1,100,0.550003
274573,48059,3,EA,1,100,0.549602
274607,48059,3,EA,1,100,0.550115
274641,48059,3,EA,1,100,0.550158
274691,48078,2,EA,1,100,0.550708
274742,48078,2,EA,1,100,0.551133
274792,48096,2,EA,1,100,0.551529
274843,48096,2,EA,1,100,0.551388
274893,48114,2,EA,1,100,0.551608
274944,48114,2,EA,1,100,0.551193
274994,48132,2,EA,1,100,0.550696
275045,48132,2,EA,1,100,0.550273
275095,48150,2,EA,1,100,0.550279
275146,48150,2,EA,1,100,0.550534
275196,48168,2,EA,1,100,0.550774
275247,48168,2,EA,1,100,0.552045
275297,48186,2,EA,1,100,0.552063
275348,48186,2,EA,1,100,0.552633
275398,48205,2,EA,1,100,0.552949
275449,48205,2,EA,1,100,0.553193
275499,48223,2,EA,1,100,0.553056
275550,48223,2,EA,1,100,0.553749
275600,48241,2,EA,1,100,0.553749
275651,48241,2,EA,1,100,0.554432
275701,48259,2,EA,1,100,0.555149
275752,48259,2,EA,1,100,0.555971
275802,48277,2,EA,1,100,0.555300
275853,48277,2,EA,1,100,0.556073
275903,48295,2,EA,1,100,0.555860
275954,48295,2,EA,1,100,0.556804
275987,48313,3,EA,1,100,0.556851
276021,48313,3,EA,1,100,0.557507
276055,48313,3,EA,1,100,0.557534
276105,48332,2,EA,1,100,0.558152
276156,48332,2,EA,1,100,0.557598
276206,48350,2,EA,1,100,0.557791
276257,48350,2,EA,1,100,0.557759
276307,48368,2,EA,1,100,0.557949
276358,48368,2,EA,1,100,0.557342
276409,48386,2,EA,1,100,0.557493
276460,48386,2,EA,1,100,0.557618
276510,48404,2,EA,1,100,0.557608
276561,48404,2,EA,1,100,0.558676
276611,48422,2,EA,1,100,0.557687
276662,48422,2,EA,1,100,0.557667
276712,48440,2,EA,1,100,0.557185
276763,48440,2,EA,1,100,0.557022
276813,48458,2,EA,1,100,0.556911
276864,48458,2,EA,1,100,0.557727
276914,48477,2,EA,1,100,0.556954
276965,48477,2,EA,1,100,0.557516
277015,48495,2,EA,1,100,0.557463
277066,48495,2,EA,1,100,0.558253
277116,48513,2,EA,1,100,0.558595
277167,48513,2,EA,1,100,0.559592
277217,48531,2,EA,1,100,0.559757
277268,48531,2,EA,1,100,0.560128
277318,48549,2,EA,1,100,0.560454
277369,48549,2,EA,1,100,0.560637
277419,48567,2,EA,1,100,0.559993
277470,48567,2,EA,1,100,0.560684
277515,48588,4,EA,1,100,0.560186
277560,48588,4,EA,1,100,0.560134
277605,48588,4,EA,1,100,0.559769
277650,48588,4,EA,1,100,0.559465
277700,48609,2,EA,1,100,0.559213
277751,48609,2,EA,1,100,0.559270
277801,48627,2,EA,1,100,0.559107
277852,48627,2,EA,1,100,0.558859
277902,48645,2,EA,1,100,0.558305
277953,48645,2,EA,1,100,0.557499
278003,48663,2,EA,1,100,0.555477
278054,48663,2,EA,1,100,0.552238
278104,48681,2,EA,1,100,0.548641
278155,48681,2,EA,1,100,0.545437
278188,48699,3,EA,1,100,0.545163
278222,48699,3,EA,1,100,0.544160
278256,48699,3,EA,1,100,0.541481
278306,48717,2,EA,1,100,0.538556
278357,48717,2,EA,1,100,0.534101
278407,48737,2,EA,1,100,0.531521
278458,48737,2,EA,1,100,0.528338
278508,48756,2,EA,1,100,0.524793
278559,48756,2,EA,1,100,0.521692
278609,48775,2,EA,1,100,0.518751
278660,48775,2,EA,1,100,0.516374
278710,48794,2,EA,1,100,0.515031
278761,48794,2,EA,1,100,0.517387
278811,48813,2,EA,1,100,0.521079
278862,48813,2,EA,1,100,0.525472
278912,48831,2,EA,1,100,0.528469
278963,48831,2,EA,1,100,0.531644
279013,48849,2,EA,1,100,0.533620
279064,48849,2,EA,1,100,0.536637
279114,48868,2,EA,1,100,0.538278
279165,48868,2,EA,1,100,0.539718
279215,48886,2,EA,1,100,0.541360
279266,48886,2,EA,1,100,0.543358
279316,48904,2,EA,1,100,0.544077
279367,48904,2,EA,1,100,0.545666
279417,48922,2,EA,1,100,0.546631
279468,48922,2,EA,1,100,0.548077
279518,48940,2,EA,1,100,0.549161
279569,48940,2,EA,1,100,0.550156
279619,48958,2,EA,1,100,0.550861
279670,48958,2,EA,1,100,0.553113
279720,48976,2,EA,1,100,0.553338
279771,48976,2,EA,1,100,0.553940
279804,48994,3,EA,1,100,0.554815
279838,48994,3,EA,1,100,0.555747
279872,48994,3,EA,1,100,0.555993
279922,49013,2,EA,1,100,0.557032
279973,49013,2,EA,1,100,0.557145
280023,49031,2,EA,1,100,0.557459
280074,49031,2,EA,1,100,0.557765
280124,49049,2,EA,1,100,0.558474
280175,49049,2,EA,1,100,0.558130
280225,49067,2,EA,1,100,0.558194
280276,49067,2,EA,1,100,0.558309
280326,49085,2,EA,1,100,0.558025
280377,49085,2,EA,1,100,0.557920
280427,49103,2,EA,1,100,0.557512
280478,49103,2,EA,1,100,0.558212
280528,49121,2,EA,1,100,0.557991
280579,49121,2,EA,1,100,0.558172
280629,49140,2,EA,1,100,0.559318
280680,49140,2,EA,1,100,0.560231
280730,49158,2,EA,1,100,0.560505
280781,49158,2,EA,1,100,0.561175
280831,49176,2,EA,1,100,0.561647
280882,49176,2,EA,1,100,0.561663
280932,49194,2,EA,1,100,0.561914
280983,49194,2,EA,1,100,0.562567
281033,49212,2,EA,1,100,0.562329
281084,49212,2,EA,1,100,0.563538
281134,49230,2,EA,1,100,0.563560
281185,49230,2,EA,1,100,0.564476
281235,49248,2,EA,1,100,0.565578
281286,49248,2,EA,1,100,0.566273
281319,49267,3,EA,1,100,0.567081
281353,49267,3,EA,1,100,0.568626
281387,49267,3,EA,1,100,0.568835
281437,49285,2,EA,1,100,0.569870
281488,49285,2,EA,1,100,0.570885
281538,49303,2,EA,1,100,0.571889
281589,49303,2,EA,1,100,0.572213
281639,49321,2,EA,1,100,0.573510
281690,49321,2,EA,1,100,0.574158
281740,49339,2,EA,1,100,0.574563
281791,49339,2,EA,1,100,0.575748
281841,49357,2,EA,1,100,0.576110
281892,49357,2,EA,1,100,0.576636
281942,49375,2,EA,1,100,0.577280
281993,49375,2,EA,1,100,0.577977
282043,49393,2,EA,1,100,0.578519
282094,49393,2,EA,1,100,0.579246
282144,49412,2,EA,1,100,0.579367
282195,49412,2,EA,1,100,0.579881
282245,49430,2,EA,1,100,0.580135
282296,49430,2,EA,1,100,0.580793
282346,49448,2,EA,1,100,0.581023
282397,49448,2,EA,1,100,0.581659
282447,49466,2,EA,1,100,0.581559
282498,49466,2,EA,1,100,0.581990
282548,49484,2,EA,1,100,0.582129
282599,49484,2,EA,1,100,0.581820
282649,49502,2,EA,1,100,0.581641
282700,49502,2,EA,1,100,0.582274
282750,49520,2,EA,1,100,0.581804
282801,49520,2,EA,1,100,0.581889
282834,49539,3,EA,1,100,0.581915
282868,49539,3,EA,1,100,0.582116
282902,49539,3,EA,1,100,0.581836
282952,49557,2,EA,1,100,0.582235
283003,49557,2,EA,1,100,0.582028
283053,49575,2,EA,1,100,0.582368
283104,49575,2,EA,1,100,0.582459
283154,49593,2,EA,1,100,0.582654
283205,49593,2,EA,1,100,0.582960
283255,49611,2,EA,1,100,0.583059
283306,49611,2,EA,1,100,0.583764
283356,49629,2,EA,1,100,0.583905
283407,49629,2,EA,1,100,0.584388
283457,49647,2,EA,1,100,0.584219
283508,49647,2,EA,1,100,0.584624
283558,49665,2,EA,1,100,0.584048
283609,49665,2,EA,1,100,0.584419
283659,49684,2,EA,1,100,0.583992
283710,49684,2,EA,1,100,0.584505
283760,49702,2,EA,1,100,0.584527
283811,49702,2,EA,1,100,0.584455
283861,49720,2,EA,1,100,0.584688
283912,49720,2,EA,1,100,0.584765
283962,49738,2,EA,1,100,0.584652
284013,49738,2,EA,1,100,0.585244
284063,49756,2,EA,1,100,0.584344
284114,49756,2,EA,1,100,0.584725
284164,49774,2,EA,1,100,0.584687
284215,49774,2,EA,1,100,0.584237
284265,49792,2,EA,1,100,0.583190
284316,49792,2,EA,1,100,0.582537
284366,49811,2,EA,1,100,0.581573
284417,49811,2,EA,1,100,0.580952
284450,49829,3,EA,1,100,0.581224
284484,49829,3,EA,1,100,0.583093
284518,49829,3,EA,1,100,0.583236
284568,49847,2,EA,1,100,0.583967
284619,49847,2,EA,1,100,0.584155
284669,49865,2,EA,1,100,0.584699
284720,49865,2,EA,1,100,0.584771
284770,49883,2,EA,1,100,0.584844
284821,49883,2,EA,1,100,0.585134
284871,49901,2,EA,1,100,0.585238
284922,49901,2,EA,1,100,0.585827
284972,49919,2,EA,1,100,0.585720
285023,49919,2,EA,1,100,0.586310
285073,49938,2,EA,1,100,0.586272
285124,49938,2,EA,1,100,0.586384
285174,49956,2,EA,1,100,0.585758
285225,49956,2,EA,1,100,0.586451
285275,49974,2,EA,1,100,0.586080
285326,49974,2,EA,1,100,0.586711
285376,49992,2,EA,1,100,0.586618
285427,49992,2,EA,1,100,0.586334
285477,50010,2,EA,1,100,0.586399
285528,50010,2,EA,1,100,0.586701
285578,50028,2,EA,1,100,0.586137
285629,50028,2,EA,1,100,0.586481
285679,50046,2,EA,1,100,0.585972
285730,50046,2,EA,1,100,0.585790
285780,50064,2,EA,1,100,0.585212
285831,50064,2,EA,1,100,0.585841
285864,50083,3,EA,1,100,0.585706
285898,50083,3,EA,1,100,0.586324
285932,50083,3,EA,1,100,0.585762
285982,50101,2,EA,1,100,0.586016
286033,50101,2,EA,1,100,0.585510
286083,50119,2,EA,1,100,0.584817
286134,50119,2,EA,1,100,0.585015
286184,50137,2,EA,1,100,0.585099
286235,50137,2,EA,1,100,0.585391
286285,50155,2,EA,1,100,0.585524
286336,50155,2,EA,1,100,0.585396
286386,50173,2,EA,1,100,0.585577
286437,50173,2,EA,1,100,0.586127
286487,50191,2,EA,1,100,0.585899
286538,50191,2,EA,1,100,0.585925
286588,50210,2,EA,1,100,0.585829
286639,50210,2,EA,1,100,0.585961
286689,50228,2,EA,1,100,0.586360
286740,50228,2,EA,1,100,0.586769
286790,50246,2,EA,1,100,0.585845
286841,50246,2,EA,1,100,0.586668
286891,50264,2,EA,1,100,0.586260
286942,50264,2,EA,1,100,0.586888
286992,50282,2,EA,1,100,0.586538
287043,50282,2,EA,1,100,0.586479
287093,50300,2,EA,1,100,0.586676
287144,50300,2,EA,1,100,0.587097
287194,50318,2,EA,1,100,0.586533
287245,50318,2,EA,1,100,0.587063
287295,50336,2,EA,1,100,0.586975
287346,50336,2,EA,1,100,0.587583
287396,50355,2,EA,1,100,0.587530
287447,50355,2,EA,1,100,0.588163
287480,50373,3,EA,1,100,0.588179
287514,50373,3,EA,1,100,0.588395
287548,50373,3,EA,1,100,0.587994
287598,50391,2,EA,1,100,0.588223
287649,50391,2,EA,1,100,0.587627
287699,50409,2,EA,1,100,0.587520
287750,50409,2,EA,1,100,0.586217
287800,50427,2,EA,1,100,0.585442
287851,50427,2,EA,1,100,0.584678
287901,50445,2,EA,1,100,0.583605
287952,50445,2,EA,1,100,0.582354
288002,50463,2,EA,1,100,0.582306
288053,50463,2,EA,1,100,0.584471
288103,50482,2,EA,1,100,0.584944
288154,50482,2,EA,1,100,0.586203
288204,50500,2,EA,1,100,0.586350
288255,50500,2,EA,1,100,0.587359
288305,50518,2,EA,1,100,0.587198
288356,50518,2,EA,1,100,0.587752
288401,50539,4,EA,1,100,0.588290
288447,50539,4,EA,1,100,0.588928
288492,50539,4,EA,1,100,0.589152
288538,50539,4,EA,1,100,0.589388
288588,50559,2,EA,1,100,0.589901
288639,50559,2,EA,1,100,0.590207
288689,50577,2,EA,1,100,0.590179
288740,50577,2,EA,1,100,0.590747
288790,50596,2,EA,1,100,0.590568
288841,50596,2,EA,1,100,0.591339
288891,50614,2,EA,1,100,0.591277
288942,50614,2,EA,1,100,0.591788
288992,50632,2,EA,1,100,0.591541
289043,50632,2,EA,1,100,0.592270
289093,50650,2,EA,1,100,0.591982
289144,50650,2,EA,1,100,0.593146
289194,50668,2,EA,1,100,0.592640
289245,50668,2,EA,1,100,0.592733
289295,50686,2,EA,1,100,0.592870
289346,50686,2,EA,1,100,0.593063
289396,50704,2,EA,1,100,0.592989
289447,50704,2,EA,1,100,0.593722
289497,50722,2,EA,1,100,0.593122
289548,50722,2,EA,1,100,0.593641
289598,50741,2,EA,1,100,0.593879
289649,50741,2,EA,1,100,0.594332
289682,50759,3,EA,1,100,0.593712
289716,50759,3,EA,1,100,0.594677
289750,50759,3,EA,1,100,0.594483
289800,50777,2,EA,1,100,0.595009
289851,50777,2,EA,1,100,0.594568
289901,50795,2,EA,1,100,0.595116
289952,50795,2,EA,1,100,0.595613
290002,50813,2,EA,1,100,0.595652
290053,50813,2,EA,1,100,0.596081
290103,50831,2,EA,1,100,0.595809
290154,50831,2,EA,1,100,0.596741
290204,50849,2,EA,1,100,0.596792
290255,50849,2,EA,1,100,0.597039
290305,50868,2,EA,1,100,0.596989
290356,50868,2,EA,1,100,0.597756
290406,50886,2,EA,1,100,0.597251
290457,50886,2,EA,1,100,0.598334
290507,50904,2,EA,1,100,0.597493
290558,50904,2,EA,1,100,0.597756
290601,50922,5,EA,1,100,0.597698
290645,50922,5,EA,1,100,0.598214
290689,50922,5,EA,1,100,0.598026
290733,50922,5,EA,1,100,0.598048
290777,50922,5,EA,1,100,0.598441
290829,50940,2,EA,1,100,0.598427
290882,50940,2,EA,1,100,0.598949
290932,50958,2,EA,1,100,0.598894
290983,50958,2,EA,1,100,0.598828
291033,50977,2,EA,1,100,0.598810
291084,50977,2,EA,1,100,0.598900
291134,50995,2,EA,1,100,0.598786
291185,50995,2,EA,1,100,0.599601
291235,51013,2,EA,1,100,0.599058
291286,51013,2,EA,1,100,0.599404
291336,51031,2,EA,1,100,0.599094
291387,51031,2,EA,1,100,0.599621
291437,51049,2,EA,1,100,0.599404
291488,51049,2,EA,1,100,0.599638
291538,51067,2,EA,1,100,0.599438
291589,51067,2,EA,1,100,0.600183
291639,51085,2,EA,1,100,0.599527
291690,51085,2,EA,1,100,0.599861
291740,51103,2,EA,1,100,0.599366
291791,51103,2,EA,1,100,0.600047
291841,51122,2,EA,1,100,0.599352
291892,51122,2,EA,1,100,0.599754
291942,51140,2,EA,1,100,0.599217
291993,51140,2,EA,1,100,0.599366
292026,51158,3,EA,1,100,0.599227
292060,51158,3,EA,1,100,0.599944
292094,51158,3,EA,1,100,0.599986
292144,51176,2,EA,1,100,0.600089
292195,51176,2,EA,1,100,0.599736
292245,51194,2,EA,1,100,0.600105
292296,51194,2,EA,1,100,0.599889
292346,51212,2,EA,1,100,0.600190
292397,51212,2,EA,1,100,0.599885
292447,51230,2,EA,1,100,0.600091
292498,51230,2,EA,1,100,0.600397
292548,51249,2,EA,1,100,0.600433
292599,51249,2,EA,1,100,0.600747
292649,51267,2,EA,1,100,0.600494
292700,51267,2,EA,1,100,0.600955
292750,51285,2,EA,1,100,0.601237
292801,51285,2,EA,1,100,0.601698
292851,51303,2,EA,1,100,0.601342
292902,51303,2,EA,1,100,0.602226
292952,51321,2,EA,1,100,0.602212
293003,51321,2,EA,1,100,0.602208
293053,51339,2,EA,1,100,0.602574
293104,51339,2,EA,1,100,0.602822
293154,51357,2,EA,1,100,0.602796
293205,51357,2,EA,1,100,0.603269
293255,51376,2,EA,1,100,0.602951
293306,51376,2,EA,1,100,0.603656
293356,51394,2,EA,1,100,0.603324
293407,51394,2,EA,1,100,0.603475
293440,51412,3,EA,1,100,0.603096
293474,51412,3,EA,1,100,0.603718
293508,51412,3,EA,1,100,0.603688
293558,51430,2,EA,1,100,0.604071
293609,51430,2,EA,1,100,0.603753
293659,51448,2,EA,1,100,0.603859
293710,51448,2,EA,1,100,0.603432
293760,51466,2,EA,1,100,0.603952
293811,51466,2,EA,1,100,0.602971
293861,51484,2,EA,1,100,0.602345
293912,51484,2,EA,1,100,0.602333
293962,51502,2,EA,1,100,0.601740
294013,51502,2,EA,1,100,0.601086
294063,51521,2,EA,1,100,0.600870
294114,51521,2,EA,1,100,0.601382
294164,51539,2,EA,1,100,0.600639
294215,51539,2,EA,1,100,0.601110
294265,51557,2,EA,1,100,0.600498
294316,51557,2,EA,1,100,0.600997
294366,51575,2,EA,1,100,0.601380
294417,51575,2,EA,1,100,0.601922
294467,51593,2,EA,1,100,0.602157
294518,51593,2,EA,1,100,0.603052
294568,51611,2,EA,1,100,0.603007
294619,51611,2,EA,1,100,0.603990
294669,51629,2,EA,1,100,0.604298
294720,51629,2,EA,1,100,0.604703
294770,51648,2,EA,1,100,0.604746
294821,51648,2,EA,1,100,0.605136
294871,51666,2,EA,1,100,0.605309
294922,51666,2,EA,1,100,0.606101
294955,51684,3,EA,1,100,0.605920
294989,51684,3,EA,1,100,0.605835
295023,51684,3,EA,1,100,0.605837
295073,51702,2,EA,1,100,0.606683
295124,51702,2,EA,1,100,0.606435
295174,51720,2,EA,1,100,0.606899
295225,51720,2,EA,1,100,0.606798
295275,51738,2,EA,1,100,0.606834
295326,51738,2,EA,1,100,0.607136
295376,51756,2,EA,1,100,0.607124
295427,51756,2,EA,1,100,0.607743
295477,51774,2,EA,1,100,0.607046
295528,51774,2,EA,1,100,0.607424
295578,51793,2,EA,1,100,0.607102
295629,51793,2,EA,1,100,0.607442
295679,51811,2,EA,1,100,0.607221
295730,51811,2,EA,1,100,0.607451
295780,51829,2,EA,1,100,0.607003
295831,51829,2,EA,1,100,0.607326
295881,51847,2,EA,1,100,0.607440
295932,51847,2,EA,1,100,0.607287
295982,51865,2,EA,1,100,0.607040
296033,51865,2,EA,1,100,0.607287
296083,51883,2,EA,1,100,0.606727
296134,51883,2,EA,1,100,0.607134
296184,51901,2,EA,1,100,0.606850
296235,51901,2,EA,1,100,0.607179
296285,51920,2,EA,1,100,0.607402
296336,51920,2,EA,1,100,0.607364
296386,51938,2,EA,1,100,0.607517
296437,51938,2,EA,1,100,0.608192
296487,51956,2,EA,1,100,0.608027
296538,51956,2,EA,1,100,0.608333
296571,51974,3,EA,1,100,0.608361
296605,51974,3,EA,1,100,0.608818
296639,51974,3,EA,1,100,0.608593
296689,51992,2,EA,1,100,0.608923
296740,51992,2,EA,1,100,0.608572
296790,52010,2,EA,1,100,0.608830
296841,52010,2,EA,1,100,0.609006
296891,52028,2,EA,1,100,0.609227
296942,52028,2,EA,1,100,0.609400
296992,52047,2,EA,1,100,0.609771
297043,52047,2,EA,1,100,0.609956
297093,52065,2,EA,1,100,0.609420
297144,52065,2,EA,1,100,0.610343
297194,52083,2,EA,1,100,0.610059
297245,52083,2,EA,1,100,0.610228
297295,52101,2,EA,1,100,0.610073
297346,52101,2,EA,1,100,0.610522
297396,52119,2,EA,1,100,0.610482
297447,52119,2,EA,1,100,0.610675
297497,52137,2,EA,1,100,0.610438
297548,52137,2,EA,1,100,0.610427
297598,52155,2,EA,1,100,0.610444
297649,52155,2,EA,1,100,0.610913
297699,52173,2,EA,1,100,0.610133
297750,52173,2,EA,1,100,0.611074
297800,52192,2,EA,1,100,0.610891
297851,52192,2,EA,1,100,0.611098
297901,52210,2,EA,1,100,0.610788
297952,52210,2,EA,1,100,0.611537
297985,52228,3,EA,1,100,0.610897
298019,52228,3,EA,1,100,0.611344
298053,52228,3,EA,1,100,0.610931
298103,52246,2,EA,1,100,0.610959
298154,52246,2,EA,1,100,0.610796
298204,52264,2,EA,1,100,0.610399
298255,52264,2,EA,1,100,0.610051
298305,52282,2,EA,1,100,0.610174
298356,52282,2,EA,1,100,0.609972
298406,52300,2,EA,1,100,0.609499
298457,52300,2,EA,1,100,0.609541
298507,52319,2,EA,1,100,0.608850
298558,52319,2,EA,1,100,0.608506
298608,52337,2,EA,1,100,0.607837
298659,52337,2,EA,1,100,0.607902
298709,52355,2,EA,1,100,0.607666
298760,52355,2,EA,1,100,0.608301
298810,52373,2,EA,1,100,0.607805
298861,52373,2,EA,1,100,0.608740
298911,52391,2,EA,1,100,0.608365
298962,52391,2,EA,1,100,0.608687
299012,52409,2,EA,1,100,0.608258
299063,52409,2,EA,1,100,0.608532
299113,52427,2,EA,1,100,0.608629
299164,52427,2,EA,1,100,0.608693
299214,52445,2,EA,1,100,0.608587
299265,52445,2,EA,1,100,0.609076
299318,52467,3,EA,1,100,0.608784
299372,52467,3,EA,1,100,0.608760
299426,52467,3,EA,1,100,0.608345
299459,52487,3,EA,1,100,0.608683
299493,52487,3,EA,1,100,0.608750
299527,52487,3,EA,1,100,0.609420
299577,52505,2,EA,1,100,0.609104
299628,52505,2,EA,1,100,0.609197
299678,52523,2,EA,1,100,0.609626
299729,52523,2,EA,1,100,0.608790
299779,52541,2,EA,1,100,0.608965
299830,52541,2,EA,1,100,0.609694
299880,52559,2,EA,1,100,0.609179
299931,52559,2,EA,1,100,0.609702
299981,52578,2,EA,1,100,0.609533
300032,52578,2,EA,1,100,0.609660
300082,52596,2,EA,1,100,0.609656
300133,52596,2,EA,1,100,0.610045
300183,52614,2,EA,1,100,0.608707
300234,52614,2,EA,1,100,0.608488
300284,52632,2,EA,1,100,0.607348
300335,52632,2,EA,1,100,0.606470
300385,52650,2,EA,1,100,0.606153
300436,52650,2,EA,1,100,0.606870
300486,52668,2,EA,1,100,0.606808
300537,52668,2,EA,1,100,0.607163
300587,52686,2,EA,1,100,0.607090
300638,52686,2,EA,1,100,0.607803
300688,52704,2,EA,1,100,0.607610
300739,52704,2,EA,1,100,0.607857
300772,52723,3,EA,1,100,0.607861
300806,52723,3,EA,1,100,0.608464
300840,52723,3,EA,1,100,0.607890
300890,52741,2,EA,1,100,0.607892
300941,52741,2,EA,1,100,0.607980
300991,52759,2,EA,1,100,0.607936
301042,52759,2,EA,1,100,0.607753
301092,52777,2,EA,1,100,0.607938
301143,52777,2,EA,1,100,0.608089
301193,52795,2,EA,1,100,0.608337
301244,52795,2,EA,1,100,0.608490
301294,52813,2,EA,1,100,0.608593
301345,52813,2,EA,1,100,0.608913
301395,52831,2,EA,1,100,0.608627
301446,52831,2,EA,1,100,0.609215
301496,52850,2,EA,1,100,0.609183
301547,52850,2,EA,1,100,0.609106
301597,52868,2,EA,1,100,0.608901
301648,52868,2,EA,1,100,0.609090
301698,52886,2,EA,1,100,0.609451
301749,52886,2,EA,1,100,0.609696
301799,52904,2,EA,1,100,0.609116
301850,52904,2,EA,1,100,0.609777
301900,52922,2,EA,1,100,0.609845
301951,52922,2,EA,1,100,0.610264
302001,52940,2,EA,1,100,0.609833
302052,52940,2,EA,1,100,0.610466
302102,52958,2,EA,1,100,0.610119
302153,52958,2,EA,1,100,0.610917
302203,52977,2,EA,1,100,0.609914
302254,52977,2,EA,1,100,0.610212
302304,52995,2,EA,1,100,0.609900
302355,52995,2,EA,1,100,0.609837
302388,53013,3,EA,1,100,0.609430
302422,53013,3,EA,1,100,0.609445
302456,53013,3,EA,1,100,0.609430
302506,53031,2,EA,1,100,0.609741
302557,53031,2,EA,1,100,0.609569
302607,53049,2,EA,1,100,0.609447
302658,53049,2,EA,1,100,0.609614
302708,53067,2,EA,1,100,0.609656
302759,53067,2,EA,1,100,0.609725
302809,53085,2,EA,1,100,0.609433
302860,53085,2,EA,1,100,0.609519
302910,53103,2,EA,1,100,0.609003
302961,53103,2,EA,1,100,0.609314
303011,53122,2,EA,1,100,0.608772
303062,53122,2,EA,1,100,0.609298
303112,53140,2,EA,1,100,0.608516
303163,53140,2,EA,1,100,0.609038
303213,53158,2,EA,1,100,0.608510
303264,53158,2,EA,1,100,0.608983
303314,53176,2,EA,1,100,0.608641
303365,53176,2,EA,1,100,0.609020
303415,53194,2,EA,1,100,0.608587
303466,53194,2,EA,1,100,0.608387
303516,53212,2,EA,1,100,0.608579
303567,53212,2,EA,1,100,0.608931
303617,53230,2,EA,1,100,0.608560
303668,53230,2,EA,1,100,0.609076
303718,53249,2,EA,1,100,0.608812
303769,53249,2,EA,1,100,0.609612
303802,53267,3,EA,1,100,0.608973
303836,53267,3,EA,1,100,0.609725
303870,53267,3,EA,1,100,0.609340
303920,53285,2,EA,1,100,0.610107
303971,53285,2,EA,1,100,0.609455
304021,53303,2,EA,1,100,0.609346
304072,53303,2,EA,1,100,0.609066
304122,53321,2,EA,1,100,0.609211
304173,53321,2,EA,1,100,0.608377
304223,53339,2,EA,1,100,0.608504
304274,53339,2,EA,1,100,0.608607
304324,53357,2,EA,1,100,0.608770
304375,53357,2,EA,1,100,0.608935
304425,53375,2,EA,1,100,0.608419
304476,53375,2,EA,1,100,0.609485
304526,53394,2,EA,1,100,0.609289
304577,53394,2,EA,1,100,0.609628
304627,53412,2,EA,1,100,0.608677
304678,53412,2,EA,1,100,0.609175
304728,53430,2,EA,1,100,0.608699
304779,53430,2,EA,1,100,0.609207
304829,53448,2,EA,1,100,0.608548
304880,53448,2,EA,1,100,0.608939
304930,53466,2,EA,1,100,0.609096
304981,53466,2,EA,1,100,0.609197
305031,53484,2,EA,1,100,0.609090
305082,53484,2,EA,1,100,0.609755
305132,53502,2,EA,1,100,0.608931
305183,53502,2,EA,1,100,0.609463
305233,53521,2,EA,1,100,0.609678
305284,53521,2,EA,1,100,0.609880
305317,53539,3,EA,1,100,0.609596
305351,53539,3,EA,1,100,0.609694
305385,53539,3,EA,1,100,0.609447
305435,53557,2,EA,1,100,0.609819
305486,53557,2,EA,1,100,0.609596
305536,53575,2,EA,1,100,0.609447
305587,53575,2,EA,1,100,0.609231
305637,53593,2,EA,1,100,0.609259
305688,53593,2,EA,1,100,0.609007
305738,53611,2,EA,1,100,0.609854
305789,53611,2,EA,1,100,0.610047
305839,53629,2,EA,1,100,0.609378
305890,53629,2,EA,1,100,0.609636
305940,53648,2,EA,1,100,0.609761
305991,53648,2,EA,1,100,0.609793
306041,53666,2,EA,1,100,0.609807
306092,53666,2,EA,1,100,0.609912
306142,53684,2,EA,1,100,0.609807
306193,53684,2,EA,1,100,0.610341
306243,53702,2,EA,1,100,0.610041
306294,53702,2,EA,1,100,0.609813
306344,53720,2,EA,1,100,0.609716
306395,53720,2,EA,1,100,0.609626
306445,53738,2,EA,1,100,0.609088
306496,53738,2,EA,1,100,0.609557
306546,53756,2,EA,1,100,0.609203
306597,53756,2,EA,1,100,0.609447
306647,53774,2,EA,1,100,0.609424
306698,53774,2,EA,1,100,0.610131
306748,53793,2,EA,1,100,0.609422
306799,53793,2,EA,1,100,0.609950
306849,53811,2,EA,1,100,0.609281
306900,53811,2,EA,1,100,0.609543
306933,53829,3,EA,1,100,0.609658
306967,53829,3,EA,1,100,0.610214
307001,53829,3,EA,1,100,0.609525
307051,53847,2,EA,1,100,0.609785
307102,53847,2,EA,1,100,0.609487
307152,53865,2,EA,1,100,0.609557
307203,53865,2,EA,1,100,0.609298
307253,53883,2,EA,1,100,0.609420
307304,53883,2,EA,1,100,0.609704
307354,53901,2,EA,1,100,0.609032
307405,53901,2,EA,1,100,0.609271
307455,53920,2,EA,1,100,0.608923
307506,53920,2,EA,1,100,0.609116
307556,53938,2,EA,1,100,0.608562
307607,53938,2,EA,1,100,0.608599
307657,53956,2,EA,1,100,0.608160
307708,53956,2,EA,1,100,0.608178
307758,53974,2,EA,1,100,0.607434
307809,53974,2,EA,1,100,0.608015
307859,53992,2,EA,1,100,0.607223
307910,53992,2,EA,1,100,0.606768
307960,54010,2,EA,1,100,0.605879
308011,54010,2,EA,1,100,0.605487
308061,54028,2,EA,1,100,0.604881
308112,54028,2,EA,1,100,0.604544
308162,54047,2,EA,1,100,0.603867
308213,54047,2,EA,1,100,0.602901
308263,54065,2,EA,1,100,0.601750
308314,54065,2,EA,1,100,0.600363
308347,54083,3,EA,1,100,0.598326
308381,54083,3,EA,1,100,0.596457
308415,54083,3,EA,1,100,0.595124
308465,54101,2,EA,1,100,0.593128
308516,54101,2,EA,1,100,0.591287
308566,54119,2,EA,1,100,0.590620
308617,54119,2,EA,1,100,0.587629
308667,54137,2,EA,1,100,0.584966
308718,54137,2,EA,1,100,0.581986
308768,54155,2,EA,1,100,0.580874
308819,54155,2,EA,1,100,0.581055
308869,54173,2,EA,1,100,0.581720
308920,54173,2,EA,1,100,0.581647
308970,54192,2,EA,1,100,0.581548
309021,54192,2,EA,1,100,0.581901
309071,54210,2,EA,1,100,0.581059
309122,54210,2,EA,1,100,0.580418
309172,54228,2,EA,1,100,0.578668
309223,54228,2,EA,1,100,0.577286
309273,54246,2,EA,1,100,0.575520
309324,54246,2,EA,1,100,0.574130
309374,54264,2,EA,1,100,0.571881
309425,54264,2,EA,1,100,0.571435
309475,54282,2,EA,1,100,0.570082
309526,54282,2,EA,1,100,0.569131
309576,54300,2,EA,1,100,0.568527
309627,54300,2,EA,1,100,0.568035
309677,54319,2,EA,1,100,0.567496
309728,54319,2,EA,1,100,0.568229
309778,54337,2,EA,1,100,0.568122
309829,54337,2,EA,1,100,0.568801
309862,54355,3,EA,1,100,0.569868
309896,54355,3,EA,1,100,0.570620
309930,54355,3,EA,1,100,0.571518
309980,54373,2,EA,1,100,0.572539
310031,54373,2,EA,1,100,0.572708
310081,54391,2,EA,1,100,0.573514
310132,54391,2,EA,1,100,0.573881
310192,54412,3,EA,1,100,0.574126
310253,54412,3,EA,1,100,0.574239
310314,54412,3,EA,1,100,0.573820
310347,54433,3,EA,1,100,0.573373
310381,54433,3,EA,1,100,0.571897
310415,54433,3,EA,1,100,0.571488
310465,54451,2,EA,1,100,0.569949
310516,54451,2,EA,1,100,0.568672
310566,54469,2,EA,1,100,0.568859
310617,54469,2,EA,1,100,0.568678
310667,54487,2,EA,1,100,0.568384
310718,54487,2,EA,1,100,0.568593
310768,54505,2,EA,1,100,0.568650
310819,54505,2,EA,1,100,0.568426
310869,54523,2,EA,1,100,0.567526
310920,54523,2,EA,1,100,0.567526
310970,54541,2,EA,1,100,0.567175
311021,54541,2,EA,1,100,0.567556
311071,54559,2,EA,1,100,0.567057
311122,54559,2,EA,1,100,0.567226
311172,54578,2,EA,1,100,0.567840
311223,54578,2,EA,1,100,0.568249
311273,54596,2,EA,1,100,0.568396
311324,54596,2,EA,1,100,0.569105
311374,54614,2,EA,1,100,0.569085
311425,54614,2,EA,1,100,0.569198
311475,54632,2,EA,1,100,0.569159
311526,54632,2,EA,1,100,0.570315
311576,54650,2,EA,1,100,0.569766
311627,54650,2,EA,1,100,0.570759
311677,54668,2,EA,1,100,0.570233
311728,54668,2,EA,1,100,0.570841
311778,54686,2,EA,1,100,0.571075
311829,54686,2,EA,1,100,0.571425
311879,54704,2,EA,1,100,0.571524
311930,54704,2,EA,1,100,0.572658
311980,54723,2,EA,1,100,0.573361
312031,54723,2,EA,1,100,0.574561
312064,54741,3,EA,1,100,0.575284
312098,54741,3,EA,1,100,0.576396
312132,54741,3,EA,1,100,0.576481
312182,54759,2,EA,1,100,0.577474
312233,54759,2,EA,1,100,0.577119
312283,54777,2,EA,1,100,0.577502
312334,54777,2,EA,1,100,0.577687
312384,54795,2,EA,1,100,0.577669
312435,54795,2,EA,1,100,0.577162
312485,54813,2,EA,1,100,0.577583
312536,54813,2,EA,1,100,0.578116
312586,54831,2,EA,1,100,0.577597
312637,54831,2,EA,1,100,0.577947
312687,54850,2,EA,1,100,0.577822
312738,54850,2,EA,1,100,0.577373
312788,54868,2,EA,1,100,0.577196
312839,54868,2,EA,1,100,0.576070
312889,54886,2,EA,1,100,0.574847
312940,54886,2,EA,1,100,0.573868
312990,54904,2,EA,1,100,0.572845
313041,54904,2,EA,1,100,0.572293
313091,54922,2,EA,1,100,0.571355
313142,54922,2,EA,1,100,0.571423
313192,54940,2,EA,1,100,0.570815
313243,54940,2,EA,1,100,0.571252
313293,54958,2,EA,1,100,0.570750
313344,54958,2,EA,1,100,0.571018
313394,54977,2,EA,1,100,0.571113
313445,54977,2,EA,1,100,0.571409
313478,54995,3,EA,1,100,0.571200
313512,54995,3,EA,1,100,0.571778
313546,54995,3,EA,1,100,0.572225
313596,55013,2,EA,1,100,0.572863
313647,55013,2,EA,1,100,0.573586
313697,55031,2,EA,1,100,0.574616
313748,55031,2,EA,1,100,0.574710
313798,55049,2,EA,1,100,0.575703
313849,55049,2,EA,1,100,0.575812
313899,55067,2,EA,1,100,0.576167
313950,55067,2,EA,1,100,0.576283
314000,55085,2,EA,1,100,0.577000
314051,55085,2,EA,1,100,0.577440
314101,55103,2,EA,1,100,0.578511
314152,55103,2,EA,1,100,0.579744
314202,55122,2,EA,1,100,0.580048
314253,55122,2,EA,1,100,0.581385
314303,55140,2,EA,1,100,0.581847
314354,55140,2,EA,1,100,0.582326
314404,55158,2,EA,1,100,0.583260
314455,55158,2,EA,1,100,0.583754
314505,55176,2,EA,1,100,0.583893
314556,55176,2,EA,1,100,0.584660
314606,55194,2,EA,1,100,0.584739
314657,55194,2,EA,1,100,0.585297
314707,55212,2,EA,1,100,0.585257
314758,55212,2,EA,1,100,0.585772
314808,55230,2,EA,1,100,0.585178
314859,55230,2,EA,1,100,0.585539
314909,55249,2,EA,1,100,0.584745
314960,55249,2,EA,1,100,0.584409
314993,55267,3,EA,1,100,0.584306
315027,55267,3,EA,1,100,0.584028
315061,55267,3,EA,1,100,0.583353
315111,55285,2,EA,1,100,0.583740
315162,55285,2,EA,1,100,0.582773
315212,55303,2,EA,1,100,0.582537
315263,55303,2,EA,1,100,0.581814
315313,55321,2,EA,1,100,0.581885
315364,55321,2,EA,1,100,0.581969
315414,55339,2,EA,1,100,0.582046
315465,55339,2,EA,1,100,0.581712
315515,55357,2,EA,1,100,0.582233
315566,55357,2,EA,1,100,0.582413
315616,55375,2,EA,1,100,0.582038
315667,55375,2,EA,1,100,0.582646
315717,55394,2,EA,1,100,0.581901
315768,55394,2,EA,1,100,0.582227
315818,55412,2,EA,1,100,0.581883
315869,55412,2,EA,1,100,0.582167
315919,55430,2,EA,1,100,0.582161
315970,55430,2,EA,1,100,0.582781
316020,55448,2,EA,1,100,0.582711
316071,55448,2,EA,1,100,0.582997
316121,55466,2,EA,1,100,0.583355
316172,55466,2,EA,1,100,0.584066
316225,55484,4,EA,1,100,0.584044
316278,55484,4,EA,1,100,0.584664
316331,55484,4,EA,1,100,0.585081
316384,55484,4,EA,1,100,0.585021
316419,55503,3,EA,1,100,0.585210
316455,55503,3,EA,1,100,0.585569
316491,55503,3,EA,1,100,0.586121
316541,55521,2,EA,1,100,0.585702
316592,55521,2,EA,1,100,0.585714
316642,55539,2,EA,1,100,0.585603
316693,55539,2,EA,1,100,0.586517
316743,55557,2,EA,1,100,0.586058
316794,55557,2,EA,1,100,0.586044
316844,55575,2,EA,1,100,0.586387
316895,55575,2,EA,1,100,0.585953
316945,55593,2,EA,1,100,0.585682
316996,55593,2,EA,1,100,0.585937
317046,55611,2,EA,1,100,0.585329
317097,55611,2,EA,1,100,0.585464
317147,55630,2,EA,1,100,0.585297
317198,55630,2,EA,1,100,0.585345
317248,55648,2,EA,1,100,0.584604
317299,55648,2,EA,1,100,0.584080
317349,55666,2,EA,1,100,0.583563
317400,55666,2,EA,1,100,0.582993
317450,55684,2,EA,1,100,0.581297
317501,55684,2,EA,1,100,0.579786
317551,55702,2,EA,1,100,0.578036
317602,55702,2,EA,1,100,0.577856
317652,55720,2,EA,1,100,0.576346
317703,55720,2,EA,1,100,0.575842
317736,55738,3,EA,1,100,0.575300
317770,55738,3,EA,1,100,0.574626
317804,55738,3,EA,1,100,0.573355
317854,55756,2,EA,1,100,0.573772
317905,55756,2,EA,1,100,0.573055
317955,55775,2,EA,1,100,0.572324
318006,55775,2,EA,1,100,0.572656
318056,55793,2,EA,1,100,0.572799
318107,55793,2,EA,1,100,0.572781
318157,55811,2,EA,1,100,0.573323
318208,55811,2,EA,1,100,0.573949
318258,55829,2,EA,1,100,0.573570
318309,55829,2,EA,1,100,0.574406
318359,55847,2,EA,1,100,0.574579
318410,55847,2,EA,1,100,0.574819
318460,55865,2,EA,1,100,0.575258
318511,55865,2,EA,1,100,0.575564
318561,55883,2,EA,1,100,0.575419
318612,55883,2,EA,1,100,0.575836
318662,55902,2,EA,1,100,0.575641
318713,55902,2,EA,1,100,0.576086
318763,55920,2,EA,1,100,0.576203
318814,55920,2,EA,1,100,0.576084
318864,55938,2,EA,1,100,0.575941
318915,55938,2,EA,1,100,0.576626
318965,55956,2,EA,1,100,0.576221
319016,55956,2,EA,1,100,0.576072
319066,55974,2,EA,1,100,0.575848
319117,55974,2,EA,1,100,0.575697
319167,55992,2,EA,1,100,0.574914
319218,55992,2,EA,1,100,0.575675
319268,56010,2,EA,1,100,0.574962
319319,56010,2,EA,1,100,0.574898
319352,56029,3,EA,1,100,0.575450
319386,56029,3,EA,1,100,0.575931
319420,56029,3,EA,1,100,0.575969
319470,56047,2,EA,1,100,0.576273
319521,56047,2,EA,1,100,0.576096
319571,56065,2,EA,1,100,0.575873
319622,56065,2,EA,1,100,0.576439
319672,56083,2,EA,1,100,0.576386
319723,56083,2,EA,1,100,0.576610
319773,56101,2,EA,1,100,0.576547
319824,56101,2,EA,1,100,0.577091
319874,56119,2,EA,1,100,0.576247
319925,56119,2,EA,1,100,0.576793
319975,56137,2,EA,1,100,0.576670
320026,56137,2,EA,1,100,0.576898
320076,56155,2,EA,1,100,0.577125
320127,56155,2,EA,1,100,0.577597
320177,56174,2,EA,1,100,0.576958
320228,56174,2,EA,1,100,0.577635
320278,56192,2,EA,1,100,0.577566
320329,56192,2,EA,1,100,0.577772
320379,56210,2,EA,1,100,0.577820
320430,56210,2,EA,1,100,0.578195
320480,56228,2,EA,1,100,0.578008
320531,56228,2,EA,1,100,0.578608
320581,56246,2,EA,1,100,0.578449
320632,56246,2,EA,1,100,0.579039
320682,56264,2,EA,1,100,0.578773
320733,56264,2,EA,1,100,0.578992
320766,56282,3,EA,1,100,0.578815
320800,56282,3,EA,1,100,0.579462
320834,56282,3,EA,1,100,0.579401
320884,56301,2,EA,1,100,0.580124
320935,56301,2,EA,1,100,0.580118
320985,56319,2,EA,1,100,0.580823
321036,56319,2,EA,1,100,0.580892
321091,56340,3,EA,1,100,0.581224
321147,56340,3,EA,1,100,0.582062
321203,56340,3,EA,1,100,0.581494
321253,56360,2,EA,1,100,0.581893
321304,56360,2,EA,1,100,0.582354
321354,56378,2,EA,1,100,0.582384
321405,56378,2,EA,1,100,0.582854
321455,56396,2,EA,1,100,0.582666
321506,56396,2,EA,1,100,0.582656
321556,56414,2,EA,1,100,0.582825
321607,56414,2,EA,1,100,0.583275
321657,56433,2,EA,1,100,0.583542
321708,56433,2,EA,1,100,0.584604
321758,56451,2,EA,1,100,0.584467
321809,56451,2,EA,1,100,0.584874
321842,56469,3,EA,1,100,0.585160
321876,56469,3,EA,1,100,0.585536
321910,56469,3,EA,1,100,0.585200
321960,56487,2,EA,1,100,0.585988
322011,56487,2,EA,1,100,0.585943
322061,56505,2,EA,1,100,0.586334
322112,56505,2,EA,1,100,0.586759
322162,56523,2,EA,1,100,0.587178
322213,56523,2,EA,1,100,0.587396
322263,56541,2,EA,1,100,0.587931
322314,56541,2,EA,1,100,0.588443
322364,56560,2,EA,1,100,0.588387
322415,56560,2,EA,1,100,0.589402
322465,56578,2,EA,1,100,0.589168
322516,56578,2,EA,1,100,0.589565
322566,56596,2,EA,1,100,0.589583
322617,56596,2,EA,1,100,0.590330
322667,56614,2,EA,1,100,0.590030
322718,56614,2,EA,1,100,0.590620
322768,56632,2,EA,1,100,0.590262
322819,56632,2,EA,1,100,0.590882
322869,56650,2,EA,1,100,0.590872
322920,56650,2,EA,1,100,0.590777
322970,56668,2,EA,1,100,0.590701
323021,56668,2,EA,1,100,0.591482
323071,56687,2,EA,1,100,0.591363
323122,56687,2,EA,1,100,0.591615
323172,56705,2,EA,1,100,0.591500
323223,56705,2,EA,1,100,0.591950
323256,56723,3,EA,1,100,0.591724
323290,56723,3,EA,1,100,0.591984
323324,56723,3,EA,1,100,0.591867
323374,56741,2,EA,1,100,0.592046
323425,56741,2,EA,1,100,0.591984
323475,56759,2,EA,1,100,0.592052
323526,56759,2,EA,1,100,0.591829
323576,56777,2,EA,1,100,0.592121
323627,56777,2,EA,1,100,0.591815
323677,56795,2,EA,1,100,0.591921
323728,56795,2,EA,1,100,0.591968
323778,56813,2,EA,1,100,0.591780
323829,56813,2,EA,1,100,0.591682
323879,56832,2,EA,1,100,0.591341
323930,56832,2,EA,1,100,0.591514
323980,56850,2,EA,1,100,0.591164
324031,56850,2,EA,1,100,0.591658
324081,56868,2,EA,1,100,0.590441
324132,56868,2,EA,1,100,0.588983
324182,56886,2,EA,1,100,0.588729
324233,56886,2,EA,1,100,0.588723
324283,56904,2,EA,1,100,0.587885
324334,56904,2,EA,1,100,0.587780
324384,56922,2,EA,1,100,0.587577
324435,56922,2,EA,1,100,0.587972
324485,56940,2,EA,1,100,0.586755
324536,56940,2,EA,1,100,0.587432
324586,56959,2,EA,1,100,0.586936
324637,56959,2,EA,1,100,0.587124
324687,56977,2,EA,1,100,0.586415
324738,56977,2,EA,1,100,0.586660
324771,56995,3,EA,1,100,0.586441
324805,56995,3,EA,1,100,0.586936
324839,56995,3,EA,1,100,0.586256
324889,57013,2,EA,1,100,0.586729
324940,57013,2,EA,1,100,0.583071
324990,57032,2,EA,1,100,0.571361
325041,57032,2,EA,1,100,0.565036
325091,57051,2,EA,1,100,0.558672
325142,57051,2,EA,1,100,0.553636
325192,57070,2,EA,1,100,0.548399
325243,57070,2,EA,1,100,0.544049
325293,57089,2,EA,1,100,0.539779
325344,57089,2,EA,1,100,0.536556
325394,57109,2,EA,1,100,0.532729
325445,57109,2,EA,1,100,0.530071
325495,57128,2,EA,1,100,0.527533
325546,57128,2,EA,1,100,0.525398
325596,57147,2,EA,1,100,0.522981
325647,57147,2,EA,1,100,0.521289
325697,57166,2,EA,1,100,0.519263
325748,57166,2,EA,1,100,0.518840
325798,57185,2,EA,1,100,0.517901
325849,57185,2,EA,1,100,0.517653
325899,57203,2,EA,1,100,0.517750
325950,57203,2,EA,1,100,0.518261
326000,57221,2,EA,1,100,0.517551
326051,57221,2,EA,1,100,0.518600
326101,57240,2,EA,1,100,0.518616
326152,57240,2,EA,1,100,0.518846
326202,57258,2,EA,1,100,0.519001
326253,57258,2,EA,1,100,0.520179
326303,57276,2,EA,1,100,0.519849
326354,57276,2,EA,1,100,0.520691
326387,57294,3,EA,1,100,0.521442
326421,57294,3,EA,1,100,0.521808
326455,57294,3,EA,1,100,0.522840
326505,57312,2,EA,1,100,0.524113
326556,57312,2,EA,1,100,0.523438
326606,57330,2,EA,1,100,0.524946
326657,57330,2,EA,1,100,0.525303
326707,57348,2,EA,1,100,0.525611
326758,57348,2,EA,1,100,0.526614
326808,57367,2,EA,1,100,0.527275
326859,57367,2,EA,1,100,0.527718
326909,57385,2,EA,1,100,0.528266
326960,57385,2,EA,1,100,0.529380
327010,57403,2,EA,1,100,0.529470
327061,57403,2,EA,1,100,0.530056
327111,57421,2,EA,1,100,0.530417
327162,57421,2,EA,1,100,0.530973
327212,57439,2,EA,1,100,0.531692
327263,57439,2,EA,1,100,0.532050
327313,57457,2,EA,1,100,0.532310
327364,57457,2,EA,1,100,0.534044
327414,57475,2,EA,1,100,0.533883
327465,57475,2,EA,1,100,0.533732
327515,57493,2,EA,1,100,0.534286
327566,57493,2,EA,1,100,0.534766
327616,57512,2,EA,1,100,0.534733
327667,57512,2,EA,1,100,0.536399
327717,57530,2,EA,1,100,0.535650
327768,57530,2,EA,1,100,0.536119
327801,57548,3,EA,1,100,0.536107
327835,57548,3,EA,1,100,0.536977
327869,57548,3,EA,1,100,0.536437
327919,57566,2,EA,1,100,0.537918
327970,57566,2,EA,1,100,0.537775
328020,57584,2,EA,1,100,0.537958
328071,57584,2,EA,1,100,0.538516
328121,57602,2,EA,1,100,0.538731
328172,57602,2,EA,1,100,0.538719
328222,57620,2,EA,1,100,0.539255
328273,57620,2,EA,1,100,0.539628
328323,57639,2,EA,1,100,0.539789
328374,57639,2,EA,1,100,0.540474
328424,57657,2,EA,1,100,0.540506
328475,57657,2,EA,1,100,0.540538
328525,57675,2,EA,1,100,0.540653
328576,57675,2,EA,1,100,0.540879
328626,57693,2,EA,1,100,0.540937
328677,57693,2,EA,1,100,0.541477
328727,57711,2,EA,1,100,0.541026
328778,57711,2,EA,1,100,0.541102
328828,57729,2,EA,1,100,0.541698
328879,57729,2,EA,1,100,0.541493
328929,57747,2,EA,1,100,0.541436
328980,57747,2,EA,1,100,0.542413
329030,57765,2,EA,1,100,0.542139
329081,57765,2,EA,1,100,0.542556
329131,57784,2,EA,1,100,0.542343
329182,57784,2,EA,1,100,0.541791
329232,57802,2,EA,1,100,0.540798
329283,57802,2,EA,1,100,0.541314
329316,57820,3,EA,1,100,0.541384
329350,57820,3,EA,1,100,0.540806
329384,57820,3,EA,1,100,0.541013
329434,57838,2,EA,1,100,0.541283
329485,57838,2,EA,1,100,0.540752
329535,57856,2,EA,1,100,0.540717
329586,57856,2,EA,1,100,0.540635
329636,57874,2,EA,1,100,0.540399
329687,57874,2,EA,1,100,0.540677
329737,57892,2,EA,1,100,0.539755
329788,57892,2,EA,1,100,0.539493
329838,57911,2,EA,1,100,0.539745
329889,57911,2,EA,1,100,0.539366
329939,57929,2,EA,1,100,0.538729
329990,57929,2,EA,1,100,0.539128
330040,57947,2,EA,1,100,0.538754
330091,57947,2,EA,1,100,0.538566
330141,57965,2,EA,1,100,0.538562
330192,57965,2,EA,1,100,0.538993
330242,57983,2,EA,1,100,0.538804
330293,57983,2,EA,1,100,0.539203
330343,58001,2,EA,1,100,0.536429
330394,58001,2,EA,1,100,0.535503
330444,58019,2,EA,1,100,0.535313
330495,58019,2,EA,1,100,0.535088
330545,58038,2,EA,1,100,0.533799
330596,58038,2,EA,1,100,0.533634
330646,58056,2,EA,1,100,0.532177
330697,58056,2,EA,1,100,0.531766
330747,58074,2,EA,1,100,0.531630
330798,58074,2,EA,1,100,0.530494
330831,58092,3,EA,1,100,0.529496
330865,58092,3,EA,1,100,0.528912
330899,58092,3,EA,1,100,0.528453
330949,58110,2,EA,1,100,0.527929
331000,58110,2,EA,1,100,0.527130
331050,58128,2,EA,1,100,0.526667
331101,58128,2,EA,1,100,0.525678
331151,58146,2,EA,1,100,0.525653
331202,58146,2,EA,1,100,0.524789
331252,58164,2,EA,1,100,0.524050
331303,58164,2,EA,1,100,0.523877
331353,58183,2,EA,1,100,0.523573
331404,58183,2,EA,1,100,0.522658
331454,58201,2,EA,1,100,0.522340
331505,58201,2,EA,1,100,0.522092
331555,58219,2,EA,1,100,0.521569
331606,58219,2,EA,1,100,0.521960
331656,58237,2,EA,1,100,0.521464
331707,58237,2,EA,1,100,0.521607
331757,58255,2,EA,1,100,0.521879
331808,58255,2,EA,1,100,0.521901
331858,58273,2,EA,1,100,0.521543
331909,58273,2,EA,1,100,0.522824
331954,58294,4,EA,1,100,0.522078
331999,58294,4,EA,1,100,0.521905
332044,58294,4,EA,1,100,0.521853
332090,58294,4,EA,1,100,0.521754
332141,58315,2,EA,1,100,0.521625
332193,58315,2,EA,1,100,0.522260
332243,58333,2,EA,1,100,0.522548
332294,58333,2,EA,1,100,0.522511
332344,58351,2,EA,1,100,0.522826
332395,58351,2,EA,1,100,0.522967
332445,58369,2,EA,1,100,0.522618
332496,58369,2,EA,1,100,0.523180
332546,58387,2,EA,1,100,0.523305
332597,58387,2,EA,1,100,0.523643
332647,58405,2,EA,1,100,0.524203
332698,58405,2,EA,1,100,0.524266
332748,58423,2,EA,1,100,0.523919
332799,58423,2,EA,1,100,0.524473
332849,58442,2,EA,1,100,0.523980
332900,58442,2,EA,1,100,0.523978
332933,58460,3,EA,1,100,0.524171
332967,58460,3,EA,1,100,0.524753
333001,58460,3,EA,1,100,0.524316
333051,58478,2,EA,1,100,0.525513
333102,58478,2,EA,1,100,0.525071
333152,58496,2,EA,1,100,0.525547
333203,58496,2,EA,1,100,0.526010
333253,58514,2,EA,1,100,0.525962
333304,58514,2,EA,1,100,0.526193
333354,58532,2,EA,1,100,0.526314
333405,58532,2,EA,1,100,0.526401
333455,58550,2,EA,1,100,0.526024
333506,58550,2,EA,1,100,0.527458
333556,58569,2,EA,1,100,0.527013
333607,58569,2,EA,1,100,0.527176
333657,58587,2,EA,1,100,0.527366
333708,58587,2,EA,1,100,0.527676
333758,58605,2,EA,1,100,0.527406
333809,58605,2,EA,1,100,0.528375
333859,58623,2,EA,1,100,0.528012
333910,58623,2,EA,1,100,0.528306
333960,58641,2,EA,1,100,0.528502
334011,58641,2,EA,1,100,0.528691
334061,58659,2,EA,1,100,0.528951
334112,58659,2,EA,1,100,0.529494
334162,58677,2,EA,1,100,0.528939
334213,58677,2,EA,1,100,0.529184
334263,58696,2,EA,1,100,0.529037
334314,58696,2,EA,1,100,0.529585
334364,58714,2,EA,1,100,0.528618
334415,58714,2,EA,1,100,0.529259
334448,58732,3,EA,1,100,0.529130
334482,58732,3,EA,1,100,0.528532
334516,58732,3,EA,1,100,0.528324
334566,58750,2,EA,1,100,0.528334
334617,58750,2,EA,1,100,0.527718
334667,58768,2,EA,1,100,0.528485
334718,58768,2,EA,1,100,0.528510
334768,58786,2,EA,1,100,0.528000
334819,58786,2,EA,1,100,0.529017
334869,58804,2,EA,1,100,0.528773
334920,58804,2,EA,1,100,0.529168
334970,58822,2,EA,1,100,0.529247
335021,58822,2,EA,1,100,0.528636
335071,58841,2,EA,1,100,0.527416
335122,58841,2,EA,1,100,0.528211
335172,58859,2,EA,1,100,0.528630
335223,58859,2,EA,1,100,0.528862
335273,58877,2,EA,1,100,0.527928
335324,58877,2,EA,1,100,0.527412
335374,58895,2,EA,1,100,0.526910
335425,58895,2,EA,1,100,0.527170
335475,58913,2,EA,1,100,0.526836
335526,58913,2,EA,1,100,0.527015
335576,58931,2,EA,1,100,0.526828
335627,58931,2,EA,1,100,0.527253
335677,58949,2,EA,1,100,0.525370
335728,58949,2,EA,1,100,0.524409
335778,58968,2,EA,1,100,0.523462
335829,58968,2,EA,1,100,0.523085
335879,58986,2,EA,1,100,0.523523
335930,58986,2,EA,1,100,0.523774
335980,59004,2,EA,1,100,0.523972
336031,59004,2,EA,1,100,0.524507
336064,59022,3,EA,1,100,0.524217
336098,59022,3,EA,1,100,0.525432
336132,59022,3,EA,1,100,0.525933
336182,59040,2,EA,1,100,0.525631
336233,59040,2,EA,1,100,0.526181
336283,59058,2,EA,1,100,0.526089
336334,59058,2,EA,1,100,0.525486
336384,59076,2,EA,1,100,0.525956
336435,59076,2,EA,1,100,0.526050
336485,59094,2,EA,1,100,0.525913
336536,59094,2,EA,1,100,0.526822
336586,59113,2,EA,1,100,0.527065
336637,59113,2,EA,1,100,0.527567
336687,59131,2,EA,1,100,0.527837
336738,59131,2,EA,1,100,0.528506
336788,59149,2,EA,1,100,0.528328
336839,59149,2,EA,1,100,0.529277
336889,59167,2,EA,1,100,0.529009
336940,59167,2,EA,1,100,0.528892
336990,59185,2,EA,1,100,0.529817
337041,59185,2,EA,1,100,0.530121
337091,59203,2,EA,1,100,0.529867
337142,59203,2,EA,1,100,0.530731
337192,59221,2,EA,1,100,0.530538
337243,59221,2,EA,1,100,0.531001
337293,59240,2,EA,1,100,0.531386
337344,59240,2,EA,1,100,0.532048
337394,59258,2,EA,1,100,0.531483
337445,59258,2,EA,1,100,0.532673
337478,59276,3,EA,1,100,0.532465
337512,59276,3,EA,1,100,0.532538
337546,59276,3,EA,1,100,0.533452
337596,59294,2,EA,1,100,0.533235
337647,59294,2,EA,1,100,0.533106
337697,59312,2,EA,1,100,0.533869
337748,59312,2,EA,1,100,0.533374
337798,59330,2,EA,1,100,0.533154
337849,59330,2,EA,1,100,0.532528
337899,59348,2,EA,1,100,0.531291
337950,59348,2,EA,1,100,0.530210
338000,59367,2,EA,1,100,0.530898
338051,59367,2,EA,1,100,0.531404
338101,59385,2,EA,1,100,0.531049
338152,59385,2,EA,1,100,0.532055
338202,59403,2,EA,1,100,0.532294
338253,59403,2,EA,1,100,0.532488
338303,59421,2,EA,1,100,0.533092
338354,59421,2,EA,1,100,0.533241
338404,59439,2,EA,1,100,0.533283
338455,59439,2,EA,1,100,0.533722
338505,59457,2,EA,1,100,0.533740
338556,59457,2,EA,1,100,0.533938
338606,59475,2,EA,1,100,0.534236
338657,59475,2,EA,1,100,0.535271
338707,59493,2,EA,1,100,0.534167
338758,59493,2,EA,1,100,0.534911
338808,59512,2,EA,1,100,0.534834
338859,59512,2,EA,1,100,0.534818
338909,59530,2,EA,1,100,0.535001
338960,59530,2,EA,1,100,0.535150
339010,59548,2,EA,1,100,0.534880
339061,59548,2,EA,1,100,0.535003
339094,59566,3,EA,1,100,0.535106
339128,59566,3,EA,1,100,0.535132
339162,59566,3,EA,1,100,0.535769
339212,59584,2,EA,1,100,0.536004
339263,59584,2,EA,1,100,0.536220
339313,59602,2,EA,1,100,0.536586
339364,59602,2,EA,1,100,0.536500
339414,59620,2,EA,1,100,0.536351
339465,59620,2,EA,1,100,0.537503
339515,59639,2,EA,1,100,0.537386
339566,59639,2,EA,1,100,0.537601
339616,59657,2,EA,1,100,0.538224
339667,59657,2,EA,1,100,0.538870
339717,59675,2,EA,1,100,0.538174
339768,59675,2,EA,1,100,0.539320
339818,59693,2,EA,1,100,0.538131
339869,59693,2,EA,1,100,0.537815
339919,59711,2,EA,1,100,0.538151
339970,59711,2,EA,1,100,0.538455
340020,59729,2,EA,1,100,0.538387
340071,59729,2,EA,1,100,0.538848
340121,59747,2,EA,1,100,0.538369
340172,59747,2,EA,1,100,0.538742
340222,59766,2,EA,1,100,0.538838
340273,59766,2,EA,1,100,0.538588
340323,59784,2,EA,1,100,0.538024
340374,59784,2,EA,1,100,0.538711
340424,59802,2,EA,1,100,0.538526
340475,59802,2,EA,1,100,0.538625
340525,59820,2,EA,1,100,0.539261
340576,59820,2,EA,1,100,0.539902
340609,59838,3,EA,1,100,0.539440
340643,59838,3,EA,1,100,0.539829
340677,59838,3,EA,1,100,0.539414
340727,59856,2,EA,1,100,0.538794
340778,59856,2,EA,1,100,0.539487
340828,59874,2,EA,1,100,0.539322
340879,59874,2,EA,1,100,0.538550
340929,59892,2,EA,1,100,0.538784
340980,59892,2,EA,1,100,0.539130
341030,59911,2,EA,1,100,0.539064
341081,59911,2,EA,1,100,0.539668
341131,59929,2,EA,1,100,0.539193
341182,59929,2,EA,1,100,0.539892
341232,59947,2,EA,1,100,0.540198
341283,59947,2,EA,1,100,0.539918
341333,59965,2,EA,1,100,0.540087
341384,59965,2,EA,1,100,0.540822
341434,59983,2,EA,1,100,0.540601
341485,59983,2,EA,1,100,0.540486
341535,60001,2,EA,1,100,0.540860
341586,60001,2,EA,1,100,0.540766
341636,60019,2,EA,1,100,0.540045
341687,60019,2,EA,1,100,0.540433
341737,60038,2,EA,1,100,0.539092
341788,60038,2,EA,1,100,0.539775
341838,60056,2,EA,1,100,0.538812
341889,60056,2,EA,1,100,0.539179
341931,60074,5,EA,1,100,0.538895
341973,60074,5,EA,1,100,0.539201
342015,60074,5,EA,1,100,0.539237
342057,60074,5,EA,1,100,0.538784
342100,60074,5,EA,1,100,0.539372
342150,60092,2,EA,1,100,0.538731
342201,60092,2,EA,1,100,0.538429
342251,60110,2,EA,1,100,0.538731
342302,60110,2,EA,1,100,0.537728
342352,60128,2,EA,1,100,0.537146
342403,60128,2,EA,1,100,0.538742
342453,60147,2,EA,1,100,0.538310
342504,60147,2,EA,1,100,0.538006
342554,60165,2,EA,1,100,0.538198
342605,60165,2,EA,1,100,0.538361
342655,60183,2,EA,1,100,0.537894
342706,60183,2,EA,1,100,0.538594
342756,60201,2,EA,1,100,0.538077
342807,60201,2,EA,1,100,0.538319
342849,60222,4,EA,1,100,0.538572
342892,60222,4,EA,1,100,0.538739
342935,60222,4,EA,1,100,0.538089
342978,60222,4,EA,1,100,0.538302
343028,60242,2,EA,1,100,0.538391
343079,60242,2,EA,1,100,0.538645
343129,60260,2,EA,1,100,0.538917
343180,60260,2,EA,1,100,0.538312
343230,60279,2,EA,1,100,0.538325
343281,60279,2,EA,1,100,0.539038
343331,60297,2,EA,1,100,0.538429
343382,60297,2,EA,1,100,0.538188
343432,60315,2,EA,1,100,0.537485
343483,60315,2,EA,1,100,0.537467
343533,60333,2,EA,1,100,0.537150
343584,60333,2,EA,1,100,0.537581
343634,60351,2,EA,1,100,0.537636
343685,60351,2,EA,1,100,0.537428
343735,60369,2,EA,1,100,0.537728
343786,60369,2,EA,1,100,0.538234
343836,60387,2,EA,1,100,0.538065
343887,60387,2,EA,1,100,0.538518
343937,60405,2,EA,1,100,0.539142
343988,60405,2,EA,1,100,0.539759
344038,60424,2,EA,1,100,0.539763
344089,60424,2,EA,1,100,0.539942
344139,60442,2,EA,1,100,0.539434
344190,60442,2,EA,1,100,0.540512
344223,60460,3,EA,1,100,0.539714
344257,60460,3,EA,1,100,0.540014
344291,60460,3,EA,1,100,0.540361
344341,60478,2,EA,1,100,0.540794
344392,60478,2,EA,1,100,0.540472
344442,60496,2,EA,1,100,0.541193
344493,60496,2,EA,1,100,0.540790
344543,60514,2,EA,1,100,0.540887
344594,60514,2,EA,1,100,0.541497
344644,60532,2,EA,1,100,0.541324
344695,60532,2,EA,1,100,0.541493
344745,60551,2,EA,1,100,0.542258
344796,60551,2,EA,1,100,0.542464
344846,60569,2,EA,1,100,0.541867
344897,60569,2,EA,1,100,0.542327
344947,60587,2,EA,1,100,0.542057
344998,60587,2,EA,1,100,0.542520
345048,60605,2,EA,1,100,0.542564
345099,60605,2,EA,1,100,0.542377
345149,60623,2,EA,1,100,0.541811
345200,60623,2,EA,1,100,0.542985
345250,60641,2,EA,1,100,0.542220
345301,60641,2,EA,1,100,0.542264
345351,60659,2,EA,1,100,0.542353
345402,60659,2,EA,1,100,0.542532
345452,60678,2,EA,1,100,0.542383
345503,60678,2,EA,1,100,0.542875
345553,60696,2,EA,1,100,0.543418
345604,60696,2,EA,1,100,0.543577
345654,60714,2,EA,1,100,0.543489
345705,60714,2,EA,1,100,0.543485
345738,60732,3,EA,1,100,0.543283
345772,60732,3,EA,1,100,0.543960
345806,60732,3,EA,1,100,0.543688
345856,60750,2,EA,1,100,0.543487
345907,60750,2,EA,1,100,0.543942
345957,60768,2,EA,1,100,0.543918
346008,60768,2,EA,1,100,0.543656
346058,60786,2,EA,1,100,0.543412
346109,60786,2,EA,1,100,0.543900
346159,60804,2,EA,1,100,0.543455
346210,60804,2,EA,1,100,0.543461
346260,60823,2,EA,1,100,0.542927
346311,60823,2,EA,1,100,0.543616
346361,60841,2,EA,1,100,0.544141
346412,60841,2,EA,1,100,0.543845
346462,60859,2,EA,1,100,0.542999
346513,60859,2,EA,1,100,0.543563
346563,60877,2,EA,1,100,0.542762
346614,60877,2,EA,1,100,0.542796
346664,60895,2,EA,1,100,0.542178
346715,60895,2,EA,1,100,0.542117
346765,60913,2,EA,1,100,0.542162
346816,60913,2,EA,1,100,0.542661
346866,60931,2,EA,1,100,0.542683
346917,60931,2,EA,1,100,0.543698
346967,60950,2,EA,1,100,0.543807
347018,60950,2,EA,1,100,0.543557
347068,60968,2,EA,1,100,0.543549
347119,60968,2,EA,1,100,0.544452
347152,60986,3,EA,1,100,0.544188
347186,60986,3,EA,1,100,0.543952
347220,60986,3,EA,1,100,0.542570
347270,61004,2,EA,1,100,0.541815
347321,61004,2,EA,1,100,0.541974
347371,61022,2,EA,1,100,0.541467
347422,61022,2,EA,1,100,0.540768
347472,61040,2,EA,1,100,0.541116
347523,61040,2,EA,1,100,0.540766
347573,61058,2,EA,1,100,0.540613
347624,61058,2,EA,1,100,0.540989
347674,61077,2,EA,1,100,0.540528
347725,61077,2,EA,1,100,0.540613
347775,61095,2,EA,1,100,0.540868
347826,61095,2,EA,1,100,0.541346
347876,61113,2,EA,1,100,0.540617
347927,61113,2,EA,1,100,0.540804
347977,61131,2,EA,1,100,0.540691
348028,61131,2,EA,1,100,0.540947
348078,61149,2,EA,1,100,0.541003
348129,61149,2,EA,1,100,0.541167
348179,61167,2,EA,1,100,0.540772
348230,61167,2,EA,1,100,0.542166
348280,61185,2,EA,1,100,0.541120
348331,61185,2,EA,1,100,0.541859
348381,61203,2,EA,1,100,0.541948
348432,61203,2,EA,1,100,0.541706
348482,61222,2,EA,1,100,0.541874
348533,61222,2,EA,1,100,0.542486
348583,61240,2,EA,1,100,0.543249
348634,61240,2,EA,1,100,0.543447
348684,61258,2,EA,1,100,0.542838
348735,61258,2,EA,1,100,0.542875
348768,61276,3,EA,1,100,0.542669
348802,61276,3,EA,1,100,0.543819
348836,61276,3,EA,1,100,0.543418
348886,61294,2,EA,1,100,0.543340
348937,61294,2,EA,1,100,0.543100
348987,61312,2,EA,1,100,0.542496
349038,61312,2,EA,1,100,0.541596
349088,61330,2,EA,1,100,0.542331
349139,61330,2,EA,1,100,0.542800
349189,61349,2,EA,1,100,0.543318
349240,61349,2,EA,1,100,0.543765
349290,61367,2,EA,1,100,0.544184
349341,61367,2,EA,1,100,0.544824
349391,61385,2,EA,1,100,0.544411
349442,61385,2,EA,1,100,0.544391
349492,61403,2,EA,1,100,0.544172
349543,61403,2,EA,1,100,0.545561
349593,61421,2,EA,1,100,0.544526
349644,61421,2,EA,1,100,0.544965
349694,61439,2,EA,1,100,0.545028
349745,61439,2,EA,1,100,0.545418
349795,61457,2,EA,1,100,0.544846
349846,61457,2,EA,1,100,0.545632
349896,61475,2,EA,1,100,0.545455
349947,61475,2,EA,1,100,0.545368
349997,61494,2,EA,1,100,0.545989
350048,61494,2,EA,1,100,0.546758
350098,61512,2,EA,1,100,0.545777
350149,61512,2,EA,1,100,0.546131
350182,61530,3,EA,1,100,0.545642
350216,61530,3,EA,1,100,0.546184
350250,61530,3,EA,1,100,0.546399
350300,61548,2,EA,1,100,0.545759
350351,61548,2,EA,1,100,0.545485
350401,61566,2,EA,1,100,0.546573
350452,61566,2,EA,1,100,0.545930
350502,61584,2,EA,1,100,0.545940
350553,61584,2,EA,1,100,0.546708
350603,61602,2,EA,1,100,0.546488
350654,61602,2,EA,1,100,0.546075
350704,61621,2,EA,1,100,0.547060
350755,61621,2,EA,1,100,0.548188
350805,61639,2,EA,1,100,0.548121
350856,61639,2,EA,1,100,0.548053
350906,61657,2,EA,1,100,0.547600
350957,61657,2,EA,1,100,0.547739
351007,61675,2,EA,1,100,0.547640
351058,61675,2,EA,1,100,0.546887
351108,61693,2,EA,1,100,0.546315
351159,61693,2,EA,1,100,0.546476
351209,61711,2,EA,1,100,0.546284
351260,61711,2,EA,1,100,0.546589
351310,61729,2,EA,1,100,0.546859
351361,61729,2,EA,1,100,0.546994
351411,61748,2,EA,1,100,0.546397
351462,61748,2,EA,1,100,0.546998
351512,61766,2,EA,1,100,0.546575
351563,61766,2,EA,1,100,0.547205
351613,61784,2,EA,1,100,0.547082
351664,61784,2,EA,1,100,0.546256
351697,61802,3,EA,1,100,0.545324
351731,61802,3,EA,1,100,0.546423
351765,61802,3,EA,1,100,0.546822
351815,61820,2,EA,1,100,0.546800
351866,61820,2,EA,1,100,0.546500
351916,61838,2,EA,1,100,0.546135
351967,61838,2,EA,1,100,0.545912
352017,61856,2,EA,1,100,0.546442
352068,61856,2,EA,1,100,0.546528
352118,61874,2,EA,1,100,0.545713
352169,61874,2,EA,1,100,0.545886
352219,61893,2,EA,1,100,0.546422
352270,61893,2,EA,1,100,0.546470
352320,61911,2,EA,1,100,0.545954
352371,61911,2,EA,1,100,0.545707
352421,61929,2,EA,1,100,0.545680
352472,61929,2,EA,1,100,0.547050
352522,61947,2,EA,1,100,0.546963
352573,61947,2,EA,1,100,0.547312
352623,61965,2,EA,1,100,0.547292
352674,61965,2,EA,1,100,0.548577
352724,61983,2,EA,1,100,0.548301
352775,61983,2,EA,1,100,0.549088
352825,62001,2,EA,1,100,0.548484
352876,62001,2,EA,1,100,0.548784
352926,62020,2,EA,1,100,0.550150
352977,62020,2,EA,1,100,0.551233
353027,62038,2,EA,1,100,0.550619
353078,62038,2,EA,1,100,0.551614
353128,62056,2,EA,1,100,0.550883
353179,62056,2,EA,1,100,0.550901
353212,62074,3,EA,1,100,0.550863
353246,62074,3,EA,1,100,0.550444
353280,62074,3,EA,1,100,0.550301
353330,62092,2,EA,1,100,0.550853
353381,62092,2,EA,1,100,0.550083
353431,62110,2,EA,1,100,0.549848
353482,62110,2,EA,1,100,0.549390
353532,62128,2,EA,1,100,0.549193
353583,62128,2,EA,1,100,0.548762
353633,62147,2,EA,1,100,0.550087
353684,62147,2,EA,1,100,0.550982
353744,62168,3,EA,1,100,0.550726
353805,62168,3,EA,1,100,0.550859
353866,62168,3,EA,1,100,0.550365
353899,62188,3,EA,1,100,0.550283
353933,62188,3,EA,1,100,0.550943
353967,62188,3,EA,1,100,0.550409
354017,62206,2,EA,1,100,0.550065
354068,62206,2,EA,1,100,0.549686
354118,62224,2,EA,1,100,0.549507
354169,62224,2,EA,1,100,0.549147
354219,62242,2,EA,1,100,0.549360
354270,62242,2,EA,1,100,0.549461
354320,62260,2,EA,1,100,0.549153
354371,62260,2,EA,1,100,0.550206
354421,62279,2,EA,1,100,0.549999
354472,62279,2,EA,1,100,0.549425
354522,62297,2,EA,1,100,0.549400
354573,62297,2,EA,1,100,0.549433
354623,62315,2,EA,1,100,0.549350
354674,62315,2,EA,1,100,0.549340
354724,62333,2,EA,1,100,0.549153
354775,62333,2,EA,1,100,0.549175
354825,62351,2,EA,1,100,0.548925
354876,62351,2,EA,1,100,0.549191
354926,62369,2,EA,1,100,0.548955
354977,62369,2,EA,1,100,0.549046
355027,62387,2,EA,1,100,0.549094
355078,62387,2,EA,1,100,0.549848
355128,62406,2,EA,1,100,0.549962
355179,62406,2,EA,1,100,0.549572
355229,62424,2,EA,1,100,0.548804
355280,62424,2,EA,1,100,0.550327
355330,62442,2,EA,1,100,0.549888
355381,62442,2,EA,1,100,0.549711
355414,62460,3,EA,1,100,0.549751
355448,62460,3,EA,1,100,0.550055
355482,62460,3,EA,1,100,0.549902
355532,62478,2,EA,1,100,0.550639
355583,62478,2,EA,1,100,0.550355
355633,62496,2,EA,1,100,0.550651
355684,62496,2,EA,1,100,0.551245
355734,62514,2,EA,1,100,0.551477
355785,62514,2,EA,1,100,0.550617
355835,62532,2,EA,1,100,0.551149
355886,62532,2,EA,1,100,0.551175
355936,62551,2,EA,1,100,0.551014
355987,62551,2,EA,1,100,0.551403
356037,62569,2,EA,1,100,0.551040
356088,62569,2,EA,1,100,0.550972
356138,62587,2,EA,1,100,0.551292
356189,62587,2,EA,1,100,0.550758
356239,62605,2,EA,1,100,0.550818
356290,62605,2,EA,1,100,0.551991
356340,62623,2,EA,1,100,0.551757
356391,62623,2,EA,1,100,0.551836
356441,62641,2,EA,1,100,0.551630
356492,62641,2,EA,1,100,0.552095
356542,62659,2,EA,1,100,0.551956
356593,62659,2,EA,1,100,0.552536
356643,62678,2,EA,1,100,0.551771
356694,62678,2,EA,1,100,0.552416
356744,62696,2,EA,1,100,0.552055
356795,62696,2,EA,1,100,0.552559
356845,62714,2,EA,1,100,0.552635
356896,62714,2,EA,1,100,0.553475
356929,62732,3,EA,1,100,0.553225
356963,62732,3,EA,1,100,0.553672
356997,62732,3,EA,1,100,0.553288
357047,62750,2,EA,1,100,0.553469
357098,62750,2,EA,1,100,0.553775
357148,62768,2,EA,1,100,0.553866
357199,62768,2,EA,1,100,0.553342
357249,62786,2,EA,1,100,0.554063
357300,62786,2,EA,1,100,0.554557
357350,62804,2,EA,1,100,0.553989
357401,62804,2,EA,1,100,0.556073
357451,62823,2,EA,1,100,0.555816
357502,62823,2,EA,1,100,0.555638
357552,62841,2,EA,1,100,0.555604
357603,62841,2,EA,1,100,0.556343
357653,62859,2,EA,1,100,0.556361
357704,62859,2,EA,1,100,0.556964
357754,62877,2,EA,1,100,0.557207
357805,62877,2,EA,1,100,0.556851
357855,62895,2,EA,1,100,0.557793
357906,62895,2,EA,1,100,0.558174
357956,62913,2,EA,1,100,0.558160
358007,62913,2,EA,1,100,0.559622
358057,62931,2,EA,1,100,0.559812
358108,62931,2,EA,1,100,0.559828
358158,62950,2,EA,1,100,0.559914
358209,62950,2,EA,1,100,0.560315
358259,62968,2,EA,1,100,0.560543
358310,62968,2,EA,1,100,0.561332
358360,62986,2,EA,1,100,0.560966
358411,62986,2,EA,1,100,0.561449
358461,63004,2,EA,1,100,0.561663
358512,63004,2,EA,1,100,0.562265
358545,63022,3,EA,1,100,0.561749
358579,63022,3,EA,1,100,0.562875
358613,63022,3,EA,1,100,0.563355
358663,63040,2,EA,1,100,0.563167
358714,63040,2,EA,1,100,0.563167
358764,63058,2,EA,1,100,0.563266
358815,63058,2,EA,1,100,0.563143
358865,63077,2,EA,1,100,0.563606
358916,63077,2,EA,1,100,0.563558
358966,63095,2,EA,1,100,0.562919
359017,63095,2,EA,1,100,0.563745
359067,63113,2,EA,1,100,0.563119
359118,63113,2,EA,1,100,0.563900
359168,63131,2,EA,1,100,0.563318
359219,63131,2,EA,1,100,0.563417
359269,63149,2,EA,1,100,0.563355
359320,63149,2,EA,1,100,0.564688
359370,63167,2,EA,1,100,0.564543
359421,63167,2,EA,1,100,0.564029
359471,63185,2,EA,1,100,0.563661
359522,63185,2,EA,1,100,0.564390
359572,63203,2,EA,1,100,0.563639
359623,63203,2,EA,1,100,0.564059
359673,63222,2,EA,1,100,0.563707
359724,63222,2,EA,1,100,0.563707
359774,63240,2,EA,1,100,0.563578
359825,63240,2,EA,1,100,0.563655
359875,63258,2,EA,1,100,0.563131
359926,63258,2,EA,1,100,0.563510
359959,63276,3,EA,1,100,0.563884
359993,63276,3,EA,1,100,0.564102
360027,63276,3,EA,1,100,0.564062
360077,63294,2,EA,1,100,0.563568
360128,63294,2,EA,1,100,0.563000
360178,63312,2,EA,1,100,0.563826
360229,63312,2,EA,1,100,0.563628
360279,63330,2,EA,1,100,0.563137
360330,63330,2,EA,1,100,0.563054
360380,63349,2,EA,1,100,0.562591
360431,63349,2,EA,1,100,0.562583
360481,63367,2,EA,1,100,0.562333
360532,63367,2,EA,1,100,0.562297
360582,63385,2,EA,1,100,0.562160
360633,63385,2,EA,1,100,0.563141
360683,63403,2,EA,1,100,0.562926
360734,63403,2,EA,1,100,0.563205
360784,63421,2,EA,1,100,0.562742
360835,63421,2,EA,1,100,0.562905
360885,63439,2,EA,1,100,0.562295
360936,63439,2,EA,1,100,0.562879
360986,63457,2,EA,1,100,0.562595
361037,63457,2,EA,1,100,0.562662
361087,63476,2,EA,1,100,0.562341
361138,63476,2,EA,1,100,0.562619
361188,63494,2,EA,1,100,0.562208
361239,63494,2,EA,1,100,0.562468
361289,63512,2,EA,1,100,0.562104
361340,63512,2,EA,1,100,0.562366
361390,63530,2,EA,1,100,0.562158
361441,63530,2,EA,1,100,0.563232
361491,63548,2,EA,1,100,0.563018
361542,63548,2,EA,1,100,0.562839
361575,63566,3,EA,1,100,0.562495
361609,63566,3,EA,1,100,0.562492
361643,63566,3,EA,1,100,0.562642
361693,63584,2,EA,1,100,0.562784
361744,63584,2,EA,1,100,0.561614
361794,63602,2,EA,1,100,0.562055
361845,63602,2,EA,1,100,0.562299
361895,63621,2,EA,1,100,0.561518
361946,63621,2,EA,1,100,0.561775
361996,63639,2,EA,1,100,0.561765
362047,63639,2,EA,1,100,0.561991
362097,63657,2,EA,1,100,0.561908
362148,63657,2,EA,1,100,0.561872
362198,63675,2,EA,1,100,0.562192
362249,63675,2,EA,1,100,0.562819
362299,63693,2,EA,1,100,0.561854
362350,63693,2,EA,1,100,0.562130
362400,63711,2,EA,1,100,0.561804
362451,63711,2,EA,1,100,0.562364
362501,63729,2,EA,1,100,0.561705
362552,63729,2,EA,1,100,0.561721
362602,63748,2,EA,1,100,0.561328
362653,63748,2,EA,1,100,0.561262
362703,63766,2,EA,1,100,0.561101
362754,63766,2,EA,1,100,0.561115
362804,63784,2,EA,1,100,0.560706
362855,63784,2,EA,1,100,0.561224
362905,63802,2,EA,1,100,0.561532
362956,63802,2,EA,1,100,0.561916
362989,63820,3,EA,1,100,0.561377
363023,63820,3,EA,1,100,0.561203
363057,63820,3,EA,1,100,0.560819
363107,63838,2,EA,1,100,0.561604
363158,63838,2,EA,1,100,0.561506
363208,63856,2,EA,1,100,0.560954
363259,63856,2,EA,1,100,0.560668
363309,63874,2,EA,1,100,0.560722
363360,63874,2,EA,1,100,0.560555
363410,63893,2,EA,1,100,0.560686
363461,63893,2,EA,1,100,0.560444
363511,63911,2,EA,1,100,0.560561
363562,63911,2,EA,1,100,0.561459
363612,63929,2,EA,1,100,0.561459
363663,63929,2,EA,1,100,0.561032
363713,63947,2,EA,1,100,0.560730
363764,63947,2,EA,1,100,0.561246
363814,63965,2,EA,1,100,0.561014
363865,63965,2,EA,1,100,0.560851
363915,63983,2,EA,1,100,0.561000
363966,63983,2,EA,1,100,0.561530
364016,64001,2,EA,1,100,0.561477
364067,64001,2,EA,1,100,0.562164
364117,64020,2,EA,1,100,0.561878
364168,64020,2,EA,1,100,0.562601
364218,64038,2,EA,1,100,0.562372
364269,64038,2,EA,1,100,0.563320
364319,64056,2,EA,1,100,0.564172
364370,64056,2,EA,1,100,0.564053
364420,64074,2,EA,1,100,0.563387
364471,64074,2,EA,1,100,0.564166
364504,64092,3,EA,1,100,0.564062
364538,64092,3,EA,1,100,0.564287
364572,64092,3,EA,1,100,0.564499
364633,64113,3,EA,1,100,0.564472
364694,64113,3,EA,1,100,0.563941
364755,64113,3,EA,1,100,0.564416
364805,64134,2,EA,1,100,0.564628
364856,64134,2,EA,1,100,0.564384
364906,64151,2,EA,1,100,0.565002
364957,64151,2,EA,1,100,0.564462
365007,64169,2,EA,1,100,0.564551
365058,64169,2,EA,1,100,0.566122
365091,64187,3,EA,1,100,0.565135
365125,64187,3,EA,1,100,0.564692
365159,64187,3,EA,1,100,0.564897
365209,64205,2,EA,1,100,0.565020
365260,64205,2,EA,1,100,0.564758
365310,64223,2,EA,1,100,0.564545
365361,64223,2,EA,1,100,0.564291
365411,64241,2,EA,1,100,0.564136
365462,64241,2,EA,1,100,0.564372
365512,64259,2,EA,1,100,0.564166
365563,64259,2,EA,1,100,0.564305
365613,64278,2,EA,1,100,0.563886
365664,64278,2,EA,1,100,0.564190
365714,64296,2,EA,1,100,0.564239
365765,64296,2,EA,1,100,0.565063
365815,64314,2,EA,1,100,0.564243
365866,64314,2,EA,1,100,0.564142
365916,64332,2,EA,1,100,0.564209
365967,64332,2,EA,1,100,0.564501
366017,64350,2,EA,1,100,0.564136
366068,64350,2,EA,1,100,0.564327
366118,64368,2,EA,1,100,0.563659
366169,64368,2,EA,1,100,0.563600
366219,64386,2,EA,1,100,0.563405
366270,64386,2,EA,1,100,0.563961
366320,64405,2,EA,1,100,0.563357
366371,64405,2,EA,1,100,0.563641
366421,64423,2,EA,1,100,0.563405
366472,64423,2,EA,1,100,0.565494
366522,64441,2,EA,1,100,0.564337
366573,64441,2,EA,1,100,0.564136
366623,64459,2,EA,1,100,0.563479
366674,64459,2,EA,1,100,0.563804
366707,64477,3,EA,1,100,0.563663
366741,64477,3,EA,1,100,0.563892
366775,64477,3,EA,1,100,0.563272
366825,64495,2,EA,1,100,0.563095
366876,64495,2,EA,1,100,0.563040
366926,64513,2,EA,1,100,0.562926
366977,64513,2,EA,1,100,0.562599
367027,64531,2,EA,1,100,0.562547
367078,64531,2,EA,1,100,0.562962
367128,64550,2,EA,1,100,0.562541
367179,64550,2,EA,1,100,0.564628
367229,64568,2,EA,1,100,0.563622
367280,64568,2,EA,1,100,0.563359
367330,64586,2,EA,1,100,0.563000
367381,64586,2,EA,1,100,0.563067
367431,64604,2,EA,1,100,0.562728
367482,64604,2,EA,1,100,0.563423
367532,64622,2,EA,1,100,0.562102
367583,64622,2,EA,1,100,0.561987
367633,64640,2,EA,1,100,0.561304
367684,64640,2,EA,1,100,0.561510
367732,64658,4,EA,1,100,0.561403
367780,64658,4,EA,1,100,0.561878
367828,64658,4,EA,1,100,0.561340
367877,64658,4,EA,1,100,0.561079
367927,64677,2,EA,1,100,0.560891
367978,64677,2,EA,1,100,0.560962
368028,64695,2,EA,1,100,0.562376
368079,64695,2,EA,1,100,0.562654
368129,64713,2,EA,1,100,0.561757
368180,64713,2,EA,1,100,0.561465
368230,64731,2,EA,1,100,0.561218
368281,64731,2,EA,1,100,0.561924
368331,64749,2,EA,1,100,0.560692
368382,64749,2,EA,1,100,0.561054
368415,64767,3,EA,1,100,0.559576
368449,64767,3,EA,1,100,0.558645
368483,64767,3,EA,1,100,0.557358
368533,64786,2,EA,1,100,0.557137
368584,64786,2,EA,1,100,0.556144
368634,64804,2,EA,1,100,0.555638
368685,64804,2,EA,1,100,0.555314
368735,64822,2,EA,1,100,0.554613
368786,64822,2,EA,1,100,0.553977
368836,64840,2,EA,1,100,0.553999
368887,64840,2,EA,1,100,0.553572
368937,64858,2,EA,1,100,0.552520
368988,64858,2,EA,1,100,0.552738
