42391,6710,3,ER,1,100,1.932184
42391,6710,3,ER,1,100,1.900763
42391,6710,3,ER,1,100,1.897339
42441,6728,2,ER,1,100,1.910834
42491,6728,2,ER,1,100,1.910834
42525,6746,3,ER,1,100,1.915265
42559,6746,3,ER,1,100,1.908820
42593,6746,3,ER,1,100,1.880621
42643,6764,2,ER,1,100,1.895929
42694,6764,2,ER,1,100,1.914258
42744,6782,2,ER,1,100,1.898950
42794,6782,2,ER,1,100,1.906201
42844,6800,2,ER,1,100,1.928156
42895,6800,2,ER,1,100,1.920502
42945,6818,2,ER,1,100,1.935004
42996,6818,2,ER,1,100,1.939636
43046,6836,2,ER,1,100,1.912445
43097,6836,2,ER,1,100,1.944672
43148,6855,2,ER,1,100,1.938629
43199,6855,2,ER,1,100,1.911237
43249,6873,2,ER,1,100,1.910834
43299,6873,2,ER,1,100,1.935004
43349,6891,2,ER,1,100,1.922113
43400,6891,2,ER,1,100,1.963806
43450,6909,2,ER,1,100,1.966827
43501,6909,2,ER,1,100,1.947491
43551,6927,2,ER,1,100,1.957764
43602,6927,2,ER,1,100,1.937622
43652,6945,2,ER,1,100,1.914056
43703,6945,2,ER,1,100,1.921912
43754,6963,2,ER,1,100,1.929565
43806,6963,2,ER,1,100,1.905798
43855,6982,2,ER,1,100,1.906604
43905,6982,2,ER,1,100,1.916071
43955,7000,2,ER,1,100,1.916272
44006,7000,2,ER,1,100,1.936615
44040,7018,3,ER,1,100,1.931982
44074,7018,3,ER,1,100,1.883441
44108,7018,3,ER,1,100,1.888275
44158,7036,2,ER,1,100,1.896332
44209,7036,2,ER,1,100,1.869946
44259,7054,2,ER,1,100,1.879413
44309,7054,2,ER,1,100,1.897540
44359,7072,2,ER,1,100,1.899353
44410,7072,2,ER,1,100,1.907208
44461,7090,2,ER,1,100,1.907410
44513,7090,2,ER,1,100,1.890088
44562,7108,2,ER,1,100,1.894720
44612,7108,2,ER,1,100,1.921912
44662,7127,2,ER,1,100,1.925738
44713,7127,2,ER,1,100,1.930975
44763,7145,2,ER,1,100,1.925134
44814,7145,2,ER,1,100,1.897137
44865,7163,2,ER,1,100,1.901569
44916,7163,2,ER,1,100,1.904993
44966,7181,2,ER,1,100,1.893713
45016,7181,2,ER,1,100,1.914862
45066,7199,2,ER,1,100,1.931378
45117,7199,2,ER,1,100,1.886060
45167,7217,2,ER,1,100,1.900964
45218,7217,2,ER,1,100,1.910229
45268,7235,2,ER,1,100,1.903784
45319,7235,2,ER,1,100,1.904590
45370,7254,2,ER,1,100,1.898950
45422,7254,2,ER,1,100,1.866522
45471,7272,2,ER,1,100,1.870148
45521,7272,2,ER,1,100,1.877399
45571,7290,2,ER,1,100,1.842352
45622,7290,2,ER,1,100,1.839331
45656,7308,3,ER,1,100,1.840540
45690,7308,3,ER,1,100,1.833087
45724,7308,3,ER,1,100,1.841949
45774,7326,2,ER,1,100,1.860480
45825,7326,2,ER,1,100,1.860480
45875,7344,2,ER,1,100,1.873370
45925,7344,2,ER,1,100,1.893915
45975,7362,2,ER,1,100,1.888275
46026,7362,2,ER,1,100,1.894519
46077,7380,2,ER,1,100,1.873975
46128,7380,2,ER,1,100,1.856250
46178,7399,2,ER,1,100,1.849805
46228,7399,2,ER,1,100,1.882031
46278,7417,2,ER,1,100,1.871155
46329,7417,2,ER,1,100,1.874377
46380,7435,2,ER,1,100,1.876593
46431,7435,2,ER,1,100,1.873975
46481,7453,2,ER,1,100,1.875989
46531,7453,2,ER,1,100,1.900360
46581,7471,2,ER,1,100,1.890088
46632,7471,2,ER,1,100,1.898144
46682,7489,2,ER,1,100,1.912848
46733,7489,2,ER,1,100,1.902777
46784,7507,2,ER,1,100,1.915869
46836,7507,2,ER,1,100,1.916071
46885,7526,2,ER,1,100,1.898144
46935,7526,2,ER,1,100,1.899554
46985,7544,2,ER,1,100,1.913049
47036,7544,2,ER,1,100,1.898749
47070,7562,3,ER,1,100,1.897339
47104,7562,3,ER,1,100,1.919897
47138,7562,3,ER,1,100,1.890289
47188,7580,2,ER,1,100,1.904187
47239,7580,2,ER,1,100,1.901569
47289,7598,2,ER,1,100,1.915869
47339,7598,2,ER,1,100,1.915668
47389,7616,2,ER,1,100,1.904791
47440,7616,2,ER,1,100,1.920099
47490,7634,2,ER,1,100,1.935205
47541,7634,2,ER,1,100,1.914258
47592,7653,2,ER,1,100,1.901569
47643,7653,2,ER,1,100,1.914459
47693,7671,2,ER,1,100,1.909424
47743,7671,2,ER,1,100,1.912646
47793,7689,2,ER,1,100,1.915265
47844,7689,2,ER,1,100,1.883643
47897,7710,3,ER,1,100,1.900159
47950,7710,3,ER,1,100,1.918689
48003,7710,3,ER,1,100,1.902173
48053,7730,2,ER,1,100,1.915064
48103,7730,2,ER,1,100,1.905798
48153,7748,2,ER,1,100,1.885858
48204,7748,2,ER,1,100,1.891699
48254,7766,2,ER,1,100,1.905798
48305,7766,2,ER,1,100,1.884650
48355,7785,2,ER,1,100,1.883643
48406,7785,2,ER,1,100,1.924530
48456,7803,2,ER,1,100,1.911639
48507,7803,2,ER,1,100,1.937823
48541,7821,3,ER,1,100,1.944672
48575,7821,3,ER,1,100,1.908014
48609,7821,3,ER,1,100,1.902777
48659,7839,2,ER,1,100,1.916675
48709,7839,2,ER,1,100,1.891699
48760,7857,2,ER,1,100,1.902374
48811,7857,2,ER,1,100,1.915668
48861,7875,2,ER,1,100,1.891296
48912,7875,2,ER,1,100,1.904187
48962,7893,2,ER,1,100,1.921509
49012,7893,2,ER,1,100,1.915466
49062,7911,2,ER,1,100,1.910834
49113,7911,2,ER,1,100,1.932587
49163,7930,2,ER,1,100,1.930975
49214,7930,2,ER,1,100,1.938629
49264,7948,2,ER,1,100,1.938226
49315,7948,2,ER,1,100,1.910632
49366,7966,2,ER,1,100,1.914056
49417,7966,2,ER,1,100,1.926343
49467,7984,2,ER,1,100,1.909625
49517,7984,2,ER,1,100,1.919293
49567,8002,2,ER,1,100,1.930573
49618,8002,2,ER,1,100,1.918085
49669,8020,2,ER,1,100,1.926947
49720,8020,2,ER,1,100,1.936816
49770,8038,2,ER,1,100,1.907410
49820,8038,2,ER,1,100,1.912445
49870,8057,2,ER,1,100,1.925134
49921,8057,2,ER,1,100,1.916675
49971,8075,2,ER,1,100,1.924127
50022,8075,2,ER,1,100,1.928961
50072,8093,2,ER,1,100,1.907410
50123,8093,2,ER,1,100,1.902576
50157,8111,3,ER,1,100,1.917883
50191,8111,3,ER,1,100,1.899353
50226,8111,3,ER,1,100,1.893512
50275,8129,2,ER,1,100,1.908417
50325,8129,2,ER,1,100,1.894922
50375,8147,2,ER,1,100,1.897339
50426,8147,2,ER,1,100,1.914862
50476,8165,2,ER,1,100,1.914862
50527,8165,2,ER,1,100,1.933191
50577,8184,2,ER,1,100,1.941046
50628,8184,2,ER,1,100,1.914862
50678,8202,2,ER,1,100,1.910028
50729,8202,2,ER,1,100,1.958771
50779,8220,2,ER,1,100,1.964612
50830,8220,2,ER,1,100,1.979718
50881,8238,2,ER,1,100,1.982739
50932,8238,2,ER,1,100,1.945074
50982,8256,2,ER,1,100,1.912445
51032,8256,2,ER,1,100,1.906403
51082,8274,2,ER,1,100,1.876392
51133,8274,2,ER,1,100,1.892908
51184,8292,2,ER,1,100,1.912445
51236,8292,2,ER,1,100,1.925940
51285,8310,2,ER,1,100,1.921106
51335,8310,2,ER,1,100,1.904388
51385,8329,2,ER,1,100,1.872565
51436,8329,2,ER,1,100,1.897742
51486,8347,2,ER,1,100,1.906403
51537,8347,2,ER,1,100,1.933795
51571,8365,3,ER,1,100,1.905597
51605,8365,3,ER,1,100,1.919293
51639,8365,3,ER,1,100,1.881427
51689,8383,2,ER,1,100,1.918689
51739,8383,2,ER,1,100,1.907611
51789,8401,2,ER,1,100,1.868335
51840,8401,2,ER,1,100,1.872565
51891,8419,2,ER,1,100,1.893311
51943,8419,2,ER,1,100,1.890894
51992,8437,2,ER,1,100,1.911639
52042,8437,2,ER,1,100,1.924731
52092,8456,2,ER,1,100,1.891901
52143,8456,2,ER,1,100,1.926141
52193,8474,2,ER,1,100,1.944672
52244,8474,2,ER,1,100,1.918890
52294,8492,2,ER,1,100,1.885657
52345,8492,2,ER,1,100,1.878809
52396,8510,2,ER,1,100,1.872565
52447,8510,2,ER,1,100,1.912042
52497,8528,2,ER,1,100,1.897943
52547,8528,2,ER,1,100,1.916071
52597,8546,2,ER,1,100,1.899353
52648,8546,2,ER,1,100,1.908014
52698,8564,2,ER,1,100,1.888879
52749,8564,2,ER,1,100,1.895526
52800,8583,2,ER,1,100,1.896735
52852,8583,2,ER,1,100,1.878607
52901,8601,2,ER,1,100,1.882031
52951,8601,2,ER,1,100,1.901166
53001,8619,2,ER,1,100,1.900964
53052,8619,2,ER,1,100,1.908215
53102,8637,2,ER,1,100,1.915064
53153,8637,2,ER,1,100,1.912848
53203,8655,2,ER,1,100,1.914661
53254,8655,2,ER,1,100,1.942053
53288,8673,3,ER,1,100,1.922113
53322,8673,3,ER,1,100,1.905194
53356,8673,3,ER,1,100,1.922516
53406,8691,2,ER,1,100,1.901367
53456,8691,2,ER,1,100,1.906000
53506,8709,2,ER,1,100,1.890894
53557,8709,2,ER,1,100,1.872766
53607,8728,2,ER,1,100,1.878204
53658,8728,2,ER,1,100,1.892102
53708,8746,2,ER,1,100,1.876392
53759,8746,2,ER,1,100,1.880621
53809,8764,2,ER,1,100,1.885052
53860,8764,2,ER,1,100,1.898950
53911,8782,2,ER,1,100,1.941650
53962,8782,2,ER,1,100,1.952325
54012,8800,2,ER,1,100,1.899756
54062,8800,2,ER,1,100,1.897540
54112,8818,2,ER,1,100,1.896130
54163,8818,2,ER,1,100,1.888476
54214,8836,2,ER,1,100,1.899152
54265,8836,2,ER,1,100,1.904187
54315,8855,2,ER,1,100,1.889484
54365,8855,2,ER,1,100,1.894720
54415,8873,2,ER,1,100,1.910028
54466,8873,2,ER,1,100,1.930170
54516,8891,2,ER,1,100,1.923321
54567,8891,2,ER,1,100,1.920905
54617,8909,2,ER,1,100,1.902979
54668,8909,2,ER,1,100,1.918286
54702,8927,3,ER,1,100,1.931580
54736,8927,3,ER,1,100,1.923724
54771,8927,3,ER,1,100,1.935406
54821,8945,2,ER,1,100,1.954742
54871,8945,2,ER,1,100,1.922113
54921,8963,2,ER,1,100,1.928961
54971,8963,2,ER,1,100,1.944470
55021,8981,2,ER,1,100,1.904590
55072,8981,2,ER,1,100,1.911639
55123,9000,2,ER,1,100,1.935004
55175,9000,2,ER,1,100,1.920905
55224,9018,2,ER,1,100,1.936816
55274,9018,2,ER,1,100,1.925537
55324,9036,2,ER,1,100,1.902374
55375,9036,2,ER,1,100,1.915869
55425,9054,2,ER,1,100,1.926544
55476,9054,2,ER,1,100,1.924731
55526,9072,2,ER,1,100,1.929364
55577,9072,2,ER,1,100,1.933594
55627,9090,2,ER,1,100,1.937622
55678,9090,2,ER,1,100,1.931781
55728,9108,2,ER,1,100,1.925134
55779,9108,2,ER,1,100,1.911639
55830,9127,2,ER,1,100,1.909424
55881,9127,2,ER,1,100,1.921912
55931,9145,2,ER,1,100,1.914056
55981,9145,2,ER,1,100,1.914056
56031,9163,2,ER,1,100,1.915064
56082,9163,2,ER,1,100,1.889282
56132,9181,2,ER,1,100,1.908417
56183,9181,2,ER,1,100,1.906000
56217,9199,3,ER,1,100,1.884851
56251,9199,3,ER,1,100,1.884448
56285,9199,3,ER,1,100,1.886462
56335,9217,2,ER,1,100,1.880219
56385,9217,2,ER,1,100,1.880219
56436,9235,2,ER,1,100,1.899756
56488,9235,2,ER,1,100,1.886462
56537,9254,2,ER,1,100,1.884045
56587,9254,2,ER,1,100,1.905597
56637,9272,2,ER,1,100,1.883844
56688,9272,2,ER,1,100,1.878607
56738,9290,2,ER,1,100,1.874176
56789,9290,2,ER,1,100,1.869141
56839,9308,2,ER,1,100,1.885254
56890,9308,2,ER,1,100,1.888476
56941,9326,2,ER,1,100,1.881226
56992,9326,2,ER,1,100,1.888476
57042,9344,2,ER,1,100,1.885858
57092,9344,2,ER,1,100,1.874176
57142,9362,2,ER,1,100,1.891901
57193,9362,2,ER,1,100,1.879413
57244,9380,2,ER,1,100,1.887469
57295,9380,2,ER,1,100,1.925336
57345,9399,2,ER,1,100,1.887671
57395,9399,2,ER,1,100,1.888275
57445,9417,2,ER,1,100,1.906805
57496,9417,2,ER,1,100,1.888074
57546,9435,2,ER,1,100,1.886261
57597,9435,2,ER,1,100,1.903583
57647,9453,2,ER,1,100,1.899152
57698,9453,2,ER,1,100,1.896332
57732,9471,3,ER,1,100,1.910229
57766,9471,3,ER,1,100,1.883441
57801,9471,3,ER,1,100,1.900763
57851,9489,2,ER,1,100,1.913452
57901,9489,2,ER,1,100,1.894116
57951,9507,2,ER,1,100,1.901770
58001,9507,2,ER,1,100,1.930774
58051,9526,2,ER,1,100,1.913251
58102,9526,2,ER,1,100,1.913049
58152,9544,2,ER,1,100,1.934399
58203,9544,2,ER,1,100,1.900159
58253,9562,2,ER,1,100,1.919495
58304,9562,2,ER,1,100,1.929767
58354,9580,2,ER,1,100,1.897742
58405,9580,2,ER,1,100,1.904791
58456,9598,2,ER,1,100,1.919293
58507,9598,2,ER,1,100,1.927551
58557,9616,2,ER,1,100,1.923321
58607,9616,2,ER,1,100,1.941650
58657,9634,2,ER,1,100,1.932587
58708,9634,2,ER,1,100,1.958368
58754,9656,4,ER,1,100,1.969043
58800,9656,4,ER,1,100,1.946887
58846,9656,4,ER,1,100,1.945679
58892,9656,4,ER,1,100,1.943463
58944,9675,2,ER,1,100,1.886462
58996,9675,2,ER,1,100,1.885455
59046,9694,2,ER,1,100,1.905597
59097,9694,2,ER,1,100,1.867529
59147,9712,2,ER,1,100,1.858868
59198,9712,2,ER,1,100,1.862091
59249,9730,2,ER,1,100,1.846783
59300,9730,2,ER,1,100,1.850610
59350,9748,2,ER,1,100,1.866321
59400,9748,2,ER,1,100,1.881427
59450,9766,2,ER,1,100,1.872565
59501,9766,2,ER,1,100,1.863501
59551,9785,2,ER,1,100,1.846381
59602,9785,2,ER,1,100,1.835907
59636,9803,3,ER,1,100,1.850812
59670,9803,3,ER,1,100,1.824225
59705,9803,3,ER,1,100,1.824426
59755,9821,2,ER,1,100,1.828253
59805,9821,2,ER,1,100,1.821204
59855,9839,2,ER,1,100,1.870148
59905,9839,2,ER,1,100,1.883441
59955,9857,2,ER,1,100,1.861487
60006,9857,2,ER,1,100,1.900159
60057,9875,2,ER,1,100,1.955145
60108,9875,2,ER,1,100,1.965619
60158,9893,2,ER,1,100,1.930573
60208,9893,2,ER,1,100,2.803912
60258,9912,2,ER,1,100,2.941077
60309,9912,2,ER,1,100,2.840369
60359,9930,2,ER,1,100,2.752753
60410,9930,2,ER,1,100,2.679840
60461,9948,2,ER,1,100,2.535626
60512,9948,2,ER,1,100,2.357373
60562,9966,2,ER,1,100,2.040143
60612,9966,2,ER,1,100,1.464697
60662,9984,2,ER,1,100,1.495312
60713,9984,2,ER,1,100,1.524316
60764,10002,2,ER,1,100,1.549493
60815,10002,2,ER,1,100,1.590179
60865,10020,2,ER,1,100,1.593201
60915,10020,2,ER,1,100,1.619989
60965,10038,2,ER,1,100,1.630664
61016,10038,2,ER,1,100,1.632477
61066,10057,2,ER,1,100,1.652417
61117,10057,2,ER,1,100,1.677997
61151,10075,3,ER,1,100,1.663293
61185,10075,3,ER,1,100,1.701965
61219,10075,3,ER,1,100,1.711230
61269,10093,2,ER,1,100,1.694110
61319,10093,2,ER,1,100,1.724524
61369,10111,2,ER,1,100,1.742047
61420,10111,2,ER,1,100,1.741846
61470,10129,2,ER,1,100,1.777295
61521,10129,2,ER,1,100,1.799451
61571,10147,2,ER,1,100,1.772662
61622,10147,2,ER,1,100,1.779913
61672,10165,2,ER,1,100,1.807306
61723,10165,2,ER,1,100,1.810931
61773,10184,2,ER,1,100,1.813147
61824,10184,2,ER,1,100,1.801263
61875,10202,2,ER,1,100,1.774475
61926,10202,2,ER,1,100,1.869946
61976,10220,2,ER,1,100,1.915265
62026,10220,2,ER,1,100,1.891498
62076,10238,2,ER,1,100,1.899756
62127,10238,2,ER,1,100,1.906403
62177,10256,2,ER,1,100,1.882233
62228,10256,2,ER,1,100,1.853027
62279,10274,2,ER,1,100,1.916473
62331,10274,2,ER,1,100,1.666113
62380,10292,2,ER,1,100,1.702167
62430,10292,2,ER,1,100,1.979919
62480,10310,2,ER,1,100,1.947290
62531,10310,2,ER,1,100,1.961389
62581,10329,2,ER,1,100,1.994220
62632,10329,2,ER,1,100,1.965015
62666,10347,3,ER,1,100,1.970856
62700,10347,3,ER,1,100,1.989184
62735,10347,3,ER,1,100,1.979718
62785,10365,2,ER,1,100,1.973474
62835,10365,2,ER,1,100,1.963605
62885,10383,2,ER,1,100,1.935809
62936,10383,2,ER,1,100,1.943463
62986,10401,2,ER,1,100,1.937421
63036,10401,2,ER,1,100,1.915265
63086,10419,2,ER,1,100,1.921710
63137,10419,2,ER,1,100,1.935608
63187,10437,2,ER,1,100,1.876794
63238,10437,2,ER,1,100,1.868939
63288,10456,2,ER,1,100,1.896735
63339,10456,2,ER,1,100,1.867731
63389,10474,2,ER,1,100,1.833087
63440,10474,2,ER,1,100,1.578900
63491,10492,2,ER,1,100,1.467114
63542,10492,2,ER,1,100,1.417767
63592,10510,2,ER,1,100,1.620392
63642,10510,2,ER,1,100,1.538416
63692,10528,2,ER,1,100,1.584137
63743,10528,2,ER,1,100,1.795825
63794,10546,2,ER,1,100,1.847186
63845,10546,2,ER,1,100,1.931982
63895,10564,2,ER,1,100,1.952124
63945,10564,2,ER,1,100,1.964410
63995,10583,2,ER,1,100,1.974280
64046,10583,2,ER,1,100,1.957562
64096,10601,2,ER,1,100,1.932587
64147,10601,2,ER,1,100,1.920703
64181,10619,3,ER,1,100,1.936816
64215,10619,3,ER,1,100,1.919495
64249,10619,3,ER,1,100,1.956555
64299,10637,2,ER,1,100,1.901569
64349,10637,2,ER,1,100,1.911035
64399,10655,2,ER,1,100,1.960181
64450,10655,2,ER,1,100,1.965015
64500,10673,2,ER,1,100,1.850610
64551,10673,2,ER,1,100,1.694513
64602,10691,2,ER,1,100,1.533581
64653,10691,2,ER,1,100,1.863299
64703,10709,2,ER,1,100,2.143268
64753,10709,2,ER,1,100,2.049005
64803,10728,2,ER,1,100,1.496118
64854,10728,2,ER,1,100,1.332165
64904,10746,2,ER,1,100,1.362177
64955,10746,2,ER,1,100,1.420386
65006,10764,2,ER,1,100,1.507800
65057,10764,2,ER,1,100,1.533380
65107,10782,2,ER,1,100,1.661279
65158,10782,2,ER,1,100,1.857458
65208,10800,2,ER,1,100,1.926746
65258,10800,2,ER,1,100,1.938226
65308,10818,2,ER,1,100,1.941248
65359,10818,2,ER,1,100,1.931781
65409,10836,2,ER,1,100,1.908215
65460,10836,2,ER,1,100,1.910028
65510,10855,2,ER,1,100,1.915064
65561,10855,2,ER,1,100,1.850409
65611,10873,2,ER,1,100,1.845776
65662,10873,2,ER,1,100,1.857257
65712,10891,2,ER,1,100,1.857660
65763,10891,2,ER,1,100,1.886462
65801,10909,4,ER,1,100,1.989184
65839,10909,4,ER,1,100,1.955548
65877,10909,4,ER,1,100,1.966827
65916,10909,4,ER,1,100,1.933392
65967,10927,2,ER,1,100,1.934198
66018,10927,2,ER,1,100,1.938830
66069,10945,2,ER,1,100,1.935004
66120,10945,2,ER,1,100,1.916473
66169,10963,2,ER,1,100,1.916675
66219,10963,2,ER,1,100,1.919293
66269,10982,2,ER,1,100,1.905194
66320,10982,2,ER,1,100,1.932989
66371,11000,2,ER,1,100,1.930975
66422,11000,2,ER,1,100,1.962598
66472,11018,2,ER,1,100,2.032690
66522,11018,2,ER,1,100,2.059076
66572,11036,2,ER,1,100,2.006305
66623,11036,2,ER,1,100,2.012952
66673,11054,2,ER,1,100,1.990796
66724,11054,2,ER,1,100,2.022821
66774,11072,2,ER,1,100,1.951318
66825,11072,2,ER,1,100,1.924329
66875,11090,2,ER,1,100,1.877399
66926,11090,2,ER,1,100,1.933997
66976,11109,2,ER,1,100,1.880420
67027,11109,2,ER,1,100,1.848193
67077,11127,2,ER,1,100,1.860883
67128,11127,2,ER,1,100,1.837518
67178,11145,2,ER,1,100,1.861890
67229,11145,2,ER,1,100,1.904187
67263,11163,3,ER,1,100,1.892505
67297,11163,3,ER,1,100,1.843158
67332,11163,3,ER,1,100,1.820599
67381,11181,2,ER,1,100,1.800458
67431,11181,2,ER,1,100,1.798645
67481,11199,2,ER,1,100,1.800256
67532,11199,2,ER,1,100,1.782532
67583,11217,2,ER,1,100,1.784747
67634,11217,2,ER,1,100,1.808716
67684,11235,2,ER,1,100,1.790790
67734,11235,2,ER,1,100,1.795221
67784,11254,2,ER,1,100,1.804688
67835,11254,2,ER,1,100,1.864508
67885,11272,2,ER,1,100,1.898950
67936,11272,2,ER,1,100,1.905396
67987,11290,2,ER,1,100,1.859473
68038,11290,2,ER,1,100,1.867932
68088,11308,2,ER,1,100,1.894519
68138,11308,2,ER,1,100,1.870752
68188,11326,2,ER,1,100,1.856049
68239,11326,2,ER,1,100,1.860883
68289,11344,2,ER,1,100,1.839331
68340,11344,2,ER,1,100,1.851013
68390,11362,2,ER,1,100,1.878809
68441,11362,2,ER,1,100,1.914862
68491,11381,2,ER,1,100,1.961591
68542,11381,2,ER,1,100,1.967633
68592,11399,2,ER,1,100,1.908820
68643,11399,2,ER,1,100,1.892505
68677,11417,3,ER,1,100,1.895526
68711,11417,3,ER,1,100,1.868939
68745,11417,3,ER,1,100,1.853027
68795,11435,2,ER,1,100,1.842151
68845,11435,2,ER,1,100,1.805292
68895,11453,2,ER,1,100,1.796027
68946,11453,2,ER,1,100,1.820801
68996,11471,2,ER,1,100,1.845172
69047,11471,2,ER,1,100,1.930573
69098,11489,2,ER,1,100,1.885657
69149,11489,2,ER,1,100,1.812140
69199,11508,2,ER,1,100,1.843762
69249,11508,2,ER,1,100,1.843158
69299,11526,2,ER,1,100,1.884448
69350,11526,2,ER,1,100,1.867126
69400,11544,2,ER,1,100,1.904187
69451,11544,2,ER,1,100,1.861285
69501,11562,2,ER,1,100,1.878809
69552,11562,2,ER,1,100,1.925537
69602,11580,2,ER,1,100,1.948901
69653,11580,2,ER,1,100,1.955750
69706,11601,3,ER,1,100,1.938830
69759,11601,3,ER,1,100,1.930170
69813,11601,3,ER,1,100,1.930573
69862,11621,2,ER,1,100,1.939838
69912,11621,2,ER,1,100,1.913251
69962,11640,2,ER,1,100,1.906805
70013,11640,2,ER,1,100,1.882837
70063,11658,2,ER,1,100,1.953131
70114,11658,2,ER,1,100,2.393225
70148,11676,3,ER,1,100,2.485675
70182,11676,3,ER,1,100,2.419409
70217,11676,3,ER,1,100,2.359790
70266,11694,2,ER,1,100,2.283655
70316,11694,2,ER,1,100,2.185766
70366,11712,2,ER,1,100,2.061090
70417,11712,2,ER,1,100,2.065320
70467,11730,2,ER,1,100,2.014764
70518,11730,2,ER,1,100,1.977502
70568,11748,2,ER,1,100,1.965820
70619,11748,2,ER,1,100,1.959375
70669,11766,2,ER,1,100,1.939032
70720,11766,2,ER,1,100,1.968842
70770,11785,2,ER,1,100,1.992206
70821,11785,2,ER,1,100,1.987170
70872,11803,2,ER,1,100,1.956555
70923,11803,2,ER,1,100,1.935004
70973,11821,2,ER,1,100,1.958771
71023,11821,2,ER,1,100,1.963202
71073,11839,2,ER,1,100,1.918085
71124,11839,2,ER,1,100,1.915064
71174,11857,2,ER,1,100,1.912646
71225,11857,2,ER,1,100,1.892102
71275,11875,2,ER,1,100,1.883038
71326,11875,2,ER,1,100,1.904187
71376,11893,2,ER,1,100,1.955347
71427,11893,2,ER,1,100,1.980927
71477,11912,2,ER,1,100,1.971661
71528,11912,2,ER,1,100,1.926141
71562,11930,3,ER,1,100,1.935004
71596,11930,3,ER,1,100,1.946686
71630,11930,3,ER,1,100,1.919897
71680,11948,2,ER,1,100,1.905194
71731,11948,2,ER,1,100,1.913452
71781,11966,2,ER,1,100,1.878809
71831,11966,2,ER,1,100,1.876190
71881,11984,2,ER,1,100,1.892908
71932,11984,2,ER,1,100,1.942657
71983,12002,2,ER,1,100,1.951520
72034,12002,2,ER,1,100,1.929364
72084,12020,2,ER,1,100,1.887469
72134,12020,2,ER,1,100,1.921106
72184,12039,2,ER,1,100,1.935809
72235,12039,2,ER,1,100,1.921710
72285,12057,2,ER,1,100,1.906201
72336,12057,2,ER,1,100,1.874377
72387,12075,2,ER,1,100,1.868536
72438,12075,2,ER,1,100,1.871759
72488,12093,2,ER,1,100,1.971460
72538,12093,2,ER,1,100,2.023224
72588,12111,2,ER,1,100,2.003485
72639,12111,2,ER,1,100,1.979517
72689,12129,2,ER,1,100,1.930975
72740,12129,2,ER,1,100,1.952124
72790,12147,2,ER,1,100,1.949707
72841,12147,2,ER,1,100,1.918689
72892,12165,2,ER,1,100,1.879211
72943,12165,2,ER,1,100,1.863501
72993,12184,2,ER,1,100,1.841748
73043,12184,2,ER,1,100,1.834497
73093,12202,2,ER,1,100,1.914056
73144,12202,2,ER,1,100,1.958771
73178,12220,3,ER,1,100,1.948901
73212,12220,3,ER,1,100,1.926343
73247,12220,3,ER,1,100,1.893915
73297,12238,2,ER,1,100,1.907812
73347,12238,2,ER,1,100,1.914862
73397,12256,2,ER,1,100,1.895526
73447,12256,2,ER,1,100,1.882837
73497,12274,2,ER,1,100,1.875183
73548,12274,2,ER,1,100,1.860681
73599,12292,2,ER,1,100,1.869543
73650,12292,2,ER,1,100,1.847992
73700,12311,2,ER,1,100,1.843762
73750,12311,2,ER,1,100,1.937823
73800,12329,2,ER,1,100,1.954541
73851,12329,2,ER,1,100,1.936011
73902,12347,2,ER,1,100,1.938830
73953,12347,2,ER,1,100,1.944269
74003,12365,2,ER,1,100,1.922314
74053,12365,2,ER,1,100,1.929767
74103,12383,2,ER,1,100,1.933997
74154,12383,2,ER,1,100,1.930573
74204,12401,2,ER,1,100,1.902374
74255,12401,2,ER,1,100,1.883844
74306,12419,2,ER,1,100,1.857458
74357,12419,2,ER,1,100,1.868536
74407,12437,2,ER,1,100,1.864105
74457,12437,2,ER,1,100,1.928156
74507,12456,2,ER,1,100,1.932587
74558,12456,2,ER,1,100,1.896735
74608,12474,2,ER,1,100,1.844971
74659,12474,2,ER,1,100,1.838324
74693,12492,3,ER,1,100,1.842554
74727,12492,3,ER,1,100,1.811133
74762,12492,3,ER,1,100,1.800256
74812,12510,2,ER,1,100,1.797235
74862,12510,2,ER,1,100,1.783740
74912,12528,2,ER,1,100,1.785754
74962,12528,2,ER,1,100,1.798041
75012,12546,2,ER,1,100,1.856653
75063,12546,2,ER,1,100,1.907611
75113,12564,2,ER,1,100,1.885254
75164,12564,2,ER,1,100,1.842352
75215,12583,2,ER,1,100,1.829260
75266,12583,2,ER,1,100,1.845172
75316,12601,2,ER,1,100,1.820599
75366,12601,2,ER,1,100,1.808716
75416,12619,2,ER,1,100,1.796429
75467,12619,2,ER,1,100,1.780115
75517,12637,2,ER,1,100,1.780719
75568,12637,2,ER,1,100,1.792804
75618,12655,2,ER,1,100,1.790991
75669,12655,2,ER,1,100,1.857861
75719,12673,2,ER,1,100,1.921106
75770,12673,2,ER,1,100,1.881226
75820,12691,2,ER,1,100,1.838928
75871,12691,2,ER,1,100,1.837921
75921,12710,2,ER,1,100,1.847186
75972,12710,2,ER,1,100,1.852222
76022,12728,2,ER,1,100,1.847589
76073,12728,2,ER,1,100,1.826038
76123,12746,2,ER,1,100,1.803076
76174,12746,2,ER,1,100,1.804285
76208,12764,3,ER,1,100,1.800055
76242,12764,3,ER,1,100,1.820197
76277,12764,3,ER,1,100,1.830872
76326,12782,2,ER,1,100,1.862292
76376,12782,2,ER,1,100,1.981329
76426,12800,2,ER,1,100,1.981531
76477,12800,2,ER,1,100,1.941449
76527,12818,2,ER,1,100,1.912244
76578,12818,2,ER,1,100,1.920703
76629,12836,2,ER,1,100,1.917279
76680,12836,2,ER,1,100,1.910028
76730,12855,2,ER,1,100,1.907812
76780,12855,2,ER,1,100,1.887469
76830,12873,2,ER,1,100,1.871960
76881,12873,2,ER,1,100,1.866925
76931,12891,2,ER,1,100,1.841748
76982,12891,2,ER,1,100,1.853229
77032,12909,2,ER,1,100,1.821606
77083,12909,2,ER,1,100,1.900964
77133,12927,2,ER,1,100,2.019397
77184,12927,2,ER,1,100,2.005902
77234,12945,2,ER,1,100,1.980322
77285,12945,2,ER,1,100,1.974884
77335,12963,2,ER,1,100,1.958368
77386,12963,2,ER,1,100,1.956354
77436,12982,2,ER,1,100,1.939838
77487,12982,2,ER,1,100,1.892908
77537,13000,2,ER,1,100,1.866119
77588,13000,2,ER,1,100,1.865314
77638,13018,2,ER,1,100,1.831073
77689,13018,2,ER,1,100,1.820197
77739,13036,2,ER,1,100,1.815967
77790,13036,2,ER,1,100,1.797034
77824,13054,3,ER,1,100,1.868134
77858,13054,3,ER,1,100,1.975891
77892,13054,3,ER,1,100,1.954944
77942,13072,2,ER,1,100,1.928760
77993,13072,2,ER,1,100,1.922113
78043,13090,2,ER,1,100,1.911841
78093,13090,2,ER,1,100,1.917682
78143,13109,2,ER,1,100,1.911639
78194,13109,2,ER,1,100,1.873572
78244,13127,2,ER,1,100,1.857458
78295,13127,2,ER,1,100,1.857861
78345,13145,2,ER,1,100,1.837317
78396,13145,2,ER,1,100,1.837317
78446,13163,2,ER,1,100,1.840540
78497,13163,2,ER,1,100,1.903381
78547,13181,2,ER,1,100,1.980524
78598,13181,2,ER,1,100,2.001068
78648,13199,2,ER,1,100,1.968439
78699,13199,2,ER,1,100,1.954742
78749,13217,2,ER,1,100,1.980524
78800,13217,2,ER,1,100,1.972064
78851,13235,2,ER,1,100,1.928558
78902,13235,2,ER,1,100,1.917078
78952,13254,2,ER,1,100,1.878809
79003,13254,2,ER,1,100,1.879816
79053,13272,2,ER,1,100,1.870551
79103,13272,2,ER,1,100,1.849200
79153,13290,2,ER,1,100,1.842554
79204,13290,2,ER,1,100,1.876392
79238,13308,3,ER,1,100,1.976697
79272,13308,3,ER,1,100,2.009930
79307,13308,3,ER,1,100,2.001270
79357,13326,2,ER,1,100,1.962799
79407,13326,2,ER,1,100,1.974683
79457,13344,2,ER,1,100,1.991199
79507,13344,2,ER,1,100,1.975891
79557,13362,2,ER,1,100,1.967633
79608,13362,2,ER,1,100,1.953937
79658,13381,2,ER,1,100,1.918085
79709,13381,2,ER,1,100,1.914661
79759,13399,2,ER,1,100,1.914459
79810,13399,2,ER,1,100,1.899353
79860,13417,2,ER,1,100,1.883240
79911,13417,2,ER,1,100,1.931177
79961,13435,2,ER,1,100,1.992206
80012,13435,2,ER,1,100,1.999860
80063,13453,2,ER,1,100,1.984552
80114,13453,2,ER,1,100,1.948498
80164,13471,2,ER,1,100,1.943665
80214,13471,2,ER,1,100,1.960382
80264,13489,2,ER,1,100,1.926343
80315,13489,2,ER,1,100,1.914862
80365,13507,2,ER,1,100,1.916272
80416,13507,2,ER,1,100,1.901367
80467,13526,2,ER,1,100,1.899353
80518,13526,2,ER,1,100,1.901770
80564,13547,4,ER,1,100,1.867932
80610,13547,4,ER,1,100,1.866925
80656,13547,4,ER,1,100,1.933594
80702,13547,4,ER,1,100,2.002679
80751,13567,2,ER,1,100,2.003284
80800,13567,2,ER,1,100,1.972266
80850,13585,2,ER,1,100,1.919897
80901,13585,2,ER,1,100,1.939435
80952,13603,2,ER,1,100,1.948498
81004,13603,2,ER,1,100,1.918488
81053,13621,2,ER,1,100,1.922717
81103,13621,2,ER,1,100,1.920703
81153,13640,2,ER,1,100,1.906805
81204,13640,2,ER,1,100,1.908417
81254,13658,2,ER,1,100,1.898547
81305,13658,2,ER,1,100,1.871356
81339,13676,3,ER,1,100,1.895526
81373,13676,3,ER,1,100,1.953131
81407,13676,3,ER,1,100,1.930975
81457,13694,2,ER,1,100,1.908820
81507,13694,2,ER,1,100,1.889484
81557,13712,2,ER,1,100,1.873169
81608,13712,2,ER,1,100,1.889282
81659,13730,2,ER,1,100,1.901166
81711,13730,2,ER,1,100,1.873572
81760,13748,2,ER,1,100,1.872162
81810,13748,2,ER,1,100,1.872363
81860,13766,2,ER,1,100,1.861487
81911,13766,2,ER,1,100,1.924933
81961,13785,2,ER,1,100,1.912646
82012,13785,2,ER,1,100,1.914056
82062,13803,2,ER,1,100,1.998248
82113,13803,2,ER,1,100,2.007916
82164,13821,2,ER,1,100,1.965216
82215,13821,2,ER,1,100,2.002478
82265,13839,2,ER,1,100,2.003284
82315,13839,2,ER,1,100,1.984753
82365,13857,2,ER,1,100,1.948297
82416,13857,2,ER,1,100,1.934198
82467,13875,2,ER,1,100,1.921509
82518,13875,2,ER,1,100,1.936212
82568,13893,2,ER,1,100,1.974884
82618,13893,2,ER,1,100,1.968237
82668,13912,2,ER,1,100,1.941449
82719,13912,2,ER,1,100,1.906403
82769,13930,2,ER,1,100,1.922717
82820,13930,2,ER,1,100,2.014160
82870,13948,2,ER,1,100,2.018188
82921,13948,2,ER,1,100,1.940643
82955,13966,3,ER,1,100,1.913049
82989,13966,3,ER,1,100,1.930170
83024,13966,3,ER,1,100,1.908014
83073,13984,2,ER,1,100,1.890894
83123,13984,2,ER,1,100,1.890088
83173,14002,2,ER,1,100,1.863501
83224,14002,2,ER,1,100,1.860681
83275,14020,2,ER,1,100,1.870953
83326,14020,2,ER,1,100,1.862091
83376,14039,2,ER,1,100,1.821405
83426,14039,2,ER,1,100,1.818787
83476,14057,2,ER,1,100,1.785553
83527,14057,2,ER,1,100,1.805292
83577,14075,2,ER,1,100,1.896533
83628,14075,2,ER,1,100,1.911237
83678,14093,2,ER,1,100,1.897137
83729,14093,2,ER,1,100,1.878003
83779,14111,2,ER,1,100,1.853833
83830,14111,2,ER,1,100,1.874982
83880,14129,2,ER,1,100,1.863702
83931,14129,2,ER,1,100,1.825433
83981,14147,2,ER,1,100,1.819391
84032,14147,2,ER,1,100,1.819995
84082,14165,2,ER,1,100,1.811334
84133,14165,2,ER,1,100,1.818988
84183,14184,2,ER,1,100,1.829462
84234,14184,2,ER,1,100,1.814355
84284,14202,2,ER,1,100,1.835504
84335,14202,2,ER,1,100,1.846783
84369,14220,3,ER,1,100,1.898749
84403,14220,3,ER,1,100,1.959375
84437,14220,3,ER,1,100,1.948498
84487,14238,2,ER,1,100,1.885052
84538,14238,2,ER,1,100,1.923523
84588,14256,2,ER,1,100,1.924933
84638,14256,2,ER,1,100,1.912646
84689,14274,2,ER,1,100,1.898346
84740,14274,2,ER,1,100,1.882233
84790,14292,2,ER,1,100,1.858264
84841,14292,2,ER,1,100,1.863299
84891,14311,2,ER,1,100,1.848596
84941,14311,2,ER,1,100,1.826642
84991,14329,2,ER,1,100,1.856451
85042,14329,2,ER,1,100,1.941852
85092,14347,2,ER,1,100,1.948901
85143,14347,2,ER,1,100,1.910431
85193,14365,2,ER,1,100,1.889886
85244,14365,2,ER,1,100,1.896332
85294,14383,2,ER,1,100,1.903381
85345,14383,2,ER,1,100,1.943060
85395,14401,2,ER,1,100,1.945880
85446,14401,2,ER,1,100,1.909222
85496,14419,2,ER,1,100,1.875787
85547,14419,2,ER,1,100,1.831073
85597,14438,2,ER,1,100,1.810327
85648,14438,2,ER,1,100,1.809723
85698,14456,2,ER,1,100,1.821808
85749,14456,2,ER,1,100,1.891296
85799,14474,2,ER,1,100,1.922516
85850,14474,2,ER,1,100,1.884851
85900,14492,2,ER,1,100,1.871155
85951,14492,2,ER,1,100,1.878003
85985,14510,3,ER,1,100,1.914459
86019,14510,3,ER,1,100,1.894519
86053,14510,3,ER,1,100,1.914459
86103,14528,2,ER,1,100,1.872565
86153,14528,2,ER,1,100,1.827045
86204,14546,2,ER,1,100,1.859473
86256,14546,2,ER,1,100,1.851013
86305,14564,2,ER,1,100,1.847790
86355,14564,2,ER,1,100,1.886261
86405,14583,2,ER,1,100,1.871759
86456,14583,2,ER,1,100,2.034704
86506,14601,2,ER,1,100,2.041955
86557,14601,2,ER,1,100,1.995630
86607,14619,2,ER,1,100,1.947290
86658,14619,2,ER,1,100,1.947693
86709,14637,2,ER,1,100,1.907812
86760,14637,2,ER,1,100,1.877802
86810,14655,2,ER,1,100,1.863501
86860,14655,2,ER,1,100,1.852222
86910,14673,2,ER,1,100,1.814154
86961,14673,2,ER,1,100,1.810327
87012,14691,2,ER,1,100,1.786560
87063,14691,2,ER,1,100,1.790991
87113,14710,2,ER,1,100,1.764001
87163,14710,2,ER,1,100,1.772259
87213,14728,2,ER,1,100,1.839935
87264,14728,2,ER,1,100,1.929163
87314,14746,2,ER,1,100,1.920502
87365,14746,2,ER,1,100,1.919092
87415,14764,2,ER,1,100,1.915064
87466,14764,2,ER,1,100,1.959174
87500,14782,3,ER,1,100,1.929565
87534,14782,3,ER,1,100,1.886462
87569,14782,3,ER,1,100,1.877600
87618,14800,2,ER,1,100,1.873370
87668,14800,2,ER,1,100,1.844366
87718,14818,2,ER,1,100,1.847388
87769,14818,2,ER,1,100,1.858667
87819,14836,2,ER,1,100,1.822211
87870,14836,2,ER,1,100,1.816772
87920,14855,2,ER,1,100,1.901971
87971,14855,2,ER,1,100,1.917078
88021,14873,2,ER,1,100,1.899554
88072,14873,2,ER,1,100,1.881628
88122,14891,2,ER,1,100,1.844165
88173,14891,2,ER,1,100,1.857056
88224,14909,2,ER,1,100,1.866321
88275,14909,2,ER,1,100,1.838727
88325,14927,2,ER,1,100,1.815564
88375,14927,2,ER,1,100,1.834296
88425,14945,2,ER,1,100,1.808112
88476,14945,2,ER,1,100,1.809924
88526,14963,2,ER,1,100,1.845575
88577,14963,2,ER,1,100,1.818988
88627,14982,2,ER,1,100,1.839532
88678,14982,2,ER,1,100,1.938025
88728,15000,2,ER,1,100,1.977301
88779,15000,2,ER,1,100,1.962799
88829,15018,2,ER,1,100,1.950110
88880,15018,2,ER,1,100,1.916071
88930,15036,2,ER,1,100,1.943665
88981,15036,2,ER,1,100,1.973071
89015,15054,3,ER,1,100,1.917682
89049,15054,3,ER,1,100,1.883441
89083,15054,3,ER,1,100,1.893109
89133,15072,2,ER,1,100,1.850812
89183,15072,2,ER,1,100,1.853632
89234,15090,2,ER,1,100,1.834497
89285,15090,2,ER,1,100,1.787768
89335,15109,2,ER,1,100,1.778302
89386,15109,2,ER,1,100,1.833691
89436,15127,2,ER,1,100,1.825030
89486,15127,2,ER,1,100,1.885858
89536,15145,2,ER,1,100,1.977100
89587,15145,2,ER,1,100,1.945477
89637,15163,2,ER,1,100,1.921912
89688,15163,2,ER,1,100,1.923724
89739,15181,2,ER,1,100,1.894116
89790,15181,2,ER,1,100,1.904187
89840,15199,2,ER,1,100,1.912445
89890,15199,2,ER,1,100,1.883844
89940,15217,2,ER,1,100,1.861487
89991,15217,2,ER,1,100,1.891296
90041,15235,2,ER,1,100,1.875384
90092,15235,2,ER,1,100,1.865112
90143,15254,2,ER,1,100,1.854236
90194,15254,2,ER,1,100,1.832483
90244,15272,2,ER,1,100,1.819794
90294,15272,2,ER,1,100,1.832281
90344,15290,2,ER,1,100,1.863501
90395,15290,2,ER,1,100,1.936011
90445,15308,2,ER,1,100,1.932184
90496,15308,2,ER,1,100,1.890491
90530,15326,3,ER,1,100,1.877399
90564,15326,3,ER,1,100,1.922314
90598,15326,3,ER,1,100,1.917078
90648,15344,2,ER,1,100,1.902979
90698,15344,2,ER,1,100,1.896332
90749,15362,2,ER,1,100,1.870349
90801,15362,2,ER,1,100,1.909424
90850,15381,2,ER,1,100,1.916876
90900,15381,2,ER,1,100,1.870148
90950,15399,2,ER,1,100,1.851416
91001,15399,2,ER,1,100,1.864911
91051,15417,2,ER,1,100,1.908820
91102,15417,2,ER,1,100,1.977100
91153,15435,2,ER,1,100,1.961591
91204,15435,2,ER,1,100,1.921106
91254,15453,2,ER,1,100,1.883240
91304,15453,2,ER,1,100,1.901166
91354,15471,2,ER,1,100,1.886462
91405,15471,2,ER,1,100,1.871558
91451,15492,4,ER,1,100,1.860077
91497,15492,4,ER,1,100,1.842151
91543,15492,4,ER,1,100,1.832684
91590,15492,4,ER,1,100,1.855243
91641,15512,2,ER,1,100,1.822412
91692,15512,2,ER,1,100,1.831274
91742,15531,2,ER,1,100,1.863299
91792,15531,2,ER,1,100,1.897742
91835,15549,4,ER,1,100,2.005902
91879,15549,4,ER,1,100,2.028461
91922,15549,4,ER,1,100,1.973071
91966,15549,4,ER,1,100,1.930170
92015,15567,2,ER,1,100,1.913452
92065,15567,2,ER,1,100,1.890088
92115,15585,2,ER,1,100,1.872565
92166,15585,2,ER,1,100,1.876392
92216,15603,2,ER,1,100,1.848798
92267,15603,2,ER,1,100,1.858667
92317,15622,2,ER,1,100,1.841345
92368,15622,2,ER,1,100,1.818384
92418,15640,2,ER,1,100,1.818988
92469,15640,2,ER,1,100,1.823621
92519,15658,2,ER,1,100,1.806299
92570,15658,2,ER,1,100,1.836108
92620,15676,2,ER,1,100,1.943665
92671,15676,2,ER,1,100,1.982538
92721,15694,2,ER,1,100,1.973474
92772,15694,2,ER,1,100,1.967834
92823,15712,2,ER,1,100,1.936615
92874,15712,2,ER,1,100,1.970856
92924,15730,2,ER,1,100,1.971460
92974,15730,2,ER,1,100,1.915668
93025,15748,2,ER,1,100,1.880823
93076,15748,2,ER,1,100,1.881024
93126,15767,2,ER,1,100,1.857458
93176,15767,2,ER,1,100,1.862091
93226,15785,2,ER,1,100,1.851013
93277,15785,2,ER,1,100,1.837921
93327,15803,2,ER,1,100,1.830670
93378,15803,2,ER,1,100,1.867932
93428,15821,2,ER,1,100,1.961389
93479,15821,2,ER,1,100,2.026245
93513,15839,3,ER,1,100,2.007312
93547,15839,3,ER,1,100,1.956354
93581,15839,3,ER,1,100,1.947491
93631,15857,2,ER,1,100,1.955548
93681,15857,2,ER,1,100,1.910632
93731,15875,2,ER,1,100,1.884247
93782,15875,2,ER,1,100,1.868134
93832,15894,2,ER,1,100,1.835907
93883,15894,2,ER,1,100,1.846783
93933,15912,2,ER,1,100,1.851819
93984,15912,2,ER,1,100,1.830872
94034,15930,2,ER,1,100,1.883240
94085,15930,2,ER,1,100,1.980927
94135,15948,2,ER,1,100,1.982941
94186,15948,2,ER,1,100,1.956354
94237,15966,2,ER,1,100,1.926947
94289,15966,2,ER,1,100,1.918286
94339,15984,2,ER,1,100,1.929163
94389,15984,2,ER,1,100,1.925738
94439,16002,2,ER,1,100,1.876996
94490,16002,2,ER,1,100,1.900561
94541,16021,2,ER,1,100,1.908215
94593,16021,2,ER,1,100,1.856250
94642,16039,2,ER,1,100,1.858466
94692,16039,2,ER,1,100,1.862292
94742,16057,2,ER,1,100,1.834296
94793,16057,2,ER,1,100,1.947089
94843,16075,2,ER,1,100,2.011340
94894,16075,2,ER,1,100,1.984753
94944,16093,2,ER,1,100,1.953735
94995,16093,2,ER,1,100,1.965418
95045,16111,2,ER,1,100,1.975690
95096,16111,2,ER,1,100,1.941852
95130,16129,3,ER,1,100,1.905396
95164,16129,3,ER,1,100,1.860681
95198,16129,3,ER,1,100,1.842554
95248,16147,2,ER,1,100,1.842755
95298,16147,2,ER,1,100,1.847992
95349,16166,2,ER,1,100,1.826642
95400,16166,2,ER,1,100,1.812744
95450,16184,2,ER,1,100,1.779309
95500,16184,2,ER,1,100,1.789783
95550,16202,2,ER,1,100,1.868939
95601,16202,2,ER,1,100,1.964410
95651,16220,2,ER,1,100,1.970251
95702,16220,2,ER,1,100,1.960785
95752,16238,2,ER,1,100,1.936011
95803,16238,2,ER,1,100,1.925738
95853,16256,2,ER,1,100,1.927954
95904,16256,2,ER,1,100,1.905597
95954,16274,2,ER,1,100,1.885455
96005,16274,2,ER,1,100,1.881024
96055,16293,2,ER,1,100,1.846783
96106,16293,2,ER,1,100,1.831879
96156,16311,2,ER,1,100,1.832483
96207,16311,2,ER,1,100,1.827448
96257,16329,2,ER,1,100,1.807910
96308,16329,2,ER,1,100,1.813348
96358,16347,2,ER,1,100,1.826440
96409,16347,2,ER,1,100,1.949304
96443,16365,3,ER,1,100,1.980121
96477,16365,3,ER,1,100,1.939435
96512,16365,3,ER,1,100,1.909827
96562,16383,2,ER,1,100,1.898547
96612,16383,2,ER,1,100,1.898346
96662,16401,2,ER,1,100,1.891095
96712,16401,2,ER,1,100,1.901367
96762,16419,2,ER,1,100,1.895325
96813,16419,2,ER,1,100,1.936816
96864,16438,2,ER,1,100,1.905194
96915,16438,2,ER,1,100,1.863501
96965,16456,2,ER,1,100,1.854437
97015,16456,2,ER,1,100,1.837921
97065,16474,2,ER,1,100,1.872162
97116,16474,2,ER,1,100,1.965820
97166,16492,2,ER,1,100,1.954742
97217,16492,2,ER,1,100,1.926141
97267,16510,2,ER,1,100,1.909222
97318,16510,2,ER,1,100,1.916675
97369,16528,2,ER,1,100,1.895929
97420,16528,2,ER,1,100,1.893512
97470,16546,2,ER,1,100,1.837921
97520,16546,2,ER,1,100,1.830670
97570,16565,2,ER,1,100,1.840942
97621,16565,2,ER,1,100,1.823419
97672,16583,2,ER,1,100,1.802875
97723,16583,2,ER,1,100,1.801666
97773,16601,2,ER,1,100,1.766016
97824,16601,2,ER,1,100,1.811133
97874,16619,2,ER,1,100,1.926141
97925,16619,2,ER,1,100,1.925537
97975,16637,2,ER,1,100,1.892303
98026,16637,2,ER,1,100,1.891498
98060,16655,3,ER,1,100,1.855646
98094,16655,3,ER,1,100,1.856250
98128,16655,3,ER,1,100,1.844165
98178,16673,2,ER,1,100,1.801868
98228,16673,2,ER,1,100,1.787970
98278,16692,2,ER,1,100,1.782330
98329,16692,2,ER,1,100,1.761584
98379,16710,2,ER,1,100,1.752118
98430,16710,2,ER,1,100,1.771454
98480,16728,2,ER,1,100,1.761987
98531,16728,2,ER,1,100,1.765009
98581,16746,2,ER,1,100,1.775281
98632,16746,2,ER,1,100,1.882233
98682,16764,2,ER,1,100,1.920905
98733,16764,2,ER,1,100,1.912244
98784,16782,2,ER,1,100,1.874982
98835,16782,2,ER,1,100,1.876190
98885,16800,2,ER,1,100,1.899554
98935,16800,2,ER,1,100,1.900561
98985,16818,2,ER,1,100,1.876593
99036,16818,2,ER,1,100,1.859674
99087,16837,2,ER,1,100,1.836310
99138,16837,2,ER,1,100,1.844568
99188,16855,2,ER,1,100,1.839331
99238,16855,2,ER,1,100,1.823419
99288,16873,2,ER,1,100,1.818384
99339,16873,2,ER,1,100,1.845172
99389,16891,2,ER,1,100,1.911639
99440,16891,2,ER,1,100,1.978107
99490,16909,2,ER,1,100,1.967029
99541,16909,2,ER,1,100,1.918085
99575,16927,3,ER,1,100,1.912445
99609,16927,3,ER,1,100,1.932788
99643,16927,3,ER,1,100,1.911438
99693,16945,2,ER,1,100,1.904590
99744,16945,2,ER,1,100,1.907812
99794,16964,2,ER,1,100,1.882635
99844,16964,2,ER,1,100,1.865717
99895,16982,2,ER,1,100,1.866724
99946,16982,2,ER,1,100,1.861285
99996,17000,2,ER,1,100,1.851215
100046,17000,2,ER,1,100,1.885254
100096,17018,2,ER,1,100,1.939838
100147,17018,2,ER,1,100,1.961389
100197,17036,2,ER,1,100,1.935406
100248,17036,2,ER,1,100,1.928760
100298,17054,2,ER,1,100,1.949304
100349,17054,2,ER,1,100,1.958166
100400,17072,2,ER,1,100,1.913653
100451,17072,2,ER,1,100,1.882837
100501,17090,2,ER,1,100,1.883240
100551,17090,2,ER,1,100,1.864105
100602,17109,2,ER,1,100,1.898346
100653,17109,2,ER,1,100,1.918488
100703,17127,2,ER,1,100,1.863501
100753,17127,2,ER,1,100,1.840137
100803,17145,2,ER,1,100,1.814557
100854,17145,2,ER,1,100,1.818384
100904,17163,2,ER,1,100,1.933997
100955,17163,2,ER,1,100,1.959778
100989,17181,3,ER,1,100,1.910632
101023,17181,3,ER,1,100,1.893311
101057,17181,3,ER,1,100,1.915064
101107,17199,2,ER,1,100,1.880420
101158,17199,2,ER,1,100,1.867731
101208,17217,2,ER,1,100,1.856250
101258,17217,2,ER,1,100,1.834094
101308,17236,2,ER,1,100,1.836310
101359,17236,2,ER,1,100,1.835101
101409,17254,2,ER,1,100,1.807507
101460,17254,2,ER,1,100,1.802069
101510,17272,2,ER,1,100,1.787366
101561,17272,2,ER,1,100,1.769843
101611,17290,2,ER,1,100,1.754333
101662,17290,2,ER,1,100,1.845374
101713,17308,2,ER,1,100,1.914258
101764,17308,2,ER,1,100,1.920502
101814,17326,2,ER,1,100,1.889886
101864,17326,2,ER,1,100,1.853430
101914,17344,2,ER,1,100,1.858264
101965,17344,2,ER,1,100,1.874579
102015,17363,2,ER,1,100,1.842151
102066,17363,2,ER,1,100,1.830469
102117,17381,2,ER,1,100,1.818787
102168,17381,2,ER,1,100,1.810931
102218,17399,2,ER,1,100,1.799048
102268,17399,2,ER,1,100,1.807306
102318,17417,2,ER,1,100,1.785150
102369,17417,2,ER,1,100,1.796832
102409,17438,4,ER,1,100,1.804486
102449,17438,4,ER,1,100,1.911438
102489,17438,4,ER,1,100,1.945880
102530,17438,4,ER,1,100,1.893109
102579,17458,2,ER,1,100,1.840741
102629,17458,2,ER,1,100,1.837115
102679,17476,2,ER,1,100,1.855646
102730,17476,2,ER,1,100,1.827246
102780,17495,2,ER,1,100,1.840942
102831,17495,2,ER,1,100,1.880017
102881,17513,2,ER,1,100,1.829663
102932,17513,2,ER,1,100,1.814154
102982,17531,2,ER,1,100,1.771857
103033,17531,2,ER,1,100,1.737817
103083,17549,2,ER,1,100,1.726337
103134,17549,2,ER,1,100,1.838525
103184,17567,2,ER,1,100,1.870752
103235,17567,2,ER,1,100,1.847388
103285,17585,2,ER,1,100,1.813348
103336,17585,2,ER,1,100,1.815564
103387,17603,2,ER,1,100,1.829260
103438,17603,2,ER,1,100,1.824225
103488,17622,2,ER,1,100,1.811938
103538,17622,2,ER,1,100,1.778906
103588,17640,2,ER,1,100,1.759973
103639,17640,2,ER,1,100,1.738019
103673,17658,3,ER,1,100,1.733588
103707,17658,3,ER,1,100,1.725531
103741,17658,3,ER,1,100,1.704382
103791,17676,2,ER,1,100,1.724322
103842,17676,2,ER,1,100,1.816772
103892,17694,2,ER,1,100,1.848596
103942,17694,2,ER,1,100,1.854236
103992,17712,2,ER,1,100,1.831677
104043,17712,2,ER,1,100,1.807306
104094,17730,2,ER,1,100,1.823218
104145,17730,2,ER,1,100,1.830066
104195,17748,2,ER,1,100,1.795624
104245,17748,2,ER,1,100,1.795221
104295,17767,2,ER,1,100,1.795020
104346,17767,2,ER,1,100,1.799249
104396,17785,2,ER,1,100,1.805292
104447,17785,2,ER,1,100,1.816168
104498,17803,2,ER,1,100,1.783539
104549,17803,2,ER,1,100,1.794415
104599,17821,2,ER,1,100,1.832886
104649,17821,2,ER,1,100,1.904993
104699,17839,2,ER,1,100,1.910229
104750,17839,2,ER,1,100,1.904187
104800,17857,2,ER,1,100,1.855042
104851,17857,2,ER,1,100,1.866119
104901,17875,2,ER,1,100,1.871759
104952,17875,2,ER,1,100,1.851416
105002,17894,2,ER,1,100,1.841345
105053,17894,2,ER,1,100,1.841547
105103,17912,2,ER,1,100,1.833087
105154,17912,2,ER,1,100,1.826239
105204,17930,2,ER,1,100,1.825030
105255,17930,2,ER,1,100,1.817780
105289,17948,3,ER,1,100,1.809924
105323,17948,3,ER,1,100,1.805695
105358,17948,3,ER,1,100,1.859473
105408,17966,2,ER,1,100,1.919495
105458,17966,2,ER,1,100,1.914862
105508,17984,2,ER,1,100,1.867328
105558,17984,2,ER,1,100,1.870551
105608,18002,2,ER,1,100,1.889886
105659,18002,2,ER,1,100,1.879211
105709,18020,2,ER,1,100,1.866724
105760,18020,2,ER,1,100,1.864105
105810,18039,2,ER,1,100,1.828857
105861,18039,2,ER,1,100,1.837115
105911,18057,2,ER,1,100,1.838928
105962,18057,2,ER,1,100,1.824225
106013,18075,2,ER,1,100,1.815765
106064,18075,2,ER,1,100,1.863098
106114,18093,2,ER,1,100,1.908820
106164,18093,2,ER,1,100,1.919897
106214,18111,2,ER,1,100,1.899353
106265,18111,2,ER,1,100,1.884448
106315,18129,2,ER,1,100,1.897742
106366,18129,2,ER,1,100,1.925134
106417,18147,2,ER,1,100,1.878003
106468,18147,2,ER,1,100,1.856250
106518,18166,2,ER,1,100,1.833490
106568,18166,2,ER,1,100,1.823419
106618,18184,2,ER,1,100,1.814557
106669,18184,2,ER,1,100,1.807104
106719,18202,2,ER,1,100,1.784747
106770,18202,2,ER,1,100,1.812543
106804,18220,3,ER,1,100,1.901166
106838,18220,3,ER,1,100,1.912848
106872,18220,3,ER,1,100,1.879413
106922,18238,2,ER,1,100,1.856854
106972,18238,2,ER,1,100,1.845374
107022,18256,2,ER,1,100,1.832483
107073,18256,2,ER,1,100,1.821606
107123,18274,2,ER,1,100,1.789178
107174,18274,2,ER,1,100,1.779309
107225,18293,2,ER,1,100,1.779712
107276,18293,2,ER,1,100,1.768231
107326,18311,2,ER,1,100,1.738019
107376,18311,2,ER,1,100,1.714856
107426,18329,2,ER,1,100,1.671149
107477,18329,2,ER,1,100,1.723114
107528,18347,2,ER,1,100,1.787567
107579,18347,2,ER,1,100,1.803882
107629,18365,2,ER,1,100,1.766620
107679,18365,2,ER,1,100,1.757556
107729,18383,2,ER,1,100,1.756952
107780,18383,2,ER,1,100,1.782935
107830,18401,2,ER,1,100,1.767023
107881,18401,2,ER,1,100,1.767224
107932,18419,2,ER,1,100,1.772259
107984,18419,2,ER,1,100,1.777094
108033,18438,2,ER,1,100,1.799451
108083,18438,2,ER,1,100,1.844165
108133,18456,2,ER,1,100,1.797034
108184,18456,2,ER,1,100,1.792804
108234,18474,2,ER,1,100,1.795422
108285,18474,2,ER,1,100,1.861084
108319,18492,3,ER,1,100,1.952124
108353,18492,3,ER,1,100,1.948096
108387,18492,3,ER,1,100,1.906604
108437,18510,2,ER,1,100,1.880017
108487,18510,2,ER,1,100,1.894318
108537,18528,2,ER,1,100,1.870752
108588,18528,2,ER,1,100,1.868536
108639,18546,2,ER,1,100,1.864709
108690,18546,2,ER,1,100,1.832080
108740,18565,2,ER,1,100,1.822613
108790,18565,2,ER,1,100,1.837518
108840,18583,2,ER,1,100,1.809521
108891,18583,2,ER,1,100,1.811334
108941,18601,2,ER,1,100,1.800055
108992,18601,2,ER,1,100,1.837317
109043,18619,2,ER,1,100,1.914459
109094,18619,2,ER,1,100,1.914459
109144,18637,2,ER,1,100,1.871558
109194,18637,2,ER,1,100,1.856653
109244,18655,2,ER,1,100,1.868335
109295,18655,2,ER,1,100,1.859875
109345,18673,2,ER,1,100,1.847186
109396,18673,2,ER,1,100,1.842554
109446,18692,2,ER,1,100,1.826440
109497,18692,2,ER,1,100,1.839734
109548,18710,2,ER,1,100,1.853229
109599,18710,2,ER,1,100,1.851013
109649,18728,2,ER,1,100,1.867731
109699,18728,2,ER,1,100,1.933594
109749,18746,2,ER,1,100,1.909021
109800,18746,2,ER,1,100,1.892706
109834,18764,3,ER,1,100,1.881226
109868,18764,3,ER,1,100,1.880219
109903,18764,3,ER,1,100,1.899554
109953,18782,2,ER,1,100,1.890491
110003,18782,2,ER,1,100,1.833490
110053,18800,2,ER,1,100,1.815161
110103,18800,2,ER,1,100,1.801465
110153,18818,2,ER,1,100,1.777496
110204,18818,2,ER,1,100,1.776892
110255,18837,2,ER,1,100,1.784747
110306,18837,2,ER,1,100,1.803479
110356,18855,2,ER,1,100,1.867529
110407,18855,2,ER,1,100,1.902374
110457,18873,2,ER,1,100,1.875183
110508,18873,2,ER,1,100,1.864508
110559,18891,2,ER,1,100,1.870148
110610,18891,2,ER,1,100,1.866724
110660,18909,2,ER,1,100,1.851416
110710,18909,2,ER,1,100,1.854639
110760,18927,2,ER,1,100,1.873572
110811,18927,2,ER,1,100,1.807104
110861,18945,2,ER,1,100,1.809924
110912,18945,2,ER,1,100,1.811334
110963,18964,2,ER,1,100,1.797034
111014,18964,2,ER,1,100,1.777295
111064,18982,2,ER,1,100,1.810730
111114,18982,2,ER,1,100,1.858264
111164,19000,2,ER,1,100,1.859070
111215,19000,2,ER,1,100,1.813953
111265,19018,2,ER,1,100,1.810126
111316,19018,2,ER,1,100,1.828857
111350,19036,3,ER,1,100,1.829663
111384,19036,3,ER,1,100,1.837317
111419,19036,3,ER,1,100,1.826440
111469,19054,2,ER,1,100,1.812140
111519,19054,2,ER,1,100,1.812945
111569,19072,2,ER,1,100,1.831476
111619,19072,2,ER,1,100,1.820801
111669,19090,2,ER,1,100,1.811334
111720,19090,2,ER,1,100,1.865515
111771,19109,2,ER,1,100,1.880621
111823,19109,2,ER,1,100,1.886261
111872,19127,2,ER,1,100,1.868134
111922,19127,2,ER,1,100,1.861285
111972,19145,2,ER,1,100,1.880219
112023,19145,2,ER,1,100,1.885052
112073,19163,2,ER,1,100,1.843158
112124,19163,2,ER,1,100,1.851617
112174,19181,2,ER,1,100,1.843359
112225,19181,2,ER,1,100,1.840942
112275,19199,2,ER,1,100,1.823016
112326,19199,2,ER,1,100,1.862292
112376,19217,2,ER,1,100,1.896130
112427,19217,2,ER,1,100,1.887469
112477,19236,2,ER,1,100,1.857458
112528,19236,2,ER,1,100,1.837115
112579,19254,2,ER,1,100,1.831476
112630,19254,2,ER,1,100,1.877197
112680,19272,2,ER,1,100,1.894720
112730,19272,2,ER,1,100,1.823621
112780,19290,2,ER,1,100,1.793610
112831,19290,2,ER,1,100,1.784344
112865,19308,3,ER,1,100,1.786560
112899,19308,3,ER,1,100,1.787970
112934,19308,3,ER,1,100,1.807306
112984,19326,2,ER,1,100,1.864709
113034,19326,2,ER,1,100,1.861890
113084,19344,2,ER,1,100,1.829059
113134,19344,2,ER,1,100,1.821002
113184,19363,2,ER,1,100,1.833087
113235,19363,2,ER,1,100,1.834296
113295,19384,3,ER,1,100,1.829663
113355,19384,3,ER,1,100,1.824023
113416,19384,3,ER,1,100,1.809320
113466,19404,2,ER,1,100,1.811133
113516,19404,2,ER,1,100,1.810126
113550,19422,3,ER,1,100,1.793005
113584,19422,3,ER,1,100,1.826843
113618,19422,3,ER,1,100,1.817578
113668,19440,2,ER,1,100,1.828656
113718,19440,2,ER,1,100,1.887671
113768,19458,2,ER,1,100,1.879614
113819,19458,2,ER,1,100,1.859875
113870,19476,2,ER,1,100,1.842352
113921,19476,2,ER,1,100,1.853430
113971,19495,2,ER,1,100,1.862695
114021,19495,2,ER,1,100,1.866522
114071,19513,2,ER,1,100,1.883038
114122,19513,2,ER,1,100,1.789380
114172,19531,2,ER,1,100,1.784344
114223,19531,2,ER,1,100,1.786560
114273,19549,2,ER,1,100,1.777295
114324,19549,2,ER,1,100,1.798041
114374,19567,2,ER,1,100,1.805896
114425,19567,2,ER,1,100,1.800256
114475,19585,2,ER,1,100,1.814960
114526,19585,2,ER,1,100,1.882434
114576,19603,2,ER,1,100,1.889081
114627,19603,2,ER,1,100,1.883643
114677,19622,2,ER,1,100,1.877802
114728,19622,2,ER,1,100,1.868335
114779,19640,2,ER,1,100,1.895929
114830,19640,2,ER,1,100,1.876593
114880,19658,2,ER,1,100,1.828052
114930,19658,2,ER,1,100,1.819391
114980,19676,2,ER,1,100,1.821808
115031,19676,2,ER,1,100,1.820599
115081,19694,2,ER,1,100,1.822613
115132,19694,2,ER,1,100,1.820197
115166,19712,3,ER,1,100,1.789984
115200,19712,3,ER,1,100,1.785553
115234,19712,3,ER,1,100,1.828455
115284,19730,2,ER,1,100,1.840741
115334,19730,2,ER,1,100,1.838122
115384,19748,2,ER,1,100,1.824023
115435,19748,2,ER,1,100,1.809723
115486,19767,2,ER,1,100,1.832483
115537,19767,2,ER,1,100,1.846582
115587,19785,2,ER,1,100,1.827045
115637,19785,2,ER,1,100,1.823822
115687,19803,2,ER,1,100,1.881830
115738,19803,2,ER,1,100,1.817780
115789,19821,2,ER,1,100,1.817377
115840,19821,2,ER,1,100,1.820197
115890,19839,2,ER,1,100,1.800861
115940,19839,2,ER,1,100,1.814960
115990,19857,2,ER,1,100,1.869745
116041,19857,2,ER,1,100,1.895728
116091,19875,2,ER,1,100,1.884448
116142,19875,2,ER,1,100,1.865717
116193,19894,2,ER,1,100,1.838727
116244,19894,2,ER,1,100,1.878809
116294,19912,2,ER,1,100,1.887872
116344,19912,2,ER,1,100,1.872162
116394,19930,2,ER,1,100,1.860278
116445,19930,2,ER,1,100,1.864105
116495,19948,2,ER,1,100,1.846582
116546,19948,2,ER,1,100,1.848999
116580,19966,3,ER,1,100,1.842151
116614,19966,3,ER,1,100,1.835706
116649,19966,3,ER,1,100,1.865314
116699,19984,2,ER,1,100,1.932385
116749,19984,2,ER,1,100,1.918488
116799,20002,2,ER,1,100,1.886865
116849,20002,2,ER,1,100,1.884851
116899,20021,2,ER,1,100,1.876190
116950,20021,2,ER,1,100,1.874176
117001,20039,2,ER,1,100,1.870953
117053,20039,2,ER,1,100,1.841345
117102,20057,2,ER,1,100,1.819592
117152,20057,2,ER,1,100,1.847186
117202,20075,2,ER,1,100,1.834900
117253,20075,2,ER,1,100,1.828656
117303,20093,2,ER,1,100,1.917883
117354,20093,2,ER,1,100,1.893915
117404,20111,2,ER,1,100,1.886664
117455,20111,2,ER,1,100,1.885052
117506,20129,2,ER,1,100,1.850812
117557,20129,2,ER,1,100,1.851013
117611,20147,3,ER,1,100,1.852423
117665,20147,3,ER,1,100,1.860883
117720,20147,3,ER,1,100,1.854840
117770,20166,2,ER,1,100,1.815967
117820,20166,2,ER,1,100,1.798846
117854,20184,3,ER,1,100,1.809521
117888,20184,3,ER,1,100,1.803479
117923,20184,3,ER,1,100,1.822211
117973,20202,2,ER,1,100,1.865717
118023,20202,2,ER,1,100,1.876593
118073,20220,2,ER,1,100,1.858264
118123,20220,2,ER,1,100,1.851215
118174,20238,2,ER,1,100,1.821002
118225,20238,2,ER,1,100,1.843158
118275,20256,2,ER,1,100,1.859271
118325,20256,2,ER,1,100,1.829260
118375,20274,2,ER,1,100,1.802472
118426,20274,2,ER,1,100,1.818585
118476,20293,2,ER,1,100,1.834698
118527,20293,2,ER,1,100,1.830872
118578,20311,2,ER,1,100,1.886261
118629,20311,2,ER,1,100,1.901166
118679,20329,2,ER,1,100,1.897339
118729,20329,2,ER,1,100,1.886060
118779,20347,2,ER,1,100,1.853229
118830,20347,2,ER,1,100,1.868738
118880,20365,2,ER,1,100,1.863501
118931,20365,2,ER,1,100,1.844769
118981,20383,2,ER,1,100,1.840942
119032,20383,2,ER,1,100,1.852222
119082,20401,2,ER,1,100,1.826642
119133,20401,2,ER,1,100,1.861890
119183,20420,2,ER,1,100,1.896533
119234,20420,2,ER,1,100,1.887671
119284,20438,2,ER,1,100,1.899756
119335,20438,2,ER,1,100,1.885657
119369,20456,3,ER,1,100,1.894116
119403,20456,3,ER,1,100,1.906403
119438,20456,3,ER,1,100,1.968036
119488,20474,2,ER,1,100,1.830066
119538,20474,2,ER,1,100,1.802875
119588,20492,2,ER,1,100,1.796027
119638,20492,2,ER,1,100,1.782129
119689,20510,2,ER,1,100,1.799249
119740,20510,2,ER,1,100,1.843762
119790,20528,2,ER,1,100,1.832080
119840,20528,2,ER,1,100,1.822009
119890,20547,2,ER,1,100,1.834296
119941,20547,2,ER,1,100,1.833289
119991,20565,2,ER,1,100,1.819995
120042,20565,2,ER,1,100,1.827649
120093,20583,2,ER,1,100,1.808514
120144,20583,2,ER,1,100,1.816370
120194,20601,2,ER,1,100,1.818182
120244,20601,2,ER,1,100,1.805090
120294,20619,2,ER,1,100,1.817780
120345,20619,2,ER,1,100,1.880823
120395,20637,2,ER,1,100,1.867731
120446,20637,2,ER,1,100,1.871155
120496,20655,2,ER,1,100,1.861285
120547,20655,2,ER,1,100,1.857861
120597,20673,2,ER,1,100,1.860077
120648,20673,2,ER,1,100,1.866925
120698,20692,2,ER,1,100,1.845172
120749,20692,2,ER,1,100,1.845374
120783,20710,3,ER,1,100,1.865918
120817,20710,3,ER,1,100,1.831879
120851,20710,3,ER,1,100,1.808514
120901,20728,2,ER,1,100,1.790387
120952,20728,2,ER,1,100,1.762994
121002,20746,2,ER,1,100,1.763196
121052,20746,2,ER,1,100,1.812945
121103,20764,2,ER,1,100,1.793207
121155,20764,2,ER,1,100,1.788171
121204,20782,2,ER,1,100,1.789380
121254,20782,2,ER,1,100,1.789783
121304,20800,2,ER,1,100,1.799048
121355,20800,2,ER,1,100,1.806097
121405,20819,2,ER,1,100,1.782532
121456,20819,2,ER,1,100,1.789783
121506,20837,2,ER,1,100,1.790991
121557,20837,2,ER,1,100,1.793811
121608,20855,2,ER,1,100,1.856451
121659,20855,2,ER,1,100,1.778503
121709,20873,2,ER,1,100,1.776892
121759,20873,2,ER,1,100,1.810529
121809,20891,2,ER,1,100,1.821002
121860,20891,2,ER,1,100,1.815564
121910,20909,2,ER,1,100,1.814557
121961,20909,2,ER,1,100,1.829260
122011,20927,2,ER,1,100,1.815765
122062,20927,2,ER,1,100,1.817578
122112,20945,2,ER,1,100,1.843964
122163,20945,2,ER,1,100,1.855444
122213,20964,2,ER,1,100,1.832684
122264,20964,2,ER,1,100,1.849402
122314,20982,2,ER,1,100,1.802069
122365,20982,2,ER,1,100,1.776691
122399,21000,3,ER,1,100,1.779510
122433,21000,3,ER,1,100,1.796631
122468,21000,3,ER,1,100,1.811133
122518,21018,2,ER,1,100,1.813348
122569,21018,2,ER,1,100,1.803680
122618,21036,2,ER,1,100,1.794415
122668,21036,2,ER,1,100,1.788776
122718,21054,2,ER,1,100,1.762793
122769,21054,2,ER,1,100,1.760175
122819,21072,2,ER,1,100,1.765814
122870,21072,2,ER,1,100,1.765814
122920,21091,2,ER,1,100,1.768835
122971,21091,2,ER,1,100,1.774072
123021,21109,2,ER,1,100,1.762591
123072,21109,2,ER,1,100,1.759167
123123,21127,2,ER,1,100,1.756146
123174,21127,2,ER,1,100,1.748694
123224,21145,2,ER,1,100,1.765411
123274,21145,2,ER,1,100,1.815564
123324,21163,2,ER,1,100,1.821002
123375,21163,2,ER,1,100,1.820197
123426,21181,2,ER,1,100,1.814154
123477,21181,2,ER,1,100,1.819189
123527,21199,2,ER,1,100,1.819189
123577,21199,2,ER,1,100,1.821808
123627,21218,2,ER,1,100,1.890491
123678,21218,2,ER,1,100,1.814960
123712,21236,3,ER,1,100,1.811133
123746,21236,3,ER,1,100,1.800861
123781,21236,3,ER,1,100,1.795825
123831,21254,2,ER,1,100,1.793005
123881,21254,2,ER,1,100,1.785150
123931,21272,2,ER,1,100,1.781726
123981,21272,2,ER,1,100,1.790991
124031,21290,2,ER,1,100,1.799048
124082,21290,2,ER,1,100,1.840741
124133,21308,2,ER,1,100,1.856653
124185,21308,2,ER,1,100,1.871960
124238,21329,3,ER,1,100,1.862897
124292,21329,3,ER,1,100,1.871960
124346,21329,3,ER,1,100,1.858868
124396,21350,2,ER,1,100,1.860883
124446,21350,2,ER,1,100,1.846582
124496,21368,2,ER,1,100,1.824023
124547,21368,2,ER,1,100,1.811938
124597,21386,2,ER,1,100,1.801868
124648,21386,2,ER,1,100,1.803882
124699,21404,2,ER,1,100,1.798444
124750,21404,2,ER,1,100,1.818787
124800,21422,2,ER,1,100,1.829260
124850,21422,2,ER,1,100,1.869342
124900,21440,2,ER,1,100,1.878406
124951,21440,2,ER,1,100,1.869342
125001,21458,2,ER,1,100,1.861285
125052,21458,2,ER,1,100,1.866925
125086,21477,3,ER,1,100,1.870551
125120,21477,3,ER,1,100,1.873370
125154,21477,3,ER,1,100,1.866522
125204,21495,2,ER,1,100,1.848193
125254,21495,2,ER,1,100,1.851013
125304,21513,2,ER,1,100,1.885858
125355,21513,2,ER,1,100,1.928760
125406,21531,2,ER,1,100,1.816571
125457,21531,2,ER,1,100,1.832483
125507,21549,2,ER,1,100,1.811938
125557,21549,2,ER,1,100,1.876190
125607,21567,2,ER,1,100,1.894519
125658,21567,2,ER,1,100,1.881226
125708,21585,2,ER,1,100,1.873370
125759,21585,2,ER,1,100,1.868536
125809,21603,2,ER,1,100,1.848193
125860,21603,2,ER,1,100,1.848999
125910,21622,2,ER,1,100,1.842554
125961,21622,2,ER,1,100,1.831879
126011,21640,2,ER,1,100,1.825030
126062,21640,2,ER,1,100,1.832281
126113,21658,2,ER,1,100,1.819391
126164,21658,2,ER,1,100,1.830872
126214,21676,2,ER,1,100,1.837317
126264,21676,2,ER,1,100,1.830670
126314,21694,2,ER,1,100,1.829260
126365,21694,2,ER,1,100,1.835303
126415,21712,2,ER,1,100,1.869543
126466,21712,2,ER,1,100,1.905194
126500,21730,3,ER,1,100,1.908417
126534,21730,3,ER,1,100,1.890289
126569,21730,3,ER,1,100,1.879010
126619,21749,2,ER,1,100,1.879010
126669,21749,2,ER,1,100,1.869141
126719,21767,2,ER,1,100,1.848798
126769,21767,2,ER,1,100,1.858667
126819,21785,2,ER,1,100,1.896936
126870,21785,2,ER,1,100,1.920905
126921,21803,2,ER,1,100,1.822815
126973,21803,2,ER,1,100,1.811737
127022,21821,2,ER,1,100,1.813953
127072,21821,2,ER,1,100,1.816168
127122,21839,2,ER,1,100,1.802069
127173,21839,2,ER,1,100,1.833691
127223,21857,2,ER,1,100,1.871356
127274,21857,2,ER,1,100,1.897742
127325,21875,2,ER,1,100,1.894922
127376,21875,2,ER,1,100,1.878003
127426,21894,2,ER,1,100,1.876794
127476,21894,2,ER,1,100,1.883844
127526,21912,2,ER,1,100,1.858264
127577,21912,2,ER,1,100,1.864709
127628,21930,2,ER,1,100,1.854236
127680,21930,2,ER,1,100,1.846179
127729,21948,2,ER,1,100,1.827045
127779,21948,2,ER,1,100,1.832483
127829,21966,2,ER,1,100,1.805896
127880,21966,2,ER,1,100,1.805695
127930,21984,2,ER,1,100,1.803882
127981,21984,2,ER,1,100,1.785352
128015,22002,3,ER,1,100,1.838928
128049,22002,3,ER,1,100,1.880420
128084,22002,3,ER,1,100,1.872162
128133,22021,2,ER,1,100,1.861285
128183,22021,2,ER,1,100,1.856049
128233,22039,2,ER,1,100,1.858466
128284,22039,2,ER,1,100,1.866321
128335,22057,2,ER,1,100,1.996234
128386,22057,2,ER,1,100,1.902777
128436,22075,2,ER,1,100,1.823419
128486,22075,2,ER,1,100,1.827448
128536,22093,2,ER,1,100,1.806097
128587,22093,2,ER,1,100,1.815967
128637,22111,2,ER,1,100,1.813550
128688,22111,2,ER,1,100,1.802875
128738,22129,2,ER,1,100,1.811334
128789,22129,2,ER,1,100,1.879816
128839,22148,2,ER,1,100,1.882031
128890,22148,2,ER,1,100,1.871558
128940,22166,2,ER,1,100,1.854840
128991,22166,2,ER,1,100,1.847388
129041,22184,2,ER,1,100,1.869946
129092,22184,2,ER,1,100,1.890289
129143,22202,2,ER,1,100,1.861688
129194,22202,2,ER,1,100,1.827246
129244,22220,2,ER,1,100,1.806903
129294,22220,2,ER,1,100,1.795825
129344,22238,2,ER,1,100,1.787366
129395,22238,2,ER,1,100,1.804486
129445,22256,2,ER,1,100,1.802069
129496,22256,2,ER,1,100,1.849603
129546,22274,2,ER,1,100,1.837518
129597,22274,2,ER,1,100,1.802472
129631,22293,3,ER,1,100,1.785956
129665,22293,3,ER,1,100,1.800861
129699,22293,3,ER,1,100,1.792200
129749,22311,2,ER,1,100,1.789581
129799,22311,2,ER,1,100,1.795422
129849,22329,2,ER,1,100,1.776086
129900,22329,2,ER,1,100,1.915668
129951,22347,2,ER,1,100,1.953333
130002,22347,2,ER,1,100,1.788373
130052,22365,2,ER,1,100,1.818384
130102,22365,2,ER,1,100,1.844366
130152,22383,2,ER,1,100,1.821405
130203,22383,2,ER,1,100,1.825232
130253,22401,2,ER,1,100,1.837518
130304,22401,2,ER,1,100,1.836914
130354,22420,2,ER,1,100,1.831677
130405,22420,2,ER,1,100,1.831274
130455,22438,2,ER,1,100,1.815564
130506,22438,2,ER,1,100,1.827649
130556,22456,2,ER,1,100,1.826239
130607,22456,2,ER,1,100,1.867932
130657,22474,2,ER,1,100,1.902173
130708,22474,2,ER,1,100,1.919696
130758,22492,2,ER,1,100,1.901569
130809,22492,2,ER,1,100,1.900561
130859,22510,2,ER,1,100,1.898950
130910,22510,2,ER,1,100,1.883643
130960,22528,2,ER,1,100,1.874780
131011,22528,2,ER,1,100,1.866925
131045,22547,3,ER,1,100,1.846179
131079,22547,3,ER,1,100,1.828857
131114,22547,3,ER,1,100,1.820599
131164,22565,2,ER,1,100,1.804486
131214,22565,2,ER,1,100,1.851416
131264,22583,2,ER,1,100,1.883240
131314,22583,2,ER,1,100,1.895123
131364,22601,2,ER,1,100,1.865918
131415,22601,2,ER,1,100,1.869342
131466,22619,2,ER,1,100,1.852826
131517,22619,2,ER,1,100,1.862897
131567,22637,2,ER,1,100,1.846381
131617,22637,2,ER,1,100,1.828455
131667,22655,2,ER,1,100,1.833490
131718,22655,2,ER,1,100,2.004895
131768,22673,2,ER,1,100,2.026447
131819,22673,2,ER,1,100,2.011340
131869,22692,2,ER,1,100,1.989386
131920,22692,2,ER,1,100,1.957965
131970,22710,2,ER,1,100,1.952527
132021,22710,2,ER,1,100,1.933191
132071,22728,2,ER,1,100,1.926343
132122,22728,2,ER,1,100,2.002478
132172,22746,2,ER,1,100,2.036517
132223,22746,2,ER,1,100,2.009125
132274,22764,2,ER,1,100,1.982135
132325,22764,2,ER,1,100,1.965418
132375,22782,2,ER,1,100,1.946686
132425,22782,2,ER,1,100,1.951520
132475,22800,2,ER,1,100,1.938428
132526,22800,2,ER,1,100,1.912244
132576,22819,2,ER,1,100,1.896936
132627,22819,2,ER,1,100,1.896936
132661,22837,3,ER,1,100,1.876593
132695,22837,3,ER,1,100,1.872162
132729,22837,3,ER,1,100,1.867529
132779,22855,2,ER,1,100,1.846985
132830,22855,2,ER,1,100,1.837720
132880,22873,2,ER,1,100,1.854236
132930,22873,2,ER,1,100,1.913855
132981,22891,2,ER,1,100,1.922717
133032,22891,2,ER,1,100,1.936414
133082,22909,2,ER,1,100,1.919696
133132,22909,2,ER,1,100,1.931378
133182,22927,2,ER,1,100,1.931378
133233,22927,2,ER,1,100,1.907611
133283,22945,2,ER,1,100,1.892303
133334,22945,2,ER,1,100,1.900763
133384,22964,2,ER,1,100,1.893311
133435,22964,2,ER,1,100,1.885254
133485,22982,2,ER,1,100,1.870148
133536,22982,2,ER,1,100,1.852222
133586,23000,2,ER,1,100,1.853229
133637,23000,2,ER,1,100,1.853229
133688,23018,2,ER,1,100,1.817377
133739,23018,2,ER,1,100,1.862695
133789,23036,2,ER,1,100,1.918890
133839,23036,2,ER,1,100,1.918488
133889,23054,2,ER,1,100,1.886261
133940,23054,2,ER,1,100,1.857458
133990,23072,2,ER,1,100,1.844568
134041,23072,2,ER,1,100,1.853430
134091,23091,2,ER,1,100,1.857056
134142,23091,2,ER,1,100,1.835907
134176,23109,3,ER,1,100,1.830670
134210,23109,3,ER,1,100,1.838122
134244,23109,3,ER,1,100,1.812341
134294,23127,2,ER,1,100,1.811737
134344,23127,2,ER,1,100,1.815363
134394,23145,2,ER,1,100,1.793207
134445,23145,2,ER,1,100,1.802673
134495,23163,2,ER,1,100,1.864307
134546,23163,2,ER,1,100,1.887067
134597,23181,2,ER,1,100,1.881628
134648,23181,2,ER,1,100,1.873572
134698,23199,2,ER,1,100,1.845575
134749,23199,2,ER,1,100,1.855444
134799,23218,2,ER,1,100,1.841547
134849,23218,2,ER,1,100,1.813147
134899,23236,2,ER,1,100,1.790790
134950,23236,2,ER,1,100,1.791595
135001,23254,2,ER,1,100,1.757758
135052,23254,2,ER,1,100,1.749902
135097,23275,4,ER,1,100,1.750507
135143,23275,4,ER,1,100,1.735602
135189,23275,4,ER,1,100,1.730365
135235,23275,4,ER,1,100,1.745673
135285,23295,2,ER,1,100,1.805292
135335,23295,2,ER,1,100,1.853632
135385,23313,2,ER,1,100,1.851215
135435,23313,2,ER,1,100,1.841345
135485,23331,2,ER,1,100,1.833289
135536,23331,2,ER,1,100,1.860883
135586,23350,2,ER,1,100,1.838122
135637,23350,2,ER,1,100,1.824426
135687,23368,2,ER,1,100,1.816974
135738,23368,2,ER,1,100,1.810529
135788,23386,2,ER,1,100,1.802069
135839,23386,2,ER,1,100,1.815967
135889,23404,2,ER,1,100,1.835504
135940,23404,2,ER,1,100,1.811334
135990,23422,2,ER,1,100,1.827045
136041,23422,2,ER,1,100,1.816571
136091,23440,2,ER,1,100,1.835706
136142,23440,2,ER,1,100,1.927148
136192,23458,2,ER,1,100,1.928156
136243,23458,2,ER,1,100,1.921106
136293,23477,2,ER,1,100,1.899957
136344,23477,2,ER,1,100,1.882635
136378,23495,3,ER,1,100,1.877802
136412,23495,3,ER,1,100,1.867932
136446,23495,3,ER,1,100,1.847388
136496,23513,2,ER,1,100,1.859271
136546,23513,2,ER,1,100,1.829865
136596,23531,2,ER,1,100,1.821002
136647,23531,2,ER,1,100,1.824628
136698,23549,2,ER,1,100,1.792804
136750,23549,2,ER,1,100,1.811133
136799,23567,2,ER,1,100,1.809119
136849,23567,2,ER,1,100,1.803076
136899,23585,2,ER,1,100,1.850006
136950,23585,2,ER,1,100,1.910028
137000,23603,2,ER,1,100,1.887872
137051,23603,2,ER,1,100,1.883441
137101,23622,2,ER,1,100,1.895728
137152,23622,2,ER,1,100,1.897339
137203,23640,2,ER,1,100,1.886664
137254,23640,2,ER,1,100,1.880621
137304,23658,2,ER,1,100,1.846582
137354,23658,2,ER,1,100,1.848798
137404,23676,2,ER,1,100,1.850409
137455,23676,2,ER,1,100,1.874579
137505,23694,2,ER,1,100,1.865112
137556,23694,2,ER,1,100,1.848193
137606,23712,2,ER,1,100,1.819189
137657,23712,2,ER,1,100,1.823218
137707,23730,2,ER,1,100,1.849200
137758,23730,2,ER,1,100,1.889886
137808,23749,2,ER,1,100,1.922113
137859,23749,2,ER,1,100,1.933392
137893,23767,3,ER,1,100,1.909827
137927,23767,3,ER,1,100,1.910834
137961,23767,3,ER,1,100,1.934601
138011,23785,2,ER,1,100,1.889484
138061,23785,2,ER,1,100,1.871759
138111,23803,2,ER,1,100,1.861890
138162,23803,2,ER,1,100,1.840338
138212,23821,2,ER,1,100,1.834698
138263,23821,2,ER,1,100,1.842352
138313,23839,2,ER,1,100,1.821002
138364,23839,2,ER,1,100,1.838727
138414,23857,2,ER,1,100,1.830066
138465,23857,2,ER,1,100,1.804486
138515,23876,2,ER,1,100,1.802271
138566,23876,2,ER,1,100,1.827448
138616,23894,2,ER,1,100,1.890491
138667,23894,2,ER,1,100,1.925738
138717,23912,2,ER,1,100,1.917078
138768,23912,2,ER,1,100,1.901367
138818,23930,2,ER,1,100,1.895325
138869,23930,2,ER,1,100,1.909625
138920,23948,2,ER,1,100,1.879816
138971,23948,2,ER,1,100,1.877399
139021,23966,2,ER,1,100,1.868536
139071,23966,2,ER,1,100,1.860077
139121,23984,2,ER,1,100,1.850006
139172,23984,2,ER,1,100,1.846985
139222,24002,2,ER,1,100,1.828857
139273,24002,2,ER,1,100,1.828253
139323,24021,2,ER,1,100,1.844165
139374,24021,2,ER,1,100,1.827448
139408,24039,3,ER,1,100,1.820801
139442,24039,3,ER,1,100,1.871155
139476,24039,3,ER,1,100,1.914862
139526,24057,2,ER,1,100,1.914459
139576,24057,2,ER,1,100,1.897339
139626,24075,2,ER,1,100,1.868939
139677,24075,2,ER,1,100,1.881830
139727,24093,2,ER,1,100,1.888476
139778,24093,2,ER,1,100,1.866724
139828,24111,2,ER,1,100,1.865112
139879,24111,2,ER,1,100,1.881628
139929,24129,2,ER,1,100,1.861487
139980,24129,2,ER,1,100,1.860077
140030,24148,2,ER,1,100,1.848999
140081,24148,2,ER,1,100,1.829663
140131,24166,2,ER,1,100,1.825433
140182,24166,2,ER,1,100,1.842957
140233,24184,2,ER,1,100,1.845776
140284,24184,2,ER,1,100,1.921912
140334,24202,2,ER,1,100,1.928357
140384,24202,2,ER,1,100,1.917078
140435,24220,2,ER,1,100,1.902173
140486,24220,2,ER,1,100,1.908618
140536,24238,2,ER,1,100,1.880621
140586,24238,2,ER,1,100,1.880621
140636,24256,2,ER,1,100,1.866724
140687,24256,2,ER,1,100,1.840741
140737,24274,2,ER,1,100,1.833893
140788,24274,2,ER,1,100,1.840137
140838,24293,2,ER,1,100,1.813550
140889,24293,2,ER,1,100,1.805896
140923,24311,3,ER,1,100,1.813550
140957,24311,3,ER,1,100,1.797436
140991,24311,3,ER,1,100,1.788574
141041,24329,2,ER,1,100,1.800458
141091,24329,2,ER,1,100,1.873975
141141,24347,2,ER,1,100,1.903180
141192,24347,2,ER,1,100,1.903784
141243,24365,2,ER,1,100,1.862897
141294,24365,2,ER,1,100,1.859070
141344,24383,2,ER,1,100,1.867126
141394,24383,2,ER,1,100,1.853027
141444,24401,2,ER,1,100,1.827850
141495,24401,2,ER,1,100,1.819592
141545,24420,2,ER,1,100,1.802875
141596,24420,2,ER,1,100,1.809924
141646,24438,2,ER,1,100,1.817578
141697,24438,2,ER,1,100,1.796027
141748,24456,2,ER,1,100,1.790186
141799,24456,2,ER,1,100,1.793005
141849,24474,2,ER,1,100,1.768835
141899,24474,2,ER,1,100,1.780719
141949,24492,2,ER,1,100,1.850812
142000,24492,2,ER,1,100,1.860480
142051,24510,2,ER,1,100,1.860681
142102,24510,2,ER,1,100,1.860681
142152,24528,2,ER,1,100,1.834497
142202,24528,2,ER,1,100,1.840741
142252,24547,2,ER,1,100,1.839331
142303,24547,2,ER,1,100,1.820599
142353,24565,2,ER,1,100,1.783942
142404,24565,2,ER,1,100,1.783942
142454,24583,2,ER,1,100,1.761987
142505,24583,2,ER,1,100,1.785754
142539,24601,3,ER,1,100,1.791394
142573,24601,3,ER,1,100,1.770447
142607,24601,3,ER,1,100,1.770850
142657,24619,2,ER,1,100,1.768835
142707,24619,2,ER,1,100,1.776086
142757,24637,2,ER,1,100,1.849805
142808,24637,2,ER,1,100,1.872967
142859,24655,2,ER,1,100,1.840540
142910,24655,2,ER,1,100,1.827246
142960,24673,2,ER,1,100,1.841144
143010,24673,2,ER,1,100,1.855646
143060,24692,2,ER,1,100,1.853027
143111,24692,2,ER,1,100,1.855243
143161,24710,2,ER,1,100,1.806299
143212,24710,2,ER,1,100,1.813348
143262,24728,2,ER,1,100,1.822009
143313,24728,2,ER,1,100,1.826239
143472,24765,3,ER,1,100,1.877802
143631,24765,3,ER,1,100,1.853632
143791,24765,3,ER,1,100,1.846985
143841,24783,2,ER,1,100,1.831476
143891,24783,2,ER,1,100,1.809119
143941,24801,2,ER,1,100,1.831879
143992,24801,2,ER,1,100,1.890088
144043,24819,2,ER,1,100,1.869141
144094,24819,2,ER,1,100,1.863904
144144,24837,2,ER,1,100,1.849200
144194,24837,2,ER,1,100,1.833691
144244,24855,2,ER,1,100,1.837115
144295,24855,2,ER,1,100,1.837720
144345,24873,2,ER,1,100,1.811334
144396,24873,2,ER,1,100,1.809723
144447,24891,2,ER,1,100,1.803278
144499,24891,2,ER,1,100,1.797436
144548,24910,2,ER,1,100,1.792200
144598,24910,2,ER,1,100,1.816370
144648,24928,2,ER,1,100,1.858063
144699,24928,2,ER,1,100,1.882635
144749,24946,2,ER,1,100,1.882233
144800,24946,2,ER,1,100,1.868536
144850,24964,2,ER,1,100,1.865515
144901,24964,2,ER,1,100,1.882233
144935,24982,3,ER,1,100,1.878607
144969,24982,3,ER,1,100,1.865112
145003,24982,3,ER,1,100,1.851819
145053,25000,2,ER,1,100,1.839532
145103,25000,2,ER,1,100,1.846783
145153,25018,2,ER,1,100,1.835706
145204,25018,2,ER,1,100,1.830267
145255,25037,2,ER,1,100,1.826239
145306,25037,2,ER,1,100,1.837115
145356,25055,2,ER,1,100,1.825635
145406,25055,2,ER,1,100,1.887671
145456,25073,2,ER,1,100,1.938629
145507,25073,2,ER,1,100,1.930774
145557,25091,2,ER,1,100,1.917883
145608,25091,2,ER,1,100,1.918890
145658,25109,2,ER,1,100,1.926544
145709,25109,2,ER,1,100,1.918689
145759,25127,2,ER,1,100,1.908417
145810,25127,2,ER,1,100,1.903784
145860,25145,2,ER,1,100,1.881628
145911,25145,2,ER,1,100,1.883643
145963,25163,2,ER,1,100,1.864105
146016,25163,2,ER,1,100,1.870148
146056,25185,4,ER,1,100,1.839331
146097,25185,4,ER,1,100,1.830872
146137,25185,4,ER,1,100,1.836511
146178,25185,4,ER,1,100,1.837921
146227,25205,2,ER,1,100,1.835907
146277,25205,2,ER,1,100,1.915265
146328,25223,2,ER,1,100,1.964612
146380,25223,2,ER,1,100,1.974884
146429,25241,2,ER,1,100,1.963000
146479,25241,2,ER,1,100,1.923321
146529,25259,2,ER,1,100,1.914862
146580,25259,2,ER,1,100,1.925537
146630,25277,2,ER,1,100,1.886462
146681,25277,2,ER,1,100,1.879614
146731,25296,2,ER,1,100,1.863702
146782,25296,2,ER,1,100,1.845172
146833,25314,2,ER,1,100,1.834900
146884,25314,2,ER,1,100,1.841345
146934,25332,2,ER,1,100,1.817377
146984,25332,2,ER,1,100,1.821405
147034,25350,2,ER,1,100,1.820599
147085,25350,2,ER,1,100,1.795624
147135,25368,2,ER,1,100,1.833691
147186,25368,2,ER,1,100,1.913049
147236,25386,2,ER,1,100,1.913452
147287,25386,2,ER,1,100,1.894519
147337,25404,2,ER,1,100,1.882031
147388,25404,2,ER,1,100,1.880621
147438,25422,2,ER,1,100,1.883240
147489,25422,2,ER,1,100,1.888476
147523,25441,3,ER,1,100,1.854437
147557,25441,3,ER,1,100,1.846381
147591,25441,3,ER,1,100,1.869342
147641,25459,2,ER,1,100,1.847388
147692,25459,2,ER,1,100,1.843762
147742,25477,2,ER,1,100,1.838928
147792,25477,2,ER,1,100,1.815161
147843,25495,2,ER,1,100,1.819794
147894,25495,2,ER,1,100,1.843964
147944,25513,2,ER,1,100,1.837720
147994,25513,2,ER,1,100,1.916675
148044,25531,2,ER,1,100,1.921106
148095,25531,2,ER,1,100,1.886664
148145,25549,2,ER,1,100,1.866925
148196,25549,2,ER,1,100,1.889886
148246,25568,2,ER,1,100,1.870349
148297,25568,2,ER,1,100,1.877197
148347,25586,2,ER,1,100,1.872162
148398,25586,2,ER,1,100,1.863904
148448,25604,2,ER,1,100,1.860681
148499,25604,2,ER,1,100,1.868939
148550,25622,2,ER,1,100,1.838122
148601,25622,2,ER,1,100,1.834296
148651,25640,2,ER,1,100,1.851215
148701,25640,2,ER,1,100,1.897943
148751,25658,2,ER,1,100,1.899756
148802,25658,2,ER,1,100,1.896533
148852,25676,2,ER,1,100,1.860681
148903,25676,2,ER,1,100,1.860278
148937,25695,3,ER,1,100,1.872967
148971,25695,3,ER,1,100,1.848798
149006,25695,3,ER,1,100,1.837720
149056,25713,2,ER,1,100,1.845172
149106,25713,2,ER,1,100,1.833893
149156,25731,2,ER,1,100,1.847388
149206,25731,2,ER,1,100,1.851416
149256,25749,2,ER,1,100,1.851617
149307,25749,2,ER,1,100,1.839532
149357,25767,2,ER,1,100,1.904187
149408,25767,2,ER,1,100,1.925940
149458,25785,2,ER,1,100,1.927551
149509,25785,2,ER,1,100,1.922516
149559,25803,2,ER,1,100,1.889282
149610,25803,2,ER,1,100,1.913855
149660,25821,2,ER,1,100,1.918488
149711,25821,2,ER,1,100,1.887067
149761,25840,2,ER,1,100,1.860883
149812,25840,2,ER,1,100,1.853632
149863,25858,2,ER,1,100,1.822412
149914,25858,2,ER,1,100,1.819794
149964,25876,2,ER,1,100,1.829865
150014,25876,2,ER,1,100,1.838122
150064,25894,2,ER,1,100,1.820398
150115,25894,2,ER,1,100,1.868134
150165,25912,2,ER,1,100,1.906604
150216,25912,2,ER,1,100,1.916473
150266,25930,2,ER,1,100,1.895526
150317,25930,2,ER,1,100,1.874377
150367,25948,2,ER,1,100,1.878204
150418,25948,2,ER,1,100,1.895526
150468,25967,2,ER,1,100,1.866321
150519,25967,2,ER,1,100,1.866119
150553,25985,3,ER,1,100,1.843762
150587,25985,3,ER,1,100,1.816168
150621,25985,3,ER,1,100,1.810126
150671,26003,2,ER,1,100,1.801868
150721,26003,2,ER,1,100,1.789783
150771,26021,2,ER,1,100,1.791394
150822,26021,2,ER,1,100,1.819995
150873,26039,2,ER,1,100,1.829865
150924,26039,2,ER,1,100,1.889484
150974,26057,2,ER,1,100,1.905597
151024,26057,2,ER,1,100,1.903986
151074,26075,2,ER,1,100,1.893915
151125,26075,2,ER,1,100,1.910229
151175,26093,2,ER,1,100,1.893512
151226,26093,2,ER,1,100,1.892303
151276,26112,2,ER,1,100,1.885657
151327,26112,2,ER,1,100,1.861084
151377,26130,2,ER,1,100,1.852826
151428,26130,2,ER,1,100,1.861688
151478,26148,2,ER,1,100,1.833490
151529,26148,2,ER,1,100,1.840942
151580,26166,2,ER,1,100,1.825030
151632,26166,2,ER,1,100,1.810529
151681,26184,2,ER,1,100,1.808716
151731,26184,2,ER,1,100,1.822009
151781,26202,2,ER,1,100,1.870953
151832,26202,2,ER,1,100,1.926544
151882,26220,2,ER,1,100,1.925738
151933,26220,2,ER,1,100,1.911639
151967,26239,3,ER,1,100,1.918488
152001,26239,3,ER,1,100,1.923523
152036,26239,3,ER,1,100,1.914862
152086,26257,2,ER,1,100,1.901367
152136,26257,2,ER,1,100,1.886865
152186,26275,2,ER,1,100,1.867731
152237,26275,2,ER,1,100,1.879010
152287,26293,2,ER,1,100,1.882635
152337,26293,2,ER,1,100,1.892102
152387,26311,2,ER,1,100,1.879816
152438,26311,2,ER,1,100,1.870953
152489,26329,2,ER,1,100,1.839935
152540,26329,2,ER,1,100,1.862695
152590,26347,2,ER,1,100,1.958166
152640,26347,2,ER,1,100,1.974280
152690,26366,2,ER,1,100,1.933795
152741,26366,2,ER,1,100,1.909625
152791,26384,2,ER,1,100,1.884448
152842,26384,2,ER,1,100,1.905597
152892,26402,2,ER,1,100,1.887268
152943,26402,2,ER,1,100,1.858466
152993,26420,2,ER,1,100,1.837720
153044,26420,2,ER,1,100,1.841144
153095,26438,2,ER,1,100,1.821204
153146,26438,2,ER,1,100,1.825635
153196,26456,2,ER,1,100,1.817578
153246,26456,2,ER,1,100,1.815363
153296,26474,2,ER,1,100,1.813550
153347,26474,2,ER,1,100,1.838525
153397,26492,2,ER,1,100,1.907007
153448,26492,2,ER,1,100,1.936816
153482,26511,3,ER,1,100,1.929163
153516,26511,3,ER,1,100,1.910834
153550,26511,3,ER,1,100,1.913653
153600,26529,2,ER,1,100,1.928558
153650,26529,2,ER,1,100,1.918689
153700,26547,2,ER,1,100,1.907410
153751,26547,2,ER,1,100,1.882233
153801,26565,2,ER,1,100,1.849402
153852,26565,2,ER,1,100,1.859875
153903,26583,2,ER,1,100,1.865515
153955,26583,2,ER,1,100,1.851013
154004,26601,2,ER,1,100,1.905597
154054,26601,2,ER,1,100,1.894922
154104,26619,2,ER,1,100,1.859070
154155,26619,2,ER,1,100,1.945074
154205,26638,2,ER,1,100,1.981531
154256,26638,2,ER,1,100,1.975690
154306,26656,2,ER,1,100,1.942053
154357,26656,2,ER,1,100,1.959778
154408,26674,2,ER,1,100,1.943463
154459,26674,2,ER,1,100,1.946887
154509,26692,2,ER,1,100,1.935809
154559,26692,2,ER,1,100,1.921307
154609,26710,2,ER,1,100,1.889282
154660,26710,2,ER,1,100,1.884650
154710,26728,2,ER,1,100,1.854639
154761,26728,2,ER,1,100,1.851013
154811,26746,2,ER,1,100,1.864709
154862,26746,2,ER,1,100,1.851416
154912,26764,2,ER,1,100,1.850006
154963,26764,2,ER,1,100,1.921509
155013,26783,2,ER,1,100,1.953131
155064,26783,2,ER,1,100,1.953937
155098,26801,3,ER,1,100,1.950915
155132,26801,3,ER,1,100,1.929364
155166,26801,3,ER,1,100,1.930371
155216,26819,2,ER,1,100,1.936212
155267,26819,2,ER,1,100,1.910834
155317,26837,2,ER,1,100,1.894116
155367,26837,2,ER,1,100,1.891699
155417,26855,2,ER,1,100,1.874176
155468,26855,2,ER,1,100,1.883240
155518,26873,2,ER,1,100,1.838525
155569,26873,2,ER,1,100,1.825433
155619,26891,2,ER,1,100,1.831879
155670,26891,2,ER,1,100,1.884650
155720,26910,2,ER,1,100,1.918286
155771,26910,2,ER,1,100,1.930975
155822,26928,2,ER,1,100,1.895325
155873,26928,2,ER,1,100,1.901971
155923,26946,2,ER,1,100,1.914661
155973,26946,2,ER,1,100,1.899152
156023,26964,2,ER,1,100,1.890894
156074,26964,2,ER,1,100,1.886664
156124,26982,2,ER,1,100,1.846582
156175,26982,2,ER,1,100,1.858063
156225,27000,2,ER,1,100,1.850207
156276,27000,2,ER,1,100,1.823621
156326,27018,2,ER,1,100,1.813953
156377,27018,2,ER,1,100,1.924530
156427,27037,2,ER,1,100,1.928357
156478,27037,2,ER,1,100,1.923523
156528,27055,2,ER,1,100,1.903986
156579,27055,2,ER,1,100,1.880420
156629,27073,2,ER,1,100,1.894318
156680,27073,2,ER,1,100,1.898144
156714,27091,3,ER,1,100,1.850610
156748,27091,3,ER,1,100,1.855847
156783,27091,3,ER,1,100,1.892303
156832,27109,2,ER,1,100,1.872162
156882,27109,2,ER,1,100,1.858063
156942,27130,3,ER,1,100,1.906403
157003,27130,3,ER,1,100,1.920905
157064,27130,3,ER,1,100,1.920099
157114,27150,2,ER,1,100,1.924933
157164,27150,2,ER,1,100,1.914862
157214,27169,2,ER,1,100,1.928357
157265,27169,2,ER,1,100,1.919495
157299,27187,3,ER,1,100,1.889685
157333,27187,3,ER,1,100,1.886060
157367,27187,3,ER,1,100,1.874176
157417,27205,2,ER,1,100,1.833691
157467,27205,2,ER,1,100,1.843158
157517,27223,2,ER,1,100,1.895728
157568,27223,2,ER,1,100,1.904993
157619,27241,2,ER,1,100,1.903180
157670,27241,2,ER,1,100,1.904993
157720,27259,2,ER,1,100,1.885254
157770,27259,2,ER,1,100,1.903180
157820,27277,2,ER,1,100,1.907410
157871,27277,2,ER,1,100,1.883038
157921,27296,2,ER,1,100,1.860077
157972,27296,2,ER,1,100,1.870953
158022,27314,2,ER,1,100,1.839734
158073,27314,2,ER,1,100,1.841345
158123,27332,2,ER,1,100,1.871960
158174,27332,2,ER,1,100,1.871356
158224,27350,2,ER,1,100,1.859875
158275,27350,2,ER,1,100,1.871155
158326,27368,2,ER,1,100,1.858264
158377,27368,2,ER,1,100,1.870551
158427,27386,2,ER,1,100,1.878607
158478,27386,2,ER,1,100,1.867126
158528,27404,2,ER,1,100,1.866522
158578,27404,2,ER,1,100,1.889081
158628,27422,2,ER,1,100,1.848999
158679,27422,2,ER,1,100,1.856854
158713,27441,3,ER,1,100,1.859271
158747,27441,3,ER,1,100,1.839935
158781,27441,3,ER,1,100,1.863904
158831,27459,2,ER,1,100,1.912445
158882,27459,2,ER,1,100,1.901971
158932,27477,2,ER,1,100,1.901770
158982,27477,2,ER,1,100,1.928357
159032,27495,2,ER,1,100,1.932788
159083,27495,2,ER,1,100,1.929767
159133,27513,2,ER,1,100,1.912445
159184,27513,2,ER,1,100,1.883643
159235,27531,2,ER,1,100,1.878809
159286,27531,2,ER,1,100,1.883441
159336,27549,2,ER,1,100,1.857660
159386,27549,2,ER,1,100,1.857458
159436,27568,2,ER,1,100,1.862494
159487,27568,2,ER,1,100,1.855847
159537,27586,2,ER,1,100,1.862897
159588,27586,2,ER,1,100,1.860480
159639,27604,2,ER,1,100,1.843762
159690,27604,2,ER,1,100,1.887268
159740,27622,2,ER,1,100,1.918689
159790,27622,2,ER,1,100,1.888678
159840,27640,2,ER,1,100,1.886261
159891,27640,2,ER,1,100,1.888275
159941,27658,2,ER,1,100,1.866522
159992,27658,2,ER,1,100,1.876996
160043,27676,2,ER,1,100,1.875183
160094,27676,2,ER,1,100,1.860077
160144,27695,2,ER,1,100,1.855444
160194,27695,2,ER,1,100,1.849402
160244,27713,2,ER,1,100,1.825635
160295,27713,2,ER,1,100,1.843561
160329,27731,3,ER,1,100,1.834900
160363,27731,3,ER,1,100,1.797638
160397,27731,3,ER,1,100,1.799853
160447,27749,2,ER,1,100,1.846783
160497,27749,2,ER,1,100,1.874579
160547,27767,2,ER,1,100,1.865918
160598,27767,2,ER,1,100,1.843561
160649,27785,2,ER,1,100,1.816168
160700,27785,2,ER,1,100,1.829663
160750,27803,2,ER,1,100,1.818182
160800,27803,2,ER,1,100,1.799451
160850,27821,2,ER,1,100,1.789581
160901,27821,2,ER,1,100,1.795422
160951,27840,2,ER,1,100,1.768634
161002,27840,2,ER,1,100,1.773871
161052,27858,2,ER,1,100,1.763800
161103,27858,2,ER,1,100,1.753729
161153,27876,2,ER,1,100,1.752722
161204,27876,2,ER,1,100,1.801666
161254,27894,2,ER,1,100,1.816571
161305,27894,2,ER,1,100,1.818585
161356,27912,2,ER,1,100,1.805292
161407,27912,2,ER,1,100,1.799652
161457,27930,2,ER,1,100,1.809320
161507,27930,2,ER,1,100,1.811737
161557,27948,2,ER,1,100,1.785754
161608,27948,2,ER,1,100,1.788373
161658,27967,2,ER,1,100,1.784546
161709,27967,2,ER,1,100,1.778503
161743,27985,3,ER,1,100,1.802673
161777,27985,3,ER,1,100,1.798444
161811,27985,3,ER,1,100,1.788574
161861,28003,2,ER,1,100,1.833490
161912,28003,2,ER,1,100,1.848999
161962,28021,2,ER,1,100,1.823621
162012,28021,2,ER,1,100,1.811133
162062,28039,2,ER,1,100,1.831879
162113,28039,2,ER,1,100,1.820801
162163,28057,2,ER,1,100,1.818787
162214,28057,2,ER,1,100,1.820801
162265,28075,2,ER,1,100,1.802673
162316,28075,2,ER,1,100,1.811536
162366,28093,2,ER,1,100,1.802271
162416,28093,2,ER,1,100,1.832483
162466,28112,2,ER,1,100,1.868939
162517,28112,2,ER,1,100,1.886060
162567,28130,2,ER,1,100,1.871960
162618,28130,2,ER,1,100,1.877399
162668,28148,2,ER,1,100,1.882635
162719,28148,2,ER,1,100,1.880219
162769,28166,2,ER,1,100,1.877802
162820,28166,2,ER,1,100,1.868536
162870,28184,2,ER,1,100,1.835101
162921,28184,2,ER,1,100,1.843359
162972,28202,2,ER,1,100,1.845978
163024,28202,2,ER,1,100,1.861487
163074,28220,2,ER,1,100,1.867932
163124,28220,2,ER,1,100,1.873370
163174,28239,2,ER,1,100,1.855444
163225,28239,2,ER,1,100,1.851819
163259,28257,3,ER,1,100,1.863299
163293,28257,3,ER,1,100,1.855042
163327,28257,3,ER,1,100,1.860278
163377,28275,2,ER,1,100,1.856250
163427,28275,2,ER,1,100,1.836713
163477,28293,2,ER,1,100,1.844568
163528,28293,2,ER,1,100,1.858264
163579,28311,2,ER,1,100,1.881427
163630,28311,2,ER,1,100,1.915064
163680,28329,2,ER,1,100,1.917883
163731,28329,2,ER,1,100,1.900763
163781,28347,2,ER,1,100,1.907410
163831,28347,2,ER,1,100,1.934198
163881,28366,2,ER,1,100,1.905798
163932,28366,2,ER,1,100,1.890692
163983,28384,2,ER,1,100,1.874176
164034,28384,2,ER,1,100,1.860480
164084,28402,2,ER,1,100,1.863299
164134,28402,2,ER,1,100,1.867126
164184,28420,2,ER,1,100,1.843561
164235,28420,2,ER,1,100,1.842151
164285,28438,2,ER,1,100,1.868939
164336,28438,2,ER,1,100,1.913049
164387,28456,2,ER,1,100,1.929968
164438,28456,2,ER,1,100,1.929364
164488,28474,2,ER,1,100,1.922516
164539,28474,2,ER,1,100,1.915064
164589,28492,2,ER,1,100,1.918286
164639,28492,2,ER,1,100,1.916473
164689,28511,2,ER,1,100,1.901166
164740,28511,2,ER,1,100,1.896332
164790,28529,2,ER,1,100,1.876593
164841,28529,2,ER,1,100,1.879010
164875,28547,3,ER,1,100,1.873975
164909,28547,3,ER,1,100,1.855847
164943,28547,3,ER,1,100,1.847790
164993,28565,2,ER,1,100,1.841949
165043,28565,2,ER,1,100,1.827246
165093,28583,2,ER,1,100,1.858667
165144,28583,2,ER,1,100,1.895728
165195,28601,2,ER,1,100,1.881427
165246,28601,2,ER,1,100,1.886664
165296,28619,2,ER,1,100,1.878406
165346,28619,2,ER,1,100,1.877197
165396,28638,2,ER,1,100,1.868536
165447,28638,2,ER,1,100,1.868134
165497,28656,2,ER,1,100,1.841748
165548,28656,2,ER,1,100,1.856451
165598,28674,2,ER,1,100,1.844568
165649,28674,2,ER,1,100,1.841345
165699,28692,2,ER,1,100,1.838525
165750,28692,2,ER,1,100,1.829663
165800,28710,2,ER,1,100,1.820197
165851,28710,2,ER,1,100,1.835907
165902,28728,2,ER,1,100,1.822009
165953,28728,2,ER,1,100,1.870752
166003,28746,2,ER,1,100,1.886060
166054,28746,2,ER,1,100,1.870953
166104,28765,2,ER,1,100,1.868335
166154,28765,2,ER,1,100,1.879010
166204,28783,2,ER,1,100,1.870953
166255,28783,2,ER,1,100,1.880621
166289,28801,3,ER,1,100,1.871356
166323,28801,3,ER,1,100,1.851013
166357,28801,3,ER,1,100,1.861084
166407,28819,2,ER,1,100,1.858868
166457,28819,2,ER,1,100,1.841748
166507,28837,2,ER,1,100,1.832483
166558,28837,2,ER,1,100,1.842957
166608,28855,2,ER,1,100,1.821606
166659,28855,2,ER,1,100,1.852826
166710,28873,2,ER,1,100,1.886462
166761,28873,2,ER,1,100,1.887469
166811,28891,2,ER,1,100,1.891699
166861,28891,2,ER,1,100,1.885858
166911,28910,2,ER,1,100,1.861688
166962,28910,2,ER,1,100,1.859875
167012,28928,2,ER,1,100,1.850006
167063,28928,2,ER,1,100,1.835706
167114,28946,2,ER,1,100,1.832483
167165,28946,2,ER,1,100,1.845374
167215,28964,2,ER,1,100,1.828857
167265,28964,2,ER,1,100,1.841144
167315,28982,2,ER,1,100,1.828857
167366,28982,2,ER,1,100,1.814154
167417,29000,2,ER,1,100,1.863098
167468,29000,2,ER,1,100,1.906201
167518,29018,2,ER,1,100,1.854236
167568,29018,2,ER,1,100,1.835706
167618,29037,2,ER,1,100,1.839532
167669,29037,2,ER,1,100,1.837720
167719,29055,2,ER,1,100,1.829865
167770,29055,2,ER,1,100,1.832281
167815,29076,4,ER,1,100,1.812744
167861,29076,4,ER,1,100,1.813550
167907,29076,4,ER,1,100,1.823621
167953,29076,4,ER,1,100,1.806903
168002,29096,2,ER,1,100,1.801868
168052,29096,2,ER,1,100,1.837115
168102,29114,2,ER,1,100,1.851617
168153,29114,2,ER,1,100,1.857056
168203,29132,2,ER,1,100,1.853833
168254,29132,2,ER,1,100,1.843158
168304,29150,2,ER,1,100,1.851617
168355,29150,2,ER,1,100,1.875183
168405,29169,2,ER,1,100,1.852625
168456,29169,2,ER,1,100,1.849805
168490,29187,3,ER,1,100,1.852423
168524,29187,3,ER,1,100,1.831677
168558,29187,3,ER,1,100,1.840137
168608,29205,2,ER,1,100,1.855847
168658,29205,2,ER,1,100,1.869141
168708,29223,2,ER,1,100,1.909625
168759,29223,2,ER,1,100,1.909021
168810,29241,2,ER,1,100,1.883643
168862,29241,2,ER,1,100,1.885455
168911,29259,2,ER,1,100,1.886060
168961,29259,2,ER,1,100,1.882031
169011,29277,2,ER,1,100,1.871356
169062,29277,2,ER,1,100,1.875787
169112,29296,2,ER,1,100,1.852020
169163,29296,2,ER,1,100,1.857660
169214,29314,2,ER,1,100,1.863501
169265,29314,2,ER,1,100,1.859070
169320,29332,3,ER,1,100,1.855243
169375,29332,3,ER,1,100,1.876392
169430,29332,3,ER,1,100,1.891498
169480,29350,2,ER,1,100,1.910028
169530,29350,2,ER,1,100,1.931177
169580,29368,2,ER,1,100,1.896332
169631,29368,2,ER,1,100,1.913653
169665,29386,3,ER,1,100,1.900561
169699,29386,3,ER,1,100,1.877197
169733,29386,3,ER,1,100,1.869342
169783,29404,2,ER,1,100,1.880017
169833,29404,2,ER,1,100,1.883240
169883,29423,2,ER,1,100,1.867932
169934,29423,2,ER,1,100,1.875787
169985,29441,2,ER,1,100,1.845978
170037,29441,2,ER,1,100,1.866119
170086,29459,2,ER,1,100,1.889886
170136,29459,2,ER,1,100,1.898950
170186,29477,2,ER,1,100,1.890894
170237,29477,2,ER,1,100,1.900360
170288,29495,2,ER,1,100,1.879010
170339,29495,2,ER,1,100,1.879614
170389,29513,2,ER,1,100,1.888074
170439,29513,2,ER,1,100,1.888879
170489,29531,2,ER,1,100,1.852423
170540,29531,2,ER,1,100,1.846985
170590,29550,2,ER,1,100,1.823822
170641,29550,2,ER,1,100,1.825232
170692,29568,2,ER,1,100,1.825836
170743,29568,2,ER,1,100,1.808716
170793,29586,2,ER,1,100,1.794012
170843,29586,2,ER,1,100,1.808716
170893,29604,2,ER,1,100,1.798041
170944,29604,2,ER,1,100,1.822613
170978,29622,3,ER,1,100,1.859875
171012,29622,3,ER,1,100,1.850409
171047,29622,3,ER,1,100,1.864307
171096,29640,2,ER,1,100,1.870551
171146,29640,2,ER,1,100,1.873975
171196,29658,2,ER,1,100,1.862695
171247,29658,2,ER,1,100,1.861487
171297,29676,2,ER,1,100,1.836310
171348,29676,2,ER,1,100,1.847388
171399,29695,2,ER,1,100,1.846582
171451,29695,2,ER,1,100,1.828052
171500,29713,2,ER,1,100,1.827448
171550,29713,2,ER,1,100,1.836713
171600,29731,2,ER,1,100,1.819794
171651,29731,2,ER,1,100,1.835907
171701,29749,2,ER,1,100,1.824829
171752,29749,2,ER,1,100,1.814557
171803,29767,2,ER,1,100,1.839130
171854,29767,2,ER,1,100,1.867328
171904,29785,2,ER,1,100,1.850409
171955,29785,2,ER,1,100,1.853632
172005,29803,2,ER,1,100,1.840540
172055,29803,2,ER,1,100,1.841748
172105,29822,2,ER,1,100,1.836310
172156,29822,2,ER,1,100,1.847388
172206,29840,2,ER,1,100,1.829663
172257,29840,2,ER,1,100,1.842352
172308,29858,2,ER,1,100,1.842957
172360,29858,2,ER,1,100,1.832080
172409,29876,2,ER,1,100,1.833087
172459,29876,2,ER,1,100,1.843561
172509,29894,2,ER,1,100,1.835504
172560,29894,2,ER,1,100,1.839935
172594,29912,3,ER,1,100,1.846783
172628,29912,3,ER,1,100,1.848999
172662,29912,3,ER,1,100,1.883441
172712,29930,2,ER,1,100,1.892505
172763,29930,2,ER,1,100,1.888476
172813,29949,2,ER,1,100,1.912244
172863,29949,2,ER,1,100,1.923120
172913,29967,2,ER,1,100,1.895325
172964,29967,2,ER,1,100,1.890088
173015,29985,2,ER,1,100,1.887469
173066,29985,2,ER,1,100,1.886060
173116,30003,2,ER,1,100,1.894720
173166,30003,2,ER,1,100,1.889685
173216,30021,2,ER,1,100,1.862091
173267,30021,2,ER,1,100,1.866925
173317,30039,2,ER,1,100,1.853229
173368,30039,2,ER,1,100,1.845978
173418,30057,2,ER,1,100,1.831274
173469,30057,2,ER,1,100,1.851819
173519,30075,2,ER,1,100,1.862695
173570,30075,2,ER,1,100,1.878204
173620,30094,2,ER,1,100,1.870953
173671,30094,2,ER,1,100,1.860883
173721,30112,2,ER,1,100,1.866724
173772,30112,2,ER,1,100,1.872162
173822,30130,2,ER,1,100,1.852020
173873,30130,2,ER,1,100,1.858063
173923,30148,2,ER,1,100,1.858667
173974,30148,2,ER,1,100,1.841547
174024,30166,2,ER,1,100,1.840137
174075,30166,2,ER,1,100,1.843158
174125,30184,2,ER,1,100,1.822009
174176,30184,2,ER,1,100,1.819995
174210,30202,3,ER,1,100,1.829462
174244,30202,3,ER,1,100,1.853430
174278,30202,3,ER,1,100,1.876190
174328,30221,2,ER,1,100,1.870148
174378,30221,2,ER,1,100,1.851819
174428,30239,2,ER,1,100,1.845978
174479,30239,2,ER,1,100,1.866119
174530,30257,2,ER,1,100,1.840942
174581,30257,2,ER,1,100,1.835303
174631,30275,2,ER,1,100,1.835706
174681,30275,2,ER,1,100,1.834698
174731,30293,2,ER,1,100,1.859875
174782,30293,2,ER,1,100,1.851819
174832,30311,2,ER,1,100,1.828857
174883,30311,2,ER,1,100,1.850006
174934,30329,2,ER,1,100,1.876392
174985,30329,2,ER,1,100,1.887671
175035,30347,2,ER,1,100,1.886060
175085,30347,2,ER,1,100,1.887067
175135,30366,2,ER,1,100,1.871759
175186,30366,2,ER,1,100,1.868134
175236,30384,2,ER,1,100,1.868335
175287,30384,2,ER,1,100,1.852423
175337,30402,2,ER,1,100,1.845978
175388,30402,2,ER,1,100,1.829260
175438,30420,2,ER,1,100,1.824628
175489,30420,2,ER,1,100,1.840942
175539,30438,2,ER,1,100,1.844165
175590,30438,2,ER,1,100,1.862091
175624,30456,3,ER,1,100,1.868738
175658,30456,3,ER,1,100,1.850812
175692,30456,3,ER,1,100,1.856854
175742,30474,2,ER,1,100,1.864105
175792,30474,2,ER,1,100,1.846582
175842,30493,2,ER,1,100,1.843964
175893,30493,2,ER,1,100,1.848999
175943,30511,2,ER,1,100,1.840137
175994,30511,2,ER,1,100,1.852625
176045,30529,2,ER,1,100,1.848798
176096,30529,2,ER,1,100,1.844971
176146,30547,2,ER,1,100,1.863501
176196,30547,2,ER,1,100,1.891498
176246,30565,2,ER,1,100,1.868939
176297,30565,2,ER,1,100,1.867529
176347,30583,2,ER,1,100,1.871558
176398,30583,2,ER,1,100,1.858466
176449,30601,2,ER,1,100,1.858063
176500,30601,2,ER,1,100,1.866925
176550,30620,2,ER,1,100,1.847589
176600,30620,2,ER,1,100,1.852222
176650,30638,2,ER,1,100,1.860480
176701,30638,2,ER,1,100,1.845978
176751,30656,2,ER,1,100,1.841144
176802,30656,2,ER,1,100,1.879211
176853,30674,2,ER,1,100,1.875183
176904,30674,2,ER,1,100,1.885254
176954,30692,2,ER,1,100,1.873572
177004,30692,2,ER,1,100,1.871155
177054,30710,2,ER,1,100,1.873975
177105,30710,2,ER,1,100,1.889081
177155,30728,2,ER,1,100,1.863299
177206,30728,2,ER,1,100,1.861285
177240,30746,3,ER,1,100,1.954541
177274,30746,3,ER,1,100,1.902777
177309,30746,3,ER,1,100,1.865515
177358,30765,2,ER,1,100,1.864508
177408,30765,2,ER,1,100,1.857056
177458,30783,2,ER,1,100,1.879614
177509,30783,2,ER,1,100,1.901569
177560,30801,2,ER,1,100,1.879413
177612,30801,2,ER,1,100,1.880621
177661,30819,2,ER,1,100,1.878003
177711,30819,2,ER,1,100,1.862695
177761,30837,2,ER,1,100,1.864307
177812,30837,2,ER,1,100,1.893311
177863,30855,2,ER,1,100,1.845776
177914,30855,2,ER,1,100,1.845978
177964,30873,2,ER,1,100,1.837317
178014,30873,2,ER,1,100,1.823621
178064,30892,2,ER,1,100,1.816974
178115,30892,2,ER,1,100,1.839130
178165,30910,2,ER,1,100,1.831476
178216,30910,2,ER,1,100,1.842151
178266,30928,2,ER,1,100,1.842755
178317,30928,2,ER,1,100,1.828253
178367,30946,2,ER,1,100,1.831677
178418,30946,2,ER,1,100,1.849200
178468,30964,2,ER,1,100,1.832483
178519,30964,2,ER,1,100,1.843762
178569,30982,2,ER,1,100,1.838122
178620,30982,2,ER,1,100,1.829260
178654,31000,3,ER,1,100,1.827448
178688,31000,3,ER,1,100,1.837518
178722,31000,3,ER,1,100,1.819391
178776,31022,3,ER,1,100,1.830872
178830,31022,3,ER,1,100,1.854639
178885,31022,3,ER,1,100,1.851416
178936,31042,2,ER,1,100,1.846179
178987,31042,2,ER,1,100,1.851013
179037,31059,2,ER,1,100,1.835303
179087,31059,2,ER,1,100,1.839532
179138,31077,2,ER,1,100,1.845172
179189,31077,2,ER,1,100,1.834900
179239,31095,2,ER,1,100,1.829260
179289,31095,2,ER,1,100,1.843762
179339,31113,2,ER,1,100,1.827045
179390,31113,2,ER,1,100,1.842957
179440,31131,2,ER,1,100,1.849603
179491,31131,2,ER,1,100,1.857056
179541,31150,2,ER,1,100,1.865918
179592,31150,2,ER,1,100,1.901569
179642,31168,2,ER,1,100,1.876996
179693,31168,2,ER,1,100,1.885657
179743,31186,2,ER,1,100,1.896332
179794,31186,2,ER,1,100,1.880219
179844,31204,2,ER,1,100,1.864307
179895,31204,2,ER,1,100,1.861890
179929,31222,3,ER,1,100,1.837921
179963,31222,3,ER,1,100,1.837720
179997,31222,3,ER,1,100,1.842151
180047,31240,2,ER,1,100,1.833087
180097,31240,2,ER,1,100,1.838525
180147,31258,2,ER,1,100,1.831879
180198,31258,2,ER,1,100,1.829462
180248,31276,2,ER,1,100,1.860681
180299,31276,2,ER,1,100,1.882434
180349,31295,2,ER,1,100,1.854639
180400,31295,2,ER,1,100,1.867529
180450,31313,2,ER,1,100,1.889886
180501,31313,2,ER,1,100,1.885858
180552,31331,2,ER,1,100,1.870349
180603,31331,2,ER,1,100,1.872162
180653,31349,2,ER,1,100,1.861487
180703,31349,2,ER,1,100,1.878607
180753,31367,2,ER,1,100,1.866119
180804,31367,2,ER,1,100,1.852020
180855,31385,2,ER,1,100,1.845374
180906,31385,2,ER,1,100,1.851819
180956,31403,2,ER,1,100,1.853833
181006,31403,2,ER,1,100,1.868335
181056,31422,2,ER,1,100,1.876794
181107,31422,2,ER,1,100,1.873773
181157,31440,2,ER,1,100,1.871155
181208,31440,2,ER,1,100,1.881830
181258,31458,2,ER,1,100,1.857056
181309,31458,2,ER,1,100,1.858667
181343,31476,3,ER,1,100,1.865515
181377,31476,3,ER,1,100,1.843964
181412,31476,3,ER,1,100,1.841949
181462,31494,2,ER,1,100,1.837720
181512,31494,2,ER,1,100,1.815161
181562,31512,2,ER,1,100,1.826239
181612,31512,2,ER,1,100,1.858063
181662,31530,2,ER,1,100,1.835706
181713,31530,2,ER,1,100,1.830872
181764,31549,2,ER,1,100,1.829663
181815,31549,2,ER,1,100,1.832281
181865,31567,2,ER,1,100,1.828253
181915,31567,2,ER,1,100,1.837518
181965,31585,2,ER,1,100,1.816168
182016,31585,2,ER,1,100,1.835706
182066,31603,2,ER,1,100,1.840540
182117,31603,2,ER,1,100,1.839130
182167,31621,2,ER,1,100,1.853027
182218,31621,2,ER,1,100,1.868134
182269,31639,2,ER,1,100,1.835504
182320,31639,2,ER,1,100,1.843964
182370,31657,2,ER,1,100,1.846783
182420,31657,2,ER,1,100,1.847589
182471,31675,2,ER,1,100,1.850610
182522,31675,2,ER,1,100,1.861890
182572,31694,2,ER,1,100,1.824426
182622,31694,2,ER,1,100,1.826843
182672,31712,2,ER,1,100,1.826239
182723,31712,2,ER,1,100,1.833691
182773,31730,2,ER,1,100,1.862695
182824,31730,2,ER,1,100,1.882031
182858,31748,3,ER,1,100,1.847790
182892,31748,3,ER,1,100,1.846381
182927,31748,3,ER,1,100,1.845575
182977,31766,2,ER,1,100,1.823419
183027,31766,2,ER,1,100,1.819391
183077,31784,2,ER,1,100,1.816974
183127,31784,2,ER,1,100,1.805695
183177,31802,2,ER,1,100,1.806097
183228,31802,2,ER,1,100,1.816772
183278,31821,2,ER,1,100,1.806097
183329,31821,2,ER,1,100,1.799048
183379,31839,2,ER,1,100,1.816571
183430,31839,2,ER,1,100,1.823016
183480,31857,2,ER,1,100,1.824023
183531,31857,2,ER,1,100,1.835504
183582,31875,2,ER,1,100,1.818585
183633,31875,2,ER,1,100,1.828253
183683,31893,2,ER,1,100,1.838727
183733,31893,2,ER,1,100,1.838122
183783,31911,2,ER,1,100,1.827649
183834,31911,2,ER,1,100,1.841547
183885,31929,2,ER,1,100,1.840137
183936,31929,2,ER,1,100,1.834296
183986,31948,2,ER,1,100,1.837921
184036,31948,2,ER,1,100,1.829865
184086,31966,2,ER,1,100,1.836914
184137,31966,2,ER,1,100,1.865717
184187,31984,2,ER,1,100,1.858466
184238,31984,2,ER,1,100,1.854840
184288,32002,2,ER,1,100,1.856854
184339,32002,2,ER,1,100,1.853430
184373,32020,3,ER,1,100,1.837720
184407,32020,3,ER,1,100,1.840137
184442,32020,3,ER,1,100,1.831073
184492,32038,2,ER,1,100,1.821002
184542,32038,2,ER,1,100,1.823621
184592,32056,2,ER,1,100,1.806299
184642,32056,2,ER,1,100,1.820398
184692,32074,2,ER,1,100,1.813751
184743,32074,2,ER,1,100,1.845776
184793,32093,2,ER,1,100,1.858264
184844,32093,2,ER,1,100,1.852020
184894,32111,2,ER,1,100,1.845575
184945,32111,2,ER,1,100,1.871759
184995,32129,2,ER,1,100,1.848596
185046,32129,2,ER,1,100,1.851819
185096,32147,2,ER,1,100,1.850207
185147,32147,2,ER,1,100,1.845172
185197,32165,2,ER,1,100,1.847388
185248,32165,2,ER,1,100,1.869141
185298,32183,2,ER,1,100,1.841748
185349,32183,2,ER,1,100,1.867529
185400,32201,2,ER,1,100,1.895123
185452,32201,2,ER,1,100,1.886865
185501,32220,2,ER,1,100,1.877197
185551,32220,2,ER,1,100,1.885858
185601,32238,2,ER,1,100,1.877600
185652,32238,2,ER,1,100,1.889484
185702,32256,2,ER,1,100,1.895123
185753,32256,2,ER,1,100,1.870148
185803,32274,2,ER,1,100,1.867126
185854,32274,2,ER,1,100,1.880420
185888,32292,3,ER,1,100,1.861084
185922,32292,3,ER,1,100,1.872766
185957,32292,3,ER,1,100,1.909424
186007,32310,2,ER,1,100,1.896332
186057,32310,2,ER,1,100,1.906403
186107,32328,2,ER,1,100,1.908014
186157,32328,2,ER,1,100,1.904791
186207,32346,2,ER,1,100,1.892102
186258,32346,2,ER,1,100,1.890088
186308,32365,2,ER,1,100,1.855243
186359,32365,2,ER,1,100,1.856451
186409,32383,2,ER,1,100,1.853229
186460,32383,2,ER,1,100,1.843964
186510,32401,2,ER,1,100,1.852423
186561,32401,2,ER,1,100,1.887067
186611,32419,2,ER,1,100,1.869141
186662,32419,2,ER,1,100,1.891095
186713,32437,2,ER,1,100,1.870953
186764,32437,2,ER,1,100,1.881427
186814,32455,2,ER,1,100,1.861487
186864,32455,2,ER,1,100,1.885858
186914,32473,2,ER,1,100,1.831677
186965,32473,2,ER,1,100,1.828455
187016,32492,2,ER,1,100,1.827045
187068,32492,2,ER,1,100,1.825836
187117,32510,2,ER,1,100,1.845172
187167,32510,2,ER,1,100,1.873572
187217,32528,2,ER,1,100,1.853027
187268,32528,2,ER,1,100,1.866522
187318,32546,2,ER,1,100,1.857861
187369,32546,2,ER,1,100,1.842151
187403,32564,3,ER,1,100,1.843158
187437,32564,3,ER,1,100,1.854034
187472,32564,3,ER,1,100,1.828253
187522,32582,2,ER,1,100,1.827850
187572,32582,2,ER,1,100,1.844165
187622,32600,2,ER,1,100,1.827850
187672,32600,2,ER,1,100,1.845172
187723,32619,2,ER,1,100,1.849402
187774,32619,2,ER,1,100,1.838727
187824,32637,2,ER,1,100,1.832281
187874,32637,2,ER,1,100,1.842957
187924,32655,2,ER,1,100,1.816168
187975,32655,2,ER,1,100,1.817175
188025,32673,2,ER,1,100,1.813550
188076,32673,2,ER,1,100,1.810931
188127,32691,2,ER,1,100,1.810730
188178,32691,2,ER,1,100,1.827246
188228,32709,2,ER,1,100,1.847388
188278,32709,2,ER,1,100,1.864307
188328,32727,2,ER,1,100,1.851013
188379,32727,2,ER,1,100,1.829059
188430,32745,2,ER,1,100,1.824628
188481,32745,2,ER,1,100,1.842352
188531,32764,2,ER,1,100,1.818988
188581,32764,2,ER,1,100,1.826440
188631,32782,2,ER,1,100,1.825030
188682,32782,2,ER,1,100,1.815363
188732,32800,2,ER,1,100,1.817981
188783,32800,2,ER,1,100,1.833087
188833,32818,2,ER,1,100,1.818988
188884,32818,2,ER,1,100,1.850006
188918,32836,3,ER,1,100,1.871155
188952,32836,3,ER,1,100,1.862494
188986,32836,3,ER,1,100,1.869342
189036,32854,2,ER,1,100,1.875183
189086,32854,2,ER,1,100,1.871759
189136,32872,2,ER,1,100,1.870349
189187,32872,2,ER,1,100,1.872766
189237,32891,2,ER,1,100,1.851416
189288,32891,2,ER,1,100,1.864709
189338,32909,2,ER,1,100,1.874377
189389,32909,2,ER,1,100,1.870349
189439,32927,2,ER,1,100,1.863299
189490,32927,2,ER,1,100,1.873773
189540,32945,2,ER,1,100,1.880823
189591,32945,2,ER,1,100,1.900561
189636,32966,4,ER,1,100,1.895929
189682,32966,4,ER,1,100,1.886462
189727,32966,4,ER,1,100,1.886261
189773,32966,4,ER,1,100,1.888476
189822,32986,2,ER,1,100,1.870953
189872,32986,2,ER,1,100,1.877399
189922,33004,2,ER,1,100,1.874176
189973,33004,2,ER,1,100,1.859875
190023,33023,2,ER,1,100,1.859875
190074,33023,2,ER,1,100,1.867529
190124,33041,2,ER,1,100,1.839331
190175,33041,2,ER,1,100,1.857458
190225,33059,2,ER,1,100,1.872967
190276,33059,2,ER,1,100,1.887268
190327,33077,2,ER,1,100,1.886865
190378,33077,2,ER,1,100,1.885254
190428,33095,2,ER,1,100,1.859875
190478,33095,2,ER,1,100,1.879614
190528,33113,2,ER,1,100,1.876190
190579,33113,2,ER,1,100,1.861084
190630,33131,2,ER,1,100,1.855646
190681,33131,2,ER,1,100,1.862494
190731,33150,2,ER,1,100,1.841949
190781,33150,2,ER,1,100,1.848798
190831,33168,2,ER,1,100,1.852423
190882,33168,2,ER,1,100,1.842957
190932,33186,2,ER,1,100,1.876392
190983,33186,2,ER,1,100,1.891296
191017,33204,3,ER,1,100,1.880219
191051,33204,3,ER,1,100,1.878809
191086,33204,3,ER,1,100,1.868738
191136,33222,2,ER,1,100,1.853027
191186,33222,2,ER,1,100,1.861084
191236,33240,2,ER,1,100,1.857056
191286,33240,2,ER,1,100,1.840338
191336,33258,2,ER,1,100,1.839532
191387,33258,2,ER,1,100,1.848999
191437,33277,2,ER,1,100,1.829260
191488,33277,2,ER,1,100,1.835101
191538,33295,2,ER,1,100,1.828857
191589,33295,2,ER,1,100,1.843561
191639,33313,2,ER,1,100,1.856451
191690,33313,2,ER,1,100,1.862091
191740,33331,2,ER,1,100,1.849603
191791,33331,2,ER,1,100,1.857056
191842,33349,2,ER,1,100,1.860681
191893,33349,2,ER,1,100,1.870349
191943,33367,2,ER,1,100,1.897943
191994,33367,2,ER,1,100,1.892102
192044,33385,2,ER,1,100,1.857458
192094,33385,2,ER,1,100,1.857660
192144,33403,2,ER,1,100,1.850207
192195,33403,2,ER,1,100,1.848193
192245,33422,2,ER,1,100,1.834094
192296,33422,2,ER,1,100,1.841547
192346,33440,2,ER,1,100,1.823218
192397,33440,2,ER,1,100,1.851819
192447,33458,2,ER,1,100,1.888879
192498,33458,2,ER,1,100,1.866724
192548,33476,2,ER,1,100,1.865314
192599,33476,2,ER,1,100,1.873169
192633,33494,3,ER,1,100,1.854840
192667,33494,3,ER,1,100,1.861084
192701,33494,3,ER,1,100,1.860278
192751,33512,2,ER,1,100,1.838727
192801,33512,2,ER,1,100,1.843762
192851,33530,2,ER,1,100,1.850812
192902,33530,2,ER,1,100,1.852625
192952,33549,2,ER,1,100,1.844769
193003,33549,2,ER,1,100,1.855646
193053,33567,2,ER,1,100,1.835706
193104,33567,2,ER,1,100,1.841345
193154,33585,2,ER,1,100,1.860077
193205,33585,2,ER,1,100,1.885657
193256,33603,2,ER,1,100,1.888074
193307,33603,2,ER,1,100,1.897540
193357,33621,2,ER,1,100,1.887268
193407,33621,2,ER,1,100,1.894318
193457,33639,2,ER,1,100,1.886060
193508,33639,2,ER,1,100,1.874780
193558,33657,2,ER,1,100,1.856049
193609,33657,2,ER,1,100,1.859271
193659,33675,2,ER,1,100,1.844366
193710,33675,2,ER,1,100,1.839130
193760,33694,2,ER,1,100,1.833289
193811,33694,2,ER,1,100,1.818585
193861,33712,2,ER,1,100,1.819189
193912,33712,2,ER,1,100,1.800861
193962,33730,2,ER,1,100,1.815363
194013,33730,2,ER,1,100,1.852222
194047,33748,3,ER,1,100,1.832684
194081,33748,3,ER,1,100,1.835303
194116,33748,3,ER,1,100,1.841748
194166,33766,2,ER,1,100,1.823016
194216,33766,2,ER,1,100,1.832281
194266,33784,2,ER,1,100,1.838324
194316,33784,2,ER,1,100,1.821002
194366,33802,2,ER,1,100,1.815967
194417,33802,2,ER,1,100,1.832281
194467,33821,2,ER,1,100,1.809924
194518,33821,2,ER,1,100,1.821808
194568,33839,2,ER,1,100,1.838928
194619,33839,2,ER,1,100,1.817175
194669,33857,2,ER,1,100,1.814557
194720,33857,2,ER,1,100,1.856653
194771,33875,2,ER,1,100,1.848999
194822,33875,2,ER,1,100,1.868536
194872,33893,2,ER,1,100,1.866321
194922,33893,2,ER,1,100,1.862494
194965,33911,4,ER,1,100,1.869946
195008,33911,4,ER,1,100,1.884045
195051,33911,4,ER,1,100,1.859070
195095,33911,4,ER,1,100,1.859473
195144,33930,2,ER,1,100,1.854437
195194,33930,2,ER,1,100,1.843561
195244,33948,2,ER,1,100,1.849402
195295,33948,2,ER,1,100,1.861688
195345,33966,2,ER,1,100,1.855243
195396,33966,2,ER,1,100,1.883844
195446,33984,2,ER,1,100,1.891095
195497,33984,2,ER,1,100,1.869342
195547,34002,2,ER,1,100,1.870349
195598,34002,2,ER,1,100,1.906805
195648,34020,2,ER,1,100,1.886664
195699,34020,2,ER,1,100,1.891498
195750,34038,2,ER,1,100,1.895325
195801,34038,2,ER,1,100,1.882233
195851,34056,2,ER,1,100,1.869342
195902,34056,2,ER,1,100,1.870349
195952,34075,2,ER,1,100,1.841949
196002,34075,2,ER,1,100,1.839935
196052,34093,2,ER,1,100,1.856653
196103,34093,2,ER,1,100,1.863904
196154,34111,2,ER,1,100,1.856653
196205,34111,2,ER,1,100,1.866119
196255,34129,2,ER,1,100,1.846179
196305,34129,2,ER,1,100,1.859271
196355,34147,2,ER,1,100,1.862292
196406,34147,2,ER,1,100,1.849200
196456,34165,2,ER,1,100,1.849402
196507,34165,2,ER,1,100,1.866724
196557,34183,2,ER,1,100,1.856049
196608,34183,2,ER,1,100,1.858264
196642,34202,3,ER,1,100,1.868134
196676,34202,3,ER,1,100,1.863299
196711,34202,3,ER,1,100,1.875586
196760,34220,2,ER,1,100,1.890088
196810,34220,2,ER,1,100,1.866321
196860,34238,2,ER,1,100,1.865717
196911,34238,2,ER,1,100,1.896332
196962,34256,2,ER,1,100,1.860278
197013,34256,2,ER,1,100,1.870551
197063,34274,2,ER,1,100,1.873572
197113,34274,2,ER,1,100,1.855847
197163,34292,2,ER,1,100,1.860480
197214,34292,2,ER,1,100,1.871759
197264,34310,2,ER,1,100,1.872766
197315,34310,2,ER,1,100,1.875586
197365,34328,2,ER,1,100,1.875384
197416,34328,2,ER,1,100,1.866321
197466,34347,2,ER,1,100,1.858466
197517,34347,2,ER,1,100,1.879614
197567,34365,2,ER,1,100,1.862091
197618,34365,2,ER,1,100,1.884045
197669,34383,2,ER,1,100,1.891498
197721,34383,2,ER,1,100,1.864709
197770,34401,2,ER,1,100,1.856451
197820,34401,2,ER,1,100,1.865112
197870,34419,2,ER,1,100,1.848596
197921,34419,2,ER,1,100,1.881427
197971,34437,2,ER,1,100,1.892505
198022,34437,2,ER,1,100,1.871759
198072,34455,2,ER,1,100,1.874176
198123,34455,2,ER,1,100,1.888074
198157,34474,3,ER,1,100,1.869745
198191,34474,3,ER,1,100,1.866724
198225,34474,3,ER,1,100,1.862494
198275,34492,2,ER,1,100,1.848596
198325,34492,2,ER,1,100,1.853430
198375,34510,2,ER,1,100,1.872363
198426,34510,2,ER,1,100,1.844971
198476,34528,2,ER,1,100,1.839331
198527,34528,2,ER,1,100,1.866119
198577,34546,2,ER,1,100,1.838525
198628,34546,2,ER,1,100,1.848596
198678,34564,2,ER,1,100,1.860681
198729,34564,2,ER,1,100,1.844366
198779,34582,2,ER,1,100,1.841345
198830,34582,2,ER,1,100,1.855444
198880,34600,2,ER,1,100,1.835504
198931,34600,2,ER,1,100,1.846179
198981,34619,2,ER,1,100,1.842755
199032,34619,2,ER,1,100,1.836713
199082,34637,2,ER,1,100,1.845374
199133,34637,2,ER,1,100,1.858063
199183,34655,2,ER,1,100,1.870752
199234,34655,2,ER,1,100,1.915869
199285,34673,2,ER,1,100,1.914258
199337,34673,2,ER,1,100,1.900561
199386,34691,2,ER,1,100,1.907611
199436,34691,2,ER,1,100,1.926544
199486,34709,2,ER,1,100,1.896735
199537,34709,2,ER,1,100,1.887469
199587,34727,2,ER,1,100,1.877600
199638,34727,2,ER,1,100,1.856451
199688,34746,2,ER,1,100,1.853229
199739,34746,2,ER,1,100,1.855646
199773,34764,3,ER,1,100,1.836713
199807,34764,3,ER,1,100,1.845978
199841,34764,3,ER,1,100,1.852423
199891,34782,2,ER,1,100,1.843561
199942,34782,2,ER,1,100,1.871960
199992,34800,2,ER,1,100,1.871960
200042,34800,2,ER,1,100,1.855243
200093,34818,2,ER,1,100,1.858063
200144,34818,2,ER,1,100,1.873169
200194,34836,2,ER,1,100,1.832886
200244,34836,2,ER,1,100,1.836310
200294,34854,2,ER,1,100,1.834094
200345,34854,2,ER,1,100,1.826038
200395,34873,2,ER,1,100,1.827045
200446,34873,2,ER,1,100,1.833490
200496,34891,2,ER,1,100,1.805090
200547,34891,2,ER,1,100,1.817780
200600,34912,3,ER,1,100,1.812140
200653,34912,3,ER,1,100,1.807104
200707,34912,3,ER,1,100,1.828253
200757,34932,2,ER,1,100,1.864508
200807,34932,2,ER,1,100,1.844971
200857,34950,2,ER,1,100,1.856250
200908,34950,2,ER,1,100,1.863299
200942,34968,3,ER,1,100,1.852423
200976,34968,3,ER,1,100,1.865515
201011,34968,3,ER,1,100,1.880621
201061,34986,2,ER,1,100,1.860077
201111,34986,2,ER,1,100,1.863098
201161,35005,2,ER,1,100,1.858063
201211,35005,2,ER,1,100,1.841547
201261,35023,2,ER,1,100,1.847388
201312,35023,2,ER,1,100,1.874176
201362,35041,2,ER,1,100,1.872162
201413,35041,2,ER,1,100,1.879413
201463,35059,2,ER,1,100,1.877802
201514,35059,2,ER,1,100,1.867529
201564,35077,2,ER,1,100,1.875183
201615,35077,2,ER,1,100,1.887469
201665,35095,2,ER,1,100,1.874176
201716,35095,2,ER,1,100,1.881024
201766,35113,2,ER,1,100,1.878204
201817,35113,2,ER,1,100,1.867328
201867,35131,2,ER,1,100,1.847790
201918,35131,2,ER,1,100,1.859070
201969,35150,2,ER,1,100,1.829663
202020,35150,2,ER,1,100,1.841345
202070,35168,2,ER,1,100,1.847186
202120,35168,2,ER,1,100,1.879010
202170,35186,2,ER,1,100,1.862695
202221,35186,2,ER,1,100,1.874579
202271,35204,2,ER,1,100,1.866522
202322,35204,2,ER,1,100,1.859875
202372,35222,2,ER,1,100,1.854437
202423,35222,2,ER,1,100,1.843762
202473,35240,2,ER,1,100,1.833289
202524,35240,2,ER,1,100,1.839130
202574,35258,2,ER,1,100,1.831476
202625,35258,2,ER,1,100,1.833893
202659,35277,3,ER,1,100,1.832684
202693,35277,3,ER,1,100,1.823621
202727,35277,3,ER,1,100,1.852222
202777,35295,2,ER,1,100,1.871960
202827,35295,2,ER,1,100,1.872565
202877,35313,2,ER,1,100,1.858667
202928,35313,2,ER,1,100,1.872766
202978,35331,2,ER,1,100,1.864105
203029,35331,2,ER,1,100,1.869946
203079,35349,2,ER,1,100,1.867126
203130,35349,2,ER,1,100,1.853430
203180,35367,2,ER,1,100,1.855444
203231,35367,2,ER,1,100,1.836914
203281,35385,2,ER,1,100,1.838525
203332,35385,2,ER,1,100,1.854639
203383,35404,2,ER,1,100,1.836713
203434,35404,2,ER,1,100,1.873572
203484,35422,2,ER,1,100,1.871759
203534,35422,2,ER,1,100,1.845776
203584,35440,2,ER,1,100,1.831879
203635,35440,2,ER,1,100,1.848193
203686,35458,2,ER,1,100,1.829865
203737,35458,2,ER,1,100,1.824023
203787,35476,2,ER,1,100,1.821204
203837,35476,2,ER,1,100,1.815363
203887,35494,2,ER,1,100,1.814355
203938,35494,2,ER,1,100,1.831879
203988,35512,2,ER,1,100,1.822211
204039,35512,2,ER,1,100,1.833490
204073,35530,3,ER,1,100,1.855847
204107,35530,3,ER,1,100,1.857056
204142,35530,3,ER,1,100,1.858264
204192,35549,2,ER,1,100,1.862695
204242,35549,2,ER,1,100,1.851819
204292,35567,2,ER,1,100,1.855243
204343,35567,2,ER,1,100,1.862292
204393,35585,2,ER,1,100,1.842755
204443,35585,2,ER,1,100,1.851617
204494,35603,2,ER,1,100,1.852222
204545,35603,2,ER,1,100,1.840540
204595,35621,2,ER,1,100,1.841345
204645,35621,2,ER,1,100,1.863904
204695,35639,2,ER,1,100,1.850812
204746,35639,2,ER,1,100,1.866925
204796,35657,2,ER,1,100,1.856049
204847,35657,2,ER,1,100,1.851013
204897,35676,2,ER,1,100,1.850409
204948,35676,2,ER,1,100,1.865918
204999,35694,2,ER,1,100,1.843964
205050,35694,2,ER,1,100,1.850207
205100,35712,2,ER,1,100,1.852020
205150,35712,2,ER,1,100,1.833289
205201,35730,2,ER,1,100,1.833087
205252,35730,2,ER,1,100,1.851416
205302,35748,2,ER,1,100,1.815967
205352,35748,2,ER,1,100,1.827649
205402,35766,2,ER,1,100,1.847589
205453,35766,2,ER,1,100,1.826239
205503,35784,2,ER,1,100,1.819391
205554,35784,2,ER,1,100,1.822211
205604,35803,2,ER,1,100,1.800055
205655,35803,2,ER,1,100,1.790387
205689,35821,3,ER,1,100,1.790790
205723,35821,3,ER,1,100,1.782733
205757,35821,3,ER,1,100,1.798846
205807,35839,2,ER,1,100,1.808313
205857,35839,2,ER,1,100,1.802069
205907,35857,2,ER,1,100,1.800659
205958,35857,2,ER,1,100,1.828455
206009,35875,2,ER,1,100,1.823822
206060,35875,2,ER,1,100,1.833691
206110,35893,2,ER,1,100,1.841748
206160,35893,2,ER,1,100,1.842957
206210,35911,2,ER,1,100,1.865918
206261,35911,2,ER,1,100,1.886865
206311,35929,2,ER,1,100,1.851215
206362,35929,2,ER,1,100,1.845776
206412,35948,2,ER,1,100,1.840540
206463,35948,2,ER,1,100,1.821606
206514,35966,2,ER,1,100,1.820599
206565,35966,2,ER,1,100,1.845575
206615,35984,2,ER,1,100,1.853229
206665,35984,2,ER,1,100,1.866321
206715,36002,2,ER,1,100,1.862695
206766,36002,2,ER,1,100,1.854236
206816,36020,2,ER,1,100,1.857861
206867,36020,2,ER,1,100,1.876593
206917,36038,2,ER,1,100,1.854034
206968,36038,2,ER,1,100,1.854840
207018,36056,2,ER,1,100,1.857458
207069,36056,2,ER,1,100,1.842554
207119,36075,2,ER,1,100,1.840338
207170,36075,2,ER,1,100,1.865314
207220,36093,2,ER,1,100,1.874579
207271,36093,2,ER,1,100,1.882635
207305,36111,3,ER,1,100,1.890088
207339,36111,3,ER,1,100,1.883038
207373,36111,3,ER,1,100,1.885657
207423,36129,2,ER,1,100,1.884851
207473,36129,2,ER,1,100,1.856049
207524,36147,2,ER,1,100,1.855646
207575,36147,2,ER,1,100,1.865918
207625,36165,2,ER,1,100,1.838324
207675,36165,2,ER,1,100,1.847388
207725,36183,2,ER,1,100,1.855444
207776,36183,2,ER,1,100,1.849805
207826,36201,2,ER,1,100,1.865515
207877,36201,2,ER,1,100,1.879413
207928,36220,2,ER,1,100,1.880823
207979,36220,2,ER,1,100,1.873370
208029,36238,2,ER,1,100,1.896735
208079,36238,2,ER,1,100,1.885858
208129,36256,2,ER,1,100,1.873572
208180,36256,2,ER,1,100,1.878003
208230,36274,2,ER,1,100,1.852020
208281,36274,2,ER,1,100,1.858667
208331,36292,2,ER,1,100,1.853833
208382,36292,2,ER,1,100,1.845172
208432,36310,2,ER,1,100,1.858868
208483,36310,2,ER,1,100,1.873773
208533,36328,2,ER,1,100,1.853632
208584,36328,2,ER,1,100,1.857861
208618,36347,3,ER,1,100,1.862091
208652,36347,3,ER,1,100,1.851013
208686,36347,3,ER,1,100,1.858466
208736,36365,2,ER,1,100,1.861487
208786,36365,2,ER,1,100,1.846582
208836,36383,2,ER,1,100,1.854639
208887,36383,2,ER,1,100,1.862091
208937,36401,2,ER,1,100,1.837518
208988,36401,2,ER,1,100,1.854437
209038,36419,2,ER,1,100,1.884247
209089,36419,2,ER,1,100,1.879413
209139,36437,2,ER,1,100,1.872363
209190,36437,2,ER,1,100,1.884851
209240,36455,2,ER,1,100,1.867529
209291,36455,2,ER,1,100,1.876190
209341,36474,2,ER,1,100,1.871558
209392,36474,2,ER,1,100,1.851617
209442,36492,2,ER,1,100,1.852423
209493,36492,2,ER,1,100,1.859473
209544,36510,2,ER,1,100,1.836713
209595,36510,2,ER,1,100,1.862494
209645,36528,2,ER,1,100,1.876392
209695,36528,2,ER,1,100,1.883441
209745,36546,2,ER,1,100,1.886261
209796,36546,2,ER,1,100,1.886261
209846,36564,2,ER,1,100,1.868536
209897,36564,2,ER,1,100,1.882635
209947,36582,2,ER,1,100,1.871960
209998,36582,2,ER,1,100,1.849805
210048,36600,2,ER,1,100,1.836511
210099,36600,2,ER,1,100,1.847790
210149,36619,2,ER,1,100,1.829260
210200,36619,2,ER,1,100,1.829059
210234,36637,3,ER,1,100,1.828455
210268,36637,3,ER,1,100,1.829663
210302,36637,3,ER,1,100,1.848999
210352,36655,2,ER,1,100,1.843561
210402,36655,2,ER,1,100,1.830872
210452,36673,2,ER,1,100,1.834296
210503,36673,2,ER,1,100,1.844165
210553,36691,2,ER,1,100,1.821204
210604,36691,2,ER,1,100,1.834094
210654,36709,2,ER,1,100,1.835101
210705,36709,2,ER,1,100,1.835907
210755,36727,2,ER,1,100,1.843359
210806,36727,2,ER,1,100,1.850409
210857,36746,2,ER,1,100,1.837317
210908,36746,2,ER,1,100,1.855042
210958,36764,2,ER,1,100,1.861890
211008,36764,2,ER,1,100,1.846783
211058,36782,2,ER,1,100,1.874982
211109,36782,2,ER,1,100,1.903180
211159,36800,2,ER,1,100,1.878204
211210,36800,2,ER,1,100,1.880823
211261,36818,2,ER,1,100,1.872967
211312,36818,2,ER,1,100,1.862695
211362,36836,2,ER,1,100,1.860883
211412,36836,2,ER,1,100,1.867328
211458,36857,4,ER,1,100,1.850610
211504,36857,4,ER,1,100,1.855243
211550,36857,4,ER,1,100,1.849603
211596,36857,4,ER,1,100,1.828656
