EpochTimestamp,EmotiBitTimestamp,PacketNumber,DataLength,TypeTag,ProtocolVersion,DataReliability,AY
1575665229.375289,23503.000,3600,12,AY,1,100,0.788
1575665229.375289,23503.000,3600,12,AY,1,100,0.802
1575665229.375289,23503.000,3600,12,AY,1,100,0.793
1575665229.375289,23503.000,3600,12,AY,1,100,0.797
1575665229.375289,23503.000,3600,12,AY,1,100,0.793
1575665229.375289,23503.000,3600,12,AY,1,100,0.797
1575665229.375289,23503.000,3600,12,AY,1,100,0.795
1575665229.375289,23503.000,3600,12,AY,1,100,0.810
1575665229.375289,23503.000,3600,12,AY,1,100,0.805
1575665229.375289,23503.000,3600,12,AY,1,100,0.792
1575665229.375289,23503.000,3600,12,AY,1,100,0.794
1575665229.375289,23503.000,3600,12,AY,1,100,0.790
1575665229.417332,23538.333,3619,3,AY,1,100,0.798
1575665229.459376,23573.667,3619,3,AY,1,100,0.806
1575665229.501419,23609.000,3619,3,AY,1,100,0.805
1575665229.539893,23641.333,3638,3,AY,1,100,0.811
1575665229.578367,23673.667,3638,3,AY,1,100,0.796
1575665229.616840,23706.000,3638,3,AY,1,100,0.793
1575665229.657694,23740.333,3655,3,AY,1,100,0.812
1575665229.698547,23774.667,3655,3,AY,1,100,0.796
1575665229.739401,23809.000,3655,3,AY,1,100,0.791
1575665229.781048,23844.000,3673,3,AY,1,100,0.806
1575665229.822694,23879.000,3673,3,AY,1,100,0.792
1575665229.864341,23914.000,3673,3,AY,1,100,0.793
1575665229.905393,23948.500,3690,2,AY,1,100,0.795
1575665229.946445,23983.000,3690,2,AY,1,100,0.809
1575665229.985712,24016.000,3708,4,AY,1,100,0.806
1575665230.024978,24049.000,3708,4,AY,1,100,0.799
1575665230.064245,24082.000,3708,4,AY,1,100,0.789
1575665230.103512,24115.000,3708,4,AY,1,100,0.789
1575665230.141589,24147.000,3726,3,AY,1,100,0.819
1575665230.179666,24179.000,3726,3,AY,1,100,0.791
1575665230.217743,24211.000,3726,3,AY,1,100,0.799
1575665230.260183,24246.667,3744,3,AY,1,100,0.791
1575665230.302624,24282.333,3744,3,AY,1,100,0.800
1575665230.345063,24318.000,3744,3,AY,1,100,0.818
1575665230.386115,24352.500,3762,2,AY,1,100,0.802
1575665230.427167,24387.000,3762,2,AY,1,100,0.801
1575665230.468417,24421.667,3780,3,AY,1,100,0.806
1575665230.509667,24456.333,3780,3,AY,1,100,0.801
1575665230.550917,24491.000,3780,3,AY,1,100,0.796
1575665230.591771,24525.333,3798,3,AY,1,100,0.809
1575665230.632624,24559.667,3798,3,AY,1,100,0.821
1575665230.673478,24594.000,3798,3,AY,1,100,0.787
1575665230.710662,24625.250,3816,4,AY,1,100,0.823
1575665230.747847,24656.500,3816,4,AY,1,100,0.799
1575665230.785032,24687.750,3816,4,AY,1,100,0.783
1575665230.822216,24719.000,3816,4,AY,1,100,0.805
1575665230.862277,24752.667,3835,3,AY,1,100,0.803
1575665230.902337,24786.333,3835,3,AY,1,100,0.811
1575665230.942397,24820.000,3835,3,AY,1,100,0.782
1575665230.983250,24854.333,3852,3,AY,1,100,0.809
1575665231.024104,24888.667,3852,3,AY,1,100,0.802
1575665231.064957,24923.000,3852,3,AY,1,100,0.801
1575665231.111959,24962.500,3868,2,AY,1,100,0.813
1575665231.158960,25002.000,3868,2,AY,1,100,0.799
1575665231.200210,25036.667,3886,3,AY,1,100,0.802
1575665231.241460,25071.333,3886,3,AY,1,100,0.790
1575665231.282710,25106.000,3886,3,AY,1,100,0.807
1575665231.320391,25137.667,3904,3,AY,1,100,0.789
1575665231.358071,25169.333,3904,3,AY,1,100,0.800
1575665231.395751,25201.000,3904,3,AY,1,100,0.801
1575665231.435019,25234.000,3922,3,AY,1,100,0.798
1575665231.474285,25267.000,3922,3,AY,1,100,0.811
1575665231.513552,25300.000,3922,3,AY,1,100,0.788
1575665231.553216,25333.333,3940,3,AY,1,100,0.790
1575665231.592880,25366.667,3940,3,AY,1,100,0.803
1575665231.632543,25400.000,3940,3,AY,1,100,0.815
1575665231.673793,25434.667,3958,3,AY,1,100,0.794
1575665231.715043,25469.333,3958,3,AY,1,100,0.825
1575665231.756294,25504.000,3958,3,AY,1,100,0.807
1575665231.797940,25539.000,3976,3,AY,1,100,0.821
1575665231.839587,25574.000,3976,3,AY,1,100,0.794
1575665231.881234,25609.000,3976,3,AY,1,100,0.798
1575665231.923277,25644.333,3995,3,AY,1,100,0.797
1575665231.965320,25679.667,3995,3,AY,1,100,0.786
1575665232.007364,25715.000,3995,3,AY,1,100,0.808
1575665232.045044,25746.667,4013,3,AY,1,100,0.783
1575665232.082725,25778.333,4013,3,AY,1,100,0.802
1575665232.120405,25810.000,4013,3,AY,1,100,0.792
1575665232.160862,25844.000,4030,3,AY,1,100,0.794
1575665232.201319,25878.000,4030,3,AY,1,100,0.780
1575665232.241776,25912.000,4030,3,AY,1,100,0.818
1575665232.282629,25946.333,4048,3,AY,1,100,0.794
1575665232.323483,25980.667,4048,3,AY,1,100,0.768
1575665232.364336,26015.000,4048,3,AY,1,100,0.812
1575665232.405190,26049.333,4064,3,AY,1,100,0.790
1575665232.446043,26083.667,4064,3,AY,1,100,0.799
1575665232.486897,26118.000,4064,3,AY,1,100,0.803
1575665232.526163,26151.000,4082,3,AY,1,100,0.783
1575665232.565430,26184.000,4082,3,AY,1,100,0.800
1575665232.604697,26217.000,4082,3,AY,1,100,0.795
1575665232.642378,26248.667,4100,3,AY,1,100,0.812
1575665232.680058,26280.333,4100,3,AY,1,100,0.785
1575665232.717738,26312.000,4100,3,AY,1,100,0.801
1575665232.761765,26349.000,4118,3,AY,1,100,0.801
1575665232.805792,26386.000,4118,3,AY,1,100,0.802
1575665232.849818,26423.000,4118,3,AY,1,100,0.802
1575665232.891465,26458.000,4137,3,AY,1,100,0.824
1575665232.933112,26493.000,4137,3,AY,1,100,0.769
1575665232.974758,26528.000,4137,3,AY,1,100,0.857
1575665233.016008,26562.667,4155,3,AY,1,100,0.860
1575665233.057259,26597.333,4155,3,AY,1,100,0.816
1575665233.098509,26632.000,4155,3,AY,1,100,0.757
1575665233.137379,26664.667,4173,3,AY,1,100,0.828
1575665233.176249,26697.333,4173,3,AY,1,100,0.612
1575665233.215120,26730.000,4173,3,AY,1,100,0.599
1575665233.252800,26761.667,4191,3,AY,1,100,0.441
1575665233.290480,26793.333,4191,3,AY,1,100,0.356
1575665233.328161,26825.000,4191,3,AY,1,100,0.326
1575665233.368221,26858.667,4208,3,AY,1,100,0.438
1575665233.408281,26892.333,4208,3,AY,1,100,0.413
1575665233.448341,26926.000,4208,3,AY,1,100,0.439
1575665233.489988,26961.000,4226,3,AY,1,100,0.512
1575665233.531635,26996.000,4226,3,AY,1,100,0.402
1575665233.573282,27031.000,4226,3,AY,1,100,0.444
1575665233.618102,27068.667,4242,3,AY,1,100,0.615
1575665233.662921,27106.333,4242,3,AY,1,100,1.060
1575665233.707741,27144.000,4242,3,AY,1,100,1.155
1575665233.746612,27176.667,4260,3,AY,1,100,0.273
1575665233.785482,27209.333,4260,3,AY,1,100,-1.275
1575665233.824352,27242.000,4260,3,AY,1,100,1.795
1575665233.862826,27274.333,4279,3,AY,1,100,-0.139
1575665233.901299,27306.667,4279,3,AY,1,100,0.267
1575665233.939773,27339.000,4279,3,AY,1,100,0.222
1575665233.978643,27371.667,4297,3,AY,1,100,0.152
1575665234.017514,27404.333,4297,3,AY,1,100,0.151
1575665234.056384,27437.000,4297,3,AY,1,100,0.253
1575665234.097634,27471.667,4315,3,AY,1,100,0.306
1575665234.138884,27506.333,4315,3,AY,1,100,0.364
1575665234.180134,27541.000,4315,3,AY,1,100,0.480
1575665234.221385,27575.667,4333,3,AY,1,100,0.409
1575665234.262635,27610.333,4333,3,AY,1,100,0.508
1575665234.303885,27645.000,4333,3,AY,1,100,0.391
1575665234.343945,27678.667,4351,3,AY,1,100,0.396
1575665234.384005,27712.333,4351,3,AY,1,100,0.405
1575665234.424065,27746.000,4351,3,AY,1,100,0.593
1575665234.465315,27780.667,4369,3,AY,1,100,0.777
1575665234.506566,27815.333,4369,3,AY,1,100,1.057
1575665234.547816,27850.000,4369,3,AY,1,100,1.205
1575665234.587083,27883.000,4386,3,AY,1,100,1.018
1575665234.626349,27916.000,4386,3,AY,1,100,-2.908
1575665234.665617,27949.000,4386,3,AY,1,100,2.318
1575665234.706867,27983.667,4404,3,AY,1,100,0.089
1575665234.748117,28018.333,4404,3,AY,1,100,0.302
1575665234.789367,28053.000,4404,3,AY,1,100,0.385
1575665234.830419,28087.500,4420,2,AY,1,100,0.241
1575665234.871470,28122.000,4420,2,AY,1,100,0.159
1575665234.913514,28157.333,4439,3,AY,1,100,0.214
1575665234.955557,28192.667,4439,3,AY,1,100,0.279
1575665234.997601,28228.000,4439,3,AY,1,100,0.300
1575665235.035975,28260.250,4457,4,AY,1,100,0.386
1575665235.074350,28292.500,4457,4,AY,1,100,0.366
1575665235.112724,28324.750,4457,4,AY,1,100,0.556
1575665235.151099,28357.000,4457,4,AY,1,100,0.337
1575665235.189969,28389.667,4475,3,AY,1,100,0.391
1575665235.228839,28422.333,4475,3,AY,1,100,0.425
1575665235.267709,28455.000,4475,3,AY,1,100,0.564
1575665235.311439,28491.750,4496,4,AY,1,100,0.856
1575665235.355168,28528.500,4496,4,AY,1,100,1.185
1575665235.398897,28565.250,4496,4,AY,1,100,1.032
1575665235.442626,28602.000,4496,4,AY,1,100,-6.920
1575665235.483479,28636.333,4515,3,AY,1,100,2.911
1575665235.524333,28670.667,4515,3,AY,1,100,-0.040
1575665235.565186,28705.000,4515,3,AY,1,100,0.251
1575665235.605247,28738.667,4532,3,AY,1,100,0.022
1575665235.645307,28772.333,4532,3,AY,1,100,0.387
1575665235.685367,28806.000,4532,3,AY,1,100,0.435
1575665235.723444,28838.000,4550,3,AY,1,100,0.410
1575665235.761521,28870.000,4550,3,AY,1,100,0.367
1575665235.799598,28902.000,4550,3,AY,1,100,0.184
1575665235.838072,28934.333,4569,3,AY,1,100,0.283
1575665235.876545,28966.667,4569,3,AY,1,100,0.229
1575665235.915019,28999.000,4569,3,AY,1,100,0.374
1575665235.955873,29033.333,4587,3,AY,1,100,0.252
1575665235.996726,29067.667,4587,3,AY,1,100,0.511
1575665236.037580,29102.000,4587,3,AY,1,100,0.577
1575665236.082003,29139.333,4605,3,AY,1,100,0.623
1575665236.126426,29176.667,4605,3,AY,1,100,0.596
1575665236.170849,29214.000,4605,3,AY,1,100,0.578
1575665236.211306,29248.000,4623,3,AY,1,100,0.628
1575665236.251763,29282.000,4623,3,AY,1,100,0.551
1575665236.292220,29316.000,4623,3,AY,1,100,0.590
1575665236.330297,29348.000,4641,3,AY,1,100,0.672
1575665236.368374,29380.000,4641,3,AY,1,100,0.704
1575665236.406451,29412.000,4641,3,AY,1,100,0.594
1575665236.444924,29444.333,4659,3,AY,1,100,0.352
1575665236.483398,29476.667,4659,3,AY,1,100,0.258
1575665236.521872,29509.000,4659,3,AY,1,100,0.368
1575665236.562329,29543.000,4676,3,AY,1,100,0.508
1575665236.602785,29577.000,4676,3,AY,1,100,0.649
1575665236.643242,29611.000,4676,3,AY,1,100,0.792
1575665236.684889,29646.000,4694,3,AY,1,100,0.740
1575665236.726536,29681.000,4694,3,AY,1,100,0.582
1575665236.768183,29716.000,4694,3,AY,1,100,0.399
1575665236.809829,29751.000,4710,3,AY,1,100,0.387
1575665236.851476,29786.000,4710,3,AY,1,100,0.547
1575665236.893123,29821.000,4710,3,AY,1,100,0.622
1575665236.931200,29853.000,4729,3,AY,1,100,0.677
1575665236.969277,29885.000,4729,3,AY,1,100,0.639
1575665237.007354,29917.000,4729,3,AY,1,100,0.604
1575665237.049794,29952.667,4747,3,AY,1,100,0.483
1575665237.092234,29988.333,4747,3,AY,1,100,0.264
1575665237.134674,30024.000,4747,3,AY,1,100,0.371
1575665237.175131,30058.000,4765,3,AY,1,100,0.587
1575665237.215588,30092.000,4765,3,AY,1,100,0.680
1575665237.256044,30126.000,4765,3,AY,1,100,0.730
1575665237.297295,30160.667,4783,3,AY,1,100,0.628
1575665237.338545,30195.333,4783,3,AY,1,100,0.533
1575665237.379795,30230.000,4783,3,AY,1,100,0.517
1575665237.421442,30265.000,4801,3,AY,1,100,0.526
1575665237.463088,30300.000,4801,3,AY,1,100,0.546
1575665237.504735,30335.000,4801,3,AY,1,100,0.501
1575665237.541622,30366.000,4819,3,AY,1,100,0.521
1575665237.578509,30397.000,4819,3,AY,1,100,0.527
1575665237.615396,30428.000,4819,3,AY,1,100,0.579
1575665237.653870,30460.333,4837,3,AY,1,100,0.615
1575665237.692344,30492.667,4837,3,AY,1,100,0.574
1575665237.730817,30525.000,4837,3,AY,1,100,0.549
1575665237.774844,30562.000,4854,3,AY,1,100,0.475
1575665237.818871,30599.000,4854,3,AY,1,100,0.493
1575665237.862897,30636.000,4854,3,AY,1,100,0.519
1575665237.904147,30670.667,4873,3,AY,1,100,0.501
1575665237.945397,30705.333,4873,3,AY,1,100,0.545
1575665237.986647,30740.000,4873,3,AY,1,100,0.505
1575665238.028294,30775.000,4889,2,AY,1,100,0.656
1575665238.069941,30810.000,4889,2,AY,1,100,0.805
1575665238.110001,30843.667,4907,3,AY,1,100,0.787
1575665238.150061,30877.333,4907,3,AY,1,100,0.746
1575665238.190122,30911.000,4907,3,AY,1,100,0.763
1575665238.228199,30943.000,4925,4,AY,1,100,0.760
1575665238.266276,30975.000,4925,4,AY,1,100,0.744
1575665238.304353,31007.000,4925,4,AY,1,100,0.835
1575665238.342430,31039.000,4925,4,AY,1,100,0.674
1575665238.382093,31072.333,4943,3,AY,1,100,0.778
1575665238.421757,31105.667,4943,3,AY,1,100,0.771
1575665238.461420,31139.000,4943,3,AY,1,100,0.658
1575665238.502671,31173.667,4961,3,AY,1,100,0.775
1575665238.543921,31208.333,4961,3,AY,1,100,0.739
1575665238.585171,31243.000,4961,3,AY,1,100,0.764
1575665238.631577,31282.000,4979,2,AY,1,100,0.784
1575665238.677984,31321.000,4979,2,AY,1,100,0.730
1575665238.718837,31355.333,4997,3,AY,1,100,0.729
1575665238.759691,31389.667,4997,3,AY,1,100,0.719
1575665238.800544,31424.000,4997,3,AY,1,100,0.683
1575665238.838224,31455.667,5016,3,AY,1,100,0.712
1575665238.875905,31487.333,5016,3,AY,1,100,0.712
1575665238.913585,31519.000,5016,3,AY,1,100,0.715
1575665238.952852,31552.000,5033,3,AY,1,100,0.734
1575665238.992119,31585.000,5033,3,AY,1,100,0.700
1575665239.031386,31618.000,5033,3,AY,1,100,0.716
1575665239.071843,31652.000,5051,3,AY,1,100,0.772
1575665239.112300,31686.000,5051,3,AY,1,100,0.709
1575665239.152756,31720.000,5051,3,AY,1,100,0.639
1575665239.194007,31754.667,5067,3,AY,1,100,0.689
1575665239.235257,31789.333,5067,3,AY,1,100,0.659
1575665239.276507,31824.000,5067,3,AY,1,100,0.692
1575665239.318154,31859.000,5085,3,AY,1,100,0.698
1575665239.359800,31894.000,5085,3,AY,1,100,0.684
1575665239.401447,31929.000,5085,3,AY,1,100,0.722
1575665239.442301,31963.333,5103,3,AY,1,100,0.704
1575665239.483154,31997.667,5103,3,AY,1,100,0.707
1575665239.524008,32032.000,5103,3,AY,1,100,0.690
1575665239.562878,32064.667,5121,3,AY,1,100,0.683
1575665239.601748,32097.333,5121,3,AY,1,100,0.651
1575665239.640618,32130.000,5121,3,AY,1,100,0.642
1575665239.681472,32164.333,5139,3,AY,1,100,0.682
1575665239.722325,32198.667,5139,3,AY,1,100,0.641
1575665239.763179,32233.000,5139,3,AY,1,100,0.682
1575665239.804826,32268.000,5157,3,AY,1,100,0.678
1575665239.846472,32303.000,5157,3,AY,1,100,0.670
1575665239.888119,32338.000,5157,3,AY,1,100,0.696
1575665239.930162,32373.333,5176,3,AY,1,100,0.640
1575665239.972206,32408.667,5176,3,AY,1,100,0.654
1575665240.014249,32444.000,5176,3,AY,1,100,0.641
1575665240.051136,32475.000,5194,3,AY,1,100,0.661
1575665240.088023,32506.000,5194,3,AY,1,100,0.691
1575665240.124911,32537.000,5194,3,AY,1,100,0.666
1575665240.163384,32569.333,5212,3,AY,1,100,0.656
1575665240.201858,32601.667,5212,3,AY,1,100,0.662
1575665240.240332,32634.000,5212,3,AY,1,100,0.650
1575665240.285151,32671.667,5229,3,AY,1,100,0.655
1575665240.329971,32709.333,5229,3,AY,1,100,0.651
1575665240.374791,32747.000,5229,3,AY,1,100,0.673
1575665240.416438,32782.000,5247,3,AY,1,100,0.653
1575665240.458085,32817.000,5247,3,AY,1,100,0.643
1575665240.499731,32852.000,5247,3,AY,1,100,0.655
1575665240.540585,32886.333,5263,3,AY,1,100,0.655
1575665240.581438,32920.667,5263,3,AY,1,100,0.663
1575665240.622292,32955.000,5263,3,AY,1,100,0.677
1575665240.659972,32986.667,5281,3,AY,1,100,0.636
1575665240.697653,33018.333,5281,3,AY,1,100,0.706
1575665240.735333,33050.000,5281,3,AY,1,100,0.645
1575665240.773013,33081.667,5299,3,AY,1,100,0.614
1575665240.810694,33113.333,5299,3,AY,1,100,0.604
1575665240.848374,33145.000,5299,3,AY,1,100,0.592
1575665240.889228,33179.333,5318,3,AY,1,100,0.620
1575665240.930081,33213.667,5318,3,AY,1,100,0.625
1575665240.970935,33248.000,5318,3,AY,1,100,0.613
1575665241.012185,33282.667,5336,3,AY,1,100,0.627
1575665241.053435,33317.333,5336,3,AY,1,100,0.635
1575665241.094685,33352.000,5336,3,AY,1,100,0.612
1575665241.139108,33389.333,5354,3,AY,1,100,0.581
1575665241.183531,33426.667,5354,3,AY,1,100,0.564
1575665241.227955,33464.000,5354,3,AY,1,100,0.551
1575665241.266825,33496.667,5372,3,AY,1,100,0.538
1575665241.305695,33529.333,5372,3,AY,1,100,0.549
1575665241.344565,33562.000,5372,3,AY,1,100,0.524
1575665241.384070,33595.200,5393,5,AY,1,100,0.392
1575665241.423575,33628.400,5393,5,AY,1,100,0.415
1575665241.463080,33661.600,5393,5,AY,1,100,0.408
1575665241.502585,33694.800,5393,5,AY,1,100,0.435
1575665241.542090,33728.000,5393,5,AY,1,100,0.458
1575665241.580564,33760.333,5413,3,AY,1,100,0.398
1575665241.619037,33792.667,5413,3,AY,1,100,0.443
1575665241.657511,33825.000,5413,3,AY,1,100,0.475
1575665241.696778,33858.000,5431,3,AY,1,100,0.477
1575665241.736045,33891.000,5431,3,AY,1,100,0.427
1575665241.775312,33924.000,5431,3,AY,1,100,0.435
1575665241.816959,33959.000,5449,3,AY,1,100,0.476
1575665241.858605,33994.000,5449,3,AY,1,100,0.472
1575665241.900252,34029.000,5449,3,AY,1,100,0.470
1575665241.941304,34063.500,5468,2,AY,1,100,0.417
1575665241.982356,34098.000,5468,2,AY,1,100,0.461
1575665242.024003,34133.000,5486,3,AY,1,100,0.470
1575665242.065649,34168.000,5486,3,AY,1,100,0.453
1575665242.107296,34203.000,5486,3,AY,1,100,0.447
1575665242.145076,34234.750,5503,4,AY,1,100,0.456
1575665242.182855,34266.500,5503,4,AY,1,100,0.419
1575665242.220635,34298.250,5503,4,AY,1,100,0.410
1575665242.258414,34330.000,5503,4,AY,1,100,0.446
1575665242.303036,34367.500,5521,2,AY,1,100,0.438
1575665242.347657,34405.000,5521,2,AY,1,100,0.516
1575665242.387717,34438.667,5538,3,AY,1,100,0.493
1575665242.427778,34472.333,5538,3,AY,1,100,0.419
1575665242.467838,34506.000,5538,3,AY,1,100,0.325
1575665242.509088,34540.667,5555,3,AY,1,100,0.340
1575665242.550338,34575.333,5555,3,AY,1,100,0.309
1575665242.591588,34610.000,5555,3,AY,1,100,0.319
1575665242.632838,34644.667,5573,3,AY,1,100,0.384
1575665242.674088,34679.333,5573,3,AY,1,100,0.308
1575665242.715338,34714.000,5573,3,AY,1,100,0.331
1575665242.753812,34746.333,5591,3,AY,1,100,0.255
1575665242.792286,34778.667,5591,3,AY,1,100,0.271
1575665242.830760,34811.000,5591,3,AY,1,100,0.277
1575665242.868837,34843.000,5610,3,AY,1,100,0.245
1575665242.906914,34875.000,5610,3,AY,1,100,0.232
1575665242.944991,34907.000,5610,3,AY,1,100,0.423
1575665242.985051,34940.667,5628,3,AY,1,100,0.393
1575665243.025111,34974.333,5628,3,AY,1,100,0.352
1575665243.065171,35008.000,5628,3,AY,1,100,0.377
1575665243.110388,35046.000,5646,3,AY,1,100,0.437
1575665243.155604,35084.000,5646,3,AY,1,100,0.396
1575665243.200821,35122.000,5646,3,AY,1,100,0.374
1575665243.242071,35156.667,5664,3,AY,1,100,0.378
1575665243.283321,35191.333,5664,3,AY,1,100,0.446
1575665243.324571,35226.000,5664,3,AY,1,100,0.454
1575665243.362648,35258.000,5681,3,AY,1,100,0.438
1575665243.400725,35290.000,5681,3,AY,1,100,0.439
1575665243.438802,35322.000,5681,3,AY,1,100,0.454
1575665243.477672,35354.667,5699,3,AY,1,100,0.426
1575665243.516543,35387.333,5699,3,AY,1,100,0.413
1575665243.555413,35420.000,5699,3,AY,1,100,0.436
1575665243.595870,35454.000,5717,3,AY,1,100,0.418
1575665243.636327,35488.000,5717,3,AY,1,100,0.413
1575665243.676784,35522.000,5717,3,AY,1,100,0.407
1575665243.718034,35556.667,5733,3,AY,1,100,0.418
1575665243.759284,35591.333,5733,3,AY,1,100,0.437
1575665243.800534,35626.000,5733,3,AY,1,100,0.431
1575665243.841388,35660.333,5752,3,AY,1,100,0.392
1575665243.882241,35694.667,5752,3,AY,1,100,0.405
1575665243.923094,35729.000,5752,3,AY,1,100,0.413
1575665243.965534,35764.667,5770,3,AY,1,100,0.422
1575665244.007974,35800.333,5770,3,AY,1,100,0.404
1575665244.050415,35836.000,5770,3,AY,1,100,0.409
1575665244.088095,35867.667,5788,3,AY,1,100,0.408
1575665244.125775,35899.333,5788,3,AY,1,100,0.403
1575665244.163456,35931.000,5788,3,AY,1,100,0.424
1575665244.204706,35965.667,5806,3,AY,1,100,0.412
1575665244.245956,36000.333,5806,3,AY,1,100,0.396
1575665244.287206,36035.000,5806,3,AY,1,100,0.400
1575665244.328059,36069.333,5824,3,AY,1,100,0.413
1575665244.368913,36103.667,5824,3,AY,1,100,0.427
1575665244.409766,36138.000,5824,3,AY,1,100,0.416
1575665244.451016,36172.667,5842,3,AY,1,100,0.398
1575665244.492267,36207.333,5842,3,AY,1,100,0.392
1575665244.533517,36242.000,5842,3,AY,1,100,0.388
1575665244.571990,36274.333,5859,3,AY,1,100,0.399
1575665244.610464,36306.667,5859,3,AY,1,100,0.431
1575665244.648938,36339.000,5859,3,AY,1,100,0.418
1575665244.686222,36370.333,5877,3,AY,1,100,0.396
1575665244.723505,36401.667,5877,3,AY,1,100,0.394
1575665244.760789,36433.000,5877,3,AY,1,100,0.433
1575665244.805609,36470.667,5896,3,AY,1,100,0.408
1575665244.850429,36508.333,5896,3,AY,1,100,0.382
1575665244.895249,36546.000,5896,3,AY,1,100,0.394
1575665244.929756,36575.000,5914,3,AY,1,100,0.405
1575665244.964263,36604.000,5914,3,AY,1,100,0.405
1575665244.998770,36633.000,5914,3,AY,1,100,0.409
1575665245.042797,36670.000,5930,3,AY,1,100,0.397
1575665245.086824,36707.000,5930,3,AY,1,100,0.400
1575665245.130850,36744.000,5930,3,AY,1,100,0.406
1575665245.172497,36779.000,5948,3,AY,1,100,0.399
1575665245.214144,36814.000,5948,3,AY,1,100,0.409
1575665245.255790,36849.000,5948,3,AY,1,100,0.415
1575665245.297437,36884.000,5966,3,AY,1,100,0.378
1575665245.339084,36919.000,5966,3,AY,1,100,0.379
1575665245.380731,36954.000,5966,3,AY,1,100,0.401
1575665245.419998,36987.000,5984,3,AY,1,100,0.423
1575665245.459265,37020.000,5984,3,AY,1,100,0.405
1575665245.498532,37053.000,5984,3,AY,1,100,0.381
1575665245.536212,37084.667,6002,3,AY,1,100,0.384
1575665245.573892,37116.333,6002,3,AY,1,100,0.421
1575665245.611573,37148.000,6002,3,AY,1,100,0.428
1575665245.651236,37181.333,6020,3,AY,1,100,0.397
1575665245.690900,37214.667,6020,3,AY,1,100,0.373
1575665245.730563,37248.000,6020,3,AY,1,100,0.381
1575665245.772210,37283.000,6038,3,AY,1,100,0.414
1575665245.813857,37318.000,6038,3,AY,1,100,0.423
1575665245.855504,37353.000,6038,3,AY,1,100,0.395
1575665245.903100,37393.000,6056,2,AY,1,100,0.376
1575665245.950696,37433.000,6056,2,AY,1,100,0.389
1575665245.991153,37467.000,6074,3,AY,1,100,0.402
1575665246.031610,37501.000,6074,3,AY,1,100,0.424
1575665246.072067,37535.000,6074,3,AY,1,100,0.397
1575665246.110144,37567.000,6091,4,AY,1,100,0.368
1575665246.148221,37599.000,6091,4,AY,1,100,0.394
1575665246.186298,37631.000,6091,4,AY,1,100,0.403
1575665246.224375,37663.000,6091,4,AY,1,100,0.415
1575665246.263245,37695.667,6108,3,AY,1,100,0.392
1575665246.302115,37728.333,6108,3,AY,1,100,0.389
1575665246.340986,37761.000,6108,3,AY,1,100,0.389
1575665246.381443,37795.000,6126,3,AY,1,100,0.400
1575665246.421900,37829.000,6126,3,AY,1,100,0.399
1575665246.462356,37863.000,6126,3,AY,1,100,0.405
1575665246.503606,37897.667,6144,3,AY,1,100,0.385
1575665246.544857,37932.333,6144,3,AY,1,100,0.398
1575665246.586107,37967.000,6144,3,AY,1,100,0.392
1575665246.625374,38000.000,6162,3,AY,1,100,0.393
1575665246.664640,38033.000,6162,3,AY,1,100,0.419
1575665246.703907,38066.000,6162,3,AY,1,100,0.390
1575665246.745554,38101.000,6180,3,AY,1,100,0.376
1575665246.787201,38136.000,6180,3,AY,1,100,0.390
1575665246.828848,38171.000,6180,3,AY,1,100,0.393
1575665246.868511,38204.333,6199,3,AY,1,100,0.393
1575665246.908175,38237.667,6199,3,AY,1,100,0.394
1575665246.947839,38271.000,6199,3,AY,1,100,0.381
1575665246.988295,38305.000,6217,2,AY,1,100,0.388
1575665247.028752,38339.000,6217,2,AY,1,100,0.388
1575665247.070399,38374.000,6234,3,AY,1,100,0.406
1575665247.112046,38409.000,6234,3,AY,1,100,0.395
1575665247.153692,38444.000,6234,3,AY,1,100,0.397
1575665247.195339,38479.000,6252,3,AY,1,100,0.392
1575665247.236986,38514.000,6252,3,AY,1,100,0.388
1575665247.278633,38549.000,6252,3,AY,1,100,0.399
1575665247.316412,38580.750,6270,4,AY,1,100,0.402
1575665247.354192,38612.500,6270,4,AY,1,100,0.390
1575665247.391971,38644.250,6270,4,AY,1,100,0.383
1575665247.429751,38676.000,6270,4,AY,1,100,0.395
1575665247.469018,38709.000,6291,4,AY,1,100,0.400
1575665247.508285,38742.000,6291,4,AY,1,100,0.386
1575665247.547552,38775.000,6291,4,AY,1,100,0.397
1575665247.586819,38808.000,6291,4,AY,1,100,0.387
1575665247.632035,38846.000,6311,3,AY,1,100,0.380
1575665247.677252,38884.000,6311,3,AY,1,100,0.394
1575665247.722468,38922.000,6311,3,AY,1,100,0.390
1575665247.763321,38956.333,6328,3,AY,1,100,0.386
1575665247.804175,38990.667,6328,3,AY,1,100,0.388
1575665247.845028,39025.000,6328,3,AY,1,100,0.394
1575665247.883502,39057.333,6347,3,AY,1,100,0.389
1575665247.921976,39089.667,6347,3,AY,1,100,0.381
1575665247.960449,39122.000,6347,3,AY,1,100,0.386
1575665247.998923,39154.333,6365,3,AY,1,100,0.383
1575665248.037397,39186.667,6365,3,AY,1,100,0.383
1575665248.075871,39219.000,6365,3,AY,1,100,0.378
1575665248.113947,39251.000,6383,3,AY,1,100,0.384
1575665248.152025,39283.000,6383,3,AY,1,100,0.410
1575665248.190102,39315.000,6383,3,AY,1,100,0.377
1575665248.231352,39349.667,6399,3,AY,1,100,0.376
1575665248.272602,39384.333,6399,3,AY,1,100,0.384
1575665248.313852,39419.000,6399,3,AY,1,100,0.388
1575665248.359068,39457.000,6417,3,AY,1,100,0.400
1575665248.404285,39495.000,6417,3,AY,1,100,0.390
1575665248.449501,39533.000,6417,3,AY,1,100,0.380
1575665248.487975,39565.333,6435,3,AY,1,100,0.385
1575665248.526449,39597.667,6435,3,AY,1,100,0.394
1575665248.564922,39630.000,6435,3,AY,1,100,0.384
1575665248.610139,39668.000,6453,3,AY,1,100,0.392
1575665248.655355,39706.000,6453,3,AY,1,100,0.393
1575665248.700572,39744.000,6453,3,AY,1,100,0.384
1575665248.739442,39776.667,6471,3,AY,1,100,0.377
1575665248.778312,39809.333,6471,3,AY,1,100,0.391
1575665248.817183,39842.000,6471,3,AY,1,100,0.386
1575665248.854070,39873.000,6490,3,AY,1,100,0.392
1575665248.890957,39904.000,6490,3,AY,1,100,0.390
1575665248.927844,39935.000,6490,3,AY,1,100,0.389
1575665248.969094,39969.667,6508,3,AY,1,100,0.380
1575665249.010344,40004.333,6508,3,AY,1,100,0.371
1575665249.051594,40039.000,6508,3,AY,1,100,0.394
1575665249.089671,40071.000,6525,3,AY,1,100,0.389
1575665249.127748,40103.000,6525,3,AY,1,100,0.379
1575665249.165825,40135.000,6525,3,AY,1,100,0.393
1575665249.206679,40169.333,6543,3,AY,1,100,0.386
1575665249.247532,40203.667,6543,3,AY,1,100,0.389
1575665249.288386,40238.000,6543,3,AY,1,100,0.383
1575665249.329239,40272.333,6559,3,AY,1,100,0.380
1575665249.370093,40306.667,6559,3,AY,1,100,0.385
1575665249.410946,40341.000,6559,3,AY,1,100,0.394
1575665249.452593,40376.000,6577,3,AY,1,100,0.383
1575665249.494240,40411.000,6577,3,AY,1,100,0.392
1575665249.535887,40446.000,6577,3,AY,1,100,0.381
1575665249.575154,40479.000,6595,3,AY,1,100,0.386
1575665249.614420,40512.000,6595,3,AY,1,100,0.392
1575665249.653687,40545.000,6595,3,AY,1,100,0.377
1575665249.691764,40577.000,6613,3,AY,1,100,0.379
1575665249.729841,40609.000,6613,3,AY,1,100,0.405
1575665249.767919,40641.000,6613,3,AY,1,100,0.391
1575665249.807582,40674.333,6632,3,AY,1,100,0.371
1575665249.847246,40707.667,6632,3,AY,1,100,0.384
1575665249.886909,40741.000,6632,3,AY,1,100,0.394
1575665249.931332,40778.333,6650,3,AY,1,100,0.390
1575665249.975756,40815.667,6650,3,AY,1,100,0.376
1575665250.020179,40853.000,6650,3,AY,1,100,0.373
1575665250.060636,40887.000,6668,2,AY,1,100,0.401
1575665250.101093,40921.000,6668,2,AY,1,100,0.414
1575665250.142739,40956.000,6685,3,AY,1,100,0.367
1575665250.184386,40991.000,6685,3,AY,1,100,0.360
1575665250.226033,41026.000,6685,3,AY,1,100,0.385
1575665250.263515,41057.500,6703,4,AY,1,100,0.405
1575665250.300997,41089.000,6703,4,AY,1,100,0.396
1575665250.338479,41120.500,6703,4,AY,1,100,0.385
1575665250.375961,41152.000,6703,4,AY,1,100,0.375
1575665250.414831,41184.667,6721,3,AY,1,100,0.370
1575665250.453702,41217.333,6721,3,AY,1,100,0.392
1575665250.492572,41250.000,6721,3,AY,1,100,0.400
1575665250.534219,41285.000,6739,3,AY,1,100,0.390
1575665250.575866,41320.000,6739,3,AY,1,100,0.380
1575665250.617512,41355.000,6739,3,AY,1,100,0.385
1575665250.663324,41393.500,6755,2,AY,1,100,0.386
1575665250.709135,41432.000,6755,2,AY,1,100,0.384
1575665250.750385,41466.667,6773,3,AY,1,100,0.396
1575665250.791635,41501.333,6773,3,AY,1,100,0.393
1575665250.832886,41536.000,6773,3,AY,1,100,0.376
1575665250.870962,41568.000,6792,3,AY,1,100,0.365
1575665250.909039,41600.000,6792,3,AY,1,100,0.392
1575665250.947116,41632.000,6792,3,AY,1,100,0.402
1575665250.986086,41664.750,6810,4,AY,1,100,0.398
1575665251.025055,41697.500,6810,4,AY,1,100,0.388
1575665251.064025,41730.250,6810,4,AY,1,100,0.364
1575665251.102994,41763.000,6810,4,AY,1,100,0.377
1575665251.143848,41797.333,6828,3,AY,1,100,0.398
1575665251.184701,41831.667,6828,3,AY,1,100,0.382
1575665251.225555,41866.000,6828,3,AY,1,100,0.389
1575665251.266607,41900.500,6846,2,AY,1,100,0.390
1575665251.307658,41935.000,6846,2,AY,1,100,0.371
1575665251.349305,41970.000,6864,3,AY,1,100,0.367
1575665251.390952,42005.000,6864,3,AY,1,100,0.398
1575665251.432599,42040.000,6864,3,AY,1,100,0.406
1575665251.473452,42074.333,6881,3,AY,1,100,0.377
1575665251.514306,42108.667,6881,3,AY,1,100,0.381
1575665251.555159,42143.000,6881,3,AY,1,100,0.376
1575665251.594426,42176.000,6899,3,AY,1,100,0.380
1575665251.633693,42209.000,6899,3,AY,1,100,0.380
1575665251.672960,42242.000,6899,3,AY,1,100,0.383
1575665251.713020,42275.667,6917,3,AY,1,100,0.390
1575665251.753080,42309.333,6917,3,AY,1,100,0.390
1575665251.793140,42343.000,6917,3,AY,1,100,0.374
1575665251.834787,42378.000,6934,3,AY,1,100,0.372
1575665251.876434,42413.000,6934,3,AY,1,100,0.385
1575665251.918081,42448.000,6934,3,AY,1,100,0.387
1575665251.959331,42482.667,6952,3,AY,1,100,0.397
1575665252.000581,42517.333,6952,3,AY,1,100,0.385
1575665252.041831,42552.000,6952,3,AY,1,100,0.378
1575665252.078718,42583.000,6970,3,AY,1,100,0.371
1575665252.115605,42614.000,6970,3,AY,1,100,0.385
1575665252.152493,42645.000,6970,3,AY,1,100,0.398
1575665252.191363,42677.667,6988,3,AY,1,100,0.386
1575665252.230233,42710.333,6988,3,AY,1,100,0.381
1575665252.269103,42743.000,6988,3,AY,1,100,0.384
1575665252.313527,42780.333,7006,3,AY,1,100,0.376
1575665252.357950,42817.667,7006,3,AY,1,100,0.383
1575665252.402373,42855.000,7006,3,AY,1,100,0.386
1575665252.441243,42887.667,7024,3,AY,1,100,0.385
1575665252.480114,42920.333,7024,3,AY,1,100,0.386
1575665252.518984,42953.000,7024,3,AY,1,100,0.395
1575665252.563010,42990.000,7042,3,AY,1,100,0.384
1575665252.607037,43027.000,7042,3,AY,1,100,0.382
1575665252.651064,43064.000,7042,3,AY,1,100,0.372
1575665252.692314,43098.667,7059,3,AY,1,100,0.371
1575665252.733564,43133.333,7059,3,AY,1,100,0.375
1575665252.774814,43168.000,7059,3,AY,1,100,0.385
1575665252.816461,43203.000,7078,3,AY,1,100,0.405
1575665252.858107,43238.000,7078,3,AY,1,100,0.395
1575665252.899754,43273.000,7078,3,AY,1,100,0.362
1575665252.937435,43304.667,7095,3,AY,1,100,0.359
1575665252.975115,43336.333,7095,3,AY,1,100,0.383
1575665253.012795,43368.000,7095,3,AY,1,100,0.395
1575665253.050476,43399.667,7112,3,AY,1,100,0.396
1575665253.088156,43431.333,7112,3,AY,1,100,0.397
1575665253.125837,43463.000,7112,3,AY,1,100,0.380
1575665253.166293,43497.000,7130,3,AY,1,100,0.372
1575665253.206750,43531.000,7130,3,AY,1,100,0.380
1575665253.247207,43565.000,7130,3,AY,1,100,0.374
1575665253.288457,43599.667,7148,3,AY,1,100,0.375
1575665253.329707,43634.333,7148,3,AY,1,100,0.390
1575665253.370957,43669.000,7148,3,AY,1,100,0.416
1575665253.413001,43704.333,7166,3,AY,1,100,0.395
1575665253.455044,43739.667,7166,3,AY,1,100,0.374
1575665253.497087,43775.000,7166,3,AY,1,100,0.348
1575665253.537307,43808.800,7187,5,AY,1,100,0.383
1575665253.577525,43842.600,7187,5,AY,1,100,0.393
1575665253.617744,43876.400,7187,5,AY,1,100,0.409
1575665253.657963,43910.200,7187,5,AY,1,100,0.379
1575665253.698182,43944.000,7187,5,AY,1,100,0.365
1575665253.738044,43977.500,7205,2,AY,1,100,0.374
1575665253.777906,44011.000,7205,2,AY,1,100,0.380
1575665253.817966,44044.667,7224,3,AY,1,100,0.391
1575665253.858026,44078.333,7224,3,AY,1,100,0.387
1575665253.898086,44112.000,7224,3,AY,1,100,0.378
1575665253.939337,44146.667,7242,3,AY,1,100,0.372
1575665253.980587,44181.333,7242,3,AY,1,100,0.379
1575665254.021837,44216.000,7242,3,AY,1,100,0.387
1575665254.063483,44251.000,7260,3,AY,1,100,0.384
1575665254.105130,44286.000,7260,3,AY,1,100,0.376
1575665254.146777,44321.000,7260,3,AY,1,100,0.382
1575665254.184457,44352.667,7278,3,AY,1,100,0.388
1575665254.222138,44384.333,7278,3,AY,1,100,0.383
1575665254.259818,44416.000,7278,3,AY,1,100,0.383
1575665254.301862,44451.333,7296,3,AY,1,100,0.386
1575665254.343905,44486.667,7296,3,AY,1,100,0.388
1575665254.385948,44522.000,7296,3,AY,1,100,0.377
1575665254.426405,44556.000,7314,3,AY,1,100,0.378
1575665254.466862,44590.000,7314,3,AY,1,100,0.378
1575665254.507319,44624.000,7314,3,AY,1,100,0.379
1575665254.548965,44659.000,7331,3,AY,1,100,0.375
1575665254.590612,44694.000,7331,3,AY,1,100,0.385
1575665254.632259,44729.000,7331,3,AY,1,100,0.382
1575665254.674302,44764.333,7349,3,AY,1,100,0.388
1575665254.716346,44799.667,7349,3,AY,1,100,0.379
1575665254.758389,44835.000,7349,3,AY,1,100,0.371
1575665254.796863,44867.333,7367,3,AY,1,100,0.376
1575665254.835336,44899.667,7367,3,AY,1,100,0.377
1575665254.873810,44932.000,7367,3,AY,1,100,0.396
1575665254.911887,44964.000,7384,3,AY,1,100,0.379
1575665254.949964,44996.000,7384,3,AY,1,100,0.376
1575665254.988041,45028.000,7384,3,AY,1,100,0.376
1575665255.032465,45065.333,7402,3,AY,1,100,0.388
1575665255.076888,45102.667,7402,3,AY,1,100,0.388
1575665255.121311,45140.000,7402,3,AY,1,100,0.380
1575665255.162958,45175.000,7420,3,AY,1,100,0.364
1575665255.204604,45210.000,7420,3,AY,1,100,0.382
1575665255.246251,45245.000,7420,3,AY,1,100,0.388
1575665255.287105,45279.333,7438,3,AY,1,100,0.381
1575665255.327958,45313.667,7438,3,AY,1,100,0.378
1575665255.368812,45348.000,7438,3,AY,1,100,0.369
1575665255.407682,45380.667,7456,3,AY,1,100,0.364
1575665255.446552,45413.333,7456,3,AY,1,100,0.374
1575665255.485422,45446.000,7456,3,AY,1,100,0.404
1575665255.522310,45477.000,7474,3,AY,1,100,0.398
1575665255.559197,45508.000,7474,3,AY,1,100,0.363
1575665255.596084,45539.000,7474,3,AY,1,100,0.347
1575665255.636937,45573.333,7492,3,AY,1,100,0.376
1575665255.677791,45607.667,7492,3,AY,1,100,0.406
1575665255.718644,45642.000,7492,3,AY,1,100,0.405
1575665255.759894,45676.667,7509,3,AY,1,100,0.358
1575665255.801145,45711.333,7509,3,AY,1,100,0.360
1575665255.842395,45746.000,7509,3,AY,1,100,0.399
1575665255.887214,45783.667,7528,3,AY,1,100,0.402
1575665255.932034,45821.333,7528,3,AY,1,100,0.383
1575665255.976854,45859.000,7528,3,AY,1,100,0.355
1575665256.015724,45891.667,7546,3,AY,1,100,0.382
1575665256.054595,45924.333,7546,3,AY,1,100,0.373
1575665256.093465,45957.000,7546,3,AY,1,100,0.376
1575665256.131939,45989.333,7562,3,AY,1,100,0.396
1575665256.170412,46021.667,7562,3,AY,1,100,0.389
1575665256.208886,46054.000,7562,3,AY,1,100,0.367
1575665256.248946,46087.667,7580,3,AY,1,100,0.351
1575665256.289006,46121.333,7580,3,AY,1,100,0.376
1575665256.329067,46155.000,7580,3,AY,1,100,0.392
1575665256.369920,46189.333,7598,3,AY,1,100,0.416
1575665256.410774,46223.667,7598,3,AY,1,100,0.385
1575665256.451627,46258.000,7598,3,AY,1,100,0.351
1575665256.492084,46292.000,7616,3,AY,1,100,0.354
1575665256.532541,46326.000,7616,3,AY,1,100,0.401
1575665256.572998,46360.000,7616,3,AY,1,100,0.401
1575665256.612661,46393.333,7634,3,AY,1,100,0.379
1575665256.652325,46426.667,7634,3,AY,1,100,0.368
1575665256.691988,46460.000,7634,3,AY,1,100,0.370
1575665256.732049,46493.667,7652,3,AY,1,100,0.388
1575665256.772109,46527.333,7652,3,AY,1,100,0.384
1575665256.812169,46561.000,7652,3,AY,1,100,0.377
1575665256.853023,46595.333,7671,3,AY,1,100,0.382
1575665256.893876,46629.667,7671,3,AY,1,100,0.380
1575665256.934729,46664.000,7671,3,AY,1,100,0.372
1575665256.976376,46699.000,7688,2,AY,1,100,0.366
1575665257.018023,46734.000,7688,2,AY,1,100,0.401
1575665257.056992,46766.750,7706,4,AY,1,100,0.396
1575665257.095962,46799.500,7706,4,AY,1,100,0.385
1575665257.134931,46832.250,7706,4,AY,1,100,0.381
1575665257.173901,46865.000,7706,4,AY,1,100,0.379
1575665257.212771,46897.667,7724,3,AY,1,100,0.350
1575665257.251641,46930.333,7724,3,AY,1,100,0.354
1575665257.290512,46963.000,7724,3,AY,1,100,0.382
1575665257.335728,47001.000,7740,2,AY,1,100,0.411
1575665257.380945,47039.000,7740,2,AY,1,100,0.383
1575665257.421699,47073.250,7758,4,AY,1,100,0.345
1575665257.462453,47107.500,7758,4,AY,1,100,0.358
1575665257.503208,47141.750,7758,4,AY,1,100,0.396
1575665257.543962,47176.000,7758,4,AY,1,100,0.402
1575665257.585609,47211.000,7776,2,AY,1,100,0.395
1575665257.627255,47246.000,7776,2,AY,1,100,0.361
1575665257.666919,47279.333,7794,3,AY,1,100,0.351
1575665257.706583,47312.667,7794,3,AY,1,100,0.370
1575665257.746246,47346.000,7794,3,AY,1,100,0.403
1575665257.784026,47377.750,7813,4,AY,1,100,0.391
1575665257.821805,47409.500,7813,4,AY,1,100,0.373
1575665257.859585,47441.250,7813,4,AY,1,100,0.367
1575665257.897364,47473.000,7813,4,AY,1,100,0.380
1575665257.937425,47506.667,7831,3,AY,1,100,0.367
1575665257.977485,47540.333,7831,3,AY,1,100,0.378
1575665258.017545,47574.000,7831,3,AY,1,100,0.392
1575665258.058398,47608.333,7849,3,AY,1,100,0.367
1575665258.099252,47642.667,7849,3,AY,1,100,0.378
1575665258.140105,47677.000,7849,3,AY,1,100,0.377
1575665258.187107,47716.500,7867,2,AY,1,100,0.379
1575665258.234108,47756.000,7867,2,AY,1,100,0.373
1575665258.274565,47790.000,7884,3,AY,1,100,0.378
1575665258.315022,47824.000,7884,3,AY,1,100,0.377
1575665258.355479,47858.000,7884,3,AY,1,100,0.374
1575665258.393159,47889.667,7902,3,AY,1,100,0.377
1575665258.430839,47921.333,7902,3,AY,1,100,0.381
1575665258.468520,47953.000,7902,3,AY,1,100,0.373
1575665258.507489,47985.750,7920,4,AY,1,100,0.378
1575665258.546459,48018.500,7920,4,AY,1,100,0.382
1575665258.585428,48051.250,7920,4,AY,1,100,0.365
1575665258.624398,48084.000,7920,4,AY,1,100,0.366
1575665258.666044,48119.000,7936,2,AY,1,100,0.375
1575665258.707691,48154.000,7936,2,AY,1,100,0.366
1575665258.748941,48188.667,7954,3,AY,1,100,0.386
1575665258.790191,48223.333,7954,3,AY,1,100,0.376
1575665258.831441,48258.000,7954,3,AY,1,100,0.387
1575665258.873088,48293.000,7973,3,AY,1,100,0.397
1575665258.914735,48328.000,7973,3,AY,1,100,0.384
1575665258.956382,48363.000,7973,3,AY,1,100,0.371
1575665258.997632,48397.667,7991,3,AY,1,100,0.394
1575665259.038882,48432.333,7991,3,AY,1,100,0.376
1575665259.080132,48467.000,7991,3,AY,1,100,0.360
1575665259.118209,48499.000,8009,3,AY,1,100,0.392
1575665259.156286,48531.000,8009,3,AY,1,100,0.402
1575665259.194363,48563.000,8009,3,AY,1,100,0.398
1575665259.236010,48598.000,8027,3,AY,1,100,0.374
1575665259.277657,48633.000,8027,3,AY,1,100,0.352
1575665259.319304,48668.000,8027,3,AY,1,100,0.394
1575665259.360157,48702.333,8045,3,AY,1,100,0.412
1575665259.401011,48736.667,8045,3,AY,1,100,0.384
1575665259.441864,48771.000,8045,3,AY,1,100,0.404
1575665259.482321,48805.000,8062,3,AY,1,100,0.370
1575665259.522778,48839.000,8062,3,AY,1,100,0.360
1575665259.563234,48873.000,8062,3,AY,1,100,0.371
1575665259.600836,48904.600,8083,5,AY,1,100,0.409
1575665259.638437,48936.200,8083,5,AY,1,100,0.399
1575665259.676038,48967.800,8083,5,AY,1,100,0.376
1575665259.713639,48999.400,8083,5,AY,1,100,0.347
1575665259.751240,49031.000,8083,5,AY,1,100,0.389
1575665259.796456,49069.000,8104,3,AY,1,100,0.392
1575665259.841673,49107.000,8104,3,AY,1,100,0.368
1575665259.886889,49145.000,8104,3,AY,1,100,0.378
1575665259.921396,49174.000,8122,3,AY,1,100,0.354
1575665259.955904,49203.000,8122,3,AY,1,100,0.403
1575665259.990411,49232.000,8122,3,AY,1,100,0.421
1575665260.032058,49267.000,8140,3,AY,1,100,0.378
1575665260.073704,49302.000,8140,3,AY,1,100,0.382
1575665260.115351,49337.000,8140,3,AY,1,100,0.368
1575665260.160171,49374.667,8157,3,AY,1,100,0.362
1575665260.204991,49412.333,8157,3,AY,1,100,0.379
1575665260.249811,49450.000,8157,3,AY,1,100,0.371
1575665260.291854,49485.333,8175,3,AY,1,100,0.414
1575665260.333898,49520.667,8175,3,AY,1,100,0.369
1575665260.375941,49556.000,8175,3,AY,1,100,0.391
1575665260.414415,49588.333,8193,3,AY,1,100,0.378
1575665260.452888,49620.667,8193,3,AY,1,100,0.427
1575665260.491362,49653.000,8193,3,AY,1,100,0.407
1575665260.529439,49685.000,8209,3,AY,1,100,0.384
1575665260.567516,49717.000,8209,3,AY,1,100,0.410
1575665260.605593,49749.000,8209,3,AY,1,100,0.414
1575665260.646843,49783.667,8227,3,AY,1,100,0.417
1575665260.688093,49818.333,8227,3,AY,1,100,0.439
1575665260.729343,49853.000,8227,3,AY,1,100,0.382
1575665260.768214,49885.667,8245,3,AY,1,100,0.433
1575665260.807084,49918.333,8245,3,AY,1,100,0.502
1575665260.845954,49951.000,8245,3,AY,1,100,0.502
1575665260.886808,49985.333,8264,3,AY,1,100,0.553
1575665260.927661,50019.667,8264,3,AY,1,100,0.561
1575665260.968515,50054.000,8264,3,AY,1,100,0.463
1575665261.009765,50088.667,8282,3,AY,1,100,0.184
1575665261.051015,50123.333,8282,3,AY,1,100,0.250
1575665261.092265,50158.000,8282,3,AY,1,100,0.644
1575665261.133912,50193.000,8300,3,AY,1,100,0.773
1575665261.175559,50228.000,8300,3,AY,1,100,0.650
1575665261.217205,50263.000,8300,3,AY,1,100,0.442
1575665261.255282,50295.000,8318,2,AY,1,100,0.285
1575665261.293360,50327.000,8318,2,AY,1,100,0.486
1575665261.333816,50361.000,8336,4,AY,1,100,0.633
1575665261.374273,50395.000,8336,4,AY,1,100,0.572
1575665261.414730,50429.000,8336,4,AY,1,100,0.455
1575665261.455187,50463.000,8336,4,AY,1,100,0.397
1575665261.495049,50496.500,8353,2,AY,1,100,0.433
1575665261.534911,50530.000,8353,2,AY,1,100,0.466
1575665261.575367,50564.000,8371,4,AY,1,100,0.496
1575665261.615824,50598.000,8371,4,AY,1,100,0.505
1575665261.656281,50632.000,8371,4,AY,1,100,0.462
1575665261.696738,50666.000,8371,4,AY,1,100,0.410
1575665261.738980,50701.500,8387,2,AY,1,100,0.352
1575665261.781221,50737.000,8387,2,AY,1,100,0.348
1575665261.820488,50770.000,8406,3,AY,1,100,0.382
1575665261.859755,50803.000,8406,3,AY,1,100,0.452
1575665261.899022,50836.000,8406,3,AY,1,100,0.466
1575665261.937099,50868.000,8424,4,AY,1,100,0.501
1575665261.975176,50900.000,8424,4,AY,1,100,0.517
1575665262.013253,50932.000,8424,4,AY,1,100,0.421
1575665262.051330,50964.000,8424,4,AY,1,100,0.264
1575665262.097142,51002.500,8442,2,AY,1,100,0.317
1575665262.142953,51041.000,8442,2,AY,1,100,0.558
1575665262.184203,51075.667,8460,3,AY,1,100,0.615
1575665262.225453,51110.333,8460,3,AY,1,100,0.550
1575665262.266704,51145.000,8460,3,AY,1,100,0.487
1575665262.307954,51179.667,8478,3,AY,1,100,0.413
1575665262.349204,51214.333,8478,3,AY,1,100,0.331
1575665262.390454,51249.000,8478,3,AY,1,100,0.392
1575665262.430117,51282.333,8496,3,AY,1,100,0.465
1575665262.469781,51315.667,8496,3,AY,1,100,0.451
1575665262.509445,51349.000,8496,3,AY,1,100,0.466
1575665262.547125,51380.667,8514,3,AY,1,100,0.459
1575665262.584805,51412.333,8514,3,AY,1,100,0.469
1575665262.622486,51444.000,8514,3,AY,1,100,0.487
1575665262.662149,51477.333,8531,3,AY,1,100,0.450
1575665262.701813,51510.667,8531,3,AY,1,100,0.338
1575665262.741477,51544.000,8531,3,AY,1,100,0.258
1575665262.782727,51578.667,8550,3,AY,1,100,0.360
1575665262.823977,51613.333,8550,3,AY,1,100,0.403
1575665262.865227,51648.000,8550,3,AY,1,100,0.458
1575665262.906477,51682.667,8566,3,AY,1,100,0.463
1575665262.947727,51717.333,8566,3,AY,1,100,0.476
1575665262.988977,51752.000,8566,3,AY,1,100,0.479
1575665263.032607,51788.667,8584,3,AY,1,100,0.400
1575665263.076237,51825.333,8584,3,AY,1,100,0.396
1575665263.119867,51862.000,8584,3,AY,1,100,0.333
1575665263.157547,51893.667,8602,3,AY,1,100,0.260
1575665263.195228,51925.333,8602,3,AY,1,100,0.347
1575665263.232908,51957.000,8602,3,AY,1,100,0.427
1575665263.271779,51989.667,8620,3,AY,1,100,0.461
1575665263.310649,52022.333,8620,3,AY,1,100,0.483
1575665263.349519,52055.000,8620,3,AY,1,100,0.469
1575665263.391166,52090.000,8638,3,AY,1,100,0.488
1575665263.432813,52125.000,8638,3,AY,1,100,0.267
1575665263.474459,52160.000,8638,3,AY,1,100,0.179
1575665263.515313,52194.333,8656,3,AY,1,100,0.205
1575665263.556166,52228.667,8656,3,AY,1,100,0.389
1575665263.597020,52263.000,8656,3,AY,1,100,0.433
1575665263.637873,52297.333,8674,3,AY,1,100,0.446
1575665263.678727,52331.667,8674,3,AY,1,100,0.378
1575665263.719580,52366.000,8674,3,AY,1,100,0.297
1575665263.760434,52400.333,8692,3,AY,1,100,0.288
1575665263.801287,52434.667,8692,3,AY,1,100,0.212
1575665263.842141,52469.000,8692,3,AY,1,100,0.220
1575665263.878234,52499.333,8711,3,AY,1,100,0.410
1575665263.914328,52529.667,8711,3,AY,1,100,0.477
1575665263.950422,52560.000,8711,3,AY,1,100,0.588
1575665263.991672,52594.667,8728,3,AY,1,100,0.350
1575665264.032923,52629.333,8728,3,AY,1,100,0.200
1575665264.074172,52664.000,8728,3,AY,1,100,0.114
1575665264.112646,52696.333,8746,3,AY,1,100,0.221
1575665264.151120,52728.667,8746,3,AY,1,100,0.375
1575665264.189594,52761.000,8746,3,AY,1,100,0.518
1575665264.230447,52795.333,8764,3,AY,1,100,0.343
1575665264.271301,52829.667,8764,3,AY,1,100,0.156
1575665264.312154,52864.000,8764,3,AY,1,100,-0.013
1575665264.353404,52898.667,8780,3,AY,1,100,-0.399
1575665264.394654,52933.333,8780,3,AY,1,100,0.520
1575665264.435904,52968.000,8780,3,AY,1,100,0.900
1575665264.476758,53002.333,8798,3,AY,1,100,0.843
1575665264.517611,53036.667,8798,3,AY,1,100,0.297
1575665264.558465,53071.000,8798,3,AY,1,100,0.308
1575665264.596938,53103.333,8816,3,AY,1,100,0.325
1575665264.635412,53135.667,8816,3,AY,1,100,0.322
1575665264.673886,53168.000,8816,3,AY,1,100,0.375
1575665264.711963,53200.000,8834,3,AY,1,100,0.368
1575665264.750040,53232.000,8834,3,AY,1,100,0.326
1575665264.788117,53264.000,8834,3,AY,1,100,0.387
1575665264.832937,53301.667,8853,3,AY,1,100,0.362
1575665264.877757,53339.333,8853,3,AY,1,100,0.193
1575665264.922576,53377.000,8853,3,AY,1,100,0.396
1575665264.963826,53411.667,8871,3,AY,1,100,0.480
1575665265.005077,53446.333,8871,3,AY,1,100,0.385
1575665265.046327,53481.000,8871,3,AY,1,100,0.257
1575665265.087973,53516.000,8888,3,AY,1,100,0.301
1575665265.129620,53551.000,8888,3,AY,1,100,0.411
1575665265.171267,53586.000,8888,3,AY,1,100,0.435
1575665265.208551,53617.333,8906,3,AY,1,100,0.346
1575665265.245835,53648.667,8906,3,AY,1,100,0.292
1575665265.283118,53680.000,8906,3,AY,1,100,0.354
1575665265.321989,53712.667,8924,3,AY,1,100,0.417
1575665265.360859,53745.333,8924,3,AY,1,100,0.433
1575665265.399729,53778.000,8924,3,AY,1,100,0.396
1575665265.440186,53812.000,8942,3,AY,1,100,0.344
1575665265.480643,53846.000,8942,3,AY,1,100,0.265
1575665265.521100,53880.000,8942,3,AY,1,100,0.164
1575665265.561953,53914.333,8958,3,AY,1,100,0.273
1575665265.602807,53948.667,8958,3,AY,1,100,0.329
1575665265.643660,53983.000,8958,3,AY,1,100,0.395
1575665265.686021,54018.600,8979,5,AY,1,100,0.390
1575665265.728382,54054.200,8979,5,AY,1,100,0.361
1575665265.770742,54089.800,8979,5,AY,1,100,0.319
1575665265.813103,54125.400,8979,5,AY,1,100,0.309
1575665265.855464,54161.000,8979,5,AY,1,100,0.282
1575665265.893541,54193.000,8999,3,AY,1,100,0.287
1575665265.931618,54225.000,8999,3,AY,1,100,0.263
1575665265.969695,54257.000,8999,3,AY,1,100,0.290
1575665266.009358,54290.333,9017,3,AY,1,100,0.236
1575665266.049022,54323.667,9017,3,AY,1,100,0.222
1575665266.088686,54357.000,9017,3,AY,1,100,0.229
1575665266.130332,54392.000,9035,3,AY,1,100,0.210
1575665266.171979,54427.000,9035,3,AY,1,100,0.223
1575665266.213626,54462.000,9035,3,AY,1,100,0.242
1575665266.254678,54496.500,9051,2,AY,1,100,0.295
1575665266.295729,54531.000,9051,2,AY,1,100,0.315
1575665266.336979,54565.667,9069,3,AY,1,100,0.286
1575665266.378229,54600.333,9069,3,AY,1,100,0.243
1575665266.419480,54635.000,9069,3,AY,1,100,0.218
1575665266.457557,54667.000,9087,4,AY,1,100,0.237
1575665266.495634,54699.000,9087,4,AY,1,100,0.256
1575665266.533711,54731.000,9087,4,AY,1,100,0.242
1575665266.571788,54763.000,9087,4,AY,1,100,0.218
1575665266.617004,54801.000,9105,2,AY,1,100,0.240
1575665266.662221,54839.000,9105,2,AY,1,100,0.261
1575665266.702677,54873.000,9123,3,AY,1,100,0.272
1575665266.743134,54907.000,9123,3,AY,1,100,0.254
1575665266.783591,54941.000,9123,3,AY,1,100,0.243
1575665266.824841,54975.667,9142,3,AY,1,100,0.241
1575665266.866091,55010.333,9142,3,AY,1,100,0.202
1575665266.907341,55045.000,9142,3,AY,1,100,0.251
1575665266.948988,55080.000,9160,3,AY,1,100,0.259
1575665266.990635,55115.000,9160,3,AY,1,100,0.236
1575665267.032282,55150.000,9160,3,AY,1,100,0.248
1575665267.069169,55181.000,9177,3,AY,1,100,0.273
1575665267.106056,55212.000,9177,3,AY,1,100,0.294
1575665267.142943,55243.000,9177,3,AY,1,100,0.051
1575665267.182210,55276.000,9195,3,AY,1,100,-0.205
1575665267.221477,55309.000,9195,3,AY,1,100,0.316
1575665267.260744,55342.000,9195,3,AY,1,100,0.751
1575665267.303977,55378.333,9213,3,AY,1,100,0.675
1575665267.347211,55414.667,9213,3,AY,1,100,0.315
1575665267.390444,55451.000,9213,3,AY,1,100,0.150
1575665267.429314,55483.667,9229,3,AY,1,100,0.165
1575665267.468184,55516.333,9229,3,AY,1,100,0.247
1575665267.507055,55549.000,9229,3,AY,1,100,0.382
1575665267.547512,55583.000,9247,3,AY,1,100,0.446
1575665267.587968,55617.000,9247,3,AY,1,100,0.417
1575665267.628425,55651.000,9247,3,AY,1,100,0.302
1575665267.670469,55686.333,9265,3,AY,1,100,0.246
1575665267.712512,55721.667,9265,3,AY,1,100,0.329
1575665267.754555,55757.000,9265,3,AY,1,100,0.343
1575665267.796202,55792.000,9284,3,AY,1,100,0.341
1575665267.837849,55827.000,9284,3,AY,1,100,0.330
1575665267.879496,55862.000,9284,3,AY,1,100,0.301
1575665267.923919,55899.333,9302,3,AY,1,100,0.317
1575665267.968342,55936.667,9302,3,AY,1,100,0.318
1575665268.012765,55974.000,9302,3,AY,1,100,0.365
1575665268.052825,56007.667,9320,3,AY,1,100,0.362
1575665268.092886,56041.333,9320,3,AY,1,100,0.325
1575665268.132946,56075.000,9320,3,AY,1,100,0.312
1575665268.171023,56107.000,9338,3,AY,1,100,0.299
1575665268.209100,56139.000,9338,3,AY,1,100,0.305
1575665268.247177,56171.000,9338,3,AY,1,100,0.327
1575665268.286047,56203.667,9355,3,AY,1,100,0.299
1575665268.324918,56236.333,9355,3,AY,1,100,0.373
1575665268.363788,56269.000,9355,3,AY,1,100,0.388
1575665268.405038,56303.667,9373,3,AY,1,100,0.356
1575665268.446288,56338.333,9373,3,AY,1,100,0.336
1575665268.487538,56373.000,9373,3,AY,1,100,0.330
1575665268.528392,56407.333,9389,3,AY,1,100,0.296
1575665268.569245,56441.667,9389,3,AY,1,100,0.243
1575665268.610099,56476.000,9389,3,AY,1,100,0.209
1575665268.650952,56510.333,9407,3,AY,1,100,0.315
1575665268.691806,56544.667,9407,3,AY,1,100,0.450
1575665268.732659,56579.000,9407,3,AY,1,100,0.438
1575665268.773909,56613.667,9425,3,AY,1,100,0.353
1575665268.815159,56648.333,9425,3,AY,1,100,0.314
1575665268.856410,56683.000,9425,3,AY,1,100,0.306
1575665268.895280,56715.667,9444,3,AY,1,100,0.278
1575665268.934150,56748.333,9444,3,AY,1,100,0.336
1575665268.973020,56781.000,9444,3,AY,1,100,0.328
1575665269.013081,56814.667,9462,3,AY,1,100,0.372
1575665269.053141,56848.333,9462,3,AY,1,100,0.353
1575665269.093201,56882.000,9462,3,AY,1,100,0.328
1575665269.134848,56917.000,9480,3,AY,1,100,0.305
1575665269.176495,56952.000,9480,3,AY,1,100,0.253
1575665269.218141,56987.000,9480,3,AY,1,100,0.221
1575665269.258598,57021.000,9498,2,AY,1,100,0.250
1575665269.299055,57055.000,9498,2,AY,1,100,0.336
1575665269.337727,57087.500,9516,4,AY,1,100,0.372
1575665269.376399,57120.000,9516,4,AY,1,100,0.438
1575665269.415071,57152.500,9516,4,AY,1,100,0.361
1575665269.453743,57185.000,9516,4,AY,1,100,0.172
1575665269.492613,57217.667,9533,3,AY,1,100,-0.027
1575665269.531484,57250.333,9533,3,AY,1,100,-0.031
1575665269.570354,57283.000,9533,3,AY,1,100,0.438
1575665269.616165,57321.500,9551,2,AY,1,100,0.634
1575665269.661977,57360.000,9551,2,AY,1,100,0.446
1575665269.703227,57394.667,9567,3,AY,1,100,0.241
1575665269.744477,57429.333,9567,3,AY,1,100,0.178
1575665269.785727,57464.000,9567,3,AY,1,100,0.301
1575665269.826581,57498.333,9586,3,AY,1,100,0.309
1575665269.867434,57532.667,9586,3,AY,1,100,0.355
1575665269.908288,57567.000,9586,3,AY,1,100,0.370
1575665269.947554,57600.000,9604,3,AY,1,100,0.386
1575665269.986821,57633.000,9604,3,AY,1,100,0.399
1575665270.026088,57666.000,9604,3,AY,1,100,0.306
1575665270.064562,57698.333,9622,3,AY,1,100,-0.108
1575665270.103036,57730.667,9622,3,AY,1,100,-0.060
1575665270.141509,57763.000,9622,3,AY,1,100,0.463
1575665270.181570,57796.667,9640,3,AY,1,100,0.900
1575665270.221630,57830.333,9640,3,AY,1,100,0.920
1575665270.261690,57864.000,9640,3,AY,1,100,0.557
1575665270.303337,57899.000,9658,3,AY,1,100,0.065
1575665270.344983,57934.000,9658,3,AY,1,100,0.200
1575665270.386630,57969.000,9658,3,AY,1,100,0.406
1575665270.431450,58006.667,9676,3,AY,1,100,0.478
1575665270.476270,58044.333,9676,3,AY,1,100,0.384
1575665270.521090,58082.000,9676,3,AY,1,100,0.348
1575665270.559960,58114.667,9694,3,AY,1,100,0.278
1575665270.598830,58147.333,9694,3,AY,1,100,0.237
1575665270.637701,58180.000,9694,3,AY,1,100,0.201
1575665270.674984,58211.333,9711,3,AY,1,100,0.246
1575665270.712268,58242.667,9711,3,AY,1,100,0.297
1575665270.749552,58274.000,9711,3,AY,1,100,0.322
1575665270.790405,58308.333,9730,3,AY,1,100,0.363
1575665270.831259,58342.667,9730,3,AY,1,100,0.373
1575665270.872112,58377.000,9730,3,AY,1,100,0.313
1575665270.912966,58411.333,9748,3,AY,1,100,0.298
1575665270.953819,58445.667,9748,3,AY,1,100,0.355
1575665270.994673,58480.000,9748,3,AY,1,100,0.367
1575665271.035923,58514.667,9764,3,AY,1,100,0.348
1575665271.077173,58549.333,9764,3,AY,1,100,0.372
1575665271.118423,58584.000,9764,3,AY,1,100,0.349
1575665271.158087,58617.333,9782,3,AY,1,100,0.367
1575665271.197750,58650.667,9782,3,AY,1,100,0.376
1575665271.237414,58684.000,9782,3,AY,1,100,0.357
1575665271.278267,58718.333,9800,3,AY,1,100,0.397
1575665271.319121,58752.667,9800,3,AY,1,100,0.386
1575665271.359974,58787.000,9800,3,AY,1,100,0.367
1575665271.398844,58819.667,9818,3,AY,1,100,0.386
1575665271.437715,58852.333,9818,3,AY,1,100,0.340
1575665271.476585,58885.000,9818,3,AY,1,100,0.385
1575665271.516645,58918.667,9836,3,AY,1,100,0.367
1575665271.556705,58952.333,9836,3,AY,1,100,0.402
1575665271.596766,58986.000,9836,3,AY,1,100,0.371
1575665271.636033,59019.000,9854,3,AY,1,100,0.426
1575665271.675300,59052.000,9854,3,AY,1,100,0.388
1575665271.714566,59085.000,9854,3,AY,1,100,0.380
1575665271.756213,59120.000,9875,5,AY,1,100,0.349
1575665271.797860,59155.000,9875,5,AY,1,100,0.363
1575665271.839507,59190.000,9875,5,AY,1,100,0.358
1575665271.881154,59225.000,9875,5,AY,1,100,0.375
1575665271.922800,59260.000,9875,5,AY,1,100,0.374
1575665271.964051,59294.667,9896,3,AY,1,100,0.369
1575665272.005301,59329.333,9896,3,AY,1,100,0.345
1575665272.046551,59364.000,9896,3,AY,1,100,0.368
1575665272.087801,59398.667,9914,3,AY,1,100,0.360
1575665272.129051,59433.333,9914,3,AY,1,100,0.362
1575665272.170301,59468.000,9914,3,AY,1,100,0.373
1575665272.211948,59503.000,9932,2,AY,1,100,0.360
1575665272.253595,59538.000,9932,2,AY,1,100,0.386
1575665272.291374,59569.750,9950,4,AY,1,100,0.339
1575665272.329154,59601.500,9950,4,AY,1,100,0.349
1575665272.366933,59633.250,9950,4,AY,1,100,0.375
1575665272.404713,59665.000,9950,4,AY,1,100,0.316
1575665272.443980,59698.000,9968,3,AY,1,100,0.357
1575665272.483247,59731.000,9968,3,AY,1,100,0.323
1575665272.522514,59764.000,9968,3,AY,1,100,0.357
1575665272.562970,59798.000,9985,2,AY,1,100,0.345
1575665272.603427,59832.000,9985,2,AY,1,100,0.355
1575665272.649040,59870.333,10003,3,AY,1,100,0.346
1575665272.694654,59908.667,10003,3,AY,1,100,0.363
1575665272.740267,59947.000,10003,3,AY,1,100,0.353
1575665272.781517,59981.667,10019,3,AY,1,100,0.333
1575665272.822767,60016.333,10019,3,AY,1,100,0.333
1575665272.864017,60051.000,10019,3,AY,1,100,0.343
1575665272.902094,60083.000,10038,3,AY,1,100,0.349
1575665272.940171,60115.000,10038,3,AY,1,100,0.337
1575665272.978248,60147.000,10038,3,AY,1,100,0.349
1575665273.016623,60179.250,10056,4,AY,1,100,0.340
1575665273.054997,60211.500,10056,4,AY,1,100,0.346
1575665273.093372,60243.750,10056,4,AY,1,100,0.341
1575665273.131746,60276.000,10056,4,AY,1,100,0.334
1575665273.172203,60310.000,10074,3,AY,1,100,0.337
1575665273.212660,60344.000,10074,3,AY,1,100,0.345
1575665273.253117,60378.000,10074,3,AY,1,100,0.363
1575665273.294168,60412.500,10092,2,AY,1,100,0.326
1575665273.335220,60447.000,10092,2,AY,1,100,0.333
1575665273.376470,60481.667,10110,3,AY,1,100,0.344
1575665273.417720,60516.333,10110,3,AY,1,100,0.339
1575665273.458971,60551.000,10110,3,AY,1,100,0.351
1575665273.501807,60587.000,10128,3,AY,1,100,0.358
1575665273.544644,60623.000,10128,3,AY,1,100,0.341
1575665273.587481,60659.000,10128,3,AY,1,100,0.330
1575665273.625161,60690.667,10146,3,AY,1,100,0.346
1575665273.662841,60722.333,10146,3,AY,1,100,0.344
1575665273.700522,60754.000,10146,3,AY,1,100,0.330
1575665273.740582,60787.667,10164,3,AY,1,100,0.334
1575665273.780642,60821.333,10164,3,AY,1,100,0.358
1575665273.820702,60855.000,10164,3,AY,1,100,0.356
1575665273.862349,60890.000,10182,3,AY,1,100,0.329
1575665273.903996,60925.000,10182,3,AY,1,100,0.329
1575665273.945642,60960.000,10182,3,AY,1,100,0.343
1575665273.986893,60994.667,10200,3,AY,1,100,0.347
1575665274.028143,61029.333,10200,3,AY,1,100,0.348
1575665274.069393,61064.000,10200,3,AY,1,100,0.340
1575665274.109056,61097.333,10216,3,AY,1,100,0.339
1575665274.148720,61130.667,10216,3,AY,1,100,0.357
1575665274.188384,61164.000,10216,3,AY,1,100,0.347
1575665274.225667,61195.333,10234,3,AY,1,100,0.335
1575665274.262951,61226.667,10234,3,AY,1,100,0.342
1575665274.300235,61258.000,10234,3,AY,1,100,0.335
1575665274.344658,61295.333,10252,3,AY,1,100,0.312
1575665274.389081,61332.667,10252,3,AY,1,100,0.342
1575665274.433505,61370.000,10252,3,AY,1,100,0.346
1575665274.474755,61404.667,10270,3,AY,1,100,0.326
1575665274.516005,61439.333,10270,3,AY,1,100,0.334
1575665274.557255,61474.000,10270,3,AY,1,100,0.334
1575665274.598505,61508.667,10288,3,AY,1,100,0.326
1575665274.639755,61543.333,10288,3,AY,1,100,0.344
1575665274.681005,61578.000,10288,3,AY,1,100,0.327
1575665274.719479,61610.333,10306,3,AY,1,100,0.334
1575665274.757952,61642.667,10306,3,AY,1,100,0.335
1575665274.796426,61675.000,10306,3,AY,1,100,0.328
1575665274.834900,61707.333,10325,3,AY,1,100,0.333
1575665274.873374,61739.667,10325,3,AY,1,100,0.329
1575665274.911847,61772.000,10325,3,AY,1,100,0.326
1575665274.951114,61805.000,10343,3,AY,1,100,0.335
1575665274.990381,61838.000,10343,3,AY,1,100,0.322
1575665275.029648,61871.000,10343,3,AY,1,100,0.331
1575665275.075261,61909.333,10360,3,AY,1,100,0.345
1575665275.120874,61947.667,10360,3,AY,1,100,0.343
1575665275.166487,61986.000,10360,3,AY,1,100,0.326
1575665275.207737,62020.667,10378,3,AY,1,100,0.329
1575665275.248987,62055.333,10378,3,AY,1,100,0.328
1575665275.290238,62090.000,10378,3,AY,1,100,0.333
1575665275.328315,62122.000,10394,3,AY,1,100,0.338
1575665275.366392,62154.000,10394,3,AY,1,100,0.326
1575665275.404469,62186.000,10394,3,AY,1,100,0.334
1575665275.451470,62225.500,10412,2,AY,1,100,0.333
1575665275.498471,62265.000,10412,2,AY,1,100,0.326
1575665275.539325,62299.333,10430,3,AY,1,100,0.339
1575665275.580178,62333.667,10430,3,AY,1,100,0.332
1575665275.621032,62368.000,10430,3,AY,1,100,0.329
1575665275.659109,62400.000,10448,4,AY,1,100,0.332
1575665275.697186,62432.000,10448,4,AY,1,100,0.340
1575665275.735263,62464.000,10448,4,AY,1,100,0.338
1575665275.773340,62496.000,10448,4,AY,1,100,0.325
1575665275.813400,62529.667,10466,3,AY,1,100,0.330
1575665275.853460,62563.333,10466,3,AY,1,100,0.330
1575665275.893521,62597.000,10466,3,AY,1,100,0.327
1575665275.933977,62631.000,10485,3,AY,1,100,0.341
1575665275.974434,62665.000,10485,3,AY,1,100,0.331
1575665276.014891,62699.000,10485,3,AY,1,100,0.323
1575665276.056538,62734.000,10503,2,AY,1,100,0.340
1575665276.098185,62769.000,10503,2,AY,1,100,0.331
1575665276.139831,62804.000,10520,3,AY,1,100,0.345
1575665276.181478,62839.000,10520,3,AY,1,100,0.313
1575665276.223125,62874.000,10520,3,AY,1,100,0.320
1575665276.264375,62908.667,10538,3,AY,1,100,0.338
1575665276.305625,62943.333,10538,3,AY,1,100,0.344
1575665276.346875,62978.000,10538,3,AY,1,100,0.346
1575665276.385349,63010.333,10554,3,AY,1,100,0.308
1575665276.423823,63042.667,10554,3,AY,1,100,0.328
1575665276.462296,63075.000,10554,3,AY,1,100,0.332
1575665276.503943,63110.000,10572,3,AY,1,100,0.336
1575665276.545590,63145.000,10572,3,AY,1,100,0.345
1575665276.587236,63180.000,10572,3,AY,1,100,0.331
1575665276.627297,63213.667,10590,3,AY,1,100,0.318
1575665276.667357,63247.333,10590,3,AY,1,100,0.329
1575665276.707417,63281.000,10590,3,AY,1,100,0.336
1575665276.749857,63316.667,10608,3,AY,1,100,0.342
1575665276.792297,63352.333,10608,3,AY,1,100,0.330
1575665276.834737,63388.000,10608,3,AY,1,100,0.334
1575665276.872021,63419.333,10627,3,AY,1,100,0.316
1575665276.909305,63450.667,10627,3,AY,1,100,0.333
1575665276.946589,63482.000,10627,3,AY,1,100,0.333
1575665276.984269,63513.667,10645,3,AY,1,100,0.338
1575665277.021949,63545.333,10645,3,AY,1,100,0.335
1575665277.059630,63577.000,10645,3,AY,1,100,0.323
1575665277.104450,63614.667,10663,3,AY,1,100,0.329
1575665277.149269,63652.333,10663,3,AY,1,100,0.338
1575665277.194089,63690.000,10663,3,AY,1,100,0.326
1575665277.234943,63724.333,10681,3,AY,1,100,0.337
1575665277.275796,63758.667,10681,3,AY,1,100,0.342
1575665277.316650,63793.000,10681,3,AY,1,100,0.330
1575665277.357900,63827.667,10698,3,AY,1,100,0.337
1575665277.399150,63862.333,10698,3,AY,1,100,0.327
1575665277.440400,63897.000,10698,3,AY,1,100,0.334
1575665277.478874,63929.333,10716,3,AY,1,100,0.333
1575665277.517347,63961.667,10716,3,AY,1,100,0.327
1575665277.555821,63994.000,10716,3,AY,1,100,0.333
1575665277.593898,64026.000,10734,3,AY,1,100,0.319
1575665277.631975,64058.000,10734,3,AY,1,100,0.328
1575665277.670052,64090.000,10734,3,AY,1,100,0.327
1575665277.710112,64123.667,10750,3,AY,1,100,0.328
1575665277.750172,64157.333,10750,3,AY,1,100,0.329
1575665277.790233,64191.000,10750,3,AY,1,100,0.327
1575665277.831641,64225.800,10772,5,AY,1,100,0.329
1575665277.873050,64260.600,10772,5,AY,1,100,0.327
1575665277.914459,64295.400,10772,5,AY,1,100,0.328
1575665277.955868,64330.200,10772,5,AY,1,100,0.325
1575665277.997277,64365.000,10772,5,AY,1,100,0.324
1575665278.040113,64401.000,10790,3,AY,1,100,0.315
1575665278.082950,64437.000,10790,3,AY,1,100,0.330
1575665278.125787,64473.000,10790,3,AY,1,100,0.344
1575665278.163467,64504.667,10809,3,AY,1,100,0.335
1575665278.201147,64536.333,10809,3,AY,1,100,0.318
1575665278.238828,64568.000,10809,3,AY,1,100,0.313
1575665278.278095,64601.000,10827,3,AY,1,100,0.337
1575665278.317362,64634.000,10827,3,AY,1,100,0.344
1575665278.356628,64667.000,10827,3,AY,1,100,0.334
1575665278.397879,64701.667,10843,3,AY,1,100,0.322
1575665278.439129,64736.333,10843,3,AY,1,100,0.320
1575665278.480379,64771.000,10843,3,AY,1,100,0.328
1575665278.521232,64805.333,10861,3,AY,1,100,0.341
1575665278.562086,64839.667,10861,3,AY,1,100,0.337
1575665278.602939,64874.000,10861,3,AY,1,100,0.330
1575665278.643793,64908.333,10879,3,AY,1,100,0.326
1575665278.684646,64942.667,10879,3,AY,1,100,0.331
1575665278.725500,64977.000,10879,3,AY,1,100,0.330
1575665278.766750,65011.667,10897,3,AY,1,100,0.337
1575665278.808000,65046.333,10897,3,AY,1,100,0.339
1575665278.849250,65081.000,10897,3,AY,1,100,0.350
1575665278.884551,65110.667,10916,3,AY,1,100,0.330
1575665278.919851,65140.333,10916,3,AY,1,100,0.350
1575665278.955152,65170.000,10916,3,AY,1,100,0.365
1575665278.997195,65205.333,10934,3,AY,1,100,0.346
1575665279.039238,65240.667,10934,3,AY,1,100,0.343
1575665279.081282,65276.000,10934,3,AY,1,100,0.349
1575665279.116186,65305.333,10952,3,AY,1,100,0.320
1575665279.151090,65334.667,10952,3,AY,1,100,0.343
1575665279.185994,65364.000,10952,3,AY,1,100,0.356
1575665279.227244,65398.667,10970,3,AY,1,100,0.334
1575665279.268494,65433.333,10970,3,AY,1,100,0.295
1575665279.309744,65468.000,10970,3,AY,1,100,0.369
1575665279.350201,65502.000,10988,3,AY,1,100,0.320
1575665279.390658,65536.000,10988,3,AY,1,100,0.418
1575665279.431115,65570.000,10988,3,AY,1,100,0.395
1575665279.472365,65604.667,11005,3,AY,1,100,0.496
1575665279.513615,65639.333,11005,3,AY,1,100,0.638
1575665279.554865,65674.000,11005,3,AY,1,100,0.511
1575665279.596512,65709.000,11023,3,AY,1,100,0.742
1575665279.638159,65744.000,11023,3,AY,1,100,0.760
1575665279.679805,65779.000,11023,3,AY,1,100,0.803
1575665279.719072,65812.000,11039,3,AY,1,100,0.809
1575665279.758339,65845.000,11039,3,AY,1,100,0.812
1575665279.797606,65878.000,11039,3,AY,1,100,0.810
1575665279.835683,65910.000,11058,3,AY,1,100,0.808
1575665279.873760,65942.000,11058,3,AY,1,100,0.802
1575665279.911837,65974.000,11058,3,AY,1,100,0.820
1575665279.951104,66007.000,11076,3,AY,1,100,0.849
1575665279.990371,66040.000,11076,3,AY,1,100,0.812
1575665280.029638,66073.000,11076,3,AY,1,100,0.812
1575665280.074854,66111.000,11094,3,AY,1,100,0.793
1575665280.120071,66149.000,11094,3,AY,1,100,0.764
1575665280.165287,66187.000,11094,3,AY,1,100,0.802
1575665280.205744,66221.000,11112,3,AY,1,100,0.792
1575665280.246201,66255.000,11112,3,AY,1,100,0.776
1575665280.286658,66289.000,11112,3,AY,1,100,0.781
1575665280.327115,66323.000,11130,3,AY,1,100,0.792
1575665280.367572,66357.000,11130,3,AY,1,100,0.792
1575665280.408028,66391.000,11130,3,AY,1,100,0.795
1575665280.445709,66422.667,11148,3,AY,1,100,0.825
1575665280.483389,66454.333,11148,3,AY,1,100,0.792
1575665280.521070,66486.000,11148,3,AY,1,100,0.787
1575665280.559940,66518.667,11166,3,AY,1,100,0.795
1575665280.598810,66551.333,11166,3,AY,1,100,0.815
1575665280.637681,66584.000,11166,3,AY,1,100,0.796
1575665280.678931,66618.667,11183,3,AY,1,100,0.790
1575665280.720181,66653.333,11183,3,AY,1,100,0.804
1575665280.761431,66688.000,11183,3,AY,1,100,0.808
1575665280.801888,66722.000,11202,3,AY,1,100,0.783
1575665280.842345,66756.000,11202,3,AY,1,100,0.786
1575665280.882802,66790.000,11202,3,AY,1,100,0.830
1575665280.930993,66830.500,11220,2,AY,1,100,0.790
1575665280.979184,66871.000,11220,2,AY,1,100,0.788
1575665281.016666,66902.500,11236,4,AY,1,100,0.813
1575665281.054148,66934.000,11236,4,AY,1,100,0.793
1575665281.091630,66965.500,11236,4,AY,1,100,0.825
1575665281.129112,66997.000,11236,4,AY,1,100,0.795
1575665281.168379,67030.000,11254,3,AY,1,100,0.794
1575665281.207646,67063.000,11254,3,AY,1,100,0.792
1575665281.246913,67096.000,11254,3,AY,1,100,0.795
1575665281.288560,67131.000,11272,3,AY,1,100,0.815
1575665281.330207,67166.000,11272,3,AY,1,100,0.794
1575665281.371853,67201.000,11272,3,AY,1,100,0.798
1575665281.412707,67235.333,11290,3,AY,1,100,0.794
1575665281.453560,67269.667,11290,3,AY,1,100,0.815
1575665281.494414,67304.000,11290,3,AY,1,100,0.792
1575665281.537250,67340.000,11308,2,AY,1,100,0.796
1575665281.580087,67376.000,11308,2,AY,1,100,0.808
1575665281.617867,67407.750,11326,4,AY,1,100,0.800
1575665281.655646,67439.500,11326,4,AY,1,100,0.816
1575665281.693426,67471.250,11326,4,AY,1,100,0.794
1575665281.731205,67503.000,11326,4,AY,1,100,0.811
1575665281.774042,67539.000,11344,2,AY,1,100,0.793
1575665281.816879,67575.000,11344,2,AY,1,100,0.794
1575665281.858129,67609.667,11362,3,AY,1,100,0.801
1575665281.899379,67644.333,11362,3,AY,1,100,0.790
1575665281.940629,67679.000,11362,3,AY,1,100,0.817
1575665281.981879,67713.667,11380,3,AY,1,100,0.795
1575665282.023129,67748.333,11380,3,AY,1,100,0.793
1575665282.064379,67783.000,11380,3,AY,1,100,0.828
1575665282.105233,67817.333,11398,3,AY,1,100,0.791
1575665282.146086,67851.667,11398,3,AY,1,100,0.784
1575665282.186940,67886.000,11398,3,AY,1,100,0.771
1575665282.225017,67918.000,11414,3,AY,1,100,0.826
1575665282.263094,67950.000,11414,3,AY,1,100,0.795
1575665282.301171,67982.000,11414,3,AY,1,100,0.834
1575665282.339843,68014.500,11432,4,AY,1,100,0.798
1575665282.378515,68047.000,11432,4,AY,1,100,0.773
1575665282.417187,68079.500,11432,4,AY,1,100,0.779
1575665282.455859,68112.000,11432,4,AY,1,100,0.818
1575665282.495919,68145.667,11450,3,AY,1,100,0.844
1575665282.535979,68179.333,11450,3,AY,1,100,0.845
1575665282.576039,68213.000,11450,3,AY,1,100,0.821
1575665282.623636,68253.000,11468,2,AY,1,100,0.763
1575665282.671232,68293.000,11468,2,AY,1,100,0.780
1575665282.708516,68324.333,11486,3,AY,1,100,0.776
1575665282.745800,68355.667,11486,3,AY,1,100,0.804
1575665282.783083,68387.000,11486,3,AY,1,100,0.801
1575665282.827506,68424.333,11505,3,AY,1,100,0.816
1575665282.871930,68461.667,11505,3,AY,1,100,0.835
1575665282.916353,68499.000,11505,3,AY,1,100,0.788
1575665282.958396,68534.333,11523,3,AY,1,100,0.781
1575665283.000440,68569.667,11523,3,AY,1,100,0.798
1575665283.042483,68605.000,11523,3,AY,1,100,0.808
1575665283.080560,68637.000,11540,3,AY,1,100,0.794
1575665283.118637,68669.000,11540,3,AY,1,100,0.817
1575665283.156714,68701.000,11540,3,AY,1,100,0.821
1575665283.201534,68738.667,11558,3,AY,1,100,0.804
1575665283.246354,68776.333,11558,3,AY,1,100,0.785
1575665283.291174,68814.000,11558,3,AY,1,100,0.802
1575665283.328854,68845.667,11574,3,AY,1,100,0.814
1575665283.366534,68877.333,11574,3,AY,1,100,0.782
1575665283.404215,68909.000,11574,3,AY,1,100,0.824
1575665283.443085,68941.667,11592,3,AY,1,100,0.860
1575665283.481955,68974.333,11592,3,AY,1,100,0.788
1575665283.520826,69007.000,11592,3,AY,1,100,0.784
1575665283.561679,69041.333,11610,3,AY,1,100,0.788
1575665283.602533,69075.667,11610,3,AY,1,100,0.815
1575665283.643386,69110.000,11610,3,AY,1,100,0.853
1575665283.684636,69144.667,11628,3,AY,1,100,0.833
1575665283.725886,69179.333,11628,3,AY,1,100,0.807
1575665283.767136,69214.000,11628,3,AY,1,100,0.834
1575665283.808783,69249.000,11647,3,AY,1,100,0.809
1575665283.850430,69284.000,11647,3,AY,1,100,0.771
1575665283.892077,69319.000,11647,3,AY,1,100,0.797
1575665283.930392,69351.200,11668,5,AY,1,100,0.783
1575665283.968707,69383.400,11668,5,AY,1,100,0.801
1575665284.007022,69415.600,11668,5,AY,1,100,0.808
1575665284.045337,69447.800,11668,5,AY,1,100,0.796
1575665284.083652,69480.000,11668,5,AY,1,100,0.820
1575665284.127678,69517.000,11686,2,AY,1,100,0.803
1575665284.171705,69554.000,11686,2,AY,1,100,0.795
1575665284.211765,69587.667,11704,3,AY,1,100,0.788
1575665284.251825,69621.333,11704,3,AY,1,100,0.824
1575665284.291886,69655.000,11704,3,AY,1,100,0.787
1575665284.333532,69690.000,11722,3,AY,1,100,0.803
1575665284.375179,69725.000,11722,3,AY,1,100,0.816
1575665284.416826,69760.000,11722,3,AY,1,100,0.798
1575665284.457679,69794.333,11740,3,AY,1,100,0.804
1575665284.498533,69828.667,11740,3,AY,1,100,0.802
1575665284.539386,69863.000,11740,3,AY,1,100,0.800
1575665284.577067,69894.667,11758,3,AY,1,100,0.779
1575665284.614747,69926.333,11758,3,AY,1,100,0.803
1575665284.652427,69958.000,11758,3,AY,1,100,0.826
1575665284.691694,69991.000,11776,4,AY,1,100,0.826
1575665284.730961,70024.000,11776,4,AY,1,100,0.773
1575665284.770228,70057.000,11776,4,AY,1,100,0.780
1575665284.809495,70090.000,11776,4,AY,1,100,0.820
1575665284.855307,70128.500,11795,2,AY,1,100,0.807
1575665284.901118,70167.000,11795,2,AY,1,100,0.776
1575665284.942368,70201.667,11812,3,AY,1,100,0.793
1575665284.983618,70236.333,11812,3,AY,1,100,0.784
1575665285.024868,70271.000,11812,3,AY,1,100,0.784
1575665285.066515,70306.000,11830,3,AY,1,100,0.760
1575665285.108162,70341.000,11830,3,AY,1,100,0.784
1575665285.149809,70376.000,11830,3,AY,1,100,0.795
1575665285.187489,70407.667,11848,3,AY,1,100,0.781
1575665285.225169,70439.333,11848,3,AY,1,100,0.773
1575665285.262850,70471.000,11848,3,AY,1,100,0.796
1575665285.301323,70503.333,11864,3,AY,1,100,0.792
1575665285.339797,70535.667,11864,3,AY,1,100,0.780
1575665285.378271,70568.000,11864,3,AY,1,100,0.770
1575665285.418728,70602.000,11882,3,AY,1,100,0.785
1575665285.459184,70636.000,11882,3,AY,1,100,0.780
1575665285.499641,70670.000,11882,3,AY,1,100,0.786
1575665285.541288,70705.000,11900,3,AY,1,100,0.778
1575665285.582935,70740.000,11900,3,AY,1,100,0.806
1575665285.624582,70775.000,11900,3,AY,1,100,0.781
1575665285.669401,70812.667,11918,3,AY,1,100,0.789
1575665285.714221,70850.333,11918,3,AY,1,100,0.781
1575665285.759041,70888.000,11918,3,AY,1,100,0.797
1575665285.796721,70919.667,11936,3,AY,1,100,0.794
1575665285.834402,70951.333,11936,3,AY,1,100,0.797
1575665285.872082,70983.000,11936,3,AY,1,100,0.782
1575665285.909366,71014.333,11955,3,AY,1,100,0.784
1575665285.946650,71045.667,11955,3,AY,1,100,0.783
1575665285.983933,71077.000,11955,3,AY,1,100,0.798
1575665286.025580,71112.000,11973,3,AY,1,100,0.797
1575665286.067227,71147.000,11973,3,AY,1,100,0.781
1575665286.108874,71182.000,11973,3,AY,1,100,0.777
1575665286.150124,71216.667,11991,3,AY,1,100,0.801
1575665286.191374,71251.333,11991,3,AY,1,100,0.795
1575665286.232624,71286.000,11991,3,AY,1,100,0.817
1575665286.273478,71320.333,12008,3,AY,1,100,0.784
1575665286.314331,71354.667,12008,3,AY,1,100,0.769
1575665286.355185,71389.000,12008,3,AY,1,100,0.805
1575665286.393658,71421.333,12026,3,AY,1,100,0.773
1575665286.432132,71453.667,12026,3,AY,1,100,0.753
1575665286.470606,71486.000,12026,3,AY,1,100,0.786
1575665286.511856,71520.667,12044,3,AY,1,100,0.787
1575665286.553106,71555.333,12044,3,AY,1,100,0.810
1575665286.594356,71590.000,12044,3,AY,1,100,0.787
1575665286.632433,71622.000,12060,3,AY,1,100,0.773
1575665286.670510,71654.000,12060,3,AY,1,100,0.784
1575665286.708587,71686.000,12060,3,AY,1,100,0.778
1575665286.749837,71720.667,12078,3,AY,1,100,0.774
1575665286.791087,71755.333,12078,3,AY,1,100,0.812
1575665286.832337,71790.000,12078,3,AY,1,100,0.773
1575665286.872794,71824.000,12097,3,AY,1,100,0.785
1575665286.913251,71858.000,12097,3,AY,1,100,0.774
1575665286.953708,71892.000,12097,3,AY,1,100,0.775
1575665286.994958,71926.667,12115,3,AY,1,100,0.775
1575665287.036208,71961.333,12115,3,AY,1,100,0.800
1575665287.077458,71996.000,12115,3,AY,1,100,0.800
1575665287.119105,72031.000,12133,3,AY,1,100,0.780
1575665287.160752,72066.000,12133,3,AY,1,100,0.760
1575665287.202399,72101.000,12133,3,AY,1,100,0.760
1575665287.240475,72133.000,12151,3,AY,1,100,0.816
1575665287.278553,72165.000,12151,3,AY,1,100,0.798
1575665287.316630,72197.000,12151,3,AY,1,100,0.767
1575665287.355500,72229.667,12169,3,AY,1,100,0.795
1575665287.394370,72262.333,12169,3,AY,1,100,0.778
1575665287.433240,72295.000,12169,3,AY,1,100,0.777
1575665287.473301,72328.667,12186,3,AY,1,100,0.782
1575665287.513361,72362.333,12186,3,AY,1,100,0.776
1575665287.553421,72396.000,12186,3,AY,1,100,0.789
1575665287.593085,72429.333,12204,3,AY,1,100,0.792
1575665287.632748,72462.667,12204,3,AY,1,100,0.755
1575665287.672412,72496.000,12204,3,AY,1,100,0.796
1575665287.712472,72529.667,12222,3,AY,1,100,0.763
1575665287.752532,72563.333,12222,3,AY,1,100,0.801
1575665287.792593,72597.000,12222,3,AY,1,100,0.775
1575665287.838206,72635.333,12239,3,AY,1,100,0.795
1575665287.883819,72673.667,12239,3,AY,1,100,0.768
1575665287.929432,72712.000,12239,3,AY,1,100,0.774
1575665287.970285,72746.333,12257,3,AY,1,100,0.801
1575665288.011139,72780.667,12257,3,AY,1,100,0.778
1575665288.051992,72815.000,12257,3,AY,1,100,0.779
1575665288.090069,72847.000,12275,3,AY,1,100,0.791
1575665288.128146,72879.000,12275,3,AY,1,100,0.768
1575665288.166223,72911.000,12275,3,AY,1,100,0.781
1575665288.203904,72942.667,12293,3,AY,1,100,0.768
1575665288.241584,72974.333,12293,3,AY,1,100,0.781
1575665288.279264,73006.000,12293,3,AY,1,100,0.791
1575665288.319721,73040.000,12311,3,AY,1,100,0.774
1575665288.360178,73074.000,12311,3,AY,1,100,0.801
1575665288.400635,73108.000,12311,3,AY,1,100,0.779
1575665288.441489,73142.333,12329,3,AY,1,100,0.776
1575665288.482342,73176.667,12329,3,AY,1,100,0.774
1575665288.523196,73211.000,12329,3,AY,1,100,0.763
1575665288.564445,73245.667,12347,3,AY,1,100,0.767
1575665288.605696,73280.333,12347,3,AY,1,100,0.782
1575665288.646946,73315.000,12347,3,AY,1,100,0.799
1575665288.690972,73352.000,12364,2,AY,1,100,0.800
1575665288.734999,73389.000,12364,2,AY,1,100,0.767
1575665288.773373,73421.250,12383,4,AY,1,100,0.779
1575665288.811748,73453.500,12383,4,AY,1,100,0.761
1575665288.850122,73485.750,12383,4,AY,1,100,0.757
1575665288.888497,73518.000,12383,4,AY,1,100,0.742
1575665288.928557,73551.667,12401,3,AY,1,100,0.806
1575665288.968617,73585.333,12401,3,AY,1,100,0.782
1575665289.008677,73619.000,12401,3,AY,1,100,0.797
1575665289.050324,73654.000,12417,3,AY,1,100,0.764
1575665289.091971,73689.000,12417,3,AY,1,100,0.757
1575665289.133618,73724.000,12417,3,AY,1,100,0.754
1575665289.174868,73758.667,12435,3,AY,1,100,0.762
1575665289.216118,73793.333,12435,3,AY,1,100,0.806
1575665289.257368,73828.000,12435,3,AY,1,100,0.791
1575665289.297230,73861.500,12453,2,AY,1,100,0.770
1575665289.337092,73895.000,12453,2,AY,1,100,0.768
1575665289.374574,73926.500,12471,4,AY,1,100,0.750
1575665289.412056,73958.000,12471,4,AY,1,100,0.781
1575665289.449538,73989.500,12471,4,AY,1,100,0.782
1575665289.487020,74021.000,12471,4,AY,1,100,0.781
1575665289.527477,74055.000,12489,2,AY,1,100,0.761
1575665289.567934,74089.000,12489,2,AY,1,100,0.758
1575665289.612754,74126.667,12507,3,AY,1,100,0.773
1575665289.657574,74164.333,12507,3,AY,1,100,0.770
1575665289.702394,74202.000,12507,3,AY,1,100,0.771
1575665289.743247,74236.333,12525,3,AY,1,100,0.757
1575665289.784101,74270.667,12525,3,AY,1,100,0.772
1575665289.824954,74305.000,12525,3,AY,1,100,0.784
1575665289.864221,74338.000,12544,3,AY,1,100,0.772
1575665289.903488,74371.000,12544,3,AY,1,100,0.781
1575665289.942755,74404.000,12544,3,AY,1,100,0.769
1575665289.980594,74435.800,12565,5,AY,1,100,0.765
1575665290.018433,74467.600,12565,5,AY,1,100,0.766
1575665290.056272,74499.400,12565,5,AY,1,100,0.776
1575665290.094111,74531.200,12565,5,AY,1,100,0.774
1575665290.131950,74563.000,12565,5,AY,1,100,0.767
1575665290.173597,74598.000,12585,3,AY,1,100,0.770
1575665290.215244,74633.000,12585,3,AY,1,100,0.762
1575665290.256890,74668.000,12585,3,AY,1,100,0.781
1575665290.301313,74705.333,12603,3,AY,1,100,0.775
1575665290.345737,74742.667,12603,3,AY,1,100,0.777
1575665290.390160,74780.000,12603,3,AY,1,100,0.771
1575665290.428633,74812.333,12621,3,AY,1,100,0.748
1575665290.467107,74844.667,12621,3,AY,1,100,0.793
1575665290.505581,74877.000,12621,3,AY,1,100,0.759
1575665290.546434,74911.333,12639,3,AY,1,100,0.774
1575665290.587288,74945.667,12639,3,AY,1,100,0.768
1575665290.628141,74980.000,12639,3,AY,1,100,0.768
1575665290.672961,75017.667,12656,3,AY,1,100,0.777
1575665290.717781,75055.333,12656,3,AY,1,100,0.774
1575665290.762601,75093.000,12656,3,AY,1,100,0.774
1575665290.801075,75125.333,12674,3,AY,1,100,0.795
1575665290.839548,75157.667,12674,3,AY,1,100,0.763
1575665290.878022,75190.000,12674,3,AY,1,100,0.789
1575665290.916099,75222.000,12693,3,AY,1,100,0.765
1575665290.954176,75254.000,12693,3,AY,1,100,0.781
1575665290.992253,75286.000,12693,3,AY,1,100,0.782
1575665291.032710,75320.000,12709,3,AY,1,100,0.764
1575665291.073167,75354.000,12709,3,AY,1,100,0.763
1575665291.113623,75388.000,12709,3,AY,1,100,0.762
1575665291.155270,75423.000,12727,3,AY,1,100,0.760
1575665291.196917,75458.000,12727,3,AY,1,100,0.771
1575665291.238564,75493.000,12727,3,AY,1,100,0.770
1575665291.280607,75528.333,12745,3,AY,1,100,0.776
1575665291.322650,75563.667,12745,3,AY,1,100,0.773
1575665291.364694,75599.000,12745,3,AY,1,100,0.784
1575665291.403167,75631.333,12763,3,AY,1,100,0.764
1575665291.441641,75663.667,12763,3,AY,1,100,0.761
1575665291.480115,75696.000,12763,3,AY,1,100,0.784
1575665291.521762,75731.000,12781,3,AY,1,100,0.771
1575665291.563408,75766.000,12781,3,AY,1,100,0.804
1575665291.605055,75801.000,12781,3,AY,1,100,0.767
1575665291.645512,75835.000,12799,3,AY,1,100,0.761
1575665291.685969,75869.000,12799,3,AY,1,100,0.768
1575665291.726426,75903.000,12799,3,AY,1,100,0.781
1575665291.768072,75938.000,12816,2,AY,1,100,0.777
1575665291.809719,75973.000,12816,2,AY,1,100,0.776
1575665291.850573,76007.333,12835,3,AY,1,100,0.765
1575665291.891426,76041.667,12835,3,AY,1,100,0.785
1575665291.932280,76076.000,12835,3,AY,1,100,0.774
1575665291.970952,76108.500,12853,4,AY,1,100,0.766
1575665292.009624,76141.000,12853,4,AY,1,100,0.782
1575665292.048295,76173.500,12853,4,AY,1,100,0.755
1575665292.086967,76206.000,12853,4,AY,1,100,0.796
1575665292.125441,76238.333,12871,3,AY,1,100,0.780
1575665292.163915,76270.667,12871,3,AY,1,100,0.765
1575665292.202389,76303.000,12871,3,AY,1,100,0.773
1575665292.242250,76336.500,12887,2,AY,1,100,0.795
1575665292.282112,76370.000,12887,2,AY,1,100,0.771
1575665292.326932,76407.667,12905,3,AY,1,100,0.796
1575665292.371752,76445.333,12905,3,AY,1,100,0.796
1575665292.416572,76483.000,12905,3,AY,1,100,0.763
1575665292.458219,76518.000,12923,3,AY,1,100,0.749
1575665292.499865,76553.000,12923,3,AY,1,100,0.783
1575665292.541512,76588.000,12923,3,AY,1,100,0.772
1575665292.581572,76621.667,12941,3,AY,1,100,0.763
1575665292.621632,76655.333,12941,3,AY,1,100,0.772
1575665292.661693,76689.000,12941,3,AY,1,100,0.771
1575665292.699472,76720.750,12959,4,AY,1,100,0.781
1575665292.737252,76752.500,12959,4,AY,1,100,0.781
1575665292.775031,76784.250,12959,4,AY,1,100,0.768
1575665292.812811,76816.000,12959,4,AY,1,100,0.768
1575665292.852673,76849.500,12978,2,AY,1,100,0.767
1575665292.892535,76883.000,12978,2,AY,1,100,0.769
1575665292.933388,76917.333,12996,3,AY,1,100,0.771
1575665292.974241,76951.667,12996,3,AY,1,100,0.772
1575665293.015095,76986.000,12996,3,AY,1,100,0.761
1575665293.059915,77023.667,13013,3,AY,1,100,0.773
1575665293.104735,77061.333,13013,3,AY,1,100,0.781
1575665293.149554,77099.000,13013,3,AY,1,100,0.772
1575665293.190408,77133.333,13031,3,AY,1,100,0.778
1575665293.231261,77167.667,13031,3,AY,1,100,0.772
1575665293.272115,77202.000,13031,3,AY,1,100,0.760
1575665293.309002,77233.000,13049,3,AY,1,100,0.789
1575665293.345889,77264.000,13049,3,AY,1,100,0.765
1575665293.382776,77295.000,13049,3,AY,1,100,0.775
1575665293.422043,77328.000,13065,3,AY,1,100,0.762
1575665293.461310,77361.000,13065,3,AY,1,100,0.777
1575665293.500577,77394.000,13065,3,AY,1,100,0.792
1575665293.540637,77427.667,13083,3,AY,1,100,0.783
1575665293.580698,77461.333,13083,3,AY,1,100,0.774
1575665293.620758,77495.000,13083,3,AY,1,100,0.756
1575665293.662008,77529.667,13101,3,AY,1,100,0.791
1575665293.703258,77564.333,13101,3,AY,1,100,0.747
1575665293.744508,77599.000,13101,3,AY,1,100,0.790
1575665293.786551,77634.333,13120,3,AY,1,100,0.787
1575665293.828595,77669.667,13120,3,AY,1,100,0.756
1575665293.870638,77705.000,13120,3,AY,1,100,0.777
1575665293.911095,77739.000,13138,3,AY,1,100,0.774
1575665293.951552,77773.000,13138,3,AY,1,100,0.765
1575665293.992009,77807.000,13138,3,AY,1,100,0.764
1575665294.028103,77837.333,13156,3,AY,1,100,0.789
1575665294.064197,77867.667,13156,3,AY,1,100,0.781
1575665294.100291,77898.000,13156,3,AY,1,100,0.754
1575665294.137574,77929.333,13174,3,AY,1,100,0.792
1575665294.174858,77960.667,13174,3,AY,1,100,0.768
1575665294.212142,77992.000,13174,3,AY,1,100,0.771
1575665294.250516,78024.250,13192,4,AY,1,100,0.784
1575665294.288891,78056.500,13192,4,AY,1,100,0.762
1575665294.327265,78088.750,13192,4,AY,1,100,0.794
1575665294.365640,78121.000,13192,4,AY,1,100,0.771
1575665294.407286,78156.000,13210,3,AY,1,100,0.773
1575665294.448933,78191.000,13210,3,AY,1,100,0.782
1575665294.490580,78226.000,13210,3,AY,1,100,0.770
1575665294.531037,78260.000,13227,3,AY,1,100,0.769
1575665294.571494,78294.000,13227,3,AY,1,100,0.778
1575665294.611951,78328.000,13227,3,AY,1,100,0.773
1575665294.653002,78362.500,13245,2,AY,1,100,0.769
1575665294.694054,78397.000,13245,2,AY,1,100,0.757
1575665294.735304,78431.667,13261,3,AY,1,100,0.791
1575665294.776554,78466.333,13261,3,AY,1,100,0.761
1575665294.817805,78501.000,13261,3,AY,1,100,0.785
1575665294.857865,78534.667,13280,3,AY,1,100,0.765
1575665294.897925,78568.333,13280,3,AY,1,100,0.775
1575665294.937985,78602.000,13280,3,AY,1,100,0.781
1575665294.976062,78634.000,13298,4,AY,1,100,0.774
1575665295.014139,78666.000,13298,4,AY,1,100,0.780
1575665295.052216,78698.000,13298,4,AY,1,100,0.768
1575665295.090293,78730.000,13298,4,AY,1,100,0.761
1575665295.130353,78763.667,13316,3,AY,1,100,0.774
1575665295.170414,78797.333,13316,3,AY,1,100,0.776
1575665295.210474,78831.000,13316,3,AY,1,100,0.783
1575665295.251526,78865.500,13334,2,AY,1,100,0.774
1575665295.292578,78900.000,13334,2,AY,1,100,0.774
1575665295.337397,78937.667,13352,3,AY,1,100,0.778
1575665295.382217,78975.333,13352,3,AY,1,100,0.772
1575665295.427037,79013.000,13352,3,AY,1,100,0.783
1575665295.467891,79047.333,13370,3,AY,1,100,0.777
1575665295.508744,79081.667,13370,3,AY,1,100,0.773
1575665295.549598,79116.000,13370,3,AY,1,100,0.779
1575665295.587278,79147.667,13388,3,AY,1,100,0.773
1575665295.624958,79179.333,13388,3,AY,1,100,0.762
1575665295.662639,79211.000,13388,3,AY,1,100,0.773
1575665295.701509,79243.667,13405,3,AY,1,100,0.785
1575665295.740379,79276.333,13405,3,AY,1,100,0.788
1575665295.779249,79309.000,13405,3,AY,1,100,0.747
1575665295.819706,79343.000,13424,3,AY,1,100,0.796
1575665295.860163,79377.000,13424,3,AY,1,100,0.789
1575665295.900620,79411.000,13424,3,AY,1,100,0.745
1575665295.941870,79445.667,13440,3,AY,1,100,0.769
1575665295.983120,79480.333,13440,3,AY,1,100,0.783
1575665296.024370,79515.000,13440,3,AY,1,100,0.771
1575665296.066493,79550.400,13461,5,AY,1,100,0.776
1575665296.108616,79585.800,13461,5,AY,1,100,0.778
1575665296.150738,79621.200,13461,5,AY,1,100,0.778
1575665296.192861,79656.600,13461,5,AY,1,100,0.770
1575665296.234984,79692.000,13461,5,AY,1,100,0.769
1575665296.273061,79724.000,13481,3,AY,1,100,0.781
1575665296.311138,79756.000,13481,3,AY,1,100,0.753
1575665296.349215,79788.000,13481,3,AY,1,100,0.760
1575665296.389672,79822.000,13498,3,AY,1,100,0.768
1575665296.430129,79856.000,13498,3,AY,1,100,0.777
1575665296.470586,79890.000,13498,3,AY,1,100,0.797
1575665296.512232,79925.000,13516,3,AY,1,100,0.774
1575665296.553879,79960.000,13516,3,AY,1,100,0.796
1575665296.595526,79995.000,13516,3,AY,1,100,0.770
1575665296.637172,80030.000,13532,3,AY,1,100,0.762
1575665296.678819,80065.000,13532,3,AY,1,100,0.783
1575665296.720466,80100.000,13532,3,AY,1,100,0.779
1575665296.759336,80132.667,13550,3,AY,1,100,0.771
1575665296.798207,80165.333,13550,3,AY,1,100,0.779
1575665296.837077,80198.000,13550,3,AY,1,100,0.778
1575665296.875154,80230.000,13569,3,AY,1,100,0.767
1575665296.913231,80262.000,13569,3,AY,1,100,0.775
1575665296.951308,80294.000,13569,3,AY,1,100,0.781
1575665296.997715,80333.000,13587,2,AY,1,100,0.768
1575665297.044121,80372.000,13587,2,AY,1,100,0.778
1575665297.084578,80406.000,13605,3,AY,1,100,0.776
1575665297.125035,80440.000,13605,3,AY,1,100,0.787
1575665297.165491,80474.000,13605,3,AY,1,100,0.780
1575665297.206742,80508.667,13623,3,AY,1,100,0.780
1575665297.247992,80543.333,13623,3,AY,1,100,0.792
1575665297.289242,80578.000,13623,3,AY,1,100,0.784
1575665297.330095,80612.333,13641,3,AY,1,100,0.775
1575665297.370949,80646.667,13641,3,AY,1,100,0.778
1575665297.411802,80681.000,13641,3,AY,1,100,0.774
1575665297.448987,80712.250,13659,4,AY,1,100,0.800
1575665297.486171,80743.500,13659,4,AY,1,100,0.766
1575665297.523356,80774.750,13659,4,AY,1,100,0.806
1575665297.560540,80806.000,13659,4,AY,1,100,0.807
1575665297.600997,80840.000,13676,3,AY,1,100,0.758
1575665297.641454,80874.000,13676,3,AY,1,100,0.774
1575665297.681911,80908.000,13676,3,AY,1,100,0.785
1575665297.722368,80942.000,13694,2,AY,1,100,0.759
1575665297.762825,80976.000,13694,2,AY,1,100,0.807
1575665297.805265,81011.667,13711,3,AY,1,100,0.783
1575665297.847705,81047.333,13711,3,AY,1,100,0.727
1575665297.890145,81083.000,13711,3,AY,1,100,0.744
1575665297.930998,81117.333,13729,3,AY,1,100,0.784
1575665297.971852,81151.667,13729,3,AY,1,100,0.709
1575665298.012705,81186.000,13729,3,AY,1,100,0.720
1575665298.057525,81223.667,13747,3,AY,1,100,0.728
1575665298.102345,81261.333,13747,3,AY,1,100,0.718
1575665298.147165,81299.000,13747,3,AY,1,100,0.772
1575665298.186828,81332.333,13765,3,AY,1,100,0.737
1575665298.226492,81365.667,13765,3,AY,1,100,0.717
1575665298.266155,81399.000,13765,3,AY,1,100,0.746
1575665298.308199,81434.333,13783,3,AY,1,100,0.743
1575665298.350242,81469.667,13783,3,AY,1,100,0.731
1575665298.392286,81505.000,13783,3,AY,1,100,0.760
1575665298.431553,81538.000,13801,3,AY,1,100,0.762
1575665298.470819,81571.000,13801,3,AY,1,100,0.696
1575665298.510087,81604.000,13801,3,AY,1,100,0.666
1575665298.548163,81636.000,13819,3,AY,1,100,0.643
1575665298.586241,81668.000,13819,3,AY,1,100,0.661
1575665298.624318,81700.000,13819,3,AY,1,100,0.691
1575665298.663584,81733.000,13837,3,AY,1,100,0.727
1575665298.702852,81766.000,13837,3,AY,1,100,0.687
1575665298.742118,81799.000,13837,3,AY,1,100,0.744
1575665298.783765,81834.000,13855,3,AY,1,100,0.674
1575665298.825412,81869.000,13855,3,AY,1,100,0.616
1575665298.867059,81904.000,13855,3,AY,1,100,0.603
1575665298.907912,81938.333,13873,3,AY,1,100,0.659
1575665298.948766,81972.667,13873,3,AY,1,100,0.641
1575665298.989619,82007.000,13873,3,AY,1,100,0.633
1575665299.029679,82040.667,13889,3,AY,1,100,0.587
1575665299.069740,82074.333,13889,3,AY,1,100,0.641
1575665299.109800,82108.000,13889,3,AY,1,100,0.592
1575665299.151050,82142.667,13907,3,AY,1,100,0.560
1575665299.192300,82177.333,13907,3,AY,1,100,0.567
1575665299.233550,82212.000,13907,3,AY,1,100,0.674
1575665299.273214,82245.333,13925,3,AY,1,100,0.744
1575665299.312877,82278.667,13925,3,AY,1,100,0.626
1575665299.352541,82312.000,13925,3,AY,1,100,0.628
1575665299.392601,82345.667,13943,3,AY,1,100,0.732
1575665299.432661,82379.333,13943,3,AY,1,100,0.639
1575665299.472721,82413.000,13943,3,AY,1,100,0.618
1575665299.514368,82448.000,13961,3,AY,1,100,0.698
1575665299.556015,82483.000,13961,3,AY,1,100,0.664
1575665299.597662,82518.000,13961,3,AY,1,100,0.698
1575665299.638119,82552.000,13979,3,AY,1,100,0.667
1575665299.678575,82586.000,13979,3,AY,1,100,0.708
1575665299.719032,82620.000,13979,3,AY,1,100,0.746
1575665299.756713,82651.667,13997,3,AY,1,100,0.679
1575665299.794393,82683.333,13997,3,AY,1,100,0.676
1575665299.832073,82715.000,13997,3,AY,1,100,0.645
1575665299.870944,82747.667,14016,3,AY,1,100,0.654
1575665299.909814,82780.333,14016,3,AY,1,100,0.725
1575665299.948684,82813.000,14016,3,AY,1,100,0.493
1575665299.993108,82850.333,14033,3,AY,1,100,0.604
1575665300.037531,82887.667,14033,3,AY,1,100,0.707
1575665300.081954,82925.000,14033,3,AY,1,100,0.766
1575665300.123204,82959.667,14051,3,AY,1,100,0.685
1575665300.164454,82994.333,14051,3,AY,1,100,0.577
1575665300.205704,83029.000,14051,3,AY,1,100,0.571
1575665300.247351,83064.000,14067,2,AY,1,100,0.639
1575665300.288998,83099.000,14067,2,AY,1,100,0.595
1575665300.327372,83131.250,14085,4,AY,1,100,0.728
1575665300.365747,83163.500,14085,4,AY,1,100,0.715
1575665300.404121,83195.750,14085,4,AY,1,100,0.669
1575665300.442496,83228.000,14085,4,AY,1,100,0.705
1575665300.481366,83260.667,14103,3,AY,1,100,0.702
1575665300.520236,83293.333,14103,3,AY,1,100,0.699
1575665300.559107,83326.000,14103,3,AY,1,100,0.483
1575665300.599564,83360.000,14121,3,AY,1,100,0.641
1575665300.640020,83394.000,14121,3,AY,1,100,0.483
1575665300.680477,83428.000,14121,3,AY,1,100,0.752
1575665300.722124,83463.000,14139,2,AY,1,100,0.785
1575665300.763771,83498.000,14139,2,AY,1,100,0.711
1575665300.808590,83535.667,14158,3,AY,1,100,0.663
1575665300.853410,83573.333,14158,3,AY,1,100,0.617
1575665300.898230,83611.000,14158,3,AY,1,100,0.570
1575665300.936307,83643.000,14176,3,AY,1,100,0.671
1575665300.974384,83675.000,14176,3,AY,1,100,0.498
1575665301.012461,83707.000,14176,3,AY,1,100,0.693
1575665301.050538,83739.000,14194,4,AY,1,100,0.717
1575665301.088615,83771.000,14194,4,AY,1,100,0.771
1575665301.126692,83803.000,14194,4,AY,1,100,0.583
1575665301.164769,83835.000,14194,4,AY,1,100,0.629
1575665301.207011,83870.500,14211,2,AY,1,100,0.498
1575665301.249253,83906.000,14211,2,AY,1,100,0.629
1575665301.290106,83940.333,14229,3,AY,1,100,0.705
1575665301.330960,83974.667,14229,3,AY,1,100,0.648
1575665301.371813,84009.000,14229,3,AY,1,100,0.639
1575665301.413063,84043.667,14245,3,AY,1,100,0.637
1575665301.454314,84078.333,14245,3,AY,1,100,0.635
1575665301.495564,84113.000,14245,3,AY,1,100,0.627
1575665301.534831,84146.000,14263,3,AY,1,100,0.695
1575665301.574097,84179.000,14263,3,AY,1,100,0.633
1575665301.613364,84212.000,14263,3,AY,1,100,0.632
1575665301.654614,84246.667,14281,3,AY,1,100,0.616
1575665301.695865,84281.333,14281,3,AY,1,100,0.648
1575665301.737115,84316.000,14281,3,AY,1,100,0.604
1575665301.775192,84348.000,14300,4,AY,1,100,0.709
1575665301.813269,84380.000,14300,4,AY,1,100,0.638
1575665301.851346,84412.000,14300,4,AY,1,100,0.613
1575665301.889423,84444.000,14300,4,AY,1,100,0.647
1575665301.931070,84479.000,14318,2,AY,1,100,0.580
1575665301.972716,84514.000,14318,2,AY,1,100,0.700
1575665302.010496,84545.750,14336,4,AY,1,100,0.650
1575665302.048275,84577.500,14336,4,AY,1,100,0.647
1575665302.086055,84609.250,14336,4,AY,1,100,0.671
1575665302.123835,84641.000,14336,4,AY,1,100,0.664
1575665302.166374,84676.750,14357,4,AY,1,100,0.624
1575665302.208913,84712.500,14357,4,AY,1,100,0.707
1575665302.251452,84748.250,14357,4,AY,1,100,0.762
1575665302.293991,84784.000,14357,4,AY,1,100,0.663
1575665302.335638,84819.000,14375,3,AY,1,100,0.688
1575665302.377285,84854.000,14375,3,AY,1,100,0.634
1575665302.418931,84889.000,14375,3,AY,1,100,0.691
1575665302.460578,84924.000,14393,3,AY,1,100,0.677
1575665302.502225,84959.000,14393,3,AY,1,100,0.646
1575665302.543872,84994.000,14393,3,AY,1,100,0.665
1575665302.583535,85027.333,14411,3,AY,1,100,0.692
1575665302.623199,85060.667,14411,3,AY,1,100,0.654
1575665302.662863,85094.000,14411,3,AY,1,100,0.703
1575665302.700543,85125.667,14429,3,AY,1,100,0.662
1575665302.738223,85157.333,14429,3,AY,1,100,0.584
1575665302.775904,85189.000,14429,3,AY,1,100,0.599
1575665302.815171,85222.000,14448,3,AY,1,100,0.666
1575665302.854438,85255.000,14448,3,AY,1,100,0.648
1575665302.893705,85288.000,14448,3,AY,1,100,0.662
1575665302.938524,85325.667,14466,3,AY,1,100,0.646
1575665302.983344,85363.333,14466,3,AY,1,100,0.653
1575665303.028164,85401.000,14466,3,AY,1,100,0.631
1575665303.069811,85436.000,14483,3,AY,1,100,0.611
1575665303.111458,85471.000,14483,3,AY,1,100,0.635
1575665303.153104,85506.000,14483,3,AY,1,100,0.654
1575665303.191975,85538.667,14501,3,AY,1,100,0.681
1575665303.230845,85571.333,14501,3,AY,1,100,0.658
1575665303.269715,85604.000,14501,3,AY,1,100,0.693
1575665303.308189,85636.333,14519,3,AY,1,100,0.681
1575665303.346663,85668.667,14519,3,AY,1,100,0.672
1575665303.385136,85701.000,14519,3,AY,1,100,0.706
1575665303.424006,85733.667,14537,3,AY,1,100,0.749
1575665303.462877,85766.333,14537,3,AY,1,100,0.752
1575665303.501747,85799.000,14537,3,AY,1,100,0.765
1575665303.541807,85832.667,14553,3,AY,1,100,0.757
1575665303.581867,85866.333,14553,3,AY,1,100,0.662
1575665303.621928,85900.000,14553,3,AY,1,100,0.714
1575665303.663178,85934.667,14571,3,AY,1,100,0.723
1575665303.704428,85969.333,14571,3,AY,1,100,0.794
1575665303.745678,86004.000,14571,3,AY,1,100,0.674
1575665303.788911,86040.333,14590,3,AY,1,100,0.688
1575665303.832145,86076.667,14590,3,AY,1,100,0.792
1575665303.875378,86113.000,14590,3,AY,1,100,0.848
1575665303.913455,86145.000,14608,3,AY,1,100,0.875
1575665303.951532,86177.000,14608,3,AY,1,100,0.749
1575665303.989609,86209.000,14608,3,AY,1,100,0.754
1575665304.029273,86242.333,14626,3,AY,1,100,0.760
1575665304.068936,86275.667,14626,3,AY,1,100,0.791
1575665304.108600,86309.000,14626,3,AY,1,100,0.714
1575665304.149850,86343.667,14644,3,AY,1,100,0.817
1575665304.191100,86378.333,14644,3,AY,1,100,0.871
1575665304.232350,86413.000,14644,3,AY,1,100,0.743
1575665304.273600,86447.667,14662,3,AY,1,100,0.665
1575665304.314850,86482.333,14662,3,AY,1,100,0.799
1575665304.356101,86517.000,14662,3,AY,1,100,0.840
1575665304.396557,86551.000,14679,3,AY,1,100,0.744
1575665304.437014,86585.000,14679,3,AY,1,100,0.784
1575665304.477471,86619.000,14679,3,AY,1,100,0.714
1575665304.515152,86650.667,14697,3,AY,1,100,0.821
1575665304.552832,86682.333,14697,3,AY,1,100,0.835
1575665304.590512,86714.000,14697,3,AY,1,100,0.818
1575665304.632952,86749.667,14715,3,AY,1,100,0.802
1575665304.675392,86785.333,14715,3,AY,1,100,0.749
1575665304.717832,86821.000,14715,3,AY,1,100,0.868
1575665304.759479,86856.000,14731,3,AY,1,100,0.891
1575665304.801126,86891.000,14731,3,AY,1,100,0.873
1575665304.842772,86926.000,14731,3,AY,1,100,0.857
1575665304.883626,86960.333,14750,3,AY,1,100,0.788
1575665304.924479,86994.667,14750,3,AY,1,100,0.806
1575665304.965333,87029.000,14750,3,AY,1,100,0.736
1575665305.006980,87064.000,14768,2,AY,1,100,0.873
1575665305.048626,87099.000,14768,2,AY,1,100,0.912
1575665305.086406,87130.750,14786,4,AY,1,100,0.821
1575665305.124186,87162.500,14786,4,AY,1,100,0.860
1575665305.161965,87194.250,14786,4,AY,1,100,0.788
1575665305.199745,87226.000,14786,4,AY,1,100,0.729
1575665305.238218,87258.333,14804,3,AY,1,100,0.802
1575665305.276692,87290.667,14804,3,AY,1,100,0.814
1575665305.315166,87323.000,14804,3,AY,1,100,0.812
1575665305.356812,87358.000,14822,3,AY,1,100,0.791
1575665305.398459,87393.000,14822,3,AY,1,100,0.829
1575665305.440106,87428.000,14822,3,AY,1,100,0.874
1575665305.486512,87467.000,14840,2,AY,1,100,0.898
1575665305.532919,87506.000,14840,2,AY,1,100,0.872
1575665305.574169,87540.667,14857,3,AY,1,100,0.776
1575665305.615419,87575.333,14857,3,AY,1,100,0.799
1575665305.656669,87610.000,14857,3,AY,1,100,0.825
1575665305.698316,87645.000,14875,3,AY,1,100,0.850
1575665305.739963,87680.000,14875,3,AY,1,100,0.804
1575665305.781609,87715.000,14875,3,AY,1,100,0.884
1575665305.823256,87750.000,14892,3,AY,1,100,0.978
1575665305.864903,87785.000,14892,3,AY,1,100,0.789
1575665305.906549,87820.000,14892,3,AY,1,100,0.794
1575665305.945023,87852.333,14910,3,AY,1,100,0.754
1575665305.983497,87884.667,14910,3,AY,1,100,0.812
1575665306.021971,87917.000,14910,3,AY,1,100,0.858
1575665306.060048,87949.000,14928,3,AY,1,100,0.883
1575665306.098125,87981.000,14928,3,AY,1,100,0.815
1575665306.136202,88013.000,14928,3,AY,1,100,0.828
1575665306.177452,88047.667,14946,3,AY,1,100,0.870
1575665306.218702,88082.333,14946,3,AY,1,100,0.816
1575665306.259952,88117.000,14946,3,AY,1,100,0.833
1575665306.298822,88149.667,14964,3,AY,1,100,0.826
1575665306.337692,88182.333,14964,3,AY,1,100,0.813
1575665306.376563,88215.000,14964,3,AY,1,100,0.821
1575665306.417416,88249.333,14982,3,AY,1,100,0.772
1575665306.458270,88283.667,14982,3,AY,1,100,0.770
1575665306.499123,88318.000,14982,3,AY,1,100,0.959
1575665306.540770,88353.000,15000,3,AY,1,100,0.884
1575665306.582417,88388.000,15000,3,AY,1,100,0.841
1575665306.624063,88423.000,15000,3,AY,1,100,0.816
1575665306.666107,88458.333,15017,3,AY,1,100,0.721
1575665306.708150,88493.667,15017,3,AY,1,100,0.860
1575665306.750194,88529.000,15017,3,AY,1,100,0.808
1575665306.788667,88561.333,15036,3,AY,1,100,0.668
1575665306.827141,88593.667,15036,3,AY,1,100,0.949
1575665306.865615,88626.000,15036,3,AY,1,100,1.006
1575665306.907261,88661.000,15054,3,AY,1,100,0.648
1575665306.948908,88696.000,15054,3,AY,1,100,0.771
1575665306.990555,88731.000,15054,3,AY,1,100,0.909
1575665307.030615,88764.667,15072,3,AY,1,100,0.893
1575665307.070675,88798.333,15072,3,AY,1,100,0.848
1575665307.110736,88832.000,15072,3,AY,1,100,0.833
1575665307.151986,88866.667,15088,3,AY,1,100,0.749
1575665307.193236,88901.333,15088,3,AY,1,100,0.999
1575665307.234486,88936.000,15088,3,AY,1,100,0.811
1575665307.276529,88971.333,15106,3,AY,1,100,0.815
1575665307.318573,89006.667,15106,3,AY,1,100,0.742
1575665307.360616,89042.000,15106,3,AY,1,100,0.789
1575665307.397900,89073.333,15124,3,AY,1,100,0.875
1575665307.435184,89104.667,15124,3,AY,1,100,0.731
1575665307.472467,89136.000,15124,3,AY,1,100,0.903
1575665307.510941,89168.333,15142,3,AY,1,100,0.905
1575665307.549415,89200.667,15142,3,AY,1,100,0.731
1575665307.587888,89233.000,15142,3,AY,1,100,0.789
1575665307.631518,89269.667,15160,3,AY,1,100,0.828
1575665307.675148,89306.333,15160,3,AY,1,100,0.855
1575665307.718778,89343.000,15160,3,AY,1,100,0.836
1575665307.760425,89378.000,15178,3,AY,1,100,0.886
1575665307.802072,89413.000,15178,3,AY,1,100,0.796
1575665307.843719,89448.000,15178,3,AY,1,100,0.793
1575665307.885365,89483.000,15196,3,AY,1,100,0.805
1575665307.927012,89518.000,15196,3,AY,1,100,0.828
1575665307.968659,89553.000,15196,3,AY,1,100,0.810
1575665308.006736,89585.000,15214,3,AY,1,100,0.823
1575665308.044813,89617.000,15214,3,AY,1,100,0.842
1575665308.082890,89649.000,15214,3,AY,1,100,0.827
1575665308.120967,89681.000,15232,3,AY,1,100,0.844
1575665308.159044,89713.000,15232,3,AY,1,100,0.781
1575665308.197121,89745.000,15232,3,AY,1,100,0.814
1575665308.237816,89779.200,15253,5,AY,1,100,0.795
1575665308.278511,89813.400,15253,5,AY,1,100,0.747
1575665308.319205,89847.600,15253,5,AY,1,100,0.773
1575665308.359900,89881.800,15253,5,AY,1,100,0.821
1575665308.400595,89916.000,15253,5,AY,1,100,0.844
1575665308.441647,89950.500,15273,2,AY,1,100,0.796
1575665308.482699,89985.000,15273,2,AY,1,100,0.770
1575665308.527915,90023.000,15291,3,AY,1,100,0.828
1575665308.573132,90061.000,15291,3,AY,1,100,0.836
1575665308.618348,90099.000,15291,3,AY,1,100,0.807
1575665308.654442,90129.333,15309,3,AY,1,100,0.836
1575665308.690536,90159.667,15309,3,AY,1,100,0.751
1575665308.726629,90190.000,15309,3,AY,1,100,0.783
1575665308.765897,90223.000,15327,3,AY,1,100,0.790
1575665308.805163,90256.000,15327,3,AY,1,100,0.811
1575665308.844430,90289.000,15327,3,AY,1,100,0.811
1575665308.884490,90322.667,15345,3,AY,1,100,0.805
1575665308.924551,90356.333,15345,3,AY,1,100,0.790
1575665308.964611,90390.000,15345,3,AY,1,100,0.836
1575665309.006258,90425.000,15361,3,AY,1,100,0.805
1575665309.047904,90460.000,15361,3,AY,1,100,0.785
1575665309.089551,90495.000,15361,3,AY,1,100,0.773
1575665309.130801,90529.667,15379,3,AY,1,100,0.867
1575665309.172051,90564.333,15379,3,AY,1,100,0.829
1575665309.213302,90599.000,15379,3,AY,1,100,0.870
1575665309.254155,90633.333,15397,3,AY,1,100,0.859
1575665309.295009,90667.667,15397,3,AY,1,100,0.807
1575665309.335862,90702.000,15397,3,AY,1,100,0.784
1575665309.374732,90734.667,15415,3,AY,1,100,0.787
1575665309.413603,90767.333,15415,3,AY,1,100,0.824
1575665309.452473,90800.000,15415,3,AY,1,100,0.836
1575665309.486980,90829.000,15433,3,AY,1,100,0.821
1575665309.521487,90858.000,15433,3,AY,1,100,0.817
1575665309.555995,90887.000,15433,3,AY,1,100,0.822
1575665309.597344,90921.750,15451,4,AY,1,100,0.811
1575665309.638693,90956.500,15451,4,AY,1,100,0.779
1575665309.680043,90991.250,15451,4,AY,1,100,0.746
1575665309.721392,91026.000,15451,4,AY,1,100,0.798
1575665309.761849,91060.000,15469,2,AY,1,100,0.865
1575665309.802306,91094.000,15469,2,AY,1,100,0.883
1575665309.843556,91128.667,15488,3,AY,1,100,0.799
1575665309.884806,91163.333,15488,3,AY,1,100,0.877
1575665309.926056,91198.000,15488,3,AY,1,100,0.799
1575665309.968099,91233.333,15505,3,AY,1,100,0.746
1575665310.010143,91268.667,15505,3,AY,1,100,0.732
1575665310.052186,91304.000,15505,3,AY,1,100,0.784
1575665310.090263,91336.000,15523,3,AY,1,100,0.907
1575665310.128340,91368.000,15523,3,AY,1,100,0.812
1575665310.166417,91400.000,15523,3,AY,1,100,0.801
1575665310.205387,91432.750,15541,4,AY,1,100,0.792
1575665310.244356,91465.500,15541,4,AY,1,100,0.769
1575665310.283326,91498.250,15541,4,AY,1,100,0.796
1575665310.322295,91531.000,15541,4,AY,1,100,0.861
1575665310.368701,91570.000,15557,2,AY,1,100,0.879
1575665310.415108,91609.000,15557,2,AY,1,100,0.800
1575665310.451995,91640.000,15575,3,AY,1,100,0.732
1575665310.488882,91671.000,15575,3,AY,1,100,0.790
1575665310.525769,91702.000,15575,3,AY,1,100,0.826
1575665310.567019,91736.667,15593,3,AY,1,100,0.793
1575665310.608269,91771.333,15593,3,AY,1,100,0.877
1575665310.649520,91806.000,15593,3,AY,1,100,0.813
1575665310.693943,91843.333,15611,3,AY,1,100,0.701
1575665310.738366,91880.667,15611,3,AY,1,100,0.737
1575665310.782789,91918.000,15611,3,AY,1,100,0.789
1575665310.824039,91952.667,15630,3,AY,1,100,0.775
1575665310.865289,91987.333,15630,3,AY,1,100,0.745
1575665310.906539,92022.000,15630,3,AY,1,100,0.722
1575665310.944220,92053.667,15648,3,AY,1,100,0.787
1575665310.981900,92085.333,15648,3,AY,1,100,0.734
1575665311.019581,92117.000,15648,3,AY,1,100,0.798
1575665311.058451,92149.667,15666,3,AY,1,100,0.704
1575665311.097321,92182.333,15666,3,AY,1,100,0.761
1575665311.136192,92215.000,15666,3,AY,1,100,0.788
1575665311.175855,92248.333,15684,3,AY,1,100,0.721
1575665311.215519,92281.667,15684,3,AY,1,100,0.738
1575665311.255182,92315.000,15684,3,AY,1,100,0.732
1575665311.296432,92349.667,15701,3,AY,1,100,0.734
1575665311.337682,92384.333,15701,3,AY,1,100,0.707
1575665311.378933,92419.000,15701,3,AY,1,100,0.799
1575665311.424546,92457.333,15719,3,AY,1,100,0.775
1575665311.470159,92495.667,15719,3,AY,1,100,0.685
1575665311.515772,92534.000,15719,3,AY,1,100,0.718
1575665311.553452,92565.667,15735,3,AY,1,100,0.691
1575665311.591133,92597.333,15735,3,AY,1,100,0.765
1575665311.628813,92629.000,15735,3,AY,1,100,0.789
1575665311.667683,92661.667,15753,3,AY,1,100,0.697
1575665311.706554,92694.333,15753,3,AY,1,100,0.721
1575665311.745424,92727.000,15753,3,AY,1,100,0.664
1575665311.785088,92760.333,15772,3,AY,1,100,0.834
1575665311.824751,92793.667,15772,3,AY,1,100,0.788
1575665311.864415,92827.000,15772,3,AY,1,100,0.645
1575665311.906062,92862.000,15790,3,AY,1,100,0.688
1575665311.947708,92897.000,15790,3,AY,1,100,0.707
1575665311.989355,92932.000,15790,3,AY,1,100,0.716
1575665312.031002,92967.000,15808,3,AY,1,100,0.725
1575665312.072649,93002.000,15808,3,AY,1,100,0.725
1575665312.114295,93037.000,15808,3,AY,1,100,0.713
1575665312.152769,93069.333,15826,3,AY,1,100,0.689
1575665312.191243,93101.667,15826,3,AY,1,100,0.665
1575665312.229716,93134.000,15826,3,AY,1,100,0.765
1575665312.267793,93166.000,15844,3,AY,1,100,0.755
1575665312.305870,93198.000,15844,3,AY,1,100,0.673
1575665312.343947,93230.000,15844,3,AY,1,100,0.695
1575665312.388767,93267.667,15862,3,AY,1,100,0.689
1575665312.433587,93305.333,15862,3,AY,1,100,0.733
1575665312.478407,93343.000,15862,3,AY,1,100,0.754
1575665312.519657,93377.667,15879,3,AY,1,100,0.720
1575665312.560907,93412.333,15879,3,AY,1,100,0.697
1575665312.602157,93447.000,15879,3,AY,1,100,0.700
1575665312.643011,93481.333,15897,3,AY,1,100,0.742
1575665312.683864,93515.667,15897,3,AY,1,100,0.725
1575665312.724718,93550.000,15897,3,AY,1,100,0.756
1575665312.763191,93582.333,15913,3,AY,1,100,0.707
1575665312.801665,93614.667,15913,3,AY,1,100,0.698
1575665312.840139,93647.000,15913,3,AY,1,100,0.724
1575665312.877026,93678.000,15932,3,AY,1,100,0.781
1575665312.913913,93709.000,15932,3,AY,1,100,0.763
1575665312.950800,93740.000,15932,3,AY,1,100,0.738
1575665312.991653,93774.333,15950,3,AY,1,100,0.663
1575665313.032507,93808.667,15950,3,AY,1,100,0.740
1575665313.073360,93843.000,15950,3,AY,1,100,0.775
1575665313.119172,93881.500,15968,2,AY,1,100,0.727
1575665313.164983,93920.000,15968,2,AY,1,100,0.693
1575665313.204250,93953.000,15986,4,AY,1,100,0.709
1575665313.243517,93986.000,15986,4,AY,1,100,0.692
1575665313.282784,94019.000,15986,4,AY,1,100,0.701
1575665313.322051,94052.000,15986,4,AY,1,100,0.707
1575665313.363103,94086.500,16004,2,AY,1,100,0.729
1575665313.404155,94121.000,16004,2,AY,1,100,0.713
1575665313.449371,94159.000,16022,3,AY,1,100,0.707
1575665313.494588,94197.000,16022,3,AY,1,100,0.694
1575665313.539804,94235.000,16022,3,AY,1,100,0.718
1575665313.580261,94269.000,16039,3,AY,1,100,0.686
1575665313.620718,94303.000,16039,3,AY,1,100,0.700
1575665313.661175,94337.000,16039,3,AY,1,100,0.724
1575665313.698855,94368.667,16057,3,AY,1,100,0.700
1575665313.736536,94400.333,16057,3,AY,1,100,0.712
1575665313.774216,94432.000,16057,3,AY,1,100,0.708
1575665313.813879,94465.333,16076,3,AY,1,100,0.691
1575665313.853543,94498.667,16076,3,AY,1,100,0.752
1575665313.893207,94532.000,16076,3,AY,1,100,0.668
1575665313.934060,94566.333,16092,3,AY,1,100,0.702
1575665313.974914,94600.667,16092,3,AY,1,100,0.713
1575665314.015767,94635.000,16092,3,AY,1,100,0.712
1575665314.056620,94669.333,16110,3,AY,1,100,0.685
1575665314.097474,94703.667,16110,3,AY,1,100,0.710
1575665314.138327,94738.000,16110,3,AY,1,100,0.730
1575665314.179578,94772.667,16128,3,AY,1,100,0.737
1575665314.220828,94807.333,16128,3,AY,1,100,0.730
1575665314.262078,94842.000,16128,3,AY,1,100,0.717
1575665314.301821,94875.400,16149,5,AY,1,100,0.718
1575665314.341563,94908.800,16149,5,AY,1,100,0.732
1575665314.381306,94942.200,16149,5,AY,1,100,0.704
1575665314.421049,94975.600,16149,5,AY,1,100,0.693
1575665314.460792,95009.000,16149,5,AY,1,100,0.750
1575665314.501249,95043.000,16169,3,AY,1,100,0.727
1575665314.541706,95077.000,16169,3,AY,1,100,0.773
1575665314.582163,95111.000,16169,3,AY,1,100,0.763
1575665314.623016,95145.333,16185,3,AY,1,100,0.662
1575665314.663870,95179.667,16185,3,AY,1,100,0.706
1575665314.704723,95214.000,16185,3,AY,1,100,0.756
1575665314.745577,95248.333,16203,3,AY,1,100,0.753
1575665314.786430,95282.667,16203,3,AY,1,100,0.698
1575665314.827284,95317.000,16203,3,AY,1,100,0.690
1575665314.866154,95349.667,16222,3,AY,1,100,0.673
1575665314.905024,95382.333,16222,3,AY,1,100,0.717
1575665314.943895,95415.000,16222,3,AY,1,100,0.721
1575665314.981178,95446.333,16240,3,AY,1,100,0.695
1575665315.018462,95477.667,16240,3,AY,1,100,0.674
1575665315.055746,95509.000,16240,3,AY,1,100,0.700
1575665315.099772,95546.000,16258,3,AY,1,100,0.707
1575665315.143799,95583.000,16258,3,AY,1,100,0.735
1575665315.187826,95620.000,16258,3,AY,1,100,0.703
1575665315.229472,95655.000,16276,3,AY,1,100,0.707
1575665315.271119,95690.000,16276,3,AY,1,100,0.682
1575665315.312766,95725.000,16276,3,AY,1,100,0.683
1575665315.354016,95759.667,16294,3,AY,1,100,0.700
1575665315.395266,95794.333,16294,3,AY,1,100,0.697
1575665315.436516,95829.000,16294,3,AY,1,100,0.641
1575665315.476180,95862.333,16311,3,AY,1,100,0.678
1575665315.515843,95895.667,16311,3,AY,1,100,0.689
1575665315.555507,95929.000,16311,3,AY,1,100,0.720
1575665315.592791,95960.333,16329,3,AY,1,100,0.735
1575665315.630075,95991.667,16329,3,AY,1,100,0.710
1575665315.667358,96023.000,16329,3,AY,1,100,0.690
1575665315.707022,96056.333,16347,3,AY,1,100,0.627
1575665315.746685,96089.667,16347,3,AY,1,100,0.664
1575665315.786349,96123.000,16347,3,AY,1,100,0.707
1575665315.827996,96158.000,16366,3,AY,1,100,0.690
1575665315.869642,96193.000,16366,3,AY,1,100,0.720
1575665315.911289,96228.000,16366,3,AY,1,100,0.678
1575665315.958291,96267.500,16382,2,AY,1,100,0.673
1575665316.005292,96307.000,16382,2,AY,1,100,0.665
1575665316.044955,96340.333,16400,3,AY,1,100,0.651
1575665316.084619,96373.667,16400,3,AY,1,100,0.668
1575665316.124283,96407.000,16400,3,AY,1,100,0.668
1575665316.162062,96438.750,16418,4,AY,1,100,0.676
1575665316.199842,96470.500,16418,4,AY,1,100,0.644
1575665316.237621,96502.250,16418,4,AY,1,100,0.662
1575665316.275401,96534.000,16418,4,AY,1,100,0.686
1575665316.313874,96566.333,16436,3,AY,1,100,0.635
1575665316.352348,96598.667,16436,3,AY,1,100,0.633
1575665316.390822,96631.000,16436,3,AY,1,100,0.674
1575665316.431675,96665.333,16454,3,AY,1,100,0.667
1575665316.472529,96699.667,16454,3,AY,1,100,0.640
1575665316.513382,96734.000,16454,3,AY,1,100,0.633
1575665316.554632,96768.667,16472,3,AY,1,100,0.498
1575665316.595882,96803.333,16472,3,AY,1,100,0.727
1575665316.637132,96838.000,16472,3,AY,1,100,0.667
1575665316.677589,96872.000,16490,2,AY,1,100,0.663
1575665316.718046,96906.000,16490,2,AY,1,100,0.642
1575665316.757908,96939.500,16508,4,AY,1,100,0.591
1575665316.797770,96973.000,16508,4,AY,1,100,0.675
1575665316.837632,97006.500,16508,4,AY,1,100,0.649
1575665316.877494,97040.000,16508,4,AY,1,100,0.667
1575665316.915571,97072.000,16526,3,AY,1,100,0.613
1575665316.953648,97104.000,16526,3,AY,1,100,0.670
1575665316.991725,97136.000,16526,3,AY,1,100,0.663
1575665317.032975,97170.667,16544,3,AY,1,100,0.624
1575665317.074225,97205.333,16544,3,AY,1,100,0.667
1575665317.115475,97240.000,16544,3,AY,1,100,0.638
1575665317.153552,97272.000,16562,3,AY,1,100,0.668
1575665317.191629,97304.000,16562,3,AY,1,100,0.630
1575665317.229706,97336.000,16562,3,AY,1,100,0.608
1575665317.269767,97369.667,16578,3,AY,1,100,0.632
1575665317.309827,97403.333,16578,3,AY,1,100,0.681
1575665317.349887,97437.000,16578,3,AY,1,100,0.569
1575665317.390344,97471.000,16596,3,AY,1,100,0.557
1575665317.430801,97505.000,16596,3,AY,1,100,0.623
1575665317.471257,97539.000,16596,3,AY,1,100,0.676
1575665317.512904,97574.000,16614,3,AY,1,100,0.722
1575665317.554551,97609.000,16614,3,AY,1,100,0.833
1575665317.596198,97644.000,16614,3,AY,1,100,0.814
1575665317.638241,97679.333,16632,3,AY,1,100,0.837
1575665317.680285,97714.667,16632,3,AY,1,100,0.835
1575665317.722328,97750.000,16632,3,AY,1,100,0.815
1575665317.761198,97782.667,16650,3,AY,1,100,0.812
1575665317.800068,97815.333,16650,3,AY,1,100,0.817
1575665317.838939,97848.000,16650,3,AY,1,100,0.821
1575665317.876619,97879.667,16669,3,AY,1,100,0.869
1575665317.914299,97911.333,16669,3,AY,1,100,0.780
1575665317.951980,97943.000,16669,3,AY,1,100,0.829
1575665317.992040,97976.667,16687,3,AY,1,100,0.830
1575665318.032100,98010.333,16687,3,AY,1,100,0.805
1575665318.072160,98044.000,16687,3,AY,1,100,0.852
1575665318.119757,98084.000,16704,2,AY,1,100,0.803
1575665318.167353,98124.000,16704,2,AY,1,100,0.854
1575665318.208603,98158.667,16722,3,AY,1,100,0.818
1575665318.249853,98193.333,16722,3,AY,1,100,0.826
1575665318.291104,98228.000,16722,3,AY,1,100,0.798
1575665318.331164,98261.667,16739,3,AY,1,100,0.830
1575665318.371224,98295.333,16739,3,AY,1,100,0.809
1575665318.411284,98329.000,16739,3,AY,1,100,0.845
1575665318.449361,98361.000,16756,3,AY,1,100,0.869
1575665318.487438,98393.000,16756,3,AY,1,100,0.828
1575665318.525515,98425.000,16756,3,AY,1,100,0.817
1575665318.564485,98457.750,16774,4,AY,1,100,0.833
1575665318.603454,98490.500,16774,4,AY,1,100,0.799
1575665318.642424,98523.250,16774,4,AY,1,100,0.812
1575665318.681393,98556.000,16774,4,AY,1,100,0.818
1575665318.721850,98590.000,16792,3,AY,1,100,0.826
1575665318.762307,98624.000,16792,3,AY,1,100,0.802
1575665318.802764,98658.000,16792,3,AY,1,100,0.795
1575665318.843815,98692.500,16811,2,AY,1,100,0.824
1575665318.884867,98727.000,16811,2,AY,1,100,0.815
1575665318.929687,98764.667,16829,3,AY,1,100,0.810
1575665318.974507,98802.333,16829,3,AY,1,100,0.800
1575665319.019327,98840.000,16829,3,AY,1,100,0.781
1575665319.057404,98872.000,16847,3,AY,1,100,0.785
1575665319.095481,98904.000,16847,3,AY,1,100,0.803
1575665319.133558,98936.000,16847,3,AY,1,100,0.833
1575665319.172031,98968.333,16865,3,AY,1,100,0.827
1575665319.210505,99000.667,16865,3,AY,1,100,0.822
1575665319.248979,99033.000,16865,3,AY,1,100,0.787
1575665319.289436,99067.000,16883,3,AY,1,100,0.824
1575665319.329892,99101.000,16883,3,AY,1,100,0.792
1575665319.370349,99135.000,16883,3,AY,1,100,0.809
1575665319.411996,99170.000,16900,3,AY,1,100,0.825
1575665319.453643,99205.000,16900,3,AY,1,100,0.793
1575665319.495290,99240.000,16900,3,AY,1,100,0.844
1575665319.536936,99275.000,16918,3,AY,1,100,0.833
1575665319.578583,99310.000,16918,3,AY,1,100,0.773
1575665319.620230,99345.000,16918,3,AY,1,100,0.841
1575665319.658307,99377.000,16935,3,AY,1,100,0.794
1575665319.696384,99409.000,16935,3,AY,1,100,0.804
1575665319.734461,99441.000,16935,3,AY,1,100,0.786
1575665319.776901,99476.667,16953,3,AY,1,100,0.793
1575665319.819341,99512.333,16953,3,AY,1,100,0.779
1575665319.861781,99548.000,16953,3,AY,1,100,0.802
1575665319.902238,99582.000,16971,3,AY,1,100,0.828
1575665319.942695,99616.000,16971,3,AY,1,100,0.784
1575665319.983151,99650.000,16971,3,AY,1,100,0.752
1575665320.024402,99684.667,16989,3,AY,1,100,0.804
1575665320.065652,99719.333,16989,3,AY,1,100,0.794
1575665320.106902,99754.000,16989,3,AY,1,100,0.787
1575665320.148549,99789.000,17007,3,AY,1,100,0.794
1575665320.190195,99824.000,17007,3,AY,1,100,0.784
1575665320.231842,99859.000,17007,3,AY,1,100,0.792
1575665320.268729,99890.000,17025,3,AY,1,100,0.826
1575665320.305616,99921.000,17025,3,AY,1,100,0.783
1575665320.342504,99952.000,17025,3,AY,1,100,0.768
1575665320.381294,99984.600,17046,5,AY,1,100,0.768
1575665320.420085,100017.200,17046,5,AY,1,100,0.784
1575665320.458876,100049.800,17046,5,AY,1,100,0.823
1575665320.497667,100082.400,17046,5,AY,1,100,0.806
1575665320.536458,100115.000,17046,5,AY,1,100,0.833
1575665320.578105,100150.000,17065,3,AY,1,100,0.769
1575665320.619752,100185.000,17065,3,AY,1,100,0.816
1575665320.661399,100220.000,17065,3,AY,1,100,0.843
1575665320.701855,100254.000,17083,3,AY,1,100,0.802
1575665320.742312,100288.000,17083,3,AY,1,100,0.741
1575665320.782769,100322.000,17083,3,AY,1,100,0.786
1575665320.824416,100357.000,17102,2,AY,1,100,0.842
1575665320.866063,100392.000,17102,2,AY,1,100,0.823
1575665320.911279,100430.000,17120,3,AY,1,100,0.765
1575665320.956496,100468.000,17120,3,AY,1,100,0.795
1575665321.001712,100506.000,17120,3,AY,1,100,0.774
1575665321.040186,100538.333,17138,3,AY,1,100,0.804
1575665321.078659,100570.667,17138,3,AY,1,100,0.792
1575665321.117133,100603.000,17138,3,AY,1,100,0.781
1575665321.162349,100641.000,17155,3,AY,1,100,0.829
1575665321.207566,100679.000,17155,3,AY,1,100,0.812
1575665321.252783,100717.000,17155,3,AY,1,100,0.804
1575665321.292049,100750.000,17173,3,AY,1,100,0.824
1575665321.331316,100783.000,17173,3,AY,1,100,0.809
1575665321.370583,100816.000,17173,3,AY,1,100,0.798
1575665321.408264,100847.667,17191,3,AY,1,100,0.758
1575665321.445944,100879.333,17191,3,AY,1,100,0.762
1575665321.483624,100911.000,17191,3,AY,1,100,0.810
1575665321.522892,100944.000,17207,3,AY,1,100,0.839
1575665321.562158,100977.000,17207,3,AY,1,100,0.810
1575665321.601425,101010.000,17207,3,AY,1,100,0.804
1575665321.642675,101044.667,17225,3,AY,1,100,0.780
1575665321.683926,101079.333,17225,3,AY,1,100,0.797
1575665321.725176,101114.000,17225,3,AY,1,100,0.805
1575665321.766426,101148.667,17244,3,AY,1,100,0.815
1575665321.807676,101183.333,17244,3,AY,1,100,0.794
1575665321.848926,101218.000,17244,3,AY,1,100,0.772
1575665321.888986,101251.667,17262,3,AY,1,100,0.813
1575665321.929046,101285.333,17262,3,AY,1,100,0.802
1575665321.969107,101319.000,17262,3,AY,1,100,0.827
1575665322.010753,101354.000,17280,3,AY,1,100,0.788
1575665322.052400,101389.000,17280,3,AY,1,100,0.809
1575665322.094047,101424.000,17280,3,AY,1,100,0.755
1575665322.132917,101456.667,17298,3,AY,1,100,0.793
1575665322.171788,101489.333,17298,3,AY,1,100,0.839
1575665322.210658,101522.000,17298,3,AY,1,100,0.788
1575665322.251908,101556.667,17316,3,AY,1,100,0.777
1575665322.293158,101591.333,17316,3,AY,1,100,0.777
1575665322.334408,101626.000,17316,3,AY,1,100,0.815
1575665322.374865,101660.000,17333,3,AY,1,100,0.823
1575665322.415322,101694.000,17333,3,AY,1,100,0.794
1575665322.455779,101728.000,17333,3,AY,1,100,0.789
1575665322.497029,101762.667,17351,3,AY,1,100,0.831
1575665322.538279,101797.333,17351,3,AY,1,100,0.796
1575665322.579529,101832.000,17351,3,AY,1,100,0.774
1575665322.617209,101863.667,17369,3,AY,1,100,0.785
1575665322.654890,101895.333,17369,3,AY,1,100,0.792
1575665322.692570,101927.000,17369,3,AY,1,100,0.811
1575665322.735407,101963.000,17385,3,AY,1,100,0.807
1575665322.778244,101999.000,17385,3,AY,1,100,0.791
1575665322.821080,102035.000,17385,3,AY,1,100,0.793
1575665322.862330,102069.667,17404,3,AY,1,100,0.782
1575665322.903580,102104.333,17404,3,AY,1,100,0.807
1575665322.944830,102139.000,17404,3,AY,1,100,0.785
1575665322.985684,102173.333,17422,3,AY,1,100,0.805
1575665323.026537,102207.667,17422,3,AY,1,100,0.824
1575665323.067391,102242.000,17422,3,AY,1,100,0.825
1575665323.108244,102276.333,17440,3,AY,1,100,0.806
1575665323.149098,102310.667,17440,3,AY,1,100,0.793
1575665323.189951,102345.000,17440,3,AY,1,100,0.787
1575665323.228028,102377.000,17458,3,AY,1,100,0.791
1575665323.266105,102409.000,17458,3,AY,1,100,0.807
1575665323.304183,102441.000,17458,3,AY,1,100,0.804
1575665323.342656,102473.333,17476,3,AY,1,100,0.794
1575665323.381130,102505.667,17476,3,AY,1,100,0.782
1575665323.419604,102538.000,17476,3,AY,1,100,0.791
1575665323.460457,102572.333,17494,3,AY,1,100,0.878
1575665323.501310,102606.667,17494,3,AY,1,100,0.842
1575665323.542164,102641.000,17494,3,AY,1,100,0.829
1575665323.586984,102678.667,17511,3,AY,1,100,0.775
1575665323.631804,102716.333,17511,3,AY,1,100,0.783
1575665323.676623,102754.000,17511,3,AY,1,100,0.773
1575665323.717477,102788.333,17529,3,AY,1,100,0.766
1575665323.758330,102822.667,17529,3,AY,1,100,0.782
1575665323.799184,102857.000,17529,3,AY,1,100,0.800
1575665323.835674,102887.667,17548,3,AY,1,100,0.819
1575665323.872165,102918.333,17548,3,AY,1,100,0.876
1575665323.908655,102949.000,17548,3,AY,1,100,0.868
1575665323.948319,102982.333,17566,3,AY,1,100,0.809
1575665323.987983,103015.667,17566,3,AY,1,100,0.731
1575665324.027646,103049.000,17566,3,AY,1,100,0.753
1575665324.067706,103082.667,17582,3,AY,1,100,0.802
1575665324.107766,103116.333,17582,3,AY,1,100,0.866
1575665324.147827,103150.000,17582,3,AY,1,100,0.865
1575665324.189077,103184.667,17600,3,AY,1,100,0.811
1575665324.230327,103219.333,17600,3,AY,1,100,0.797
1575665324.271577,103254.000,17600,3,AY,1,100,0.789
1575665324.312827,103288.667,17618,3,AY,1,100,0.798
1575665324.354077,103323.333,17618,3,AY,1,100,0.791
1575665324.395327,103358.000,17618,3,AY,1,100,0.788
1575665324.436181,103392.333,17636,3,AY,1,100,0.819
1575665324.477034,103426.667,17636,3,AY,1,100,0.818
1575665324.517888,103461.000,17636,3,AY,1,100,0.831
1575665324.556758,103493.667,17654,3,AY,1,100,0.824
1575665324.595628,103526.333,17654,3,AY,1,100,0.827
