EpochTimestamp,EmotiBitTimestamp,PacketNumber,DataLength,TypeTag,ProtocolVersion,DataReliability,EL
1575664583.324458,116806.000,19953,4,EL,1,100,0.269978
1575664583.324458,116806.000,19953,4,EL,1,100,0.269454
1575664583.324458,116806.000,19953,4,EL,1,100,0.269495
1575664583.324458,116806.000,19953,4,EL,1,100,0.269897
1575664583.389151,116860.500,19971,2,EL,1,100,0.269575
1575664583.453843,116915.000,19971,2,EL,1,100,0.269897
1575664583.520315,116971.000,19987,2,EL,1,100,0.269736
1575664583.586788,117027.000,19987,2,EL,1,100,0.269938
1575664583.659195,117088.000,20005,1,EL,1,100,0.269978
1575664583.726261,117144.500,20023,2,EL,1,100,0.270341
1575664583.793328,117201.000,20023,2,EL,1,100,0.270663
1575664583.858020,117255.500,20041,2,EL,1,100,0.270824
1575664583.922712,117310.000,20041,2,EL,1,100,0.271348
1575664583.988591,117365.500,20059,2,EL,1,100,0.270703
1575664584.054470,117421.000,20059,2,EL,1,100,0.271146
1575664584.119755,117476.000,20078,2,EL,1,100,0.272234
1575664584.185041,117531.000,20078,2,EL,1,100,0.271307
1575664584.258636,117593.000,20096,1,EL,1,100,0.271630
1575664584.325701,117649.500,20113,2,EL,1,100,0.271388
1575664584.392768,117706.000,20113,2,EL,1,100,0.270905
1575664584.456866,117760.000,20131,2,EL,1,100,0.271791
1575664584.520965,117814.000,20131,2,EL,1,100,0.271871
1575664584.583876,117867.000,20149,2,EL,1,100,0.271549
1575664584.646788,117920.000,20149,2,EL,1,100,0.271871
1575664584.713854,117976.500,20166,2,EL,1,100,0.271871
1575664584.780920,118033.000,20166,2,EL,1,100,0.271912
1575664584.853328,118094.000,20183,1,EL,1,100,0.270945
1575664584.919800,118150.000,20201,2,EL,1,100,0.271710
1575664584.986273,118206.000,20201,2,EL,1,100,0.271630
1575664585.052152,118261.500,20219,2,EL,1,100,0.272113
1575664585.118031,118317.000,20219,2,EL,1,100,0.272153
1575664585.187471,118375.500,20238,2,EL,1,100,0.271791
1575664585.256911,118434.000,20238,2,EL,1,100,0.272113
1575664585.319229,118486.500,20256,2,EL,1,100,0.272516
1575664585.381547,118539.000,20256,2,EL,1,100,0.272153
1575664585.445646,118593.000,20274,2,EL,1,100,0.272113
1575664585.509744,118647.000,20274,2,EL,1,100,0.272596
1575664585.577404,118704.000,20292,1,EL,1,100,0.272758
1575664585.645063,118761.000,20309,2,EL,1,100,0.272516
1575664585.712723,118818.000,20309,2,EL,1,100,0.272878
1575664585.783944,118878.000,20327,2,EL,1,100,0.273402
1575664585.855164,118938.000,20327,2,EL,1,100,0.272919
1575664585.923417,118995.500,20343,2,EL,1,100,0.273684
1575664585.991670,119053.000,20343,2,EL,1,100,0.272878
1575664586.062891,119113.000,20361,1,EL,1,100,0.273281
1575664586.126990,119167.000,20380,2,EL,1,100,0.273604
1575664586.191088,119221.000,20380,2,EL,1,100,0.274127
1575664586.255187,119275.000,20398,2,EL,1,100,0.273805
1575664586.319285,119329.000,20398,2,EL,1,100,0.273402
1575664586.385758,119385.000,20416,2,EL,1,100,0.273402
1575664586.452230,119441.000,20416,2,EL,1,100,0.274329
1575664586.519296,119497.500,20434,2,EL,1,100,0.273966
1575664586.586362,119554.000,20434,2,EL,1,100,0.274570
1575664586.655209,119612.000,20452,1,EL,1,100,0.274530
1575664586.720495,119667.000,20469,2,EL,1,100,0.274087
1575664586.785780,119722.000,20469,2,EL,1,100,0.274248
1575664586.849285,119775.500,20487,2,EL,1,100,0.274530
1575664586.912790,119829.000,20487,2,EL,1,100,0.274731
1575664586.979856,119885.500,20505,2,EL,1,100,0.274973
1575664587.046922,119942.000,20505,2,EL,1,100,0.274611
1575664587.114582,119999.000,20522,2,EL,1,100,0.275094
1575664587.182242,120056.000,20522,2,EL,1,100,0.274490
1575664587.253462,120116.000,20540,1,EL,1,100,0.274772
1575664587.319341,120171.500,20558,2,EL,1,100,0.275215
1575664587.385220,120227.000,20558,2,EL,1,100,0.275416
1575664587.448132,120280.000,20576,2,EL,1,100,0.275416
1575664587.511043,120333.000,20576,2,EL,1,100,0.275497
1575664587.577516,120389.000,20594,2,EL,1,100,0.275255
1575664587.643989,120445.000,20594,2,EL,1,100,0.276182
1575664587.711648,120502.000,20612,2,EL,1,100,0.275497
1575664587.779308,120559.000,20612,2,EL,1,100,0.275577
1575664587.850528,120619.000,20630,1,EL,1,100,0.275940
1575664587.917594,120675.500,20647,2,EL,1,100,0.275618
1575664587.984660,120732.000,20647,2,EL,1,100,0.275497
1575664588.047572,120785.000,20665,2,EL,1,100,0.276101
1575664588.110484,120838.000,20665,2,EL,1,100,0.276020
1575664588.175769,120893.000,20684,2,EL,1,100,0.275940
1575664588.241055,120948.000,20684,2,EL,1,100,0.275779
1575664588.307527,121004.000,20702,2,EL,1,100,0.275819
1575664588.374000,121060.000,20702,2,EL,1,100,0.275980
1575664588.445220,121120.000,20718,1,EL,1,100,0.275900
1575664588.514067,121178.000,20736,2,EL,1,100,0.276262
1575664588.582914,121236.000,20736,2,EL,1,100,0.276584
1575664588.651760,121294.000,20754,2,EL,1,100,0.276061
1575664588.720607,121352.000,20754,2,EL,1,100,0.276182
1575664588.792421,121412.500,20772,2,EL,1,100,0.276020
1575664588.864235,121473.000,20772,2,EL,1,100,0.276746
1575664588.929521,121528.000,20790,1,EL,1,100,0.275537
1575664588.997774,121585.500,20807,2,EL,1,100,0.276544
1575664589.066027,121643.000,20807,2,EL,1,100,0.276020
1575664589.128938,121696.000,20826,2,EL,1,100,0.277028
1575664589.191850,121749.000,20826,2,EL,1,100,0.276222
1575664589.259509,121806.000,20847,3,EL,1,100,0.275980
1575664589.327169,121863.000,20847,3,EL,1,100,0.276222
1575664589.394829,121920.000,20847,3,EL,1,100,0.276423
1575664589.459521,121974.500,20867,2,EL,1,100,0.276262
1575664589.524213,122029.000,20867,2,EL,1,100,0.276343
1575664589.594246,122088.000,20885,1,EL,1,100,0.277189
1575664589.661906,122145.000,20902,2,EL,1,100,0.277108
1575664589.729565,122202.000,20902,2,EL,1,100,0.277753
1575664589.799599,122261.000,20920,2,EL,1,100,0.278156
1575664589.869633,122320.000,20920,2,EL,1,100,0.277310
1575664589.931951,122372.500,20938,2,EL,1,100,0.278236
1575664589.994269,122425.000,20938,2,EL,1,100,0.277954
1575664590.059554,122480.000,20954,2,EL,1,100,0.277914
1575664590.124840,122535.000,20954,2,EL,1,100,0.278437
1575664590.190125,122590.000,20973,1,EL,1,100,0.278317
1575664590.258972,122648.000,20991,2,EL,1,100,0.278236
1575664590.327819,122706.000,20991,2,EL,1,100,0.278840
1575664590.397259,122764.500,21009,2,EL,1,100,0.279001
1575664590.466699,122823.000,21009,2,EL,1,100,0.279767
1575664590.529017,122875.500,21027,2,EL,1,100,0.279928
1575664590.591335,122928.000,21027,2,EL,1,100,0.279163
1575664590.656027,122982.500,21045,2,EL,1,100,0.279324
1575664590.720719,123037.000,21045,2,EL,1,100,0.279243
1575664590.788378,123094.000,21063,1,EL,1,100,0.279324
1575664590.857819,123152.500,21080,2,EL,1,100,0.278840
1575664590.927259,123211.000,21080,2,EL,1,100,0.279364
1575664590.997886,123270.500,21098,2,EL,1,100,0.279606
1575664591.068513,123330.000,21098,2,EL,1,100,0.279163
1575664591.130831,123382.500,21115,2,EL,1,100,0.280492
1575664591.193149,123435.000,21115,2,EL,1,100,0.279324
1575664591.257247,123489.000,21133,2,EL,1,100,0.279203
1575664591.321346,123543.000,21133,2,EL,1,100,0.278639
1575664591.389006,123600.000,21151,1,EL,1,100,0.277914
1575664591.457259,123657.500,21169,2,EL,1,100,0.278115
1575664591.525512,123715.000,21169,2,EL,1,100,0.277269
1575664591.594952,123773.500,21187,2,EL,1,100,0.277108
1575664591.664392,123832.000,21187,2,EL,1,100,0.276343
1575664591.728491,123886.000,21205,2,EL,1,100,0.275698
1575664591.792589,123940.000,21205,2,EL,1,100,0.275457
1575664591.855501,123993.000,21223,2,EL,1,100,0.275094
1575664591.918412,124046.000,21223,2,EL,1,100,0.274329
1575664591.986665,124103.500,21241,2,EL,1,100,0.274852
1575664592.054918,124161.000,21241,2,EL,1,100,0.274812
1575664592.121391,124217.000,21260,1,EL,1,100,0.273966
1575664592.192018,124276.500,21277,2,EL,1,100,0.274047
1575664592.262645,124336.000,21277,2,EL,1,100,0.273160
1575664592.331492,124394.000,21295,2,EL,1,100,0.273483
1575664592.400338,124452.000,21295,2,EL,1,100,0.272556
1575664592.470372,124511.000,21311,1,EL,1,100,0.272637
1575664592.538625,124568.500,21329,2,EL,1,100,0.272153
1575664592.606878,124626.000,21329,2,EL,1,100,0.272274
1575664592.675725,124684.000,21347,2,EL,1,100,0.271952
1575664592.744571,124742.000,21347,2,EL,1,100,0.271267
1575664592.809263,124796.500,21365,2,EL,1,100,0.271670
1575664592.873955,124851.000,21365,2,EL,1,100,0.271025
1575664592.938648,124905.500,21383,2,EL,1,100,0.271348
1575664593.003340,124960.000,21383,2,EL,1,100,0.271469
1575664593.066251,125013.000,21401,2,EL,1,100,0.269454
1575664593.129163,125066.000,21401,2,EL,1,100,0.269978
1575664593.193261,125120.000,21420,1,EL,1,100,0.269857
1575664593.259734,125176.000,21437,2,EL,1,100,0.270341
1575664593.326206,125232.000,21437,2,EL,1,100,0.269454
1575664593.395646,125290.500,21455,2,EL,1,100,0.269253
1575664593.465086,125349.000,21455,2,EL,1,100,0.268971
1575664593.533340,125406.500,21473,2,EL,1,100,0.268608
1575664593.601593,125464.000,21473,2,EL,1,100,0.268407
1575664593.665098,125517.500,21489,2,EL,1,100,0.268729
1575664593.728603,125571.000,21489,2,EL,1,100,0.268326
1575664593.790327,125623.000,21507,1,EL,1,100,0.268125
1575664593.857987,125680.000,21525,2,EL,1,100,0.267601
1575664593.925647,125737.000,21525,2,EL,1,100,0.267319
1575664593.993306,125794.000,21543,2,EL,1,100,0.267642
1575664594.060966,125851.000,21543,2,EL,1,100,0.266916
1575664594.130406,125909.500,21562,2,EL,1,100,0.266957
1575664594.199846,125968.000,21562,2,EL,1,100,0.266554
1575664594.263944,126022.000,21580,2,EL,1,100,0.266393
1575664594.328043,126076.000,21580,2,EL,1,100,0.266353
1575664594.390954,126129.000,21598,1,EL,1,100,0.265426
1575664594.457427,126185.000,21615,2,EL,1,100,0.265507
1575664594.523900,126241.000,21615,2,EL,1,100,0.265668
1575664594.593340,126299.500,21633,2,EL,1,100,0.265909
1575664594.662780,126358.000,21633,2,EL,1,100,0.264822
1575664594.730439,126415.000,21651,2,EL,1,100,0.265184
1575664594.798099,126472.000,21651,2,EL,1,100,0.264661
1575664594.862791,126526.500,21667,2,EL,1,100,0.264459
1575664594.927483,126581.000,21667,2,EL,1,100,0.264580
1575664594.990395,126634.000,21685,1,EL,1,100,0.263855
1575664595.055680,126689.000,21704,2,EL,1,100,0.263895
1575664595.120966,126744.000,21704,2,EL,1,100,0.263774
1575664595.190999,126803.000,21722,2,EL,1,100,0.263895
1575664595.261033,126862.000,21722,2,EL,1,100,0.263049
1575664595.329088,126919.333,21743,3,EL,1,100,0.263573
1575664595.397143,126976.667,21743,3,EL,1,100,0.263492
1575664595.465199,127034.000,21743,3,EL,1,100,0.263251
1575664595.526330,127085.500,21763,2,EL,1,100,0.262767
1575664595.587461,127137.000,21763,2,EL,1,100,0.262727
1575664595.651559,127191.000,21781,2,EL,1,100,0.262324
1575664595.715658,127245.000,21781,2,EL,1,100,0.262727
1575664595.784504,127303.000,21799,1,EL,1,100,0.262042
1575664595.849790,127358.000,21817,2,EL,1,100,0.261921
1575664595.915076,127413.000,21817,2,EL,1,100,0.262284
1575664595.985109,127472.000,21835,2,EL,1,100,0.261760
1575664596.055143,127531.000,21835,2,EL,1,100,0.261841
1575664596.123396,127588.500,21854,2,EL,1,100,0.261962
1575664596.191649,127646.000,21854,2,EL,1,100,0.261599
1575664596.262870,127706.000,21872,1,EL,1,100,0.261841
1575664596.331123,127763.500,21889,2,EL,1,100,0.261277
1575664596.399376,127821.000,21889,2,EL,1,100,0.261317
1575664596.467629,127878.500,21907,2,EL,1,100,0.261317
1575664596.535882,127936.000,21907,2,EL,1,100,0.261075
1575664596.606509,127995.500,21923,2,EL,1,100,0.261196
1575664596.677136,128055.000,21923,2,EL,1,100,0.261116
1575664596.742422,128110.000,21941,1,EL,1,100,0.260955
1575664596.805927,128163.500,21959,2,EL,1,100,0.260995
1575664596.869432,128217.000,21959,2,EL,1,100,0.260673
1575664596.934717,128272.000,21977,2,EL,1,100,0.260793
1575664597.000003,128327.000,21977,2,EL,1,100,0.259988
1575664597.067662,128384.000,21995,2,EL,1,100,0.261196
1575664597.135322,128441.000,21995,2,EL,1,100,0.260793
1575664597.206543,128501.000,22014,2,EL,1,100,0.260068
1575664597.277763,128561.000,22014,2,EL,1,100,0.260149
1575664597.346610,128619.000,22032,1,EL,1,100,0.260431
1575664597.408928,128671.500,22049,2,EL,1,100,0.259786
1575664597.471246,128724.000,22049,2,EL,1,100,0.259424
1575664597.535938,128778.500,22067,2,EL,1,100,0.259786
1575664597.600630,128833.000,22067,2,EL,1,100,0.259746
1575664597.667696,128889.500,22085,2,EL,1,100,0.259867
1575664597.734762,128946.000,22085,2,EL,1,100,0.259343
1575664597.802422,129003.000,22101,2,EL,1,100,0.260109
1575664597.870081,129060.000,22101,2,EL,1,100,0.259948
1575664597.940115,129119.000,22119,1,EL,1,100,0.260431
1575664598.004807,129173.500,22137,2,EL,1,100,0.259827
1575664598.069499,129228.000,22137,2,EL,1,100,0.258860
1575664598.132411,129281.000,22156,2,EL,1,100,0.259585
1575664598.195322,129334.000,22156,2,EL,1,100,0.259666
1575664598.263575,129391.500,22174,2,EL,1,100,0.259263
1575664598.331828,129449.000,22174,2,EL,1,100,0.258820
1575664598.401268,129507.500,22192,2,EL,1,100,0.259545
1575664598.470708,129566.000,22192,2,EL,1,100,0.259666
1575664598.538368,129623.000,22210,1,EL,1,100,0.259585
1575664598.604247,129678.500,22227,2,EL,1,100,0.259907
1575664598.670126,129734.000,22227,2,EL,1,100,0.259746
1575664598.731257,129785.500,22245,2,EL,1,100,0.259786
1575664598.792388,129837.000,22245,2,EL,1,100,0.259907
1575664598.859454,129893.500,22263,2,EL,1,100,0.259988
1575664598.926520,129950.000,22263,2,EL,1,100,0.259907
1575664598.995960,130008.500,22280,2,EL,1,100,0.260149
1575664599.065401,130067.000,22280,2,EL,1,100,0.260270
1575664599.130686,130122.000,22298,1,EL,1,100,0.260471
1575664599.197159,130178.000,22316,2,EL,1,100,0.259786
1575664599.263631,130234.000,22316,2,EL,1,100,0.259948
1575664599.327136,130287.500,22334,2,EL,1,100,0.260270
1575664599.390641,130341.000,22334,2,EL,1,100,0.260592
1575664599.457114,130397.000,22352,2,EL,1,100,0.260431
1575664599.523587,130453.000,22352,2,EL,1,100,0.260270
1575664599.592433,130511.000,22370,2,EL,1,100,0.260350
1575664599.661280,130569.000,22370,2,EL,1,100,0.259907
1575664599.728939,130626.000,22388,2,EL,1,100,0.260270
1575664599.796599,130683.000,22388,2,EL,1,100,0.259867
1575664599.863071,130739.000,22406,1,EL,1,100,0.259988
1575664599.930731,130796.000,22423,2,EL,1,100,0.260552
1575664599.998391,130853.000,22423,2,EL,1,100,0.260350
1575664600.064270,130908.500,22441,2,EL,1,100,0.260189
1575664600.130149,130964.000,22441,2,EL,1,100,0.260189
1575664600.199589,131022.500,22458,2,EL,1,100,0.260632
1575664600.269029,131081.000,22458,2,EL,1,100,0.260431
1575664600.334314,131136.000,22476,1,EL,1,100,0.259907
1575664600.404348,131195.000,22494,2,EL,1,100,0.259464
1575664600.474382,131254.000,22494,2,EL,1,100,0.260270
1575664600.537293,131307.000,22512,2,EL,1,100,0.260511
1575664600.600205,131360.000,22512,2,EL,1,100,0.259545
1575664600.664303,131414.000,22530,2,EL,1,100,0.260149
1575664600.728402,131468.000,22530,2,EL,1,100,0.260350
1575664600.797842,131526.500,22548,2,EL,1,100,0.260552
1575664600.867282,131585.000,22548,2,EL,1,100,0.260431
1575664600.934942,131642.000,22566,1,EL,1,100,0.260471
1575664601.003788,131700.000,22583,2,EL,1,100,0.260874
1575664601.072635,131758.000,22583,2,EL,1,100,0.260995
1575664601.134953,131810.500,22602,2,EL,1,100,0.261760
1575664601.197271,131863.000,22602,2,EL,1,100,0.261317
1575664601.261369,131917.000,22620,2,EL,1,100,0.260834
1575664601.325468,131971.000,22620,2,EL,1,100,0.260914
1575664601.393523,132028.333,22639,3,EL,1,100,0.261599
1575664601.461578,132085.667,22639,3,EL,1,100,0.261720
1575664601.529634,132143.000,22639,3,EL,1,100,0.261881
1575664601.597293,132200.000,22659,1,EL,1,100,0.262606
1575664601.665546,132257.500,22676,2,EL,1,100,0.261760
1575664601.733799,132315.000,22676,2,EL,1,100,0.262203
1575664601.797305,132368.500,22694,2,EL,1,100,0.262405
1575664601.860810,132422.000,22694,2,EL,1,100,0.261841
1575664601.925502,132476.500,22712,2,EL,1,100,0.262163
1575664601.990194,132531.000,22712,2,EL,1,100,0.262042
1575664602.058447,132588.500,22730,2,EL,1,100,0.262083
1575664602.126700,132646.000,22730,2,EL,1,100,0.262727
1575664602.194359,132703.000,22747,1,EL,1,100,0.262526
1575664602.263206,132761.000,22765,2,EL,1,100,0.261559
1575664602.332053,132819.000,22765,2,EL,1,100,0.261398
1575664602.394371,132871.500,22783,2,EL,1,100,0.260955
1575664602.456689,132924.000,22783,2,EL,1,100,0.261357
1575664602.521381,132978.500,22801,2,EL,1,100,0.261438
1575664602.586073,133033.000,22801,2,EL,1,100,0.261075
1575664602.653732,133090.000,22819,2,EL,1,100,0.261398
1575664602.721392,133147.000,22819,2,EL,1,100,0.260511
1575664602.790832,133205.500,22837,2,EL,1,100,0.260753
1575664602.860272,133264.000,22837,2,EL,1,100,0.260552
1575664602.929119,133322.000,22855,1,EL,1,100,0.260552
1575664602.992030,133375.000,22872,2,EL,1,100,0.260229
1575664603.054942,133428.000,22872,2,EL,1,100,0.260673
1575664603.119040,133482.000,22891,2,EL,1,100,0.260874
1575664603.183139,133536.000,22891,2,EL,1,100,0.260229
1575664603.246644,133589.500,22909,2,EL,1,100,0.260068
1575664603.310149,133643.000,22909,2,EL,1,100,0.260068
1575664603.374841,133697.500,22927,2,EL,1,100,0.260068
1575664603.439533,133752.000,22927,2,EL,1,100,0.259303
1575664603.503632,133806.000,22943,2,EL,1,100,0.259464
1575664603.567730,133860.000,22943,2,EL,1,100,0.260431
1575664603.631235,133913.500,22961,2,EL,1,100,0.260028
1575664603.694740,133967.000,22961,2,EL,1,100,0.259263
1575664603.760026,134022.000,22979,1,EL,1,100,0.259786
1575664603.826499,134078.000,22997,2,EL,1,100,0.259948
1575664603.892971,134134.000,22997,2,EL,1,100,0.259182
1575664603.962411,134192.500,23015,2,EL,1,100,0.259948
1575664604.031851,134251.000,23015,2,EL,1,100,0.259343
1575664604.099511,134308.000,23034,2,EL,1,100,0.259504
1575664604.167170,134365.000,23034,2,EL,1,100,0.259545
1575664604.230082,134418.000,23052,2,EL,1,100,0.259182
1575664604.292994,134471.000,23052,2,EL,1,100,0.259303
1575664604.361840,134529.000,23070,1,EL,1,100,0.259102
1575664604.424752,134582.000,23087,2,EL,1,100,0.259343
1575664604.487663,134635.000,23087,2,EL,1,100,0.259182
1575664604.552949,134690.000,23105,2,EL,1,100,0.259303
1575664604.618234,134745.000,23105,2,EL,1,100,0.258417
1575664604.685300,134801.500,23123,2,EL,1,100,0.259263
1575664604.752366,134858.000,23123,2,EL,1,100,0.258820
1575664604.821806,134916.500,23140,2,EL,1,100,0.259827
1575664604.891247,134975.000,23140,2,EL,1,100,0.259102
1575664604.958906,135032.000,23157,1,EL,1,100,0.258376
1575664605.023005,135086.000,23176,2,EL,1,100,0.258336
1575664605.087103,135140.000,23176,2,EL,1,100,0.258215
1575664605.151202,135194.000,23194,2,EL,1,100,0.258538
1575664605.215300,135248.000,23194,2,EL,1,100,0.258940
1575664605.282367,135304.500,23212,2,EL,1,100,0.258779
1575664605.349432,135361.000,23212,2,EL,1,100,0.258699
1575664605.418279,135419.000,23230,2,EL,1,100,0.258497
1575664605.487126,135477.000,23230,2,EL,1,100,0.258900
1575664605.555972,135535.000,23248,1,EL,1,100,0.258538
1575664605.620664,135589.500,23265,2,EL,1,100,0.258618
1575664605.685356,135644.000,23265,2,EL,1,100,0.257974
1575664605.749455,135698.000,23283,2,EL,1,100,0.258900
1575664605.813554,135752.000,23283,2,EL,1,100,0.258457
1575664605.880026,135808.000,23301,2,EL,1,100,0.258820
1575664605.946499,135864.000,23301,2,EL,1,100,0.258014
1575664606.015939,135922.500,23319,2,EL,1,100,0.258417
1575664606.085379,135981.000,23319,2,EL,1,100,0.258417
1575664606.153039,136038.000,23336,1,EL,1,100,0.258014
1575664606.219511,136094.000,23354,2,EL,1,100,0.258699
1575664606.285984,136150.000,23354,2,EL,1,100,0.258658
1575664606.348302,136202.500,23372,2,EL,1,100,0.258658
1575664606.410619,136255.000,23372,2,EL,1,100,0.258940
1575664606.476499,136310.500,23390,2,EL,1,100,0.258981
1575664606.542378,136366.000,23390,2,EL,1,100,0.258820
1575664606.611224,136424.000,23408,2,EL,1,100,0.259384
1575664606.680071,136482.000,23408,2,EL,1,100,0.258940
1575664606.750104,136541.000,23426,2,EL,1,100,0.258860
1575664606.820138,136600.000,23426,2,EL,1,100,0.259102
1575664606.881863,136652.000,23444,1,EL,1,100,0.258900
1575664606.951303,136710.500,23461,2,EL,1,100,0.258900
1575664607.020743,136769.000,23461,2,EL,1,100,0.259061
1575664607.085435,136823.500,23480,2,EL,1,100,0.258739
1575664607.150127,136878.000,23480,2,EL,1,100,0.259182
1575664607.216599,136934.000,23496,2,EL,1,100,0.258820
1575664607.283072,136990.000,23496,2,EL,1,100,0.258336
1575664607.346577,137043.500,23514,2,EL,1,100,0.258739
1575664607.410082,137097.000,23514,2,EL,1,100,0.258940
1575664607.476950,137153.333,23535,3,EL,1,100,0.258658
1575664607.543819,137209.667,23535,3,EL,1,100,0.258820
1575664607.610687,137266.000,23535,3,EL,1,100,0.258779
1575664607.675972,137321.000,23555,1,EL,1,100,0.258658
1575664607.747193,137381.000,23572,2,EL,1,100,0.258497
1575664607.818414,137441.000,23572,2,EL,1,100,0.258215
1575664607.886667,137498.500,23590,2,EL,1,100,0.259222
1575664607.954920,137556.000,23590,2,EL,1,100,0.259102
1575664608.024953,137615.000,23606,1,EL,1,100,0.259102
1575664608.090239,137670.000,23625,2,EL,1,100,0.258497
1575664608.155524,137725.000,23625,2,EL,1,100,0.259102
1575664608.219030,137778.500,23643,2,EL,1,100,0.259948
1575664608.282535,137832.000,23643,2,EL,1,100,0.258860
1575664608.348414,137887.500,23661,2,EL,1,100,0.259464
1575664608.414293,137943.000,23661,2,EL,1,100,0.259021
1575664608.481952,138000.000,23679,2,EL,1,100,0.259746
1575664608.549612,138057.000,23679,2,EL,1,100,0.259424
1575664608.618459,138115.000,23697,1,EL,1,100,0.259666
1575664608.685525,138171.500,23715,2,EL,1,100,0.259666
1575664608.752591,138228.000,23715,2,EL,1,100,0.259424
1575664608.815502,138281.000,23732,2,EL,1,100,0.259504
1575664608.878414,138334.000,23732,2,EL,1,100,0.259222
1575664608.944886,138390.000,23750,2,EL,1,100,0.259625
1575664609.011359,138446.000,23750,2,EL,1,100,0.259303
1575664609.079019,138503.000,23769,2,EL,1,100,0.260350
1575664609.146678,138560.000,23769,2,EL,1,100,0.259786
1575664609.216118,138618.500,23785,2,EL,1,100,0.259625
1575664609.285558,138677.000,23785,2,EL,1,100,0.259827
1575664609.352031,138733.000,23803,1,EL,1,100,0.260028
1575664609.414943,138786.000,23821,2,EL,1,100,0.260431
1575664609.477854,138839.000,23821,2,EL,1,100,0.260068
1575664609.543733,138894.500,23839,2,EL,1,100,0.261277
1575664609.609612,138950.000,23839,2,EL,1,100,0.261317
1575664609.676678,139006.500,23857,2,EL,1,100,0.262365
1575664609.743744,139063.000,23857,2,EL,1,100,0.262445
1575664609.812591,139121.000,23875,2,EL,1,100,0.262163
1575664609.881437,139179.000,23875,2,EL,1,100,0.262485
1575664609.950284,139237.000,23893,1,EL,1,100,0.262244
1575664610.013196,139290.000,23911,2,EL,1,100,0.262445
1575664610.076107,139343.000,23911,2,EL,1,100,0.262123
1575664610.140799,139397.500,23929,2,EL,1,100,0.262646
1575664610.205491,139452.000,23929,2,EL,1,100,0.262163
1575664610.271964,139508.000,23947,2,EL,1,100,0.262365
1575664610.338436,139564.000,23947,2,EL,1,100,0.262445
1575664610.406689,139621.500,23963,2,EL,1,100,0.262244
1575664610.474942,139679.000,23963,2,EL,1,100,0.261639
1575664610.546163,139739.000,23981,1,EL,1,100,0.261962
1575664610.614416,139796.500,23999,2,EL,1,100,0.262566
1575664610.682669,139854.000,23999,2,EL,1,100,0.262083
1575664610.754483,139914.500,24017,2,EL,1,100,0.262566
1575664610.826298,139975.000,24017,2,EL,1,100,0.262123
1575664610.894551,140032.500,24035,2,EL,1,100,0.262566
1575664610.962804,140090.000,24035,2,EL,1,100,0.262284
1575664611.034024,140150.000,24053,1,EL,1,100,0.261841
1575664611.102277,140207.500,24071,2,EL,1,100,0.262042
1575664611.170531,140265.000,24071,2,EL,1,100,0.262727
1575664611.235816,140320.000,24089,2,EL,1,100,0.262727
1575664611.301102,140375.000,24089,2,EL,1,100,0.262203
1575664611.365200,140429.000,24105,2,EL,1,100,0.262848
1575664611.429299,140483.000,24105,2,EL,1,100,0.262566
1575664611.495771,140539.000,24123,2,EL,1,100,0.262566
1575664611.562244,140595.000,24123,2,EL,1,100,0.262526
1575664611.632277,140654.000,24141,1,EL,1,100,0.262727
1575664611.700531,140711.500,24159,2,EL,1,100,0.262928
1575664611.768784,140769.000,24159,2,EL,1,100,0.263049
1575664611.835850,140825.500,24177,2,EL,1,100,0.263130
1575664611.902916,140882.000,24177,2,EL,1,100,0.262928
1575664611.972949,140941.000,24195,2,EL,1,100,0.263291
1575664612.042983,141000.000,24195,2,EL,1,100,0.262969
1575664612.107081,141054.000,24214,1,EL,1,100,0.263976
1575664612.169399,141106.500,24231,2,EL,1,100,0.263130
1575664612.231718,141159.000,24231,2,EL,1,100,0.263452
1575664612.297003,141214.000,24249,2,EL,1,100,0.263774
1575664612.362289,141269.000,24249,2,EL,1,100,0.263734
1575664612.431135,141327.000,24267,2,EL,1,100,0.263291
1575664612.499982,141385.000,24267,2,EL,1,100,0.263090
1575664612.568828,141443.000,24283,2,EL,1,100,0.263613
1575664612.637675,141501.000,24283,2,EL,1,100,0.263573
1575664612.700587,141554.000,24301,2,EL,1,100,0.263492
1575664612.763498,141607.000,24301,2,EL,1,100,0.263533
1575664612.829971,141663.000,24319,1,EL,1,100,0.263533
1575664612.894663,141717.500,24337,2,EL,1,100,0.263976
1575664612.959355,141772.000,24337,2,EL,1,100,0.264419
1575664613.028201,141830.000,24355,2,EL,1,100,0.263895
1575664613.097048,141888.000,24355,2,EL,1,100,0.263895
1575664613.167082,141947.000,24374,2,EL,1,100,0.263895
1575664613.237115,142006.000,24374,2,EL,1,100,0.263936
1575664613.303588,142062.000,24392,1,EL,1,100,0.263573
1575664613.367093,142115.500,24410,2,EL,1,100,0.263774
1575664613.430598,142169.000,24410,2,EL,1,100,0.263815
1575664613.496675,142224.667,24430,3,EL,1,100,0.263855
1575664613.562752,142280.333,24430,3,EL,1,100,0.263976
1575664613.628829,142336.000,24430,3,EL,1,100,0.264056
1575664613.695895,142392.500,24450,2,EL,1,100,0.263976
1575664613.762961,142449.000,24450,2,EL,1,100,0.263895
1575664613.832994,142508.000,24468,2,EL,1,100,0.263533
1575664613.903028,142567.000,24468,2,EL,1,100,0.263492
1575664613.965940,142620.000,24486,2,EL,1,100,0.263372
1575664614.028851,142673.000,24486,2,EL,1,100,0.263533
1575664614.091763,142726.000,24505,1,EL,1,100,0.263372
1575664614.158235,142782.000,24522,2,EL,1,100,0.262808
1575664614.224708,142838.000,24522,2,EL,1,100,0.262969
1575664614.293554,142896.000,24540,2,EL,1,100,0.262646
1575664614.362401,142954.000,24540,2,EL,1,100,0.262244
1575664614.430654,143011.500,24556,2,EL,1,100,0.262566
1575664614.498907,143069.000,24556,2,EL,1,100,0.262203
1575664614.570128,143129.000,24574,1,EL,1,100,0.262324
1575664614.638381,143186.500,24592,2,EL,1,100,0.261639
1575664614.706634,143244.000,24592,2,EL,1,100,0.261317
1575664614.776074,143302.500,24610,2,EL,1,100,0.260149
1575664614.845514,143361.000,24610,2,EL,1,100,0.259907
1575664614.913767,143418.500,24628,2,EL,1,100,0.259867
1575664614.982020,143476.000,24628,2,EL,1,100,0.259786
1575664615.044932,143529.000,24646,2,EL,1,100,0.259343
1575664615.107843,143582.000,24646,2,EL,1,100,0.259303
1575664615.176690,143640.000,24665,1,EL,1,100,0.258215
1575664615.239601,143693.000,24682,2,EL,1,100,0.258175
1575664615.302513,143746.000,24682,2,EL,1,100,0.257410
1575664615.367799,143801.000,24700,2,EL,1,100,0.257450
1575664615.433084,143856.000,24700,2,EL,1,100,0.256564
1575664615.500744,143913.000,24718,2,EL,1,100,0.256201
1575664615.568403,143970.000,24718,2,EL,1,100,0.256080
1575664615.637843,144028.500,24734,2,EL,1,100,0.255194
1575664615.707283,144087.000,24734,2,EL,1,100,0.255234
1575664615.774943,144144.000,24752,1,EL,1,100,0.255073
1575664615.839041,144198.000,24770,2,EL,1,100,0.254066
1575664615.903140,144252.000,24770,2,EL,1,100,0.253945
1575664615.967239,144306.000,24788,2,EL,1,100,0.253341
1575664616.031337,144360.000,24788,2,EL,1,100,0.252455
1575664616.097810,144416.000,24807,2,EL,1,100,0.252737
1575664616.164282,144472.000,24807,2,EL,1,100,0.251730
1575664616.233129,144530.000,24825,2,EL,1,100,0.251770
1575664616.301975,144588.000,24825,2,EL,1,100,0.250723
1575664616.370822,144646.000,24843,1,EL,1,100,0.249917
1575664616.435514,144700.500,24860,2,EL,1,100,0.249998
1575664616.500206,144755.000,24860,2,EL,1,100,0.249152
1575664616.564898,144809.500,24878,2,EL,1,100,0.249716
1575664616.629590,144864.000,24878,2,EL,1,100,0.249031
1575664616.696063,144920.000,24896,2,EL,1,100,0.248709
1575664616.762535,144976.000,24896,2,EL,1,100,0.248668
1575664616.831975,145034.500,24912,2,EL,1,100,0.248588
1575664616.901416,145093.000,24912,2,EL,1,100,0.248145
1575664616.969075,145150.000,24930,1,EL,1,100,0.248306
1575664617.035548,145206.000,24948,2,EL,1,100,0.247782
1575664617.102020,145262.000,24948,2,EL,1,100,0.247621
1575664617.164338,145314.500,24967,2,EL,1,100,0.247742
1575664617.226656,145367.000,24967,2,EL,1,100,0.247581
1575664617.292536,145422.500,24985,2,EL,1,100,0.247097
1575664617.358415,145478.000,24985,2,EL,1,100,0.246775
1575664617.427261,145536.000,25003,2,EL,1,100,0.246896
1575664617.496108,145594.000,25003,2,EL,1,100,0.246493
1575664617.563767,145651.000,25021,1,EL,1,100,0.245607
1575664617.631427,145708.000,25038,2,EL,1,100,0.245284
1575664617.699086,145765.000,25038,2,EL,1,100,0.244922
1575664617.761405,145817.500,25056,2,EL,1,100,0.245244
1575664617.823723,145870.000,25056,2,EL,1,100,0.244962
1575664617.890195,145926.000,25074,2,EL,1,100,0.244962
1575664617.956668,145982.000,25074,2,EL,1,100,0.244922
1575664618.020173,146035.500,25092,2,EL,1,100,0.244438
1575664618.083678,146089.000,25092,2,EL,1,100,0.244318
1575664618.150150,146145.000,25109,2,EL,1,100,0.243713
1575664618.216623,146201.000,25109,2,EL,1,100,0.243230
1575664618.280721,146255.000,25127,1,EL,1,100,0.243673
1575664618.349568,146313.000,25145,2,EL,1,100,0.243270
1575664618.418415,146371.000,25145,2,EL,1,100,0.243270
1575664618.487261,146429.000,25163,2,EL,1,100,0.243593
1575664618.556108,146487.000,25163,2,EL,1,100,0.242827
1575664618.623767,146544.000,25181,2,EL,1,100,0.242827
1575664618.691427,146601.000,25181,2,EL,1,100,0.242505
1575664618.762648,146661.000,25199,1,EL,1,100,0.242948
1575664618.831494,146719.000,25216,2,EL,1,100,0.242988
1575664618.900341,146777.000,25216,2,EL,1,100,0.242948
1575664618.963846,146830.500,25234,2,EL,1,100,0.242465
1575664619.027351,146884.000,25234,2,EL,1,100,0.243109
1575664619.092043,146938.500,25253,2,EL,1,100,0.242545
1575664619.156735,146993.000,25253,2,EL,1,100,0.242626
1575664619.224988,147050.500,25269,2,EL,1,100,0.242344
1575664619.293241,147108.000,25269,2,EL,1,100,0.242263
1575664619.359714,147164.000,25287,1,EL,1,100,0.242142
1575664619.429154,147222.500,25305,2,EL,1,100,0.242223
1575664619.498594,147281.000,25305,2,EL,1,100,0.241981
1575664619.561901,147334.333,25326,3,EL,1,100,0.241619
1575664619.625208,147387.667,25326,3,EL,1,100,0.241659
1575664619.688516,147441.000,25326,3,EL,1,100,0.241498
1575664619.753208,147495.500,25346,2,EL,1,100,0.241296
1575664619.817900,147550.000,25346,2,EL,1,100,0.241095
1575664619.886153,147607.500,25364,2,EL,1,100,0.241417
1575664619.954406,147665.000,25364,2,EL,1,100,0.241135
1575664620.023846,147723.500,25380,2,EL,1,100,0.241780
1575664620.093286,147782.000,25380,2,EL,1,100,0.241739
1575664620.159759,147838.000,25399,1,EL,1,100,0.241458
1575664620.222670,147891.000,25417,2,EL,1,100,0.242344
1575664620.285582,147944.000,25417,2,EL,1,100,0.242545
1575664620.351461,147999.500,25435,2,EL,1,100,0.242706
1575664620.417340,148055.000,25435,2,EL,1,100,0.242948
1575664620.484406,148111.500,25453,2,EL,1,100,0.242183
1575664620.551472,148168.000,25453,2,EL,1,100,0.243069
1575664620.620319,148226.000,25471,2,EL,1,100,0.242666
1575664620.689165,148284.000,25471,2,EL,1,100,0.242505
1575664620.758012,148342.000,25489,1,EL,1,100,0.242585
1575664620.820923,148395.000,25506,2,EL,1,100,0.242183
1575664620.883835,148448.000,25506,2,EL,1,100,0.242223
1575664620.948527,148502.500,25524,2,EL,1,100,0.242948
1575664621.013219,148557.000,25524,2,EL,1,100,0.242263
1575664621.079691,148613.000,25543,2,EL,1,100,0.243069
1575664621.146164,148669.000,25543,2,EL,1,100,0.243109
1575664621.214417,148726.500,25559,2,EL,1,100,0.242747
1575664621.282670,148784.000,25559,2,EL,1,100,0.243029
1575664621.351517,148842.000,25577,1,EL,1,100,0.242787
1575664621.415615,148896.000,25595,2,EL,1,100,0.242747
1575664621.479714,148950.000,25595,2,EL,1,100,0.242505
1575664621.547967,149007.500,25613,2,EL,1,100,0.242585
1575664621.616220,149065.000,25613,2,EL,1,100,0.241739
1575664621.680912,149119.500,25631,2,EL,1,100,0.242424
1575664621.745604,149174.000,25631,2,EL,1,100,0.242223
1575664621.809703,149228.000,25649,2,EL,1,100,0.242465
1575664621.873801,149282.000,25649,2,EL,1,100,0.242465
1575664621.942055,149339.500,25667,2,EL,1,100,0.242706
1575664622.010308,149397.000,25667,2,EL,1,100,0.242747
1575664622.070845,149448.000,25686,1,EL,1,100,0.242626
1575664622.135537,149502.500,25703,2,EL,1,100,0.243512
1575664622.200229,149557.000,25703,2,EL,1,100,0.242505
1575664622.266702,149613.000,25721,2,EL,1,100,0.242867
1575664622.333174,149669.000,25721,2,EL,1,100,0.243230
1575664622.400834,149726.000,25739,2,EL,1,100,0.242948
1575664622.468493,149783.000,25739,2,EL,1,100,0.242908
1575664622.539714,149843.000,25755,2,EL,1,100,0.243391
1575664622.610935,149903.000,25755,2,EL,1,100,0.243270
1575664622.672659,149955.000,25773,1,EL,1,100,0.243069
1575664622.743880,150015.000,25791,2,EL,1,100,0.243351
1575664622.815100,150075.000,25791,2,EL,1,100,0.242666
1575664622.877419,150127.500,25809,2,EL,1,100,0.243109
1575664622.939736,150180.000,25809,2,EL,1,100,0.242626
1575664623.005615,150235.500,25827,2,EL,1,100,0.242787
1575664623.071495,150291.000,25827,2,EL,1,100,0.244358
1575664623.138561,150347.500,25846,2,EL,1,100,0.243593
1575664623.205627,150404.000,25846,2,EL,1,100,0.242948
1575664623.273286,150461.000,25864,1,EL,1,100,0.243351
1575664623.341539,150518.500,25881,2,EL,1,100,0.243875
1575664623.409792,150576.000,25881,2,EL,1,100,0.243391
1575664623.472704,150629.000,25899,2,EL,1,100,0.243472
1575664623.535616,150682.000,25899,2,EL,1,100,0.244156
1575664623.599714,150736.000,25917,2,EL,1,100,0.243593
1575664623.663813,150790.000,25917,2,EL,1,100,0.243915
1575664623.732659,150848.000,25933,2,EL,1,100,0.243593
1575664623.801506,150906.000,25933,2,EL,1,100,0.244156
1575664623.867978,150962.000,25951,1,EL,1,100,0.243633
1575664623.938012,151021.000,25969,2,EL,1,100,0.243794
1575664624.008046,151080.000,25969,2,EL,1,100,0.243834
1575664624.072144,151134.000,25988,2,EL,1,100,0.244076
1575664624.136243,151188.000,25988,2,EL,1,100,0.243552
1575664624.199748,151241.500,26006,2,EL,1,100,0.243955
1575664624.263253,151295.000,26006,2,EL,1,100,0.243713
1575664624.331506,151352.500,26024,2,EL,1,100,0.243633
1575664624.399759,151410.000,26024,2,EL,1,100,0.243995
1575664624.467419,151467.000,26042,1,EL,1,100,0.243391
1575664624.536859,151525.500,26059,2,EL,1,100,0.244479
1575664624.606299,151584.000,26059,2,EL,1,100,0.244116
1575664624.671584,151639.000,26077,2,EL,1,100,0.244680
1575664624.736870,151694.000,26077,2,EL,1,100,0.243794
1575664624.799781,151747.000,26095,2,EL,1,100,0.244277
1575664624.862693,151800.000,26095,2,EL,1,100,0.245123
1575664624.929166,151856.000,26111,2,EL,1,100,0.245123
1575664624.995638,151912.000,26111,2,EL,1,100,0.245244
1575664625.062704,151968.500,26130,2,EL,1,100,0.245244
1575664625.129770,152025.000,26130,2,EL,1,100,0.245164
1575664625.200991,152085.000,26148,1,EL,1,100,0.245002
1575664625.270431,152143.500,26166,2,EL,1,100,0.245284
1575664625.339871,152202.000,26166,2,EL,1,100,0.245164
1575664625.408718,152260.000,26184,2,EL,1,100,0.245808
1575664625.477564,152318.000,26184,2,EL,1,100,0.245486
1575664625.549972,152379.000,26202,1,EL,1,100,0.245566
1575664625.618819,152437.000,26222,3,EL,1,100,0.245284
1575664625.687665,152495.000,26222,3,EL,1,100,0.245566
1575664625.756512,152553.000,26222,3,EL,1,100,0.245848
1575664625.819423,152606.000,26242,2,EL,1,100,0.245768
1575664625.882335,152659.000,26242,2,EL,1,100,0.245929
1575664625.948807,152715.000,26260,2,EL,1,100,0.245889
1575664626.015280,152771.000,26260,2,EL,1,100,0.246171
1575664626.077598,152823.500,26279,2,EL,1,100,0.246896
1575664626.139916,152876.000,26279,2,EL,1,100,0.246533
1575664626.206388,152932.000,26297,2,EL,1,100,0.246815
1575664626.272861,152988.000,26297,2,EL,1,100,0.246815
1575664626.342895,153047.000,26315,1,EL,1,100,0.246855
1575664626.410554,153104.000,26332,2,EL,1,100,0.246896
1575664626.478214,153161.000,26332,2,EL,1,100,0.246412
1575664626.546467,153218.500,26350,2,EL,1,100,0.247218
1575664626.614720,153276.000,26350,2,EL,1,100,0.247137
1575664626.677038,153328.500,26366,2,EL,1,100,0.247299
1575664626.739356,153381.000,26366,2,EL,1,100,0.247017
1575664626.805235,153436.500,26384,2,EL,1,100,0.247339
1575664626.871114,153492.000,26384,2,EL,1,100,0.247460
1575664626.938774,153549.000,26402,1,EL,1,100,0.247581
1575664627.007027,153606.500,26421,2,EL,1,100,0.247017
1575664627.075280,153664.000,26421,2,EL,1,100,0.246735
1575664627.142940,153721.000,26439,2,EL,1,100,0.247258
1575664627.210599,153778.000,26439,2,EL,1,100,0.247581
1575664627.273511,153831.000,26457,2,EL,1,100,0.247943
1575664627.336422,153884.000,26457,2,EL,1,100,0.247943
1575664627.402301,153939.500,26475,2,EL,1,100,0.247137
1575664627.468180,153995.000,26475,2,EL,1,100,0.247822
1575664627.535840,154052.000,26493,1,EL,1,100,0.247903
1575664627.605280,154110.500,26510,2,EL,1,100,0.247299
1575664627.674720,154169.000,26510,2,EL,1,100,0.247782
1575664627.744754,154228.000,26528,2,EL,1,100,0.247903
1575664627.814787,154287.000,26528,2,EL,1,100,0.247903
1575664627.875918,154338.500,26544,2,EL,1,100,0.248386
1575664627.937049,154390.000,26544,2,EL,1,100,0.247540
1575664628.001148,154444.000,26562,2,EL,1,100,0.248024
1575664628.065246,154498.000,26562,2,EL,1,100,0.248910
1575664628.132906,154555.000,26581,1,EL,1,100,0.248749
1575664628.201753,154613.000,26599,2,EL,1,100,0.248306
1575664628.270599,154671.000,26599,2,EL,1,100,0.248306
1575664628.340633,154730.000,26617,2,EL,1,100,0.248346
1575664628.410666,154789.000,26617,2,EL,1,100,0.248749
1575664628.472391,154841.000,26635,2,EL,1,100,0.249192
1575664628.534116,154893.000,26635,2,EL,1,100,0.249554
1575664628.597620,154946.500,26653,2,EL,1,100,0.249434
1575664628.661126,155000.000,26653,2,EL,1,100,0.249071
1575664628.728785,155057.000,26671,1,EL,1,100,0.249192
1575664628.796445,155114.000,26688,2,EL,1,100,0.248990
1575664628.864104,155171.000,26688,2,EL,1,100,0.248950
1575664628.935325,155231.000,26706,2,EL,1,100,0.249393
1575664629.006546,155291.000,26706,2,EL,1,100,0.250118
1575664629.074799,155348.500,26725,2,EL,1,100,0.250400
1575664629.143052,155406.000,26725,2,EL,1,100,0.249836
1575664629.214272,155466.000,26741,1,EL,1,100,0.250199
1575664629.282525,155523.500,26759,2,EL,1,100,0.250924
1575664629.350779,155581.000,26759,2,EL,1,100,0.249716
1575664629.419032,155638.500,26777,2,EL,1,100,0.250320
1575664629.487285,155696.000,26777,2,EL,1,100,0.250360
1575664629.557318,155755.000,26795,2,EL,1,100,0.250441
1575664629.627352,155814.000,26795,2,EL,1,100,0.250078
1575664629.695011,155871.000,26813,1,EL,1,100,0.250521
1575664629.758517,155924.500,26831,2,EL,1,100,0.250803
1575664629.822021,155978.000,26831,2,EL,1,100,0.250562
1575664629.886120,156032.000,26848,2,EL,1,100,0.251085
1575664629.950219,156086.000,26848,2,EL,1,100,0.251166
1575664630.017285,156142.500,26866,2,EL,1,100,0.250562
1575664630.084351,156199.000,26866,2,EL,1,100,0.250723
1575664630.154384,156258.000,26883,2,EL,1,100,0.250964
1575664630.224418,156317.000,26883,2,EL,1,100,0.251448
1575664630.290890,156373.000,26901,1,EL,1,100,0.251569
1575664630.360924,156432.000,26919,2,EL,1,100,0.251327
1575664630.430958,156491.000,26919,2,EL,1,100,0.251569
1575664630.498024,156547.500,26937,2,EL,1,100,0.251166
1575664630.565090,156604.000,26937,2,EL,1,100,0.251367
1575664630.628595,156657.500,26955,2,EL,1,100,0.251649
1575664630.692100,156711.000,26955,2,EL,1,100,0.251085
1575664630.757385,156766.000,26973,2,EL,1,100,0.251971
1575664630.822671,156821.000,26973,2,EL,1,100,0.251125
1575664630.890331,156878.000,26991,1,EL,1,100,0.251569
1575664630.957990,156935.000,27009,2,EL,1,100,0.252092
1575664631.025650,156992.000,27009,2,EL,1,100,0.251005
1575664631.093903,157049.500,27027,2,EL,1,100,0.252294
1575664631.162156,157107.000,27027,2,EL,1,100,0.252092
1575664631.225068,157160.000,27045,2,EL,1,100,0.252535
1575664631.287979,157213.000,27045,2,EL,1,100,0.252253
1575664631.353265,157268.000,27061,2,EL,1,100,0.252415
1575664631.418550,157323.000,27061,2,EL,1,100,0.251851
1575664631.485616,157379.500,27079,2,EL,1,100,0.252133
1575664631.552682,157436.000,27079,2,EL,1,100,0.252374
1575664631.623903,157496.000,27097,1,EL,1,100,0.251689
1575664631.691167,157552.667,27118,3,EL,1,100,0.251689
1575664631.758431,157609.333,27118,3,EL,1,100,0.252213
1575664631.825695,157666.000,27118,3,EL,1,100,0.252334
1575664631.886826,157717.500,27138,2,EL,1,100,0.252777
1575664631.947957,157769.000,27138,2,EL,1,100,0.252173
1575664632.013836,157824.500,27156,2,EL,1,100,0.252294
1575664632.079715,157880.000,27156,2,EL,1,100,0.252455
1575664632.149155,157938.500,27173,2,EL,1,100,0.252858
1575664632.218595,157997.000,27173,2,EL,1,100,0.252656
1575664632.283881,158052.000,27191,1,EL,1,100,0.252535
1575664632.351540,158109.000,27209,2,EL,1,100,0.253059
1575664632.419200,158166.000,27209,2,EL,1,100,0.252576
1575664632.480924,158218.000,27227,2,EL,1,100,0.252294
1575664632.542649,158270.000,27227,2,EL,1,100,0.252455
1575664632.608528,158325.500,27245,2,EL,1,100,0.252737
1575664632.674407,158381.000,27245,2,EL,1,100,0.252415
1575664632.741473,158437.500,27263,2,EL,1,100,0.252294
1575664632.808539,158494.000,27263,2,EL,1,100,0.253099
1575664632.875012,158550.000,27281,1,EL,1,100,0.252616
1575664632.941484,158606.000,27298,2,EL,1,100,0.252213
1575664633.007957,158662.000,27298,2,EL,1,100,0.252415
1575664633.075616,158719.000,27317,2,EL,1,100,0.253260
1575664633.143276,158776.000,27317,2,EL,1,100,0.252697
1575664633.210342,158832.500,27335,2,EL,1,100,0.252979
1575664633.277408,158889.000,27335,2,EL,1,100,0.252495
1575664633.349222,158949.500,27351,2,EL,1,100,0.252535
1575664633.421036,159010.000,27351,2,EL,1,100,0.252656
1575664633.486322,159065.000,27369,1,EL,1,100,0.252415
1575664633.558136,159125.500,27387,2,EL,1,100,0.252898
1575664633.629950,159186.000,27387,2,EL,1,100,0.252777
1575664633.692268,159238.500,27405,2,EL,1,100,0.253019
1575664633.754586,159291.000,27405,2,EL,1,100,0.252898
1575664633.818685,159345.000,27423,2,EL,1,100,0.252898
1575664633.882783,159399.000,27423,2,EL,1,100,0.252938
1575664633.951630,159457.000,27441,1,EL,1,100,0.253180
1575664634.020477,159515.000,27460,2,EL,1,100,0.253180
1575664634.089323,159573.000,27460,2,EL,1,100,0.253099
1575664634.158763,159631.500,27477,2,EL,1,100,0.253180
1575664634.228203,159690.000,27477,2,EL,1,100,0.252979
1575664634.291708,159743.500,27495,2,EL,1,100,0.253260
1575664634.355213,159797.000,27495,2,EL,1,100,0.253542
1575664634.418719,159850.500,27511,2,EL,1,100,0.253663
1575664634.482224,159904.000,27511,2,EL,1,100,0.253381
1575664634.549290,159960.500,27529,2,EL,1,100,0.253542
1575664634.616356,160017.000,27529,2,EL,1,100,0.253381
1575664634.684015,160074.000,27547,1,EL,1,100,0.253784
1575664634.754049,160133.000,27565,2,EL,1,100,0.253744
1575664634.824082,160192.000,27565,2,EL,1,100,0.253502
1575664634.888181,160246.000,27583,2,EL,1,100,0.253945
1575664634.952280,160300.000,27583,2,EL,1,100,0.253542
1575664635.015785,160353.500,27601,2,EL,1,100,0.253583
1575664635.079290,160407.000,27601,2,EL,1,100,0.254147
1575664635.147543,160464.500,27620,2,EL,1,100,0.254066
1575664635.215796,160522.000,27620,2,EL,1,100,0.254388
1575664635.283455,160579.000,27638,1,EL,1,100,0.253220
1575664635.352895,160637.500,27655,2,EL,1,100,0.253824
1575664635.422336,160696.000,27655,2,EL,1,100,0.254832
1575664635.487028,160750.500,27673,2,EL,1,100,0.254227
1575664635.551720,160805.000,27673,2,EL,1,100,0.254147
1575664635.615225,160858.500,27689,2,EL,1,100,0.254509
1575664635.678730,160912.000,27689,2,EL,1,100,0.254227
1575664635.745202,160968.000,27707,2,EL,1,100,0.254711
1575664635.811675,161024.000,27707,2,EL,1,100,0.253744
1575664635.878148,161080.000,27725,1,EL,1,100,0.254187
1575664635.947587,161138.500,27743,2,EL,1,100,0.254308
1575664636.017028,161197.000,27743,2,EL,1,100,0.254469
1575664636.082907,161252.500,27762,2,EL,1,100,0.255234
1575664636.148786,161308.000,27762,2,EL,1,100,0.254429
1575664636.211697,161361.000,27780,2,EL,1,100,0.254550
1575664636.274609,161414.000,27780,2,EL,1,100,0.254550
1575664636.339301,161468.500,27798,2,EL,1,100,0.254993
1575664636.403993,161523.000,27798,2,EL,1,100,0.255154
1575664636.468685,161577.500,27816,2,EL,1,100,0.254550
1575664636.533377,161632.000,27816,2,EL,1,100,0.255073
1575664636.597476,161686.000,27834,1,EL,1,100,0.255597
1575664636.661574,161740.000,27852,2,EL,1,100,0.254952
1575664636.725673,161794.000,27852,2,EL,1,100,0.255516
1575664636.788584,161847.000,27869,2,EL,1,100,0.255919
1575664636.851496,161900.000,27869,2,EL,1,100,0.255355
1575664636.916781,161955.000,27887,2,EL,1,100,0.255637
1575664636.982067,162010.000,27887,2,EL,1,100,0.255677
1575664637.049726,162067.000,27906,2,EL,1,100,0.255839
1575664637.117386,162124.000,27906,2,EL,1,100,0.255033
1575664637.185046,162181.000,27922,2,EL,1,100,0.255959
1575664637.252705,162238.000,27922,2,EL,1,100,0.256161
1575664637.325113,162299.000,27940,1,EL,1,100,0.255959
1575664637.386837,162351.000,27958,2,EL,1,100,0.256322
1575664637.448562,162403.000,27958,2,EL,1,100,0.256161
1575664637.516815,162460.500,27976,2,EL,1,100,0.256443
1575664637.585068,162518.000,27976,2,EL,1,100,0.256241
1575664637.647980,162571.000,27994,2,EL,1,100,0.256886
1575664637.710891,162624.000,27994,2,EL,1,100,0.256967
1575664637.776968,162679.667,28015,3,EL,1,100,0.257047
1575664637.843045,162735.333,28015,3,EL,1,100,0.255879
1575664637.909122,162791.000,28015,3,EL,1,100,0.256685
1575664637.977968,162849.000,28035,1,EL,1,100,0.257249
1575664638.046222,162906.500,28054,2,EL,1,100,0.257047
1575664638.114475,162964.000,28054,2,EL,1,100,0.256483
1575664638.180354,163019.500,28072,2,EL,1,100,0.256765
1575664638.246233,163075.000,28072,2,EL,1,100,0.257007
1575664638.309738,163128.500,28090,2,EL,1,100,0.256765
1575664638.373243,163182.000,28090,2,EL,1,100,0.256604
1575664638.440309,163238.500,28108,2,EL,1,100,0.257249
1575664638.507375,163295.000,28108,2,EL,1,100,0.257047
1575664638.579783,163356.000,28126,1,EL,1,100,0.256926
1575664638.646849,163412.500,28143,2,EL,1,100,0.256886
1575664638.713915,163469.000,28143,2,EL,1,100,0.257289
1575664638.780387,163525.000,28161,2,EL,1,100,0.257651
1575664638.846860,163581.000,28161,2,EL,1,100,0.257450
1575664638.910365,163634.500,28179,2,EL,1,100,0.257249
1575664638.973870,163688.000,28179,2,EL,1,100,0.257128
1575664639.039156,163743.000,28198,2,EL,1,100,0.258094
1575664639.104441,163798.000,28198,2,EL,1,100,0.257410
1575664639.173288,163856.000,28214,2,EL,1,100,0.258014
1575664639.242134,163914.000,28214,2,EL,1,100,0.257450
1575664639.309794,163971.000,28232,1,EL,1,100,0.257812
1575664639.378047,164028.500,28250,2,EL,1,100,0.257410
1575664639.446300,164086.000,28250,2,EL,1,100,0.258094
1575664639.508618,164138.500,28268,2,EL,1,100,0.258417
1575664639.570936,164191.000,28268,2,EL,1,100,0.257732
1575664639.635628,164245.500,28286,2,EL,1,100,0.258699
1575664639.700320,164300.000,28286,2,EL,1,100,0.258457
1575664639.768573,164357.500,28304,2,EL,1,100,0.258256
1575664639.836827,164415.000,28304,2,EL,1,100,0.257893
1575664639.904486,164472.000,28322,1,EL,1,100,0.258417
1575664639.972146,164529.000,28340,2,EL,1,100,0.258175
1575664640.039805,164586.000,28340,2,EL,1,100,0.258135
1575664640.109245,164644.500,28358,2,EL,1,100,0.258538
1575664640.178685,164703.000,28358,2,EL,1,100,0.257974
1575664640.245158,164759.000,28374,2,EL,1,100,0.259021
1575664640.311630,164815.000,28374,2,EL,1,100,0.258618
1575664640.382851,164875.000,28392,1,EL,1,100,0.259384
1575664640.449324,164931.000,28410,2,EL,1,100,0.259021
1575664640.515796,164987.000,28410,2,EL,1,100,0.258860
1575664640.584643,165045.000,28428,2,EL,1,100,0.259384
1575664640.653490,165103.000,28428,2,EL,1,100,0.258578
1575664640.716995,165156.500,28446,2,EL,1,100,0.259464
1575664640.780500,165210.000,28446,2,EL,1,100,0.259666
1575664640.844598,165264.000,28464,2,EL,1,100,0.259867
1575664640.908697,165318.000,28464,2,EL,1,100,0.259384
1575664640.975763,165374.500,28482,2,EL,1,100,0.259343
1575664641.042829,165431.000,28482,2,EL,1,100,0.259424
1575664641.114049,165491.000,28501,1,EL,1,100,0.260229
1575664641.182896,165549.000,28518,2,EL,1,100,0.260350
1575664641.251743,165607.000,28518,2,EL,1,100,0.259424
1575664641.316435,165661.500,28534,2,EL,1,100,0.260028
1575664641.381127,165716.000,28534,2,EL,1,100,0.260350
1575664641.445225,165770.000,28552,2,EL,1,100,0.259303
1575664641.509324,165824.000,28552,2,EL,1,100,0.260270
1575664641.572829,165877.500,28570,2,EL,1,100,0.259867
1575664641.636334,165931.000,28570,2,EL,1,100,0.259424
1575664641.698058,165983.000,28588,1,EL,1,100,0.260632
1575664641.765718,166040.000,28606,2,EL,1,100,0.260552
1575664641.833378,166097.000,28606,2,EL,1,100,0.259907
1575664641.901037,166154.000,28624,2,EL,1,100,0.260431
1575664641.968697,166211.000,28624,2,EL,1,100,0.260350
1575664642.036356,166268.000,28643,2,EL,1,100,0.260753
1575664642.104016,166325.000,28643,2,EL,1,100,0.260028
1575664642.167521,166378.500,28661,2,EL,1,100,0.260834
1575664642.231026,166432.000,28661,2,EL,1,100,0.260914
1575664642.292751,166484.000,28679,1,EL,1,100,0.260874
1575664642.361597,166542.000,28696,2,EL,1,100,0.260955
1575664642.430444,166600.000,28696,2,EL,1,100,0.260310
1575664642.499884,166658.500,28714,2,EL,1,100,0.260874
1575664642.569324,166717.000,28714,2,EL,1,100,0.260431
1575664642.637577,166774.500,28732,2,EL,1,100,0.260874
1575664642.705830,166832.000,28732,2,EL,1,100,0.261438
1575664642.769335,166885.500,28748,2,EL,1,100,0.260874
1575664642.832840,166939.000,28748,2,EL,1,100,0.261680
1575664642.895752,166992.000,28766,1,EL,1,100,0.260793
1575664642.962224,167048.000,28785,2,EL,1,100,0.261237
1575664643.028697,167104.000,28785,2,EL,1,100,0.261639
1575664643.098137,167162.500,28803,2,EL,1,100,0.261841
1575664643.167577,167221.000,28803,2,EL,1,100,0.262203
1575664643.234050,167277.000,28821,2,EL,1,100,0.262002
1575664643.300522,167333.000,28821,2,EL,1,100,0.261801
1575664643.365214,167387.500,28839,2,EL,1,100,0.261921
1575664643.429906,167442.000,28839,2,EL,1,100,0.261760
1575664643.493411,167495.500,28857,2,EL,1,100,0.261881
1575664643.556916,167549.000,28857,2,EL,1,100,0.262002
1575664643.621015,167603.000,28875,1,EL,1,100,0.262042
1575664643.691049,167662.000,28892,2,EL,1,100,0.262566
1575664643.761082,167721.000,28892,2,EL,1,100,0.261639
1575664643.830720,167779.667,28913,3,EL,1,100,0.262445
1575664643.900358,167838.333,28913,3,EL,1,100,0.262324
1575664643.969996,167897.000,28913,3,EL,1,100,0.262365
1575664644.038249,167954.500,28934,2,EL,1,100,0.262042
1575664644.106502,168012.000,28934,2,EL,1,100,0.262123
1575664644.178910,168073.000,28952,1,EL,1,100,0.262244
1575664644.247163,168130.500,28969,2,EL,1,100,0.262365
1575664644.315416,168188.000,28969,2,EL,1,100,0.263049
1575664644.382482,168244.500,28985,2,EL,1,100,0.261801
1575664644.449548,168301.000,28985,2,EL,1,100,0.261760
1575664644.513053,168354.500,29003,2,EL,1,100,0.262405
1575664644.576558,168408.000,29003,2,EL,1,100,0.262727
1575664644.641844,168463.000,29021,1,EL,1,100,0.262566
1575664644.709503,168520.000,29039,2,EL,1,100,0.262808
1575664644.777163,168577.000,29039,2,EL,1,100,0.262284
1575664644.843042,168632.500,29057,2,EL,1,100,0.262606
1575664644.908921,168688.000,29057,2,EL,1,100,0.262365
1575664644.976581,168745.000,29075,2,EL,1,100,0.262646
1575664645.044240,168802.000,29075,2,EL,1,100,0.262606
1575664645.115461,168862.000,29094,2,EL,1,100,0.262888
1575664645.186682,168922.000,29094,2,EL,1,100,0.263210
1575664645.253154,168978.000,29112,1,EL,1,100,0.262365
1575664645.315472,169030.500,29129,2,EL,1,100,0.262284
1575664645.377790,169083.000,29129,2,EL,1,100,0.262727
1575664645.443076,169138.000,29147,2,EL,1,100,0.263049
1575664645.508361,169193.000,29147,2,EL,1,100,0.262687
1575664645.575427,169249.500,29165,2,EL,1,100,0.263210
1575664645.642493,169306.000,29165,2,EL,1,100,0.263372
1575664645.710746,169363.500,29181,2,EL,1,100,0.263090
1575664645.779000,169421.000,29181,2,EL,1,100,0.263130
1575664645.847846,169479.000,29199,1,EL,1,100,0.263331
1575664645.911351,169532.500,29217,2,EL,1,100,0.263573
1575664645.974856,169586.000,29217,2,EL,1,100,0.263372
1575664646.038361,169639.500,29236,2,EL,1,100,0.264056
1575664646.101866,169693.000,29236,2,EL,1,100,0.263774
1575664646.170119,169750.500,29254,2,EL,1,100,0.263734
1575664646.238372,169808.000,29254,2,EL,1,100,0.264218
1575664646.307812,169866.500,29272,2,EL,1,100,0.263492
1575664646.377253,169925.000,29272,2,EL,1,100,0.263855
1575664646.444912,169982.000,29290,1,EL,1,100,0.263815
1575664646.509604,170036.500,29307,2,EL,1,100,0.263936
1575664646.574296,170091.000,29307,2,EL,1,100,0.263654
1575664646.637208,170144.000,29325,2,EL,1,100,0.264016
1575664646.700119,170197.000,29325,2,EL,1,100,0.263694
1575664646.767779,170254.000,29343,2,EL,1,100,0.263694
1575664646.835438,170311.000,29343,2,EL,1,100,0.263855
1575664646.904879,170369.500,29359,2,EL,1,100,0.264097
1575664646.974319,170428.000,29359,2,EL,1,100,0.263452
1575664647.040791,170484.000,29378,1,EL,1,100,0.264298
1575664647.105483,170538.500,29396,2,EL,1,100,0.264177
1575664647.170175,170593.000,29396,2,EL,1,100,0.263855
1575664647.234274,170647.000,29414,2,EL,1,100,0.263936
1575664647.298373,170701.000,29414,2,EL,1,100,0.264177
1575664647.365439,170757.500,29432,2,EL,1,100,0.263895
1575664647.432505,170814.000,29432,2,EL,1,100,0.263774
1575664647.501945,170872.500,29450,2,EL,1,100,0.264338
1575664647.571385,170931.000,29450,2,EL,1,100,0.264097
1575664647.637857,170987.000,29468,1,EL,1,100,0.263895
1575664647.707298,171045.500,29485,2,EL,1,100,0.263855
1575664647.776738,171104.000,29485,2,EL,1,100,0.264137
1575664647.844397,171161.000,29503,2,EL,1,100,0.264258
1575664647.912057,171218.000,29503,2,EL,1,100,0.263412
1575664647.979123,171274.500,29521,2,EL,1,100,0.263936
1575664648.046189,171331.000,29521,2,EL,1,100,0.263694
1575664648.116223,171390.000,29538,1,EL,1,100,0.264258
1575664648.183882,171447.000,29556,2,EL,1,100,0.264097
1575664648.251542,171504.000,29556,2,EL,1,100,0.263492
1575664648.319795,171561.500,29574,2,EL,1,100,0.264056
1575664648.388048,171619.000,29574,2,EL,1,100,0.264056
1575664648.454520,171675.000,29592,2,EL,1,100,0.264218
1575664648.520993,171731.000,29592,2,EL,1,100,0.263855
1575664648.585092,171785.000,29610,2,EL,1,100,0.264379
1575664648.649190,171839.000,29610,2,EL,1,100,0.264580
1575664648.713289,171893.000,29628,2,EL,1,100,0.264258
1575664648.777387,171947.000,29628,2,EL,1,100,0.264258
1575664648.841486,172001.000,29646,1,EL,1,100,0.264459
1575664648.911519,172060.000,29663,2,EL,1,100,0.264338
1575664648.981553,172119.000,29663,2,EL,1,100,0.264701
1575664649.049806,172176.500,29682,2,EL,1,100,0.264741
1575664649.118059,172234.000,29682,2,EL,1,100,0.263694
1575664649.183938,172289.500,29698,2,EL,1,100,0.264177
1575664649.249817,172345.000,29698,2,EL,1,100,0.263694
1575664649.312729,172398.000,29716,2,EL,1,100,0.264661
1575664649.375640,172451.000,29716,2,EL,1,100,0.264258
1575664649.442113,172507.000,29734,1,EL,1,100,0.264097
1575664649.510366,172564.500,29752,2,EL,1,100,0.264379
1575664649.578619,172622.000,29752,2,EL,1,100,0.264620
1575664649.646872,172679.500,29770,2,EL,1,100,0.263533
1575664649.715125,172737.000,29770,2,EL,1,100,0.263291
1575664649.782191,172793.500,29788,2,EL,1,100,0.264218
1575664649.849257,172850.000,29788,2,EL,1,100,0.264459
1575664649.912565,172903.333,29809,3,EL,1,100,0.264620
1575664649.975872,172956.667,29809,3,EL,1,100,0.264379
1575664650.039179,173010.000,29809,3,EL,1,100,0.264419
1575664650.106839,173067.000,29830,1,EL,1,100,0.264298
1575664650.175685,173125.000,29848,2,EL,1,100,0.264298
1575664650.244532,173183.000,29848,2,EL,1,100,0.263855
1575664650.314565,173242.000,29866,2,EL,1,100,0.264177
1575664650.384599,173301.000,29866,2,EL,1,100,0.264499
1575664650.446324,173353.000,29884,2,EL,1,100,0.264499
1575664650.508048,173405.000,29884,2,EL,1,100,0.264661
1575664650.571553,173458.500,29902,2,EL,1,100,0.264822
1575664650.635058,173512.000,29902,2,EL,1,100,0.264177
1575664650.702718,173569.000,29920,1,EL,1,100,0.264499
1575664650.770377,173626.000,29937,2,EL,1,100,0.264419
1575664650.838037,173683.000,29937,2,EL,1,100,0.264338
1575664650.907477,173741.500,29955,2,EL,1,100,0.263815
1575664650.976917,173800.000,29955,2,EL,1,100,0.263976
1575664651.044577,173857.000,29974,2,EL,1,100,0.264701
1575664651.112236,173914.000,29974,2,EL,1,100,0.264499
1575664651.183457,173974.000,29990,1,EL,1,100,0.264016
1575664651.249336,174029.500,30008,2,EL,1,100,0.264177
1575664651.315215,174085.000,30008,2,EL,1,100,0.263855
1575664651.378127,174138.000,30026,2,EL,1,100,0.264862
1575664651.441038,174191.000,30026,2,EL,1,100,0.264218
1575664651.506917,174246.500,30044,2,EL,1,100,0.264741
1575664651.572796,174302.000,30044,2,EL,1,100,0.264580
1575664651.637488,174356.500,30062,2,EL,1,100,0.264338
1575664651.702180,174411.000,30062,2,EL,1,100,0.264781
1575664651.765092,174464.000,30080,2,EL,1,100,0.264983
1575664651.828003,174517.000,30080,2,EL,1,100,0.264258
1575664651.894476,174573.000,30098,2,EL,1,100,0.264862
1575664651.960948,174629.000,30098,2,EL,1,100,0.264620
1575664652.027421,174685.000,30117,1,EL,1,100,0.264580
1575664652.096861,174743.500,30134,2,EL,1,100,0.264983
1575664652.166301,174802.000,30134,2,EL,1,100,0.265184
1575664652.233367,174858.500,30152,2,EL,1,100,0.265144
1575664652.300433,174915.000,30152,2,EL,1,100,0.264822
1575664652.363939,174968.500,30168,2,EL,1,100,0.264540
1575664652.427444,175022.000,30168,2,EL,1,100,0.264741
1575664652.493323,175077.500,30186,2,EL,1,100,0.265184
1575664652.559202,175133.000,30186,2,EL,1,100,0.265265
1575664652.622113,175186.000,30204,2,EL,1,100,0.265265
1575664652.685025,175239.000,30204,2,EL,1,100,0.265305
1575664652.752684,175296.000,30222,1,EL,1,100,0.265507
1575664652.819750,175352.500,30240,2,EL,1,100,0.265466
1575664652.886817,175409.000,30240,2,EL,1,100,0.265265
1575664652.955663,175467.000,30258,2,EL,1,100,0.265507
1575664653.024510,175525.000,30258,2,EL,1,100,0.265909
1575664653.090389,175580.500,30277,2,EL,1,100,0.265829
1575664653.156268,175636.000,30277,2,EL,1,100,0.266030
1575664653.218586,175688.500,30295,2,EL,1,100,0.265708
1575664653.280904,175741.000,30295,2,EL,1,100,0.266030
1575664653.347376,175797.000,30313,1,EL,1,100,0.266393
1575664653.415630,175854.500,30330,2,EL,1,100,0.265587
1575664653.483883,175912.000,30330,2,EL,1,100,0.266071
1575664653.552729,175970.000,30348,2,EL,1,100,0.265708
1575664653.621576,176028.000,30348,2,EL,1,100,0.266111
1575664653.689829,176085.500,30364,2,EL,1,100,0.265748
1575664653.758082,176143.000,30364,2,EL,1,100,0.266312
1575664653.819807,176195.000,30382,2,EL,1,100,0.266151
1575664653.881531,176247.000,30382,2,EL,1,100,0.265909
1575664653.949191,176304.000,30400,1,EL,1,100,0.265909
1575664654.015663,176360.000,30419,2,EL,1,100,0.266191
1575664654.082136,176416.000,30419,2,EL,1,100,0.265950
1575664654.150982,176474.000,30437,2,EL,1,100,0.266191
1575664654.219829,176532.000,30437,2,EL,1,100,0.266191
1575664654.288082,176589.500,30455,2,EL,1,100,0.265708
1575664654.356335,176647.000,30455,2,EL,1,100,0.265829
1575664654.418060,176699.000,30473,2,EL,1,100,0.265507
1575664654.479784,176751.000,30473,2,EL,1,100,0.266071
1575664654.543883,176805.000,30491,2,EL,1,100,0.265990
1575664654.607981,176859.000,30491,2,EL,1,100,0.265789
1575664654.675641,176916.000,30509,1,EL,1,100,0.266272
1575664654.744488,176974.000,30526,2,EL,1,100,0.265829
1575664654.813334,177032.000,30526,2,EL,1,100,0.266473
1575664654.885148,177092.500,30542,2,EL,1,100,0.265144
1575664654.956962,177153.000,30542,2,EL,1,100,0.265466
1575664655.022248,177208.000,30561,1,EL,1,100,0.265305
1575664655.093468,177268.000,30579,2,EL,1,100,0.265426
1575664655.164689,177328.000,30579,2,EL,1,100,0.265345
1575664655.232349,177385.000,30597,2,EL,1,100,0.265063
1575664655.300008,177442.000,30597,2,EL,1,100,0.264177
1575664655.366481,177498.000,30615,2,EL,1,100,0.264540
1575664655.432953,177554.000,30615,2,EL,1,100,0.264097
1575664655.500613,177611.000,30633,1,EL,1,100,0.264862
1575664655.568273,177668.000,30650,2,EL,1,100,0.263331
1575664655.635932,177725.000,30650,2,EL,1,100,0.263654
1575664655.699437,177778.500,30668,2,EL,1,100,0.263734
1575664655.762942,177832.000,30668,2,EL,1,100,0.263291
1575664655.828228,177887.000,30686,2,EL,1,100,0.263049
1575664655.893513,177942.000,30686,2,EL,1,100,0.262606
1575664655.961964,177999.667,30707,3,EL,1,100,0.262284
1575664656.030415,178057.333,30707,3,EL,1,100,0.262163
1575664656.098866,178115.000,30707,3,EL,1,100,0.263009
1575664656.170087,178175.000,30728,1,EL,1,100,0.262042
1575664656.234185,178229.000,30745,2,EL,1,100,0.261438
1575664656.298284,178283.000,30745,2,EL,1,100,0.260995
1575664656.361789,178336.500,30763,2,EL,1,100,0.260350
1575664656.425294,178390.000,30763,2,EL,1,100,0.260109
1575664656.491766,178446.000,30781,2,EL,1,100,0.259746
1575664656.558239,178502.000,30781,2,EL,1,100,0.258618
1575664656.625899,178559.000,30799,2,EL,1,100,0.258618
1575664656.693558,178616.000,30799,2,EL,1,100,0.258296
1575664656.762998,178674.500,30815,2,EL,1,100,0.257651
1575664656.832438,178733.000,30815,2,EL,1,100,0.257812
1575664656.894163,178785.000,30833,1,EL,1,100,0.257249
1575664656.957668,178838.500,30852,2,EL,1,100,0.257490
1575664657.021173,178892.000,30852,2,EL,1,100,0.256685
1575664657.088239,178948.500,30870,2,EL,1,100,0.256523
1575664657.155305,179005.000,30870,2,EL,1,100,0.256000
1575664657.222965,179062.000,30888,2,EL,1,100,0.256201
1575664657.290624,179119.000,30888,2,EL,1,100,0.255396
1575664657.360064,179177.500,30906,2,EL,1,100,0.255798
1575664657.429504,179236.000,30906,2,EL,1,100,0.254550
1575664657.493603,179290.000,30924,1,EL,1,100,0.254993
1575664657.557108,179343.500,30941,2,EL,1,100,0.254630
1575664657.620613,179397.000,30941,2,EL,1,100,0.254348
1575664657.687086,179453.000,30959,2,EL,1,100,0.254106
1575664657.753558,179509.000,30959,2,EL,1,100,0.253301
1575664657.820624,179565.500,30977,2,EL,1,100,0.252979
1575664657.887690,179622.000,30977,2,EL,1,100,0.253059
1575664657.956537,179680.000,30993,2,EL,1,100,0.252777
1575664658.025383,179738.000,30993,2,EL,1,100,0.252495
1575664658.091856,179794.000,31012,1,EL,1,100,0.252535
1575664658.154768,179847.000,31030,2,EL,1,100,0.252737
1575664658.217679,179900.000,31030,2,EL,1,100,0.252092
1575664658.282371,179954.500,31048,2,EL,1,100,0.251851
1575664658.347063,180009.000,31048,2,EL,1,100,0.251488
1575664658.414723,180066.000,31066,2,EL,1,100,0.251569
1575664658.482383,180123.000,31066,2,EL,1,100,0.250884
1575664658.549448,180179.500,31084,2,EL,1,100,0.250884
1575664658.616515,180236.000,31084,2,EL,1,100,0.250642
1575664658.685361,180294.000,31102,1,EL,1,100,0.249836
1575664658.753021,180351.000,31120,2,EL,1,100,0.250924
1575664658.820680,180408.000,31120,2,EL,1,100,0.249957
1575664658.889527,180466.000,31137,2,EL,1,100,0.249716
1575664658.958374,180524.000,31137,2,EL,1,100,0.249152
1575664659.026627,180581.500,31156,2,EL,1,100,0.249756
1575664659.094880,180639.000,31156,2,EL,1,100,0.249192
1575664659.161946,180695.500,31172,2,EL,1,100,0.249474
1575664659.229012,180752.000,31172,2,EL,1,100,0.249474
1575664659.300233,180812.000,31190,1,EL,1,100,0.249353
1575664659.363738,180865.500,31208,2,EL,1,100,0.249434
1575664659.427243,180919.000,31208,2,EL,1,100,0.248829
1575664659.496089,180977.000,31226,2,EL,1,100,0.249434
1575664659.564936,181035.000,31226,2,EL,1,100,0.248990
1575664659.627254,181087.500,31244,2,EL,1,100,0.248870
1575664659.689572,181140.000,31244,2,EL,1,100,0.248829
1575664659.754264,181194.500,31262,2,EL,1,100,0.248749
1575664659.818956,181249.000,31262,2,EL,1,100,0.248104
1575664659.888990,181308.000,31280,1,EL,1,100,0.247943
1575664659.958430,181366.500,31298,2,EL,1,100,0.248145
1575664660.027870,181425.000,31298,2,EL,1,100,0.248467
1575664660.096716,181483.000,31316,2,EL,1,100,0.248427
1575664660.165563,181541.000,31316,2,EL,1,100,0.247661
1575664660.228475,181594.000,31332,2,EL,1,100,0.248346
1575664660.291386,181647.000,31332,2,EL,1,100,0.248547
1575664660.356078,181701.500,31350,2,EL,1,100,0.247822
1575664660.420770,181756.000,31350,2,EL,1,100,0.248064
1575664660.488430,181813.000,31368,1,EL,1,100,0.248628
1575664660.556683,181870.500,31386,2,EL,1,100,0.247661
1575664660.624936,181928.000,31386,2,EL,1,100,0.248145
1575664660.695563,181987.500,31404,2,EL,1,100,0.248306
1575664660.766190,182047.000,31404,2,EL,1,100,0.248265
1575664660.827321,182098.500,31422,2,EL,1,100,0.247379
1575664660.888452,182150.000,31422,2,EL,1,100,0.248064
1575664660.952551,182204.000,31440,2,EL,1,100,0.248386
1575664661.016649,182258.000,31440,2,EL,1,100,0.248265
1575664661.084309,182315.000,31459,1,EL,1,100,0.248346
1575664661.153155,182373.000,31476,2,EL,1,100,0.248104
1575664661.222002,182431.000,31476,2,EL,1,100,0.247701
1575664661.291442,182489.500,31494,2,EL,1,100,0.248870
1575664661.360882,182548.000,31494,2,EL,1,100,0.248024
1575664661.423200,182600.500,31512,2,EL,1,100,0.247983
1575664661.485518,182653.000,31512,2,EL,1,100,0.247782
1575664661.549023,182706.500,31528,2,EL,1,100,0.248588
1575664661.612528,182760.000,31528,2,EL,1,100,0.248306
1575664661.680188,182817.000,31546,1,EL,1,100,0.248386
1575664661.748441,182874.500,31564,2,EL,1,100,0.248104
1575664661.816694,182932.000,31564,2,EL,1,100,0.247782
1575664661.886134,182990.500,31582,2,EL,1,100,0.248507
1575664661.955574,183049.000,31582,2,EL,1,100,0.247581
1575664662.019673,183103.000,31604,3,EL,1,100,0.248628
1575664662.083771,183157.000,31604,3,EL,1,100,0.248265
1575664662.147870,183211.000,31604,3,EL,1,100,0.248225
1575664662.213156,183266.000,31624,2,EL,1,100,0.248427
1575664662.278441,183321.000,31624,2,EL,1,100,0.247983
1575664662.341946,183374.500,31640,2,EL,1,100,0.248507
1575664662.405451,183428.000,31640,2,EL,1,100,0.247983
1575664662.470737,183483.000,31658,2,EL,1,100,0.248547
1575664662.536022,183538.000,31658,2,EL,1,100,0.248024
1575664662.598934,183591.000,31676,1,EL,1,100,0.248507
1575664662.664219,183646.000,31694,2,EL,1,100,0.248588
1575664662.729505,183701.000,31694,2,EL,1,100,0.248104
1575664662.793603,183755.000,31712,2,EL,1,100,0.248145
1575664662.857702,183809.000,31712,2,EL,1,100,0.248709
1575664662.924768,183865.500,31730,2,EL,1,100,0.248185
1575664662.991834,183922.000,31730,2,EL,1,100,0.248104
1575664663.061274,183980.500,31749,2,EL,1,100,0.248386
1575664663.130714,184039.000,31749,2,EL,1,100,0.248749
1575664663.198374,184096.000,31767,1,EL,1,100,0.247782
1575664663.269595,184156.000,31784,2,EL,1,100,0.248870
1575664663.340815,184216.000,31784,2,EL,1,100,0.248427
1575664663.408475,184273.000,31802,2,EL,1,100,0.248547
1575664663.476134,184330.000,31802,2,EL,1,100,0.249192
1575664663.539639,184383.500,31818,2,EL,1,100,0.248507
1575664663.603144,184437.000,31818,2,EL,1,100,0.248547
1575664663.668430,184492.000,31836,2,EL,1,100,0.248870
1575664663.733716,184547.000,31836,2,EL,1,100,0.248789
1575664663.801375,184604.000,31854,1,EL,1,100,0.248427
1575664663.869035,184661.000,31872,2,EL,1,100,0.248829
1575664663.936694,184718.000,31872,2,EL,1,100,0.248306
1575664664.004947,184775.500,31891,2,EL,1,100,0.248870
1575664664.073200,184833.000,31891,2,EL,1,100,0.248870
1575664664.136706,184886.500,31909,2,EL,1,100,0.249031
1575664664.200211,184940.000,31909,2,EL,1,100,0.248346
1575664664.264309,184994.000,31927,2,EL,1,100,0.248990
1575664664.328408,185048.000,31927,2,EL,1,100,0.249836
1575664664.396067,185105.000,31945,1,EL,1,100,0.249353
1575664664.465507,185163.500,31962,2,EL,1,100,0.249675
1575664664.534947,185222.000,31962,2,EL,1,100,0.248990
1575664664.602607,185279.000,31980,2,EL,1,100,0.249232
1575664664.670267,185336.000,31980,2,EL,1,100,0.249554
1575664664.734365,185390.000,31996,2,EL,1,100,0.249756
1575664664.798464,185444.000,31996,2,EL,1,100,0.249957
1575664664.863156,185498.500,32014,2,EL,1,100,0.249675
1575664664.927848,185553.000,32014,2,EL,1,100,0.249393
1575664664.993133,185608.000,32033,1,EL,1,100,0.249514
1575664665.063167,185667.000,32051,2,EL,1,100,0.249514
1575664665.133201,185726.000,32051,2,EL,1,100,0.249313
1575664665.200267,185782.500,32069,2,EL,1,100,0.249635
1575664665.267333,185839.000,32069,2,EL,1,100,0.249353
1575664665.332618,185894.000,32087,2,EL,1,100,0.249957
1575664665.397904,185949.000,32087,2,EL,1,100,0.249232
1575664665.460815,186002.000,32105,2,EL,1,100,0.249393
1575664665.523727,186055.000,32105,2,EL,1,100,0.249957
1575664665.587826,186109.000,32123,1,EL,1,100,0.249192
1575664665.657859,186168.000,32141,2,EL,1,100,0.250118
1575664665.727893,186227.000,32141,2,EL,1,100,0.250320
1575664665.796146,186284.500,32158,2,EL,1,100,0.250562
1575664665.864399,186342.000,32158,2,EL,1,100,0.250441
1575664665.929091,186396.500,32174,2,EL,1,100,0.249796
1575664665.993783,186451.000,32174,2,EL,1,100,0.250280
1575664666.063223,186509.500,32193,2,EL,1,100,0.249554
1575664666.132663,186568.000,32193,2,EL,1,100,0.249998
1575664666.193201,186619.000,32211,1,EL,1,100,0.249675
1575664666.262641,186677.500,32229,2,EL,1,100,0.249434
1575664666.332081,186736.000,32229,2,EL,1,100,0.249474
1575664666.396773,186790.500,32247,2,EL,1,100,0.249071
1575664666.461465,186845.000,32247,2,EL,1,100,0.250280
1575664666.528531,186901.500,32265,2,EL,1,100,0.249635
1575664666.595597,186958.000,32265,2,EL,1,100,0.249716
1575664666.659102,187011.500,32283,2,EL,1,100,0.250199
1575664666.722607,187065.000,32283,2,EL,1,100,0.250118
1575664666.787893,187120.000,32301,2,EL,1,100,0.250320
1575664666.853178,187175.000,32301,2,EL,1,100,0.249756
1575664666.923212,187234.000,32319,1,EL,1,100,0.250280
1575664666.991465,187291.500,32337,2,EL,1,100,0.249998
1575664667.059718,187349.000,32337,2,EL,1,100,0.249393
1575664667.126784,187405.500,32355,2,EL,1,100,0.248870
1575664667.193850,187462.000,32355,2,EL,1,100,0.249071
1575664667.263884,187521.000,32371,1,EL,1,100,0.249192
1575664667.332137,187578.500,32389,2,EL,1,100,0.249554
1575664667.400390,187636.000,32389,2,EL,1,100,0.249434
1575664667.463895,187689.500,32407,2,EL,1,100,0.249998
1575664667.527400,187743.000,32407,2,EL,1,100,0.249796
1575664667.590905,187796.500,32425,2,EL,1,100,0.249796
1575664667.654410,187850.000,32425,2,EL,1,100,0.250723
1575664667.722070,187907.000,32443,2,EL,1,100,0.251569
1575664667.789729,187964.000,32443,2,EL,1,100,0.251569
1575664667.857389,188021.000,32461,2,EL,1,100,0.251367
1575664667.925049,188078.000,32461,2,EL,1,100,0.252535
1575664667.995082,188137.000,32480,1,EL,1,100,0.251649
1575664668.057994,188190.000,32500,3,EL,1,100,0.251528
1575664668.120905,188243.000,32500,3,EL,1,100,0.251770
1575664668.183817,188296.000,32500,3,EL,1,100,0.251649
1575664668.250289,188352.000,32520,2,EL,1,100,0.252092
1575664668.316762,188408.000,32520,2,EL,1,100,0.251488
1575664668.384422,188465.000,32538,2,EL,1,100,0.252455
1575664668.452081,188522.000,32538,2,EL,1,100,0.252656
1575664668.521521,188580.500,32556,2,EL,1,100,0.252455
1575664668.590961,188639.000,32556,2,EL,1,100,0.252737
1575664668.656247,188694.000,32574,1,EL,1,100,0.253462
1575664668.719158,188747.000,32592,2,EL,1,100,0.253059
1575664668.782070,188800.000,32592,2,EL,1,100,0.252495
1575664668.847949,188855.500,32609,2,EL,1,100,0.253422
1575664668.913828,188911.000,32609,2,EL,1,100,0.251810
1575664668.980894,188967.500,32628,2,EL,1,100,0.253381
1575664669.047960,189024.000,32628,2,EL,1,100,0.253502
1575664669.116807,189082.000,32644,2,EL,1,100,0.253542
1575664669.185653,189140.000,32644,2,EL,1,100,0.253945
1575664669.251533,189195.500,32662,2,EL,1,100,0.254026
1575664669.317411,189251.000,32662,2,EL,1,100,0.254187
1575664669.379136,189303.000,32680,1,EL,1,100,0.254590
1575664669.444422,189358.000,32698,2,EL,1,100,0.254308
1575664669.509707,189413.000,32698,2,EL,1,100,0.253784
1575664669.576773,189469.500,32716,2,EL,1,100,0.253986
1575664669.643839,189526.000,32716,2,EL,1,100,0.253623
1575664669.711499,189583.000,32734,2,EL,1,100,0.254106
1575664669.779158,189640.000,32734,2,EL,1,100,0.253744
1575664669.848598,189698.500,32752,2,EL,1,100,0.254388
1575664669.918039,189757.000,32752,2,EL,1,100,0.254429
1575664669.983324,189812.000,32771,1,EL,1,100,0.253583
1575664670.055138,189872.500,32788,2,EL,1,100,0.254106
1575664670.126952,189933.000,32788,2,EL,1,100,0.253704
1575664670.195799,189991.000,32806,2,EL,1,100,0.253260
1575664670.264646,190049.000,32806,2,EL,1,100,0.253341
1575664670.335866,190109.000,32822,1,EL,1,100,0.254106
1575664670.404119,190166.500,32840,2,EL,1,100,0.253784
1575664670.472373,190224.000,32840,2,EL,1,100,0.253542
1575664670.537065,190278.500,32858,2,EL,1,100,0.253260
1575664670.601757,190333.000,32858,2,EL,1,100,0.253663
1575664670.665855,190387.000,32876,2,EL,1,100,0.254429
1575664670.729954,190441.000,32876,2,EL,1,100,0.253462
1575664670.797020,190497.500,32894,2,EL,1,100,0.253905
1575664670.864086,190554.000,32894,2,EL,1,100,0.253865
1575664670.934119,190613.000,32912,1,EL,1,100,0.253704
1575664671.003560,190671.500,32930,2,EL,1,100,0.253945
1575664671.072999,190730.000,32930,2,EL,1,100,0.253583
1575664671.140659,190787.000,32948,2,EL,1,100,0.253824
1575664671.208319,190844.000,32948,2,EL,1,100,0.253663
1575664671.279539,190904.000,32964,2,EL,1,100,0.253623
1575664671.350760,190964.000,32964,2,EL,1,100,0.253623
1575664671.412484,191016.000,32982,2,EL,1,100,0.253744
1575664671.474209,191068.000,32982,2,EL,1,100,0.254066
1575664671.538308,191122.000,33000,1,EL,1,100,0.253623
1575664671.604187,191177.500,33018,2,EL,1,100,0.253824
1575664671.670066,191233.000,33018,2,EL,1,100,0.253583
1575664671.738912,191291.000,33036,2,EL,1,100,0.254227
1575664671.807759,191349.000,33036,2,EL,1,100,0.253824
1575664671.877199,191407.500,33054,2,EL,1,100,0.254832
1575664671.946639,191466.000,33054,2,EL,1,100,0.253945
1575664672.010144,191519.500,33073,2,EL,1,100,0.254026
1575664672.073649,191573.000,33073,2,EL,1,100,0.254348
1575664672.138935,191628.000,33091,1,EL,1,100,0.254711
1575664672.203627,191682.500,33108,2,EL,1,100,0.254429
1575664672.268319,191737.000,33108,2,EL,1,100,0.254106
1575664672.336572,191794.500,33126,2,EL,1,100,0.254308
1575664672.404825,191852.000,33126,2,EL,1,100,0.254791
1575664672.474859,191911.000,33142,2,EL,1,100,0.255114
1575664672.544892,191970.000,33142,2,EL,1,100,0.255033
1575664672.607804,192023.000,33160,2,EL,1,100,0.254751
1575664672.670715,192076.000,33160,2,EL,1,100,0.254832
1575664672.733627,192129.000,33178,2,EL,1,100,0.255154
1575664672.796538,192182.000,33178,2,EL,1,100,0.255275
1575664672.863011,192238.000,33196,1,EL,1,100,0.255194
1575664672.930670,192295.000,33215,2,EL,1,100,0.255436
1575664672.998330,192352.000,33215,2,EL,1,100,0.254912
1575664673.067770,192410.500,33233,2,EL,1,100,0.255355
1575664673.137210,192469.000,33233,2,EL,1,100,0.255275
1575664673.201902,192523.500,33251,2,EL,1,100,0.255677
1575664673.266594,192578.000,33251,2,EL,1,100,0.255234
1575664673.330099,192631.500,33269,2,EL,1,100,0.255073
1575664673.393605,192685.000,33269,2,EL,1,100,0.255476
1575664673.460077,192741.000,33287,1,EL,1,100,0.255355
1575664673.523582,192794.500,33304,2,EL,1,100,0.255476
1575664673.587087,192848.000,33304,2,EL,1,100,0.254952
1575664673.651779,192902.500,33322,2,EL,1,100,0.255234
1575664673.716471,192957.000,33322,2,EL,1,100,0.254952
1575664673.779976,193010.500,33340,2,EL,1,100,0.256080
1575664673.843481,193064.000,33340,2,EL,1,100,0.255234
1575664673.910547,193120.500,33358,2,EL,1,100,0.255758
1575664673.977613,193177.000,33358,2,EL,1,100,0.255073
1575664674.050021,193238.000,33375,1,EL,1,100,0.255073
1575664674.118076,193295.333,33396,3,EL,1,100,0.256040
1575664674.186132,193352.667,33396,3,EL,1,100,0.255476
1575664674.254187,193410.000,33396,3,EL,1,100,0.255839
1575664674.322440,193467.500,33416,2,EL,1,100,0.255919
1575664674.390693,193525.000,33416,2,EL,1,100,0.255557
1575664674.456572,193580.500,33432,2,EL,1,100,0.255718
1575664674.522451,193636.000,33432,2,EL,1,100,0.255718
1575664674.584769,193688.500,33450,2,EL,1,100,0.255637
1575664674.647087,193741.000,33450,2,EL,1,100,0.255839
1575664674.714747,193798.000,33468,2,EL,1,100,0.255677
1575664674.782406,193855.000,33468,2,EL,1,100,0.255758
1575664674.848879,193911.000,33486,1,EL,1,100,0.256161
1575664674.917726,193969.000,33505,2,EL,1,100,0.255597
1575664674.986572,194027.000,33505,2,EL,1,100,0.255919
1575664675.053045,194083.000,33523,2,EL,1,100,0.255597
1575664675.119517,194139.000,33523,2,EL,1,100,0.255597
1575664675.182429,194192.000,33541,2,EL,1,100,0.255677
1575664675.245340,194245.000,33541,2,EL,1,100,0.256000
1575664675.311813,194301.000,33559,2,EL,1,100,0.255234
1575664675.378285,194357.000,33559,2,EL,1,100,0.255959
1575664675.445945,194414.000,33577,1,EL,1,100,0.255436
1575664675.514792,194472.000,33594,2,EL,1,100,0.256161
1575664675.583638,194530.000,33594,2,EL,1,100,0.255919
1575664675.651891,194587.500,33612,2,EL,1,100,0.255557
1575664675.720145,194645.000,33612,2,EL,1,100,0.255557
1575664675.781869,194697.000,33628,2,EL,1,100,0.255718
1575664675.843594,194749.000,33628,2,EL,1,100,0.255919
1575664675.908879,194804.000,33646,2,EL,1,100,0.255476
1575664675.974165,194859.000,33646,2,EL,1,100,0.256000
1575664676.041824,194916.000,33665,1,EL,1,100,0.256080
1575664676.111264,194974.500,33683,2,EL,1,100,0.255839
1575664676.180704,195033.000,33683,2,EL,1,100,0.255114
1575664676.249551,195091.000,33701,2,EL,1,100,0.255154
1575664676.318398,195149.000,33701,2,EL,1,100,0.255516
1575664676.380122,195201.000,33719,2,EL,1,100,0.254791
1575664676.441847,195253.000,33719,2,EL,1,100,0.256000
1575664676.505945,195307.000,33737,2,EL,1,100,0.255114
1575664676.570044,195361.000,33737,2,EL,1,100,0.254952
1575664676.637703,195418.000,33755,1,EL,1,100,0.255073
1575664676.706550,195476.000,33772,2,EL,1,100,0.254711
1575664676.775397,195534.000,33772,2,EL,1,100,0.255033
1575664676.844837,195592.500,33790,2,EL,1,100,0.254751
1575664676.914277,195651.000,33790,2,EL,1,100,0.254670
1575664676.978375,195705.000,33809,2,EL,1,100,0.254711
1575664677.042474,195759.000,33809,2,EL,1,100,0.254952
1575664677.109540,195815.500,33825,2,EL,1,100,0.254630
1575664677.176606,195872.000,33825,2,EL,1,100,0.254670
1575664677.244266,195929.000,33843,1,EL,1,100,0.255476
1575664677.310738,195985.000,33861,2,EL,1,100,0.255516
1575664677.377211,196041.000,33861,2,EL,1,100,0.255073
1575664677.446651,196099.500,33879,2,EL,1,100,0.255919
1575664677.516091,196158.000,33879,2,EL,1,100,0.255234
1575664677.579002,196211.000,33897,2,EL,1,100,0.255436
1575664677.641914,196264.000,33897,2,EL,1,100,0.255476
1575664677.704825,196317.000,33915,2,EL,1,100,0.255396
1575664677.767737,196370.000,33915,2,EL,1,100,0.255637
1575664677.838958,196430.000,33933,1,EL,1,100,0.255758
1575664677.902463,196483.500,33951,2,EL,1,100,0.255436
1575664677.965968,196537.000,33951,2,EL,1,100,0.255839
1575664678.034221,196594.500,33969,2,EL,1,100,0.255758
1575664678.102474,196652.000,33969,2,EL,1,100,0.255597
1575664678.170727,196709.500,33987,2,EL,1,100,0.255919
1575664678.238980,196767.000,33987,2,EL,1,100,0.255557
1575664678.307233,196824.500,34003,2,EL,1,100,0.255677
1575664678.375486,196882.000,34003,2,EL,1,100,0.256000
1575664678.438398,196935.000,34021,1,EL,1,100,0.256161
1575664678.501903,196988.500,34039,2,EL,1,100,0.255597
1575664678.565408,197042.000,34039,2,EL,1,100,0.255677
1575664678.631287,197097.500,34057,2,EL,1,100,0.255718
1575664678.697166,197153.000,34057,2,EL,1,100,0.255315
1575664678.765419,197210.500,34075,2,EL,1,100,0.255919
1575664678.833672,197268.000,34075,2,EL,1,100,0.255597
1575664678.902519,197326.000,34093,2,EL,1,100,0.255677
1575664678.971365,197384.000,34093,2,EL,1,100,0.256161
1575664679.034277,197437.000,34112,2,EL,1,100,0.255718
1575664679.097188,197490.000,34112,2,EL,1,100,0.255919
1575664679.160100,197543.000,34130,1,EL,1,100,0.256282
1575664679.226573,197599.000,34147,2,EL,1,100,0.256564
1575664679.293045,197655.000,34147,2,EL,1,100,0.255959
1575664679.360705,197712.000,34165,2,EL,1,100,0.256443
1575664679.428364,197769.000,34165,2,EL,1,100,0.256322
1575664679.497804,197827.500,34183,2,EL,1,100,0.256161
1575664679.567245,197886.000,34183,2,EL,1,100,0.256241
1575664679.633717,197942.000,34199,1,EL,1,100,0.256483
1575664679.696629,197995.000,34217,2,EL,1,100,0.256241
1575664679.759540,198048.000,34217,2,EL,1,100,0.256564
1575664679.825419,198103.500,34235,2,EL,1,100,0.256523
1575664679.891298,198159.000,34235,2,EL,1,100,0.256886
1575664679.958364,198215.500,34254,2,EL,1,100,0.256725
1575664680.025430,198272.000,34254,2,EL,1,100,0.256765
1575664680.094277,198330.000,34272,2,EL,1,100,0.256926
1575664680.163124,198388.000,34272,2,EL,1,100,0.256403
1575664680.227618,198442.333,34293,3,EL,1,100,0.256725
1575664680.292112,198496.667,34293,3,EL,1,100,0.257289
1575664680.356606,198551.000,34293,3,EL,1,100,0.257168
1575664680.418331,198603.000,34313,1,EL,1,100,0.256886
1575664680.485397,198659.500,34331,2,EL,1,100,0.256644
1575664680.552463,198716.000,34331,2,EL,1,100,0.256765
1575664680.620716,198773.500,34349,2,EL,1,100,0.256685
1575664680.688969,198831.000,34349,2,EL,1,100,0.257128
1575664680.757222,198888.500,34367,2,EL,1,100,0.256926
1575664680.825475,198946.000,34367,2,EL,1,100,0.257369
1575664680.891948,199002.000,34385,2,EL,1,100,0.257168
1575664680.958421,199058.000,34385,2,EL,1,100,0.257249
1575664681.030828,199119.000,34404,1,EL,1,100,0.256483
1575664681.099081,199176.500,34421,2,EL,1,100,0.256926
1575664681.167334,199234.000,34421,2,EL,1,100,0.257208
1575664681.238555,199294.000,34439,2,EL,1,100,0.257007
1575664681.309775,199354.000,34439,2,EL,1,100,0.257611
1575664681.378029,199411.500,34455,2,EL,1,100,0.257087
1575664681.446282,199469.000,34455,2,EL,1,100,0.257410
1575664681.513941,199526.000,34473,1,EL,1,100,0.256523
1575664681.579820,199581.500,34491,2,EL,1,100,0.256967
1575664681.645699,199637.000,34491,2,EL,1,100,0.256403
1575664681.710985,199692.000,34509,2,EL,1,100,0.257087
1575664681.776270,199747.000,34509,2,EL,1,100,0.257249
1575664681.840369,199801.000,34527,2,EL,1,100,0.257007
1575664681.904468,199855.000,34527,2,EL,1,100,0.257128
1575664681.970940,199911.000,34546,2,EL,1,100,0.256967
1575664682.037413,199967.000,34546,2,EL,1,100,0.257369
1575664682.107446,200026.000,34564,1,EL,1,100,0.256725
1575664682.175699,200083.500,34581,2,EL,1,100,0.257289
1575664682.243953,200141.000,34581,2,EL,1,100,0.256725
1575664682.311018,200197.500,34599,2,EL,1,100,0.256685
1575664682.378085,200254.000,34599,2,EL,1,100,0.256765
1575664682.440403,200306.500,34617,2,EL,1,100,0.257329
1575664682.502721,200359.000,34617,2,EL,1,100,0.257571
1575664682.569193,200415.000,34633,2,EL,1,100,0.256926
1575664682.635666,200471.000,34633,2,EL,1,100,0.256805
1575664682.704512,200529.000,34651,1,EL,1,100,0.256765
1575664682.772172,200586.000,34669,2,EL,1,100,0.256926
1575664682.839832,200643.000,34669,2,EL,1,100,0.257047
1575664682.908085,200700.500,34687,2,EL,1,100,0.257490
1575664682.976338,200758.000,34687,2,EL,1,100,0.256483
1575664683.039843,200811.500,34706,2,EL,1,100,0.256483
1575664683.103348,200865.000,34706,2,EL,1,100,0.256523
1575664683.168040,200919.500,34724,2,EL,1,100,0.257087
1575664683.232732,200974.000,34724,2,EL,1,100,0.256483
1575664683.303952,201034.000,34742,1,EL,1,100,0.256322
1575664683.371019,201090.500,34759,2,EL,1,100,0.257047
1575664683.438085,201147.000,34759,2,EL,1,100,0.256604
1575664683.506931,201205.000,34777,2,EL,1,100,0.256443
1575664683.575778,201263.000,34777,2,EL,1,100,0.255959
1575664683.638096,201315.500,34793,2,EL,1,100,0.257047
1575664683.700414,201368.000,34793,2,EL,1,100,0.256241
1575664683.764513,201422.000,34811,2,EL,1,100,0.256604
1575664683.828611,201476.000,34811,2,EL,1,100,0.256282
1575664683.896271,201533.000,34829,2,EL,1,100,0.255758
1575664683.963930,201590.000,34829,2,EL,1,100,0.256564
1575664684.031590,201647.000,34848,1,EL,1,100,0.257007
1575664684.101623,201706.000,34866,2,EL,1,100,0.256362
1575664684.171657,201765.000,34866,2,EL,1,100,0.256483
1575664684.234569,201818.000,34884,2,EL,1,100,0.257047
1575664684.297480,201871.000,34884,2,EL,1,100,0.256886
1575664684.361579,201925.000,34902,2,EL,1,100,0.257531
1575664684.425677,201979.000,34902,2,EL,1,100,0.256805
1575664684.489182,202032.500,34920,2,EL,1,100,0.256685
1575664684.552687,202086.000,34920,2,EL,1,100,0.256765
1575664684.617379,202140.500,34938,2,EL,1,100,0.256644
1575664684.682071,202195.000,34938,2,EL,1,100,0.256604
1575664684.743796,202247.000,34956,1,EL,1,100,0.256846
1575664684.808488,202301.500,34973,2,EL,1,100,0.256282
1575664684.873180,202356.000,34973,2,EL,1,100,0.256846
1575664684.937279,202410.000,34992,2,EL,1,100,0.256483
1575664685.001377,202464.000,34992,2,EL,1,100,0.256161
1575664685.067850,202520.000,35010,2,EL,1,100,0.255879
1575664685.134322,202576.000,35010,2,EL,1,100,0.255476
1575664685.203762,202634.500,35026,2,EL,1,100,0.256080
1575664685.273202,202693.000,35026,2,EL,1,100,0.256161
1575664685.340862,202750.000,35044,1,EL,1,100,0.255637
1575664685.406741,202805.500,35062,2,EL,1,100,0.255919
1575664685.472620,202861.000,35062,2,EL,1,100,0.255879
1575664685.537906,202916.000,35080,2,EL,1,100,0.255436
1575664685.603191,202971.000,35080,2,EL,1,100,0.254912
1575664685.666103,203024.000,35098,2,EL,1,100,0.255114
1575664685.729014,203077.000,35098,2,EL,1,100,0.254308
1575664685.794300,203132.000,35116,2,EL,1,100,0.255677
1575664685.859586,203187.000,35116,2,EL,1,100,0.255557
1575664685.927245,203244.000,35135,2,EL,1,100,0.256282
1575664685.994905,203301.000,35135,2,EL,1,100,0.256805
1575664686.063751,203359.000,35153,1,EL,1,100,0.256483
1575664686.132598,203417.000,35170,2,EL,1,100,0.255355
1575664686.201444,203475.000,35170,2,EL,1,100,0.255194
1575664686.265147,203528.667,35191,3,EL,1,100,0.255355
1575664686.328850,203582.333,35191,3,EL,1,100,0.254872
1575664686.392553,203636.000,35191,3,EL,1,100,0.255758
1575664686.457839,203691.000,35211,2,EL,1,100,0.256362
1575664686.523124,203746.000,35211,2,EL,1,100,0.255436
1575664686.592564,203804.500,35229,2,EL,1,100,0.256201
1575664686.662004,203863.000,35229,2,EL,1,100,0.256000
1575664686.728477,203919.000,35247,1,EL,1,100,0.256201
1575664686.797323,203977.000,35264,2,EL,1,100,0.255275
1575664686.866170,204035.000,35264,2,EL,1,100,0.256161
1575664686.927895,204087.000,35283,2,EL,1,100,0.257168
1575664686.989619,204139.000,35283,2,EL,1,100,0.256886
1575664687.055498,204194.500,35301,2,EL,1,100,0.258376
1575664687.121377,204250.000,35301,2,EL,1,100,0.258336
1575664687.191411,204309.000,35317,2,EL,1,100,0.258457
1575664687.261445,204368.000,35317,2,EL,1,100,0.258618
1575664687.327917,204424.000,35335,1,EL,1,100,0.258820
1575664687.397357,204482.500,35353,2,EL,1,100,0.258981
1575664687.466797,204541.000,35353,2,EL,1,100,0.258417
1575664687.527928,204592.500,35371,2,EL,1,100,0.258175
1575664687.589059,204644.000,35371,2,EL,1,100,0.257853
1575664687.653158,204698.000,35389,2,EL,1,100,0.257772
1575664687.717256,204752.000,35389,2,EL,1,100,0.257571
1575664687.787290,204811.000,35407,2,EL,1,100,0.257611
1575664687.857324,204870.000,35407,2,EL,1,100,0.258094
1575664687.922609,204925.000,35426,1,EL,1,100,0.258739
1575664687.992049,204983.500,35444,2,EL,1,100,0.258900
1575664688.061489,205042.000,35444,2,EL,1,100,0.259061
1575664688.126181,205096.500,35461,2,EL,1,100,0.258860
1575664688.190873,205151.000,35461,2,EL,1,100,0.259142
1575664688.257940,205207.500,35479,2,EL,1,100,0.259384
1575664688.325006,205264.000,35479,2,EL,1,100,0.258981
1575664688.394446,205322.500,35495,2,EL,1,100,0.259827
1575664688.463886,205381.000,35495,2,EL,1,100,0.259142
1575664688.525610,205433.000,35513,1,EL,1,100,0.260109
1575664688.595051,205491.500,35531,2,EL,1,100,0.259585
1575664688.664490,205550.000,35531,2,EL,1,100,0.259786
1575664688.727402,205603.000,35549,2,EL,1,100,0.259343
1575664688.790314,205656.000,35549,2,EL,1,100,0.259182
1575664688.853819,205709.500,35567,2,EL,1,100,0.260189
1575664688.917324,205763.000,35567,2,EL,1,100,0.260229
1575664688.985577,205820.500,35586,2,EL,1,100,0.259867
1575664689.053830,205878.000,35586,2,EL,1,100,0.259786
1575664689.119115,205933.000,35604,1,EL,1,100,0.260189
1575664689.189149,205992.000,35622,2,EL,1,100,0.259867
1575664689.259183,206051.000,35622,2,EL,1,100,0.260068
1575664689.326842,206108.000,35639,2,EL,1,100,0.260310
1575664689.394502,206165.000,35639,2,EL,1,100,0.260552
1575664689.463942,206223.500,35657,2,EL,1,100,0.260189
1575664689.533382,206282.000,35657,2,EL,1,100,0.259746
1575664689.596887,206335.500,35673,2,EL,1,100,0.260229
1575664689.660392,206389.000,35673,2,EL,1,100,0.259827
1575664689.723304,206442.000,35691,2,EL,1,100,0.259504
1575664689.786215,206495.000,35691,2,EL,1,100,0.260109
1575664689.853875,206552.000,35709,1,EL,1,100,0.260592
1575664689.921534,206609.000,35728,2,EL,1,100,0.260270
1575664689.989194,206666.000,35728,2,EL,1,100,0.259263
1575664690.058634,206724.500,35746,2,EL,1,100,0.259666
1575664690.128074,206783.000,35746,2,EL,1,100,0.259786
1575664690.191579,206836.500,35764,2,EL,1,100,0.259666
1575664690.255084,206890.000,35764,2,EL,1,100,0.260149
1575664690.318589,206943.500,35782,2,EL,1,100,0.259867
1575664690.382094,206997.000,35782,2,EL,1,100,0.260068
1575664690.450941,207055.000,35800,1,EL,1,100,0.260310
1575664690.518600,207112.000,35817,2,EL,1,100,0.259907
1575664690.586260,207169.000,35817,2,EL,1,100,0.260229
1575664690.655107,207227.000,35835,2,EL,1,100,0.260632
1575664690.723953,207285.000,35835,2,EL,1,100,0.260713
1575664690.790426,207341.000,35851,2,EL,1,100,0.260109
1575664690.856898,207397.000,35851,2,EL,1,100,0.260592
1575664690.918029,207448.500,35870,2,EL,1,100,0.259545
1575664690.979160,207500.000,35870,2,EL,1,100,0.260431
1575664691.048007,207558.000,35888,1,EL,1,100,0.260109
1575664691.115073,207614.500,35906,2,EL,1,100,0.260995
1575664691.182139,207671.000,35906,2,EL,1,100,0.259867
1575664691.250986,207729.000,35924,2,EL,1,100,0.260955
1575664691.319832,207787.000,35924,2,EL,1,100,0.259988
1575664691.386305,207843.000,35942,2,EL,1,100,0.260673
1575664691.452777,207899.000,35942,2,EL,1,100,0.260793
1575664691.514502,207951.000,35960,2,EL,1,100,0.260270
1575664691.576226,208003.000,35960,2,EL,1,100,0.260109
1575664691.643886,208060.000,35978,1,EL,1,100,0.260552
1575664691.710359,208116.000,35996,2,EL,1,100,0.260713
1575664691.776831,208172.000,35996,2,EL,1,100,0.260592
1575664691.841523,208226.500,36014,2,EL,1,100,0.260713
1575664691.906215,208281.000,36014,2,EL,1,100,0.261116
1575664691.975656,208339.500,36032,2,EL,1,100,0.261317
1575664692.045096,208398.000,36032,2,EL,1,100,0.261357
1575664692.113942,208456.000,36048,2,EL,1,100,0.261237
1575664692.182789,208514.000,36048,2,EL,1,100,0.260793
1575664692.254009,208574.000,36066,1,EL,1,100,0.261156
1575664692.323647,208632.667,36087,3,EL,1,100,0.260955
1575664692.393285,208691.333,36087,3,EL,1,100,0.261196
1575664692.462923,208750.000,36087,3,EL,1,100,0.261478
1575664692.531176,208807.500,36107,2,EL,1,100,0.261156
1575664692.599429,208865.000,36107,2,EL,1,100,0.260834
1575664692.664715,208920.000,36123,2,EL,1,100,0.260995
1575664692.730000,208975.000,36123,2,EL,1,100,0.261035
1575664692.794099,209029.000,36141,1,EL,1,100,0.261398
1575664692.858197,209083.000,36160,2,EL,1,100,0.261438
1575664692.922296,209137.000,36160,2,EL,1,100,0.261519
1575664692.991143,209195.000,36178,2,EL,1,100,0.261237
1575664693.059989,209253.000,36178,2,EL,1,100,0.261559
1575664693.129429,209311.500,36196,2,EL,1,100,0.261398
1575664693.198869,209370.000,36196,2,EL,1,100,0.260955
1575664693.266529,209427.000,36214,2,EL,1,100,0.260592
1575664693.334189,209484.000,36214,2,EL,1,100,0.261720
1575664693.405409,209544.000,36232,1,EL,1,100,0.261962
1575664693.473069,209601.000,36249,2,EL,1,100,0.261881
1575664693.540728,209658.000,36249,2,EL,1,100,0.261035
1575664693.603046,209710.500,36267,2,EL,1,100,0.261438
1575664693.665365,209763.000,36267,2,EL,1,100,0.261801
1575664693.730057,209817.500,36285,2,EL,1,100,0.261841
1575664693.794749,209872.000,36285,2,EL,1,100,0.261921
1575664693.863595,209930.000,36301,2,EL,1,100,0.261680
1575664693.932442,209988.000,36301,2,EL,1,100,0.262324
1575664694.000101,210045.000,36320,1,EL,1,100,0.261720
1575664694.068948,210103.000,36338,2,EL,1,100,0.261962
1575664694.137794,210161.000,36338,2,EL,1,100,0.262163
1575664694.201300,210214.500,36356,2,EL,1,100,0.261801
1575664694.264805,210268.000,36356,2,EL,1,100,0.262244
1575664694.328903,210322.000,36374,2,EL,1,100,0.261801
1575664694.393002,210376.000,36374,2,EL,1,100,0.261962
1575664694.461848,210434.000,36392,2,EL,1,100,0.262123
1575664694.530695,210492.000,36392,2,EL,1,100,0.262365
1575664694.598355,210549.000,36410,1,EL,1,100,0.261720
1575664694.667794,210607.500,36427,2,EL,1,100,0.262566
1575664694.737235,210666.000,36427,2,EL,1,100,0.262848
1575664694.799553,210718.500,36445,2,EL,1,100,0.262808
1575664694.861871,210771.000,36445,2,EL,1,100,0.262365
1575664694.925969,210825.000,36464,2,EL,1,100,0.262888
1575664694.990068,210879.000,36464,2,EL,1,100,0.262324
1575664695.057727,210936.000,36480,2,EL,1,100,0.262526
1575664695.125387,210993.000,36480,2,EL,1,100,0.262445
1575664695.193047,211050.000,36498,1,EL,1,100,0.262928
1575664695.262487,211108.500,36516,2,EL,1,100,0.262727
1575664695.331927,211167.000,36516,2,EL,1,100,0.262526
1575664695.395432,211220.500,36534,2,EL,1,100,0.263009
1575664695.458937,211274.000,36534,2,EL,1,100,0.262848
1575664695.523036,211328.000,36552,2,EL,1,100,0.262969
1575664695.587134,211382.000,36552,2,EL,1,100,0.262687
1575664695.650045,211435.000,36570,2,EL,1,100,0.263452
1575664695.712957,211488.000,36570,2,EL,1,100,0.263412
1575664695.777649,211542.500,36588,2,EL,1,100,0.262888
1575664695.842341,211597.000,36588,2,EL,1,100,0.262848
1575664695.906440,211651.000,36607,2,EL,1,100,0.263210
1575664695.970538,211705.000,36607,2,EL,1,100,0.262928
1575664696.034637,211759.000,36625,1,EL,1,100,0.262727
1575664696.098142,211812.500,36642,2,EL,1,100,0.262767
1575664696.161647,211866.000,36642,2,EL,1,100,0.262928
1575664696.228119,211922.000,36660,2,EL,1,100,0.263936
1575664696.294592,211978.000,36660,2,EL,1,100,0.263936
1575664696.364032,212036.500,36678,2,EL,1,100,0.264258
1575664696.433472,212095.000,36678,2,EL,1,100,0.263573
1575664696.501132,212152.000,36694,1,EL,1,100,0.264097
1575664696.568198,212208.500,36712,2,EL,1,100,0.264459
1575664696.635264,212265.000,36712,2,EL,1,100,0.263452
1575664696.701143,212320.500,36730,2,EL,1,100,0.264177
1575664696.767022,212376.000,36730,2,EL,1,100,0.264016
1575664696.829934,212429.000,36748,2,EL,1,100,0.264097
1575664696.892845,212482.000,36748,2,EL,1,100,0.263895
1575664696.958724,212537.500,36767,2,EL,1,100,0.263452
1575664697.024603,212593.000,36767,2,EL,1,100,0.264419
1575664697.091669,212649.500,36785,2,EL,1,100,0.263936
1575664697.158736,212706.000,36785,2,EL,1,100,0.263734
1575664697.227582,212764.000,36803,1,EL,1,100,0.263492
1575664697.295835,212821.500,36820,2,EL,1,100,0.264379
1575664697.364088,212879.000,36820,2,EL,1,100,0.264177
1575664697.428780,212933.500,36838,2,EL,1,100,0.264056
1575664697.493472,212988.000,36838,2,EL,1,100,0.264097
1575664697.556977,213041.500,36856,2,EL,1,100,0.264056
1575664697.620482,213095.000,36856,2,EL,1,100,0.263492
1575664697.687548,213151.500,36874,2,EL,1,100,0.264218
1575664697.754615,213208.000,36874,2,EL,1,100,0.263372
1575664697.827022,213269.000,36890,1,EL,1,100,0.263815
1575664697.894682,213326.000,36909,2,EL,1,100,0.263895
1575664697.962341,213383.000,36909,2,EL,1,100,0.263170
1575664698.027627,213438.000,36927,2,EL,1,100,0.264137
1575664698.092912,213493.000,36927,2,EL,1,100,0.263613
1575664698.157011,213547.000,36945,2,EL,1,100,0.264580
1575664698.221110,213601.000,36945,2,EL,1,100,0.264379
1575664698.287582,213657.000,36963,2,EL,1,100,0.264943
1575664698.354055,213713.000,36963,2,EL,1,100,0.264499
1575664698.423495,213771.500,36984,2,EL,1,100,0.265063
1575664698.492935,213830.000,36984,2,EL,1,100,0.264701
1575664698.562968,213889.000,37004,2,EL,1,100,0.264983
1575664698.633002,213948.000,37004,2,EL,1,100,0.264781
1575664698.694133,213999.500,37022,2,EL,1,100,0.264983
1575664698.755264,214051.000,37022,2,EL,1,100,0.264741
1575664698.819363,214105.000,37040,2,EL,1,100,0.264983
1575664698.883461,214159.000,37040,2,EL,1,100,0.264781
1575664698.952901,214217.500,37059,2,EL,1,100,0.265466
1575664699.022341,214276.000,37059,2,EL,1,100,0.265063
1575664699.088814,214332.000,37077,2,EL,1,100,0.264822
1575664699.155287,214388.000,37077,2,EL,1,100,0.265104
1575664699.226507,214448.000,37095,1,EL,1,100,0.265144
1575664699.291199,214502.500,37112,2,EL,1,100,0.264056
1575664699.355891,214557.000,37112,2,EL,1,100,0.263976
1575664699.423551,214614.000,37130,2,EL,1,100,0.263855
1575664699.491210,214671.000,37130,2,EL,1,100,0.264056
1575664699.560651,214729.500,37146,2,EL,1,100,0.264701
1575664699.630091,214788.000,37146,2,EL,1,100,0.263855
1575664699.693002,214841.000,37164,1,EL,1,100,0.264338
1575664699.762442,214899.500,37182,2,EL,1,100,0.264218
1575664699.831882,214958.000,37182,2,EL,1,100,0.264459
1575664699.895981,215012.000,37201,2,EL,1,100,0.263976
1575664699.960079,215066.000,37201,2,EL,1,100,0.264540
1575664700.023585,215119.500,37219,2,EL,1,100,0.264540
1575664700.087090,215173.000,37219,2,EL,1,100,0.264177
1575664700.155343,215230.500,37237,2,EL,1,100,0.264419
1575664700.223596,215288.000,37237,2,EL,1,100,0.263774
1575664700.288881,215343.000,37255,1,EL,1,100,0.264097
1575664700.358321,215401.500,37272,2,EL,1,100,0.264580
1575664700.427762,215460.000,37272,2,EL,1,100,0.263895
1575664700.496015,215517.500,37290,2,EL,1,100,0.264016
1575664700.564268,215575.000,37290,2,EL,1,100,0.263895
1575664700.633114,215633.000,37307,2,EL,1,100,0.264620
1575664700.701961,215691.000,37307,2,EL,1,100,0.264379
1575664700.766059,215745.000,37324,2,EL,1,100,0.264218
1575664700.830158,215799.000,37324,2,EL,1,100,0.264701
1575664700.893070,215852.000,37343,1,EL,1,100,0.263895
1575664700.958355,215907.000,37361,2,EL,1,100,0.263573
1575664701.023641,215962.000,37361,2,EL,1,100,0.263774
1575664701.091300,216019.000,37379,2,EL,1,100,0.264177
1575664701.158960,216076.000,37379,2,EL,1,100,0.263412
1575664701.228400,216134.500,37397,2,EL,1,100,0.263734
1575664701.297840,216193.000,37397,2,EL,1,100,0.263009
1575664701.361938,216247.000,37415,2,EL,1,100,0.264338
1575664701.426037,216301.000,37415,2,EL,1,100,0.263936
1575664701.488949,216354.000,37433,2,EL,1,100,0.263976
1575664701.551860,216407.000,37433,2,EL,1,100,0.263573
1575664701.620707,216465.000,37451,1,EL,1,100,0.264056
1575664701.687773,216521.500,37468,2,EL,1,100,0.263895
1575664701.754839,216578.000,37468,2,EL,1,100,0.263734
1575664701.823685,216636.000,37486,2,EL,1,100,0.264137
1575664701.892532,216694.000,37486,2,EL,1,100,0.263533
1575664701.959598,216750.500,37503,2,EL,1,100,0.263452
1575664702.026664,216807.000,37503,2,EL,1,100,0.263492
1575664702.087795,216858.500,37521,2,EL,1,100,0.263613
1575664702.148926,216910.000,37521,2,EL,1,100,0.263976
1575664702.217773,216968.000,37539,1,EL,1,100,0.263210
1575664702.284839,217024.500,37557,2,EL,1,100,0.263976
1575664702.351905,217081.000,37557,2,EL,1,100,0.263210
1575664702.420752,217139.000,37575,2,EL,1,100,0.263049
1575664702.489598,217197.000,37575,2,EL,1,100,0.263573
1575664702.556664,217253.500,37593,2,EL,1,100,0.262405
1575664702.623730,217310.000,37593,2,EL,1,100,0.263210
1575664702.685455,217362.000,37611,2,EL,1,100,0.263170
1575664702.747180,217414.000,37611,2,EL,1,100,0.262888
1575664702.812465,217469.000,37629,1,EL,1,100,0.262646
1575664702.878937,217525.000,37647,2,EL,1,100,0.262767
1575664702.945410,217581.000,37647,2,EL,1,100,0.262485
1575664703.010102,217635.500,37665,2,EL,1,100,0.262928
1575664703.074794,217690.000,37665,2,EL,1,100,0.263009
1575664703.142454,217747.000,37683,2,EL,1,100,0.262123
1575664703.210113,217804.000,37683,2,EL,1,100,0.262767
1575664703.278960,217862.000,37699,2,EL,1,100,0.262808
1575664703.347806,217920.000,37699,2,EL,1,100,0.262445
1575664703.416653,217978.000,37717,1,EL,1,100,0.262606
1575664703.484906,218035.500,37735,2,EL,1,100,0.262284
1575664703.553159,218093.000,37735,2,EL,1,100,0.262808
1575664703.622006,218151.000,37753,2,EL,1,100,0.261921
1575664703.690852,218209.000,37753,2,EL,1,100,0.262324
1575664703.762073,218269.000,37771,1,EL,1,100,0.262324
1575664703.827952,218324.500,37790,2,EL,1,100,0.262002
1575664703.893831,218380.000,37790,2,EL,1,100,0.261841
1575664703.957930,218434.000,37807,2,EL,1,100,0.261599
1575664704.022028,218488.000,37807,2,EL,1,100,0.261720
1575664704.088501,218544.000,37825,2,EL,1,100,0.260955
1575664704.154974,218600.000,37825,2,EL,1,100,0.261720
1575664704.224414,218658.500,37843,2,EL,1,100,0.261398
1575664704.293854,218717.000,37843,2,EL,1,100,0.261317
1575664704.363887,218776.000,37859,1,EL,1,100,0.260592
1575664704.432734,218834.000,37880,3,EL,1,100,0.260955
1575664704.501580,218892.000,37880,3,EL,1,100,0.260914
1575664704.570427,218950.000,37880,3,EL,1,100,0.260350
1575664704.638680,219007.500,37900,2,EL,1,100,0.259786
1575664704.706933,219065.000,37900,2,EL,1,100,0.260270
1575664704.769251,219117.500,37918,2,EL,1,100,0.259988
1575664704.831569,219170.000,37918,2,EL,1,100,0.259988
1575664704.896261,219224.500,37937,2,EL,1,100,0.260350
1575664704.960953,219279.000,37937,2,EL,1,100,0.260229
1575664705.029207,219336.500,37953,2,EL,1,100,0.260149
1575664705.097460,219394.000,37953,2,EL,1,100,0.259988
1575664705.165119,219451.000,37971,1,EL,1,100,0.259746
1575664705.233372,219508.500,37989,2,EL,1,100,0.260068
1575664705.301625,219566.000,37989,2,EL,1,100,0.259786
1575664705.365130,219619.500,38007,2,EL,1,100,0.259021
1575664705.428635,219673.000,38007,2,EL,1,100,0.259182
1575664705.492734,219727.000,38025,2,EL,1,100,0.259303
1575664705.556833,219781.000,38025,2,EL,1,100,0.258658
1575664705.625086,219838.500,38043,2,EL,1,100,0.258417
1575664705.693339,219896.000,38043,2,EL,1,100,0.258739
1575664705.760998,219953.000,38061,1,EL,1,100,0.258296
1575664705.830438,220011.500,38079,2,EL,1,100,0.257974
1575664705.899879,220070.000,38079,2,EL,1,100,0.258256
1575664705.962197,220122.500,38097,2,EL,1,100,0.257812
1575664706.024514,220175.000,38097,2,EL,1,100,0.257369
1575664706.088020,220228.500,38115,2,EL,1,100,0.257611
1575664706.151525,220282.000,38115,2,EL,1,100,0.257329
1575664706.219184,220339.000,38131,2,EL,1,100,0.257812
1575664706.286844,220396.000,38131,2,EL,1,100,0.257410
1575664706.354503,220453.000,38149,1,EL,1,100,0.256604
1575664706.423944,220511.500,38167,2,EL,1,100,0.257410
1575664706.493384,220570.000,38167,2,EL,1,100,0.256322
1575664706.557482,220624.000,38185,2,EL,1,100,0.256564
1575664706.621581,220678.000,38185,2,EL,1,100,0.257289
1575664706.685086,220731.500,38203,2,EL,1,100,0.256604
1575664706.748591,220785.000,38203,2,EL,1,100,0.256121
1575664706.811502,220838.000,38221,2,EL,1,100,0.256201
1575664706.874414,220891.000,38221,2,EL,1,100,0.256443
1575664706.939106,220945.500,38240,2,EL,1,100,0.255839
1575664707.003798,221000.000,38240,2,EL,1,100,0.255919
1575664707.067897,221054.000,38258,2,EL,1,100,0.255879
1575664707.131995,221108.000,38258,2,EL,1,100,0.255718
1575664707.194906,221161.000,38276,2,EL,1,100,0.255476
1575664707.257818,221214.000,38276,2,EL,1,100,0.255879
1575664707.320730,221267.000,38294,1,EL,1,100,0.255677
1575664707.387202,221323.000,38311,2,EL,1,100,0.255557
1575664707.453675,221379.000,38311,2,EL,1,100,0.255355
1575664707.523115,221437.500,38329,2,EL,1,100,0.255516
1575664707.592555,221496.000,38329,2,EL,1,100,0.254912
1575664707.661402,221554.000,38345,2,EL,1,100,0.255154
1575664707.730248,221612.000,38345,2,EL,1,100,0.255033
1575664707.793160,221665.000,38363,2,EL,1,100,0.254630
1575664707.856071,221718.000,38363,2,EL,1,100,0.254872
1575664707.921357,221773.000,38382,1,EL,1,100,0.254106
1575664707.988423,221829.500,38400,2,EL,1,100,0.254268
1575664708.055489,221886.000,38400,2,EL,1,100,0.253986
1575664708.122555,221942.500,38418,2,EL,1,100,0.254791
1575664708.189621,221999.000,38418,2,EL,1,100,0.253865
1575664708.256094,222055.000,38436,2,EL,1,100,0.253824
1575664708.322566,222111.000,38436,2,EL,1,100,0.254670
1575664708.391413,222169.000,38454,1,EL,1,100,0.254147
1575664708.459666,222226.500,38472,2,EL,1,100,0.253744
1575664708.527919,222284.000,38472,2,EL,1,100,0.253542
1575664708.593204,222339.000,38489,2,EL,1,100,0.253865
1575664708.658490,222394.000,38489,2,EL,1,100,0.253905
1575664708.721995,222447.500,38507,2,EL,1,100,0.254026
1575664708.785500,222501.000,38507,2,EL,1,100,0.253341
1575664708.852566,222557.500,38526,2,EL,1,100,0.253986
1575664708.919632,222614.000,38526,2,EL,1,100,0.254187
1575664708.992040,222675.000,38542,1,EL,1,100,0.254227
1575664709.059700,222732.000,38560,2,EL,1,100,0.254147
1575664709.127359,222789.000,38560,2,EL,1,100,0.253744
1575664709.193238,222844.500,38578,2,EL,1,100,0.253623
1575664709.259117,222900.000,38578,2,EL,1,100,0.253784
1575664709.322622,222953.500,38596,2,EL,1,100,0.253784
1575664709.386127,223007.000,38596,2,EL,1,100,0.253019
1575664709.452600,223063.000,38614,2,EL,1,100,0.253502
1575664709.519073,223119.000,38614,2,EL,1,100,0.253945
1575664709.591480,223180.000,38632,1,EL,1,100,0.253422
1575664709.658546,223236.500,38650,2,EL,1,100,0.254227
1575664709.725612,223293.000,38650,2,EL,1,100,0.253502
1575664709.793272,223350.000,38667,2,EL,1,100,0.254187
1575664709.860931,223407.000,38667,2,EL,1,100,0.254026
1575664709.923249,223459.500,38686,2,EL,1,100,0.253784
1575664709.985568,223512.000,38686,2,EL,1,100,0.253905
1575664710.050853,223567.000,38704,2,EL,1,100,0.254348
1575664710.116139,223622.000,38704,2,EL,1,100,0.253945
1575664710.184392,223679.500,38720,2,EL,1,100,0.254348
1575664710.252645,223737.000,38720,2,EL,1,100,0.253663
1575664710.320304,223794.000,38738,1,EL,1,100,0.253865
1575664710.387371,223850.500,38756,2,EL,1,100,0.253905
1575664710.454437,223907.000,38756,2,EL,1,100,0.253623
1575664710.522096,223964.000,38777,3,EL,1,100,0.253945
1575664710.589756,224021.000,38777,3,EL,1,100,0.253945
1575664710.657415,224078.000,38777,3,EL,1,100,0.254147
1575664710.726856,224136.500,38797,2,EL,1,100,0.254106
1575664710.796295,224195.000,38797,2,EL,1,100,0.254106
1575664710.860394,224249.000,38816,1,EL,1,100,0.254106
1575664710.929834,224307.500,38834,2,EL,1,100,0.254147
1575664710.999274,224366.000,38834,2,EL,1,100,0.254026
1575664711.063966,224420.500,38852,2,EL,1,100,0.253986
1575664711.128658,224475.000,38852,2,EL,1,100,0.254066
1575664711.192163,224528.500,38870,2,EL,1,100,0.253905
1575664711.255668,224582.000,38870,2,EL,1,100,0.254187
1575664711.322735,224638.500,38888,2,EL,1,100,0.254550
1575664711.389801,224695.000,38888,2,EL,1,100,0.253784
1575664711.456273,224751.000,38906,1,EL,1,100,0.254106
1575664711.525713,224809.500,38923,2,EL,1,100,0.254550
1575664711.595153,224868.000,38923,2,EL,1,100,0.253462
1575664711.665187,224927.000,38941,2,EL,1,100,0.254469
1575664711.735221,224986.000,38941,2,EL,1,100,0.254066
1575664711.804067,225044.000,38957,2,EL,1,100,0.254187
1575664711.872914,225102.000,38957,2,EL,1,100,0.253986
1575664711.938199,225157.000,38976,1,EL,1,100,0.253744
1575664712.001704,225210.500,38994,2,EL,1,100,0.254308
1575664712.065209,225264.000,38994,2,EL,1,100,0.254268
1575664712.130495,225319.000,39012,2,EL,1,100,0.253784
1575664712.195781,225374.000,39012,2,EL,1,100,0.253583
1575664712.263440,225431.000,39030,2,EL,1,100,0.253784
1575664712.331100,225488.000,39030,2,EL,1,100,0.253945
1575664712.400540,225546.500,39048,2,EL,1,100,0.253986
1575664712.469980,225605.000,39048,2,EL,1,100,0.254590
1575664712.534672,225659.500,39066,2,EL,1,100,0.253905
1575664712.599364,225714.000,39066,2,EL,1,100,0.254348
1575664712.662276,225767.000,39084,1,EL,1,100,0.254147
1575664712.728155,225822.500,39101,2,EL,1,100,0.254348
1575664712.794034,225878.000,39101,2,EL,1,100,0.254227
1575664712.861100,225934.500,39120,2,EL,1,100,0.255194
1575664712.928166,225991.000,39120,2,EL,1,100,0.254429
1575664712.997012,226049.000,39138,2,EL,1,100,0.254711
1575664713.065859,226107.000,39138,2,EL,1,100,0.254147
1575664713.135893,226166.000,39154,1,EL,1,100,0.253623
1575664713.198804,226219.000,39172,2,EL,1,100,0.255154
1575664713.261716,226272.000,39172,2,EL,1,100,0.254348
1575664713.327001,226327.000,39190,2,EL,1,100,0.254751
1575664713.392287,226382.000,39190,2,EL,1,100,0.254187
1575664713.459353,226438.500,39208,2,EL,1,100,0.255114
1575664713.526419,226495.000,39208,2,EL,1,100,0.254630
1575664713.594672,226552.500,39226,2,EL,1,100,0.254630
1575664713.662925,226610.000,39226,2,EL,1,100,0.255194
1575664713.730585,226667.000,39244,2,EL,1,100,0.255194
1575664713.798244,226724.000,39244,2,EL,1,100,0.254751
1575664713.859969,226776.000,39263,1,EL,1,100,0.254670
1575664713.923474,226829.500,39281,2,EL,1,100,0.255194
1575664713.986979,226883.000,39281,2,EL,1,100,0.254791
1575664714.053452,226939.000,39298,2,EL,1,100,0.254469
1575664714.119924,226995.000,39298,2,EL,1,100,0.254348
1575664714.185210,227050.000,39316,2,EL,1,100,0.254187
1575664714.250495,227105.000,39316,2,EL,1,100,0.254670
1575664714.317561,227161.500,39332,2,EL,1,100,0.254187
1575664714.384627,227218.000,39332,2,EL,1,100,0.254711
1575664714.451100,227274.000,39350,1,EL,1,100,0.254993
1575664714.521133,227333.000,39368,2,EL,1,100,0.254469
1575664714.591167,227392.000,39368,2,EL,1,100,0.254751
1575664714.659420,227449.500,39386,2,EL,1,100,0.254993
1575664714.727673,227507.000,39386,2,EL,1,100,0.254711
1575664714.796520,227565.000,39404,2,EL,1,100,0.255476
1575664714.865366,227623.000,39404,2,EL,1,100,0.255234
1575664714.936587,227683.000,39423,1,EL,1,100,0.255194
1575664715.003060,227739.000,39440,2,EL,1,100,0.254952
1575664715.069532,227795.000,39440,2,EL,1,100,0.255194
1575664715.133037,227848.500,39458,2,EL,1,100,0.255154
1575664715.196542,227902.000,39458,2,EL,1,100,0.254469
1575664715.263015,227958.000,39476,2,EL,1,100,0.255597
1575664715.329487,228014.000,39476,2,EL,1,100,0.255839
1575664715.398927,228072.500,39492,2,EL,1,100,0.255315
1575664715.468368,228131.000,39492,2,EL,1,100,0.254751
1575664715.538401,228190.000,39510,1,EL,1,100,0.255597
1575664715.606061,228247.000,39528,2,EL,1,100,0.255597
1575664715.673720,228304.000,39528,2,EL,1,100,0.255154
1575664715.744941,228364.000,39546,2,EL,1,100,0.255476
1575664715.816162,228424.000,39546,2,EL,1,100,0.255436
1575664715.879073,228477.000,39565,2,EL,1,100,0.255516
1575664715.941985,228530.000,39565,2,EL,1,100,0.255396
1575664716.006083,228584.000,39583,2,EL,1,100,0.256161
1575664716.070182,228638.000,39583,2,EL,1,100,0.256282
1575664716.134280,228692.000,39601,1,EL,1,100,0.255597
1575664716.202533,228749.500,39618,2,EL,1,100,0.255396
1575664716.270787,228807.000,39618,2,EL,1,100,0.255275
1575664716.340820,228866.000,39636,2,EL,1,100,0.256040
1575664716.410854,228925.000,39636,2,EL,1,100,0.255637
1575664716.474952,228979.000,39652,2,EL,1,100,0.255637
1575664716.539051,229033.000,39652,2,EL,1,100,0.255476
1575664716.603149,229087.000,39673,3,EL,1,100,0.255557
1575664716.667248,229141.000,39673,3,EL,1,100,0.255919
1575664716.731346,229195.000,39673,3,EL,1,100,0.255557
1575664716.801380,229254.000,39693,1,EL,1,100,0.256282
1575664716.869040,229311.000,39712,2,EL,1,100,0.255839
1575664716.936699,229368.000,39712,2,EL,1,100,0.256040
1575664717.006139,229426.500,39729,2,EL,1,100,0.255516
1575664717.075579,229485.000,39729,2,EL,1,100,0.255959
1575664717.138491,229538.000,39746,2,EL,1,100,0.256201
1575664717.201402,229591.000,39746,2,EL,1,100,0.256040
1575664717.264908,229644.500,39763,2,EL,1,100,0.255839
1575664717.328413,229698.000,39763,2,EL,1,100,0.255597
1575664717.396072,229755.000,39781,2,EL,1,100,0.255637
1575664717.463732,229812.000,39781,2,EL,1,100,0.255396
1575664717.531391,229869.000,39799,1,EL,1,100,0.254912
1575664717.600832,229927.500,39817,2,EL,1,100,0.256282
1575664717.670271,229986.000,39817,2,EL,1,100,0.255073
1575664717.734964,230040.500,39835,2,EL,1,100,0.255597
1575664717.799656,230095.000,39835,2,EL,1,100,0.255597
1575664717.863754,230149.000,39854,2,EL,1,100,0.256000
1575664717.927853,230203.000,39854,2,EL,1,100,0.255516
1575664717.990764,230256.000,39872,2,EL,1,100,0.256121
1575664718.053676,230309.000,39872,2,EL,1,100,0.256483
1575664718.118961,230364.000,39890,2,EL,1,100,0.255355
1575664718.184247,230419.000,39890,2,EL,1,100,0.256080
1575664718.245971,230471.000,39908,1,EL,1,100,0.256080
1575664718.311257,230526.000,39925,2,EL,1,100,0.255718
1575664718.376543,230581.000,39925,2,EL,1,100,0.255557
1575664718.439454,230634.000,39943,2,EL,1,100,0.256000
1575664718.502366,230687.000,39943,2,EL,1,100,0.255557
1575664718.568838,230743.000,39961,2,EL,1,100,0.256604
1575664718.635311,230799.000,39961,2,EL,1,100,0.255919
1575664718.704751,230857.500,39977,2,EL,1,100,0.256161
1575664718.774191,230916.000,39977,2,EL,1,100,0.256362
1575664718.839477,230971.000,39996,1,EL,1,100,0.256000
1575664718.907730,231028.500,40014,2,EL,1,100,0.256040
1575664718.975983,231086.000,40014,2,EL,1,100,0.256000
1575664719.038894,231139.000,40032,2,EL,1,100,0.256000
1575664719.101806,231192.000,40032,2,EL,1,100,0.256362
1575664719.168278,231248.000,40050,2,EL,1,100,0.256443
1575664719.234751,231304.000,40050,2,EL,1,100,0.255758
1575664719.301224,231360.000,40068,2,EL,1,100,0.256080
1575664719.367696,231416.000,40068,2,EL,1,100,0.256443
1575664719.434762,231472.500,40086,2,EL,1,100,0.255919
1575664719.501828,231529.000,40086,2,EL,1,100,0.256322
1575664719.570675,231587.000,40104,1,EL,1,100,0.256685
1575664719.638334,231644.000,40121,2,EL,1,100,0.256644
1575664719.705994,231701.000,40121,2,EL,1,100,0.257007
1575664719.771873,231756.500,40139,2,EL,1,100,0.256685
1575664719.837752,231812.000,40139,2,EL,1,100,0.256201
1575664719.901257,231865.500,40156,2,EL,1,100,0.256805
1575664719.964762,231919.000,40156,2,EL,1,100,0.257007
1575664720.031828,231975.500,40174,2,EL,1,100,0.256121
1575664720.098894,232032.000,40174,2,EL,1,100,0.256846
1575664720.171302,232093.000,40192,1,EL,1,100,0.256201
1575664720.238368,232149.500,40210,2,EL,1,100,0.257047
1575664720.305434,232206.000,40210,2,EL,1,100,0.256967
1575664720.371907,232262.000,40228,2,EL,1,100,0.256805
1575664720.438379,232318.000,40228,2,EL,1,100,0.256846
1575664720.501884,232371.500,40246,2,EL,1,100,0.256644
1575664720.565389,232425.000,40246,2,EL,1,100,0.256805
1575664720.631269,232480.500,40264,2,EL,1,100,0.256967
1575664720.697147,232536.000,40264,2,EL,1,100,0.257007
1575664720.769555,232597.000,40282,1,EL,1,100,0.257369
1575664720.836621,232653.500,40300,2,EL,1,100,0.257047
1575664720.903687,232710.000,40300,2,EL,1,100,0.256886
1575664720.971940,232767.500,40318,2,EL,1,100,0.257168
1575664721.040193,232825.000,40318,2,EL,1,100,0.256926
1575664721.102511,232877.500,40334,2,EL,1,100,0.257410
1575664721.164829,232930.000,40334,2,EL,1,100,0.257893
1575664721.228928,232984.000,40352,2,EL,1,100,0.257208
1575664721.293027,233038.000,40352,2,EL,1,100,0.257208
1575664721.363060,233097.000,40370,1,EL,1,100,0.257047
1575664721.431313,233154.500,40388,2,EL,1,100,0.257410
1575664721.499566,233212.000,40388,2,EL,1,100,0.256403
1575664721.566039,233268.000,40406,2,EL,1,100,0.257531
1575664721.632512,233324.000,40406,2,EL,1,100,0.257772
1575664721.701952,233382.500,40424,2,EL,1,100,0.257450
1575664721.771392,233441.000,40424,2,EL,1,100,0.257812
1575664721.836677,233496.000,40443,1,EL,1,100,0.257732
1575664721.906117,233554.500,40460,2,EL,1,100,0.257571
1575664721.975557,233613.000,40460,2,EL,1,100,0.257531
1575664722.042030,233669.000,40478,2,EL,1,100,0.257087
1575664722.108503,233725.000,40478,2,EL,1,100,0.257732
1575664722.177943,233783.500,40495,2,EL,1,100,0.258014
1575664722.247383,233842.000,40495,2,EL,1,100,0.257450
1575664722.310888,233895.500,40512,2,EL,1,100,0.257893
1575664722.374393,233949.000,40512,2,EL,1,100,0.257651
1575664722.437304,234002.000,40530,1,EL,1,100,0.257571
1575664722.503777,234058.000,40548,2,EL,1,100,0.258296
1575664722.570250,234114.000,40548,2,EL,1,100,0.257853
1575664722.638700,234171.667,40569,3,EL,1,100,0.257732
1575664722.707151,234229.333,40569,3,EL,1,100,0.257974
1575664722.775602,234287.000,40569,3,EL,1,100,0.258135
1575664722.846229,234346.500,40590,2,EL,1,100,0.257732
1575664722.916857,234406.000,40590,2,EL,1,100,0.258417
1575664722.985703,234464.000,40606,1,EL,1,100,0.257974
1575664723.052769,234520.500,40624,2,EL,1,100,0.258175
1575664723.119835,234577.000,40624,2,EL,1,100,0.258014
1575664723.183340,234630.500,40642,2,EL,1,100,0.257571
1575664723.246845,234684.000,40642,2,EL,1,100,0.257651
1575664723.312131,234739.000,40660,2,EL,1,100,0.258256
1575664723.377416,234794.000,40660,2,EL,1,100,0.258014
1575664723.444483,234850.500,40678,2,EL,1,100,0.258336
1575664723.511549,234907.000,40678,2,EL,1,100,0.258256
1575664723.580395,234965.000,40696,1,EL,1,100,0.257853
1575664723.648648,235022.500,40714,2,EL,1,100,0.258135
1575664723.716901,235080.000,40714,2,EL,1,100,0.258175
1575664723.780406,235133.500,40732,2,EL,1,100,0.258457
1575664723.843911,235187.000,40732,2,EL,1,100,0.258497
1575664723.909197,235242.000,40750,2,EL,1,100,0.258336
1575664723.974483,235297.000,40750,2,EL,1,100,0.258538
1575664724.041549,235353.500,40768,2,EL,1,100,0.257933
1575664724.108615,235410.000,40768,2,EL,1,100,0.258739
1575664724.177461,235468.000,40784,2,EL,1,100,0.258578
1575664724.246308,235526.000,40784,2,EL,1,100,0.258175
1575664724.316342,235585.000,40802,1,EL,1,100,0.258376
1575664724.379847,235638.500,40820,2,EL,1,100,0.259263
1575664724.443352,235692.000,40820,2,EL,1,100,0.258336
1575664724.507450,235746.000,40838,2,EL,1,100,0.257974
1575664724.571549,235800.000,40838,2,EL,1,100,0.258336
1575664724.638021,235856.000,40856,2,EL,1,100,0.258135
1575664724.704494,235912.000,40856,2,EL,1,100,0.258497
1575664724.772747,235969.500,40874,2,EL,1,100,0.258376
1575664724.841000,236027.000,40874,2,EL,1,100,0.258981
1575664724.908660,236084.000,40893,1,EL,1,100,0.258336
1575664724.973352,236138.500,40910,2,EL,1,100,0.258618
1575664725.038044,236193.000,40910,2,EL,1,100,0.258497
1575664725.101549,236246.500,40928,2,EL,1,100,0.258900
1575664725.165054,236300.000,40928,2,EL,1,100,0.258618
1575664725.231526,236356.000,40946,2,EL,1,100,0.258457
1575664725.297999,236412.000,40946,2,EL,1,100,0.258457
1575664725.362098,236466.000,40962,2,EL,1,100,0.258538
1575664725.426196,236520.000,40962,2,EL,1,100,0.258578
1575664725.492669,236576.000,40980,2,EL,1,100,0.258779
1575664725.559141,236632.000,40980,2,EL,1,100,0.259384
1575664725.625614,236688.000,40998,1,EL,1,100,0.258376
1575664725.695647,236747.000,41016,2,EL,1,100,0.258538
1575664725.765681,236806.000,41016,2,EL,1,100,0.258497
1575664725.833934,236863.500,41035,2,EL,1,100,0.258981
1575664725.902187,236921.000,41035,2,EL,1,100,0.258457
1575664725.971034,236979.000,41053,2,EL,1,100,0.258820
1575664726.039880,237037.000,41053,2,EL,1,100,0.258256
1575664726.111101,237097.000,41071,1,EL,1,100,0.258296
1575664726.178167,237153.500,41088,2,EL,1,100,0.258497
1575664726.245233,237210.000,41088,2,EL,1,100,0.258497
1575664726.308738,237263.500,41106,2,EL,1,100,0.259343
1575664726.372243,237317.000,41106,2,EL,1,100,0.258376
1575664726.438122,237372.500,41124,2,EL,1,100,0.258860
1575664726.504001,237428.000,41124,2,EL,1,100,0.259263
1575664726.573442,237486.500,41140,2,EL,1,100,0.259263
1575664726.642881,237545.000,41140,2,EL,1,100,0.258981
1575664726.711728,237603.000,41158,1,EL,1,100,0.258779
1575664726.779388,237660.000,41177,2,EL,1,100,0.259142
1575664726.847047,237717.000,41177,2,EL,1,100,0.259061
1575664726.918268,237777.000,41195,2,EL,1,100,0.259263
1575664726.989488,237837.000,41195,2,EL,1,100,0.259061
1575664727.052994,237890.500,41213,2,EL,1,100,0.259102
1575664727.116498,237944.000,41213,2,EL,1,100,0.259424
1575664727.180597,237998.000,41231,2,EL,1,100,0.258981
1575664727.244696,238052.000,41231,2,EL,1,100,0.258860
1575664727.308794,238106.000,41249,1,EL,1,100,0.258699
1575664727.377047,238163.500,41266,2,EL,1,100,0.259142
1575664727.445300,238221.000,41266,2,EL,1,100,0.258578
1575664727.514740,238279.500,41284,2,EL,1,100,0.258658
1575664727.584181,238338.000,41284,2,EL,1,100,0.259061
1575664727.648873,238392.500,41300,2,EL,1,100,0.259142
1575664727.713565,238447.000,41300,2,EL,1,100,0.258739
1575664727.777070,238500.500,41318,2,EL,1,100,0.258417
1575664727.840575,238554.000,41318,2,EL,1,100,0.259464
1575664727.905860,238609.000,41337,1,EL,1,100,0.258578
1575664727.974113,238666.500,41355,2,EL,1,100,0.259142
1575664728.042367,238724.000,41355,2,EL,1,100,0.258457
1575664728.111807,238782.500,41373,2,EL,1,100,0.258900
