EpochTimestamp,EmotiBitTimestamp,PacketNumber,DataLength,TypeTag,ProtocolVersion,DataReliability,GY
1575665229.375289,23503.000,3603,12,GY,1,100,0.092
1575665229.375289,23503.000,3603,12,GY,1,100,-0.610
1575665229.375289,23503.000,3603,12,GY,1,100,-0.275
1575665229.375289,23503.000,3603,12,GY,1,100,0.275
1575665229.375289,23503.000,3603,12,GY,1,100,1.740
1575665229.375289,23503.000,3603,12,GY,1,100,1.007
1575665229.375289,23503.000,3603,12,GY,1,100,-0.641
1575665229.375289,23503.000,3603,12,GY,1,100,-2.258
1575665229.375289,23503.000,3603,12,GY,1,100,-2.563
1575665229.375289,23503.000,3603,12,GY,1,100,-1.312
1575665229.375289,23503.000,3603,12,GY,1,100,-0.122
1575665229.375289,23503.000,3603,12,GY,1,100,0.244
1575665229.417332,23538.333,3622,3,GY,1,100,0.366
1575665229.459376,23573.667,3622,3,GY,1,100,1.038
1575665229.501419,23609.000,3622,3,GY,1,100,0.793
1575665229.539893,23641.333,3641,3,GY,1,100,0.427
1575665229.578367,23673.667,3641,3,GY,1,100,-0.641
1575665229.616840,23706.000,3641,3,GY,1,100,0.610
1575665229.657694,23740.333,3658,3,GY,1,100,1.160
1575665229.698547,23774.667,3658,3,GY,1,100,0.763
1575665229.739401,23809.000,3658,3,GY,1,100,0.854
1575665229.781048,23844.000,3676,3,GY,1,100,0.671
1575665229.822694,23879.000,3676,3,GY,1,100,0.336
1575665229.864341,23914.000,3676,3,GY,1,100,0.793
1575665229.905393,23948.500,3693,2,GY,1,100,0.427
1575665229.946445,23983.000,3693,2,GY,1,100,0.977
1575665229.985712,24016.000,3711,4,GY,1,100,0.580
1575665230.024978,24049.000,3711,4,GY,1,100,0.366
1575665230.064245,24082.000,3711,4,GY,1,100,1.190
1575665230.103512,24115.000,3711,4,GY,1,100,1.221
1575665230.141589,24147.000,3729,3,GY,1,100,2.441
1575665230.179666,24179.000,3729,3,GY,1,100,2.014
1575665230.217743,24211.000,3729,3,GY,1,100,0.549
1575665230.260183,24246.667,3747,3,GY,1,100,0.092
1575665230.302624,24282.333,3747,3,GY,1,100,-1.434
1575665230.345063,24318.000,3747,3,GY,1,100,-0.946
1575665230.386314,24352.667,3765,3,GY,1,100,-0.336
1575665230.427564,24387.333,3765,3,GY,1,100,-0.153
1575665230.468814,24422.000,3765,3,GY,1,100,0.305
1575665230.509667,24456.333,3783,3,GY,1,100,0.519
1575665230.550521,24490.667,3783,3,GY,1,100,-0.519
1575665230.591374,24525.000,3783,3,GY,1,100,0.336
1575665230.632426,24559.500,3801,2,GY,1,100,-0.244
1575665230.673478,24594.000,3801,2,GY,1,100,-0.854
1575665230.710662,24625.250,3819,4,GY,1,100,-0.763
1575665230.747847,24656.500,3819,4,GY,1,100,-0.824
1575665230.785032,24687.750,3819,4,GY,1,100,0.427
1575665230.822216,24719.000,3819,4,GY,1,100,0.275
1575665230.862277,24752.667,3838,3,GY,1,100,0.244
1575665230.902337,24786.333,3838,3,GY,1,100,0.458
1575665230.942397,24820.000,3838,3,GY,1,100,-0.610
1575665230.983250,24854.333,3855,3,GY,1,100,0.305
1575665231.024104,24888.667,3855,3,GY,1,100,-0.214
1575665231.064957,24923.000,3855,3,GY,1,100,-0.275
1575665231.111959,24962.500,3871,2,GY,1,100,-0.488
1575665231.158960,25002.000,3871,2,GY,1,100,-0.458
1575665231.200210,25036.667,3889,3,GY,1,100,0.031
1575665231.241460,25071.333,3889,3,GY,1,100,1.038
1575665231.282710,25106.000,3889,3,GY,1,100,2.686
1575665231.320391,25137.667,3907,3,GY,1,100,0.519
1575665231.358071,25169.333,3907,3,GY,1,100,-0.122
1575665231.395751,25201.000,3907,3,GY,1,100,-0.580
1575665231.434721,25233.750,3925,4,GY,1,100,-0.458
1575665231.473691,25266.500,3925,4,GY,1,100,-0.214
1575665231.512660,25299.250,3925,4,GY,1,100,-0.488
1575665231.551629,25332.000,3925,4,GY,1,100,0.031
1575665231.592086,25366.000,3943,2,GY,1,100,0.061
1575665231.632543,25400.000,3943,2,GY,1,100,0.092
1575665231.673793,25434.667,3961,3,GY,1,100,-0.397
1575665231.715043,25469.333,3961,3,GY,1,100,-0.275
1575665231.756294,25504.000,3961,3,GY,1,100,-0.031
1575665231.797940,25539.000,3979,3,GY,1,100,0.824
1575665231.839587,25574.000,3979,3,GY,1,100,0.122
1575665231.881234,25609.000,3979,3,GY,1,100,0.488
1575665231.923277,25644.333,3998,3,GY,1,100,0.031
1575665231.965320,25679.667,3998,3,GY,1,100,-0.092
1575665232.007364,25715.000,3998,3,GY,1,100,-0.366
1575665232.045044,25746.667,4016,3,GY,1,100,-0.824
1575665232.082725,25778.333,4016,3,GY,1,100,-0.580
1575665232.120405,25810.000,4016,3,GY,1,100,0.000
1575665232.160862,25844.000,4033,3,GY,1,100,0.031
1575665232.201319,25878.000,4033,3,GY,1,100,0.397
1575665232.241776,25912.000,4033,3,GY,1,100,-0.244
1575665232.282629,25946.333,4051,3,GY,1,100,-0.061
1575665232.323483,25980.667,4051,3,GY,1,100,-0.580
1575665232.364336,26015.000,4051,3,GY,1,100,0.793
1575665232.405190,26049.333,4067,3,GY,1,100,0.061
1575665232.446043,26083.667,4067,3,GY,1,100,-0.031
1575665232.486897,26118.000,4067,3,GY,1,100,-0.031
1575665232.526163,26151.000,4085,3,GY,1,100,0.397
1575665232.565430,26184.000,4085,3,GY,1,100,0.183
1575665232.604697,26217.000,4085,3,GY,1,100,-0.763
1575665232.642378,26248.667,4103,3,GY,1,100,-0.946
1575665232.680058,26280.333,4103,3,GY,1,100,0.458
1575665232.717738,26312.000,4103,3,GY,1,100,0.732
1575665232.761765,26349.000,4121,3,GY,1,100,0.488
1575665232.805792,26386.000,4121,3,GY,1,100,-1.404
1575665232.849818,26423.000,4121,3,GY,1,100,-1.556
1575665232.891465,26458.000,4140,3,GY,1,100,0.275
1575665232.933112,26493.000,4140,3,GY,1,100,3.143
1575665232.974758,26528.000,4140,3,GY,1,100,-1.251
1575665233.016008,26562.667,4158,3,GY,1,100,-8.636
1575665233.057259,26597.333,4158,3,GY,1,100,-6.378
1575665233.098509,26632.000,4158,3,GY,1,100,1.282
1575665233.137379,26664.667,4176,3,GY,1,100,-3.113
1575665233.176249,26697.333,4176,3,GY,1,100,-7.446
1575665233.215120,26730.000,4176,3,GY,1,100,-2.533
1575665233.252800,26761.667,4194,3,GY,1,100,-6.195
1575665233.290480,26793.333,4194,3,GY,1,100,-28.259
1575665233.328161,26825.000,4194,3,GY,1,100,-52.002
1575665233.368221,26858.667,4211,3,GY,1,100,-62.927
1575665233.408281,26892.333,4211,3,GY,1,100,-62.195
1575665233.448341,26926.000,4211,3,GY,1,100,-51.849
1575665233.489988,26961.000,4229,3,GY,1,100,-35.370
1575665233.531635,26996.000,4229,3,GY,1,100,-19.501
1575665233.573282,27031.000,4229,3,GY,1,100,-10.132
1575665233.618102,27068.667,4245,3,GY,1,100,-5.005
1575665233.662921,27106.333,4245,3,GY,1,100,8.636
1575665233.707741,27144.000,4245,3,GY,1,100,43.732
1575665233.746612,27176.667,4263,3,GY,1,100,130.249
1575665233.785482,27209.333,4263,3,GY,1,100,189.697
1575665233.824352,27242.000,4263,3,GY,1,100,-110.077
1575665233.862826,27274.333,4282,3,GY,1,100,-28.198
1575665233.901299,27306.667,4282,3,GY,1,100,-12.299
1575665233.939773,27339.000,4282,3,GY,1,100,-49.561
1575665233.978643,27371.667,4300,3,GY,1,100,-33.752
1575665234.017514,27404.333,4300,3,GY,1,100,-21.271
1575665234.056384,27437.000,4300,3,GY,1,100,-26.520
1575665234.097634,27471.667,4318,3,GY,1,100,-34.271
1575665234.138884,27506.333,4318,3,GY,1,100,-38.086
1575665234.180134,27541.000,4318,3,GY,1,100,-32.715
1575665234.221385,27575.667,4336,3,GY,1,100,-25.391
1575665234.262635,27610.333,4336,3,GY,1,100,-20.050
1575665234.303885,27645.000,4336,3,GY,1,100,-10.712
1575665234.343945,27678.667,4354,3,GY,1,100,-7.446
1575665234.384005,27712.333,4354,3,GY,1,100,-7.690
1575665234.424065,27746.000,4354,3,GY,1,100,-3.418
1575665234.465315,27780.667,4372,3,GY,1,100,3.082
1575665234.506566,27815.333,4372,3,GY,1,100,22.583
1575665234.547816,27850.000,4372,3,GY,1,100,54.596
1575665234.587083,27883.000,4389,3,GY,1,100,115.570
1575665234.626349,27916.000,4389,3,GY,1,100,189.026
1575665234.665617,27949.000,4389,3,GY,1,100,-75.745
1575665234.706867,27983.667,4407,3,GY,1,100,-6.958
1575665234.748117,28018.333,4407,3,GY,1,100,-17.517
1575665234.789367,28053.000,4407,3,GY,1,100,-57.251
1575665234.830617,28087.667,4423,3,GY,1,100,-35.400
1575665234.871867,28122.333,4423,3,GY,1,100,-15.961
1575665234.913117,28157.000,4423,3,GY,1,100,-15.259
1575665234.955359,28192.500,4442,2,GY,1,100,-18.921
1575665234.997601,28228.000,4442,2,GY,1,100,-19.867
1575665235.035975,28260.250,4460,4,GY,1,100,-24.384
1575665235.074350,28292.500,4460,4,GY,1,100,-21.027
1575665235.112724,28324.750,4460,4,GY,1,100,-17.151
1575665235.151099,28357.000,4460,4,GY,1,100,-7.599
1575665235.189969,28389.667,4478,3,GY,1,100,-1.221
1575665235.228839,28422.333,4478,3,GY,1,100,-1.495
1575665235.267709,28455.000,4478,3,GY,1,100,4.425
1575665235.311439,28491.750,4499,4,GY,1,100,14.313
1575665235.355168,28528.500,4499,4,GY,1,100,31.067
1575665235.398897,28565.250,4499,4,GY,1,100,78.674
1575665235.442626,28602.000,4499,4,GY,1,100,197.968
1575665235.483479,28636.333,4518,3,GY,1,100,-16.205
1575665235.524333,28670.667,4518,3,GY,1,100,-94.269
1575665235.565186,28705.000,4518,3,GY,1,100,40.405
1575665235.605247,28738.667,4535,3,GY,1,100,-22.583
1575665235.645307,28772.333,4535,3,GY,1,100,-65.918
1575665235.685367,28806.000,4535,3,GY,1,100,-24.902
1575665235.723444,28838.000,4553,3,GY,1,100,0.977
1575665235.761521,28870.000,4553,3,GY,1,100,-1.526
1575665235.799598,28902.000,4553,3,GY,1,100,-0.549
1575665235.838072,28934.333,4572,3,GY,1,100,0.824
1575665235.876545,28966.667,4572,3,GY,1,100,-0.397
1575665235.915019,28999.000,4572,3,GY,1,100,0.641
1575665235.955873,29033.333,4590,3,GY,1,100,14.221
1575665235.996726,29067.667,4590,3,GY,1,100,10.895
1575665236.037580,29102.000,4590,3,GY,1,100,7.416
1575665236.082003,29139.333,4608,3,GY,1,100,10.101
1575665236.126426,29176.667,4608,3,GY,1,100,11.261
1575665236.170849,29214.000,4608,3,GY,1,100,7.233
1575665236.211306,29248.000,4626,3,GY,1,100,3.784
1575665236.251763,29282.000,4626,3,GY,1,100,16.418
1575665236.292220,29316.000,4626,3,GY,1,100,15.656
1575665236.330297,29348.000,4644,3,GY,1,100,-1.007
1575665236.368374,29380.000,4644,3,GY,1,100,-11.078
1575665236.406451,29412.000,4644,3,GY,1,100,-11.139
1575665236.444924,29444.333,4662,3,GY,1,100,-11.169
1575665236.483398,29476.667,4662,3,GY,1,100,-11.230
1575665236.521872,29509.000,4662,3,GY,1,100,0.183
1575665236.562329,29543.000,4679,3,GY,1,100,18.341
1575665236.602785,29577.000,4679,3,GY,1,100,26.031
1575665236.643242,29611.000,4679,3,GY,1,100,9.521
1575665236.684889,29646.000,4697,3,GY,1,100,-6.714
1575665236.726536,29681.000,4697,3,GY,1,100,-8.240
1575665236.768183,29716.000,4697,3,GY,1,100,-6.653
1575665236.809829,29751.000,4713,3,GY,1,100,-0.397
1575665236.851476,29786.000,4713,3,GY,1,100,5.737
1575665236.893123,29821.000,4713,3,GY,1,100,7.507
1575665236.931200,29853.000,4732,3,GY,1,100,2.289
1575665236.969277,29885.000,4732,3,GY,1,100,-1.801
1575665237.007354,29917.000,4732,3,GY,1,100,-3.357
1575665237.049794,29952.667,4750,3,GY,1,100,-3.601
1575665237.092234,29988.333,4750,3,GY,1,100,1.831
1575665237.134674,30024.000,4750,3,GY,1,100,8.148
1575665237.175131,30058.000,4768,3,GY,1,100,10.101
1575665237.215588,30092.000,4768,3,GY,1,100,8.057
1575665237.256044,30126.000,4768,3,GY,1,100,0.916
1575665237.297295,30160.667,4786,3,GY,1,100,-6.897
1575665237.338545,30195.333,4786,3,GY,1,100,-6.042
1575665237.379795,30230.000,4786,3,GY,1,100,-0.031
1575665237.421442,30265.000,4804,3,GY,1,100,6.256
1575665237.463088,30300.000,4804,3,GY,1,100,6.805
1575665237.504735,30335.000,4804,3,GY,1,100,4.761
1575665237.541622,30366.000,4822,3,GY,1,100,0.061
1575665237.578509,30397.000,4822,3,GY,1,100,-1.648
1575665237.615396,30428.000,4822,3,GY,1,100,-0.061
1575665237.653870,30460.333,4840,3,GY,1,100,0.000
1575665237.692344,30492.667,4840,3,GY,1,100,-1.312
1575665237.730817,30525.000,4840,3,GY,1,100,1.129
1575665237.774844,30562.000,4857,3,GY,1,100,2.838
1575665237.818871,30599.000,4857,3,GY,1,100,2.136
1575665237.862897,30636.000,4857,3,GY,1,100,0.549
1575665237.904147,30670.667,4876,3,GY,1,100,0.122
1575665237.945397,30705.333,4876,3,GY,1,100,-6.348
1575665237.986647,30740.000,4876,3,GY,1,100,-19.867
1575665238.028294,30775.000,4892,2,GY,1,100,-34.943
1575665238.069941,30810.000,4892,2,GY,1,100,-44.006
1575665238.109505,30843.250,4910,4,GY,1,100,-24.323
1575665238.149070,30876.500,4910,4,GY,1,100,-7.477
1575665238.188634,30909.750,4910,4,GY,1,100,-2.045
1575665238.228199,30943.000,4910,4,GY,1,100,3.998
1575665238.266276,30975.000,4928,3,GY,1,100,5.646
1575665238.304353,31007.000,4928,3,GY,1,100,0.793
1575665238.342430,31039.000,4928,3,GY,1,100,4.456
1575665238.382093,31072.333,4946,3,GY,1,100,3.448
1575665238.421757,31105.667,4946,3,GY,1,100,2.808
1575665238.461420,31139.000,4946,3,GY,1,100,7.599
1575665238.502671,31173.667,4964,3,GY,1,100,4.730
1575665238.543921,31208.333,4964,3,GY,1,100,1.343
1575665238.585171,31243.000,4964,3,GY,1,100,1.923
1575665238.626421,31277.667,4982,3,GY,1,100,-3.906
1575665238.667671,31312.333,4982,3,GY,1,100,-3.265
1575665238.708921,31347.000,4982,3,GY,1,100,0.916
1575665238.754733,31385.500,5000,2,GY,1,100,4.608
1575665238.800544,31424.000,5000,2,GY,1,100,7.080
1575665238.838224,31455.667,5019,3,GY,1,100,5.310
1575665238.875905,31487.333,5019,3,GY,1,100,0.671
1575665238.913585,31519.000,5019,3,GY,1,100,1.343
1575665238.952852,31552.000,5036,4,GY,1,100,3.326
1575665238.992119,31585.000,5036,4,GY,1,100,5.524
1575665239.031386,31618.000,5036,4,GY,1,100,3.510
1575665239.070653,31651.000,5036,4,GY,1,100,-2.014
1575665239.111705,31685.500,5054,2,GY,1,100,2.808
1575665239.152756,31720.000,5054,2,GY,1,100,7.568
1575665239.194007,31754.667,5070,3,GY,1,100,5.554
1575665239.235257,31789.333,5070,3,GY,1,100,2.563
1575665239.276507,31824.000,5070,3,GY,1,100,-0.061
1575665239.318154,31859.000,5088,3,GY,1,100,1.007
1575665239.359800,31894.000,5088,3,GY,1,100,4.059
1575665239.401447,31929.000,5088,3,GY,1,100,0.824
1575665239.442301,31963.333,5106,3,GY,1,100,1.312
1575665239.483154,31997.667,5106,3,GY,1,100,2.869
1575665239.524008,32032.000,5106,3,GY,1,100,6.134
1575665239.562878,32064.667,5124,3,GY,1,100,5.524
1575665239.601748,32097.333,5124,3,GY,1,100,5.676
1575665239.640618,32130.000,5124,3,GY,1,100,5.463
1575665239.681472,32164.333,5142,3,GY,1,100,3.448
1575665239.722325,32198.667,5142,3,GY,1,100,1.740
1575665239.763179,32233.000,5142,3,GY,1,100,-1.923
1575665239.804826,32268.000,5160,3,GY,1,100,-1.129
1575665239.846472,32303.000,5160,3,GY,1,100,-0.366
1575665239.888119,32338.000,5160,3,GY,1,100,-0.977
1575665239.930162,32373.333,5179,3,GY,1,100,-1.007
1575665239.972206,32408.667,5179,3,GY,1,100,0.000
1575665240.014249,32444.000,5179,3,GY,1,100,1.038
1575665240.051136,32475.000,5197,3,GY,1,100,1.373
1575665240.088023,32506.000,5197,3,GY,1,100,-0.275
1575665240.124911,32537.000,5197,3,GY,1,100,0.793
1575665240.163384,32569.333,5215,3,GY,1,100,2.228
1575665240.201858,32601.667,5215,3,GY,1,100,1.160
1575665240.240332,32634.000,5215,3,GY,1,100,2.747
1575665240.285151,32671.667,5232,3,GY,1,100,1.282
1575665240.329971,32709.333,5232,3,GY,1,100,-0.854
1575665240.374791,32747.000,5232,3,GY,1,100,0.305
1575665240.416438,32782.000,5250,3,GY,1,100,0.732
1575665240.458085,32817.000,5250,3,GY,1,100,2.563
1575665240.499731,32852.000,5250,3,GY,1,100,3.113
1575665240.540585,32886.333,5266,3,GY,1,100,0.854
1575665240.581438,32920.667,5266,3,GY,1,100,-0.488
1575665240.622292,32955.000,5266,3,GY,1,100,0.977
1575665240.659972,32986.667,5284,3,GY,1,100,3.143
1575665240.697653,33018.333,5284,3,GY,1,100,1.373
1575665240.735333,33050.000,5284,3,GY,1,100,3.662
1575665240.773013,33081.667,5302,3,GY,1,100,0.580
1575665240.810694,33113.333,5302,3,GY,1,100,0.275
1575665240.848374,33145.000,5302,3,GY,1,100,1.892
1575665240.889228,33179.333,5321,3,GY,1,100,-0.793
1575665240.930081,33213.667,5321,3,GY,1,100,0.458
1575665240.970935,33248.000,5321,3,GY,1,100,0.275
1575665241.012185,33282.667,5339,3,GY,1,100,0.183
1575665241.053435,33317.333,5339,3,GY,1,100,1.068
1575665241.094685,33352.000,5339,3,GY,1,100,2.167
1575665241.139108,33389.333,5357,3,GY,1,100,4.883
1575665241.183531,33426.667,5357,3,GY,1,100,3.632
1575665241.227955,33464.000,5357,3,GY,1,100,2.167
1575665241.266825,33496.667,5375,3,GY,1,100,3.815
1575665241.305695,33529.333,5375,3,GY,1,100,1.434
1575665241.344565,33562.000,5375,3,GY,1,100,-2.228
1575665241.384070,33595.200,5396,5,GY,1,100,-4.883
1575665241.423575,33628.400,5396,5,GY,1,100,-13.245
1575665241.463080,33661.600,5396,5,GY,1,100,-15.594
1575665241.502585,33694.800,5396,5,GY,1,100,-15.259
1575665241.542090,33728.000,5396,5,GY,1,100,-14.740
1575665241.580564,33760.333,5416,3,GY,1,100,-10.223
1575665241.619037,33792.667,5416,3,GY,1,100,-6.866
1575665241.657511,33825.000,5416,3,GY,1,100,-1.099
1575665241.696778,33858.000,5434,3,GY,1,100,0.183
1575665241.736045,33891.000,5434,3,GY,1,100,1.465
1575665241.775312,33924.000,5434,3,GY,1,100,0.183
1575665241.816959,33959.000,5452,3,GY,1,100,-1.953
1575665241.858605,33994.000,5452,3,GY,1,100,-1.007
1575665241.900252,34029.000,5452,3,GY,1,100,-0.061
1575665241.941502,34063.667,5471,3,GY,1,100,-0.793
1575665241.982752,34098.333,5471,3,GY,1,100,0.427
1575665242.024003,34133.000,5471,3,GY,1,100,1.953
1575665242.064063,34166.667,5489,3,GY,1,100,3.143
1575665242.104123,34200.333,5489,3,GY,1,100,2.533
1575665242.144183,34234.000,5489,3,GY,1,100,0.092
1575665242.182260,34266.000,5506,3,GY,1,100,1.343
1575665242.220337,34298.000,5506,3,GY,1,100,1.587
1575665242.258414,34330.000,5506,3,GY,1,100,3.235
1575665242.303036,34367.500,5524,2,GY,1,100,8.087
1575665242.347657,34405.000,5524,2,GY,1,100,20.782
1575665242.387717,34438.667,5541,3,GY,1,100,36.621
1575665242.427778,34472.333,5541,3,GY,1,100,46.936
1575665242.467838,34506.000,5541,3,GY,1,100,49.896
1575665242.509088,34540.667,5558,3,GY,1,100,44.128
1575665242.550338,34575.333,5558,3,GY,1,100,36.194
1575665242.591588,34610.000,5558,3,GY,1,100,25.543
1575665242.632838,34644.667,5576,3,GY,1,100,30.975
1575665242.674088,34679.333,5576,3,GY,1,100,34.698
1575665242.715338,34714.000,5576,3,GY,1,100,20.233
1575665242.753416,34746.000,5594,4,GY,1,100,25.238
1575665242.791493,34778.000,5594,4,GY,1,100,28.748
1575665242.829570,34810.000,5594,4,GY,1,100,11.658
1575665242.867647,34842.000,5594,4,GY,1,100,8.118
1575665242.906914,34875.000,5613,3,GY,1,100,-3.845
1575665242.946181,34908.000,5613,3,GY,1,100,-27.588
1575665242.985447,34941.000,5613,3,GY,1,100,-9.338
1575665243.025309,34974.500,5631,2,GY,1,100,14.038
1575665243.065171,35008.000,5631,2,GY,1,100,16.418
1575665243.110388,35046.000,5649,3,GY,1,100,8.240
1575665243.155604,35084.000,5649,3,GY,1,100,8.118
1575665243.200821,35122.000,5649,3,GY,1,100,4.883
1575665243.242071,35156.667,5667,3,GY,1,100,6.592
1575665243.283321,35191.333,5667,3,GY,1,100,11.353
1575665243.324571,35226.000,5667,3,GY,1,100,13.306
1575665243.362648,35258.000,5684,3,GY,1,100,8.636
1575665243.400725,35290.000,5684,3,GY,1,100,5.493
1575665243.438802,35322.000,5684,3,GY,1,100,3.296
1575665243.477672,35354.667,5702,3,GY,1,100,1.343
1575665243.516543,35387.333,5702,3,GY,1,100,0.488
1575665243.555413,35420.000,5702,3,GY,1,100,0.122
1575665243.595870,35454.000,5720,3,GY,1,100,2.197
1575665243.636327,35488.000,5720,3,GY,1,100,1.373
1575665243.676784,35522.000,5720,3,GY,1,100,-0.580
1575665243.718034,35556.667,5736,3,GY,1,100,-0.854
1575665243.759284,35591.333,5736,3,GY,1,100,-0.549
1575665243.800534,35626.000,5736,3,GY,1,100,0.732
1575665243.841388,35660.333,5755,3,GY,1,100,1.068
1575665243.882241,35694.667,5755,3,GY,1,100,0.854
1575665243.923094,35729.000,5755,3,GY,1,100,0.916
1575665243.965534,35764.667,5773,3,GY,1,100,-0.916
1575665244.007974,35800.333,5773,3,GY,1,100,-0.122
1575665244.050415,35836.000,5773,3,GY,1,100,2.136
1575665244.088095,35867.667,5791,3,GY,1,100,0.763
1575665244.125775,35899.333,5791,3,GY,1,100,-0.916
1575665244.163456,35931.000,5791,3,GY,1,100,-0.549
1575665244.204706,35965.667,5809,3,GY,1,100,0.671
1575665244.245956,36000.333,5809,3,GY,1,100,0.427
1575665244.287206,36035.000,5809,3,GY,1,100,0.427
1575665244.328059,36069.333,5827,3,GY,1,100,0.427
1575665244.368913,36103.667,5827,3,GY,1,100,0.854
1575665244.409766,36138.000,5827,3,GY,1,100,-0.122
1575665244.451016,36172.667,5845,3,GY,1,100,-0.061
1575665244.492267,36207.333,5845,3,GY,1,100,0.702
1575665244.533517,36242.000,5845,3,GY,1,100,0.946
1575665244.571990,36274.333,5862,3,GY,1,100,0.702
1575665244.610464,36306.667,5862,3,GY,1,100,1.160
1575665244.648938,36339.000,5862,3,GY,1,100,0.519
1575665244.686222,36370.333,5880,3,GY,1,100,-0.122
1575665244.723505,36401.667,5880,3,GY,1,100,0.580
1575665244.760789,36433.000,5880,3,GY,1,100,0.763
1575665244.805609,36470.667,5899,3,GY,1,100,0.549
1575665244.850429,36508.333,5899,3,GY,1,100,1.282
1575665244.895249,36546.000,5899,3,GY,1,100,0.793
1575665244.929756,36575.000,5917,3,GY,1,100,-0.366
1575665244.964263,36604.000,5917,3,GY,1,100,2.563
1575665244.998770,36633.000,5917,3,GY,1,100,2.197
1575665245.042797,36670.000,5933,3,GY,1,100,0.031
1575665245.086824,36707.000,5933,3,GY,1,100,0.427
1575665245.130850,36744.000,5933,3,GY,1,100,0.092
1575665245.172497,36779.000,5951,3,GY,1,100,-0.092
1575665245.214144,36814.000,5951,3,GY,1,100,0.702
1575665245.255790,36849.000,5951,3,GY,1,100,1.495
1575665245.297437,36884.000,5969,3,GY,1,100,1.770
1575665245.339084,36919.000,5969,3,GY,1,100,-0.946
1575665245.380731,36954.000,5969,3,GY,1,100,-0.763
1575665245.419998,36987.000,5987,3,GY,1,100,0.610
1575665245.459265,37020.000,5987,3,GY,1,100,0.275
1575665245.498532,37053.000,5987,3,GY,1,100,-0.092
1575665245.536212,37084.667,6005,3,GY,1,100,-0.458
1575665245.573892,37116.333,6005,3,GY,1,100,0.092
1575665245.611573,37148.000,6005,3,GY,1,100,0.488
1575665245.651236,37181.333,6023,3,GY,1,100,-0.427
1575665245.690900,37214.667,6023,3,GY,1,100,0.458
1575665245.730563,37248.000,6023,3,GY,1,100,0.916
1575665245.772210,37283.000,6041,3,GY,1,100,-0.275
1575665245.813857,37318.000,6041,3,GY,1,100,-0.092
1575665245.855504,37353.000,6041,3,GY,1,100,-0.732
1575665245.903100,37393.000,6059,2,GY,1,100,0.275
1575665245.950696,37433.000,6059,2,GY,1,100,0.000
1575665245.990261,37466.250,6077,4,GY,1,100,0.946
1575665246.029825,37499.500,6077,4,GY,1,100,0.183
1575665246.069389,37532.750,6077,4,GY,1,100,-0.793
1575665246.108954,37566.000,6077,4,GY,1,100,-0.031
1575665246.147428,37598.333,6094,3,GY,1,100,1.587
1575665246.185901,37630.667,6094,3,GY,1,100,-0.183
1575665246.224375,37663.000,6094,3,GY,1,100,-0.397
1575665246.263245,37695.667,6111,3,GY,1,100,0.519
1575665246.302115,37728.333,6111,3,GY,1,100,-0.305
1575665246.340986,37761.000,6111,3,GY,1,100,0.031
1575665246.381443,37795.000,6129,3,GY,1,100,0.031
1575665246.421900,37829.000,6129,3,GY,1,100,0.061
1575665246.462356,37863.000,6129,3,GY,1,100,0.580
1575665246.503606,37897.667,6147,3,GY,1,100,-0.061
1575665246.544857,37932.333,6147,3,GY,1,100,0.214
1575665246.586107,37967.000,6147,3,GY,1,100,0.000
1575665246.625374,38000.000,6165,3,GY,1,100,0.305
1575665246.664640,38033.000,6165,3,GY,1,100,0.214
1575665246.703907,38066.000,6165,3,GY,1,100,0.061
1575665246.745554,38101.000,6183,3,GY,1,100,0.366
1575665246.787201,38136.000,6183,3,GY,1,100,0.427
1575665246.828848,38171.000,6183,3,GY,1,100,0.671
1575665246.868511,38204.333,6202,3,GY,1,100,-0.153
1575665246.908175,38237.667,6202,3,GY,1,100,-0.366
1575665246.947839,38271.000,6202,3,GY,1,100,-0.244
1575665246.989089,38305.667,6220,3,GY,1,100,0.092
1575665247.030339,38340.333,6220,3,GY,1,100,0.183
1575665247.071589,38375.000,6220,3,GY,1,100,-0.031
1575665247.112641,38409.500,6237,2,GY,1,100,-0.458
1575665247.153692,38444.000,6237,2,GY,1,100,0.458
1575665247.195339,38479.000,6255,3,GY,1,100,-0.397
1575665247.236986,38514.000,6255,3,GY,1,100,-0.458
1575665247.278633,38549.000,6255,3,GY,1,100,0.031
1575665247.316412,38580.750,6273,4,GY,1,100,0.061
1575665247.354192,38612.500,6273,4,GY,1,100,-0.397
1575665247.391971,38644.250,6273,4,GY,1,100,-0.458
1575665247.429751,38676.000,6273,4,GY,1,100,-0.153
1575665247.469018,38709.000,6294,4,GY,1,100,0.153
1575665247.508285,38742.000,6294,4,GY,1,100,-0.214
1575665247.547552,38775.000,6294,4,GY,1,100,-0.305
1575665247.586819,38808.000,6294,4,GY,1,100,-0.031
1575665247.632035,38846.000,6314,3,GY,1,100,-0.122
1575665247.677252,38884.000,6314,3,GY,1,100,-0.214
1575665247.722468,38922.000,6314,3,GY,1,100,0.092
1575665247.763321,38956.333,6331,3,GY,1,100,0.183
1575665247.804175,38990.667,6331,3,GY,1,100,-0.305
1575665247.845028,39025.000,6331,3,GY,1,100,0.671
1575665247.883502,39057.333,6350,3,GY,1,100,0.275
1575665247.921976,39089.667,6350,3,GY,1,100,-0.732
1575665247.960449,39122.000,6350,3,GY,1,100,0.214
1575665247.998923,39154.333,6368,3,GY,1,100,-0.092
1575665248.037397,39186.667,6368,3,GY,1,100,-0.061
1575665248.075871,39219.000,6368,3,GY,1,100,-0.336
1575665248.113947,39251.000,6386,3,GY,1,100,-0.732
1575665248.152025,39283.000,6386,3,GY,1,100,0.427
1575665248.190102,39315.000,6386,3,GY,1,100,-0.092
1575665248.231352,39349.667,6402,3,GY,1,100,0.244
1575665248.272602,39384.333,6402,3,GY,1,100,0.549
1575665248.313852,39419.000,6402,3,GY,1,100,-0.275
1575665248.359068,39457.000,6420,3,GY,1,100,-0.214
1575665248.404285,39495.000,6420,3,GY,1,100,-0.549
1575665248.449501,39533.000,6420,3,GY,1,100,-0.397
1575665248.487975,39565.333,6438,3,GY,1,100,0.275
1575665248.526449,39597.667,6438,3,GY,1,100,0.336
1575665248.564922,39630.000,6438,3,GY,1,100,-0.214
1575665248.610139,39668.000,6456,3,GY,1,100,-0.336
1575665248.655355,39706.000,6456,3,GY,1,100,0.122
1575665248.700572,39744.000,6456,3,GY,1,100,0.153
1575665248.739442,39776.667,6474,3,GY,1,100,0.458
1575665248.778312,39809.333,6474,3,GY,1,100,0.732
1575665248.817183,39842.000,6474,3,GY,1,100,-0.214
1575665248.854070,39873.000,6493,3,GY,1,100,-0.336
1575665248.890957,39904.000,6493,3,GY,1,100,0.183
1575665248.927844,39935.000,6493,3,GY,1,100,0.458
1575665248.969094,39969.667,6511,3,GY,1,100,0.275
1575665249.010344,40004.333,6511,3,GY,1,100,0.244
1575665249.051594,40039.000,6511,3,GY,1,100,-0.092
1575665249.089671,40071.000,6528,3,GY,1,100,0.397
1575665249.127748,40103.000,6528,3,GY,1,100,-0.092
1575665249.165825,40135.000,6528,3,GY,1,100,-0.610
1575665249.206679,40169.333,6546,3,GY,1,100,-0.183
1575665249.247532,40203.667,6546,3,GY,1,100,-0.214
1575665249.288386,40238.000,6546,3,GY,1,100,0.244
1575665249.329239,40272.333,6562,3,GY,1,100,0.000
1575665249.370093,40306.667,6562,3,GY,1,100,-0.031
1575665249.410946,40341.000,6562,3,GY,1,100,0.214
1575665249.452593,40376.000,6580,3,GY,1,100,-0.092
1575665249.494240,40411.000,6580,3,GY,1,100,-0.031
1575665249.535887,40446.000,6580,3,GY,1,100,0.031
1575665249.575154,40479.000,6598,3,GY,1,100,-0.153
1575665249.614420,40512.000,6598,3,GY,1,100,0.153
1575665249.653687,40545.000,6598,3,GY,1,100,-0.397
1575665249.691764,40577.000,6616,3,GY,1,100,-0.366
1575665249.729841,40609.000,6616,3,GY,1,100,0.275
1575665249.767919,40641.000,6616,3,GY,1,100,0.641
1575665249.807582,40674.333,6635,3,GY,1,100,-0.427
1575665249.847246,40707.667,6635,3,GY,1,100,-0.214
1575665249.886909,40741.000,6635,3,GY,1,100,-0.183
1575665249.931332,40778.333,6653,3,GY,1,100,-0.488
1575665249.975756,40815.667,6653,3,GY,1,100,0.092
1575665250.020179,40853.000,6653,3,GY,1,100,0.488
1575665250.061429,40887.667,6671,3,GY,1,100,0.061
1575665250.102679,40922.333,6671,3,GY,1,100,-0.061
1575665250.143929,40957.000,6671,3,GY,1,100,-0.671
1575665250.183196,40990.000,6688,3,GY,1,100,-0.122
1575665250.222463,41023.000,6688,3,GY,1,100,0.488
1575665250.261730,41056.000,6688,3,GY,1,100,0.092
1575665250.299807,41088.000,6706,3,GY,1,100,-0.305
1575665250.337884,41120.000,6706,3,GY,1,100,-0.122
1575665250.375961,41152.000,6706,3,GY,1,100,0.000
1575665250.414831,41184.667,6724,3,GY,1,100,0.153
1575665250.453702,41217.333,6724,3,GY,1,100,0.336
1575665250.492572,41250.000,6724,3,GY,1,100,-0.305
1575665250.534219,41285.000,6742,3,GY,1,100,-0.702
1575665250.575866,41320.000,6742,3,GY,1,100,-0.031
1575665250.617512,41355.000,6742,3,GY,1,100,0.244
1575665250.663324,41393.500,6758,2,GY,1,100,0.305
1575665250.709135,41432.000,6758,2,GY,1,100,0.031
1575665250.750385,41466.667,6776,3,GY,1,100,-0.214
1575665250.791635,41501.333,6776,3,GY,1,100,0.000
1575665250.832886,41536.000,6776,3,GY,1,100,0.580
1575665250.870962,41568.000,6795,4,GY,1,100,0.244
1575665250.909039,41600.000,6795,4,GY,1,100,0.122
1575665250.947116,41632.000,6795,4,GY,1,100,-0.336
1575665250.985193,41664.000,6795,4,GY,1,100,-0.610
1575665251.024461,41697.000,6813,3,GY,1,100,0.275
1575665251.063727,41730.000,6813,3,GY,1,100,1.099
1575665251.102994,41763.000,6813,3,GY,1,100,0.580
1575665251.143848,41797.333,6831,3,GY,1,100,0.122
1575665251.184701,41831.667,6831,3,GY,1,100,-0.092
1575665251.225555,41866.000,6831,3,GY,1,100,-0.916
1575665251.266607,41900.500,6849,2,GY,1,100,0.214
1575665251.307658,41935.000,6849,2,GY,1,100,0.488
1575665251.349305,41970.000,6867,3,GY,1,100,-0.031
1575665251.390952,42005.000,6867,3,GY,1,100,0.336
1575665251.432599,42040.000,6867,3,GY,1,100,0.153
1575665251.473452,42074.333,6884,3,GY,1,100,0.000
1575665251.514306,42108.667,6884,3,GY,1,100,1.190
1575665251.555159,42143.000,6884,3,GY,1,100,0.854
1575665251.594426,42176.000,6902,3,GY,1,100,0.000
1575665251.633693,42209.000,6902,3,GY,1,100,-0.031
1575665251.672960,42242.000,6902,3,GY,1,100,-0.336
1575665251.713020,42275.667,6920,3,GY,1,100,-0.122
1575665251.753080,42309.333,6920,3,GY,1,100,0.061
1575665251.793140,42343.000,6920,3,GY,1,100,0.366
1575665251.834787,42378.000,6937,3,GY,1,100,0.763
1575665251.876434,42413.000,6937,3,GY,1,100,0.366
1575665251.918081,42448.000,6937,3,GY,1,100,-0.519
1575665251.959331,42482.667,6955,3,GY,1,100,-0.885
1575665252.000581,42517.333,6955,3,GY,1,100,0.244
1575665252.041831,42552.000,6955,3,GY,1,100,0.427
1575665252.078718,42583.000,6973,3,GY,1,100,0.275
1575665252.115605,42614.000,6973,3,GY,1,100,0.061
1575665252.152493,42645.000,6973,3,GY,1,100,0.122
1575665252.191363,42677.667,6991,3,GY,1,100,0.092
1575665252.230233,42710.333,6991,3,GY,1,100,0.061
1575665252.269103,42743.000,6991,3,GY,1,100,0.183
1575665252.313527,42780.333,7009,3,GY,1,100,0.061
1575665252.357950,42817.667,7009,3,GY,1,100,-0.183
1575665252.402373,42855.000,7009,3,GY,1,100,-0.244
1575665252.441243,42887.667,7027,3,GY,1,100,0.153
1575665252.480114,42920.333,7027,3,GY,1,100,0.092
1575665252.518984,42953.000,7027,3,GY,1,100,0.061
1575665252.563010,42990.000,7045,3,GY,1,100,-0.122
1575665252.607037,43027.000,7045,3,GY,1,100,-0.610
1575665252.651064,43064.000,7045,3,GY,1,100,0.031
1575665252.692314,43098.667,7062,3,GY,1,100,0.366
1575665252.733564,43133.333,7062,3,GY,1,100,-0.580
1575665252.774814,43168.000,7062,3,GY,1,100,-0.824
1575665252.816461,43203.000,7081,3,GY,1,100,-0.671
1575665252.858107,43238.000,7081,3,GY,1,100,-0.061
1575665252.899754,43273.000,7081,3,GY,1,100,0.183
1575665252.937435,43304.667,7098,3,GY,1,100,0.488
1575665252.975115,43336.333,7098,3,GY,1,100,1.038
1575665253.012795,43368.000,7098,3,GY,1,100,0.610
1575665253.050476,43399.667,7115,3,GY,1,100,-0.244
1575665253.088156,43431.333,7115,3,GY,1,100,-0.519
1575665253.125837,43463.000,7115,3,GY,1,100,-1.282
1575665253.166293,43497.000,7133,3,GY,1,100,-1.770
1575665253.206750,43531.000,7133,3,GY,1,100,-0.519
1575665253.247207,43565.000,7133,3,GY,1,100,0.244
1575665253.288457,43599.667,7151,3,GY,1,100,-0.977
1575665253.329707,43634.333,7151,3,GY,1,100,-0.244
1575665253.370957,43669.000,7151,3,GY,1,100,0.000
1575665253.413001,43704.333,7169,3,GY,1,100,0.183
1575665253.455044,43739.667,7169,3,GY,1,100,0.519
1575665253.497087,43775.000,7169,3,GY,1,100,0.244
1575665253.537307,43808.800,7190,5,GY,1,100,0.153
1575665253.577525,43842.600,7190,5,GY,1,100,-0.366
1575665253.617744,43876.400,7190,5,GY,1,100,-0.549
1575665253.657963,43910.200,7190,5,GY,1,100,-0.031
1575665253.698182,43944.000,7190,5,GY,1,100,0.153
1575665253.737845,43977.333,7208,3,GY,1,100,0.214
1575665253.777509,44010.667,7208,3,GY,1,100,-0.214
1575665253.817173,44044.000,7208,3,GY,1,100,-0.336
1575665253.858026,44078.333,7227,3,GY,1,100,-0.122
1575665253.898880,44112.667,7227,3,GY,1,100,0.122
1575665253.939733,44147.000,7227,3,GY,1,100,0.824
1575665253.980785,44181.500,7245,2,GY,1,100,-0.336
1575665254.021837,44216.000,7245,2,GY,1,100,-0.946
1575665254.063483,44251.000,7263,3,GY,1,100,-1.068
1575665254.105130,44286.000,7263,3,GY,1,100,-0.854
1575665254.146777,44321.000,7263,3,GY,1,100,0.488
1575665254.184457,44352.667,7281,3,GY,1,100,0.244
1575665254.222138,44384.333,7281,3,GY,1,100,0.153
1575665254.259818,44416.000,7281,3,GY,1,100,0.153
1575665254.301862,44451.333,7299,3,GY,1,100,0.092
1575665254.343905,44486.667,7299,3,GY,1,100,0.000
1575665254.385948,44522.000,7299,3,GY,1,100,-0.061
1575665254.426405,44556.000,7317,3,GY,1,100,-0.031
1575665254.466862,44590.000,7317,3,GY,1,100,-0.031
1575665254.507319,44624.000,7317,3,GY,1,100,-0.702
1575665254.548965,44659.000,7334,3,GY,1,100,-0.427
1575665254.590612,44694.000,7334,3,GY,1,100,0.397
1575665254.632259,44729.000,7334,3,GY,1,100,0.458
1575665254.674302,44764.333,7352,3,GY,1,100,-0.153
1575665254.716346,44799.667,7352,3,GY,1,100,-0.275
1575665254.758389,44835.000,7352,3,GY,1,100,-0.122
1575665254.796863,44867.333,7370,3,GY,1,100,-0.122
1575665254.835336,44899.667,7370,3,GY,1,100,0.183
1575665254.873810,44932.000,7370,3,GY,1,100,0.153
1575665254.911887,44964.000,7387,3,GY,1,100,0.397
1575665254.949964,44996.000,7387,3,GY,1,100,-0.275
1575665254.988041,45028.000,7387,3,GY,1,100,-0.092
1575665255.032465,45065.333,7405,3,GY,1,100,0.153
1575665255.076888,45102.667,7405,3,GY,1,100,0.336
1575665255.121311,45140.000,7405,3,GY,1,100,0.427
1575665255.162958,45175.000,7423,3,GY,1,100,0.153
1575665255.204604,45210.000,7423,3,GY,1,100,0.458
1575665255.246251,45245.000,7423,3,GY,1,100,-0.275
1575665255.287105,45279.333,7441,3,GY,1,100,0.183
1575665255.327958,45313.667,7441,3,GY,1,100,0.031
1575665255.368812,45348.000,7441,3,GY,1,100,0.061
1575665255.407682,45380.667,7459,3,GY,1,100,-0.183
1575665255.446552,45413.333,7459,3,GY,1,100,-0.275
1575665255.485422,45446.000,7459,3,GY,1,100,-0.122
1575665255.522310,45477.000,7477,3,GY,1,100,-0.031
1575665255.559197,45508.000,7477,3,GY,1,100,0.000
1575665255.596084,45539.000,7477,3,GY,1,100,-0.458
1575665255.636937,45573.333,7495,3,GY,1,100,-0.366
1575665255.677791,45607.667,7495,3,GY,1,100,0.305
1575665255.718644,45642.000,7495,3,GY,1,100,0.092
1575665255.759894,45676.667,7512,3,GY,1,100,0.244
1575665255.801145,45711.333,7512,3,GY,1,100,-0.610
1575665255.842395,45746.000,7512,3,GY,1,100,-1.434
1575665255.887214,45783.667,7531,3,GY,1,100,-0.366
1575665255.932034,45821.333,7531,3,GY,1,100,1.740
1575665255.976854,45859.000,7531,3,GY,1,100,1.343
1575665256.015724,45891.667,7549,3,GY,1,100,-0.061
1575665256.054595,45924.333,7549,3,GY,1,100,0.427
1575665256.093465,45957.000,7549,3,GY,1,100,0.214
1575665256.131939,45989.333,7565,3,GY,1,100,-0.214
1575665256.170412,46021.667,7565,3,GY,1,100,-0.336
1575665256.208886,46054.000,7565,3,GY,1,100,-0.580
1575665256.248946,46087.667,7583,3,GY,1,100,-0.610
1575665256.289006,46121.333,7583,3,GY,1,100,0.366
1575665256.329067,46155.000,7583,3,GY,1,100,0.153
1575665256.369920,46189.333,7601,3,GY,1,100,0.031
1575665256.410774,46223.667,7601,3,GY,1,100,0.488
1575665256.451627,46258.000,7601,3,GY,1,100,0.610
1575665256.492084,46292.000,7619,3,GY,1,100,0.702
1575665256.532541,46326.000,7619,3,GY,1,100,0.458
1575665256.572998,46360.000,7619,3,GY,1,100,0.092
1575665256.612661,46393.333,7637,3,GY,1,100,-0.305
1575665256.652325,46426.667,7637,3,GY,1,100,0.031
1575665256.691988,46460.000,7637,3,GY,1,100,0.549
1575665256.732049,46493.667,7655,3,GY,1,100,0.153
1575665256.772109,46527.333,7655,3,GY,1,100,-0.061
1575665256.812169,46561.000,7655,3,GY,1,100,-0.153
1575665256.853023,46595.333,7674,3,GY,1,100,-0.854
1575665256.893876,46629.667,7674,3,GY,1,100,0.183
1575665256.934729,46664.000,7674,3,GY,1,100,0.366
1575665256.976773,46699.333,7691,3,GY,1,100,-0.427
1575665257.018816,46734.667,7691,3,GY,1,100,-0.610
1575665257.060860,46770.000,7691,3,GY,1,100,-0.122
1575665257.098540,46801.667,7709,3,GY,1,100,0.427
1575665257.136220,46833.333,7709,3,GY,1,100,1.373
1575665257.173901,46865.000,7709,3,GY,1,100,3.387
1575665257.212771,46897.667,7727,3,GY,1,100,4.456
1575665257.251641,46930.333,7727,3,GY,1,100,0.214
1575665257.290512,46963.000,7727,3,GY,1,100,-2.014
1575665257.334142,46999.667,7743,3,GY,1,100,-2.838
1575665257.377772,47036.333,7743,3,GY,1,100,-0.732
1575665257.421402,47073.000,7743,3,GY,1,100,1.190
1575665257.462255,47107.333,7761,3,GY,1,100,0.458
1575665257.503109,47141.667,7761,3,GY,1,100,0.031
1575665257.543962,47176.000,7761,3,GY,1,100,-0.061
1575665257.585609,47211.000,7779,2,GY,1,100,0.336
1575665257.627255,47246.000,7779,2,GY,1,100,1.404
1575665257.666522,47279.000,7797,4,GY,1,100,-0.244
1575665257.705789,47312.000,7797,4,GY,1,100,0.519
1575665257.745056,47345.000,7797,4,GY,1,100,0.153
1575665257.784323,47378.000,7797,4,GY,1,100,-0.549
1575665257.822004,47409.667,7816,3,GY,1,100,-0.671
1575665257.859684,47441.333,7816,3,GY,1,100,0.366
1575665257.897364,47473.000,7816,3,GY,1,100,0.336
1575665257.937425,47506.667,7834,3,GY,1,100,-0.366
1575665257.977485,47540.333,7834,3,GY,1,100,-0.549
1575665258.017545,47574.000,7834,3,GY,1,100,-0.793
1575665258.058398,47608.333,7852,3,GY,1,100,-0.824
1575665258.099252,47642.667,7852,3,GY,1,100,-0.092
1575665258.140105,47677.000,7852,3,GY,1,100,0.610
1575665258.187107,47716.500,7870,2,GY,1,100,0.671
1575665258.234108,47756.000,7870,2,GY,1,100,0.397
1575665258.274565,47790.000,7887,3,GY,1,100,-0.275
1575665258.315022,47824.000,7887,3,GY,1,100,-0.122
1575665258.355479,47858.000,7887,3,GY,1,100,-0.305
1575665258.392961,47889.500,7905,4,GY,1,100,-0.702
1575665258.430443,47921.000,7905,4,GY,1,100,-0.122
1575665258.467925,47952.500,7905,4,GY,1,100,-0.092
1575665258.505407,47984.000,7905,4,GY,1,100,-0.366
1575665258.545070,48017.333,7923,3,GY,1,100,0.122
1575665258.584734,48050.667,7923,3,GY,1,100,-0.122
1575665258.624398,48084.000,7923,3,GY,1,100,0.214
1575665258.666044,48119.000,7939,2,GY,1,100,-0.427
1575665258.707691,48154.000,7939,2,GY,1,100,-0.458
1575665258.748941,48188.667,7957,3,GY,1,100,-0.488
1575665258.790191,48223.333,7957,3,GY,1,100,-0.397
1575665258.831441,48258.000,7957,3,GY,1,100,-2.533
1575665258.873088,48293.000,7976,3,GY,1,100,-2.960
1575665258.914735,48328.000,7976,3,GY,1,100,-2.289
1575665258.956382,48363.000,7976,3,GY,1,100,-0.244
1575665258.997632,48397.667,7994,3,GY,1,100,1.282
1575665259.038882,48432.333,7994,3,GY,1,100,1.038
1575665259.080132,48467.000,7994,3,GY,1,100,0.641
1575665259.118209,48499.000,8012,3,GY,1,100,0.122
1575665259.156286,48531.000,8012,3,GY,1,100,-0.549
1575665259.194363,48563.000,8012,3,GY,1,100,-0.488
1575665259.236010,48598.000,8030,3,GY,1,100,1.221
1575665259.277657,48633.000,8030,3,GY,1,100,0.458
1575665259.319304,48668.000,8030,3,GY,1,100,-0.153
1575665259.360157,48702.333,8048,3,GY,1,100,-0.885
1575665259.401011,48736.667,8048,3,GY,1,100,-1.495
1575665259.441864,48771.000,8048,3,GY,1,100,-0.763
1575665259.482321,48805.000,8065,3,GY,1,100,0.641
1575665259.522778,48839.000,8065,3,GY,1,100,-2.350
1575665259.563234,48873.000,8065,3,GY,1,100,-2.441
1575665259.600836,48904.600,8086,5,GY,1,100,-0.519
1575665259.638437,48936.200,8086,5,GY,1,100,-0.580
1575665259.676038,48967.800,8086,5,GY,1,100,0.092
1575665259.713639,48999.400,8086,5,GY,1,100,2.014
1575665259.751240,49031.000,8086,5,GY,1,100,3.052
1575665259.796456,49069.000,8107,3,GY,1,100,2.777
1575665259.841673,49107.000,8107,3,GY,1,100,-0.854
1575665259.886889,49145.000,8107,3,GY,1,100,-1.587
1575665259.921396,49174.000,8125,3,GY,1,100,-3.418
1575665259.955904,49203.000,8125,3,GY,1,100,-8.087
1575665259.990411,49232.000,8125,3,GY,1,100,-11.261
1575665260.032058,49267.000,8143,3,GY,1,100,1.282
1575665260.073704,49302.000,8143,3,GY,1,100,8.698
1575665260.115351,49337.000,8143,3,GY,1,100,4.852
1575665260.160171,49374.667,8160,3,GY,1,100,2.716
1575665260.204991,49412.333,8160,3,GY,1,100,0.458
1575665260.249811,49450.000,8160,3,GY,1,100,-0.946
1575665260.291854,49485.333,8178,3,GY,1,100,-10.590
1575665260.333898,49520.667,8178,3,GY,1,100,-21.606
1575665260.375941,49556.000,8178,3,GY,1,100,-15.594
1575665260.414415,49588.333,8196,3,GY,1,100,-8.850
1575665260.452888,49620.667,8196,3,GY,1,100,-8.820
1575665260.491362,49653.000,8196,3,GY,1,100,-11.505
1575665260.529439,49685.000,8212,3,GY,1,100,-11.200
1575665260.567516,49717.000,8212,3,GY,1,100,-8.026
1575665260.605593,49749.000,8212,3,GY,1,100,-3.784
1575665260.646843,49783.667,8230,3,GY,1,100,-3.693
1575665260.688093,49818.333,8230,3,GY,1,100,-8.148
1575665260.729343,49853.000,8230,3,GY,1,100,-7.233
1575665260.768214,49885.667,8248,3,GY,1,100,-9.796
1575665260.807084,49918.333,8248,3,GY,1,100,-8.606
1575665260.845954,49951.000,8248,3,GY,1,100,4.211
1575665260.886808,49985.333,8267,3,GY,1,100,2.777
1575665260.927661,50019.667,8267,3,GY,1,100,-5.096
1575665260.968515,50054.000,8267,3,GY,1,100,-16.846
1575665261.009765,50088.667,8285,3,GY,1,100,-22.369
1575665261.051015,50123.333,8285,3,GY,1,100,-6.714
1575665261.092265,50158.000,8285,3,GY,1,100,21.454
1575665261.133912,50193.000,8303,3,GY,1,100,32.043
1575665261.175559,50228.000,8303,3,GY,1,100,6.592
1575665261.217205,50263.000,8303,3,GY,1,100,-17.456
1575665261.255282,50295.000,8321,2,GY,1,100,-18.646
1575665261.293360,50327.000,8321,2,GY,1,100,-3.632
1575665261.333816,50361.000,8339,4,GY,1,100,11.780
1575665261.374273,50395.000,8339,4,GY,1,100,10.651
1575665261.414730,50429.000,8339,4,GY,1,100,6.348
1575665261.455187,50463.000,8339,4,GY,1,100,5.676
1575665261.495644,50497.000,8356,3,GY,1,100,5.920
1575665261.536101,50531.000,8356,3,GY,1,100,3.845
1575665261.576557,50565.000,8356,3,GY,1,100,1.587
1575665261.616618,50598.667,8374,3,GY,1,100,-0.824
1575665261.656678,50632.333,8374,3,GY,1,100,-7.141
1575665261.696738,50666.000,8374,3,GY,1,100,-8.789
1575665261.738980,50701.500,8390,2,GY,1,100,-0.732
1575665261.781221,50737.000,8390,2,GY,1,100,8.850
1575665261.820488,50770.000,8409,4,GY,1,100,8.453
1575665261.859755,50803.000,8409,4,GY,1,100,1.007
1575665261.899022,50836.000,8409,4,GY,1,100,0.458
1575665261.938289,50869.000,8409,4,GY,1,100,0.549
1575665261.975970,50900.667,8427,3,GY,1,100,-2.991
1575665262.013650,50932.333,8427,3,GY,1,100,-10.071
1575665262.051330,50964.000,8427,3,GY,1,100,-10.712
1575665262.097142,51002.500,8445,2,GY,1,100,-2.563
1575665262.142953,51041.000,8445,2,GY,1,100,6.256
1575665262.184203,51075.667,8463,3,GY,1,100,9.521
1575665262.225453,51110.333,8463,3,GY,1,100,5.188
1575665262.266704,51145.000,8463,3,GY,1,100,-0.336
1575665262.307954,51179.667,8481,3,GY,1,100,-2.502
1575665262.349204,51214.333,8481,3,GY,1,100,-2.197
1575665262.390454,51249.000,8481,3,GY,1,100,-0.153
1575665262.430117,51282.333,8499,3,GY,1,100,3.448
1575665262.469781,51315.667,8499,3,GY,1,100,2.197
1575665262.509445,51349.000,8499,3,GY,1,100,-0.092
1575665262.547522,51381.000,8517,4,GY,1,100,0.427
1575665262.585599,51413.000,8517,4,GY,1,100,0.793
1575665262.623676,51445.000,8517,4,GY,1,100,-2.106
1575665262.661753,51477.000,8517,4,GY,1,100,-4.730
1575665262.701813,51510.667,8534,3,GY,1,100,-6.439
1575665262.741873,51544.333,8534,3,GY,1,100,-5.402
1575665262.781933,51578.000,8534,3,GY,1,100,2.716
1575665262.823580,51613.000,8553,2,GY,1,100,8.606
1575665262.865227,51648.000,8553,2,GY,1,100,5.249
1575665262.906477,51682.667,8569,3,GY,1,100,0.427
1575665262.947727,51717.333,8569,3,GY,1,100,-2.289
1575665262.988977,51752.000,8569,3,GY,1,100,-1.709
1575665263.032607,51788.667,8587,3,GY,1,100,-5.524
1575665263.076237,51825.333,8587,3,GY,1,100,-14.313
1575665263.119867,51862.000,8587,3,GY,1,100,-19.928
1575665263.157547,51893.667,8605,3,GY,1,100,-19.348
1575665263.195228,51925.333,8605,3,GY,1,100,-2.350
1575665263.232908,51957.000,8605,3,GY,1,100,9.827
1575665263.271779,51989.667,8623,3,GY,1,100,5.493
1575665263.310649,52022.333,8623,3,GY,1,100,-1.587
1575665263.349519,52055.000,8623,3,GY,1,100,-8.301
1575665263.391166,52090.000,8641,3,GY,1,100,-21.942
1575665263.432813,52125.000,8641,3,GY,1,100,-49.469
1575665263.474459,52160.000,8641,3,GY,1,100,-31.128
1575665263.515313,52194.333,8659,3,GY,1,100,6.805
1575665263.556166,52228.667,8659,3,GY,1,100,20.996
1575665263.597020,52263.000,8659,3,GY,1,100,7.996
1575665263.637873,52297.333,8677,3,GY,1,100,-1.038
1575665263.678727,52331.667,8677,3,GY,1,100,-12.360
1575665263.719580,52366.000,8677,3,GY,1,100,-21.027
1575665263.760434,52400.333,8695,3,GY,1,100,-25.574
1575665263.801287,52434.667,8695,3,GY,1,100,-20.752
1575665263.842141,52469.000,8695,3,GY,1,100,1.282
1575665263.878234,52499.333,8714,3,GY,1,100,30.090
1575665263.914328,52529.667,8714,3,GY,1,100,22.339
1575665263.950422,52560.000,8714,3,GY,1,100,0.854
1575665263.991672,52594.667,8731,3,GY,1,100,-23.346
1575665264.032923,52629.333,8731,3,GY,1,100,-35.492
1575665264.074172,52664.000,8731,3,GY,1,100,-25.269
1575665264.112646,52696.333,8749,3,GY,1,100,2.869
1575665264.151120,52728.667,8749,3,GY,1,100,14.832
1575665264.189594,52761.000,8749,3,GY,1,100,-3.754
1575665264.230447,52795.333,8767,3,GY,1,100,-25.543
1575665264.271301,52829.667,8767,3,GY,1,100,-42.450
1575665264.312154,52864.000,8767,3,GY,1,100,-32.654
1575665264.353404,52898.667,8783,3,GY,1,100,1.648
1575665264.394654,52933.333,8783,3,GY,1,100,60.455
1575665264.435904,52968.000,8783,3,GY,1,100,48.279
1575665264.476758,53002.333,8801,3,GY,1,100,14.282
1575665264.517611,53036.667,8801,3,GY,1,100,-3.204
1575665264.558465,53071.000,8801,3,GY,1,100,-10.498
1575665264.596938,53103.333,8819,3,GY,1,100,-3.754
1575665264.635412,53135.667,8819,3,GY,1,100,4.700
1575665264.673886,53168.000,8819,3,GY,1,100,5.768
1575665264.711963,53200.000,8837,3,GY,1,100,-1.678
1575665264.750040,53232.000,8837,3,GY,1,100,0.427
1575665264.788117,53264.000,8837,3,GY,1,100,-2.502
1575665264.832937,53301.667,8856,3,GY,1,100,-14.343
1575665264.877757,53339.333,8856,3,GY,1,100,-7.416
1575665264.922576,53377.000,8856,3,GY,1,100,10.193
1575665264.963826,53411.667,8874,3,GY,1,100,14.435
1575665265.005077,53446.333,8874,3,GY,1,100,2.563
1575665265.046327,53481.000,8874,3,GY,1,100,-3.998
1575665265.087973,53516.000,8891,3,GY,1,100,3.754
1575665265.129620,53551.000,8891,3,GY,1,100,11.017
1575665265.171267,53586.000,8891,3,GY,1,100,6.317
1575665265.208551,53617.333,8909,3,GY,1,100,-4.944
1575665265.245835,53648.667,8909,3,GY,1,100,-4.211
1575665265.283118,53680.000,8909,3,GY,1,100,3.845
1575665265.321989,53712.667,8927,3,GY,1,100,8.972
1575665265.360859,53745.333,8927,3,GY,1,100,5.219
1575665265.399729,53778.000,8927,3,GY,1,100,-5.890
1575665265.440186,53812.000,8945,3,GY,1,100,-20.935
1575665265.480643,53846.000,8945,3,GY,1,100,-24.902
1575665265.521100,53880.000,8945,3,GY,1,100,-5.676
1575665265.561953,53914.333,8961,3,GY,1,100,9.888
1575665265.602807,53948.667,8961,3,GY,1,100,16.174
1575665265.643660,53983.000,8961,3,GY,1,100,14.709
1575665265.686021,54018.600,8982,5,GY,1,100,4.639
1575665265.728382,54054.200,8982,5,GY,1,100,-4.852
1575665265.770742,54089.800,8982,5,GY,1,100,-6.775
1575665265.813103,54125.400,8982,5,GY,1,100,-8.636
1575665265.855464,54161.000,8982,5,GY,1,100,-9.186
1575665265.893541,54193.000,9002,3,GY,1,100,-11.108
1575665265.931618,54225.000,9002,3,GY,1,100,-9.308
1575665265.969695,54257.000,9002,3,GY,1,100,-9.583
1575665266.009358,54290.333,9020,3,GY,1,100,-9.918
1575665266.049022,54323.667,9020,3,GY,1,100,-11.169
1575665266.088686,54357.000,9020,3,GY,1,100,-7.599
1575665266.130332,54392.000,9038,3,GY,1,100,-2.197
1575665266.171979,54427.000,9038,3,GY,1,100,6.897
1575665266.213626,54462.000,9038,3,GY,1,100,11.414
1575665266.254678,54496.500,9054,2,GY,1,100,9.613
1575665266.295729,54531.000,9054,2,GY,1,100,7.324
1575665266.336979,54565.667,9072,3,GY,1,100,0.519
1575665266.378229,54600.333,9072,3,GY,1,100,-2.045
1575665266.419480,54635.000,9072,3,GY,1,100,-1.465
1575665266.457557,54667.000,9090,4,GY,1,100,-1.007
1575665266.495634,54699.000,9090,4,GY,1,100,-2.350
1575665266.533711,54731.000,9090,4,GY,1,100,-4.608
1575665266.571788,54763.000,9090,4,GY,1,100,0.275
1575665266.617004,54801.000,9108,2,GY,1,100,1.617
1575665266.662221,54839.000,9108,2,GY,1,100,-3.479
1575665266.702677,54873.000,9126,3,GY,1,100,-6.805
1575665266.743134,54907.000,9126,3,GY,1,100,-9.613
1575665266.783591,54941.000,9126,3,GY,1,100,-10.101
1575665266.824841,54975.667,9145,3,GY,1,100,-7.874
1575665266.866091,55010.333,9145,3,GY,1,100,-4.028
1575665266.907341,55045.000,9145,3,GY,1,100,1.404
1575665266.948988,55080.000,9163,3,GY,1,100,2.594
1575665266.990635,55115.000,9163,3,GY,1,100,0.244
1575665267.032282,55150.000,9163,3,GY,1,100,-0.305
1575665267.069169,55181.000,9180,3,GY,1,100,-2.045
1575665267.106056,55212.000,9180,3,GY,1,100,-5.280
1575665267.142943,55243.000,9180,3,GY,1,100,-10.773
1575665267.182210,55276.000,9198,3,GY,1,100,-6.531
1575665267.221477,55309.000,9198,3,GY,1,100,12.848
1575665267.260744,55342.000,9198,3,GY,1,100,21.423
1575665267.303977,55378.333,9216,3,GY,1,100,3.265
1575665267.347211,55414.667,9216,3,GY,1,100,-14.893
1575665267.390444,55451.000,9216,3,GY,1,100,-18.494
1575665267.429314,55483.667,9232,3,GY,1,100,-2.472
1575665267.468184,55516.333,9232,3,GY,1,100,16.479
1575665267.507055,55549.000,9232,3,GY,1,100,19.501
1575665267.547512,55583.000,9250,3,GY,1,100,10.101
1575665267.587968,55617.000,9250,3,GY,1,100,0.427
1575665267.628425,55651.000,9250,3,GY,1,100,-7.538
1575665267.670469,55686.333,9268,3,GY,1,100,-6.348
1575665267.712512,55721.667,9268,3,GY,1,100,3.937
1575665267.754555,55757.000,9268,3,GY,1,100,10.376
1575665267.796202,55792.000,9287,3,GY,1,100,7.233
1575665267.837849,55827.000,9287,3,GY,1,100,0.366
1575665267.879496,55862.000,9287,3,GY,1,100,-1.251
1575665267.923919,55899.333,9305,3,GY,1,100,-2.319
1575665267.968342,55936.667,9305,3,GY,1,100,1.190
1575665268.012765,55974.000,9305,3,GY,1,100,2.075
1575665268.052825,56007.667,9323,3,GY,1,100,1.923
1575665268.092886,56041.333,9323,3,GY,1,100,2.838
1575665268.132946,56075.000,9323,3,GY,1,100,2.991
1575665268.171023,56107.000,9341,3,GY,1,100,-1.465
1575665268.209100,56139.000,9341,3,GY,1,100,-1.587
1575665268.247177,56171.000,9341,3,GY,1,100,2.167
1575665268.286047,56203.667,9358,3,GY,1,100,8.240
1575665268.324918,56236.333,9358,3,GY,1,100,9.674
1575665268.363788,56269.000,9358,3,GY,1,100,4.242
1575665268.405038,56303.667,9376,3,GY,1,100,-0.641
1575665268.446288,56338.333,9376,3,GY,1,100,-3.967
1575665268.487538,56373.000,9376,3,GY,1,100,-5.096
1575665268.528392,56407.333,9392,3,GY,1,100,-6.104
1575665268.569245,56441.667,9392,3,GY,1,100,-3.418
1575665268.610099,56476.000,9392,3,GY,1,100,0.946
1575665268.650952,56510.333,9410,3,GY,1,100,7.202
1575665268.691806,56544.667,9410,3,GY,1,100,10.376
1575665268.732659,56579.000,9410,3,GY,1,100,6.500
1575665268.773909,56613.667,9428,3,GY,1,100,-0.732
1575665268.815159,56648.333,9428,3,GY,1,100,-7.538
1575665268.856410,56683.000,9428,3,GY,1,100,-7.111
1575665268.895280,56715.667,9447,3,GY,1,100,-0.458
1575665268.934150,56748.333,9447,3,GY,1,100,4.639
1575665268.973020,56781.000,9447,3,GY,1,100,5.890
1575665269.013081,56814.667,9465,3,GY,1,100,2.655
1575665269.053141,56848.333,9465,3,GY,1,100,-1.373
1575665269.093201,56882.000,9465,3,GY,1,100,-3.937
1575665269.134848,56917.000,9483,3,GY,1,100,-4.333
1575665269.176495,56952.000,9483,3,GY,1,100,-2.594
1575665269.218141,56987.000,9483,3,GY,1,100,0.183
1575665269.258598,57021.000,9501,2,GY,1,100,3.998
1575665269.299055,57055.000,9501,2,GY,1,100,4.883
1575665269.337727,57087.500,9519,4,GY,1,100,-1.251
1575665269.376399,57120.000,9519,4,GY,1,100,-9.888
1575665269.415071,57152.500,9519,4,GY,1,100,-19.958
1575665269.453743,57185.000,9519,4,GY,1,100,-30.029
1575665269.492613,57217.667,9536,3,GY,1,100,-34.546
1575665269.531484,57250.333,9536,3,GY,1,100,-17.456
1575665269.570354,57283.000,9536,3,GY,1,100,32.928
1575665269.616165,57321.500,9554,2,GY,1,100,43.243
1575665269.661977,57360.000,9554,2,GY,1,100,13.336
1575665269.703227,57394.667,9570,3,GY,1,100,-10.620
1575665269.744477,57429.333,9570,3,GY,1,100,-9.613
1575665269.785727,57464.000,9570,3,GY,1,100,3.418
1575665269.826581,57498.333,9589,3,GY,1,100,10.498
1575665269.867434,57532.667,9589,3,GY,1,100,9.583
1575665269.908288,57567.000,9589,3,GY,1,100,16.449
1575665269.947554,57600.000,9607,3,GY,1,100,20.050
1575665269.986821,57633.000,9607,3,GY,1,100,10.651
1575665270.026088,57666.000,9607,3,GY,1,100,0.122
1575665270.064760,57698.500,9625,4,GY,1,100,-12.268
1575665270.103432,57731.000,9625,4,GY,1,100,-23.438
1575665270.142104,57763.500,9625,4,GY,1,100,-18.158
1575665270.180776,57796.000,9625,4,GY,1,100,0.519
1575665270.221233,57830.000,9643,3,GY,1,100,-1.831
1575665270.261690,57864.000,9643,3,GY,1,100,-7.080
1575665270.302147,57898.000,9643,3,GY,1,100,9.644
1575665270.344388,57933.500,9661,2,GY,1,100,21.881
1575665270.386630,57969.000,9661,2,GY,1,100,26.031
1575665270.431450,58006.667,9679,3,GY,1,100,28.595
1575665270.476270,58044.333,9679,3,GY,1,100,16.724
1575665270.521090,58082.000,9679,3,GY,1,100,5.707
1575665270.559960,58114.667,9697,3,GY,1,100,5.249
1575665270.598830,58147.333,9697,3,GY,1,100,7.721
1575665270.637701,58180.000,9697,3,GY,1,100,5.676
1575665270.674984,58211.333,9714,3,GY,1,100,5.188
1575665270.712268,58242.667,9714,3,GY,1,100,6.653
1575665270.749552,58274.000,9714,3,GY,1,100,2.136
1575665270.790405,58308.333,9733,3,GY,1,100,-3.693
1575665270.831259,58342.667,9733,3,GY,1,100,-2.136
1575665270.872112,58377.000,9733,3,GY,1,100,0.549
1575665270.912966,58411.333,9751,3,GY,1,100,-0.153
1575665270.953819,58445.667,9751,3,GY,1,100,-1.984
1575665270.994673,58480.000,9751,3,GY,1,100,-0.153
1575665271.035923,58514.667,9767,3,GY,1,100,4.700
1575665271.077173,58549.333,9767,3,GY,1,100,6.561
1575665271.118423,58584.000,9767,3,GY,1,100,7.446
1575665271.158087,58617.333,9785,3,GY,1,100,5.188
1575665271.197750,58650.667,9785,3,GY,1,100,2.655
1575665271.237414,58684.000,9785,3,GY,1,100,1.312
1575665271.278267,58718.333,9803,3,GY,1,100,2.411
1575665271.319121,58752.667,9803,3,GY,1,100,3.265
1575665271.359974,58787.000,9803,3,GY,1,100,2.502
1575665271.398844,58819.667,9821,3,GY,1,100,2.808
1575665271.437715,58852.333,9821,3,GY,1,100,6.317
1575665271.476585,58885.000,9821,3,GY,1,100,4.974
1575665271.516645,58918.667,9839,3,GY,1,100,6.012
1575665271.556705,58952.333,9839,3,GY,1,100,6.897
1575665271.596766,58986.000,9839,3,GY,1,100,4.517
1575665271.636033,59019.000,9857,3,GY,1,100,6.104
1575665271.675300,59052.000,9857,3,GY,1,100,9.094
1575665271.714566,59085.000,9857,3,GY,1,100,6.012
1575665271.756213,59120.000,9878,5,GY,1,100,6.622
1575665271.797860,59155.000,9878,5,GY,1,100,6.195
1575665271.839507,59190.000,9878,5,GY,1,100,5.463
1575665271.881154,59225.000,9878,5,GY,1,100,-1.129
1575665271.922800,59260.000,9878,5,GY,1,100,-3.204
1575665271.964051,59294.667,9899,3,GY,1,100,1.038
1575665272.005301,59329.333,9899,3,GY,1,100,-0.824
1575665272.046551,59364.000,9899,3,GY,1,100,-1.495
1575665272.087801,59398.667,9917,3,GY,1,100,0.427
1575665272.129051,59433.333,9917,3,GY,1,100,-0.336
1575665272.170301,59468.000,9917,3,GY,1,100,-0.610
1575665272.210758,59502.000,9935,3,GY,1,100,0.641
1575665272.251215,59536.000,9935,3,GY,1,100,2.808
1575665272.291672,59570.000,9935,3,GY,1,100,6.226
1575665272.329352,59601.667,9953,3,GY,1,100,0.763
1575665272.367032,59633.333,9953,3,GY,1,100,0.397
1575665272.404713,59665.000,9953,3,GY,1,100,8.636
1575665272.443980,59698.000,9971,3,GY,1,100,5.157
1575665272.483247,59731.000,9971,3,GY,1,100,-3.571
1575665272.522514,59764.000,9971,3,GY,1,100,-2.350
1575665272.562970,59798.000,9988,2,GY,1,100,-0.793
1575665272.603427,59832.000,9988,2,GY,1,100,-0.671
1575665272.649040,59870.333,10006,3,GY,1,100,-0.458
1575665272.694654,59908.667,10006,3,GY,1,100,-0.244
1575665272.740267,59947.000,10006,3,GY,1,100,-0.488
1575665272.781517,59981.667,10022,3,GY,1,100,-0.671
1575665272.822767,60016.333,10022,3,GY,1,100,-0.366
1575665272.864017,60051.000,10022,3,GY,1,100,-0.183
1575665272.902094,60083.000,10041,4,GY,1,100,0.183
1575665272.940171,60115.000,10041,4,GY,1,100,-0.366
1575665272.978248,60147.000,10041,4,GY,1,100,0.122
1575665273.016325,60179.000,10041,4,GY,1,100,0.854
1575665273.054799,60211.333,10059,3,GY,1,100,0.183
1575665273.093272,60243.667,10059,3,GY,1,100,0.122
1575665273.131746,60276.000,10059,3,GY,1,100,0.031
1575665273.172203,60310.000,10077,3,GY,1,100,-1.038
1575665273.212660,60344.000,10077,3,GY,1,100,0.092
1575665273.253117,60378.000,10077,3,GY,1,100,-0.305
1575665273.294367,60412.667,10095,3,GY,1,100,0.183
1575665273.335617,60447.333,10095,3,GY,1,100,0.641
1575665273.376867,60482.000,10095,3,GY,1,100,-0.122
1575665273.417919,60516.500,10113,2,GY,1,100,-1.251
1575665273.458971,60551.000,10113,2,GY,1,100,-0.763
1575665273.501807,60587.000,10131,3,GY,1,100,-0.061
1575665273.544644,60623.000,10131,3,GY,1,100,1.099
1575665273.587481,60659.000,10131,3,GY,1,100,1.099
1575665273.625161,60690.667,10149,3,GY,1,100,1.099
1575665273.662841,60722.333,10149,3,GY,1,100,-0.153
1575665273.700522,60754.000,10149,3,GY,1,100,-0.153
1575665273.740582,60787.667,10167,3,GY,1,100,-1.282
1575665273.780642,60821.333,10167,3,GY,1,100,0.061
1575665273.820702,60855.000,10167,3,GY,1,100,0.519
1575665273.862349,60890.000,10185,3,GY,1,100,0.397
1575665273.903996,60925.000,10185,3,GY,1,100,-0.397
1575665273.945642,60960.000,10185,3,GY,1,100,-0.519
1575665273.986893,60994.667,10203,3,GY,1,100,-0.519
1575665274.028143,61029.333,10203,3,GY,1,100,0.427
1575665274.069393,61064.000,10203,3,GY,1,100,-0.732
1575665274.109056,61097.333,10219,3,GY,1,100,0.488
1575665274.148720,61130.667,10219,3,GY,1,100,0.763
1575665274.188384,61164.000,10219,3,GY,1,100,-0.183
1575665274.225667,61195.333,10237,3,GY,1,100,0.031
1575665274.262951,61226.667,10237,3,GY,1,100,0.244
1575665274.300235,61258.000,10237,3,GY,1,100,0.458
1575665274.344658,61295.333,10255,3,GY,1,100,0.793
1575665274.389081,61332.667,10255,3,GY,1,100,0.641
1575665274.433505,61370.000,10255,3,GY,1,100,0.458
1575665274.474755,61404.667,10273,3,GY,1,100,-0.397
1575665274.516005,61439.333,10273,3,GY,1,100,-0.305
1575665274.557255,61474.000,10273,3,GY,1,100,0.732
1575665274.598505,61508.667,10291,3,GY,1,100,0.244
1575665274.639755,61543.333,10291,3,GY,1,100,-0.031
1575665274.681005,61578.000,10291,3,GY,1,100,0.519
1575665274.719479,61610.333,10309,3,GY,1,100,-0.092
1575665274.757952,61642.667,10309,3,GY,1,100,0.671
1575665274.796426,61675.000,10309,3,GY,1,100,-0.153
1575665274.834900,61707.333,10328,3,GY,1,100,0.244
1575665274.873374,61739.667,10328,3,GY,1,100,0.793
1575665274.911847,61772.000,10328,3,GY,1,100,-0.824
1575665274.951114,61805.000,10346,3,GY,1,100,0.336
1575665274.990381,61838.000,10346,3,GY,1,100,0.397
1575665275.029648,61871.000,10346,3,GY,1,100,-0.122
1575665275.075261,61909.333,10363,3,GY,1,100,0.427
1575665275.120874,61947.667,10363,3,GY,1,100,0.031
1575665275.166487,61986.000,10363,3,GY,1,100,-0.946
1575665275.207737,62020.667,10381,3,GY,1,100,0.153
1575665275.248987,62055.333,10381,3,GY,1,100,0.244
1575665275.290238,62090.000,10381,3,GY,1,100,0.427
1575665275.328315,62122.000,10397,3,GY,1,100,0.580
1575665275.366392,62154.000,10397,3,GY,1,100,-0.122
1575665275.404469,62186.000,10397,3,GY,1,100,0.244
1575665275.451470,62225.500,10415,2,GY,1,100,-0.702
1575665275.498471,62265.000,10415,2,GY,1,100,0.031
1575665275.538631,62298.750,10433,4,GY,1,100,0.275
1575665275.578790,62332.500,10433,4,GY,1,100,-0.031
1575665275.618949,62366.250,10433,4,GY,1,100,0.092
1575665275.659109,62400.000,10433,4,GY,1,100,0.305
1575665275.697186,62432.000,10451,3,GY,1,100,0.092
1575665275.735263,62464.000,10451,3,GY,1,100,-0.061
1575665275.773340,62496.000,10451,3,GY,1,100,-0.031
1575665275.813400,62529.667,10469,3,GY,1,100,0.244
1575665275.853460,62563.333,10469,3,GY,1,100,0.427
1575665275.893521,62597.000,10469,3,GY,1,100,-0.153
1575665275.933977,62631.000,10488,3,GY,1,100,-0.305
1575665275.974434,62665.000,10488,3,GY,1,100,0.153
1575665276.014891,62699.000,10488,3,GY,1,100,0.793
1575665276.056538,62734.000,10506,3,GY,1,100,1.007
1575665276.098185,62769.000,10506,3,GY,1,100,0.641
1575665276.139831,62804.000,10506,3,GY,1,100,0.641
1575665276.181478,62839.000,10523,2,GY,1,100,-0.092
1575665276.223125,62874.000,10523,2,GY,1,100,-0.427
1575665276.264375,62908.667,10541,3,GY,1,100,-0.580
1575665276.305625,62943.333,10541,3,GY,1,100,-0.305
1575665276.346875,62978.000,10541,3,GY,1,100,-0.977
1575665276.385349,63010.333,10557,3,GY,1,100,-0.519
1575665276.423823,63042.667,10557,3,GY,1,100,1.740
1575665276.462296,63075.000,10557,3,GY,1,100,0.092
1575665276.503943,63110.000,10575,3,GY,1,100,-0.336
1575665276.545590,63145.000,10575,3,GY,1,100,0.122
1575665276.587236,63180.000,10575,3,GY,1,100,-0.092
1575665276.627297,63213.667,10593,3,GY,1,100,-0.214
1575665276.667357,63247.333,10593,3,GY,1,100,-0.183
1575665276.707417,63281.000,10593,3,GY,1,100,-0.366
1575665276.749857,63316.667,10611,3,GY,1,100,-0.061
1575665276.792297,63352.333,10611,3,GY,1,100,-0.092
1575665276.834737,63388.000,10611,3,GY,1,100,0.122
1575665276.872021,63419.333,10630,3,GY,1,100,0.275
1575665276.909305,63450.667,10630,3,GY,1,100,-0.671
1575665276.946589,63482.000,10630,3,GY,1,100,-0.854
1575665276.984269,63513.667,10648,3,GY,1,100,-0.061
1575665277.021949,63545.333,10648,3,GY,1,100,-0.275
1575665277.059630,63577.000,10648,3,GY,1,100,0.000
1575665277.104450,63614.667,10666,3,GY,1,100,0.946
1575665277.149269,63652.333,10666,3,GY,1,100,0.305
1575665277.194089,63690.000,10666,3,GY,1,100,-0.092
1575665277.234943,63724.333,10684,3,GY,1,100,0.000
1575665277.275796,63758.667,10684,3,GY,1,100,-0.275
1575665277.316650,63793.000,10684,3,GY,1,100,0.122
1575665277.357900,63827.667,10701,3,GY,1,100,0.153
1575665277.399150,63862.333,10701,3,GY,1,100,-0.275
1575665277.440400,63897.000,10701,3,GY,1,100,-0.183
1575665277.478874,63929.333,10719,3,GY,1,100,-0.183
1575665277.517347,63961.667,10719,3,GY,1,100,0.305
1575665277.555821,63994.000,10719,3,GY,1,100,0.336
1575665277.593898,64026.000,10737,3,GY,1,100,-0.458
1575665277.631975,64058.000,10737,3,GY,1,100,-0.122
1575665277.670052,64090.000,10737,3,GY,1,100,0.061
1575665277.710112,64123.667,10753,3,GY,1,100,0.031
1575665277.750172,64157.333,10753,3,GY,1,100,-0.336
1575665277.790233,64191.000,10753,3,GY,1,100,-0.366
1575665277.831641,64225.800,10775,5,GY,1,100,-0.427
1575665277.873050,64260.600,10775,5,GY,1,100,-0.061
1575665277.914459,64295.400,10775,5,GY,1,100,0.061
1575665277.955868,64330.200,10775,5,GY,1,100,-0.244
1575665277.997277,64365.000,10775,5,GY,1,100,-0.183
1575665278.040113,64401.000,10793,3,GY,1,100,-0.214
1575665278.082950,64437.000,10793,3,GY,1,100,-0.092
1575665278.125787,64473.000,10793,3,GY,1,100,0.275
1575665278.163467,64504.667,10812,3,GY,1,100,-0.580
1575665278.201147,64536.333,10812,3,GY,1,100,-1.190
1575665278.238828,64568.000,10812,3,GY,1,100,-0.427
1575665278.278095,64601.000,10830,3,GY,1,100,0.244
1575665278.317362,64634.000,10830,3,GY,1,100,0.031
1575665278.356628,64667.000,10830,3,GY,1,100,-0.488
1575665278.397879,64701.667,10846,3,GY,1,100,-0.885
1575665278.439129,64736.333,10846,3,GY,1,100,-0.427
1575665278.480379,64771.000,10846,3,GY,1,100,-0.732
1575665278.521232,64805.333,10864,3,GY,1,100,-0.275
1575665278.562086,64839.667,10864,3,GY,1,100,-0.732
1575665278.602939,64874.000,10864,3,GY,1,100,-1.434
1575665278.643793,64908.333,10882,3,GY,1,100,-0.916
1575665278.684646,64942.667,10882,3,GY,1,100,-0.458
1575665278.725500,64977.000,10882,3,GY,1,100,-0.458
1575665278.766750,65011.667,10900,3,GY,1,100,-1.770
1575665278.808000,65046.333,10900,3,GY,1,100,-3.326
1575665278.849250,65081.000,10900,3,GY,1,100,-3.418
1575665278.884551,65110.667,10919,3,GY,1,100,-1.587
1575665278.919851,65140.333,10919,3,GY,1,100,-3.326
1575665278.955152,65170.000,10919,3,GY,1,100,-3.906
1575665278.997195,65205.333,10937,3,GY,1,100,-1.831
1575665279.039238,65240.667,10937,3,GY,1,100,2.258
1575665279.081282,65276.000,10937,3,GY,1,100,1.648
1575665279.116186,65305.333,10955,3,GY,1,100,1.373
1575665279.151090,65334.667,10955,3,GY,1,100,0.946
1575665279.185994,65364.000,10955,3,GY,1,100,0.275
1575665279.227244,65398.667,10973,3,GY,1,100,2.716
1575665279.268494,65433.333,10973,3,GY,1,100,0.061
1575665279.309744,65468.000,10973,3,GY,1,100,-6.012
1575665279.350201,65502.000,10991,3,GY,1,100,-10.345
1575665279.390658,65536.000,10991,3,GY,1,100,-19.775
1575665279.431115,65570.000,10991,3,GY,1,100,-24.963
1575665279.472365,65604.667,11008,3,GY,1,100,-34.515
1575665279.513615,65639.333,11008,3,GY,1,100,-46.814
1575665279.554865,65674.000,11008,3,GY,1,100,-53.375
1575665279.596512,65709.000,11026,3,GY,1,100,-66.437
1575665279.638159,65744.000,11026,3,GY,1,100,-64.453
1575665279.679805,65779.000,11026,3,GY,1,100,-54.260
1575665279.719072,65812.000,11042,3,GY,1,100,-44.159
1575665279.758339,65845.000,11042,3,GY,1,100,-35.004
1575665279.797606,65878.000,11042,3,GY,1,100,-23.712
1575665279.835683,65910.000,11061,3,GY,1,100,-15.778
1575665279.873760,65942.000,11061,3,GY,1,100,-6.897
1575665279.911837,65974.000,11061,3,GY,1,100,0.549
1575665279.951104,66007.000,11079,3,GY,1,100,-0.641
1575665279.990371,66040.000,11079,3,GY,1,100,-0.519
1575665280.029638,66073.000,11079,3,GY,1,100,-1.007
1575665280.074854,66111.000,11097,3,GY,1,100,-2.136
1575665280.120071,66149.000,11097,3,GY,1,100,2.045
1575665280.165287,66187.000,11097,3,GY,1,100,-1.129
1575665280.205744,66221.000,11115,3,GY,1,100,-1.740
1575665280.246201,66255.000,11115,3,GY,1,100,1.892
1575665280.286658,66289.000,11115,3,GY,1,100,0.946
1575665280.327115,66323.000,11133,3,GY,1,100,1.099
1575665280.367572,66357.000,11133,3,GY,1,100,-1.862
1575665280.408028,66391.000,11133,3,GY,1,100,-0.610
1575665280.445709,66422.667,11151,3,GY,1,100,-0.885
1575665280.483389,66454.333,11151,3,GY,1,100,0.061
1575665280.521070,66486.000,11151,3,GY,1,100,1.495
1575665280.559940,66518.667,11169,3,GY,1,100,1.404
1575665280.598810,66551.333,11169,3,GY,1,100,-0.885
1575665280.637681,66584.000,11169,3,GY,1,100,-1.190
1575665280.678931,66618.667,11186,3,GY,1,100,-0.793
1575665280.720181,66653.333,11186,3,GY,1,100,-1.221
1575665280.761431,66688.000,11186,3,GY,1,100,-1.526
1575665280.801888,66722.000,11205,3,GY,1,100,0.122
1575665280.842345,66756.000,11205,3,GY,1,100,0.488
1575665280.882802,66790.000,11205,3,GY,1,100,0.153
1575665280.926828,66827.000,11223,3,GY,1,100,2.167
1575665280.970855,66864.000,11223,3,GY,1,100,2.716
1575665281.014881,66901.000,11223,3,GY,1,100,2.930
1575665281.052958,66933.000,11239,3,GY,1,100,4.456
1575665281.091035,66965.000,11239,3,GY,1,100,1.068
1575665281.129112,66997.000,11239,3,GY,1,100,-0.977
1575665281.168379,67030.000,11257,3,GY,1,100,-1.709
1575665281.207646,67063.000,11257,3,GY,1,100,-1.129
1575665281.246913,67096.000,11257,3,GY,1,100,-0.275
1575665281.288560,67131.000,11275,3,GY,1,100,-0.427
1575665281.330207,67166.000,11275,3,GY,1,100,1.038
1575665281.371853,67201.000,11275,3,GY,1,100,0.732
1575665281.412707,67235.333,11293,3,GY,1,100,0.610
1575665281.453560,67269.667,11293,3,GY,1,100,0.244
1575665281.494414,67304.000,11293,3,GY,1,100,-1.495
1575665281.535267,67338.333,11311,3,GY,1,100,-0.763
1575665281.576121,67372.667,11311,3,GY,1,100,0.244
1575665281.616974,67407.000,11311,3,GY,1,100,1.465
1575665281.655051,67439.000,11329,3,GY,1,100,0.641
1575665281.693128,67471.000,11329,3,GY,1,100,-0.488
1575665281.731205,67503.000,11329,3,GY,1,100,-0.793
1575665281.774042,67539.000,11347,2,GY,1,100,-0.854
1575665281.816879,67575.000,11347,2,GY,1,100,0.427
1575665281.858129,67609.667,11365,3,GY,1,100,-0.031
1575665281.899379,67644.333,11365,3,GY,1,100,-0.549
1575665281.940629,67679.000,11365,3,GY,1,100,-1.465
1575665281.981879,67713.667,11383,3,GY,1,100,-0.183
1575665282.023129,67748.333,11383,3,GY,1,100,2.228
1575665282.064379,67783.000,11383,3,GY,1,100,1.251
1575665282.105233,67817.333,11401,3,GY,1,100,0.427
1575665282.146086,67851.667,11401,3,GY,1,100,1.007
1575665282.186940,67886.000,11401,3,GY,1,100,0.824
1575665282.224422,67917.500,11417,4,GY,1,100,-3.052
1575665282.261904,67949.000,11417,4,GY,1,100,-4.822
1575665282.299386,67980.500,11417,4,GY,1,100,-5.096
1575665282.336868,68012.000,11417,4,GY,1,100,-2.136
1575665282.376532,68045.333,11435,3,GY,1,100,2.197
1575665282.416195,68078.667,11435,3,GY,1,100,3.754
1575665282.455859,68112.000,11435,3,GY,1,100,3.540
1575665282.495919,68145.667,11453,3,GY,1,100,-0.244
1575665282.535979,68179.333,11453,3,GY,1,100,-3.021
1575665282.576039,68213.000,11453,3,GY,1,100,-1.038
1575665282.623636,68253.000,11471,2,GY,1,100,4.333
1575665282.671232,68293.000,11471,2,GY,1,100,6.622
1575665282.708516,68324.333,11489,3,GY,1,100,5.005
1575665282.745800,68355.667,11489,3,GY,1,100,-0.610
1575665282.783083,68387.000,11489,3,GY,1,100,-3.662
1575665282.827506,68424.333,11508,3,GY,1,100,-2.533
1575665282.871930,68461.667,11508,3,GY,1,100,-2.319
1575665282.916353,68499.000,11508,3,GY,1,100,-0.549
1575665282.958396,68534.333,11526,3,GY,1,100,-0.061
1575665283.000440,68569.667,11526,3,GY,1,100,1.312
1575665283.042483,68605.000,11526,3,GY,1,100,-0.275
1575665283.080560,68637.000,11543,3,GY,1,100,-3.601
1575665283.118637,68669.000,11543,3,GY,1,100,-4.303
1575665283.156714,68701.000,11543,3,GY,1,100,-3.967
1575665283.201534,68738.667,11561,3,GY,1,100,-2.258
1575665283.246354,68776.333,11561,3,GY,1,100,-1.068
1575665283.291174,68814.000,11561,3,GY,1,100,-0.824
1575665283.328854,68845.667,11577,3,GY,1,100,-1.678
1575665283.366534,68877.333,11577,3,GY,1,100,-0.854
1575665283.404215,68909.000,11577,3,GY,1,100,-0.580
1575665283.443085,68941.667,11595,3,GY,1,100,-1.373
1575665283.481955,68974.333,11595,3,GY,1,100,1.617
1575665283.520826,69007.000,11595,3,GY,1,100,4.608
1575665283.561679,69041.333,11613,3,GY,1,100,3.204
1575665283.602533,69075.667,11613,3,GY,1,100,1.282
1575665283.643386,69110.000,11613,3,GY,1,100,-0.793
1575665283.684636,69144.667,11631,3,GY,1,100,1.556
1575665283.725886,69179.333,11631,3,GY,1,100,5.280
1575665283.767136,69214.000,11631,3,GY,1,100,3.296
1575665283.808783,69249.000,11650,3,GY,1,100,2.411
1575665283.850430,69284.000,11650,3,GY,1,100,5.829
1575665283.892077,69319.000,11650,3,GY,1,100,8.392
1575665283.930392,69351.200,11671,5,GY,1,100,7.721
1575665283.968707,69383.400,11671,5,GY,1,100,3.632
1575665284.007022,69415.600,11671,5,GY,1,100,-2.380
1575665284.045337,69447.800,11671,5,GY,1,100,-2.808
1575665284.083652,69480.000,11671,5,GY,1,100,-1.190
1575665284.127678,69517.000,11689,2,GY,1,100,-0.549
1575665284.171705,69554.000,11689,2,GY,1,100,0.488
1575665284.212162,69588.000,11707,4,GY,1,100,-0.153
1575665284.252619,69622.000,11707,4,GY,1,100,0.275
1575665284.293075,69656.000,11707,4,GY,1,100,2.228
1575665284.333532,69690.000,11707,4,GY,1,100,3.113
1575665284.375179,69725.000,11725,2,GY,1,100,0.427
1575665284.416826,69760.000,11725,2,GY,1,100,-1.770
1575665284.457679,69794.333,11743,3,GY,1,100,-1.923
1575665284.498533,69828.667,11743,3,GY,1,100,0.732
1575665284.539386,69863.000,11743,3,GY,1,100,4.517
1575665284.577166,69894.750,11761,4,GY,1,100,4.364
1575665284.614945,69926.500,11761,4,GY,1,100,1.251
1575665284.652725,69958.250,11761,4,GY,1,100,1.373
1575665284.690504,69990.000,11761,4,GY,1,100,1.740
1575665284.730168,70023.333,11779,3,GY,1,100,2.777
1575665284.769832,70056.667,11779,3,GY,1,100,2.502
1575665284.809495,70090.000,11779,3,GY,1,100,1.221
1575665284.855307,70128.500,11798,2,GY,1,100,2.777
1575665284.901118,70167.000,11798,2,GY,1,100,7.507
1575665284.942368,70201.667,11815,3,GY,1,100,11.902
1575665284.983618,70236.333,11815,3,GY,1,100,9.277
1575665285.024868,70271.000,11815,3,GY,1,100,1.923
1575665285.066515,70306.000,11833,3,GY,1,100,1.465
1575665285.108162,70341.000,11833,3,GY,1,100,2.991
1575665285.149809,70376.000,11833,3,GY,1,100,2.808
1575665285.187489,70407.667,11851,3,GY,1,100,1.526
1575665285.225169,70439.333,11851,3,GY,1,100,-0.580
1575665285.262850,70471.000,11851,3,GY,1,100,0.183
1575665285.301323,70503.333,11867,3,GY,1,100,1.251
1575665285.339797,70535.667,11867,3,GY,1,100,0.916
1575665285.378271,70568.000,11867,3,GY,1,100,1.495
1575665285.418728,70602.000,11885,3,GY,1,100,1.556
1575665285.459184,70636.000,11885,3,GY,1,100,3.021
1575665285.499641,70670.000,11885,3,GY,1,100,4.120
1575665285.541288,70705.000,11903,3,GY,1,100,3.296
1575665285.582935,70740.000,11903,3,GY,1,100,1.404
1575665285.624582,70775.000,11903,3,GY,1,100,0.244
1575665285.669401,70812.667,11921,3,GY,1,100,0.061
1575665285.714221,70850.333,11921,3,GY,1,100,0.946
1575665285.759041,70888.000,11921,3,GY,1,100,1.190
1575665285.796721,70919.667,11939,3,GY,1,100,2.228
1575665285.834402,70951.333,11939,3,GY,1,100,0.946
1575665285.872082,70983.000,11939,3,GY,1,100,-2.136
1575665285.909366,71014.333,11958,3,GY,1,100,-2.563
1575665285.946650,71045.667,11958,3,GY,1,100,-0.885
1575665285.983933,71077.000,11958,3,GY,1,100,0.793
1575665286.025580,71112.000,11976,3,GY,1,100,1.556
1575665286.067227,71147.000,11976,3,GY,1,100,0.977
1575665286.108874,71182.000,11976,3,GY,1,100,0.732
1575665286.150124,71216.667,11994,3,GY,1,100,0.336
1575665286.191374,71251.333,11994,3,GY,1,100,0.824
1575665286.232624,71286.000,11994,3,GY,1,100,0.916
1575665286.273478,71320.333,12011,3,GY,1,100,1.068
1575665286.314331,71354.667,12011,3,GY,1,100,3.326
1575665286.355185,71389.000,12011,3,GY,1,100,3.082
1575665286.393658,71421.333,12029,3,GY,1,100,2.838
1575665286.432132,71453.667,12029,3,GY,1,100,4.181
1575665286.470606,71486.000,12029,3,GY,1,100,3.998
1575665286.511856,71520.667,12047,3,GY,1,100,2.747
1575665286.553106,71555.333,12047,3,GY,1,100,0.458
1575665286.594356,71590.000,12047,3,GY,1,100,0.366
1575665286.632433,71622.000,12063,3,GY,1,100,1.678
1575665286.670510,71654.000,12063,3,GY,1,100,-0.763
1575665286.708587,71686.000,12063,3,GY,1,100,0.580
1575665286.749837,71720.667,12081,3,GY,1,100,3.693
1575665286.791087,71755.333,12081,3,GY,1,100,2.899
1575665286.832337,71790.000,12081,3,GY,1,100,1.465
1575665286.872794,71824.000,12100,3,GY,1,100,-0.641
1575665286.913251,71858.000,12100,3,GY,1,100,-1.831
1575665286.953708,71892.000,12100,3,GY,1,100,-2.319
1575665286.994958,71926.667,12118,3,GY,1,100,0.061
1575665287.036208,71961.333,12118,3,GY,1,100,0.427
1575665287.077458,71996.000,12118,3,GY,1,100,-0.671
1575665287.119105,72031.000,12136,3,GY,1,100,1.343
1575665287.160752,72066.000,12136,3,GY,1,100,3.235
1575665287.202399,72101.000,12136,3,GY,1,100,2.808
1575665287.240475,72133.000,12154,3,GY,1,100,-1.190
1575665287.278553,72165.000,12154,3,GY,1,100,-5.615
1575665287.316630,72197.000,12154,3,GY,1,100,-0.122
1575665287.355500,72229.667,12172,3,GY,1,100,4.364
1575665287.394370,72262.333,12172,3,GY,1,100,2.197
1575665287.433240,72295.000,12172,3,GY,1,100,0.580
1575665287.473301,72328.667,12189,3,GY,1,100,2.472
1575665287.513361,72362.333,12189,3,GY,1,100,2.533
1575665287.553421,72396.000,12189,3,GY,1,100,1.190
1575665287.593085,72429.333,12207,3,GY,1,100,1.007
1575665287.632748,72462.667,12207,3,GY,1,100,0.153
1575665287.672412,72496.000,12207,3,GY,1,100,0.092
1575665287.712472,72529.667,12225,3,GY,1,100,1.129
1575665287.752532,72563.333,12225,3,GY,1,100,-0.275
1575665287.792593,72597.000,12225,3,GY,1,100,0.641
1575665287.838206,72635.333,12242,3,GY,1,100,-0.641
1575665287.883819,72673.667,12242,3,GY,1,100,-0.519
1575665287.929432,72712.000,12242,3,GY,1,100,0.732
1575665287.970285,72746.333,12260,3,GY,1,100,-0.092
1575665288.011139,72780.667,12260,3,GY,1,100,-0.031
1575665288.051992,72815.000,12260,3,GY,1,100,-1.007
1575665288.090069,72847.000,12278,3,GY,1,100,-0.275
1575665288.128146,72879.000,12278,3,GY,1,100,-1.312
1575665288.166223,72911.000,12278,3,GY,1,100,-0.183
1575665288.203904,72942.667,12296,3,GY,1,100,1.251
1575665288.241584,72974.333,12296,3,GY,1,100,4.059
1575665288.279264,73006.000,12296,3,GY,1,100,4.333
1575665288.319721,73040.000,12314,3,GY,1,100,1.465
1575665288.360178,73074.000,12314,3,GY,1,100,-2.411
1575665288.400635,73108.000,12314,3,GY,1,100,-6.042
1575665288.441489,73142.333,12332,3,GY,1,100,-4.639
1575665288.482342,73176.667,12332,3,GY,1,100,-0.946
1575665288.523196,73211.000,12332,3,GY,1,100,4.913
1575665288.564445,73245.667,12350,3,GY,1,100,7.599
1575665288.605696,73280.333,12350,3,GY,1,100,3.540
1575665288.646946,73315.000,12350,3,GY,1,100,-1.617
1575665288.688989,73350.333,12367,3,GY,1,100,-6.775
1575665288.731033,73385.667,12367,3,GY,1,100,-4.150
1575665288.773076,73421.000,12367,3,GY,1,100,1.312
1575665288.811550,73453.333,12386,3,GY,1,100,7.019
1575665288.850023,73485.667,12386,3,GY,1,100,6.775
1575665288.888497,73518.000,12386,3,GY,1,100,1.282
1575665288.928557,73551.667,12404,3,GY,1,100,-4.578
1575665288.968617,73585.333,12404,3,GY,1,100,-5.524
1575665289.008677,73619.000,12404,3,GY,1,100,-0.519
1575665289.050324,73654.000,12420,3,GY,1,100,3.937
1575665289.091971,73689.000,12420,3,GY,1,100,6.226
1575665289.133618,73724.000,12420,3,GY,1,100,1.678
1575665289.174868,73758.667,12438,3,GY,1,100,-3.204
1575665289.216118,73793.333,12438,3,GY,1,100,-3.082
1575665289.257368,73828.000,12438,3,GY,1,100,-0.610
1575665289.296635,73861.000,12456,3,GY,1,100,1.923
1575665289.335902,73894.000,12456,3,GY,1,100,1.862
1575665289.375169,73927.000,12456,3,GY,1,100,0.031
1575665289.412453,73958.333,12474,3,GY,1,100,-0.702
1575665289.449737,73989.667,12474,3,GY,1,100,-1.953
1575665289.487020,74021.000,12474,3,GY,1,100,0.031
1575665289.531047,74058.000,12492,3,GY,1,100,1.953
1575665289.575073,74095.000,12492,3,GY,1,100,1.740
1575665289.619100,74132.000,12492,3,GY,1,100,0.061
1575665289.660747,74167.000,12510,2,GY,1,100,-1.495
1575665289.702394,74202.000,12510,2,GY,1,100,-0.183
1575665289.743247,74236.333,12528,3,GY,1,100,0.885
1575665289.784101,74270.667,12528,3,GY,1,100,0.946
1575665289.824954,74305.000,12528,3,GY,1,100,-0.244
1575665289.863626,74337.500,12547,4,GY,1,100,-0.610
1575665289.902298,74370.000,12547,4,GY,1,100,0.732
1575665289.940970,74402.500,12547,4,GY,1,100,1.251
1575665289.979642,74435.000,12547,4,GY,1,100,0.702
1575665290.018195,74467.400,12568,5,GY,1,100,-0.427
1575665290.056748,74499.800,12568,5,GY,1,100,-1.160
1575665290.095301,74532.200,12568,5,GY,1,100,0.458
1575665290.133854,74564.600,12568,5,GY,1,100,0.244
1575665290.172407,74597.000,12568,5,GY,1,100,1.068
1575665290.214648,74632.500,12588,2,GY,1,100,0.153
1575665290.256890,74668.000,12588,2,GY,1,100,-0.519
1575665290.301313,74705.333,12606,3,GY,1,100,-0.702
1575665290.345737,74742.667,12606,3,GY,1,100,-1.129
1575665290.390160,74780.000,12606,3,GY,1,100,1.007
1575665290.428633,74812.333,12624,3,GY,1,100,0.702
1575665290.467107,74844.667,12624,3,GY,1,100,-0.183
1575665290.505581,74877.000,12624,3,GY,1,100,-0.519
1575665290.546434,74911.333,12642,3,GY,1,100,-0.702
1575665290.587288,74945.667,12642,3,GY,1,100,0.427
1575665290.628141,74980.000,12642,3,GY,1,100,-1.312
1575665290.672961,75017.667,12659,3,GY,1,100,-1.678
1575665290.717781,75055.333,12659,3,GY,1,100,-2.411
1575665290.762601,75093.000,12659,3,GY,1,100,-1.465
1575665290.801075,75125.333,12677,3,GY,1,100,-0.885
1575665290.839548,75157.667,12677,3,GY,1,100,0.366
1575665290.878022,75190.000,12677,3,GY,1,100,2.380
1575665290.916099,75222.000,12696,3,GY,1,100,2.441
1575665290.954176,75254.000,12696,3,GY,1,100,-0.519
1575665290.992253,75286.000,12696,3,GY,1,100,-2.136
1575665291.032710,75320.000,12712,3,GY,1,100,-2.197
1575665291.073167,75354.000,12712,3,GY,1,100,-0.916
1575665291.113623,75388.000,12712,3,GY,1,100,0.031
1575665291.155270,75423.000,12730,3,GY,1,100,-0.458
1575665291.196917,75458.000,12730,3,GY,1,100,-1.312
1575665291.238564,75493.000,12730,3,GY,1,100,-0.458
1575665291.280607,75528.333,12748,3,GY,1,100,-0.183
1575665291.322650,75563.667,12748,3,GY,1,100,-1.495
1575665291.364694,75599.000,12748,3,GY,1,100,-1.587
1575665291.403167,75631.333,12766,3,GY,1,100,-1.892
1575665291.441641,75663.667,12766,3,GY,1,100,-4.578
1575665291.480115,75696.000,12766,3,GY,1,100,-6.042
1575665291.521762,75731.000,12784,3,GY,1,100,-5.249
1575665291.563408,75766.000,12784,3,GY,1,100,-5.493
1575665291.605055,75801.000,12784,3,GY,1,100,-3.174
1575665291.645512,75835.000,12802,3,GY,1,100,-0.427
1575665291.685969,75869.000,12802,3,GY,1,100,-0.122
1575665291.726426,75903.000,12802,3,GY,1,100,0.122
1575665291.767279,75937.333,12819,3,GY,1,100,-0.580
1575665291.808133,75971.667,12819,3,GY,1,100,-1.251
1575665291.848986,76006.000,12819,3,GY,1,100,-0.549
1575665291.890633,76041.000,12838,2,GY,1,100,-0.763
1575665291.932280,76076.000,12838,2,GY,1,100,-0.153
1575665291.970952,76108.500,12856,4,GY,1,100,0.153
1575665292.009624,76141.000,12856,4,GY,1,100,-0.671
1575665292.048295,76173.500,12856,4,GY,1,100,0.427
1575665292.086967,76206.000,12856,4,GY,1,100,0.763
1575665292.125441,76238.333,12874,3,GY,1,100,0.824
1575665292.163915,76270.667,12874,3,GY,1,100,0.549
1575665292.202389,76303.000,12874,3,GY,1,100,-0.061
1575665292.242250,76336.500,12890,2,GY,1,100,0.488
1575665292.282112,76370.000,12890,2,GY,1,100,0.610
1575665292.326932,76407.667,12908,3,GY,1,100,0.549
1575665292.371752,76445.333,12908,3,GY,1,100,0.275
1575665292.416572,76483.000,12908,3,GY,1,100,-2.106
1575665292.458219,76518.000,12926,3,GY,1,100,-2.686
1575665292.499865,76553.000,12926,3,GY,1,100,3.723
1575665292.541512,76588.000,12926,3,GY,1,100,3.418
1575665292.581572,76621.667,12944,3,GY,1,100,-0.305
1575665292.621632,76655.333,12944,3,GY,1,100,0.275
1575665292.661693,76689.000,12944,3,GY,1,100,-0.275
1575665292.699472,76720.750,12962,4,GY,1,100,-0.427
1575665292.737252,76752.500,12962,4,GY,1,100,-0.671
1575665292.775031,76784.250,12962,4,GY,1,100,-0.397
1575665292.812811,76816.000,12962,4,GY,1,100,0.458
1575665292.852871,76849.667,12981,3,GY,1,100,1.465
1575665292.892931,76883.333,12981,3,GY,1,100,0.824
1575665292.932992,76917.000,12981,3,GY,1,100,0.641
1575665292.974043,76951.500,12999,2,GY,1,100,2.045
1575665293.015095,76986.000,12999,2,GY,1,100,0.519
1575665293.059915,77023.667,13016,3,GY,1,100,-0.031
1575665293.104735,77061.333,13016,3,GY,1,100,0.397
1575665293.149554,77099.000,13016,3,GY,1,100,-0.061
1575665293.190408,77133.333,13034,3,GY,1,100,-0.519
1575665293.231261,77167.667,13034,3,GY,1,100,-0.336
1575665293.272115,77202.000,13034,3,GY,1,100,-0.092
1575665293.309002,77233.000,13052,3,GY,1,100,0.000
1575665293.345889,77264.000,13052,3,GY,1,100,0.336
1575665293.382776,77295.000,13052,3,GY,1,100,0.214
1575665293.422043,77328.000,13068,3,GY,1,100,-0.580
1575665293.461310,77361.000,13068,3,GY,1,100,-0.336
1575665293.500577,77394.000,13068,3,GY,1,100,-0.244
1575665293.540637,77427.667,13086,3,GY,1,100,1.190
1575665293.580698,77461.333,13086,3,GY,1,100,1.465
1575665293.620758,77495.000,13086,3,GY,1,100,0.122
1575665293.662008,77529.667,13104,3,GY,1,100,-0.153
1575665293.703258,77564.333,13104,3,GY,1,100,-1.068
1575665293.744508,77599.000,13104,3,GY,1,100,-0.305
1575665293.786551,77634.333,13123,3,GY,1,100,1.495
1575665293.828595,77669.667,13123,3,GY,1,100,1.831
1575665293.870638,77705.000,13123,3,GY,1,100,1.495
1575665293.911095,77739.000,13141,3,GY,1,100,0.488
1575665293.951552,77773.000,13141,3,GY,1,100,-0.793
1575665293.992009,77807.000,13141,3,GY,1,100,-0.305
1575665294.028004,77837.250,13159,4,GY,1,100,0.671
1575665294.063998,77867.500,13159,4,GY,1,100,0.977
1575665294.099993,77897.750,13159,4,GY,1,100,-0.580
1575665294.135988,77928.000,13159,4,GY,1,100,0.671
1575665294.174065,77960.000,13177,2,GY,1,100,-0.275
1575665294.212142,77992.000,13177,2,GY,1,100,-0.183
1575665294.250516,78024.250,13195,4,GY,1,100,0.549
1575665294.288891,78056.500,13195,4,GY,1,100,-0.061
1575665294.327265,78088.750,13195,4,GY,1,100,0.702
1575665294.365640,78121.000,13195,4,GY,1,100,0.122
1575665294.407286,78156.000,13213,3,GY,1,100,0.519
1575665294.448933,78191.000,13213,3,GY,1,100,0.336
1575665294.490580,78226.000,13213,3,GY,1,100,0.702
1575665294.531037,78260.000,13230,3,GY,1,100,0.916
1575665294.571494,78294.000,13230,3,GY,1,100,0.702
1575665294.611951,78328.000,13230,3,GY,1,100,0.427
1575665294.653201,78362.667,13248,3,GY,1,100,0.854
1575665294.694451,78397.333,13248,3,GY,1,100,0.031
1575665294.735701,78432.000,13248,3,GY,1,100,0.549
1575665294.776753,78466.500,13264,2,GY,1,100,1.251
1575665294.817805,78501.000,13264,2,GY,1,100,1.801
1575665294.857369,78534.250,13283,4,GY,1,100,1.038
1575665294.896933,78567.500,13283,4,GY,1,100,0.122
1575665294.936498,78600.750,13283,4,GY,1,100,0.061
1575665294.976062,78634.000,13283,4,GY,1,100,0.153
1575665295.014139,78666.000,13301,3,GY,1,100,0.153
1575665295.052216,78698.000,13301,3,GY,1,100,0.549
1575665295.090293,78730.000,13301,3,GY,1,100,0.610
1575665295.130353,78763.667,13319,3,GY,1,100,0.244
1575665295.170414,78797.333,13319,3,GY,1,100,-0.305
1575665295.210474,78831.000,13319,3,GY,1,100,0.092
1575665295.251526,78865.500,13337,2,GY,1,100,-0.366
1575665295.292578,78900.000,13337,2,GY,1,100,0.671
1575665295.337397,78937.667,13355,3,GY,1,100,0.305
1575665295.382217,78975.333,13355,3,GY,1,100,0.000
1575665295.427037,79013.000,13355,3,GY,1,100,0.580
1575665295.467891,79047.333,13373,3,GY,1,100,-0.641
1575665295.508744,79081.667,13373,3,GY,1,100,0.092
1575665295.549598,79116.000,13373,3,GY,1,100,0.092
1575665295.587278,79147.667,13391,3,GY,1,100,-0.397
1575665295.624958,79179.333,13391,3,GY,1,100,0.000
1575665295.662639,79211.000,13391,3,GY,1,100,-0.580
1575665295.701509,79243.667,13408,3,GY,1,100,-0.549
1575665295.740379,79276.333,13408,3,GY,1,100,-0.427
1575665295.779249,79309.000,13408,3,GY,1,100,-1.343
1575665295.819706,79343.000,13427,3,GY,1,100,-0.427
1575665295.860163,79377.000,13427,3,GY,1,100,-0.397
1575665295.900620,79411.000,13427,3,GY,1,100,-0.244
1575665295.941870,79445.667,13443,3,GY,1,100,-0.366
1575665295.983120,79480.333,13443,3,GY,1,100,-0.641
1575665296.024370,79515.000,13443,3,GY,1,100,0.458
1575665296.066493,79550.400,13464,5,GY,1,100,0.763
1575665296.108616,79585.800,13464,5,GY,1,100,0.488
1575665296.150738,79621.200,13464,5,GY,1,100,0.153
1575665296.192861,79656.600,13464,5,GY,1,100,0.153
1575665296.234984,79692.000,13464,5,GY,1,100,-0.336
1575665296.273061,79724.000,13484,3,GY,1,100,-0.397
1575665296.311138,79756.000,13484,3,GY,1,100,0.122
1575665296.349215,79788.000,13484,3,GY,1,100,-0.031
1575665296.389672,79822.000,13501,3,GY,1,100,-0.061
1575665296.430129,79856.000,13501,3,GY,1,100,0.397
1575665296.470586,79890.000,13501,3,GY,1,100,-1.221
1575665296.512232,79925.000,13519,3,GY,1,100,-0.061
1575665296.553879,79960.000,13519,3,GY,1,100,0.183
1575665296.595526,79995.000,13519,3,GY,1,100,-0.275
1575665296.637172,80030.000,13535,3,GY,1,100,1.038
1575665296.678819,80065.000,13535,3,GY,1,100,-0.427
1575665296.720466,80100.000,13535,3,GY,1,100,0.366
1575665296.759336,80132.667,13553,3,GY,1,100,-0.427
1575665296.798207,80165.333,13553,3,GY,1,100,-0.336
1575665296.837077,80198.000,13553,3,GY,1,100,-0.305
1575665296.875154,80230.000,13572,3,GY,1,100,-1.556
1575665296.913231,80262.000,13572,3,GY,1,100,-1.434
1575665296.951308,80294.000,13572,3,GY,1,100,-2.106
1575665296.995731,80331.333,13590,3,GY,1,100,-1.312
1575665297.040154,80368.667,13590,3,GY,1,100,-1.770
1575665297.084578,80406.000,13590,3,GY,1,100,0.702
1575665297.125431,80440.333,13608,3,GY,1,100,1.648
1575665297.166285,80474.667,13608,3,GY,1,100,0.305
1575665297.207138,80509.000,13608,3,GY,1,100,1.587
1575665297.247992,80543.333,13626,3,GY,1,100,1.404
1575665297.288845,80577.667,13626,3,GY,1,100,0.854
1575665297.329699,80612.000,13626,3,GY,1,100,1.678
1575665297.370750,80646.500,13644,2,GY,1,100,2.747
1575665297.411802,80681.000,13644,2,GY,1,100,4.150
1575665297.448987,80712.250,13662,4,GY,1,100,4.395
1575665297.486171,80743.500,13662,4,GY,1,100,2.594
1575665297.523356,80774.750,13662,4,GY,1,100,-0.305
1575665297.560540,80806.000,13662,4,GY,1,100,-0.763
1575665297.600997,80840.000,13679,3,GY,1,100,2.197
1575665297.641454,80874.000,13679,3,GY,1,100,2.106
1575665297.681911,80908.000,13679,3,GY,1,100,2.747
1575665297.722368,80942.000,13697,2,GY,1,100,4.486
1575665297.762825,80976.000,13697,2,GY,1,100,6.317
1575665297.804769,81011.250,13714,4,GY,1,100,8.087
1575665297.846713,81046.500,13714,4,GY,1,100,10.590
1575665297.888657,81081.750,13714,4,GY,1,100,9.705
1575665297.930602,81117.000,13714,4,GY,1,100,5.768
1575665297.971653,81151.500,13732,2,GY,1,100,5.798
1575665298.012705,81186.000,13732,2,GY,1,100,5.798
1575665298.057525,81223.667,13750,3,GY,1,100,3.784
1575665298.102345,81261.333,13750,3,GY,1,100,1.617
1575665298.147165,81299.000,13750,3,GY,1,100,-2.045
1575665298.186828,81332.333,13768,3,GY,1,100,-1.617
1575665298.226492,81365.667,13768,3,GY,1,100,2.747
1575665298.266155,81399.000,13768,3,GY,1,100,3.174
1575665298.308199,81434.333,13786,3,GY,1,100,3.571
1575665298.350242,81469.667,13786,3,GY,1,100,3.082
1575665298.392286,81505.000,13786,3,GY,1,100,2.808
1575665298.431553,81538.000,13804,3,GY,1,100,9.460
1575665298.470819,81571.000,13804,3,GY,1,100,17.029
1575665298.510087,81604.000,13804,3,GY,1,100,17.426
1575665298.548163,81636.000,13822,3,GY,1,100,14.008
1575665298.586241,81668.000,13822,3,GY,1,100,9.399
1575665298.624318,81700.000,13822,3,GY,1,100,-3.204
1575665298.663584,81733.000,13840,3,GY,1,100,-7.446
1575665298.702852,81766.000,13840,3,GY,1,100,-0.610
1575665298.742118,81799.000,13840,3,GY,1,100,4.364
1575665298.783765,81834.000,13858,3,GY,1,100,10.468
1575665298.825412,81869.000,13858,3,GY,1,100,12.299
1575665298.867059,81904.000,13858,3,GY,1,100,4.669
1575665298.907912,81938.333,13876,3,GY,1,100,7.568
1575665298.948766,81972.667,13876,3,GY,1,100,5.707
1575665298.989619,82007.000,13876,3,GY,1,100,4.211
1575665299.029679,82040.667,13892,3,GY,1,100,14.099
1575665299.069740,82074.333,13892,3,GY,1,100,4.395
1575665299.109800,82108.000,13892,3,GY,1,100,2.594
1575665299.151050,82142.667,13910,3,GY,1,100,7.202
1575665299.192300,82177.333,13910,3,GY,1,100,-0.610
1575665299.233550,82212.000,13910,3,GY,1,100,-11.993
1575665299.273214,82245.333,13928,3,GY,1,100,-15.686
1575665299.312877,82278.667,13928,3,GY,1,100,-9.766
1575665299.352541,82312.000,13928,3,GY,1,100,-10.040
1575665299.392601,82345.667,13946,3,GY,1,100,-8.850
1575665299.432661,82379.333,13946,3,GY,1,100,-6.012
1575665299.472721,82413.000,13946,3,GY,1,100,-3.571
1575665299.514368,82448.000,13964,3,GY,1,100,-8.240
1575665299.556015,82483.000,13964,3,GY,1,100,-7.233
1575665299.597662,82518.000,13964,3,GY,1,100,-2.441
1575665299.638119,82552.000,13982,3,GY,1,100,4.883
1575665299.678575,82586.000,13982,3,GY,1,100,18.036
1575665299.719032,82620.000,13982,3,GY,1,100,19.684
1575665299.756713,82651.667,14000,3,GY,1,100,20.477
1575665299.794393,82683.333,14000,3,GY,1,100,16.296
1575665299.832073,82715.000,14000,3,GY,1,100,13.184
1575665299.870944,82747.667,14019,3,GY,1,100,11.688
1575665299.909814,82780.333,14019,3,GY,1,100,11.444
1575665299.948684,82813.000,14019,3,GY,1,100,21.362
1575665299.993108,82850.333,14036,3,GY,1,100,1.007
1575665300.037531,82887.667,14036,3,GY,1,100,-8.118
1575665300.081954,82925.000,14036,3,GY,1,100,-0.549
1575665300.123204,82959.667,14054,3,GY,1,100,-3.784
1575665300.164454,82994.333,14054,3,GY,1,100,-0.458
1575665300.205704,83029.000,14054,3,GY,1,100,7.874
1575665300.246954,83063.667,14070,3,GY,1,100,5.463
1575665300.288204,83098.333,14070,3,GY,1,100,-0.732
1575665300.329455,83133.000,14070,3,GY,1,100,-6.531
1575665300.367135,83164.667,14088,3,GY,1,100,-9.430
1575665300.404815,83196.333,14088,3,GY,1,100,3.540
1575665300.442496,83228.000,14088,3,GY,1,100,7.019
1575665300.481366,83260.667,14106,3,GY,1,100,-4.883
1575665300.520236,83293.333,14106,3,GY,1,100,-10.223
1575665300.559107,83326.000,14106,3,GY,1,100,2.411
1575665300.599564,83360.000,14124,3,GY,1,100,2.167
1575665300.640020,83394.000,14124,3,GY,1,100,2.563
1575665300.680477,83428.000,14124,3,GY,1,100,6.104
1575665300.722124,83463.000,14142,2,GY,1,100,-2.655
1575665300.763771,83498.000,14142,2,GY,1,100,-2.747
1575665300.808590,83535.667,14161,3,GY,1,100,-2.045
1575665300.853410,83573.333,14161,3,GY,1,100,-0.031
1575665300.898230,83611.000,14161,3,GY,1,100,9.979
1575665300.936605,83643.250,14179,4,GY,1,100,9.277
1575665300.974979,83675.500,14179,4,GY,1,100,6.378
1575665301.013354,83707.750,14179,4,GY,1,100,4.120
1575665301.051728,83740.000,14179,4,GY,1,100,-0.061
1575665301.089409,83771.667,14197,3,GY,1,100,-2.411
1575665301.127089,83803.333,14197,3,GY,1,100,1.282
1575665301.164769,83835.000,14197,3,GY,1,100,7.202
1575665301.206416,83870.000,14214,3,GY,1,100,9.125
1575665301.248063,83905.000,14214,3,GY,1,100,5.890
1575665301.289710,83940.000,14214,3,GY,1,100,-5.463
1575665301.330960,83974.667,14232,3,GY,1,100,-5.188
1575665301.372210,84009.333,14232,3,GY,1,100,-0.977
1575665301.413460,84044.000,14232,3,GY,1,100,3.326
1575665301.454512,84078.500,14248,2,GY,1,100,2.716
1575665301.495564,84113.000,14248,2,GY,1,100,-1.038
1575665301.534831,84146.000,14266,3,GY,1,100,-3.143
1575665301.574097,84179.000,14266,3,GY,1,100,1.465
1575665301.613364,84212.000,14266,3,GY,1,100,7.446
1575665301.654614,84246.667,14284,3,GY,1,100,6.287
1575665301.695865,84281.333,14284,3,GY,1,100,4.883
1575665301.737115,84316.000,14284,3,GY,1,100,4.669
1575665301.775192,84348.000,14303,4,GY,1,100,2.472
1575665301.813269,84380.000,14303,4,GY,1,100,6.439
1575665301.851346,84412.000,14303,4,GY,1,100,8.850
1575665301.889423,84444.000,14303,4,GY,1,100,-1.709
1575665301.931070,84479.000,14321,2,GY,1,100,1.556
1575665301.972716,84514.000,14321,2,GY,1,100,5.493
1575665302.010496,84545.750,14339,4,GY,1,100,6.348
1575665302.048275,84577.500,14339,4,GY,1,100,3.571
1575665302.086055,84609.250,14339,4,GY,1,100,-10.071
1575665302.123835,84641.000,14339,4,GY,1,100,-10.925
1575665302.166374,84676.750,14360,4,GY,1,100,-9.399
1575665302.208913,84712.500,14360,4,GY,1,100,-6.165
1575665302.251452,84748.250,14360,4,GY,1,100,-0.549
1575665302.293991,84784.000,14360,4,GY,1,100,7.416
1575665302.335638,84819.000,14378,3,GY,1,100,12.909
1575665302.377285,84854.000,14378,3,GY,1,100,8.331
1575665302.418931,84889.000,14378,3,GY,1,100,2.777
1575665302.460578,84924.000,14396,3,GY,1,100,0.977
1575665302.502225,84959.000,14396,3,GY,1,100,1.526
1575665302.543872,84994.000,14396,3,GY,1,100,2.411
1575665302.583535,85027.333,14414,3,GY,1,100,3.632
1575665302.623199,85060.667,14414,3,GY,1,100,2.350
1575665302.662863,85094.000,14414,3,GY,1,100,1.038
1575665302.700543,85125.667,14432,3,GY,1,100,6.226
1575665302.738223,85157.333,14432,3,GY,1,100,6.012
1575665302.775904,85189.000,14432,3,GY,1,100,5.341
1575665302.815171,85222.000,14451,3,GY,1,100,3.052
1575665302.854438,85255.000,14451,3,GY,1,100,-0.031
1575665302.893705,85288.000,14451,3,GY,1,100,-3.998
1575665302.938524,85325.667,14469,3,GY,1,100,-5.096
1575665302.983344,85363.333,14469,3,GY,1,100,-0.763
1575665303.028164,85401.000,14469,3,GY,1,100,0.916
1575665303.069811,85436.000,14486,3,GY,1,100,-3.418
1575665303.111458,85471.000,14486,3,GY,1,100,-3.326
1575665303.153104,85506.000,14486,3,GY,1,100,-4.639
1575665303.191975,85538.667,14504,3,GY,1,100,-10.986
1575665303.230845,85571.333,14504,3,GY,1,100,-12.054
1575665303.269715,85604.000,14504,3,GY,1,100,-15.839
1575665303.308189,85636.333,14522,3,GY,1,100,-16.998
1575665303.346663,85668.667,14522,3,GY,1,100,-13.977
1575665303.385136,85701.000,14522,3,GY,1,100,-11.108
1575665303.424006,85733.667,14540,3,GY,1,100,-3.967
1575665303.462877,85766.333,14540,3,GY,1,100,-0.244
1575665303.501747,85799.000,14540,3,GY,1,100,-3.662
1575665303.541807,85832.667,14556,3,GY,1,100,-9.766
1575665303.581867,85866.333,14556,3,GY,1,100,-8.820
1575665303.621928,85900.000,14556,3,GY,1,100,-11.230
1575665303.663178,85934.667,14574,3,GY,1,100,-13.275
1575665303.704428,85969.333,14574,3,GY,1,100,-12.543
1575665303.745678,86004.000,14574,3,GY,1,100,-11.353
1575665303.788911,86040.333,14593,3,GY,1,100,-5.707
1575665303.832145,86076.667,14593,3,GY,1,100,-11.719
1575665303.875378,86113.000,14593,3,GY,1,100,-19.592
1575665303.913455,86145.000,14611,3,GY,1,100,-22.034
1575665303.951532,86177.000,14611,3,GY,1,100,-15.442
1575665303.989609,86209.000,14611,3,GY,1,100,-10.590
1575665304.029273,86242.333,14629,3,GY,1,100,-6.592
1575665304.068936,86275.667,14629,3,GY,1,100,-4.486
1575665304.108600,86309.000,14629,3,GY,1,100,6.622
1575665304.149850,86343.667,14647,3,GY,1,100,15.045
1575665304.191100,86378.333,14647,3,GY,1,100,-5.951
1575665304.232350,86413.000,14647,3,GY,1,100,-6.134
1575665304.273600,86447.667,14665,3,GY,1,100,8.057
1575665304.314850,86482.333,14665,3,GY,1,100,-3.571
1575665304.356101,86517.000,14665,3,GY,1,100,-10.803
1575665304.396557,86551.000,14682,3,GY,1,100,-10.406
1575665304.437014,86585.000,14682,3,GY,1,100,-16.083
1575665304.477471,86619.000,14682,3,GY,1,100,-12.115
1575665304.515152,86650.667,14700,3,GY,1,100,-17.212
1575665304.552832,86682.333,14700,3,GY,1,100,-24.780
1575665304.590512,86714.000,14700,3,GY,1,100,-19.623
1575665304.632952,86749.667,14718,3,GY,1,100,-12.024
1575665304.675392,86785.333,14718,3,GY,1,100,0.153
1575665304.717832,86821.000,14718,3,GY,1,100,-5.005
1575665304.759479,86856.000,14734,3,GY,1,100,-21.667
1575665304.801126,86891.000,14734,3,GY,1,100,-16.235
1575665304.842772,86926.000,14734,3,GY,1,100,-8.698
1575665304.883626,86960.333,14753,3,GY,1,100,-8.270
1575665304.924479,86994.667,14753,3,GY,1,100,0.122
1575665304.965333,87029.000,14753,3,GY,1,100,8.148
1575665305.006980,87064.000,14771,2,GY,1,100,3.845
1575665305.048626,87099.000,14771,2,GY,1,100,-3.906
1575665305.086406,87130.750,14789,4,GY,1,100,1.068
1575665305.124186,87162.500,14789,4,GY,1,100,-3.540
1575665305.161965,87194.250,14789,4,GY,1,100,-11.475
1575665305.199745,87226.000,14789,4,GY,1,100,-3.754
1575665305.238218,87258.333,14807,3,GY,1,100,-5.371
1575665305.276692,87290.667,14807,3,GY,1,100,-18.677
1575665305.315166,87323.000,14807,3,GY,1,100,-27.252
1575665305.356812,87358.000,14825,3,GY,1,100,-25.360
1575665305.398459,87393.000,14825,3,GY,1,100,-14.343
1575665305.440106,87428.000,14825,3,GY,1,100,1.984
1575665305.486512,87467.000,14843,2,GY,1,100,1.465
1575665305.532919,87506.000,14843,2,GY,1,100,-1.343
1575665305.574169,87540.667,14860,3,GY,1,100,0.092
1575665305.615419,87575.333,14860,3,GY,1,100,0.641
1575665305.656669,87610.000,14860,3,GY,1,100,-2.594
1575665305.698316,87645.000,14878,3,GY,1,100,-3.204
1575665305.739963,87680.000,14878,3,GY,1,100,5.798
1575665305.781609,87715.000,14878,3,GY,1,100,12.634
1575665305.823256,87750.000,14895,3,GY,1,100,-8.789
1575665305.864903,87785.000,14895,3,GY,1,100,-9.460
1575665305.906549,87820.000,14895,3,GY,1,100,4.150
1575665305.945023,87852.333,14913,3,GY,1,100,3.906
1575665305.983497,87884.667,14913,3,GY,1,100,4.272
1575665306.021971,87917.000,14913,3,GY,1,100,1.587
1575665306.060048,87949.000,14931,3,GY,1,100,-5.798
1575665306.098125,87981.000,14931,3,GY,1,100,-4.425
1575665306.136202,88013.000,14931,3,GY,1,100,1.495
1575665306.177452,88047.667,14949,3,GY,1,100,1.648
1575665306.218702,88082.333,14949,3,GY,1,100,-6.622
1575665306.259952,88117.000,14949,3,GY,1,100,-13.336
1575665306.298822,88149.667,14967,3,GY,1,100,-11.108
1575665306.337692,88182.333,14967,3,GY,1,100,-14.801
1575665306.376563,88215.000,14967,3,GY,1,100,-13.458
1575665306.417416,88249.333,14985,3,GY,1,100,-5.585
1575665306.458270,88283.667,14985,3,GY,1,100,5.615
1575665306.499123,88318.000,14985,3,GY,1,100,0.916
1575665306.540770,88353.000,15003,3,GY,1,100,-3.387
1575665306.582417,88388.000,15003,3,GY,1,100,1.709
1575665306.624063,88423.000,15003,3,GY,1,100,-4.700
1575665306.666107,88458.333,15020,3,GY,1,100,-4.669
1575665306.708150,88493.667,15020,3,GY,1,100,-5.432
1575665306.750194,88529.000,15020,3,GY,1,100,-4.547
1575665306.788667,88561.333,15039,3,GY,1,100,15.015
1575665306.827141,88593.667,15039,3,GY,1,100,10.101
1575665306.865615,88626.000,15039,3,GY,1,100,-11.566
1575665306.907261,88661.000,15057,3,GY,1,100,7.996
1575665306.948908,88696.000,15057,3,GY,1,100,12.543
1575665306.990555,88731.000,15057,3,GY,1,100,-10.040
1575665307.030615,88764.667,15075,3,GY,1,100,-15.045
1575665307.070675,88798.333,15075,3,GY,1,100,-9.583
1575665307.110736,88832.000,15075,3,GY,1,100,0.824
1575665307.151986,88866.667,15091,3,GY,1,100,8.362
1575665307.193236,88901.333,15091,3,GY,1,100,-9.491
1575665307.234486,88936.000,15091,3,GY,1,100,-9.583
1575665307.276529,88971.333,15109,3,GY,1,100,-8.362
1575665307.318573,89006.667,15109,3,GY,1,100,-15.686
1575665307.360616,89042.000,15109,3,GY,1,100,-14.221
1575665307.397900,89073.333,15127,3,GY,1,100,-8.392
1575665307.435184,89104.667,15127,3,GY,1,100,-0.854
1575665307.472467,89136.000,15127,3,GY,1,100,-3.632
1575665307.510941,89168.333,15145,3,GY,1,100,-16.632
1575665307.549415,89200.667,15145,3,GY,1,100,-7.874
1575665307.587888,89233.000,15145,3,GY,1,100,-6.561
1575665307.631518,89269.667,15163,3,GY,1,100,-8.820
1575665307.675148,89306.333,15163,3,GY,1,100,-5.341
1575665307.718778,89343.000,15163,3,GY,1,100,-0.854
1575665307.760425,89378.000,15181,3,GY,1,100,-5.615
1575665307.802072,89413.000,15181,3,GY,1,100,0.122
1575665307.843719,89448.000,15181,3,GY,1,100,4.883
1575665307.885365,89483.000,15199,3,GY,1,100,8.240
1575665307.927012,89518.000,15199,3,GY,1,100,8.972
1575665307.968659,89553.000,15199,3,GY,1,100,7.446
1575665308.006736,89585.000,15217,3,GY,1,100,4.089
1575665308.044813,89617.000,15217,3,GY,1,100,-0.580
1575665308.082890,89649.000,15217,3,GY,1,100,-5.219
1575665308.120967,89681.000,15235,3,GY,1,100,-9.064
1575665308.159044,89713.000,15235,3,GY,1,100,-11.597
1575665308.197121,89745.000,15235,3,GY,1,100,-14.618
1575665308.237816,89779.200,15256,5,GY,1,100,-15.259
1575665308.278511,89813.400,15256,5,GY,1,100,-9.277
1575665308.319205,89847.600,15256,5,GY,1,100,-0.702
1575665308.359900,89881.800,15256,5,GY,1,100,0.549
1575665308.400595,89916.000,15256,5,GY,1,100,-2.441
1575665308.441647,89950.500,15276,2,GY,1,100,-3.296
1575665308.482699,89985.000,15276,2,GY,1,100,0.153
1575665308.527915,90023.000,15294,3,GY,1,100,6.378
1575665308.573132,90061.000,15294,3,GY,1,100,6.073
1575665308.618348,90099.000,15294,3,GY,1,100,7.263
1575665308.654442,90129.333,15312,3,GY,1,100,7.721
1575665308.690536,90159.667,15312,3,GY,1,100,11.536
1575665308.726629,90190.000,15312,3,GY,1,100,11.078
1575665308.766194,90223.250,15330,4,GY,1,100,3.906
1575665308.805758,90256.500,15330,4,GY,1,100,0.641
1575665308.845323,90289.750,15330,4,GY,1,100,0.397
1575665308.884887,90323.000,15330,4,GY,1,100,6.287
1575665308.925344,90357.000,15348,3,GY,1,100,16.357
1575665308.965801,90391.000,15348,3,GY,1,100,21.606
1575665309.006258,90425.000,15348,3,GY,1,100,14.038
1575665309.047904,90460.000,15364,2,GY,1,100,8.606
1575665309.089551,90495.000,15364,2,GY,1,100,13.489
1575665309.130801,90529.667,15382,3,GY,1,100,16.937
1575665309.172051,90564.333,15382,3,GY,1,100,24.017
1575665309.213302,90599.000,15382,3,GY,1,100,24.628
1575665309.254155,90633.333,15400,3,GY,1,100,10.925
1575665309.295009,90667.667,15400,3,GY,1,100,1.770
1575665309.335862,90702.000,15400,3,GY,1,100,-3.021
1575665309.372452,90732.750,15418,4,GY,1,100,-0.305
1575665309.409041,90763.500,15418,4,GY,1,100,2.930
1575665309.445631,90794.250,15418,4,GY,1,100,4.700
1575665309.482221,90825.000,15418,4,GY,1,100,2.777
1575665309.522677,90859.000,15436,3,GY,1,100,2.686
1575665309.563134,90893.000,15436,3,GY,1,100,1.526
1575665309.603591,90927.000,15436,3,GY,1,100,1.770
1575665309.642858,90960.000,15454,3,GY,1,100,9.033
1575665309.682125,90993.000,15454,3,GY,1,100,14.954
1575665309.721392,91026.000,15454,3,GY,1,100,15.961
1575665309.762642,91060.667,15472,3,GY,1,100,0.793
1575665309.803892,91095.333,15472,3,GY,1,100,1.373
1575665309.845142,91130.000,15472,3,GY,1,100,12.085
1575665309.885996,91164.333,15491,3,GY,1,100,6.592
1575665309.926849,91198.667,15491,3,GY,1,100,-1.831
1575665309.967703,91233.000,15491,3,GY,1,100,0.580
1575665310.009944,91268.500,15508,2,GY,1,100,4.913
1575665310.052186,91304.000,15508,2,GY,1,100,2.014
1575665310.090263,91336.000,15526,4,GY,1,100,-12.085
1575665310.128340,91368.000,15526,4,GY,1,100,-14.435
1575665310.166417,91400.000,15526,4,GY,1,100,1.465
1575665310.204494,91432.000,15526,4,GY,1,100,2.533
1575665310.243761,91465.000,15544,3,GY,1,100,-2.289
1575665310.283028,91498.000,15544,3,GY,1,100,-10.010
1575665310.322295,91531.000,15544,3,GY,1,100,-12.604
1575665310.368701,91570.000,15560,2,GY,1,100,-0.824
1575665310.415108,91609.000,15560,2,GY,1,100,16.968
1575665310.452590,91640.500,15578,4,GY,1,100,28.595
1575665310.490072,91672.000,15578,4,GY,1,100,22.705
1575665310.527554,91703.500,15578,4,GY,1,100,12.329
1575665310.565036,91735.000,15578,4,GY,1,100,7.904
1575665310.607278,91770.500,15596,2,GY,1,100,5.798
1575665310.649520,91806.000,15596,2,GY,1,100,4.791
1575665310.693943,91843.333,15614,3,GY,1,100,12.604
1575665310.738366,91880.667,15614,3,GY,1,100,9.644
1575665310.782789,91918.000,15614,3,GY,1,100,5.890
1575665310.824039,91952.667,15633,3,GY,1,100,13.519
1575665310.865289,91987.333,15633,3,GY,1,100,15.656
1575665310.906539,92022.000,15633,3,GY,1,100,10.406
1575665310.944220,92053.667,15651,3,GY,1,100,7.233
1575665310.981900,92085.333,15651,3,GY,1,100,10.132
1575665311.019581,92117.000,15651,3,GY,1,100,13.763
1575665311.058451,92149.667,15669,3,GY,1,100,12.512
1575665311.097321,92182.333,15669,3,GY,1,100,5.188
1575665311.136192,92215.000,15669,3,GY,1,100,2.594
1575665311.175855,92248.333,15687,3,GY,1,100,9.521
1575665311.215519,92281.667,15687,3,GY,1,100,9.918
1575665311.255182,92315.000,15687,3,GY,1,100,12.665
1575665311.296432,92349.667,15704,3,GY,1,100,12.421
1575665311.337682,92384.333,15704,3,GY,1,100,3.632
1575665311.378933,92419.000,15704,3,GY,1,100,-7.843
1575665311.424546,92457.333,15722,3,GY,1,100,-10.529
1575665311.470159,92495.667,15722,3,GY,1,100,0.214
1575665311.515772,92534.000,15722,3,GY,1,100,0.427
1575665311.553452,92565.667,15738,3,GY,1,100,3.021
1575665311.591133,92597.333,15738,3,GY,1,100,0.580
1575665311.628813,92629.000,15738,3,GY,1,100,-2.869
1575665311.667683,92661.667,15756,3,GY,1,100,2.716
1575665311.706554,92694.333,15756,3,GY,1,100,4.333
1575665311.745424,92727.000,15756,3,GY,1,100,7.416
1575665311.785088,92760.333,15775,3,GY,1,100,0.671
1575665311.824751,92793.667,15775,3,GY,1,100,4.028
1575665311.864415,92827.000,15775,3,GY,1,100,11.292
1575665311.906062,92862.000,15793,3,GY,1,100,4.700
1575665311.947708,92897.000,15793,3,GY,1,100,3.998
1575665311.989355,92932.000,15793,3,GY,1,100,0.275
1575665312.031002,92967.000,15811,3,GY,1,100,1.648
1575665312.072649,93002.000,15811,3,GY,1,100,5.524
1575665312.114295,93037.000,15811,3,GY,1,100,3.479
1575665312.152769,93069.333,15829,3,GY,1,100,4.822
1575665312.191243,93101.667,15829,3,GY,1,100,4.181
1575665312.229716,93134.000,15829,3,GY,1,100,-2.441
1575665312.267793,93166.000,15847,3,GY,1,100,-2.594
1575665312.305870,93198.000,15847,3,GY,1,100,0.549
1575665312.343947,93230.000,15847,3,GY,1,100,1.678
1575665312.388767,93267.667,15865,3,GY,1,100,7.324
1575665312.433587,93305.333,15865,3,GY,1,100,4.089
1575665312.478407,93343.000,15865,3,GY,1,100,-1.617
1575665312.519657,93377.667,15882,3,GY,1,100,-2.319
1575665312.560907,93412.333,15882,3,GY,1,100,-0.092
1575665312.602157,93447.000,15882,3,GY,1,100,-0.824
1575665312.643011,93481.333,15900,3,GY,1,100,-4.120
1575665312.683864,93515.667,15900,3,GY,1,100,-8.392
1575665312.724718,93550.000,15900,3,GY,1,100,-11.414
1575665312.763191,93582.333,15916,3,GY,1,100,-10.223
1575665312.801665,93614.667,15916,3,GY,1,100,-3.143
1575665312.840139,93647.000,15916,3,GY,1,100,-1.404
1575665312.877026,93678.000,15935,3,GY,1,100,-4.120
1575665312.913913,93709.000,15935,3,GY,1,100,-1.282
1575665312.950800,93740.000,15935,3,GY,1,100,4.639
1575665312.991653,93774.333,15953,3,GY,1,100,5.249
1575665313.032507,93808.667,15953,3,GY,1,100,4.730
1575665313.073360,93843.000,15953,3,GY,1,100,0.336
1575665313.117784,93880.333,15971,3,GY,1,100,-1.648
1575665313.162207,93917.667,15971,3,GY,1,100,-1.770
1575665313.206630,93955.000,15971,3,GY,1,100,-3.204
1575665313.245104,93987.333,15989,3,GY,1,100,-2.655
1575665313.283577,94019.667,15989,3,GY,1,100,-4.089
1575665313.322051,94052.000,15989,3,GY,1,100,-1.404
1575665313.363103,94086.500,16007,2,GY,1,100,-1.923
1575665313.404155,94121.000,16007,2,GY,1,100,2.869
1575665313.449371,94159.000,16025,3,GY,1,100,4.303
1575665313.494588,94197.000,16025,3,GY,1,100,-0.610
1575665313.539804,94235.000,16025,3,GY,1,100,-2.228
1575665313.580261,94269.000,16042,3,GY,1,100,-0.671
1575665313.620718,94303.000,16042,3,GY,1,100,-1.709
1575665313.661175,94337.000,16042,3,GY,1,100,-2.258
1575665313.698855,94368.667,16060,3,GY,1,100,-3.113
1575665313.736536,94400.333,16060,3,GY,1,100,-2.472
1575665313.774216,94432.000,16060,3,GY,1,100,-0.885
1575665313.813879,94465.333,16079,3,GY,1,100,-2.960
1575665313.853543,94498.667,16079,3,GY,1,100,-4.089
1575665313.893207,94532.000,16079,3,GY,1,100,0.214
1575665313.934060,94566.333,16095,3,GY,1,100,0.732
1575665313.974914,94600.667,16095,3,GY,1,100,-1.129
1575665314.015767,94635.000,16095,3,GY,1,100,-2.533
1575665314.056620,94669.333,16113,3,GY,1,100,-1.221
1575665314.097474,94703.667,16113,3,GY,1,100,-2.167
1575665314.138327,94738.000,16113,3,GY,1,100,-1.617
1575665314.179578,94772.667,16131,3,GY,1,100,0.061
1575665314.220828,94807.333,16131,3,GY,1,100,-2.075
1575665314.262078,94842.000,16131,3,GY,1,100,-0.580
1575665314.301821,94875.400,16152,5,GY,1,100,-2.594
1575665314.341563,94908.800,16152,5,GY,1,100,-7.599
1575665314.381306,94942.200,16152,5,GY,1,100,-10.193
1575665314.421049,94975.600,16152,5,GY,1,100,-6.317
1575665314.460792,95009.000,16152,5,GY,1,100,-5.707
1575665314.501249,95043.000,16172,3,GY,1,100,-1.068
1575665314.541706,95077.000,16172,3,GY,1,100,4.181
1575665314.582163,95111.000,16172,3,GY,1,100,4.700
1575665314.623016,95145.333,16188,3,GY,1,100,9.705
1575665314.663870,95179.667,16188,3,GY,1,100,10.132
1575665314.704723,95214.000,16188,3,GY,1,100,1.648
1575665314.745577,95248.333,16206,3,GY,1,100,4.181
1575665314.786430,95282.667,16206,3,GY,1,100,9.674
1575665314.827284,95317.000,16206,3,GY,1,100,13.153
1575665314.866154,95349.667,16225,3,GY,1,100,12.207
1575665314.905024,95382.333,16225,3,GY,1,100,6.897
1575665314.943895,95415.000,16225,3,GY,1,100,2.411
1575665314.981178,95446.333,16243,3,GY,1,100,3.052
1575665315.018462,95477.667,16243,3,GY,1,100,6.439
1575665315.055746,95509.000,16243,3,GY,1,100,3.540
1575665315.099772,95546.000,16261,3,GY,1,100,1.404
1575665315.143799,95583.000,16261,3,GY,1,100,2.258
1575665315.187826,95620.000,16261,3,GY,1,100,1.862
1575665315.229472,95655.000,16279,3,GY,1,100,3.174
1575665315.271119,95690.000,16279,3,GY,1,100,4.761
1575665315.312766,95725.000,16279,3,GY,1,100,0.122
1575665315.354016,95759.667,16297,3,GY,1,100,-1.007
1575665315.395266,95794.333,16297,3,GY,1,100,-0.397
1575665315.436516,95829.000,16297,3,GY,1,100,-2.075
1575665315.476180,95862.333,16314,3,GY,1,100,-3.601
1575665315.515843,95895.667,16314,3,GY,1,100,-4.669
1575665315.555507,95929.000,16314,3,GY,1,100,-4.913
1575665315.592791,95960.333,16332,3,GY,1,100,-3.204
1575665315.630075,95991.667,16332,3,GY,1,100,2.289
1575665315.667358,96023.000,16332,3,GY,1,100,6.592
1575665315.707022,96056.333,16350,3,GY,1,100,6.744
1575665315.746685,96089.667,16350,3,GY,1,100,4.395
1575665315.786349,96123.000,16350,3,GY,1,100,-2.258
1575665315.827996,96158.000,16369,3,GY,1,100,0.671
1575665315.869642,96193.000,16369,3,GY,1,100,1.343
1575665315.911289,96228.000,16369,3,GY,1,100,3.510
1575665315.958291,96267.500,16385,2,GY,1,100,6.927
1575665316.005292,96307.000,16385,2,GY,1,100,5.859
1575665316.044261,96339.750,16403,4,GY,1,100,6.042
1575665316.083231,96372.500,16403,4,GY,1,100,6.134
1575665316.122200,96405.250,16403,4,GY,1,100,5.615
1575665316.161170,96438.000,16403,4,GY,1,100,4.211
1575665316.199247,96470.000,16421,3,GY,1,100,7.477
1575665316.237324,96502.000,16421,3,GY,1,100,7.904
1575665316.275401,96534.000,16421,3,GY,1,100,2.808
1575665316.313874,96566.333,16439,3,GY,1,100,1.953
1575665316.352348,96598.667,16439,3,GY,1,100,4.059
1575665316.390822,96631.000,16439,3,GY,1,100,1.770
1575665316.431675,96665.333,16457,3,GY,1,100,5.310
1575665316.472529,96699.667,16457,3,GY,1,100,8.057
1575665316.513382,96734.000,16457,3,GY,1,100,6.989
1575665316.554632,96768.667,16475,3,GY,1,100,13.519
1575665316.595882,96803.333,16475,3,GY,1,100,6.287
1575665316.637132,96838.000,16475,3,GY,1,100,1.923
1575665316.677589,96872.000,16493,2,GY,1,100,4.364
1575665316.718046,96906.000,16493,2,GY,1,100,1.617
1575665316.757908,96939.500,16511,4,GY,1,100,4.211
1575665316.797770,96973.000,16511,4,GY,1,100,3.754
1575665316.837632,97006.500,16511,4,GY,1,100,2.747
1575665316.877494,97040.000,16511,4,GY,1,100,3.418
1575665316.915571,97072.000,16529,3,GY,1,100,2.930
1575665316.953648,97104.000,16529,3,GY,1,100,3.693
1575665316.991725,97136.000,16529,3,GY,1,100,1.373
1575665317.032975,97170.667,16547,3,GY,1,100,-0.732
1575665317.074225,97205.333,16547,3,GY,1,100,-4.303
1575665317.115475,97240.000,16547,3,GY,1,100,1.740
1575665317.153552,97272.000,16565,3,GY,1,100,7.690
1575665317.191629,97304.000,16565,3,GY,1,100,10.254
1575665317.229706,97336.000,16565,3,GY,1,100,5.676
1575665317.269767,97369.667,16581,3,GY,1,100,0.763
1575665317.309827,97403.333,16581,3,GY,1,100,-4.974
1575665317.349887,97437.000,16581,3,GY,1,100,-10.101
1575665317.390344,97471.000,16599,3,GY,1,100,-16.479
1575665317.430801,97505.000,16599,3,GY,1,100,-27.069
1575665317.471257,97539.000,16599,3,GY,1,100,-39.490
1575665317.512904,97574.000,16617,3,GY,1,100,-53.741
1575665317.554551,97609.000,16617,3,GY,1,100,-65.582
1575665317.596198,97644.000,16617,3,GY,1,100,-65.033
1575665317.638241,97679.333,16635,3,GY,1,100,-61.523
1575665317.680285,97714.667,16635,3,GY,1,100,-52.917
1575665317.722328,97750.000,16635,3,GY,1,100,-40.649
1575665317.761198,97782.667,16653,3,GY,1,100,-32.867
1575665317.800068,97815.333,16653,3,GY,1,100,-29.755
1575665317.838939,97848.000,16653,3,GY,1,100,-25.360
1575665317.876619,97879.667,16672,3,GY,1,100,-23.193
1575665317.914299,97911.333,16672,3,GY,1,100,-15.991
1575665317.951980,97943.000,16672,3,GY,1,100,-12.878
1575665317.992040,97976.667,16690,3,GY,1,100,-10.529
1575665318.032100,98010.333,16690,3,GY,1,100,-3.632
1575665318.072160,98044.000,16690,3,GY,1,100,-1.587
1575665318.119757,98084.000,16707,2,GY,1,100,0.061
1575665318.167353,98124.000,16707,2,GY,1,100,-0.153
1575665318.208603,98158.667,16725,3,GY,1,100,0.580
1575665318.249853,98193.333,16725,3,GY,1,100,3.479
1575665318.291104,98228.000,16725,3,GY,1,100,7.294
1575665318.331164,98261.667,16742,3,GY,1,100,9.644
1575665318.371224,98295.333,16742,3,GY,1,100,8.636
1575665318.411284,98329.000,16742,3,GY,1,100,4.272
1575665318.449361,98361.000,16759,4,GY,1,100,3.906
1575665318.487438,98393.000,16759,4,GY,1,100,6.683
1575665318.525515,98425.000,16759,4,GY,1,100,5.493
1575665318.563592,98457.000,16759,4,GY,1,100,2.014
1575665318.602859,98490.000,16777,3,GY,1,100,3.082
1575665318.642126,98523.000,16777,3,GY,1,100,5.005
1575665318.681393,98556.000,16777,3,GY,1,100,4.578
1575665318.721850,98590.000,16795,3,GY,1,100,5.493
1575665318.762307,98624.000,16795,3,GY,1,100,7.233
1575665318.802764,98658.000,16795,3,GY,1,100,7.294
1575665318.844014,98692.667,16814,3,GY,1,100,8.362
1575665318.885264,98727.333,16814,3,GY,1,100,4.974
1575665318.926514,98762.000,16814,3,GY,1,100,-2.899
1575665318.972920,98801.000,16832,2,GY,1,100,-9.094
1575665319.019327,98840.000,16832,2,GY,1,100,-10.590
1575665319.057106,98871.750,16850,4,GY,1,100,-6.989
1575665319.094886,98903.500,16850,4,GY,1,100,-4.700
1575665319.132665,98935.250,16850,4,GY,1,100,0.000
1575665319.170445,98967.000,16850,4,GY,1,100,4.730
1575665319.209712,99000.000,16868,2,GY,1,100,8.911
1575665319.248979,99033.000,16868,2,GY,1,100,15.228
1575665319.289436,99067.000,16886,3,GY,1,100,19.440
1575665319.329892,99101.000,16886,3,GY,1,100,21.545
1575665319.370349,99135.000,16886,3,GY,1,100,17.181
1575665319.411996,99170.000,16903,3,GY,1,100,11.566
1575665319.453643,99205.000,16903,3,GY,1,100,8.881
1575665319.495290,99240.000,16903,3,GY,1,100,8.362
1575665319.536936,99275.000,16921,3,GY,1,100,11.993
1575665319.578583,99310.000,16921,3,GY,1,100,15.381
1575665319.620230,99345.000,16921,3,GY,1,100,10.529
1575665319.658307,99377.000,16938,3,GY,1,100,4.883
1575665319.696384,99409.000,16938,3,GY,1,100,1.617
1575665319.734461,99441.000,16938,3,GY,1,100,3.418
1575665319.776901,99476.667,16956,3,GY,1,100,2.716
1575665319.819341,99512.333,16956,3,GY,1,100,3.754
1575665319.861781,99548.000,16956,3,GY,1,100,8.820
1575665319.902238,99582.000,16974,3,GY,1,100,8.698
1575665319.942695,99616.000,16974,3,GY,1,100,11.200
1575665319.983151,99650.000,16974,3,GY,1,100,10.742
1575665320.024402,99684.667,16992,3,GY,1,100,3.235
1575665320.065652,99719.333,16992,3,GY,1,100,0.183
1575665320.106902,99754.000,16992,3,GY,1,100,1.953
1575665320.148549,99789.000,17010,3,GY,1,100,0.885
1575665320.190195,99824.000,17010,3,GY,1,100,-4.150
1575665320.231842,99859.000,17010,3,GY,1,100,-12.482
1575665320.268729,99890.000,17028,3,GY,1,100,-16.205
1575665320.305616,99921.000,17028,3,GY,1,100,-13.977
1575665320.342504,99952.000,17028,3,GY,1,100,-13.153
1575665320.381294,99984.600,17049,5,GY,1,100,-13.733
1575665320.420085,100017.200,17049,5,GY,1,100,-13.367
1575665320.458876,100049.800,17049,5,GY,1,100,-12.085
1575665320.497667,100082.400,17049,5,GY,1,100,-5.005
1575665320.536458,100115.000,17049,5,GY,1,100,3.906
1575665320.578105,100150.000,17068,3,GY,1,100,17.120
1575665320.619752,100185.000,17068,3,GY,1,100,20.966
1575665320.661399,100220.000,17068,3,GY,1,100,9.216
1575665320.701855,100254.000,17086,3,GY,1,100,3.479
1575665320.742312,100288.000,17086,3,GY,1,100,1.801
1575665320.782769,100322.000,17086,3,GY,1,100,-3.937
1575665320.824416,100357.000,17105,2,GY,1,100,-11.047
1575665320.866063,100392.000,17105,2,GY,1,100,-11.658
1575665320.911279,100430.000,17123,3,GY,1,100,-6.500
1575665320.956496,100468.000,17123,3,GY,1,100,-1.129
1575665321.001712,100506.000,17123,3,GY,1,100,6.104
1575665321.040186,100538.333,17141,3,GY,1,100,7.446
1575665321.078659,100570.667,17141,3,GY,1,100,5.432
1575665321.117133,100603.000,17141,3,GY,1,100,4.211
1575665321.162349,100641.000,17158,3,GY,1,100,0.336
1575665321.207566,100679.000,17158,3,GY,1,100,-0.793
1575665321.252783,100717.000,17158,3,GY,1,100,0.946
1575665321.292049,100750.000,17176,3,GY,1,100,0.824
1575665321.331316,100783.000,17176,3,GY,1,100,-0.122
1575665321.370583,100816.000,17176,3,GY,1,100,0.092
1575665321.408264,100847.667,17194,3,GY,1,100,2.045
1575665321.445944,100879.333,17194,3,GY,1,100,3.052
1575665321.483624,100911.000,17194,3,GY,1,100,2.441
1575665321.522892,100944.000,17210,3,GY,1,100,1.770
1575665321.562158,100977.000,17210,3,GY,1,100,1.129
1575665321.601425,101010.000,17210,3,GY,1,100,0.336
1575665321.642675,101044.667,17228,3,GY,1,100,1.465
1575665321.683926,101079.333,17228,3,GY,1,100,1.373
1575665321.725176,101114.000,17228,3,GY,1,100,-0.824
1575665321.766426,101148.667,17247,3,GY,1,100,-1.251
1575665321.807676,101183.333,17247,3,GY,1,100,0.000
1575665321.848926,101218.000,17247,3,GY,1,100,1.801
1575665321.888986,101251.667,17265,3,GY,1,100,-2.838
1575665321.929046,101285.333,17265,3,GY,1,100,-7.294
1575665321.969107,101319.000,17265,3,GY,1,100,-11.139
1575665322.010753,101354.000,17283,3,GY,1,100,-10.254
1575665322.052400,101389.000,17283,3,GY,1,100,-7.782
1575665322.094047,101424.000,17283,3,GY,1,100,-6.531
1575665322.132917,101456.667,17301,3,GY,1,100,-7.660
1575665322.171788,101489.333,17301,3,GY,1,100,-7.599
1575665322.210658,101522.000,17301,3,GY,1,100,-3.876
1575665322.251908,101556.667,17319,3,GY,1,100,0.641
1575665322.293158,101591.333,17319,3,GY,1,100,3.510
1575665322.334408,101626.000,17319,3,GY,1,100,4.639
1575665322.374865,101660.000,17336,3,GY,1,100,2.350
1575665322.415322,101694.000,17336,3,GY,1,100,0.702
1575665322.455779,101728.000,17336,3,GY,1,100,2.228
1575665322.497029,101762.667,17354,3,GY,1,100,3.143
1575665322.538279,101797.333,17354,3,GY,1,100,4.669
1575665322.579529,101832.000,17354,3,GY,1,100,4.883
1575665322.617209,101863.667,17372,3,GY,1,100,2.686
1575665322.654890,101895.333,17372,3,GY,1,100,1.556
1575665322.692570,101927.000,17372,3,GY,1,100,2.655
1575665322.735407,101963.000,17388,3,GY,1,100,2.441
1575665322.778244,101999.000,17388,3,GY,1,100,2.533
1575665322.821080,102035.000,17388,3,GY,1,100,1.404
1575665322.862330,102069.667,17407,3,GY,1,100,0.702
1575665322.903580,102104.333,17407,3,GY,1,100,0.885
1575665322.944830,102139.000,17407,3,GY,1,100,0.916
1575665322.985684,102173.333,17425,3,GY,1,100,0.183
1575665323.026537,102207.667,17425,3,GY,1,100,-4.395
1575665323.067391,102242.000,17425,3,GY,1,100,-9.552
1575665323.108244,102276.333,17443,3,GY,1,100,-12.543
1575665323.149098,102310.667,17443,3,GY,1,100,-9.644
1575665323.189951,102345.000,17443,3,GY,1,100,-9.033
1575665323.228028,102377.000,17461,3,GY,1,100,-10.773
1575665323.266105,102409.000,17461,3,GY,1,100,-10.040
1575665323.304183,102441.000,17461,3,GY,1,100,-7.507
1575665323.342656,102473.333,17479,3,GY,1,100,-1.190
1575665323.381130,102505.667,17479,3,GY,1,100,4.822
1575665323.419604,102538.000,17479,3,GY,1,100,8.850
1575665323.460457,102572.333,17497,3,GY,1,100,9.735
1575665323.501310,102606.667,17497,3,GY,1,100,6.531
