EpochTimestamp,EmotiBitTimestamp,PacketNumber,DataLength,TypeTag,ProtocolVersion,DataReliability,GZ
1575664583.366004,116841.000,19963,12,GZ,1,100,0.275
1575664583.366004,116841.000,19963,12,GZ,1,100,0.763
1575664583.366004,116841.000,19963,12,GZ,1,100,0.305
1575664583.366004,116841.000,19963,12,GZ,1,100,0.916
1575664583.366004,116841.000,19963,12,GZ,1,100,-0.061
1575664583.366004,116841.000,19963,12,GZ,1,100,-1.068
1575664583.366004,116841.000,19963,12,GZ,1,100,-0.885
1575664583.366004,116841.000,19963,12,GZ,1,100,0.214
1575664583.366004,116841.000,19963,12,GZ,1,100,0.092
1575664583.366004,116841.000,19963,12,GZ,1,100,0.214
1575664583.366004,116841.000,19963,12,GZ,1,100,0.793
1575664583.366004,116841.000,19963,12,GZ,1,100,-0.244
1575664583.405571,116874.333,19979,3,GZ,1,100,-2.319
1575664583.445138,116907.667,19979,3,GZ,1,100,-0.641
1575664583.484705,116941.000,19979,3,GZ,1,100,1.862
1575664583.530405,116979.500,19997,2,GZ,1,100,1.923
1575664583.576105,117018.000,19997,2,GZ,1,100,-0.397
1575664583.617254,117052.667,20015,3,GZ,1,100,-0.305
1575664583.658404,117087.333,20015,3,GZ,1,100,-0.092
1575664583.699554,117122.000,20015,3,GZ,1,100,0.000
1575664583.741099,117157.000,20033,3,GZ,1,100,0.336
1575664583.782645,117192.000,20033,3,GZ,1,100,0.763
1575664583.824190,117227.000,20033,3,GZ,1,100,0.793
1575664583.861778,117258.667,20051,3,GZ,1,100,-0.244
1575664583.899367,117290.333,20051,3,GZ,1,100,0.732
1575664583.936956,117322.000,20051,3,GZ,1,100,0.763
1575664583.976127,117355.000,20069,3,GZ,1,100,0.366
1575664584.015298,117388.000,20069,3,GZ,1,100,0.916
1575664584.054470,117421.000,20069,3,GZ,1,100,1.068
1575664584.094432,117454.667,20088,3,GZ,1,100,0.702
1575664584.134395,117488.333,20088,3,GZ,1,100,0.671
1575664584.174358,117522.000,20088,3,GZ,1,100,-1.465
1575664584.219860,117560.333,20105,3,GZ,1,100,-0.427
1575664584.265362,117598.667,20105,3,GZ,1,100,0.854
1575664584.310864,117637.000,20105,3,GZ,1,100,0.153
1575664584.351618,117671.333,20123,3,GZ,1,100,1.526
1575664584.392372,117705.667,20123,3,GZ,1,100,0.763
1575664584.433126,117740.000,20123,3,GZ,1,100,0.763
1575664584.470715,117771.667,20141,3,GZ,1,100,-0.092
1575664584.508303,117803.333,20141,3,GZ,1,100,0.092
1575664584.545892,117835.000,20141,3,GZ,1,100,0.397
1575664584.582689,117866.000,20158,3,GZ,1,100,1.404
1575664584.619487,117897.000,20158,3,GZ,1,100,-0.183
1575664584.656284,117928.000,20158,3,GZ,1,100,-0.244
1575664584.697829,117963.000,20175,3,GZ,1,100,1.221
1575664584.739375,117998.000,20175,3,GZ,1,100,-0.122
1575664584.780920,118033.000,20175,3,GZ,1,100,0.610
1575664584.822070,118067.667,20193,3,GZ,1,100,-0.458
1575664584.863219,118102.333,20193,3,GZ,1,100,-2.838
1575664584.904369,118137.000,20193,3,GZ,1,100,1.526
1575664584.949080,118174.667,20211,3,GZ,1,100,1.526
1575664584.993790,118212.333,20211,3,GZ,1,100,0.153
1575664585.038501,118250.000,20211,3,GZ,1,100,2.167
1575664585.076485,118282.000,20229,3,GZ,1,100,-1.465
1575664585.114470,118314.000,20229,3,GZ,1,100,-2.167
1575664585.152454,118346.000,20229,3,GZ,1,100,0.488
1575664585.193604,118380.667,20248,3,GZ,1,100,0.366
1575664585.234754,118415.333,20248,3,GZ,1,100,-0.519
1575664585.275903,118450.000,20248,3,GZ,1,100,-0.031
1575664585.313492,118481.667,20266,3,GZ,1,100,0.092
1575664585.351080,118513.333,20266,3,GZ,1,100,-2.289
1575664585.388669,118545.000,20266,3,GZ,1,100,0.488
1575664585.427445,118577.667,20284,3,GZ,1,100,1.953
1575664585.466221,118610.333,20284,3,GZ,1,100,1.587
1575664585.504996,118643.000,20284,3,GZ,1,100,1.038
1575664585.545750,118677.333,20301,3,GZ,1,100,1.007
1575664585.586504,118711.667,20301,3,GZ,1,100,-0.946
1575664585.627258,118746.000,20301,3,GZ,1,100,-1.068
1575664585.668804,118781.000,20319,3,GZ,1,100,0.702
1575664585.710349,118816.000,20319,3,GZ,1,100,-0.671
1575664585.751894,118851.000,20319,3,GZ,1,100,0.427
1575664585.793044,118885.667,20335,3,GZ,1,100,0.946
1575664585.834194,118920.333,20335,3,GZ,1,100,0.000
1575664585.875343,118955.000,20335,3,GZ,1,100,0.031
1575664585.916889,118990.000,20353,3,GZ,1,100,-0.305
1575664585.958434,119025.000,20353,3,GZ,1,100,0.793
1575664585.999979,119060.000,20353,3,GZ,1,100,1.099
1575664586.042118,119095.500,20371,2,GZ,1,100,-0.732
1575664586.084257,119131.000,20371,2,GZ,1,100,0.488
1575664586.122241,119163.000,20390,3,GZ,1,100,0.214
1575664586.160226,119195.000,20390,3,GZ,1,100,-0.824
1575664586.198210,119227.000,20390,3,GZ,1,100,2.319
1575664586.236788,119259.500,20408,4,GZ,1,100,-0.427
1575664586.275366,119292.000,20408,4,GZ,1,100,-0.824
1575664586.313944,119324.500,20408,4,GZ,1,100,0.641
1575664586.352521,119357.000,20408,4,GZ,1,100,0.885
1575664586.398221,119395.500,20426,2,GZ,1,100,0.580
1575664586.443921,119434.000,20426,2,GZ,1,100,-1.343
1575664586.484280,119468.000,20444,4,GZ,1,100,0.458
1575664586.524638,119502.000,20444,4,GZ,1,100,0.458
1575664586.564996,119536.000,20444,4,GZ,1,100,0.000
1575664586.605355,119570.000,20444,4,GZ,1,100,-0.153
1575664586.646900,119605.000,20461,2,GZ,1,100,-0.275
1575664586.688445,119640.000,20461,2,GZ,1,100,-0.092
1575664586.726727,119672.250,20479,4,GZ,1,100,0.580
1575664586.765007,119704.500,20479,4,GZ,1,100,0.214
1575664586.803288,119736.750,20479,4,GZ,1,100,-0.214
1575664586.841570,119769.000,20479,4,GZ,1,100,1.373
1575664586.878960,119800.500,20497,2,GZ,1,100,0.549
1575664586.916351,119832.000,20497,2,GZ,1,100,-0.458
1575664586.959875,119868.667,20513,3,GZ,1,100,1.099
1575664587.003399,119905.333,20513,3,GZ,1,100,0.519
1575664587.046922,119942.000,20513,3,GZ,1,100,1.160
1575664587.088072,119976.667,20532,3,GZ,1,100,0.305
1575664587.129222,120011.333,20532,3,GZ,1,100,-0.092
1575664587.170372,120046.000,20532,3,GZ,1,100,0.244
1575664587.211521,120080.667,20550,3,GZ,1,100,-0.336
1575664587.252671,120115.333,20550,3,GZ,1,100,1.343
1575664587.293821,120150.000,20550,3,GZ,1,100,-0.305
1575664587.333388,120183.333,20568,3,GZ,1,100,-0.732
1575664587.372955,120216.667,20568,3,GZ,1,100,0.793
1575664587.412522,120250.000,20568,3,GZ,1,100,-0.092
1575664587.450209,120281.750,20586,4,GZ,1,100,0.092
1575664587.487897,120313.500,20586,4,GZ,1,100,0.732
1575664587.525584,120345.250,20586,4,GZ,1,100,-0.763
1575664587.563272,120377.000,20586,4,GZ,1,100,1.038
1575664587.603630,120411.000,20604,2,GZ,1,100,2.045
1575664587.643989,120445.000,20604,2,GZ,1,100,-0.793
1575664587.689095,120483.000,20622,3,GZ,1,100,-0.580
1575664587.734201,120521.000,20622,3,GZ,1,100,0.916
1575664587.779308,120559.000,20622,3,GZ,1,100,0.793
1575664587.820457,120593.667,20639,3,GZ,1,100,0.610
1575664587.861607,120628.333,20639,3,GZ,1,100,-0.549
1575664587.902757,120663.000,20639,3,GZ,1,100,0.397
1575664587.941928,120696.000,20657,3,GZ,1,100,0.427
1575664587.981099,120729.000,20657,3,GZ,1,100,-0.153
1575664588.020271,120762.000,20657,3,GZ,1,100,1.129
1575664588.058651,120794.333,20675,3,GZ,1,100,0.580
1575664588.097031,120826.667,20675,3,GZ,1,100,1.282
1575664588.135411,120859.000,20675,3,GZ,1,100,0.488
1575664588.173791,120891.333,20694,3,GZ,1,100,0.153
1575664588.212171,120923.667,20694,3,GZ,1,100,-0.702
1575664588.250551,120956.000,20694,3,GZ,1,100,0.214
1575664588.291700,120990.667,20710,3,GZ,1,100,2.289
1575664588.332850,121025.333,20710,3,GZ,1,100,1.251
1575664588.374000,121060.000,20710,3,GZ,1,100,0.244
1575664588.419106,121098.000,20728,3,GZ,1,100,0.061
1575664588.464213,121136.000,20728,3,GZ,1,100,-0.366
1575664588.509319,121174.000,20728,3,GZ,1,100,1.038
1575664588.547303,121206.000,20746,3,GZ,1,100,1.282
1575664588.585288,121238.000,20746,3,GZ,1,100,0.153
1575664588.623272,121270.000,20746,3,GZ,1,100,-1.312
1575664588.668774,121308.333,20764,3,GZ,1,100,0.214
1575664588.714276,121346.667,20764,3,GZ,1,100,1.160
1575664588.759778,121385.000,20764,3,GZ,1,100,0.275
1575664588.797762,121417.000,20782,3,GZ,1,100,1.007
1575664588.835747,121449.000,20782,3,GZ,1,100,-1.984
1575664588.873731,121481.000,20782,3,GZ,1,100,-0.946
1575664588.920618,121520.500,20799,2,GZ,1,100,2.075
1575664588.967505,121560.000,20799,2,GZ,1,100,0.610
1575664589.006676,121593.000,20817,3,GZ,1,100,1.343
1575664589.045848,121626.000,20817,3,GZ,1,100,-0.763
1575664589.085019,121659.000,20817,3,GZ,1,100,-10.895
1575664589.123003,121691.000,20836,4,GZ,1,100,-3.662
1575664589.160988,121723.000,20836,4,GZ,1,100,-12.939
1575664589.198972,121755.000,20836,4,GZ,1,100,-63.904
1575664589.236956,121787.000,20836,4,GZ,1,100,-82.031
1575664589.278205,121821.750,20857,4,GZ,1,100,-22.064
1575664589.319453,121856.500,20857,4,GZ,1,100,10.742
1575664589.360702,121891.250,20857,4,GZ,1,100,-28.473
1575664589.401951,121926.000,20857,4,GZ,1,100,-34.271
1575664589.441122,121959.000,20877,3,GZ,1,100,-4.059
1575664589.480293,121992.000,20877,3,GZ,1,100,-6.744
1575664589.519465,122025.000,20877,3,GZ,1,100,-13.702
1575664589.561010,122060.000,20894,3,GZ,1,100,-23.376
1575664589.602555,122095.000,20894,3,GZ,1,100,-119.781
1575664589.644101,122130.000,20894,3,GZ,1,100,-307.465
1575664589.685250,122164.667,20912,3,GZ,1,100,-50.934
1575664589.726400,122199.333,20912,3,GZ,1,100,354.126
1575664589.767550,122234.000,20912,3,GZ,1,100,-58.197
1575664589.811469,122271.000,20930,3,GZ,1,100,18.463
1575664589.855388,122308.000,20930,3,GZ,1,100,46.265
1575664589.899308,122345.000,20930,3,GZ,1,100,32.379
1575664589.936897,122376.667,20946,3,GZ,1,100,27.863
1575664589.974485,122408.333,20946,3,GZ,1,100,37.811
1575664590.012074,122440.000,20946,3,GZ,1,100,48.096
1575664590.050849,122472.667,20964,3,GZ,1,100,21.729
1575664590.089625,122505.333,20964,3,GZ,1,100,0.610
1575664590.128401,122538.000,20964,3,GZ,1,100,-17.242
1575664590.169551,122572.667,20983,3,GZ,1,100,-19.379
1575664590.210700,122607.333,20983,3,GZ,1,100,-10.437
1575664590.251850,122642.000,20983,3,GZ,1,100,-31.281
1575664590.291813,122675.667,21001,3,GZ,1,100,-62.653
1575664590.331775,122709.333,21001,3,GZ,1,100,-250.610
1575664590.371738,122743.000,21001,3,GZ,1,100,-267.365
1575664590.413283,122778.000,21019,3,GZ,1,100,346.130
1575664590.454829,122813.000,21019,3,GZ,1,100,-24.200
1575664590.496374,122848.000,21019,3,GZ,1,100,43.640
1575664590.537128,122882.333,21037,3,GZ,1,100,59.631
1575664590.577882,122916.667,21037,3,GZ,1,100,42.511
1575664590.618636,122951.000,21037,3,GZ,1,100,32.318
1575664590.657807,122984.000,21055,3,GZ,1,100,38.330
1575664590.696979,123017.000,21055,3,GZ,1,100,44.952
1575664590.736150,123050.000,21055,3,GZ,1,100,47.852
1575664590.777695,123085.000,21072,3,GZ,1,100,37.079
1575664590.819241,123120.000,21072,3,GZ,1,100,21.606
1575664590.860786,123155.000,21072,3,GZ,1,100,9.064
1575664590.901540,123189.333,21090,3,GZ,1,100,5.249
1575664590.942294,123223.667,21090,3,GZ,1,100,-4.700
1575664590.983048,123258.000,21090,3,GZ,1,100,-9.369
1575664591.025781,123294.000,21106,2,GZ,1,100,-38.727
1575664591.068513,123330.000,21106,2,GZ,1,100,-141.602
1575664591.106497,123362.000,21125,4,GZ,1,100,-285.950
1575664591.144482,123394.000,21125,4,GZ,1,100,97.870
1575664591.182466,123426.000,21125,4,GZ,1,100,126.709
1575664591.220450,123458.000,21125,4,GZ,1,100,-73.853
1575664591.259226,123490.667,21143,3,GZ,1,100,40.680
1575664591.298002,123523.333,21143,3,GZ,1,100,44.617
1575664591.336777,123556.000,21143,3,GZ,1,100,57.892
1575664591.383071,123595.000,21161,2,GZ,1,100,28.198
1575664591.429364,123634.000,21161,2,GZ,1,100,36.865
1575664591.470514,123668.667,21179,3,GZ,1,100,62.836
1575664591.511663,123703.333,21179,3,GZ,1,100,66.040
1575664591.552813,123738.000,21179,3,GZ,1,100,73.822
1575664591.593567,123772.333,21197,3,GZ,1,100,80.017
1575664591.634321,123806.667,21197,3,GZ,1,100,79.926
1575664591.675075,123841.000,21197,3,GZ,1,100,89.233
1575664591.714247,123874.000,21215,3,GZ,1,100,96.252
1575664591.753418,123907.000,21215,3,GZ,1,100,71.869
1575664591.792589,123940.000,21215,3,GZ,1,100,46.326
1575664591.830574,123972.000,21233,4,GZ,1,100,37.964
1575664591.868558,124004.000,21233,4,GZ,1,100,24.597
1575664591.906542,124036.000,21233,4,GZ,1,100,21.698
1575664591.944526,124068.000,21233,4,GZ,1,100,13.733
1575664591.984489,124101.667,21251,3,GZ,1,100,13.062
1575664592.024452,124135.333,21251,3,GZ,1,100,8.484
1575664592.064415,124169.000,21251,3,GZ,1,100,7.965
1575664592.112489,124209.500,21269,2,GZ,1,100,0.397
1575664592.160562,124250.000,21269,2,GZ,1,100,-13.245
1575664592.197755,124281.333,21287,3,GZ,1,100,-4.059
1575664592.234948,124312.667,21287,3,GZ,1,100,-5.676
1575664592.272141,124344.000,21287,3,GZ,1,100,-3.632
1575664592.314874,124380.000,21303,3,GZ,1,100,0.305
1575664592.357606,124416.000,21303,3,GZ,1,100,-1.953
1575664592.400338,124452.000,21303,3,GZ,1,100,4.822
1575664592.440697,124486.000,21321,3,GZ,1,100,-0.458
1575664592.481055,124520.000,21321,3,GZ,1,100,-5.676
1575664592.521413,124554.000,21321,3,GZ,1,100,-4.089
1575664592.566124,124591.667,21339,3,GZ,1,100,-3.540
1575664592.610835,124629.333,21339,3,GZ,1,100,6.378
1575664592.655545,124667.000,21339,3,GZ,1,100,0.549
1575664592.697091,124702.000,21357,3,GZ,1,100,3.510
1575664592.738636,124737.000,21357,3,GZ,1,100,3.723
1575664592.780182,124772.000,21357,3,GZ,1,100,-5.157
1575664592.818166,124804.000,21375,3,GZ,1,100,1.984
1575664592.856150,124836.000,21375,3,GZ,1,100,-4.150
1575664592.894135,124868.000,21375,3,GZ,1,100,-6.531
1575664592.932910,124900.667,21393,3,GZ,1,100,2.197
1575664592.971686,124933.333,21393,3,GZ,1,100,-0.275
1575664593.010462,124966.000,21393,3,GZ,1,100,2.777
1575664593.048446,124998.000,21411,3,GZ,1,100,-1.221
1575664593.086430,125030.000,21411,3,GZ,1,100,-3.906
1575664593.124415,125062.000,21411,3,GZ,1,100,-1.007
1575664593.163190,125094.667,21429,3,GZ,1,100,0.519
1575664593.201966,125127.333,21429,3,GZ,1,100,3.113
1575664593.240741,125160.000,21429,3,GZ,1,100,-0.458
1575664593.281891,125194.667,21447,3,GZ,1,100,1.404
1575664593.323041,125229.333,21447,3,GZ,1,100,-0.244
1575664593.364191,125264.000,21447,3,GZ,1,100,-2.136
1575664593.404945,125298.333,21465,3,GZ,1,100,-0.122
1575664593.445699,125332.667,21465,3,GZ,1,100,-0.793
1575664593.486453,125367.000,21465,3,GZ,1,100,-0.946
1575664593.530768,125404.333,21481,3,GZ,1,100,1.343
1575664593.575083,125441.667,21481,3,GZ,1,100,-1.099
1575664593.619398,125479.000,21481,3,GZ,1,100,3.601
1575664593.656986,125510.667,21499,3,GZ,1,100,2.747
1575664593.694575,125542.333,21499,3,GZ,1,100,-2.106
1575664593.732164,125574.000,21499,3,GZ,1,100,3.265
1575664593.771335,125607.000,21517,3,GZ,1,100,2.228
1575664593.810507,125640.000,21517,3,GZ,1,100,1.099
1575664593.849678,125673.000,21517,3,GZ,1,100,0.580
1575664593.889641,125706.667,21535,3,GZ,1,100,-0.122
1575664593.929603,125740.333,21535,3,GZ,1,100,0.122
1575664593.969566,125774.000,21535,3,GZ,1,100,-0.061
1575664594.010715,125808.667,21553,3,GZ,1,100,-1.984
1575664594.051865,125843.333,21553,3,GZ,1,100,2.441
1575664594.093015,125878.000,21553,3,GZ,1,100,2.991
1575664594.134560,125913.000,21572,3,GZ,1,100,1.038
1575664594.176105,125948.000,21572,3,GZ,1,100,3.448
1575664594.217651,125983.000,21572,3,GZ,1,100,-1.678
1575664594.259196,126018.000,21590,3,GZ,1,100,2.045
1575664594.300742,126053.000,21590,3,GZ,1,100,-1.801
1575664594.342287,126088.000,21590,3,GZ,1,100,-0.153
1575664594.381063,126120.667,21607,3,GZ,1,100,5.005
1575664594.419838,126153.333,21607,3,GZ,1,100,0.824
1575664594.458614,126186.000,21607,3,GZ,1,100,-1.099
1575664594.498972,126220.000,21625,3,GZ,1,100,-2.930
1575664594.539331,126254.000,21625,3,GZ,1,100,4.822
1575664594.579689,126288.000,21625,3,GZ,1,100,15.137
1575664594.620839,126322.667,21643,3,GZ,1,100,-12.787
1575664594.661988,126357.333,21643,3,GZ,1,100,-24.780
1575664594.703138,126392.000,21643,3,GZ,1,100,-2.777
1575664594.744090,126426.500,21659,2,GZ,1,100,-3.387
1575664594.785042,126461.000,21659,2,GZ,1,100,-7.843
1575664594.824213,126494.000,21677,4,GZ,1,100,-4.852
1575664594.863384,126527.000,21677,4,GZ,1,100,-5.554
1575664594.902556,126560.000,21677,4,GZ,1,100,-6.897
1575664594.941727,126593.000,21677,4,GZ,1,100,-0.031
1575664594.980107,126625.333,21695,3,GZ,1,100,0.916
1575664595.018487,126657.667,21695,3,GZ,1,100,-1.099
1575664595.056867,126690.000,21695,3,GZ,1,100,0.427
1575664595.102567,126728.500,21714,2,GZ,1,100,-0.122
1575664595.148267,126767.000,21714,2,GZ,1,100,-0.824
1575664595.189021,126801.333,21732,3,GZ,1,100,-3.357
1575664595.229775,126835.667,21732,3,GZ,1,100,-2.960
1575664595.270529,126870.000,21732,3,GZ,1,100,-1.923
1575664595.311362,126904.400,21753,5,GZ,1,100,-7.996
1575664595.352195,126938.800,21753,5,GZ,1,100,-5.432
1575664595.393028,126973.200,21753,5,GZ,1,100,-7.050
1575664595.433861,127007.600,21753,5,GZ,1,100,-12.024
1575664595.474695,127042.000,21753,5,GZ,1,100,-4.852
1575664595.512283,127073.667,21773,3,GZ,1,100,-0.549
1575664595.549872,127105.333,21773,3,GZ,1,100,-3.571
1575664595.587461,127137.000,21773,3,GZ,1,100,-4.395
1575664595.625445,127169.000,21791,3,GZ,1,100,0.305
1575664595.663429,127201.000,21791,3,GZ,1,100,2.289
1575664595.701414,127233.000,21791,3,GZ,1,100,-0.366
1575664595.740981,127266.333,21809,3,GZ,1,100,0.244
1575664595.780548,127299.667,21809,3,GZ,1,100,1.404
1575664595.820115,127333.000,21809,3,GZ,1,100,-0.427
1575664595.860869,127367.333,21827,3,GZ,1,100,-1.678
1575664595.901623,127401.667,21827,3,GZ,1,100,0.580
1575664595.942377,127436.000,21827,3,GZ,1,100,1.343
1575664595.987087,127473.667,21845,3,GZ,1,100,0.610
1575664596.031798,127511.333,21845,3,GZ,1,100,2.106
1575664596.076509,127549.000,21845,3,GZ,1,100,0.000
1575664596.114889,127581.333,21864,3,GZ,1,100,-0.458
1575664596.153269,127613.667,21864,3,GZ,1,100,-1.099
1575664596.191649,127646.000,21864,3,GZ,1,100,1.312
1575664596.235964,127683.333,21881,3,GZ,1,100,2.197
1575664596.280279,127720.667,21881,3,GZ,1,100,0.122
1575664596.324594,127758.000,21881,3,GZ,1,100,0.977
1575664596.362974,127790.333,21899,3,GZ,1,100,0.671
1575664596.401354,127822.667,21899,3,GZ,1,100,-0.519
1575664596.439734,127855.000,21899,3,GZ,1,100,0.244
1575664596.486027,127894.000,21915,2,GZ,1,100,0.336
1575664596.532321,127933.000,21915,2,GZ,1,100,1.556
1575664596.573471,127967.667,21933,3,GZ,1,100,0.214
1575664596.614620,128002.333,21933,3,GZ,1,100,0.000
1575664596.655770,128037.000,21933,3,GZ,1,100,0.275
1575664596.695733,128070.667,21951,3,GZ,1,100,0.824
1575664596.735695,128104.333,21951,3,GZ,1,100,0.946
1575664596.775658,128138.000,21951,3,GZ,1,100,-0.671
1575664596.813642,128170.000,21969,4,GZ,1,100,-2.167
1575664596.851627,128202.000,21969,4,GZ,1,100,1.526
1575664596.889611,128234.000,21969,4,GZ,1,100,0.336
1575664596.927595,128266.000,21969,4,GZ,1,100,-1.221
1575664596.968349,128300.333,21987,3,GZ,1,100,1.343
1575664597.009103,128334.667,21987,3,GZ,1,100,1.556
1575664597.049857,128369.000,21987,3,GZ,1,100,-1.465
1575664597.090809,128403.500,22005,2,GZ,1,100,0.061
1575664597.131761,128438.000,22005,2,GZ,1,100,-0.061
1575664597.177263,128476.333,22024,3,GZ,1,100,0.916
1575664597.222765,128514.667,22024,3,GZ,1,100,-0.488
1575664597.268267,128553.000,22024,3,GZ,1,100,0.702
1575664597.307438,128586.000,22041,3,GZ,1,100,0.916
1575664597.346610,128619.000,22041,3,GZ,1,100,-0.549
1575664597.385781,128652.000,22041,3,GZ,1,100,0.214
1575664597.424161,128684.333,22059,3,GZ,1,100,1.678
1575664597.462541,128716.667,22059,3,GZ,1,100,-1.404
1575664597.500921,128749.000,22059,3,GZ,1,100,-1.129
1575664597.539697,128781.667,22077,3,GZ,1,100,1.770
1575664597.578472,128814.333,22077,3,GZ,1,100,1.038
1575664597.617248,128847.000,22077,3,GZ,1,100,2.716
1575664597.657607,128881.000,22093,3,GZ,1,100,-0.519
1575664597.697965,128915.000,22093,3,GZ,1,100,-1.892
1575664597.738323,128949.000,22093,3,GZ,1,100,1.129
1575664597.779473,128983.667,22111,3,GZ,1,100,0.793
1575664597.820622,129018.333,22111,3,GZ,1,100,0.763
1575664597.861772,129053.000,22111,3,GZ,1,100,0.214
1575664597.905296,129089.667,22129,3,GZ,1,100,-0.458
1575664597.948820,129126.333,22129,3,GZ,1,100,-2.106
1575664597.992343,129163.000,22129,3,GZ,1,100,-0.275
1575664598.030328,129195.000,22147,3,GZ,1,100,1.282
1575664598.068312,129227.000,22147,3,GZ,1,100,1.007
1575664598.106296,129259.000,22147,3,GZ,1,100,-0.549
1575664598.145468,129292.000,22166,3,GZ,1,100,-0.824
1575664598.184639,129325.000,22166,3,GZ,1,100,-0.427
1575664598.223810,129358.000,22166,3,GZ,1,100,-2.197
1575664598.264960,129392.667,22184,3,GZ,1,100,-3.418
1575664598.306110,129427.333,22184,3,GZ,1,100,-1.617
1575664598.347260,129462.000,22184,3,GZ,1,100,-0.122
1575664598.388409,129496.667,22202,3,GZ,1,100,-1.007
1575664598.429559,129531.333,22202,3,GZ,1,100,-3.479
1575664598.470708,129566.000,22202,3,GZ,1,100,-1.648
1575664598.511462,129600.333,22219,3,GZ,1,100,0.000
1575664598.552217,129634.667,22219,3,GZ,1,100,0.183
1575664598.592971,129669.000,22219,3,GZ,1,100,0.305
1575664598.634120,129703.667,22237,3,GZ,1,100,0.305
1575664598.675270,129738.333,22237,3,GZ,1,100,-1.099
1575664598.716419,129773.000,22237,3,GZ,1,100,0.366
1575664598.754800,129805.333,22255,3,GZ,1,100,1.526
1575664598.793180,129837.667,22255,3,GZ,1,100,1.068
1575664598.831560,129870.000,22255,3,GZ,1,100,0.641
1575664598.872313,129904.333,22272,3,GZ,1,100,2.197
1575664598.913068,129938.667,22272,3,GZ,1,100,3.479
1575664598.953822,129973.000,22272,3,GZ,1,100,5.280
1575664598.994180,130007.000,22289,3,GZ,1,100,14.496
1575664599.034538,130041.000,22289,3,GZ,1,100,15.717
1575664599.074897,130075.000,22289,3,GZ,1,100,17.029
1575664599.116442,130110.000,22308,3,GZ,1,100,20.203
1575664599.157987,130145.000,22308,3,GZ,1,100,19.806
1575664599.199533,130180.000,22308,3,GZ,1,100,14.099
1575664599.236726,130211.333,22326,3,GZ,1,100,7.538
1575664599.273919,130242.667,22326,3,GZ,1,100,10.223
1575664599.311112,130274.000,22326,3,GZ,1,100,5.768
1575664599.353448,130309.667,22344,3,GZ,1,100,-0.153
1575664599.395785,130345.333,22344,3,GZ,1,100,3.143
1575664599.438122,130381.000,22344,3,GZ,1,100,-1.556
1575664599.479667,130416.000,22362,3,GZ,1,100,-3.662
1575664599.521213,130451.000,22362,3,GZ,1,100,-1.648
1575664599.562758,130486.000,22362,3,GZ,1,100,-3.906
1575664599.602720,130519.667,22380,3,GZ,1,100,-0.458
1575664599.642683,130553.333,22380,3,GZ,1,100,2.441
1575664599.682646,130587.000,22380,3,GZ,1,100,1.404
1575664599.720630,130619.000,22398,3,GZ,1,100,4.028
1575664599.758615,130651.000,22398,3,GZ,1,100,3.937
1575664599.796599,130683.000,22398,3,GZ,1,100,4.517
1575664599.839727,130719.333,22415,3,GZ,1,100,0.580
1575664599.882855,130755.667,22415,3,GZ,1,100,-2.014
1575664599.925983,130792.000,22415,3,GZ,1,100,1.892
1575664599.961989,130822.333,22433,3,GZ,1,100,3.906
1575664599.997995,130852.667,22433,3,GZ,1,100,-2.808
1575664600.034001,130883.000,22433,3,GZ,1,100,-5.005
1575664600.079701,130921.500,22449,2,GZ,1,100,-5.463
1575664600.125401,130960.000,22449,2,GZ,1,100,-9.766
1575664600.166353,130994.500,22468,4,GZ,1,100,-13.306
1575664600.207304,131029.000,22468,4,GZ,1,100,-16.022
1575664600.248256,131063.500,22468,4,GZ,1,100,-11.566
1575664600.289208,131098.000,22468,4,GZ,1,100,-9.247
1575664600.330753,131133.000,22486,2,GZ,1,100,-7.263
1575664600.372299,131168.000,22486,2,GZ,1,100,-7.385
1575664600.412657,131202.000,22504,3,GZ,1,100,-6.409
1575664600.453016,131236.000,22504,3,GZ,1,100,-1.343
1575664600.493374,131270.000,22504,3,GZ,1,100,-0.549
1575664600.531358,131302.000,22522,4,GZ,1,100,1.740
1575664600.569342,131334.000,22522,4,GZ,1,100,0.458
1575664600.607327,131366.000,22522,4,GZ,1,100,1.526
1575664600.645311,131398.000,22522,4,GZ,1,100,2.441
1575664600.685274,131431.667,22540,3,GZ,1,100,1.953
1575664600.725236,131465.333,22540,3,GZ,1,100,-1.007
1575664600.765199,131499.000,22540,3,GZ,1,100,0.061
1575664600.812086,131538.500,22558,2,GZ,1,100,3.754
1575664600.858973,131578.000,22558,2,GZ,1,100,-1.587
1575664600.898936,131611.667,22575,3,GZ,1,100,1.923
1575664600.938898,131645.333,22575,3,GZ,1,100,6.226
1575664600.978861,131679.000,22575,3,GZ,1,100,5.676
1575664601.020011,131713.667,22593,3,GZ,1,100,9.308
1575664601.061160,131748.333,22593,3,GZ,1,100,8.209
1575664601.102310,131783.000,22593,3,GZ,1,100,3.204
1575664601.139503,131814.333,22612,3,GZ,1,100,4.913
1575664601.176696,131845.667,22612,3,GZ,1,100,2.411
1575664601.213889,131877.000,22612,3,GZ,1,100,-1.434
1575664601.252269,131909.333,22628,3,GZ,1,100,0.153
1575664601.290649,131941.667,22628,3,GZ,1,100,-15.686
1575664601.329029,131974.000,22628,3,GZ,1,100,-22.522
1575664601.369862,132008.400,22649,5,GZ,1,100,-6.104
1575664601.410695,132042.800,22649,5,GZ,1,100,-25.543
1575664601.451529,132077.200,22649,5,GZ,1,100,-22.644
1575664601.492362,132111.600,22649,5,GZ,1,100,6.134
1575664601.533195,132146.000,22649,5,GZ,1,100,4.669
1575664601.579093,132184.667,22668,3,GZ,1,100,-16.846
1575664601.624990,132223.333,22668,3,GZ,1,100,-12.115
1575664601.670888,132262.000,22668,3,GZ,1,100,0.580
1575664601.708477,132293.667,22686,3,GZ,1,100,-1.678
1575664601.746065,132325.333,22686,3,GZ,1,100,-1.068
1575664601.783654,132357.000,22686,3,GZ,1,100,-0.275
1575664601.821243,132388.667,22704,3,GZ,1,100,-1.282
1575664601.858831,132420.333,22704,3,GZ,1,100,2.197
1575664601.896420,132452.000,22704,3,GZ,1,100,5.157
1575664601.937174,132486.333,22722,3,GZ,1,100,1.038
1575664601.977928,132520.667,22722,3,GZ,1,100,-1.129
1575664602.018682,132555.000,22722,3,GZ,1,100,0.732
1575664602.059832,132589.667,22738,3,GZ,1,100,0.427
1575664602.100981,132624.333,22738,3,GZ,1,100,-2.563
1575664602.142131,132659.000,22738,3,GZ,1,100,-1.312
1575664602.183676,132694.000,22757,3,GZ,1,100,-0.793
1575664602.225222,132729.000,22757,3,GZ,1,100,-2.869
1575664602.266767,132764.000,22757,3,GZ,1,100,-0.061
1575664602.308708,132799.333,22775,3,GZ,1,100,-0.549
1575664602.350649,132834.667,22775,3,GZ,1,100,-0.549
1575664602.392590,132870.000,22775,3,GZ,1,100,-2.533
1575664602.430179,132901.667,22793,3,GZ,1,100,-7.172
1575664602.467767,132933.333,22793,3,GZ,1,100,-9.979
1575664602.505356,132965.000,22793,3,GZ,1,100,-4.303
1575664602.545319,132998.667,22811,3,GZ,1,100,2.228
1575664602.585281,133032.333,22811,3,GZ,1,100,0.824
1575664602.625244,133066.000,22811,3,GZ,1,100,0.122
1575664602.666394,133100.667,22829,3,GZ,1,100,0.854
1575664602.707543,133135.333,22829,3,GZ,1,100,-0.610
1575664602.748693,133170.000,22829,3,GZ,1,100,1.190
1575664602.789447,133204.333,22847,3,GZ,1,100,-1.251
1575664602.830201,133238.667,22847,3,GZ,1,100,-13.000
1575664602.870955,133273.000,22847,3,GZ,1,100,-24.841
1575664602.910918,133306.667,22864,3,GZ,1,100,-31.952
1575664602.950881,133340.333,22864,3,GZ,1,100,-28.625
1575664602.990843,133374.000,22864,3,GZ,1,100,-4.608
1575664603.031993,133408.667,22882,3,GZ,1,100,24.139
1575664603.073143,133443.333,22882,3,GZ,1,100,30.914
1575664603.114292,133478.000,22882,3,GZ,1,100,22.705
1575664603.149111,133507.333,22901,3,GZ,1,100,10.071
1575664603.183930,133536.667,22901,3,GZ,1,100,3.387
1575664603.218749,133566.000,22901,3,GZ,1,100,-11.169
1575664603.261086,133601.667,22919,3,GZ,1,100,-8.850
1575664603.303423,133637.333,22919,3,GZ,1,100,-2.045
1575664603.345759,133673.000,22919,3,GZ,1,100,0.244
1575664603.380183,133702.000,22935,3,GZ,1,100,10.590
1575664603.414606,133731.000,22935,3,GZ,1,100,6.378
1575664603.449029,133760.000,22935,3,GZ,1,100,-4.242
1575664603.488596,133793.333,22953,3,GZ,1,100,-3.113
1575664603.528163,133826.667,22953,3,GZ,1,100,3.662
1575664603.567730,133860.000,22953,3,GZ,1,100,10.406
1575664603.605319,133891.667,22971,3,GZ,1,100,7.477
1575664603.642908,133923.333,22971,3,GZ,1,100,4.700
1575664603.680496,133955.000,22971,3,GZ,1,100,6.195
1575664603.722833,133990.667,22989,3,GZ,1,100,-1.678
1575664603.765170,134026.333,22989,3,GZ,1,100,-1.251
1575664603.807506,134062.000,22989,3,GZ,1,100,9.827
1575664603.848656,134096.667,23007,3,GZ,1,100,15.747
1575664603.889806,134131.333,23007,3,GZ,1,100,13.641
1575664603.930955,134166.000,23007,3,GZ,1,100,5.219
1575664603.971314,134200.000,23025,3,GZ,1,100,-0.793
1575664604.011672,134234.000,23025,3,GZ,1,100,1.129
1575664604.052030,134268.000,23025,3,GZ,1,100,0.641
1575664604.092784,134302.333,23044,3,GZ,1,100,-0.580
1575664604.133538,134336.667,23044,3,GZ,1,100,0.916
1575664604.174292,134371.000,23044,3,GZ,1,100,-0.122
1575664604.212672,134403.333,23062,3,GZ,1,100,-5.096
1575664604.251052,134435.667,23062,3,GZ,1,100,-3.510
1575664604.289432,134468.000,23062,3,GZ,1,100,-0.275
1575664604.328604,134501.000,23079,3,GZ,1,100,1.038
1575664604.367775,134534.000,23079,3,GZ,1,100,-0.092
1575664604.406946,134567.000,23079,3,GZ,1,100,1.617
1575664604.445326,134599.333,23097,3,GZ,1,100,3.235
1575664604.483706,134631.667,23097,3,GZ,1,100,-1.678
1575664604.522086,134664.000,23097,3,GZ,1,100,2.411
1575664604.564423,134699.667,23115,3,GZ,1,100,2.014
1575664604.606760,134735.333,23115,3,GZ,1,100,-5.768
1575664604.649096,134771.000,23115,3,GZ,1,100,0.641
1575664604.689851,134805.333,23132,3,GZ,1,100,2.747
1575664604.730604,134839.667,23132,3,GZ,1,100,1.953
1575664604.771358,134874.000,23132,3,GZ,1,100,2.533
1575664604.812508,134908.667,23149,3,GZ,1,100,-1.221
1575664604.853658,134943.333,23149,3,GZ,1,100,-2.838
1575664604.894808,134978.000,23149,3,GZ,1,100,1.282
1575664604.935166,135012.000,23167,3,GZ,1,100,-0.671
1575664604.975524,135046.000,23167,3,GZ,1,100,-1.465
1575664605.015883,135080.000,23167,3,GZ,1,100,0.702
1575664605.053471,135111.667,23186,3,GZ,1,100,1.160
1575664605.091060,135143.333,23186,3,GZ,1,100,1.190
1575664605.128649,135175.000,23186,3,GZ,1,100,2.289
1575664605.167820,135208.000,23204,3,GZ,1,100,-0.397
1575664605.206991,135241.000,23204,3,GZ,1,100,-0.549
1575664605.246163,135274.000,23204,3,GZ,1,100,-1.373
1575664605.290478,135311.333,23222,3,GZ,1,100,0.183
1575664605.334793,135348.667,23222,3,GZ,1,100,-0.153
1575664605.379108,135386.000,23222,3,GZ,1,100,-0.397
1575664605.420257,135420.667,23240,3,GZ,1,100,-0.488
1575664605.461407,135455.333,23240,3,GZ,1,100,3.723
1575664605.502557,135490.000,23240,3,GZ,1,100,-2.136
1575664605.543311,135524.333,23257,3,GZ,1,100,-3.601
1575664605.584065,135558.667,23257,3,GZ,1,100,0.336
1575664605.624819,135593.000,23257,3,GZ,1,100,-0.214
1575664605.661616,135624.000,23275,3,GZ,1,100,-0.549
1575664605.698414,135655.000,23275,3,GZ,1,100,0.092
1575664605.735211,135686.000,23275,3,GZ,1,100,0.610
1575664605.774382,135719.000,23293,3,GZ,1,100,0.000
1575664605.813554,135752.000,23293,3,GZ,1,100,-0.397
1575664605.852725,135785.000,23293,3,GZ,1,100,0.244
1575664605.893874,135819.667,23311,3,GZ,1,100,3.418
1575664605.935024,135854.333,23311,3,GZ,1,100,-0.580
1575664605.976174,135889.000,23311,3,GZ,1,100,-1.556
1575664606.017719,135924.000,23327,2,GZ,1,100,0.885
1575664606.059265,135959.000,23327,2,GZ,1,100,-0.397
1575664606.103975,135996.667,23346,3,GZ,1,100,2.380
1575664606.148686,136034.333,23346,3,GZ,1,100,3.448
1575664606.193397,136072.000,23346,3,GZ,1,100,1.312
1575664606.231678,136104.250,23364,4,GZ,1,100,-1.587
1575664606.269959,136136.500,23364,4,GZ,1,100,1.526
1575664606.308240,136168.750,23364,4,GZ,1,100,3.021
1575664606.346521,136201.000,23364,4,GZ,1,100,1.709
1575664606.384505,136233.000,23382,3,GZ,1,100,-2.625
1575664606.422490,136265.000,23382,3,GZ,1,100,-2.136
1575664606.460474,136297.000,23382,3,GZ,1,100,-0.946
1575664606.501624,136331.667,23400,3,GZ,1,100,1.373
1575664606.542773,136366.333,23400,3,GZ,1,100,4.242
1575664606.583923,136401.000,23400,3,GZ,1,100,4.303
1575664606.625073,136435.667,23418,3,GZ,1,100,1.373
1575664606.666223,136470.333,23418,3,GZ,1,100,-2.991
1575664606.707372,136505.000,23418,3,GZ,1,100,-5.646
1575664606.747730,136539.000,23436,2,GZ,1,100,-2.716
1575664606.788089,136573.000,23436,2,GZ,1,100,-1.495
1575664606.828447,136607.000,23453,4,GZ,1,100,3.143
1575664606.868806,136641.000,23453,4,GZ,1,100,2.716
1575664606.909164,136675.000,23453,4,GZ,1,100,0.183
1575664606.949522,136709.000,23453,4,GZ,1,100,-2.167
1575664606.990474,136743.500,23471,2,GZ,1,100,-1.709
1575664607.031426,136778.000,23471,2,GZ,1,100,1.678
1575664607.071191,136811.500,23488,4,GZ,1,100,2.838
1575664607.110956,136845.000,23488,4,GZ,1,100,0.610
1575664607.150720,136878.500,23488,4,GZ,1,100,1.465
1575664607.190485,136912.000,23488,4,GZ,1,100,0.275
1575664607.230250,136945.500,23506,2,GZ,1,100,-2.106
1575664607.270015,136979.000,23506,2,GZ,1,100,-4.547
1575664607.309780,137012.500,23524,4,GZ,1,100,1.129
1575664607.349545,137046.000,23524,4,GZ,1,100,5.890
1575664607.389309,137079.500,23524,4,GZ,1,100,-0.671
1575664607.429074,137113.000,23524,4,GZ,1,100,-4.608
1575664607.469729,137147.250,23545,4,GZ,1,100,-3.967
1575664607.510385,137181.500,23545,4,GZ,1,100,1.587
1575664607.551040,137215.750,23545,4,GZ,1,100,4.761
1575664607.591695,137250.000,23545,4,GZ,1,100,3.143
1575664607.632844,137284.667,23564,3,GZ,1,100,0.000
1575664607.673994,137319.333,23564,3,GZ,1,100,-2.930
1575664607.715144,137354.000,23564,3,GZ,1,100,-0.366
1575664607.756294,137388.667,23582,3,GZ,1,100,2.625
1575664607.797443,137423.333,23582,3,GZ,1,100,2.716
1575664607.838593,137458.000,23582,3,GZ,1,100,0.397
1575664607.880138,137493.000,23598,3,GZ,1,100,-1.770
1575664607.921684,137528.000,23598,3,GZ,1,100,-0.885
1575664607.963229,137563.000,23598,3,GZ,1,100,1.343
1575664608.004774,137598.000,23616,3,GZ,1,100,-0.519
1575664608.046320,137633.000,23616,3,GZ,1,100,-1.160
1575664608.087865,137668.000,23616,3,GZ,1,100,-2.197
1575664608.125454,137699.667,23635,3,GZ,1,100,-0.519
1575664608.163042,137731.333,23635,3,GZ,1,100,-1.038
1575664608.200631,137763.000,23635,3,GZ,1,100,-1.343
1575664608.239011,137795.333,23653,3,GZ,1,100,-0.793
1575664608.277391,137827.667,23653,3,GZ,1,100,0.458
1575664608.315771,137860.000,23653,3,GZ,1,100,0.183
1575664608.359295,137896.667,23671,3,GZ,1,100,-1.648
1575664608.402818,137933.333,23671,3,GZ,1,100,-3.296
1575664608.446342,137970.000,23671,3,GZ,1,100,1.617
1575664608.487096,138004.333,23689,3,GZ,1,100,0.061
1575664608.527850,138038.667,23689,3,GZ,1,100,-0.336
1575664608.568604,138073.000,23689,3,GZ,1,100,-0.214
1575664608.609754,138107.667,23707,3,GZ,1,100,0.519
1575664608.650903,138142.333,23707,3,GZ,1,100,-0.702
1575664608.692053,138177.000,23707,3,GZ,1,100,-1.892
1575664608.730433,138209.333,23724,3,GZ,1,100,-9.247
1575664608.768813,138241.667,23724,3,GZ,1,100,-15.137
1575664608.807193,138274.000,23724,3,GZ,1,100,-2.136
1575664608.844386,138305.333,23742,3,GZ,1,100,4.974
1575664608.881579,138336.667,23742,3,GZ,1,100,0.671
1575664608.918772,138368.000,23742,3,GZ,1,100,2.563
1575664608.963087,138405.333,23760,3,GZ,1,100,2.228
1575664609.007402,138442.667,23760,3,GZ,1,100,-0.427
1575664609.051717,138480.000,23760,3,GZ,1,100,-1.221
1575664609.093263,138515.000,23777,2,GZ,1,100,-1.343
1575664609.134808,138550.000,23777,2,GZ,1,100,0.397
1575664609.175958,138584.667,23795,3,GZ,1,100,2.441
1575664609.217107,138619.333,23795,3,GZ,1,100,1.495
1575664609.258257,138654.000,23795,3,GZ,1,100,2.045
1575664609.298615,138688.000,23813,3,GZ,1,100,1.434
1575664609.338974,138722.000,23813,3,GZ,1,100,-1.068
1575664609.379332,138756.000,23813,3,GZ,1,100,-1.221
1575664609.416723,138787.500,23831,4,GZ,1,100,2.289
1575664609.454114,138819.000,23831,4,GZ,1,100,-0.031
1575664609.491504,138850.500,23831,4,GZ,1,100,1.984
1575664609.528895,138882.000,23831,4,GZ,1,100,2.960
1575664609.568858,138915.667,23849,3,GZ,1,100,0.732
1575664609.608821,138949.333,23849,3,GZ,1,100,0.366
1575664609.648783,138983.000,23849,3,GZ,1,100,0.671
1575664609.696264,139023.000,23867,2,GZ,1,100,0.854
1575664609.743744,139063.000,23867,2,GZ,1,100,2.441
1575664609.784894,139097.667,23885,3,GZ,1,100,0.519
1575664609.826044,139132.333,23885,3,GZ,1,100,0.793
1575664609.867193,139167.000,23885,3,GZ,1,100,0.458
1575664609.906760,139200.333,23902,3,GZ,1,100,-2.350
1575664609.946327,139233.667,23902,3,GZ,1,100,-1.831
1575664609.985894,139267.000,23902,3,GZ,1,100,0.946
1575664610.024274,139299.333,23921,3,GZ,1,100,-0.244
1575664610.062654,139331.667,23921,3,GZ,1,100,-0.092
1575664610.101034,139364.000,23921,3,GZ,1,100,1.434
1575664610.139612,139396.500,23939,4,GZ,1,100,1.282
1575664610.178190,139429.000,23939,4,GZ,1,100,1.373
1575664610.216768,139461.500,23939,4,GZ,1,100,0.549
1575664610.255346,139494.000,23939,4,GZ,1,100,0.519
1575664610.296891,139529.000,23955,2,GZ,1,100,-1.190
1575664610.338436,139564.000,23955,2,GZ,1,100,-1.678
1575664610.383147,139601.667,23973,3,GZ,1,100,1.465
1575664610.427858,139639.333,23973,3,GZ,1,100,2.533
1575664610.472569,139677.000,23973,3,GZ,1,100,1.221
1575664610.510553,139709.000,23991,3,GZ,1,100,1.068
1575664610.548537,139741.000,23991,3,GZ,1,100,0.793
1575664610.586521,139773.000,23991,3,GZ,1,100,0.763
1575664610.631628,139811.000,24009,3,GZ,1,100,0.397
1575664610.676734,139849.000,24009,3,GZ,1,100,1.282
1575664610.721841,139887.000,24009,3,GZ,1,100,1.434
1575664610.759825,139919.000,24027,3,GZ,1,100,1.007
1575664610.797809,139951.000,24027,3,GZ,1,100,0.275
1575664610.835793,139983.000,24027,3,GZ,1,100,0.427
1575664610.878130,140018.667,24045,3,GZ,1,100,-0.763
1575664610.920467,140054.333,24045,3,GZ,1,100,-0.122
1575664610.962804,140090.000,24045,3,GZ,1,100,0.427
1575664611.003558,140124.333,24062,3,GZ,1,100,-0.336
1575664611.044312,140158.667,24062,3,GZ,1,100,-0.183
1575664611.085066,140193.000,24062,3,GZ,1,100,1.923
1575664611.131953,140232.500,24081,2,GZ,1,100,1.495
1575664611.178839,140272.000,24081,2,GZ,1,100,-0.763
1575664611.218011,140305.000,24097,3,GZ,1,100,-0.397
1575664611.257182,140338.000,24097,3,GZ,1,100,-1.160
1575664611.296354,140371.000,24097,3,GZ,1,100,0.122
1575664611.334338,140403.000,24115,4,GZ,1,100,0.061
1575664611.372322,140435.000,24115,4,GZ,1,100,-0.275
1575664611.410306,140467.000,24115,4,GZ,1,100,1.648
1575664611.448291,140499.000,24115,4,GZ,1,100,-1.160
1575664611.488649,140533.000,24133,3,GZ,1,100,-0.519
1575664611.529007,140567.000,24133,3,GZ,1,100,0.397
1575664611.569366,140601.000,24133,3,GZ,1,100,0.214
1575664611.610911,140636.000,24151,2,GZ,1,100,0.732
1575664611.652457,140671.000,24151,2,GZ,1,100,0.549
1575664611.694002,140706.000,24169,3,GZ,1,100,-0.305
1575664611.735547,140741.000,24169,3,GZ,1,100,0.275
1575664611.777093,140776.000,24169,3,GZ,1,100,-0.061
1575664611.819825,140812.000,24187,3,GZ,1,100,0.885
1575664611.862557,140848.000,24187,3,GZ,1,100,-1.556
1575664611.905290,140884.000,24187,3,GZ,1,100,0.061
1575664611.944065,140916.667,24205,3,GZ,1,100,1.526
1575664611.982841,140949.333,24205,3,GZ,1,100,0.122
1575664612.021617,140982.000,24205,3,GZ,1,100,-0.885
1575664612.060392,141014.667,24223,3,GZ,1,100,0.244
1575664612.099168,141047.333,24223,3,GZ,1,100,1.587
1575664612.137944,141080.000,24223,3,GZ,1,100,0.671
1575664612.179093,141114.667,24241,3,GZ,1,100,-1.068
1575664612.220243,141149.333,24241,3,GZ,1,100,0.824
1575664612.261393,141184.000,24241,3,GZ,1,100,0.336
1575664612.301356,141217.667,24259,3,GZ,1,100,-0.458
1575664612.341318,141251.333,24259,3,GZ,1,100,0.702
1575664612.381281,141285.000,24259,3,GZ,1,100,-0.610
1575664612.422035,141319.333,24275,3,GZ,1,100,-0.519
1575664612.462789,141353.667,24275,3,GZ,1,100,0.397
1575664612.503543,141388.000,24275,3,GZ,1,100,0.641
1575664612.545088,141423.000,24293,3,GZ,1,100,0.488
1575664612.586634,141458.000,24293,3,GZ,1,100,-0.214
1575664612.628179,141493.000,24293,3,GZ,1,100,0.763
1575664612.666163,141525.000,24311,3,GZ,1,100,-0.641
1575664612.704148,141557.000,24311,3,GZ,1,100,0.580
1575664612.742132,141589.000,24311,3,GZ,1,100,0.397
1575664612.783677,141624.000,24329,3,GZ,1,100,-0.671
1575664612.825223,141659.000,24329,3,GZ,1,100,-2.014
1575664612.866768,141694.000,24329,3,GZ,1,100,0.549
1575664612.907126,141728.000,24347,3,GZ,1,100,1.617
1575664612.947485,141762.000,24347,3,GZ,1,100,0.671
1575664612.987843,141796.000,24347,3,GZ,1,100,-0.305
1575664613.029388,141831.000,24365,3,GZ,1,100,-0.824
1575664613.070934,141866.000,24365,3,GZ,1,100,1.526
1575664613.112479,141901.000,24365,3,GZ,1,100,0.732
1575664613.154024,141936.000,24384,3,GZ,1,100,-0.305
1575664613.195570,141971.000,24384,3,GZ,1,100,1.404
1575664613.237115,142006.000,24384,3,GZ,1,100,0.092
1575664613.275891,142038.667,24402,3,GZ,1,100,1.068
1575664613.314667,142071.333,24402,3,GZ,1,100,0.153
1575664613.353442,142104.000,24402,3,GZ,1,100,-0.122
1575664613.391427,142136.000,24419,3,GZ,1,100,0.427
1575664613.429411,142168.000,24419,3,GZ,1,100,0.275
1575664613.467395,142200.000,24419,3,GZ,1,100,0.824
1575664613.509890,142235.800,24440,5,GZ,1,100,0.214
1575664613.552385,142271.600,24440,5,GZ,1,100,0.305
1575664613.594880,142307.400,24440,5,GZ,1,100,0.580
1575664613.637375,142343.200,24440,5,GZ,1,100,0.153
1575664613.679870,142379.000,24440,5,GZ,1,100,0.549
1575664613.721415,142414.000,24460,2,GZ,1,100,0.183
1575664613.762961,142449.000,24460,2,GZ,1,100,0.977
1575664613.804506,142484.000,24478,3,GZ,1,100,0.183
1575664613.846051,142519.000,24478,3,GZ,1,100,0.427
1575664613.887597,142554.000,24478,3,GZ,1,100,0.519
1575664613.925284,142585.750,24496,4,GZ,1,100,0.427
1575664613.962972,142617.500,24496,4,GZ,1,100,2.167
1575664614.000659,142649.250,24496,4,GZ,1,100,1.099
1575664614.038347,142681.000,24496,4,GZ,1,100,1.862
1575664614.077518,142714.000,24514,3,GZ,1,100,1.984
1575664614.116690,142747.000,24514,3,GZ,1,100,0.000
1575664614.155861,142780.000,24514,3,GZ,1,100,-3.998
1575664614.200968,142818.000,24532,2,GZ,1,100,-1.373
1575664614.246074,142856.000,24532,2,GZ,1,100,5.188
1575664614.284948,142888.750,24548,4,GZ,1,100,2.716
1575664614.323823,142921.500,24548,4,GZ,1,100,1.678
1575664614.362698,142954.250,24548,4,GZ,1,100,1.282
1575664614.401572,142987.000,24548,4,GZ,1,100,1.923
1575664614.448459,143026.500,24566,2,GZ,1,100,-0.275
1575664614.495346,143066.000,24566,2,GZ,1,100,-2.594
1575664614.533330,143098.000,24584,3,GZ,1,100,-2.289
1575664614.571315,143130.000,24584,3,GZ,1,100,0.671
1575664614.609299,143162.000,24584,3,GZ,1,100,1.251
1575664614.654405,143200.000,24602,3,GZ,1,100,1.068
1575664614.699512,143238.000,24602,3,GZ,1,100,1.404
1575664614.744618,143276.000,24602,3,GZ,1,100,0.519
1575664614.785372,143310.333,24620,3,GZ,1,100,0.488
1575664614.826126,143344.667,24620,3,GZ,1,100,-0.824
1575664614.866880,143379.000,24620,3,GZ,1,100,-0.305
1575664614.907634,143413.333,24638,3,GZ,1,100,-2.808
1575664614.948388,143447.667,24638,3,GZ,1,100,1.343
1575664614.989142,143482.000,24638,3,GZ,1,100,2.869
1575664615.027127,143514.000,24656,3,GZ,1,100,0.153
1575664615.065111,143546.000,24656,3,GZ,1,100,-1.923
1575664615.103095,143578.000,24656,3,GZ,1,100,-1.495
1575664615.142662,143611.333,24674,3,GZ,1,100,0.000
1575664615.182229,143644.667,24674,3,GZ,1,100,-3.296
1575664615.221796,143678.000,24674,3,GZ,1,100,-0.793
1575664615.260176,143710.333,24692,3,GZ,1,100,3.021
1575664615.298556,143742.667,24692,3,GZ,1,100,6.348
1575664615.336936,143775.000,24692,3,GZ,1,100,5.585
1575664615.375316,143807.333,24710,3,GZ,1,100,-0.061
1575664615.413696,143839.667,24710,3,GZ,1,100,-4.700
1575664615.452076,143872.000,24710,3,GZ,1,100,-4.822
1575664615.493226,143906.667,24726,3,GZ,1,100,-4.944
1575664615.534376,143941.333,24726,3,GZ,1,100,-0.458
1575664615.575525,143976.000,24726,3,GZ,1,100,5.432
1575664615.620632,144014.000,24744,3,GZ,1,100,8.362
1575664615.665738,144052.000,24744,3,GZ,1,100,6.378
1575664615.710845,144090.000,24744,3,GZ,1,100,-1.312
1575664615.751203,144124.000,24762,3,GZ,1,100,-5.859
1575664615.791561,144158.000,24762,3,GZ,1,100,-2.441
1575664615.831919,144192.000,24762,3,GZ,1,100,2.380
1575664615.869508,144223.667,24780,3,GZ,1,100,5.035
1575664615.907097,144255.333,24780,3,GZ,1,100,4.364
1575664615.944685,144287.000,24780,3,GZ,1,100,-1.587
1575664615.983857,144320.000,24798,3,GZ,1,100,0.671
1575664616.023028,144353.000,24798,3,GZ,1,100,-3.082
1575664616.062199,144386.000,24798,3,GZ,1,100,-1.129
1575664616.102558,144420.000,24817,3,GZ,1,100,-0.153
1575664616.142916,144454.000,24817,3,GZ,1,100,3.143
1575664616.183275,144488.000,24817,3,GZ,1,100,5.615
1575664616.224029,144522.333,24835,3,GZ,1,100,1.526
1575664616.264782,144556.667,24835,3,GZ,1,100,-0.885
1575664616.305537,144591.000,24835,3,GZ,1,100,-3.540
1575664616.353611,144631.500,24852,2,GZ,1,100,-1.160
1575664616.401684,144672.000,24852,2,GZ,1,100,0.305
1575664616.439075,144703.500,24870,4,GZ,1,100,2.991
1575664616.476466,144735.000,24870,4,GZ,1,100,1.038
1575664616.513857,144766.500,24870,4,GZ,1,100,0.671
1575664616.551248,144798.000,24870,4,GZ,1,100,-0.122
1575664616.590419,144831.000,24888,3,GZ,1,100,0.183
1575664616.629590,144864.000,24888,3,GZ,1,100,0.092
1575664616.668762,144897.000,24888,3,GZ,1,100,0.641
1575664616.709911,144931.667,24904,3,GZ,1,100,0.519
1575664616.751061,144966.333,24904,3,GZ,1,100,0.488
1575664616.792211,145001.000,24904,3,GZ,1,100,0.397
1575664616.833756,145036.000,24922,3,GZ,1,100,-1.007
1575664616.875301,145071.000,24922,3,GZ,1,100,-0.183
1575664616.916847,145106.000,24922,3,GZ,1,100,0.824
1575664616.958392,145141.000,24940,2,GZ,1,100,1.495
1575664616.999938,145176.000,24940,2,GZ,1,100,-0.763
1575664617.041878,145211.333,24958,3,GZ,1,100,-0.671
1575664617.083820,145246.667,24958,3,GZ,1,100,-0.336
1575664617.125761,145282.000,24958,3,GZ,1,100,-0.244
1575664617.163448,145313.750,24977,4,GZ,1,100,2.594
1575664617.201136,145345.500,24977,4,GZ,1,100,0.763
1575664617.238823,145377.250,24977,4,GZ,1,100,-2.075
1575664617.276511,145409.000,24977,4,GZ,1,100,-1.068
1575664617.317661,145443.667,24995,3,GZ,1,100,0.305
1575664617.358810,145478.333,24995,3,GZ,1,100,0.336
1575664617.399960,145513.000,24995,3,GZ,1,100,0.549
1575664617.440912,145547.500,25013,2,GZ,1,100,-0.061
1575664617.481864,145582.000,25013,2,GZ,1,100,-3.326
1575664617.522618,145616.333,25030,3,GZ,1,100,0.305
1575664617.563372,145650.667,25030,3,GZ,1,100,0.977
1575664617.604126,145685.000,25030,3,GZ,1,100,0.183
1575664617.643693,145718.333,25048,3,GZ,1,100,0.732
1575664617.683260,145751.667,25048,3,GZ,1,100,0.671
1575664617.722827,145785.000,25048,3,GZ,1,100,-0.092
1575664617.763185,145819.000,25066,3,GZ,1,100,-2.899
1575664617.803543,145853.000,25066,3,GZ,1,100,-2.777
1575664617.843902,145887.000,25066,3,GZ,1,100,0.000
1575664617.880996,145918.250,25084,4,GZ,1,100,0.641
1575664617.918090,145949.500,25084,4,GZ,1,100,-0.885
1575664617.955184,145980.750,25084,4,GZ,1,100,-0.153
1575664617.992278,146012.000,25084,4,GZ,1,100,0.275
1575664618.036197,146049.000,25100,2,GZ,1,100,0.488
1575664618.080117,146086.000,25100,2,GZ,1,100,-0.031
1575664618.116617,146116.750,25119,4,GZ,1,100,-0.671
1575664618.153118,146147.500,25119,4,GZ,1,100,-0.916
1575664618.189618,146178.250,25119,4,GZ,1,100,-0.519
1575664618.226119,146209.000,25119,4,GZ,1,100,0.427
1575664618.271819,146247.500,25137,2,GZ,1,100,1.312
1575664618.317519,146286.000,25137,2,GZ,1,100,0.763
1575664618.358273,146320.333,25155,3,GZ,1,100,-1.251
1575664618.399027,146354.667,25155,3,GZ,1,100,-0.641
1575664618.439781,146389.000,25155,3,GZ,1,100,2.319
1575664618.480931,146423.667,25173,3,GZ,1,100,-0.122
1575664618.522080,146458.333,25173,3,GZ,1,100,-1.678
1575664618.563230,146493.000,25173,3,GZ,1,100,0.427
1575664618.604775,146528.000,25191,3,GZ,1,100,1.617
1575664618.646321,146563.000,25191,3,GZ,1,100,-0.885
1575664618.687866,146598.000,25191,3,GZ,1,100,-2.045
1575664618.729411,146633.000,25208,3,GZ,1,100,-1.099
1575664618.770957,146668.000,25208,3,GZ,1,100,0.488
1575664618.812502,146703.000,25208,3,GZ,1,100,0.366
1575664618.852860,146737.000,25226,3,GZ,1,100,-0.793
1575664618.893219,146771.000,25226,3,GZ,1,100,-0.397
1575664618.933577,146805.000,25226,3,GZ,1,100,1.038
1575664618.971166,146836.667,25244,3,GZ,1,100,-0.641
1575664619.008754,146868.333,25244,3,GZ,1,100,-0.610
1575664619.046343,146900.000,25244,3,GZ,1,100,0.580
1575664619.085514,146933.000,25261,3,GZ,1,100,-1.282
1575664619.124686,146966.000,25261,3,GZ,1,100,0.610
1575664619.163857,146999.000,25261,3,GZ,1,100,0.458
1575664619.208172,147036.333,25279,3,GZ,1,100,-0.763
1575664619.252487,147073.667,25279,3,GZ,1,100,-0.488
1575664619.296802,147111.000,25279,3,GZ,1,100,-0.397
1575664619.337952,147145.667,25297,3,GZ,1,100,0.427
1575664619.379102,147180.333,25297,3,GZ,1,100,0.916
1575664619.420251,147215.000,25297,3,GZ,1,100,0.488
1575664619.460214,147248.667,25315,3,GZ,1,100,0.519
1575664619.500177,147282.333,25315,3,GZ,1,100,1.312
1575664619.540139,147316.000,25315,3,GZ,1,100,-0.305
1575664619.577886,147347.800,25336,5,GZ,1,100,0.153
1575664619.615633,147379.600,25336,5,GZ,1,100,0.916
1575664619.653380,147411.400,25336,5,GZ,1,100,-0.397
1575664619.691127,147443.200,25336,5,GZ,1,100,0.031
1575664619.728874,147475.000,25336,5,GZ,1,100,0.122
1575664619.769232,147509.000,25356,3,GZ,1,100,1.282
1575664619.809591,147543.000,25356,3,GZ,1,100,1.404
1575664619.849949,147577.000,25356,3,GZ,1,100,0.244
1575664619.890307,147611.000,25372,2,GZ,1,100,-0.031
1575664619.930666,147645.000,25372,2,GZ,1,100,0.183
1575664619.975772,147683.000,25390,3,GZ,1,100,0.641
1575664620.020878,147721.000,25390,3,GZ,1,100,0.183
1575664620.065985,147759.000,25390,3,GZ,1,100,-0.061
1575664620.106343,147793.000,25409,3,GZ,1,100,0.427
1575664620.146702,147827.000,25409,3,GZ,1,100,0.519
1575664620.187060,147861.000,25409,3,GZ,1,100,0.580
1575664620.224451,147892.500,25427,4,GZ,1,100,-0.549
1575664620.261842,147924.000,25427,4,GZ,1,100,-0.061
1575664620.299232,147955.500,25427,4,GZ,1,100,-0.244
1575664620.336623,147987.000,25427,4,GZ,1,100,2.136
1575664620.376586,148020.667,25445,3,GZ,1,100,-0.488
1575664620.416548,148054.333,25445,3,GZ,1,100,-1.678
1575664620.456511,148088.000,25445,3,GZ,1,100,1.312
1575664620.498056,148123.000,25463,3,GZ,1,100,0.580
1575664620.539602,148158.000,25463,3,GZ,1,100,0.397
1575664620.581147,148193.000,25463,3,GZ,1,100,-0.488
1575664620.622099,148227.500,25481,2,GZ,1,100,0.427
1575664620.663051,148262.000,25481,2,GZ,1,100,0.916
1575664620.706575,148298.667,25498,3,GZ,1,100,0.153
1575664620.750098,148335.333,25498,3,GZ,1,100,1.343
1575664620.793622,148372.000,25498,3,GZ,1,100,0.183
1575664620.832002,148404.333,25516,3,GZ,1,100,0.275
1575664620.870382,148436.667,25516,3,GZ,1,100,0.641
1575664620.908762,148469.000,25516,3,GZ,1,100,0.854
1575664620.947340,148501.500,25534,4,GZ,1,100,1.587
1575664620.985918,148534.000,25534,4,GZ,1,100,0.305
1575664621.024496,148566.500,25534,4,GZ,1,100,0.031
1575664621.063073,148599.000,25534,4,GZ,1,100,0.885
1575664621.104619,148634.000,25551,2,GZ,1,100,1.038
1575664621.146164,148669.000,25551,2,GZ,1,100,0.946
1575664621.186918,148703.333,25569,3,GZ,1,100,-0.305
1575664621.227672,148737.667,25569,3,GZ,1,100,-0.366
1575664621.268426,148772.000,25569,3,GZ,1,100,0.153
1575664621.308784,148806.000,25587,3,GZ,1,100,0.854
1575664621.349143,148840.000,25587,3,GZ,1,100,-0.488
1575664621.389501,148874.000,25587,3,GZ,1,100,-0.488
1575664621.431442,148909.333,25605,3,GZ,1,100,-0.732
1575664621.473383,148944.667,25605,3,GZ,1,100,0.916
1575664621.515324,148980.000,25605,3,GZ,1,100,0.183
1575664621.552122,149011.000,25623,3,GZ,1,100,0.610
1575664621.588919,149042.000,25623,3,GZ,1,100,-0.519
1575664621.625716,149073.000,25623,3,GZ,1,100,-0.488
1575664621.665481,149106.500,25641,4,GZ,1,100,1.160
1575664621.705246,149140.000,25641,4,GZ,1,100,0.458
1575664621.745011,149173.500,25641,4,GZ,1,100,0.702
1575664621.784775,149207.000,25641,4,GZ,1,100,-0.305
1575664621.822166,149238.500,25659,2,GZ,1,100,-1.343
1575664621.859557,149270.000,25659,2,GZ,1,100,0.580
1575664621.899619,149303.750,25677,4,GZ,1,100,0.793
1575664621.939680,149337.500,25677,4,GZ,1,100,0.549
1575664621.979742,149371.250,25677,4,GZ,1,100,-0.397
1575664622.019804,149405.000,25677,4,GZ,1,100,-0.031
1575664622.057788,149437.000,25695,2,GZ,1,100,-0.610
1575664622.095772,149469.000,25695,2,GZ,1,100,0.244
1575664622.136724,149503.500,25713,4,GZ,1,100,0.671
1575664622.177676,149538.000,25713,4,GZ,1,100,0.397
1575664622.218628,149572.500,25713,4,GZ,1,100,0.885
1575664622.259580,149607.000,25713,4,GZ,1,100,0.122
1575664622.300729,149641.667,25731,3,GZ,1,100,-0.793
1575664622.341879,149676.333,25731,3,GZ,1,100,0.671
1575664622.383029,149711.000,25731,3,GZ,1,100,0.458
1575664622.423980,149745.500,25747,2,GZ,1,100,0.977
1575664622.464932,149780.000,25747,2,GZ,1,100,-0.488
1575664622.506873,149815.333,25765,3,GZ,1,100,-1.404
1575664622.548815,149850.667,25765,3,GZ,1,100,1.343
1575664622.590755,149886.000,25765,3,GZ,1,100,-0.183
1575664622.629531,149918.667,25783,3,GZ,1,100,-0.427
1575664622.668307,149951.333,25783,3,GZ,1,100,-0.580
1575664622.707083,149984.000,25783,3,GZ,1,100,1.678
1575664622.749419,150019.667,25801,3,GZ,1,100,1.312
1575664622.791756,150055.333,25801,3,GZ,1,100,-0.183
1575664622.834093,150091.000,25801,3,GZ,1,100,0.336
1575664622.871681,150122.667,25819,3,GZ,1,100,-0.488
1575664622.909270,150154.333,25819,3,GZ,1,100,1.648
1575664622.946859,150186.000,25819,3,GZ,1,100,1.831
1575664622.989591,150222.000,25837,3,GZ,1,100,-0.824
1575664623.032323,150258.000,25837,3,GZ,1,100,-0.732
1575664623.075056,150294.000,25837,3,GZ,1,100,-1.434
1575664623.115810,150328.333,25856,3,GZ,1,100,1.068
1575664623.156564,150362.667,25856,3,GZ,1,100,1.251
1575664623.197318,150397.000,25856,3,GZ,1,100,0.671
1575664623.237280,150430.667,25873,3,GZ,1,100,0.458
1575664623.277243,150464.333,25873,3,GZ,1,100,-2.472
1575664623.317206,150498.000,25873,3,GZ,1,100,0.549
1575664623.358751,150533.000,25891,3,GZ,1,100,2.197
1575664623.400296,150568.000,25891,3,GZ,1,100,1.953
1575664623.441842,150603.000,25891,3,GZ,1,100,-0.916
1575664623.479035,150634.333,25909,3,GZ,1,100,-2.014
1575664623.516228,150665.667,25909,3,GZ,1,100,-0.488
1575664623.553421,150697.000,25909,3,GZ,1,100,1.892
1575664623.591405,150729.000,25925,3,GZ,1,100,3.326
1575664623.629389,150761.000,25925,3,GZ,1,100,0.946
1575664623.667374,150793.000,25925,3,GZ,1,100,0.000
1575664623.712085,150830.667,25943,3,GZ,1,100,0.275
1575664623.756795,150868.333,25943,3,GZ,1,100,-0.031
1575664623.801506,150906.000,25943,3,GZ,1,100,1.038
1575664623.842260,150940.333,25961,3,GZ,1,100,6.348
1575664623.883014,150974.667,25961,3,GZ,1,100,0.946
1575664623.923768,151009.000,25961,3,GZ,1,100,-2.960
1575664623.965313,151044.000,25979,3,GZ,1,100,-0.763
1575664624.006859,151079.000,25979,3,GZ,1,100,2.136
1575664624.048404,151114.000,25979,3,GZ,1,100,3.998
1575664624.086784,151146.333,25998,3,GZ,1,100,6.744
1575664624.125164,151178.667,25998,3,GZ,1,100,16.754
1575664624.163544,151211.000,25998,3,GZ,1,100,23.499
1575664624.201528,151243.000,26016,3,GZ,1,100,37.292
1575664624.239513,151275.000,26016,3,GZ,1,100,42.084
1575664624.277497,151307.000,26016,3,GZ,1,100,28.748
1575664624.318251,151341.333,26034,3,GZ,1,100,20.020
1575664624.359005,151375.667,26034,3,GZ,1,100,16.357
1575664624.399759,151410.000,26034,3,GZ,1,100,10.925
1575664624.444865,151448.000,26051,3,GZ,1,100,3.357
1575664624.489972,151486.000,26051,3,GZ,1,100,-0.244
1575664624.535078,151524.000,26051,3,GZ,1,100,-2.014
1575664624.576623,151559.000,26069,3,GZ,1,100,-0.519
1575664624.618169,151594.000,26069,3,GZ,1,100,2.319
1575664624.659714,151629.000,26069,3,GZ,1,100,-1.770
1575664624.697303,151660.667,26087,3,GZ,1,100,-5.646
1575664624.734892,151692.333,26087,3,GZ,1,100,-0.153
1575664624.772480,151724.000,26087,3,GZ,1,100,-2.197
1575664624.810860,151756.333,26103,3,GZ,1,100,-3.235
1575664624.849240,151788.667,26103,3,GZ,1,100,1.251
1575664624.887620,151821.000,26103,3,GZ,1,100,-0.580
1575664624.926791,151854.000,26121,3,GZ,1,100,0.854
1575664624.965963,151887.000,26121,3,GZ,1,100,-1.373
1575664625.005134,151920.000,26121,3,GZ,1,100,-1.770
1575664625.046679,151955.000,26140,3,GZ,1,100,0.977
1575664625.088225,151990.000,26140,3,GZ,1,100,-2.319
1575664625.129770,152025.000,26140,3,GZ,1,100,-0.977
1575664625.176657,152064.500,26158,2,GZ,1,100,-1.343
1575664625.223544,152104.000,26158,2,GZ,1,100,-0.641
1575664625.262715,152137.000,26176,4,GZ,1,100,-0.916
1575664625.301887,152170.000,26176,4,GZ,1,100,-1.953
1575664625.341058,152203.000,26176,4,GZ,1,100,-0.763
1575664625.380229,152236.000,26176,4,GZ,1,100,-2.930
1575664625.427710,152276.000,26194,2,GZ,1,100,-3.296
1575664625.475190,152316.000,26194,2,GZ,1,100,-2.350
1575664625.513570,152348.333,26211,3,GZ,1,100,-3.113
1575664625.551950,152380.667,26211,3,GZ,1,100,0.061
1575664625.590330,152413.000,26211,3,GZ,1,100,-1.251
1575664625.632588,152448.600,26232,5,GZ,1,100,-3.510
1575664625.674845,152484.200,26232,5,GZ,1,100,6.531
1575664625.717103,152519.800,26232,5,GZ,1,100,-10.925
1575664625.759361,152555.400,26232,5,GZ,1,100,3.418
1575664625.801618,152591.000,26232,5,GZ,1,100,0.763
1575664625.840394,152623.667,26252,3,GZ,1,100,-1.587
1575664625.879169,152656.333,26252,3,GZ,1,100,-0.488
1575664625.917945,152689.000,26252,3,GZ,1,100,-3.632
1575664625.956721,152721.667,26270,3,GZ,1,100,-0.732
1575664625.995496,152754.333,26270,3,GZ,1,100,1.434
1575664626.034272,152787.000,26270,3,GZ,1,100,-0.702
1575664626.071861,152818.667,26289,3,GZ,1,100,-1.190
1575664626.109449,152850.333,26289,3,GZ,1,100,-0.519
1575664626.147038,152882.000,26289,3,GZ,1,100,0.610
1575664626.187396,152916.000,26307,3,GZ,1,100,-2.930
1575664626.227755,152950.000,26307,3,GZ,1,100,-1.129
1575664626.268113,152984.000,26307,3,GZ,1,100,1.465
1575664626.309263,153018.667,26324,3,GZ,1,100,-0.610
1575664626.350412,153053.333,26324,3,GZ,1,100,0.000
1575664626.391562,153088.000,26324,3,GZ,1,100,0.366
1575664626.433107,153123.000,26342,3,GZ,1,100,-1.740
1575664626.474653,153158.000,26342,3,GZ,1,100,-1.801
1575664626.516198,153193.000,26342,3,GZ,1,100,-0.671
1575664626.555370,153226.000,26358,3,GZ,1,100,1.038
1575664626.594541,153259.000,26358,3,GZ,1,100,-0.702
1575664626.633712,153292.000,26358,3,GZ,1,100,-4.364
1575664626.674862,153326.667,26376,3,GZ,1,100,0.519
1575664626.716012,153361.333,26376,3,GZ,1,100,0.427
1575664626.757161,153396.000,26376,3,GZ,1,100,0.641
1575664626.796333,153429.000,26394,3,GZ,1,100,0.519
1575664626.835504,153462.000,26394,3,GZ,1,100,-1.068
1575664626.874675,153495.000,26394,3,GZ,1,100,0.061
1575664626.915825,153529.667,26412,3,GZ,1,100,1.373
1575664626.956975,153564.333,26412,3,GZ,1,100,1.770
1575664626.998124,153599.000,26412,3,GZ,1,100,0.305
1575664627.038483,153633.000,26431,3,GZ,1,100,-0.763
1575664627.078841,153667.000,26431,3,GZ,1,100,-0.916
1575664627.119199,153701.000,26431,3,GZ,1,100,-0.092
1575664627.159558,153735.000,26449,3,GZ,1,100,-1.221
1575664627.199916,153769.000,26449,3,GZ,1,100,-1.282
1575664627.240274,153803.000,26449,3,GZ,1,100,-2.350
1575664627.281424,153837.667,26467,3,GZ,1,100,-3.265
1575664627.322574,153872.333,26467,3,GZ,1,100,-0.519
1575664627.363724,153907.000,26467,3,GZ,1,100,-0.671
1575664627.403686,153940.667,26485,3,GZ,1,100,0.580
1575664627.443649,153974.333,26485,3,GZ,1,100,5.188
1575664627.483612,154008.000,26485,3,GZ,1,100,4.181
1575664627.524563,154042.500,26502,2,GZ,1,100,2.045
1575664627.565515,154077.000,26502,2,GZ,1,100,2.655
1575664627.607060,154112.000,26520,3,GZ,1,100,3.265
1575664627.648606,154147.000,26520,3,GZ,1,100,2.625
1575664627.690151,154182.000,26520,3,GZ,1,100,-0.854
1575664627.731697,154217.000,26536,3,GZ,1,100,0.366
1575664627.773242,154252.000,26536,3,GZ,1,100,3.082
1575664627.814787,154287.000,26536,3,GZ,1,100,3.296
1575664627.852178,154318.500,26554,4,GZ,1,100,4.761
1575664627.889569,154350.000,26554,4,GZ,1,100,6.958
1575664627.926960,154381.500,26554,4,GZ,1,100,3.632
1575664627.964351,154413.000,26554,4,GZ,1,100,-4.303
1575664628.001741,154444.500,26572,2,GZ,1,100,-2.045
1575664628.039132,154476.000,26572,2,GZ,1,100,-0.214
1575664628.084239,154514.000,26591,3,GZ,1,100,-2.594
1575664628.129345,154552.000,26591,3,GZ,1,100,-2.289
1575664628.174451,154590.000,26591,3,GZ,1,100,-0.916
1575664628.215601,154624.667,26609,3,GZ,1,100,-1.770
1575664628.256751,154659.333,26609,3,GZ,1,100,-3.418
1575664628.297900,154694.000,26609,3,GZ,1,100,-1.556
1575664628.339050,154728.667,26627,3,GZ,1,100,-2.014
1575664628.380200,154763.333,26627,3,GZ,1,100,-4.211
1575664628.421350,154798.000,26627,3,GZ,1,100,-0.824
1575664628.458938,154829.667,26645,3,GZ,1,100,-0.305
1575664628.496527,154861.333,26645,3,GZ,1,100,1.587
1575664628.534116,154893.000,26645,3,GZ,1,100,-3.265
1575664628.572693,154925.500,26663,4,GZ,1,100,2.655
1575664628.611271,154958.000,26663,4,GZ,1,100,-4.120
1575664628.649849,154990.500,26663,4,GZ,1,100,1.923
1575664628.688427,155023.000,26663,4,GZ,1,100,2.716
1575664628.728192,155056.500,26680,2,GZ,1,100,-0.824
1575664628.767956,155090.000,26680,2,GZ,1,100,2.441
1575664628.813063,155128.000,26698,3,GZ,1,100,-4.211
1575664628.858169,155166.000,26698,3,GZ,1,100,1.648
1575664628.903276,155204.000,26698,3,GZ,1,100,-0.671
1575664628.940864,155235.667,26716,3,GZ,1,100,0.061
1575664628.978453,155267.333,26716,3,GZ,1,100,1.617
1575664629.016042,155299.000,26716,3,GZ,1,100,1.953
1575664629.058378,155334.667,26733,3,GZ,1,100,0.580
1575664629.100715,155370.333,26733,3,GZ,1,100,2.258
1575664629.143052,155406.000,26733,3,GZ,1,100,1.831
1575664629.183806,155440.333,26751,3,GZ,1,100,2.319
1575664629.224560,155474.667,26751,3,GZ,1,100,2.350
1575664629.265314,155509.000,26751,3,GZ,1,100,0.732
1575664629.307255,155544.333,26769,3,GZ,1,100,-0.275
1575664629.349196,155579.667,26769,3,GZ,1,100,-0.061
1575664629.391137,155615.000,26769,3,GZ,1,100,0.092
1575664629.432287,155649.667,26787,3,GZ,1,100,0.916
1575664629.473436,155684.333,26787,3,GZ,1,100,0.336
1575664629.514586,155719.000,26787,3,GZ,1,100,-0.763
1575664629.560879,155758.000,26805,2,GZ,1,100,-0.092
1575664629.607173,155797.000,26805,2,GZ,1,100,0.183
1575664629.646641,155830.250,26823,4,GZ,1,100,0.458
1575664629.686109,155863.500,26823,4,GZ,1,100,0.397
1575664629.725577,155896.750,26823,4,GZ,1,100,-0.977
1575664629.765045,155930.000,26823,4,GZ,1,100,-1.221
1575664629.803029,155962.000,26840,3,GZ,1,100,1.404
1575664629.841014,155994.000,26840,3,GZ,1,100,1.831
1575664629.878998,156026.000,26840,3,GZ,1,100,-1.892
1575664629.918565,156059.333,26858,3,GZ,1,100,-0.977
1575664629.958132,156092.667,26858,3,GZ,1,100,1.526
1575664629.997699,156126.000,26858,3,GZ,1,100,1.160
1575664630.039244,156161.000,26874,2,GZ,1,100,0.244
1575664630.080790,156196.000,26874,2,GZ,1,100,-1.404
1575664630.121742,156230.500,26893,4,GZ,1,100,-2.380
1575664630.162694,156265.000,26893,4,GZ,1,100,0.549
1575664630.203645,156299.500,26893,4,GZ,1,100,1.404
1575664630.244597,156334.000,26893,4,GZ,1,100,0.214
1575664630.286736,156369.500,26911,2,GZ,1,100,0.885
1575664630.328875,156405.000,26911,2,GZ,1,100,1.434
1575664630.370025,156439.667,26929,3,GZ,1,100,0.031
1575664630.411174,156474.333,26929,3,GZ,1,100,-0.854
1575664630.452324,156509.000,26929,3,GZ,1,100,0.275
1575664630.495848,156545.667,26947,3,GZ,1,100,-0.061
1575664630.539371,156582.333,26947,3,GZ,1,100,-0.061
1575664630.582895,156619.000,26947,3,GZ,1,100,0.732
1575664630.620484,156650.667,26965,3,GZ,1,100,0.732
1575664630.658072,156682.333,26965,3,GZ,1,100,-0.244
1575664630.695661,156714.000,26965,3,GZ,1,100,-0.153
1575664630.735228,156747.333,26983,3,GZ,1,100,0.031
1575664630.774795,156780.667,26983,3,GZ,1,100,0.122
1575664630.814362,156814.000,26983,3,GZ,1,100,0.549
1575664630.854325,156847.667,27001,3,GZ,1,100,0.458
1575664630.894287,156881.333,27001,3,GZ,1,100,1.099
1575664630.934250,156915.000,27001,3,GZ,1,100,-0.244
1575664630.975400,156949.667,27018,3,GZ,1,100,-0.397
1575664631.016549,156984.333,27018,3,GZ,1,100,-0.031
1575664631.057699,157019.000,27018,3,GZ,1,100,0.580
1575664631.098058,157053.000,27037,3,GZ,1,100,0.854
1575664631.138416,157087.000,27037,3,GZ,1,100,0.000
1575664631.178774,157121.000,27037,3,GZ,1,100,-0.519
1575664631.219924,157155.667,27053,3,GZ,1,100,1.923
1575664631.261074,157190.333,27053,3,GZ,1,100,-0.275
1575664631.302223,157225.000,27053,3,GZ,1,100,-0.092
1575664631.340999,157257.667,27071,3,GZ,1,100,1.190
1575664631.379775,157290.333,27071,3,GZ,1,100,0.061
1575664631.418550,157323.000,27071,3,GZ,1,100,0.549
1575664631.459304,157357.333,27089,3,GZ,1,100,-0.488
1575664631.500058,157391.667,27089,3,GZ,1,100,-0.549
1575664631.540812,157426.000,27089,3,GZ,1,100,1.831
1575664631.581962,157460.667,27107,3,GZ,1,100,-0.183
1575664631.623112,157495.333,27107,3,GZ,1,100,0.275
1575664631.664261,157530.000,27107,3,GZ,1,100,0.061
1575664631.703670,157563.200,27128,5,GZ,1,100,-0.122
1575664631.743079,157596.400,27128,5,GZ,1,100,0.000
1575664631.782488,157629.600,27128,5,GZ,1,100,0.702
1575664631.821896,157662.800,27128,5,GZ,1,100,1.099
1575664631.861305,157696.000,27128,5,GZ,1,100,-0.122
1575664631.902850,157731.000,27148,3,GZ,1,100,0.397
1575664631.944396,157766.000,27148,3,GZ,1,100,0.031
1575664631.985941,157801.000,27148,3,GZ,1,100,-0.061
1575664632.026299,157835.000,27164,3,GZ,1,100,0.153
1575664632.066658,157869.000,27164,3,GZ,1,100,0.183
1575664632.107016,157903.000,27164,3,GZ,1,100,-0.031
1575664632.147374,157937.000,27183,3,GZ,1,100,0.031
1575664632.187733,157971.000,27183,3,GZ,1,100,0.854
1575664632.228091,158005.000,27183,3,GZ,1,100,-0.336
1575664632.269241,158039.667,27201,3,GZ,1,100,1.160
1575664632.310390,158074.333,27201,3,GZ,1,100,0.854
1575664632.351540,158109.000,27201,3,GZ,1,100,-0.977
1575664632.389920,158141.333,27219,3,GZ,1,100,-0.885
1575664632.428300,158173.667,27219,3,GZ,1,100,0.763
1575664632.466680,158206.000,27219,3,GZ,1,100,1.221
1575664632.503873,158237.333,27237,3,GZ,1,100,-0.427
1575664632.541066,158268.667,27237,3,GZ,1,100,0.031
1575664632.578259,158300.000,27237,3,GZ,1,100,-0.549
1575664632.624552,158339.000,27255,2,GZ,1,100,1.770
1575664632.670846,158378.000,27255,2,GZ,1,100,0.580
1575664632.707643,158409.000,27273,4,GZ,1,100,-0.610
1575664632.744441,158440.000,27273,4,GZ,1,100,0.793
1575664632.781238,158471.000,27273,4,GZ,1,100,-1.160
1575664632.818035,158502.000,27273,4,GZ,1,100,0.854
1575664632.859976,158537.333,27290,3,GZ,1,100,0.092
1575664632.901917,158572.667,27290,3,GZ,1,100,-0.519
1575664632.943858,158608.000,27290,3,GZ,1,100,0.488
1575664632.982238,158640.333,27308,3,GZ,1,100,0.000
1575664633.020618,158672.667,27308,3,GZ,1,100,0.244
1575664633.058998,158705.000,27308,3,GZ,1,100,-0.946
1575664633.104698,158743.500,27327,2,GZ,1,100,-0.885
1575664633.150398,158782.000,27327,2,GZ,1,100,0.214
1575664633.191943,158817.000,27343,3,GZ,1,100,-0.488
1575664633.233489,158852.000,27343,3,GZ,1,100,0.793
1575664633.275034,158887.000,27343,3,GZ,1,100,1.434
1575664633.316975,158922.333,27361,3,GZ,1,100,-0.122
1575664633.358916,158957.667,27361,3,GZ,1,100,-0.153
1575664633.400857,158993.000,27361,3,GZ,1,100,-0.092
1575664633.442007,159027.667,27379,3,GZ,1,100,-0.153
1575664633.483157,159062.333,27379,3,GZ,1,100,0.366
1575664633.524306,159097.000,27379,3,GZ,1,100,1.404
1575664633.565852,159132.000,27397,3,GZ,1,100,0.244
1575664633.607397,159167.000,27397,3,GZ,1,100,-0.122
1575664633.648942,159202.000,27397,3,GZ,1,100,-0.092
1575664633.686531,159233.667,27415,3,GZ,1,100,-0.092
1575664633.724120,159265.333,27415,3,GZ,1,100,0.702
1575664633.761708,159297.000,27415,3,GZ,1,100,-0.458
1575664633.800484,159329.667,27433,3,GZ,1,100,0.366
1575664633.839260,159362.333,27433,3,GZ,1,100,-0.458
1575664633.878035,159395.000,27433,3,GZ,1,100,0.183
1575664633.919185,159429.667,27451,3,GZ,1,100,1.038
1575664633.960335,159464.333,27451,3,GZ,1,100,0.458
1575664634.001484,159499.000,27451,3,GZ,1,100,-0.122
1575664634.042238,159533.333,27469,3,GZ,1,100,-0.031
1575664634.082993,159567.667,27469,3,GZ,1,100,0.183
1575664634.123746,159602.000,27469,3,GZ,1,100,0.763
1575664634.169249,159640.333,27487,3,GZ,1,100,-0.031
1575664634.214751,159678.667,27487,3,GZ,1,100,-0.458
1575664634.260253,159717.000,27487,3,GZ,1,100,0.275
1575664634.297446,159748.333,27503,3,GZ,1,100,0.275
1575664634.334639,159779.667,27503,3,GZ,1,100,1.007
1575664634.371832,159811.000,27503,3,GZ,1,100,-0.488
1575664634.409816,159843.000,27521,3,GZ,1,100,0.488
1575664634.447800,159875.000,27521,3,GZ,1,100,1.099
1575664634.485785,159907.000,27521,3,GZ,1,100,0.061
1575664634.526539,159941.333,27539,3,GZ,1,100,0.427
1575664634.567293,159975.667,27539,3,GZ,1,100,-0.214
1575664634.608047,160010.000,27539,3,GZ,1,100,0.092
1575664634.648009,160043.667,27557,3,GZ,1,100,1.282
1575664634.687972,160077.333,27557,3,GZ,1,100,-0.061
1575664634.727935,160111.000,27557,3,GZ,1,100,0.092
1575664634.773437,160149.333,27575,3,GZ,1,100,-0.061
1575664634.818939,160187.667,27575,3,GZ,1,100,0.092
1575664634.864441,160226.000,27575,3,GZ,1,100,2.502
1575664634.902821,160258.333,27593,3,GZ,1,100,0.854
1575664634.941201,160290.667,27593,3,GZ,1,100,-0.793
1575664634.979581,160323.000,27593,3,GZ,1,100,0.122
1575664635.017565,160355.000,27611,3,GZ,1,100,-0.214
1575664635.055549,160387.000,27611,3,GZ,1,100,0.580
1575664635.093534,160419.000,27611,3,GZ,1,100,0.519
1575664635.134288,160453.333,27630,3,GZ,1,100,-0.397
1575664635.175042,160487.667,27630,3,GZ,1,100,0.305
1575664635.215796,160522.000,27630,3,GZ,1,100,0.000
1575664635.256946,160556.667,27647,3,GZ,1,100,-0.549
1575664635.298095,160591.333,27647,3,GZ,1,100,-0.275
1575664635.339245,160626.000,27647,3,GZ,1,100,-0.610
1575664635.380790,160661.000,27665,2,GZ,1,100,0.183
1575664635.422336,160696.000,27665,2,GZ,1,100,-0.488
1575664635.463584,160730.750,27681,4,GZ,1,100,-0.549
1575664635.504833,160765.500,27681,4,GZ,1,100,1.312
1575664635.546081,160800.250,27681,4,GZ,1,100,0.641
1575664635.587330,160835.000,27681,4,GZ,1,100,0.854
1575664635.626106,160867.667,27699,3,GZ,1,100,0.916
1575664635.664881,160900.333,27699,3,GZ,1,100,-0.153
1575664635.703657,160933.000,27699,3,GZ,1,100,0.488
1575664635.742828,160966.000,27717,3,GZ,1,100,-0.549
1575664635.782000,160999.000,27717,3,GZ,1,100,0.183
1575664635.821171,161032.000,27717,3,GZ,1,100,0.916
1575664635.862716,161067.000,27735,3,GZ,1,100,1.007
1575664635.904262,161102.000,27735,3,GZ,1,100,-0.610
1575664635.945807,161137.000,27735,3,GZ,1,100,1.282
1575664635.986561,161171.333,27753,3,GZ,1,100,0.763
1575664636.027315,161205.667,27753,3,GZ,1,100,-0.702
1575664636.068069,161240.000,27753,3,GZ,1,100,1.831
1575664636.108428,161274.000,27772,2,GZ,1,100,-0.275
1575664636.148786,161308.000,27772,2,GZ,1,100,0.153
1575664636.189540,161342.333,27790,3,GZ,1,100,0.946
1575664636.230294,161376.667,27790,3,GZ,1,100,-0.763
1575664636.271048,161411.000,27790,3,GZ,1,100,-0.153
1575664636.309329,161443.250,27808,4,GZ,1,100,0.275
1575664636.347610,161475.500,27808,4,GZ,1,100,0.977
1575664636.385891,161507.750,27808,4,GZ,1,100,-0.275
1575664636.424172,161540.000,27808,4,GZ,1,100,-0.214
1575664636.460574,161570.667,27826,3,GZ,1,100,0.641
1575664636.496975,161601.333,27826,3,GZ,1,100,-0.122
1575664636.533377,161632.000,27826,3,GZ,1,100,0.885
1575664636.574131,161666.333,27844,3,GZ,1,100,0.641
1575664636.614885,161700.667,27844,3,GZ,1,100,-0.244
1575664636.655639,161735.000,27844,3,GZ,1,100,0.763
1575664636.690854,161764.667,27861,3,GZ,1,100,0.366
1575664636.726068,161794.333,27861,3,GZ,1,100,0.031
1575664636.761283,161824.000,27861,3,GZ,1,100,0.214
1575664636.802829,161859.000,27879,3,GZ,1,100,0.000
1575664636.844374,161894.000,27879,3,GZ,1,100,-0.031
1575664636.885919,161929.000,27879,3,GZ,1,100,0.336
1575664636.924299,161961.333,27897,3,GZ,1,100,-0.427
1575664636.962679,161993.667,27897,3,GZ,1,100,0.397
1575664637.001059,162026.000,27897,3,GZ,1,100,0.183
1575664637.042209,162060.667,27914,3,GZ,1,100,-1.099
1575664637.083359,162095.333,27914,3,GZ,1,100,-1.770
1575664637.124508,162130.000,27914,3,GZ,1,100,-1.740
1575664637.166054,162165.000,27932,3,GZ,1,100,0.763
1575664637.207599,162200.000,27932,3,GZ,1,100,2.014
1575664637.249144,162235.000,27932,3,GZ,1,100,0.671
1575664637.289503,162269.000,27950,3,GZ,1,100,0.946
1575664637.329861,162303.000,27950,3,GZ,1,100,1.343
1575664637.370219,162337.000,27950,3,GZ,1,100,0.488
1575664637.408204,162369.000,27968,3,GZ,1,100,1.160
1575664637.446188,162401.000,27968,3,GZ,1,100,0.366
1575664637.484172,162433.000,27968,3,GZ,1,100,-0.031
1575664637.524135,162466.667,27986,3,GZ,1,100,0.336
1575664637.564098,162500.333,27986,3,GZ,1,100,0.488
1575664637.604060,162534.000,27986,3,GZ,1,100,-0.610
1575664637.642045,162566.000,28004,3,GZ,1,100,0.061
1575664637.680029,162598.000,28004,3,GZ,1,100,0.092
1575664637.718013,162630.000,28004,3,GZ,1,100,-0.092
1575664637.760033,162665.400,28025,5,GZ,1,100,1.068
1575664637.802054,162700.800,28025,5,GZ,1,100,-1.038
1575664637.844074,162736.200,28025,5,GZ,1,100,-1.343
1575664637.886094,162771.600,28025,5,GZ,1,100,0.702
1575664637.928114,162807.000,28025,5,GZ,1,100,-0.092
1575664637.968868,162841.333,28045,3,GZ,1,100,1.068
1575664638.009622,162875.667,28045,3,GZ,1,100,1.129
1575664638.050376,162910.000,28045,3,GZ,1,100,0.092
1575664638.092515,162945.500,28064,2,GZ,1,100,0.214
1575664638.134654,162981.000,28064,2,GZ,1,100,-0.397
1575664638.172935,163013.250,28082,4,GZ,1,100,1.495
1575664638.211216,163045.500,28082,4,GZ,1,100,0.610
1575664638.249497,163077.750,28082,4,GZ,1,100,0.183
1575664638.287778,163110.000,28082,4,GZ,1,100,0.000
1575664638.326554,163142.667,28100,3,GZ,1,100,-0.946
1575664638.365330,163175.333,28100,3,GZ,1,100,0.244
1575664638.404105,163208.000,28100,3,GZ,1,100,0.092
1575664638.443870,163241.500,28118,2,GZ,1,100,0.305
1575664638.483635,163275.000,28118,2,GZ,1,100,2.014
1575664638.529137,163313.333,28135,3,GZ,1,100,-0.397
1575664638.574639,163351.667,28135,3,GZ,1,100,-0.122
1575664638.620141,163390.000,28135,3,GZ,1,100,0.061
1575664638.661686,163425.000,28153,3,GZ,1,100,0.519
1575664638.703232,163460.000,28153,3,GZ,1,100,0.458
1575664638.744777,163495.000,28153,3,GZ,1,100,0.336
1575664638.783157,163527.333,28171,3,GZ,1,100,0.061
1575664638.821537,163559.667,28171,3,GZ,1,100,-0.305
1575664638.859917,163592.000,28171,3,GZ,1,100,3.113
1575664638.897605,163623.750,28189,4,GZ,1,100,1.587
1575664638.935292,163655.500,28189,4,GZ,1,100,0.214
1575664638.972980,163687.250,28189,4,GZ,1,100,3.296
1575664639.010667,163719.000,28189,4,GZ,1,100,0.580
1575664639.051619,163753.500,28206,2,GZ,1,100,-0.275
1575664639.092571,163788.000,28206,2,GZ,1,100,0.153
1575664639.137677,163826.000,28224,3,GZ,1,100,-1.129
1575664639.182784,163864.000,28224,3,GZ,1,100,0.610
1575664639.227890,163902.000,28224,3,GZ,1,100,-1.556
1575664639.268644,163936.333,28242,3,GZ,1,100,-0.275
1575664639.309398,163970.667,28242,3,GZ,1,100,1.160
1575664639.350152,164005.000,28242,3,GZ,1,100,0.427
1575664639.390115,164038.667,28260,3,GZ,1,100,-0.519
1575664639.430078,164072.333,28260,3,GZ,1,100,0.641
1575664639.470040,164106.000,28260,3,GZ,1,100,0.671
1575664639.506838,164137.000,28278,3,GZ,1,100,-0.397
1575664639.543635,164168.000,28278,3,GZ,1,100,0.610
1575664639.580432,164199.000,28278,3,GZ,1,100,-0.031
1575664639.620395,164232.667,28296,3,GZ,1,100,0.275
1575664639.660358,164266.333,28296,3,GZ,1,100,0.397
1575664639.700320,164300.000,28296,3,GZ,1,100,0.061
1575664639.741074,164334.333,28314,3,GZ,1,100,0.763
1575664639.781828,164368.667,28314,3,GZ,1,100,0.275
1575664639.822582,164403.000,28314,3,GZ,1,100,-0.153
1575664639.867293,164440.667,28331,3,GZ,1,100,1.190
1575664639.912004,164478.333,28331,3,GZ,1,100,-0.305
1575664639.956715,164516.000,28331,3,GZ,1,100,-0.061
1575664639.995886,164549.000,28350,3,GZ,1,100,0.793
1575664640.035057,164582.000,28350,3,GZ,1,100,0.031
1575664640.074229,164615.000,28350,3,GZ,1,100,0.305
1575664640.116565,164650.667,28366,3,GZ,1,100,1.129
1575664640.158902,164686.333,28366,3,GZ,1,100,1.526
1575664640.201239,164722.000,28366,3,GZ,1,100,-0.183
1575664640.238036,164753.000,28384,3,GZ,1,100,-0.427
1575664640.274833,164784.000,28384,3,GZ,1,100,-0.397
1575664640.311630,164815.000,28384,3,GZ,1,100,-0.427
1575664640.356341,164852.667,28402,3,GZ,1,100,1.617
1575664640.401052,164890.333,28402,3,GZ,1,100,-1.129
1575664640.445763,164928.000,28402,3,GZ,1,100,0.427
1575664640.482560,164959.000,28420,3,GZ,1,100,1.953
1575664640.519357,164990.000,28420,3,GZ,1,100,0.214
1575664640.556155,165021.000,28420,3,GZ,1,100,-0.244
1575664640.599678,165057.667,28438,3,GZ,1,100,-0.214
1575664640.643202,165094.333,28438,3,GZ,1,100,0.885
1575664640.686726,165131.000,28438,3,GZ,1,100,0.977
1575664640.724314,165162.667,28456,3,GZ,1,100,-0.183
1575664640.761903,165194.333,28456,3,GZ,1,100,-0.183
1575664640.799492,165226.000,28456,3,GZ,1,100,0.916
1575664640.838267,165258.667,28474,3,GZ,1,100,0.153
1575664640.877043,165291.333,28474,3,GZ,1,100,-0.397
1575664640.915819,165324.000,28474,3,GZ,1,100,0.610
1575664640.956573,165358.333,28492,3,GZ,1,100,-1.312
1575664640.997327,165392.667,28492,3,GZ,1,100,0.153
1575664641.038081,165427.000,28492,3,GZ,1,100,2.136
1575664641.079626,165462.000,28510,3,GZ,1,100,-1.953
1575664641.121171,165497.000,28510,3,GZ,1,100,-1.038
1575664641.162717,165532.000,28510,3,GZ,1,100,1.007
1575664641.204262,165567.000,28526,3,GZ,1,100,0.488
1575664641.245808,165602.000,28526,3,GZ,1,100,-0.397
1575664641.287353,165637.000,28526,3,GZ,1,100,0.397
1575664641.328503,165671.667,28544,3,GZ,1,100,0.336
1575664641.369652,165706.333,28544,3,GZ,1,100,-0.671
1575664641.410802,165741.000,28544,3,GZ,1,100,1.923
1575664641.446017,165770.667,28562,3,GZ,1,100,0.031
1575664641.481231,165800.333,28562,3,GZ,1,100,0.336
1575664641.516446,165830.000,28562,3,GZ,1,100,1.434
1575664641.557595,165864.667,28580,3,GZ,1,100,-0.641
1575664641.598745,165899.333,28580,3,GZ,1,100,1.068
1575664641.639895,165934.000,28580,3,GZ,1,100,-0.305
1575664641.679066,165967.000,28598,3,GZ,1,100,-0.458
1575664641.718238,166000.000,28598,3,GZ,1,100,0.397
1575664641.757409,166033.000,28598,3,GZ,1,100,-0.214
1575664641.797372,166066.667,28616,3,GZ,1,100,-0.183
1575664641.837334,166100.333,28616,3,GZ,1,100,0.183
1575664641.877297,166134.000,28616,3,GZ,1,100,-0.031
1575664641.918447,166168.667,28634,3,GZ,1,100,-0.275
1575664641.959596,166203.333,28634,3,GZ,1,100,1.038
1575664642.000746,166238.000,28634,3,GZ,1,100,0.183
1575664642.041104,166272.000,28653,3,GZ,1,100,0.671
1575664642.081463,166306.000,28653,3,GZ,1,100,0.214
1575664642.121821,166340.000,28653,3,GZ,1,100,-2.716
1575664642.159410,166371.667,28671,3,GZ,1,100,1.617
1575664642.196998,166403.333,28671,3,GZ,1,100,3.113
1575664642.234587,166435.000,28671,3,GZ,1,100,0.244
1575664642.277715,166471.333,28688,3,GZ,1,100,0.031
1575664642.320843,166507.667,28688,3,GZ,1,100,1.038
1575664642.363971,166544.000,28688,3,GZ,1,100,1.282
1575664642.404725,166578.333,28706,3,GZ,1,100,1.312
1575664642.445479,166612.667,28706,3,GZ,1,100,0.336
1575664642.486233,166647.000,28706,3,GZ,1,100,-0.214
1575664642.527383,166681.667,28724,3,GZ,1,100,-0.092
1575664642.568533,166716.333,28724,3,GZ,1,100,-2.441
1575664642.609682,166751.000,28724,3,GZ,1,100,-5.859
1575664642.651228,166786.000,28740,2,GZ,1,100,-0.275
1575664642.692773,166821.000,28740,2,GZ,1,100,4.364
1575664642.731351,166853.500,28758,4,GZ,1,100,1.526
1575664642.769929,166886.000,28758,4,GZ,1,100,3.601
1575664642.808506,166918.500,28758,4,GZ,1,100,1.068
1575664642.847084,166951.000,28758,4,GZ,1,100,-1.129
1575664642.885860,166983.667,28776,3,GZ,1,100,-0.275
1575664642.924636,167016.333,28776,3,GZ,1,100,0.122
1575664642.963411,167049.000,28776,3,GZ,1,100,-0.153
1575664643.009705,167088.000,28795,2,GZ,1,100,0.488
1575664643.055998,167127.000,28795,2,GZ,1,100,0.458
1575664643.096356,167161.000,28813,3,GZ,1,100,-0.732
1575664643.136715,167195.000,28813,3,GZ,1,100,-0.214
1575664643.177073,167229.000,28813,3,GZ,1,100,-0.763
1575664643.218223,167263.667,28831,3,GZ,1,100,-2.686
1575664643.259372,167298.333,28831,3,GZ,1,100,-2.686
1575664643.300522,167333.000,28831,3,GZ,1,100,0.183
1575664643.338902,167365.333,28849,3,GZ,1,100,1.038
1575664643.377282,167397.667,28849,3,GZ,1,100,0.580
1575664643.415662,167430.000,28849,3,GZ,1,100,-0.549
1575664643.453350,167461.750,28867,4,GZ,1,100,-0.305
1575664643.491037,167493.500,28867,4,GZ,1,100,1.007
1575664643.528725,167525.250,28867,4,GZ,1,100,0.336
1575664643.566412,167557.000,28867,4,GZ,1,100,-0.427
1575664643.607364,167591.500,28884,2,GZ,1,100,1.312
1575664643.648316,167626.000,28884,2,GZ,1,100,0.000
1575664643.693027,167663.667,28902,3,GZ,1,100,0.183
1575664643.737738,167701.333,28902,3,GZ,1,100,0.946
1575664643.782448,167739.000,28902,3,GZ,1,100,-0.427
1575664643.824231,167774.200,28923,5,GZ,1,100,0.702
1575664643.866014,167809.400,28923,5,GZ,1,100,4.883
1575664643.907797,167844.600,28923,5,GZ,1,100,2.167
1575664643.949579,167879.800,28923,5,GZ,1,100,-4.486
1575664643.991362,167915.000,28923,5,GZ,1,100,-2.472
1575664644.029742,167947.333,28944,3,GZ,1,100,2.136
1575664644.068122,167979.667,28944,3,GZ,1,100,-0.519
1575664644.106502,168012.000,28944,3,GZ,1,100,-0.275
1575664644.147454,168046.500,28961,2,GZ,1,100,-2.319
1575664644.188406,168081.000,28961,2,GZ,1,100,0.153
1575664644.233512,168119.000,28977,3,GZ,1,100,1.373
1575664644.278619,168157.000,28977,3,GZ,1,100,0.488
1575664644.323725,168195.000,28977,3,GZ,1,100,1.038
1575664644.364083,168229.000,28995,3,GZ,1,100,0.977
1575664644.404442,168263.000,28995,3,GZ,1,100,0.488
1575664644.444800,168297.000,28995,3,GZ,1,100,-0.885
1575664644.482784,168329.000,29013,4,GZ,1,100,-0.458
1575664644.520769,168361.000,29013,4,GZ,1,100,0.427
1575664644.558753,168393.000,29013,4,GZ,1,100,2.197
1575664644.596737,168425.000,29013,4,GZ,1,100,0.702
1575664644.638876,168460.500,29031,2,GZ,1,100,-0.275
1575664644.681015,168496.000,29031,2,GZ,1,100,-0.336
1575664644.719890,168528.750,29049,4,GZ,1,100,0.092
1575664644.758764,168561.500,29049,4,GZ,1,100,0.641
1575664644.797639,168594.250,29049,4,GZ,1,100,1.038
1575664644.836513,168627.000,29049,4,GZ,1,100,0.092
1575664644.877267,168661.333,29067,3,GZ,1,100,0.000
1575664644.918021,168695.667,29067,3,GZ,1,100,0.885
1575664644.958776,168730.000,29067,3,GZ,1,100,-0.122
1575664644.999727,168764.500,29085,2,GZ,1,100,-0.214
1575664645.040679,168799.000,29085,2,GZ,1,100,0.214
1575664645.086181,168837.333,29104,3,GZ,1,100,0.122
1575664645.131683,168875.667,29104,3,GZ,1,100,0.519
1575664645.177185,168914.000,29104,3,GZ,1,100,0.580
1575664645.215565,168946.333,29121,3,GZ,1,100,-0.061
1575664645.253945,168978.667,29121,3,GZ,1,100,-0.061
1575664645.292325,169011.000,29121,3,GZ,1,100,0.946
1575664645.330705,169043.333,29139,3,GZ,1,100,0.122
1575664645.369085,169075.667,29139,3,GZ,1,100,-0.366
1575664645.407465,169108.000,29139,3,GZ,1,100,0.183
1575664645.446637,169141.000,29157,3,GZ,1,100,0.671
1575664645.485808,169174.000,29157,3,GZ,1,100,0.824
1575664645.524979,169207.000,29157,3,GZ,1,100,0.336
1575664645.565338,169241.000,29173,3,GZ,1,100,-0.427
1575664645.605696,169275.000,29173,3,GZ,1,100,0.854
1575664645.646054,169309.000,29173,3,GZ,1,100,0.061
1575664645.687204,169343.667,29191,3,GZ,1,100,0.153
1575664645.728354,169378.333,29191,3,GZ,1,100,1.343
1575664645.769503,169413.000,29191,3,GZ,1,100,0.244
1575664645.812236,169449.000,29209,3,GZ,1,100,0.336
1575664645.854968,169485.000,29209,3,GZ,1,100,0.458
1575664645.897701,169521.000,29209,3,GZ,1,100,0.427
1575664645.935685,169553.000,29227,3,GZ,1,100,1.038
1575664645.973669,169585.000,29227,3,GZ,1,100,1.099
1575664646.011653,169617.000,29227,3,GZ,1,100,3.387
1575664646.051220,169650.333,29246,3,GZ,1,100,0.732
1575664646.090787,169683.667,29246,3,GZ,1,100,0.427
1575664646.130354,169717.000,29246,3,GZ,1,100,-0.153
1575664646.171504,169751.667,29264,3,GZ,1,100,-0.610
1575664646.212654,169786.333,29264,3,GZ,1,100,0.671
1575664646.253803,169821.000,29264,3,GZ,1,100,-0.549
1575664646.294953,169855.667,29282,3,GZ,1,100,0.824
1575664646.336103,169890.333,29282,3,GZ,1,100,-0.732
1575664646.377253,169925.000,29282,3,GZ,1,100,0.824
1575664646.417215,169958.667,29299,3,GZ,1,100,0.580
1575664646.457178,169992.333,29299,3,GZ,1,100,-0.458
1575664646.497141,170026.000,29299,3,GZ,1,100,1.251
1575664646.538686,170061.000,29317,3,GZ,1,100,0.366
1575664646.580231,170096.000,29317,3,GZ,1,100,0.793
1575664646.621777,170131.000,29317,3,GZ,1,100,1.434
1575664646.660948,170164.000,29335,3,GZ,1,100,0.366
1575664646.700119,170197.000,29335,3,GZ,1,100,-0.702
1575664646.739291,170230.000,29335,3,GZ,1,100,-1.709
1575664646.780440,170264.667,29351,3,GZ,1,100,0.977
1575664646.821590,170299.333,29351,3,GZ,1,100,-0.031
1575664646.862740,170334.000,29351,3,GZ,1,100,0.580
1575664646.903098,170368.000,29369,3,GZ,1,100,-0.153
1575664646.943456,170402.000,29369,3,GZ,1,100,-0.702
1575664646.983815,170436.000,29369,3,GZ,1,100,1.068
1575664647.024569,170470.333,29388,3,GZ,1,100,0.305
1575664647.065323,170504.667,29388,3,GZ,1,100,-0.519
1575664647.106077,170539.000,29388,3,GZ,1,100,-0.153
1575664647.143666,170570.667,29406,3,GZ,1,100,0.214
1575664647.181254,170602.333,29406,3,GZ,1,100,1.587
1575664647.218843,170634.000,29406,3,GZ,1,100,1.007
1575664647.261575,170670.000,29424,3,GZ,1,100,0.519
1575664647.304307,170706.000,29424,3,GZ,1,100,-1.495
1575664647.347040,170742.000,29424,3,GZ,1,100,0.244
1575664647.388585,170777.000,29442,3,GZ,1,100,0.702
1575664647.430131,170812.000,29442,3,GZ,1,100,0.336
1575664647.471676,170847.000,29442,3,GZ,1,100,1.465
1575664647.512034,170881.000,29460,3,GZ,1,100,0.732
1575664647.552393,170915.000,29460,3,GZ,1,100,-1.617
1575664647.592751,170949.000,29460,3,GZ,1,100,-2.045
1575664647.630735,170981.000,29477,3,GZ,1,100,1.160
1575664647.668720,171013.000,29477,3,GZ,1,100,2.136
1575664647.706704,171045.000,29477,3,GZ,1,100,0.427
1575664647.752404,171083.500,29495,2,GZ,1,100,-2.014
1575664647.798104,171122.000,29495,2,GZ,1,100,-0.549
1575664647.836088,171154.000,29513,4,GZ,1,100,2.075
1575664647.874073,171186.000,29513,4,GZ,1,100,1.221
1575664647.912057,171218.000,29513,4,GZ,1,100,-0.641
1575664647.950041,171250.000,29513,4,GZ,1,100,-0.488
1575664647.995741,171288.500,29529,2,GZ,1,100,-0.122
1575664648.041441,171327.000,29529,2,GZ,1,100,1.465
1575664648.082591,171361.667,29548,3,GZ,1,100,-0.397
1575664648.123740,171396.333,29548,3,GZ,1,100,-0.061
1575664648.164890,171431.000,29548,3,GZ,1,100,-0.427
1575664648.206435,171466.000,29566,3,GZ,1,100,0.244
1575664648.247981,171501.000,29566,3,GZ,1,100,1.068
1575664648.289526,171536.000,29566,3,GZ,1,100,-0.427
1575664648.328697,171569.000,29584,3,GZ,1,100,0.183
1575664648.367869,171602.000,29584,3,GZ,1,100,-0.366
1575664648.407040,171635.000,29584,3,GZ,1,100,0.366
1575664648.447794,171669.333,29602,3,GZ,1,100,0.488
1575664648.488548,171703.667,29602,3,GZ,1,100,-0.061
1575664648.529302,171738.000,29602,3,GZ,1,100,1.160
1575664648.567682,171770.333,29620,3,GZ,1,100,0.031
1575664648.606062,171802.667,29620,3,GZ,1,100,0.488
1575664648.644442,171835.000,29620,3,GZ,1,100,0.763
1575664648.682031,171866.667,29638,3,GZ,1,100,-0.214
1575664648.719619,171898.333,29638,3,GZ,1,100,1.373
1575664648.757208,171930.000,29638,3,GZ,1,100,-0.336
1575664648.797962,171964.333,29655,3,GZ,1,100,-0.305
1575664648.838716,171998.667,29655,3,GZ,1,100,0.916
1575664648.879470,172033.000,29655,3,GZ,1,100,-0.031
1575664648.924181,172070.667,29673,3,GZ,1,100,-0.122
1575664648.968892,172108.333,29673,3,GZ,1,100,-0.183
1575664649.013602,172146.000,29673,3,GZ,1,100,0.641
1575664649.055148,172181.000,29690,3,GZ,1,100,0.610
1575664649.096693,172216.000,29690,3,GZ,1,100,-0.061
1575664649.138238,172251.000,29690,3,GZ,1,100,0.214
1575664649.176618,172283.333,29708,3,GZ,1,100,-0.031
1575664649.214998,172315.667,29708,3,GZ,1,100,1.251
1575664649.253378,172348.000,29708,3,GZ,1,100,-0.336
1575664649.291363,172380.000,29726,3,GZ,1,100,-0.092
1575664649.329347,172412.000,29726,3,GZ,1,100,0.763
1575664649.367331,172444.000,29726,3,GZ,1,100,0.000
1575664649.406898,172477.333,29744,3,GZ,1,100,0.519
1575664649.446465,172510.667,29744,3,GZ,1,100,0.458
1575664649.486032,172544.000,29744,3,GZ,1,100,0.275
1575664649.527578,172579.000,29762,3,GZ,1,100,-0.061
1575664649.569123,172614.000,29762,3,GZ,1,100,0.183
1575664649.610668,172649.000,29762,3,GZ,1,100,0.275
1575664649.655775,172687.000,29780,3,GZ,1,100,0.488
1575664649.700881,172725.000,29780,3,GZ,1,100,1.343
1575664649.745987,172763.000,29780,3,GZ,1,100,-0.031
1575664649.784763,172795.667,29798,3,GZ,1,100,-0.427
1575664649.823539,172828.333,29798,3,GZ,1,100,0.366
1575664649.862314,172861.000,29798,3,GZ,1,100,0.122
1575664649.900774,172893.400,29819,5,GZ,1,100,0.946
1575664649.939233,172925.800,29819,5,GZ,1,100,0.519
1575664649.977692,172958.200,29819,5,GZ,1,100,-0.092
1575664650.016151,172990.600,29819,5,GZ,1,100,0.183
1575664650.054610,173023.000,29819,5,GZ,1,100,-0.427
1575664650.095760,173057.667,29840,3,GZ,1,100,0.641
1575664650.136909,173092.333,29840,3,GZ,1,100,0.824
1575664650.178059,173127.000,29840,3,GZ,1,100,1.404
1575664650.218813,173161.333,29858,3,GZ,1,100,-0.458
1575664650.259567,173195.667,29858,3,GZ,1,100,-0.702
1575664650.300321,173230.000,29858,3,GZ,1,100,0.671
1575664650.342460,173265.500,29876,2,GZ,1,100,0.305
1575664650.384599,173301.000,29876,2,GZ,1,100,0.122
1575664650.425749,173335.667,29894,3,GZ,1,100,0.763
1575664650.466898,173370.333,29894,3,GZ,1,100,1.862
1575664650.508048,173405.000,29894,3,GZ,1,100,2.655
1575664650.546626,173437.500,29912,4,GZ,1,100,0.031
1575664650.585204,173470.000,29912,4,GZ,1,100,-0.061
1575664650.623782,173502.500,29912,4,GZ,1,100,-0.763
1575664650.662359,173535.000,29912,4,GZ,1,100,-1.953
1575664650.702124,173568.500,29929,2,GZ,1,100,-1.770
1575664650.741889,173602.000,29929,2,GZ,1,100,3.998
1575664650.783039,173636.667,29947,3,GZ,1,100,1.617
1575664650.824188,173671.333,29947,3,GZ,1,100,0.671
1575664650.865338,173706.000,29947,3,GZ,1,100,0.366
1575664650.906092,173740.333,29965,3,GZ,1,100,0.061
1575664650.946846,173774.667,29965,3,GZ,1,100,0.641
1575664650.987600,173809.000,29965,3,GZ,1,100,0.092
1575664651.029145,173844.000,29982,3,GZ,1,100,1.404
1575664651.070691,173879.000,29982,3,GZ,1,100,1.282
1575664651.112236,173914.000,29982,3,GZ,1,100,-0.366
1575664651.153782,173949.000,30000,3,GZ,1,100,-0.214
1575664651.195327,173984.000,30000,3,GZ,1,100,0.458
1575664651.236872,174019.000,30000,3,GZ,1,100,1.160
1575664651.278022,174053.667,30018,3,GZ,1,100,0.458
1575664651.319172,174088.333,30018,3,GZ,1,100,1.923
1575664651.360321,174123.000,30018,3,GZ,1,100,0.458
1575664651.399888,174156.333,30036,3,GZ,1,100,0.275
1575664651.439456,174189.667,30036,3,GZ,1,100,0.580
1575664651.479023,174223.000,30036,3,GZ,1,100,0.702
1575664651.517007,174255.000,30054,3,GZ,1,100,1.282
1575664651.554991,174287.000,30054,3,GZ,1,100,-0.275
1575664651.592975,174319.000,30054,3,GZ,1,100,0.824
1575664651.629179,174349.500,30072,4,GZ,1,100,0.275
1575664651.665383,174380.000,30072,4,GZ,1,100,2.441
1575664651.701587,174410.500,30072,4,GZ,1,100,1.312
1575664651.737791,174441.000,30072,4,GZ,1,100,0.732
1575664651.780523,174477.000,30090,2,GZ,1,100,1.099
1575664651.823255,174513.000,30090,2,GZ,1,100,0.885
1575664651.862723,174546.250,30108,4,GZ,1,100,-0.610
1575664651.902192,174579.500,30108,4,GZ,1,100,0.580
1575664651.941660,174612.750,30108,4,GZ,1,100,0.092
1575664651.981128,174646.000,30108,4,GZ,1,100,0.488
1575664652.023267,174681.500,30126,2,GZ,1,100,0.214
1575664652.065405,174717.000,30126,2,GZ,1,100,-0.946
1575664652.106159,174751.333,30144,3,GZ,1,100,0.824
1575664652.146914,174785.667,30144,3,GZ,1,100,0.610
1575664652.187667,174820.000,30144,3,GZ,1,100,-0.610
1575664652.227630,174853.667,30160,3,GZ,1,100,0.519
1575664652.267593,174887.333,30160,3,GZ,1,100,-0.580
1575664652.307555,174921.000,30160,3,GZ,1,100,1.251
1575664652.346331,174953.667,30178,3,GZ,1,100,-0.366
1575664652.385107,174986.333,30178,3,GZ,1,100,0.854
1575664652.423882,175019.000,30178,3,GZ,1,100,0.244
1575664652.462460,175051.500,30196,4,GZ,1,100,-0.427
1575664652.501038,175084.000,30196,4,GZ,1,100,0.732
1575664652.539616,175116.500,30196,4,GZ,1,100,0.244
1575664652.578194,175149.000,30196,4,GZ,1,100,0.214
1575664652.616772,175181.500,30214,2,GZ,1,100,-0.641
1575664652.655349,175214.000,30214,2,GZ,1,100,-0.031
1575664652.698082,175250.000,30232,3,GZ,1,100,0.671
1575664652.740814,175286.000,30232,3,GZ,1,100,-1.465
1575664652.783547,175322.000,30232,3,GZ,1,100,0.153
1575664652.824301,175356.333,30250,3,GZ,1,100,0.885
1575664652.865055,175390.667,30250,3,GZ,1,100,-0.549
1575664652.905809,175425.000,30250,3,GZ,1,100,0.336
1575664652.946563,175459.333,30268,3,GZ,1,100,-0.336
1575664652.987317,175493.667,30268,3,GZ,1,100,-2.228
1575664653.028071,175528.000,30268,3,GZ,1,100,-0.397
1575664653.068033,175561.667,30287,3,GZ,1,100,0.244
1575664653.107996,175595.333,30287,3,GZ,1,100,1.099
1575664653.147959,175629.000,30287,3,GZ,1,100,0.763
1575664653.185646,175660.750,30305,4,GZ,1,100,-0.885
1575664653.223334,175692.500,30305,4,GZ,1,100,0.824
1575664653.261021,175724.250,30305,4,GZ,1,100,-0.305
1575664653.298709,175756.000,30305,4,GZ,1,100,-2.014
1575664653.343815,175794.000,30322,2,GZ,1,100,-0.061
1575664653.388922,175832.000,30322,2,GZ,1,100,1.343
1575664653.430467,175867.000,30340,3,GZ,1,100,0.214
1575664653.472013,175902.000,30340,3,GZ,1,100,1.282
1575664653.513558,175937.000,30340,3,GZ,1,100,-0.580
1575664653.554708,175971.667,30356,3,GZ,1,100,-0.580
1575664653.595857,176006.333,30356,3,GZ,1,100,0.458
1575664653.637007,176041.000,30356,3,GZ,1,100,0.183
1575664653.677365,176075.000,30374,3,GZ,1,100,1.007
1575664653.717724,176109.000,30374,3,GZ,1,100,-0.549
1575664653.758082,176143.000,30374,3,GZ,1,100,-0.519
1575664653.795275,176174.333,30392,3,GZ,1,100,-0.031
1575664653.832468,176205.667,30392,3,GZ,1,100,-1.251
1575664653.869661,176237.000,30392,3,GZ,1,100,-0.061
1575664653.909228,176270.333,30410,3,GZ,1,100,1.221
1575664653.948795,176303.667,30410,3,GZ,1,100,-0.580
1575664653.988362,176337.000,30410,3,GZ,1,100,0.458
1575664654.033073,176374.667,30429,3,GZ,1,100,1.801
1575664654.077783,176412.333,30429,3,GZ,1,100,-1.343
1575664654.122494,176450.000,30429,3,GZ,1,100,-0.427
1575664654.164039,176485.000,30447,3,GZ,1,100,0.610
1575664654.205585,176520.000,30447,3,GZ,1,100,-1.129
1575664654.247130,176555.000,30447,3,GZ,1,100,0.824
1575664654.286697,176588.333,30465,3,GZ,1,100,-0.061
1575664654.326264,176621.667,30465,3,GZ,1,100,-1.038
1575664654.365831,176655.000,30465,3,GZ,1,100,0.580
1575664654.403816,176687.000,30483,3,GZ,1,100,1.068
1575664654.441800,176719.000,30483,3,GZ,1,100,-1.221
1575664654.479784,176751.000,30483,3,GZ,1,100,-0.702
1575664654.517768,176783.000,30501,3,GZ,1,100,0.397
1575664654.555753,176815.000,30501,3,GZ,1,100,1.068
1575664654.593737,176847.000,30501,3,GZ,1,100,3.876
1575664654.634887,176881.667,30518,3,GZ,1,100,2.106
1575664654.676037,176916.333,30518,3,GZ,1,100,-3.265
1575664654.717186,176951.000,30518,3,GZ,1,100,-2.472
1575664654.762293,176989.000,30534,3,GZ,1,100,-0.885
1575664654.807399,177027.000,30534,3,GZ,1,100,1.099
1575664654.852505,177065.000,30534,3,GZ,1,100,0.977
1575664654.890490,177097.000,30552,3,GZ,1,100,-0.458
1575664654.928474,177129.000,30552,3,GZ,1,100,0.641
1575664654.966458,177161.000,30552,3,GZ,1,100,0.854
1575664655.008795,177196.667,30571,3,GZ,1,100,2.563
1575664655.051132,177232.333,30571,3,GZ,1,100,1.984
1575664655.093468,177268.000,30571,3,GZ,1,100,2.441
1575664655.134223,177302.333,30589,3,GZ,1,100,2.502
1575664655.174976,177336.667,30589,3,GZ,1,100,0.336
1575664655.215730,177371.000,30589,3,GZ,1,100,0.671
1575664655.262024,177410.000,30607,2,GZ,1,100,1.007
1575664655.308317,177449.000,30607,2,GZ,1,100,-0.183
1575664655.348676,177483.000,30625,3,GZ,1,100,0.824
1575664655.389034,177517.000,30625,3,GZ,1,100,1.038
1575664655.429392,177551.000,30625,3,GZ,1,100,2.899
1575664655.470146,177585.333,30642,3,GZ,1,100,5.493
1575664655.510900,177619.667,30642,3,GZ,1,100,-1.648
1575664655.551654,177654.000,30642,3,GZ,1,100,-3.815
1575664655.590826,177687.000,30660,3,GZ,1,100,-1.404
1575664655.629997,177720.000,30660,3,GZ,1,100,-1.953
1575664655.669168,177753.000,30660,3,GZ,1,100,1.404
1575664655.706757,177784.667,30678,3,GZ,1,100,1.984
1575664655.744346,177816.333,30678,3,GZ,1,100,-1.404
1575664655.781934,177848.000,30678,3,GZ,1,100,-0.946
1575664655.821501,177881.333,30696,3,GZ,1,100,0.305
1575664655.861068,177914.667,30696,3,GZ,1,100,-2.045
1575664655.900635,177948.000,30696,3,GZ,1,100,-3.143
1575664655.941943,177982.800,30717,5,GZ,1,100,-0.885
1575664655.983251,178017.600,30717,5,GZ,1,100,0.153
1575664656.024559,178052.400,30717,5,GZ,1,100,-1.312
1575664656.065867,178087.200,30717,5,GZ,1,100,-0.488
1575664656.107175,178122.000,30717,5,GZ,1,100,1.404
1575664656.151490,178159.333,30737,3,GZ,1,100,0.214
1575664656.195805,178196.667,30737,3,GZ,1,100,0.336
1575664656.240120,178234.000,30737,3,GZ,1,100,1.129
1575664656.278105,178266.000,30755,3,GZ,1,100,1.801
1575664656.316089,178298.000,30755,3,GZ,1,100,1.099
1575664656.354073,178330.000,30755,3,GZ,1,100,-0.732
1575664656.392058,178362.000,30773,3,GZ,1,100,-0.092
1575664656.430042,178394.000,30773,3,GZ,1,100,-0.336
1575664656.468026,178426.000,30773,3,GZ,1,100,-0.458
1575664656.508780,178460.333,30791,3,GZ,1,100,1.556
1575664656.549534,178494.667,30791,3,GZ,1,100,0.000
1575664656.590288,178529.000,30791,3,GZ,1,100,0.702
1575664656.631042,178563.333,30807,3,GZ,1,100,-0.061
1575664656.671796,178597.667,30807,3,GZ,1,100,0.366
1575664656.712550,178632.000,30807,3,GZ,1,100,1.312
1575664656.753304,178666.333,30825,3,GZ,1,100,0.305
1575664656.794058,178700.667,30825,3,GZ,1,100,0.641
1575664656.834812,178735.000,30825,3,GZ,1,100,-0.061
1575664656.876358,178770.000,30843,3,GZ,1,100,1.221
1575664656.917903,178805.000,30843,3,GZ,1,100,0.275
1575664656.959448,178840.000,30843,3,GZ,1,100,-1.190
1575664656.997828,178872.333,30862,3,GZ,1,100,1.312
1575664657.036208,178904.667,30862,3,GZ,1,100,0.397
1575664657.074589,178937.000,30862,3,GZ,1,100,0.946
1575664657.114947,178971.000,30880,3,GZ,1,100,0.214
1575664657.155305,179005.000,30880,3,GZ,1,100,0.031
1575664657.195663,179039.000,30880,3,GZ,1,100,0.671
1575664657.237209,179074.000,30898,3,GZ,1,100,0.061
1575664657.278754,179109.000,30898,3,GZ,1,100,-1.007
1575664657.320300,179144.000,30898,3,GZ,1,100,-0.183
1575664657.361845,179179.000,30916,3,GZ,1,100,0.641
1575664657.403390,179214.000,30916,3,GZ,1,100,-0.885
1575664657.444936,179249.000,30916,3,GZ,1,100,0.610
1575664657.482920,179281.000,30933,3,GZ,1,100,1.312
1575664657.520904,179313.000,30933,3,GZ,1,100,-0.366
1575664657.558889,179345.000,30933,3,GZ,1,100,-0.702
1575664657.600830,179380.333,30951,3,GZ,1,100,1.099
1575664657.642771,179415.667,30951,3,GZ,1,100,0.732
1575664657.684712,179451.000,30951,3,GZ,1,100,1.282
1575664657.724674,179484.667,30969,3,GZ,1,100,-0.519
1575664657.764637,179518.333,30969,3,GZ,1,100,-0.366
1575664657.804600,179552.000,30969,3,GZ,1,100,0.580
1575664657.846145,179587.000,30985,2,GZ,1,100,-0.061
1575664657.887690,179622.000,30985,2,GZ,1,100,-0.244
1575664657.928444,179656.333,31003,3,GZ,1,100,0.427
1575664657.969198,179690.667,31003,3,GZ,1,100,-0.580
1575664658.009953,179725.000,31003,3,GZ,1,100,-0.275
1575664658.049124,179758.000,31022,3,GZ,1,100,-0.092
1575664658.088295,179791.000,31022,3,GZ,1,100,0.000
1575664658.127466,179824.000,31022,3,GZ,1,100,-0.122
1575664658.165451,179856.000,31040,4,GZ,1,100,-0.549
1575664658.203435,179888.000,31040,4,GZ,1,100,1.068
1575664658.241420,179920.000,31040,4,GZ,1,100,0.305
1575664658.279404,179952.000,31040,4,GZ,1,100,-0.275
1575664658.323917,179989.500,31058,2,GZ,1,100,0.458
1575664658.368429,180027.000,31058,2,GZ,1,100,-0.519
1575664658.406711,180059.250,31076,4,GZ,1,100,0.854
1575664658.444992,180091.500,31076,4,GZ,1,100,-0.458
1575664658.483273,180123.750,31076,4,GZ,1,100,1.465
1575664658.521554,180156.000,31076,4,GZ,1,100,3.448
1575664658.567254,180194.500,31094,2,GZ,1,100,-1.038
1575664658.612954,180233.000,31094,2,GZ,1,100,-0.122
1575664658.649751,180264.000,31112,3,GZ,1,100,-1.801
1575664658.686548,180295.000,31112,3,GZ,1,100,-2.197
1575664658.723346,180326.000,31112,3,GZ,1,100,0.977
1575664658.768848,180364.333,31129,3,GZ,1,100,2.045
1575664658.814350,180402.667,31129,3,GZ,1,100,-0.946
1575664658.859852,180441.000,31129,3,GZ,1,100,-0.458
1575664658.895858,180471.333,31147,3,GZ,1,100,1.282
1575664658.931864,180501.667,31147,3,GZ,1,100,-0.153
1575664658.967870,180532.000,31147,3,GZ,1,100,1.862
1575664659.012580,180569.667,31164,3,GZ,1,100,0.916
1575664659.057291,180607.333,31164,3,GZ,1,100,-1.068
1575664659.102002,180645.000,31164,3,GZ,1,100,0.153
1575664659.143152,180679.667,31182,3,GZ,1,100,-1.465
1575664659.184301,180714.333,31182,3,GZ,1,100,-2.686
1575664659.225451,180749.000,31182,3,GZ,1,100,-2.594
1575664659.266601,180783.667,31200,3,GZ,1,100,-0.427
1575664659.307750,180818.333,31200,3,GZ,1,100,2.655
1575664659.348900,180853.000,31200,3,GZ,1,100,-1.129
1575664659.386884,180885.000,31218,3,GZ,1,100,-0.397
1575664659.424869,180917.000,31218,3,GZ,1,100,1.373
1575664659.462853,180949.000,31218,3,GZ,1,100,0.488
1575664659.503211,180983.000,31236,3,GZ,1,100,1.129
1575664659.543570,181017.000,31236,3,GZ,1,100,-0.458
1575664659.583928,181051.000,31236,3,GZ,1,100,1.465
1575664659.621517,181082.667,31254,3,GZ,1,100,1.160
1575664659.659105,181114.333,31254,3,GZ,1,100,-0.610
1575664659.696694,181146.000,31254,3,GZ,1,100,-0.580
1575664659.735865,181179.000,31272,3,GZ,1,100,0.366
1575664659.775037,181212.000,31272,3,GZ,1,100,0.549
1575664659.814208,181245.000,31272,3,GZ,1,100,1.404
1575664659.855753,181280.000,31289,3,GZ,1,100,-0.488
1575664659.897299,181315.000,31289,3,GZ,1,100,-1.343
1575664659.938844,181350.000,31289,3,GZ,1,100,-1.465
1575664659.979994,181384.667,31308,3,GZ,1,100,-0.305
1575664660.021143,181419.333,31308,3,GZ,1,100,1.007
1575664660.062293,181454.000,31308,3,GZ,1,100,1.312
1575664660.106608,181491.333,31324,3,GZ,1,100,-1.038
1575664660.150923,181528.667,31324,3,GZ,1,100,0.183
1575664660.195238,181566.000,31324,3,GZ,1,100,0.305
1575664660.232827,181597.667,31342,3,GZ,1,100,0.153
1575664660.270416,181629.333,31342,3,GZ,1,100,0.885
1575664660.308004,181661.000,31342,3,GZ,1,100,-0.488
1575664660.346780,181693.667,31360,3,GZ,1,100,0.763
1575664660.385556,181726.333,31360,3,GZ,1,100,1.190
1575664660.424331,181759.000,31360,3,GZ,1,100,0.610
1575664660.465877,181794.000,31378,3,GZ,1,100,-0.031
1575664660.507422,181829.000,31378,3,GZ,1,100,-0.549
1575664660.548967,181864.000,31378,3,GZ,1,100,-0.427
1575664660.588930,181897.667,31396,3,GZ,1,100,1.007
1575664660.628893,181931.333,31396,3,GZ,1,100,-0.122
1575664660.668855,181965.000,31396,3,GZ,1,100,-0.305
1575664660.717523,182006.000,31414,2,GZ,1,100,0.763
1575664660.766190,182047.000,31414,2,GZ,1,100,-0.610
1575664660.803581,182078.500,31432,4,GZ,1,100,0.153
1575664660.840972,182110.000,31432,4,GZ,1,100,0.458
1575664660.878363,182141.500,31432,4,GZ,1,100,0.153
1575664660.915753,182173.000,31432,4,GZ,1,100,0.549
1575664660.954529,182205.667,31450,3,GZ,1,100,-1.068
1575664660.993305,182238.333,31450,3,GZ,1,100,-1.892
1575664661.032080,182271.000,31450,3,GZ,1,100,0.000
1575664661.073230,182305.667,31468,3,GZ,1,100,3.662
1575664661.114380,182340.333,31468,3,GZ,1,100,2.319
1575664661.155529,182375.000,31468,3,GZ,1,100,-1.068
1575664661.196284,182409.333,31486,3,GZ,1,100,0.000
1575664661.237037,182443.667,31486,3,GZ,1,100,0.671
1575664661.277792,182478.000,31486,3,GZ,1,100,-0.214
1575664661.318546,182512.333,31504,3,GZ,1,100,0.916
1575664661.359299,182546.667,31504,3,GZ,1,100,1.373
1575664661.400054,182581.000,31504,3,GZ,1,100,0.305
1575664661.442786,182617.000,31520,2,GZ,1,100,1.648
1575664661.485518,182653.000,31520,2,GZ,1,100,-0.336
1575664661.524096,182685.500,31538,4,GZ,1,100,-0.092
1575664661.562674,182718.000,31538,4,GZ,1,100,0.763
1575664661.601252,182750.500,31538,4,GZ,1,100,0.305
1575664661.639830,182783.000,31538,4,GZ,1,100,1.221
1575664661.680188,182817.000,31556,2,GZ,1,100,-0.549
1575664661.720546,182851.000,31556,2,GZ,1,100,0.061
1575664661.761696,182885.667,31574,3,GZ,1,100,1.251
1575664661.802846,182920.333,31574,3,GZ,1,100,0.732
1575664661.843995,182955.000,31574,3,GZ,1,100,0.458
1575664661.884749,182989.333,31592,3,GZ,1,100,0.000
1575664661.925503,183023.667,31592,3,GZ,1,100,0.366
1575664661.966257,183058.000,31592,3,GZ,1,100,0.641
1575664662.006616,183092.000,31614,5,GZ,1,100,0.153
1575664662.046974,183126.000,31614,5,GZ,1,100,0.366
1575664662.087332,183160.000,31614,5,GZ,1,100,0.061
1575664662.127691,183194.000,31614,5,GZ,1,100,0.000
1575664662.168049,183228.000,31614,5,GZ,1,100,0.549
1575664662.204846,183259.000,31632,3,GZ,1,100,0.244
1575664662.241644,183290.000,31632,3,GZ,1,100,0.305
1575664662.278441,183321.000,31632,3,GZ,1,100,-0.610
1575664662.319591,183355.667,31650,3,GZ,1,100,0.244
1575664662.360740,183390.333,31650,3,GZ,1,100,4.395
1575664662.401890,183425.000,31650,3,GZ,1,100,3.876
1575664662.437797,183455.250,31668,4,GZ,1,100,0.000
1575664662.473704,183485.500,31668,4,GZ,1,100,1.190
1575664662.509611,183515.750,31668,4,GZ,1,100,5.127
1575664662.545518,183546.000,31668,4,GZ,1,100,-2.167
1575664662.585481,183579.667,31686,3,GZ,1,100,0.153
1575664662.625444,183613.333,31686,3,GZ,1,100,3.418
1575664662.665406,183647.000,31686,3,GZ,1,100,-0.641
1575664662.706161,183681.333,31704,3,GZ,1,100,-2.197
1575664662.746914,183715.667,31704,3,GZ,1,100,-3.296
1575664662.787668,183750.000,31704,3,GZ,1,100,0.671
1575664662.826840,183783.000,31722,3,GZ,1,100,1.465
1575664662.866011,183816.000,31722,3,GZ,1,100,-1.465
1575664662.905182,183849.000,31722,3,GZ,1,100,-0.977
1575664662.946134,183883.500,31740,2,GZ,1,100,1.160
1575664662.987086,183918.000,31740,2,GZ,1,100,3.174
1575664663.028236,183952.667,31759,3,GZ,1,100,0.580
1575664663.069386,183987.333,31759,3,GZ,1,100,-2.197
1575664663.110535,184022.000,31759,3,GZ,1,100,-0.793
1575664663.152476,184057.333,31776,3,GZ,1,100,2.350
1575664663.194417,184092.667,31776,3,GZ,1,100,1.404
1575664663.236358,184128.000,31776,3,GZ,1,100,1.373
1575664663.278299,184163.333,31794,3,GZ,1,100,1.709
1575664663.320240,184198.667,31794,3,GZ,1,100,1.038
1575664663.362181,184234.000,31794,3,GZ,1,100,1.709
1575664663.402540,184268.000,31810,3,GZ,1,100,3.052
1575664663.442898,184302.000,31810,3,GZ,1,100,2.899
1575664663.483256,184336.000,31810,3,GZ,1,100,1.831
1575664663.521636,184368.333,31828,3,GZ,1,100,-0.305
1575664663.560016,184400.667,31828,3,GZ,1,100,0.641
1575664663.598397,184433.000,31828,3,GZ,1,100,3.906
1575664663.636776,184465.333,31846,3,GZ,1,100,3.754
1575664663.675156,184497.667,31846,3,GZ,1,100,3.357
1575664663.713537,184530.000,31846,3,GZ,1,100,0.061
1575664663.754290,184564.333,31864,3,GZ,1,100,-1.343
1575664663.795044,184598.667,31864,3,GZ,1,100,-0.031
1575664663.835799,184633.000,31864,3,GZ,1,100,0.824
1575664663.880114,184670.333,31882,3,GZ,1,100,0.061
1575664663.924428,184707.667,31882,3,GZ,1,100,1.068
1575664663.968744,184745.000,31882,3,GZ,1,100,1.404
1575664664.009498,184779.333,31901,3,GZ,1,100,-0.427
1575664664.050252,184813.667,31901,3,GZ,1,100,-1.892
1575664664.091006,184848.000,31901,3,GZ,1,100,-5.615
1575664664.128594,184879.667,31919,3,GZ,1,100,-1.740
1575664664.166183,184911.333,31919,3,GZ,1,100,2.594
1575664664.203772,184943.000,31919,3,GZ,1,100,2.167
1575664664.242547,184975.667,31937,3,GZ,1,100,-0.885
1575664664.281323,185008.333,31937,3,GZ,1,100,-0.641
1575664664.320099,185041.000,31937,3,GZ,1,100,-2.563
1575664664.364018,185078.000,31954,3,GZ,1,100,-0.763
1575664664.407937,185115.000,31954,3,GZ,1,100,1.617
1575664664.451857,185152.000,31954,3,GZ,1,100,-0.732
1575664664.493006,185186.667,31972,3,GZ,1,100,0.977
1575664664.534156,185221.333,31972,3,GZ,1,100,0.000
1575664664.575306,185256.000,31972,3,GZ,1,100,-0.854
1575664664.616851,185291.000,31988,3,GZ,1,100,-0.305
1575664664.658396,185326.000,31988,3,GZ,1,100,0.458
1575664664.699942,185361.000,31988,3,GZ,1,100,0.641
1575664664.737530,185392.667,32006,3,GZ,1,100,-1.099
1575664664.775119,185424.333,32006,3,GZ,1,100,-0.305
1575664664.812708,185456.000,32006,3,GZ,1,100,0.610
1575664664.851088,185488.333,32024,3,GZ,1,100,0.183
1575664664.889468,185520.667,32024,3,GZ,1,100,0.885
1575664664.927848,185553.000,32024,3,GZ,1,100,0.580
1575664664.968206,185587.000,32043,3,GZ,1,100,-0.275
1575664665.008564,185621.000,32043,3,GZ,1,100,0.275
1575664665.048923,185655.000,32043,3,GZ,1,100,-0.488
1575664665.091062,185690.500,32061,2,GZ,1,100,0.092
1575664665.133201,185726.000,32061,2,GZ,1,100,1.343
1575664665.176823,185762.750,32079,4,GZ,1,100,0.397
1575664665.220446,185799.500,32079,4,GZ,1,100,-0.183
1575664665.264068,185836.250,32079,4,GZ,1,100,0.183
1575664665.307691,185873.000,32079,4,GZ,1,100,-0.488
1575664665.346071,185905.333,32097,3,GZ,1,100,1.251
1575664665.384451,185937.667,32097,3,GZ,1,100,0.305
1575664665.422831,185970.000,32097,3,GZ,1,100,-0.214
1575664665.459628,186001.000,32115,3,GZ,1,100,0.641
1575664665.496426,186032.000,32115,3,GZ,1,100,1.190
1575664665.533223,186063.000,32115,3,GZ,1,100,0.275
1575664665.573977,186097.333,32133,3,GZ,1,100,-2.350
1575664665.614731,186131.667,32133,3,GZ,1,100,0.244
1575664665.655485,186166.000,32133,3,GZ,1,100,1.465
1575664665.696635,186200.667,32150,3,GZ,1,100,0.061
1575664665.737784,186235.333,32150,3,GZ,1,100,-0.214
1575664665.778934,186270.000,32150,3,GZ,1,100,0.061
1575664665.825821,186309.500,32166,2,GZ,1,100,0.854
1575664665.872708,186349.000,32166,2,GZ,1,100,1.282
1575664665.911879,186382.000,32184,3,GZ,1,100,0.214
1575664665.951051,186415.000,32184,3,GZ,1,100,-0.793
1575664665.990222,186448.000,32184,3,GZ,1,100,0.092
1575664666.031372,186482.667,32203,3,GZ,1,100,0.031
1575664666.072521,186517.333,32203,3,GZ,1,100,1.038
1575664666.113671,186552.000,32203,3,GZ,1,100,0.519
1575664666.150468,186583.000,32221,4,GZ,1,100,0.092
1575664666.187266,186614.000,32221,4,GZ,1,100,-0.305
1575664666.224063,186645.000,32221,4,GZ,1,100,-0.946
1575664666.260860,186676.000,32221,4,GZ,1,100,0.702
1575664666.307154,186715.000,32239,2,GZ,1,100,0.031
1575664666.353447,186754.000,32239,2,GZ,1,100,-0.153
1575664666.390541,186785.250,32257,4,GZ,1,100,0.336
1575664666.427635,186816.500,32257,4,GZ,1,100,-2.838
1575664666.464729,186847.750,32257,4,GZ,1,100,1.068
1575664666.501823,186879.000,32257,4,GZ,1,100,1.648
1575664666.546336,186916.500,32275,2,GZ,1,100,0.427
1575664666.590849,186954.000,32275,2,GZ,1,100,1.678
1575664666.628537,186985.750,32293,4,GZ,1,100,0.397
1575664666.666224,187017.500,32293,4,GZ,1,100,-1.160
1575664666.703912,187049.250,32293,4,GZ,1,100,0.153
1575664666.741599,187081.000,32293,4,GZ,1,100,0.366
1575664666.781166,187114.333,32311,3,GZ,1,100,0.610
1575664666.820733,187147.667,32311,3,GZ,1,100,-1.007
1575664666.860300,187181.000,32311,3,GZ,1,100,0.458
1575664666.901846,187216.000,32328,2,GZ,1,100,0.244
1575664666.943391,187251.000,32328,2,GZ,1,100,-0.793
1575664666.984936,187286.000,32347,3,GZ,1,100,1.221
1575664667.026482,187321.000,32347,3,GZ,1,100,-0.519
1575664667.068027,187356.000,32347,3,GZ,1,100,-0.122
1575664667.109177,187390.667,32363,3,GZ,1,100,0.732
1575664667.150326,187425.333,32363,3,GZ,1,100,-0.397
1575664667.191476,187460.000,32363,3,GZ,1,100,-0.854
1575664667.231835,187494.000,32381,3,GZ,1,100,-0.153
1575664667.272193,187528.000,32381,3,GZ,1,100,0.946
1575664667.312551,187562.000,32381,3,GZ,1,100,0.214
1575664667.352910,187596.000,32399,3,GZ,1,100,1.038
1575664667.393268,187630.000,32399,3,GZ,1,100,-0.153
1575664667.433626,187664.000,32399,3,GZ,1,100,0.488
1575664667.474776,187698.667,32417,3,GZ,1,100,-0.214
1575664667.515926,187733.333,32417,3,GZ,1,100,0.153
1575664667.557076,187768.000,32417,3,GZ,1,100,1.282
1575664667.595851,187800.667,32435,3,GZ,1,100,-0.671
1575664667.634627,187833.333,32435,3,GZ,1,100,0.092
1575664667.673402,187866.000,32435,3,GZ,1,100,0.458
1575664667.713365,187899.667,32453,3,GZ,1,100,-0.702
1575664667.753328,187933.333,32453,3,GZ,1,100,-0.549
1575664667.793290,187967.000,32453,3,GZ,1,100,1.099
1575664667.834440,188001.667,32471,3,GZ,1,100,0.244
1575664667.875590,188036.333,32471,3,GZ,1,100,0.763
1575664667.916739,188071.000,32471,3,GZ,1,100,-0.580
1575664667.956306,188104.333,32489,3,GZ,1,100,0.183
1575664667.995873,188137.667,32489,3,GZ,1,100,1.495
1575664668.035440,188171.000,32489,3,GZ,1,100,-0.336
1575664668.075562,188204.800,32510,5,GZ,1,100,0.732
1575664668.115682,188238.600,32510,5,GZ,1,100,-0.824
1575664668.155803,188272.400,32510,5,GZ,1,100,1.587
1575664668.195924,188306.200,32510,5,GZ,1,100,0.824
1575664668.236045,188340.000,32510,5,GZ,1,100,-0.305
1575664668.276404,188374.000,32530,3,GZ,1,100,0.580
1575664668.316762,188408.000,32530,3,GZ,1,100,-0.275
1575664668.357120,188442.000,32530,3,GZ,1,100,0.214
1575664668.398666,188477.000,32548,3,GZ,1,100,0.488
1575664668.440211,188512.000,32548,3,GZ,1,100,0.092
1575664668.481756,188547.000,32548,3,GZ,1,100,-0.305
1575664668.523302,188582.000,32566,3,GZ,1,100,0.397
1575664668.564847,188617.000,32566,3,GZ,1,100,-0.458
1575664668.606392,188652.000,32566,3,GZ,1,100,-0.122
1575664668.644772,188684.333,32584,3,GZ,1,100,0.427
1575664668.683152,188716.667,32584,3,GZ,1,100,0.305
1575664668.721532,188749.000,32584,3,GZ,1,100,1.648
1575664668.758725,188780.333,32601,3,GZ,1,100,-0.488
1575664668.795918,188811.667,32601,3,GZ,1,100,0.061
1575664668.833111,188843.000,32601,3,GZ,1,100,0.977
1575664668.877031,188880.000,32619,3,GZ,1,100,0.214
1575664668.920950,188917.000,32619,3,GZ,1,100,0.885
1575664668.964869,188954.000,32619,3,GZ,1,100,0.031
1575664669.006019,188988.667,32636,3,GZ,1,100,0.549
1575664669.047169,189023.333,32636,3,GZ,1,100,0.458
1575664669.088319,189058.000,32636,3,GZ,1,100,1.495
1575664669.129864,189093.000,32654,2,GZ,1,100,1.495
1575664669.171409,189128.000,32654,2,GZ,1,100,-1.007
1575664669.210284,189160.750,32672,4,GZ,1,100,0.061
1575664669.249158,189193.500,32672,4,GZ,1,100,0.000
1575664669.288033,189226.250,32672,4,GZ,1,100,0.763
1575664669.326908,189259.000,32672,4,GZ,1,100,0.458
1575664669.364892,189291.000,32690,3,GZ,1,100,0.000
1575664669.402876,189323.000,32690,3,GZ,1,100,0.214
1575664669.440861,189355.000,32690,3,GZ,1,100,1.007
1575664669.480428,189388.333,32708,3,GZ,1,100,0.244
1575664669.519994,189421.667,32708,3,GZ,1,100,-0.702
1575664669.559561,189455.000,32708,3,GZ,1,100,1.587
1575664669.600316,189489.333,32726,3,GZ,1,100,1.099
1575664669.641070,189523.667,32726,3,GZ,1,100,-0.977
1575664669.681824,189558.000,32726,3,GZ,1,100,0.214
1575664669.723369,189593.000,32744,3,GZ,1,100,1.617
1575664669.764914,189628.000,32744,3,GZ,1,100,0.122
1575664669.806460,189663.000,32744,3,GZ,1,100,-0.458
1575664669.852753,189702.000,32762,2,GZ,1,100,-0.214
1575664669.899046,189741.000,32762,2,GZ,1,100,1.160
1575664669.940196,189775.667,32780,3,GZ,1,100,5.249
1575664669.981346,189810.333,32780,3,GZ,1,100,-0.092
1575664670.022496,189845.000,32780,3,GZ,1,100,-1.526
1575664670.064437,189880.333,32798,3,GZ,1,100,0.366
1575664670.106378,189915.667,32798,3,GZ,1,100,1.007
1575664670.148319,189951.000,32798,3,GZ,1,100,-0.305
1575664670.187094,189983.667,32814,3,GZ,1,100,-2.472
1575664670.225870,190016.333,32814,3,GZ,1,100,0.977
1575664670.264646,190049.000,32814,3,GZ,1,100,3.143
1575664670.308961,190086.333,32832,3,GZ,1,100,-2.869
1575664670.353276,190123.667,32832,3,GZ,1,100,-5.219
1575664670.397591,190161.000,32832,3,GZ,1,100,-3.510
1575664670.438740,190195.667,32850,3,GZ,1,100,2.411
1575664670.479890,190230.333,32850,3,GZ,1,100,4.486
1575664670.521040,190265.000,32850,3,GZ,1,100,-2.380
1575664670.559024,190297.000,32868,3,GZ,1,100,-3.998
1575664670.597008,190329.000,32868,3,GZ,1,100,-4.028
1575664670.634993,190361.000,32868,3,GZ,1,100,2.380
1575664670.672977,190393.000,32886,3,GZ,1,100,4.578
1575664670.710962,190425.000,32886,3,GZ,1,100,0.214
1575664670.748946,190457.000,32886,3,GZ,1,100,-2.136
1575664670.789700,190491.333,32904,3,GZ,1,100,-4.150
1575664670.830454,190525.667,32904,3,GZ,1,100,0.000
1575664670.871208,190560.000,32904,3,GZ,1,100,5.585
1575664670.912753,190595.000,32921,2,GZ,1,100,-0.793
1575664670.954298,190630.000,32921,2,GZ,1,100,-1.495
1575664670.996437,190665.500,32940,4,GZ,1,100,0.275
1575664671.038576,190701.000,32940,4,GZ,1,100,0.244
1575664671.080715,190736.500,32940,4,GZ,1,100,0.641
1575664671.122854,190772.000,32940,4,GZ,1,100,0.946
1575664671.164004,190806.667,32956,3,GZ,1,100,-1.404
1575664671.205153,190841.333,32956,3,GZ,1,100,-0.458
1575664671.246303,190876.000,32956,3,GZ,1,100,1.068
1575664671.294377,190916.500,32974,2,GZ,1,100,-0.061
1575664671.342451,190957.000,32974,2,GZ,1,100,0.397
1575664671.379248,190988.000,32992,3,GZ,1,100,0.000
1575664671.416045,191019.000,32992,3,GZ,1,100,0.885
1575664671.452843,191050.000,32992,3,GZ,1,100,1.251
1575664671.491717,191082.750,33010,4,GZ,1,100,0.458
1575664671.530592,191115.500,33010,4,GZ,1,100,0.397
1575664671.569467,191148.250,33010,4,GZ,1,100,-1.282
1575664671.608341,191181.000,33010,4,GZ,1,100,0.183
1575664671.648700,191215.000,33028,2,GZ,1,100,1.373
1575664671.689058,191249.000,33028,2,GZ,1,100,0.336
1575664671.729812,191283.333,33046,3,GZ,1,100,-0.671
1575664671.770566,191317.667,33046,3,GZ,1,100,0.580
1575664671.811320,191352.000,33046,3,GZ,1,100,0.427
1575664671.853261,191387.333,33064,3,GZ,1,100,0.488
1575664671.895202,191422.667,33064,3,GZ,1,100,0.244
1575664671.937143,191458.000,33064,3,GZ,1,100,0.183
1575664671.978688,191493.000,33083,3,GZ,1,100,0.763
1575664672.020234,191528.000,33083,3,GZ,1,100,-0.549
1575664672.061779,191563.000,33083,3,GZ,1,100,0.458
1575664672.099368,191594.667,33100,3,GZ,1,100,-0.244
1575664672.136956,191626.333,33100,3,GZ,1,100,-2.045
1575664672.174545,191658.000,33100,3,GZ,1,100,-0.641
1575664672.215299,191692.333,33118,3,GZ,1,100,0.153
1575664672.256053,191726.667,33118,3,GZ,1,100,0.000
1575664672.296807,191761.000,33118,3,GZ,1,100,2.197
1575664672.337957,191795.667,33134,3,GZ,1,100,1.343
1575664672.379107,191830.333,33134,3,GZ,1,100,0.214
1575664672.420256,191865.000,33134,3,GZ,1,100,0.092
1575664672.461802,191900.000,33152,3,GZ,1,100,0.153
1575664672.503347,191935.000,33152,3,GZ,1,100,0.549
1575664672.544892,191970.000,33152,3,GZ,1,100,0.946
1575664672.586833,192005.333,33170,3,GZ,1,100,0.641
1575664672.628774,192040.667,33170,3,GZ,1,100,-0.244
1575664672.670715,192076.000,33170,3,GZ,1,100,-0.641
1575664672.707908,192107.333,33188,3,GZ,1,100,0.580
1575664672.745101,192138.667,33188,3,GZ,1,100,1.831
1575664672.782294,192170.000,33188,3,GZ,1,100,-0.671
1575664672.822257,192203.667,33206,3,GZ,1,100,0.000
1575664672.862220,192237.333,33206,3,GZ,1,100,-0.244
1575664672.902182,192271.000,33206,3,GZ,1,100,-0.641
1575664672.943332,192305.667,33225,3,GZ,1,100,0.275
1575664672.984482,192340.333,33225,3,GZ,1,100,0.427
1575664673.025631,192375.000,33225,3,GZ,1,100,-0.153
1575664673.066385,192409.333,33243,3,GZ,1,100,-0.427
1575664673.107139,192443.667,33243,3,GZ,1,100,-0.031
1575664673.147893,192478.000,33243,3,GZ,1,100,0.549
1575664673.187460,192511.333,33261,3,GZ,1,100,-0.092
1575664673.227027,192544.667,33261,3,GZ,1,100,-0.610
1575664673.266594,192578.000,33261,3,GZ,1,100,-0.305
1575664673.307744,192612.667,33279,3,GZ,1,100,0.397
1575664673.348894,192647.333,33279,3,GZ,1,100,-0.305
1575664673.390043,192682.000,33279,3,GZ,1,100,-0.488
1575664673.425258,192711.667,33296,3,GZ,1,100,0.977
1575664673.460473,192741.333,33296,3,GZ,1,100,0.397
1575664673.495687,192771.000,33296,3,GZ,1,100,-0.305
1575664673.538024,192806.667,33314,3,GZ,1,100,0.488
1575664673.580361,192842.333,33314,3,GZ,1,100,0.366
1575664673.622697,192878.000,33314,3,GZ,1,100,0.366
1575664673.658011,192907.750,33332,4,GZ,1,100,0.122
1575664673.693325,192937.500,33332,4,GZ,1,100,0.671
1575664673.728638,192967.250,33332,4,GZ,1,100,1.282
1575664673.763952,192997.000,33332,4,GZ,1,100,0.702
1575664673.807277,193033.500,33350,2,GZ,1,100,-0.275
1575664673.850603,193070.000,33350,2,GZ,1,100,-0.122
1575664673.891753,193104.667,33366,3,GZ,1,100,0.397
1575664673.932903,193139.333,33366,3,GZ,1,100,1.953
1575664673.974052,193174.000,33366,3,GZ,1,100,0.671
1575664674.015202,193208.667,33385,3,GZ,1,100,-0.183
1575664674.056352,193243.333,33385,3,GZ,1,100,0.610
1575664674.097502,193278.000,33385,3,GZ,1,100,0.061
1575664674.138572,193312.600,33406,5,GZ,1,100,0.092
1575664674.179643,193347.200,33406,5,GZ,1,100,-0.427
1575664674.220713,193381.800,33406,5,GZ,1,100,1.251
1575664674.261784,193416.400,33406,5,GZ,1,100,-0.427
1575664674.302854,193451.000,33406,5,GZ,1,100,-0.061
1575664674.344795,193486.333,33424,3,GZ,1,100,0.854
1575664674.386736,193521.667,33424,3,GZ,1,100,-0.031
1575664674.428677,193557.000,33424,3,GZ,1,100,1.007
1575664674.466266,193588.667,33442,3,GZ,1,100,0.732
1575664674.503855,193620.333,33442,3,GZ,1,100,1.587
1575664674.541443,193652.000,33442,3,GZ,1,100,0.092
1575664674.579032,193683.667,33460,3,GZ,1,100,-0.854
1575664674.616621,193715.333,33460,3,GZ,1,100,-0.244
1575664674.654209,193747.000,33460,3,GZ,1,100,0.549
1575664674.698129,193784.000,33478,3,GZ,1,100,0.305
1575664674.742048,193821.000,33478,3,GZ,1,100,0.336
1575664674.785967,193858.000,33478,3,GZ,1,100,0.397
1575664674.827117,193892.667,33496,3,GZ,1,100,-0.397
1575664674.868267,193927.333,33496,3,GZ,1,100,0.397
1575664674.909416,193962.000,33496,3,GZ,1,100,0.916
1575664674.950171,193996.333,33515,3,GZ,1,100,0.214
1575664674.990925,194030.667,33515,3,GZ,1,100,0.336
1575664675.031678,194065.000,33515,3,GZ,1,100,-0.305
1575664675.070850,194098.000,33533,3,GZ,1,100,0.763
1575664675.110021,194131.000,33533,3,GZ,1,100,-0.244
1575664675.149193,194164.000,33533,3,GZ,1,100,0.183
