EpochTimestamp,EmotiBitTimestamp,PacketNumber,DataLength,TypeTag,ProtocolVersion,DataReliability,PG
1575665229.340782,23474.000,3592,7,PG,1,100,12463
1575665229.340782,23474.000,3592,7,PG,1,100,12474
1575665229.340782,23474.000,3592,7,PG,1,100,12465
1575665229.340782,23474.000,3592,7,PG,1,100,12472
1575665229.340782,23474.000,3592,7,PG,1,100,12489
1575665229.340782,23474.000,3592,7,PG,1,100,12491
1575665229.340782,23474.000,3592,7,PG,1,100,12494
1575665229.381635,23508.333,3611,3,PG,1,100,12503
1575665229.422489,23542.667,3611,3,PG,1,100,12504
1575665229.463342,23577.000,3611,3,PG,1,100,12513
1575665229.501816,23609.333,3630,3,PG,1,100,12516
1575665229.540290,23641.667,3630,3,PG,1,100,12526
1575665229.578763,23674.000,3630,3,PG,1,100,12521
1575665229.618824,23707.667,3648,3,PG,1,100,12528
1575665229.658884,23741.333,3648,3,PG,1,100,12525
1575665229.698944,23775.000,3648,3,PG,1,100,12538
1575665229.740591,23810.000,3665,3,PG,1,100,12552
1575665229.782237,23845.000,3665,3,PG,1,100,12565
1575665229.823884,23880.000,3665,3,PG,1,100,12585
1575665229.864738,23914.333,3684,3,PG,1,100,12583
1575665229.905591,23948.667,3684,3,PG,1,100,12560
1575665229.946445,23983.000,3684,3,PG,1,100,12576
1575665229.986505,24016.667,3700,3,PG,1,100,12561
1575665230.026565,24050.333,3700,3,PG,1,100,12566
1575665230.066625,24084.000,3700,3,PG,1,100,12557
1575665230.104306,24115.667,3718,3,PG,1,100,12560
1575665230.141986,24147.333,3718,3,PG,1,100,12561
1575665230.179666,24179.000,3718,3,PG,1,100,12561
1575665230.218636,24211.750,3736,4,PG,1,100,12556
1575665230.257605,24244.500,3736,4,PG,1,100,12554
1575665230.296575,24277.250,3736,4,PG,1,100,12547
1575665230.335544,24310.000,3736,4,PG,1,100,12551
1575665230.377191,24345.000,3754,2,PG,1,100,12546
1575665230.418838,24380.000,3754,2,PG,1,100,12556
1575665230.459295,24414.000,3772,3,PG,1,100,12548
1575665230.499751,24448.000,3772,3,PG,1,100,12540
1575665230.540208,24482.000,3772,3,PG,1,100,12513
1575665230.581458,24516.667,3790,3,PG,1,100,12541
1575665230.622709,24551.333,3790,3,PG,1,100,12588
1575665230.663959,24586.000,3790,3,PG,1,100,12602
1575665230.701441,24617.500,3808,4,PG,1,100,12634
1575665230.738923,24649.000,3808,4,PG,1,100,12635
1575665230.776405,24680.500,3808,4,PG,1,100,12582
1575665230.813887,24712.000,3808,4,PG,1,100,12573
1575665230.853550,24745.333,3827,3,PG,1,100,12550
1575665230.893214,24778.667,3827,3,PG,1,100,12601
1575665230.932878,24812.000,3827,3,PG,1,100,12627
1575665230.973335,24846.000,3845,3,PG,1,100,12638
1575665231.013791,24880.000,3845,3,PG,1,100,12681
1575665231.054248,24914.000,3845,3,PG,1,100,12683
1575665231.095895,24949.000,3862,2,PG,1,100,12653
1575665231.137542,24984.000,3862,2,PG,1,100,12606
1575665231.178792,25018.667,3878,3,PG,1,100,12608
1575665231.220042,25053.333,3878,3,PG,1,100,12602
1575665231.261292,25088.000,3878,3,PG,1,100,12604
1575665231.299667,25120.250,3896,4,PG,1,100,12612
1575665231.338041,25152.500,3896,4,PG,1,100,12612
1575665231.376415,25184.750,3896,4,PG,1,100,12609
1575665231.414790,25217.000,3896,4,PG,1,100,12617
1575665231.453660,25249.667,3914,3,PG,1,100,12607
1575665231.492531,25282.333,3914,3,PG,1,100,12607
1575665231.531401,25315.000,3914,3,PG,1,100,12619
1575665231.571461,25348.667,3932,3,PG,1,100,12615
1575665231.611521,25382.333,3932,3,PG,1,100,12624
1575665231.651582,25416.000,3932,3,PG,1,100,12612
1575665231.693228,25451.000,3950,3,PG,1,100,12616
1575665231.734875,25486.000,3950,3,PG,1,100,12619
1575665231.776522,25521.000,3950,3,PG,1,100,12619
1575665231.817574,25555.500,3968,2,PG,1,100,12634
1575665231.858625,25590.000,3968,2,PG,1,100,12654
1575665231.897892,25623.000,3987,4,PG,1,100,12664
1575665231.937159,25656.000,3987,4,PG,1,100,12662
1575665231.976426,25689.000,3987,4,PG,1,100,12654
1575665232.015693,25722.000,3987,4,PG,1,100,12662
1575665232.053374,25753.667,4005,3,PG,1,100,12671
1575665232.091054,25785.333,4005,3,PG,1,100,12662
1575665232.128734,25817.000,4005,3,PG,1,100,12672
1575665232.168398,25850.333,4023,3,PG,1,100,12682
1575665232.208061,25883.667,4023,3,PG,1,100,12683
1575665232.247725,25917.000,4023,3,PG,1,100,12691
1575665232.289372,25952.000,4040,3,PG,1,100,12679
1575665232.331019,25987.000,4040,3,PG,1,100,12678
1575665232.372665,26022.000,4040,3,PG,1,100,12657
1575665232.413915,26056.667,4058,3,PG,1,100,12656
1575665232.455166,26091.333,4058,3,PG,1,100,12664
1575665232.496416,26126.000,4058,3,PG,1,100,12651
1575665232.535286,26158.667,4074,3,PG,1,100,12639
1575665232.574156,26191.333,4074,3,PG,1,100,12652
1575665232.613027,26224.000,4074,3,PG,1,100,12620
1575665232.650707,26255.667,4092,3,PG,1,100,12648
1575665232.688387,26287.333,4092,3,PG,1,100,12678
1575665232.726068,26319.000,4092,3,PG,1,100,12676
1575665232.767318,26353.667,4110,3,PG,1,100,12672
1575665232.808568,26388.333,4110,3,PG,1,100,12654
1575665232.849818,26423.000,4110,3,PG,1,100,12635
1575665232.891465,26458.000,4129,3,PG,1,100,12615
1575665232.933112,26493.000,4129,3,PG,1,100,12581
1575665232.974758,26528.000,4129,3,PG,1,100,12635
1575665233.016008,26562.667,4147,3,PG,1,100,12683
1575665233.057259,26597.333,4147,3,PG,1,100,12700
1575665233.098509,26632.000,4147,3,PG,1,100,12721
1575665233.137379,26664.667,4165,3,PG,1,100,12653
1575665233.176249,26697.333,4165,3,PG,1,100,12655
1575665233.215120,26730.000,4165,3,PG,1,100,12648
1575665233.252800,26761.667,4183,3,PG,1,100,12647
1575665233.290480,26793.333,4183,3,PG,1,100,12662
1575665233.328161,26825.000,4183,3,PG,1,100,12658
1575665233.368221,26858.667,4201,3,PG,1,100,12676
1575665233.408281,26892.333,4201,3,PG,1,100,12684
1575665233.448341,26926.000,4201,3,PG,1,100,12685
1575665233.489988,26961.000,4218,3,PG,1,100,12693
1575665233.531635,26996.000,4218,3,PG,1,100,12715
1575665233.573282,27031.000,4218,3,PG,1,100,12694
1575665233.614532,27065.667,4236,3,PG,1,100,12682
1575665233.655782,27100.333,4236,3,PG,1,100,12684
1575665233.697032,27135.000,4236,3,PG,1,100,12681
1575665233.737092,27168.667,4252,3,PG,1,100,12708
1575665233.777153,27202.333,4252,3,PG,1,100,12718
1575665233.817213,27236.000,4252,3,PG,1,100,12637
1575665233.854893,27267.667,4271,3,PG,1,100,12762
1575665233.892573,27299.333,4271,3,PG,1,100,12787
1575665233.930254,27331.000,4271,3,PG,1,100,12849
1575665233.969124,27363.667,4289,3,PG,1,100,12861
1575665234.007994,27396.333,4289,3,PG,1,100,12864
1575665234.046865,27429.000,4289,3,PG,1,100,12879
1575665234.087718,27463.333,4307,3,PG,1,100,12902
1575665234.128572,27497.667,4307,3,PG,1,100,12899
1575665234.169425,27532.000,4307,3,PG,1,100,12900
1575665234.210675,27566.667,4325,3,PG,1,100,12901
1575665234.251925,27601.333,4325,3,PG,1,100,12911
1575665234.293175,27636.000,4325,3,PG,1,100,12881
1575665234.334029,27670.333,4343,3,PG,1,100,12885
1575665234.374882,27704.667,4343,3,PG,1,100,12892
1575665234.415736,27739.000,4343,3,PG,1,100,12950
1575665234.456589,27773.333,4361,3,PG,1,100,12966
1575665234.497443,27807.667,4361,3,PG,1,100,12989
1575665234.538296,27842.000,4361,3,PG,1,100,12976
1575665234.577563,27875.000,4379,3,PG,1,100,12941
1575665234.616830,27908.000,4379,3,PG,1,100,12925
1575665234.656097,27941.000,4379,3,PG,1,100,12916
1575665234.696951,27975.333,4396,3,PG,1,100,13086
1575665234.737804,28009.667,4396,3,PG,1,100,13195
1575665234.778658,28044.000,4396,3,PG,1,100,13279
1575665234.819908,28078.667,4414,3,PG,1,100,13266
1575665234.861158,28113.333,4414,3,PG,1,100,13277
1575665234.902408,28148.000,4414,3,PG,1,100,13289
1575665234.941278,28180.667,4431,3,PG,1,100,13294
1575665234.980149,28213.333,4431,3,PG,1,100,13299
1575665235.019019,28246.000,4431,3,PG,1,100,13309
1575665235.059872,28280.333,4449,3,PG,1,100,13323
1575665235.100726,28314.667,4449,3,PG,1,100,13329
1575665235.141579,28349.000,4449,3,PG,1,100,13331
1575665235.180450,28381.667,4467,3,PG,1,100,13337
1575665235.219320,28414.333,4467,3,PG,1,100,13320
1575665235.258190,28447.000,4467,3,PG,1,100,13306
1575665235.296267,28479.000,4488,4,PG,1,100,13315
1575665235.334344,28511.000,4488,4,PG,1,100,13304
1575665235.372421,28543.000,4488,4,PG,1,100,13313
1575665235.410498,28575.000,4488,4,PG,1,100,13320
1575665235.454525,28612.000,4508,3,PG,1,100,13331
1575665235.498552,28649.000,4508,3,PG,1,100,13273
1575665235.542578,28686.000,4508,3,PG,1,100,13318
1575665235.583828,28720.667,4525,3,PG,1,100,13383
1575665235.625078,28755.333,4525,3,PG,1,100,13440
1575665235.666328,28790.000,4525,3,PG,1,100,13457
1575665235.704009,28821.667,4542,3,PG,1,100,13469
1575665235.741689,28853.333,4542,3,PG,1,100,13474
1575665235.779370,28885.000,4542,3,PG,1,100,13494
1575665235.818339,28917.750,4561,4,PG,1,100,13479
1575665235.857309,28950.500,4561,4,PG,1,100,13486
1575665235.896278,28983.250,4561,4,PG,1,100,13489
1575665235.935247,29016.000,4561,4,PG,1,100,13496
1575665235.975308,29049.667,4579,3,PG,1,100,13503
1575665236.015368,29083.333,4579,3,PG,1,100,13469
1575665236.055428,29117.000,4579,3,PG,1,100,13452
1575665236.093902,29149.333,4597,3,PG,1,100,13453
1575665236.132375,29181.667,4597,3,PG,1,100,13483
1575665236.170849,29214.000,4597,3,PG,1,100,13478
1575665236.216660,29252.500,4615,2,PG,1,100,13496
1575665236.262472,29291.000,4615,2,PG,1,100,13454
1575665236.298467,29321.250,4633,4,PG,1,100,13394
1575665236.334461,29351.500,4633,4,PG,1,100,13377
1575665236.370456,29381.750,4633,4,PG,1,100,13381
1575665236.406451,29412.000,4633,4,PG,1,100,13400
1575665236.447701,29446.667,4651,3,PG,1,100,13389
1575665236.488951,29481.333,4651,3,PG,1,100,13432
1575665236.530201,29516.000,4651,3,PG,1,100,13380
1575665236.570658,29550.000,4669,3,PG,1,100,13352
1575665236.611115,29584.000,4669,3,PG,1,100,13349
1575665236.651572,29618.000,4669,3,PG,1,100,13333
1575665236.692822,29652.667,4686,3,PG,1,100,13342
1575665236.734072,29687.333,4686,3,PG,1,100,13327
1575665236.775322,29722.000,4686,3,PG,1,100,13327
1575665236.817564,29757.500,4704,2,PG,1,100,13339
1575665236.859805,29793.000,4704,2,PG,1,100,13325
1575665236.896693,29824.000,4721,4,PG,1,100,13327
1575665236.933580,29855.000,4721,4,PG,1,100,13336
1575665236.970467,29886.000,4721,4,PG,1,100,13341
1575665237.007354,29917.000,4721,4,PG,1,100,13327
1575665237.049794,29952.667,4739,3,PG,1,100,13310
1575665237.092234,29988.333,4739,3,PG,1,100,13342
1575665237.134674,30024.000,4739,3,PG,1,100,13342
1575665237.175131,30058.000,4757,3,PG,1,100,13357
1575665237.215588,30092.000,4757,3,PG,1,100,13369
1575665237.256044,30126.000,4757,3,PG,1,100,13352
1575665237.297691,30161.000,4775,2,PG,1,100,13340
1575665237.339338,30196.000,4775,2,PG,1,100,13323
1575665237.380588,30230.667,4793,3,PG,1,100,13290
1575665237.421838,30265.333,4793,3,PG,1,100,13300
1575665237.463088,30300.000,4793,3,PG,1,100,13313
1575665237.501165,30332.000,4811,4,PG,1,100,13286
1575665237.539242,30364.000,4811,4,PG,1,100,13285
1575665237.577319,30396.000,4811,4,PG,1,100,13270
1575665237.615396,30428.000,4811,4,PG,1,100,13270
1575665237.653870,30460.333,4829,3,PG,1,100,13265
1575665237.692344,30492.667,4829,3,PG,1,100,13258
1575665237.730817,30525.000,4829,3,PG,1,100,13255
1575665237.771274,30559.000,4847,3,PG,1,100,13260
1575665237.811731,30593.000,4847,3,PG,1,100,13233
1575665237.852188,30627.000,4847,3,PG,1,100,13256
1575665237.893438,30661.667,4865,3,PG,1,100,13288
1575665237.934688,30696.333,4865,3,PG,1,100,13293
1575665237.975938,30731.000,4865,3,PG,1,100,13310
1575665238.017585,30766.000,4883,2,PG,1,100,13267
1575665238.059232,30801.000,4883,2,PG,1,100,13242
1575665238.099689,30835.000,4899,3,PG,1,100,13184
1575665238.140146,30869.000,4899,3,PG,1,100,13172
1575665238.180602,30903.000,4899,3,PG,1,100,13234
1575665238.218679,30935.000,4917,4,PG,1,100,13251
1575665238.256756,30967.000,4917,4,PG,1,100,13249
1575665238.294833,30999.000,4917,4,PG,1,100,13230
1575665238.332911,31031.000,4917,4,PG,1,100,13195
1575665238.372574,31064.333,4935,3,PG,1,100,13195
1575665238.412238,31097.667,4935,3,PG,1,100,13180
1575665238.451901,31131.000,4935,3,PG,1,100,13174
1575665238.492755,31165.333,4953,3,PG,1,100,13161
1575665238.533608,31199.667,4953,3,PG,1,100,13161
1575665238.574462,31234.000,4953,3,PG,1,100,13162
1575665238.615712,31268.667,4971,3,PG,1,100,13157
1575665238.656962,31303.333,4971,3,PG,1,100,13148
1575665238.698212,31338.000,4971,3,PG,1,100,13145
1575665238.738272,31371.667,4989,3,PG,1,100,13141
1575665238.778332,31405.333,4989,3,PG,1,100,13130
1575665238.818393,31439.000,4989,3,PG,1,100,13129
1575665238.856470,31471.000,5008,3,PG,1,100,13149
1575665238.894547,31503.000,5008,3,PG,1,100,13165
1575665238.932624,31535.000,5008,3,PG,1,100,13164
1575665238.971494,31567.667,5026,3,PG,1,100,13161
1575665239.010364,31600.333,5026,3,PG,1,100,13151
1575665239.049235,31633.000,5026,3,PG,1,100,13138
1575665239.090485,31667.667,5043,3,PG,1,100,13146
1575665239.131735,31702.333,5043,3,PG,1,100,13148
1575665239.172985,31737.000,5043,3,PG,1,100,13157
1575665239.214235,31771.667,5061,3,PG,1,100,13157
1575665239.255485,31806.333,5061,3,PG,1,100,13163
1575665239.296735,31841.000,5061,3,PG,1,100,13161
1575665239.338382,31876.000,5077,2,PG,1,100,13156
1575665239.380029,31911.000,5077,2,PG,1,100,13142
1575665239.418106,31943.000,5095,4,PG,1,100,13163
1575665239.456183,31975.000,5095,4,PG,1,100,13160
1575665239.494260,32007.000,5095,4,PG,1,100,13142
1575665239.532337,32039.000,5095,4,PG,1,100,13140
1575665239.571207,32071.667,5113,3,PG,1,100,13196
1575665239.610077,32104.333,5113,3,PG,1,100,13220
1575665239.648948,32137.000,5113,3,PG,1,100,13227
1575665239.689801,32171.333,5131,3,PG,1,100,13215
1575665239.730655,32205.667,5131,3,PG,1,100,13164
1575665239.771508,32240.000,5131,3,PG,1,100,13158
1575665239.813155,32275.000,5149,3,PG,1,100,13163
1575665239.854802,32310.000,5149,3,PG,1,100,13209
1575665239.896448,32345.000,5149,3,PG,1,100,13225
1575665239.938095,32380.000,5168,2,PG,1,100,13235
1575665239.979742,32415.000,5168,2,PG,1,100,13220
1575665240.018116,32447.250,5186,4,PG,1,100,13184
1575665240.056491,32479.500,5186,4,PG,1,100,13185
1575665240.094866,32511.750,5186,4,PG,1,100,13182
1575665240.133240,32544.000,5186,4,PG,1,100,13188
1575665240.171714,32576.333,5204,3,PG,1,100,13203
1575665240.210187,32608.667,5204,3,PG,1,100,13197
1575665240.248661,32641.000,5204,3,PG,1,100,13198
1575665240.290704,32676.333,5222,3,PG,1,100,13209
1575665240.332748,32711.667,5222,3,PG,1,100,13212
1575665240.374791,32747.000,5222,3,PG,1,100,13216
1575665240.416438,32782.000,5239,3,PG,1,100,13222
1575665240.458085,32817.000,5239,3,PG,1,100,13206
1575665240.499731,32852.000,5239,3,PG,1,100,13213
1575665240.540585,32886.333,5257,3,PG,1,100,13250
1575665240.581438,32920.667,5257,3,PG,1,100,13253
1575665240.622292,32955.000,5257,3,PG,1,100,13259
1575665240.659972,32986.667,5273,3,PG,1,100,13289
1575665240.697653,33018.333,5273,3,PG,1,100,13273
1575665240.735333,33050.000,5273,3,PG,1,100,13274
1575665240.773013,33081.667,5291,3,PG,1,100,13264
1575665240.810694,33113.333,5291,3,PG,1,100,13279
1575665240.848374,33145.000,5291,3,PG,1,100,13285
1575665240.889228,33179.333,5310,3,PG,1,100,13277
1575665240.930081,33213.667,5310,3,PG,1,100,13275
1575665240.970935,33248.000,5310,3,PG,1,100,13287
1575665241.012185,33282.667,5328,3,PG,1,100,13282
1575665241.053435,33317.333,5328,3,PG,1,100,13278
1575665241.094685,33352.000,5328,3,PG,1,100,13278
1575665241.135539,33386.333,5346,3,PG,1,100,13271
1575665241.176392,33420.667,5346,3,PG,1,100,13291
1575665241.217245,33455.000,5346,3,PG,1,100,13263
1575665241.256512,33488.000,5364,3,PG,1,100,13257
1575665241.295779,33521.000,5364,3,PG,1,100,13244
1575665241.335046,33554.000,5364,3,PG,1,100,13288
1575665241.374551,33587.200,5385,5,PG,1,100,13322
1575665241.414056,33620.400,5385,5,PG,1,100,13338
1575665241.453561,33653.600,5385,5,PG,1,100,13347
1575665241.493066,33686.800,5385,5,PG,1,100,13318
1575665241.532571,33720.000,5385,5,PG,1,100,13291
1575665241.571044,33752.333,5405,3,PG,1,100,13315
1575665241.609518,33784.667,5405,3,PG,1,100,13314
1575665241.647992,33817.000,5405,3,PG,1,100,13322
1575665241.687259,33850.000,5423,3,PG,1,100,13323
1575665241.726526,33883.000,5423,3,PG,1,100,13321
1575665241.765793,33916.000,5423,3,PG,1,100,13316
1575665241.807043,33950.667,5441,3,PG,1,100,13333
1575665241.848293,33985.333,5441,3,PG,1,100,13331
1575665241.889543,34020.000,5441,3,PG,1,100,13311
1575665241.930595,34054.500,5460,2,PG,1,100,13298
1575665241.971647,34089.000,5460,2,PG,1,100,13341
1575665242.013690,34124.333,5478,3,PG,1,100,13390
1575665242.055733,34159.667,5478,3,PG,1,100,13405
1575665242.097777,34195.000,5478,3,PG,1,100,13443
1575665242.135556,34226.750,5496,4,PG,1,100,13381
1575665242.173336,34258.500,5496,4,PG,1,100,13355
1575665242.211115,34290.250,5496,4,PG,1,100,13325
1575665242.248895,34322.000,5496,4,PG,1,100,13349
1575665242.288162,34355.000,5513,3,PG,1,100,13401
1575665242.327429,34388.000,5513,3,PG,1,100,13418
1575665242.366696,34421.000,5513,3,PG,1,100,13431
1575665242.407153,34455.000,5531,3,PG,1,100,13409
1575665242.447609,34489.000,5531,3,PG,1,100,13390
1575665242.488066,34523.000,5531,3,PG,1,100,13373
1575665242.528920,34557.333,5548,3,PG,1,100,13374
1575665242.569773,34591.667,5548,3,PG,1,100,13378
1575665242.610627,34626.000,5548,3,PG,1,100,13378
1575665242.652869,34661.500,5565,2,PG,1,100,13369
1575665242.695110,34697.000,5565,2,PG,1,100,13382
1575665242.733187,34729.000,5583,4,PG,1,100,13373
1575665242.771264,34761.000,5583,4,PG,1,100,13357
1575665242.809341,34793.000,5583,4,PG,1,100,13372
1575665242.847418,34825.000,5583,4,PG,1,100,13360
1575665242.886289,34857.667,5602,3,PG,1,100,13342
1575665242.925159,34890.333,5602,3,PG,1,100,13338
1575665242.964029,34923.000,5602,3,PG,1,100,13329
1575665243.004486,34957.000,5620,3,PG,1,100,13331
1575665243.044943,34991.000,5620,3,PG,1,100,13350
1575665243.085400,35025.000,5620,3,PG,1,100,13345
1575665243.126253,35059.333,5638,3,PG,1,100,13344
1575665243.167107,35093.667,5638,3,PG,1,100,13334
1575665243.207960,35128.000,5638,3,PG,1,100,13332
1575665243.250004,35163.333,5656,3,PG,1,100,13312
1575665243.292047,35198.667,5656,3,PG,1,100,13311
1575665243.334090,35234.000,5656,3,PG,1,100,13306
1575665243.371771,35265.667,5674,3,PG,1,100,13310
1575665243.409451,35297.333,5674,3,PG,1,100,13302
1575665243.447131,35329.000,5674,3,PG,1,100,13282
1575665243.485605,35361.333,5691,3,PG,1,100,13275
1575665243.524079,35393.667,5691,3,PG,1,100,13260
1575665243.562552,35426.000,5691,3,PG,1,100,13242
1575665243.603406,35460.333,5709,3,PG,1,100,13235
1575665243.644259,35494.667,5709,3,PG,1,100,13236
1575665243.685113,35529.000,5709,3,PG,1,100,13204
1575665243.725966,35563.333,5727,3,PG,1,100,13192
1575665243.766820,35597.667,5727,3,PG,1,100,13228
1575665243.807673,35632.000,5727,3,PG,1,100,13233
1575665243.855270,35672.000,5744,2,PG,1,100,13231
1575665243.902866,35712.000,5744,2,PG,1,100,13250
1575665243.939753,35743.000,5762,4,PG,1,100,13187
1575665243.976640,35774.000,5762,4,PG,1,100,13162
1575665244.013527,35805.000,5762,4,PG,1,100,13157
1575665244.050415,35836.000,5762,4,PG,1,100,13155
1575665244.088095,35867.667,5780,3,PG,1,100,13199
1575665244.125775,35899.333,5780,3,PG,1,100,13212
1575665244.163456,35931.000,5780,3,PG,1,100,13217
1575665244.204706,35965.667,5798,3,PG,1,100,13197
1575665244.245956,36000.333,5798,3,PG,1,100,13171
1575665244.287206,36035.000,5798,3,PG,1,100,13161
1575665244.328059,36069.333,5816,3,PG,1,100,13152
1575665244.368913,36103.667,5816,3,PG,1,100,13166
1575665244.409766,36138.000,5816,3,PG,1,100,13168
1575665244.451016,36172.667,5834,3,PG,1,100,13168
1575665244.492267,36207.333,5834,3,PG,1,100,13169
1575665244.533517,36242.000,5834,3,PG,1,100,13168
1575665244.571990,36274.333,5852,3,PG,1,100,13175
1575665244.610464,36306.667,5852,3,PG,1,100,13162
1575665244.648938,36339.000,5852,3,PG,1,100,13142
1575665244.686222,36370.333,5869,3,PG,1,100,13126
1575665244.723505,36401.667,5869,3,PG,1,100,13110
1575665244.760789,36433.000,5869,3,PG,1,100,13116
1575665244.805609,36470.667,5888,3,PG,1,100,13121
1575665244.850429,36508.333,5888,3,PG,1,100,13123
1575665244.895249,36546.000,5888,3,PG,1,100,13117
1575665244.929756,36575.000,5906,3,PG,1,100,13103
1575665244.964263,36604.000,5906,3,PG,1,100,13067
1575665244.998770,36633.000,5906,3,PG,1,100,13068
1575665245.039624,36667.333,5924,3,PG,1,100,13067
1575665245.080477,36701.667,5924,3,PG,1,100,13049
1575665245.121331,36736.000,5924,3,PG,1,100,13042
1575665245.162581,36770.667,5940,3,PG,1,100,13053
1575665245.203831,36805.333,5940,3,PG,1,100,13038
1575665245.245081,36840.000,5940,3,PG,1,100,13018
1575665245.286728,36875.000,5958,3,PG,1,100,13012
1575665245.328375,36910.000,5958,3,PG,1,100,13016
1575665245.370022,36945.000,5958,3,PG,1,100,13021
1575665245.409685,36978.333,5976,3,PG,1,100,13033
1575665245.449349,37011.667,5976,3,PG,1,100,13051
1575665245.489012,37045.000,5976,3,PG,1,100,13035
1575665245.526693,37076.667,5994,3,PG,1,100,13027
1575665245.564373,37108.333,5994,3,PG,1,100,13015
1575665245.602053,37140.000,5994,3,PG,1,100,13017
1575665245.642114,37173.667,6012,3,PG,1,100,13021
1575665245.682174,37207.333,6012,3,PG,1,100,13010
1575665245.722234,37241.000,6012,3,PG,1,100,13003
1575665245.763088,37275.333,6030,3,PG,1,100,13017
1575665245.803941,37309.667,6030,3,PG,1,100,12978
1575665245.844795,37344.000,6030,3,PG,1,100,12955
1575665245.886441,37379.000,6049,3,PG,1,100,12937
1575665245.928088,37414.000,6049,3,PG,1,100,12926
1575665245.969735,37449.000,6049,3,PG,1,100,12927
1575665246.010192,37483.000,6066,3,PG,1,100,12891
1575665246.050648,37517.000,6066,3,PG,1,100,12873
1575665246.091105,37551.000,6066,3,PG,1,100,12850
1575665246.132355,37585.667,6084,3,PG,1,100,12888
1575665246.173605,37620.333,6084,3,PG,1,100,12886
1575665246.214856,37655.000,6084,3,PG,1,100,12919
1575665246.253726,37687.667,6101,3,PG,1,100,12854
1575665246.292596,37720.333,6101,3,PG,1,100,12820
1575665246.331466,37753.000,6101,3,PG,1,100,12802
1575665246.371923,37787.000,6118,3,PG,1,100,12795
1575665246.412380,37821.000,6118,3,PG,1,100,12848
1575665246.452837,37855.000,6118,3,PG,1,100,12846
1575665246.493690,37889.333,6136,3,PG,1,100,12862
1575665246.534544,37923.667,6136,3,PG,1,100,12859
1575665246.575397,37958.000,6136,3,PG,1,100,12817
1575665246.615854,37992.000,6154,3,PG,1,100,12796
1575665246.656311,38026.000,6154,3,PG,1,100,12791
1575665246.696768,38060.000,6154,3,PG,1,100,12788
1575665246.734052,38091.333,6172,3,PG,1,100,12789
1575665246.771336,38122.667,6172,3,PG,1,100,12793
1575665246.808619,38154.000,6172,3,PG,1,100,12756
1575665246.847886,38187.000,6191,3,PG,1,100,12729
1575665246.887153,38220.000,6191,3,PG,1,100,12716
1575665246.926420,38253.000,6191,3,PG,1,100,12709
1575665246.967273,38287.333,6209,3,PG,1,100,12697
1575665247.008127,38321.667,6209,3,PG,1,100,12674
1575665247.048980,38356.000,6209,3,PG,1,100,12651
1575665247.090231,38390.667,6227,3,PG,1,100,12632
1575665247.131481,38425.333,6227,3,PG,1,100,12632
1575665247.172731,38460.000,6227,3,PG,1,100,12617
1575665247.214774,38495.333,6244,3,PG,1,100,12615
1575665247.256818,38530.667,6244,3,PG,1,100,12634
1575665247.298861,38566.000,6244,3,PG,1,100,12614
1575665247.336145,38597.333,6262,3,PG,1,100,12602
1575665247.373429,38628.667,6262,3,PG,1,100,12567
1575665247.410712,38660.000,6262,3,PG,1,100,12582
1575665247.449741,38692.800,6283,5,PG,1,100,12577
1575665247.488770,38725.600,6283,5,PG,1,100,12557
1575665247.527799,38758.400,6283,5,PG,1,100,12552
1575665247.566828,38791.200,6283,5,PG,1,100,12560
1575665247.605857,38824.000,6283,5,PG,1,100,12541
1575665247.644727,38856.667,6303,3,PG,1,100,12541
1575665247.683598,38889.333,6303,3,PG,1,100,12538
1575665247.722468,38922.000,6303,3,PG,1,100,12526
1575665247.763321,38956.333,6321,3,PG,1,100,12529
1575665247.804175,38990.667,6321,3,PG,1,100,12527
1575665247.845028,39025.000,6321,3,PG,1,100,12525
1575665247.883502,39057.333,6339,3,PG,1,100,12503
1575665247.921976,39089.667,6339,3,PG,1,100,12481
1575665247.960449,39122.000,6339,3,PG,1,100,12472
1575665248.001700,39156.667,6357,3,PG,1,100,12493
1575665248.042950,39191.333,6357,3,PG,1,100,12475
1575665248.084200,39226.000,6357,3,PG,1,100,12474
1575665248.122277,39258.000,6375,3,PG,1,100,12422
1575665248.160354,39290.000,6375,3,PG,1,100,12382
1575665248.198431,39322.000,6375,3,PG,1,100,12358
1575665248.239284,39356.333,6393,3,PG,1,100,12363
1575665248.280138,39390.667,6393,3,PG,1,100,12352
1575665248.320991,39425.000,6393,3,PG,1,100,12386
1575665248.363828,39461.000,6409,3,PG,1,100,12389
1575665248.406665,39497.000,6409,3,PG,1,100,12387
1575665248.449501,39533.000,6409,3,PG,1,100,12330
1575665248.487975,39565.333,6427,3,PG,1,100,12304
1575665248.526449,39597.667,6427,3,PG,1,100,12296
1575665248.564922,39630.000,6427,3,PG,1,100,12269
1575665248.606569,39665.000,6445,3,PG,1,100,12264
1575665248.648216,39700.000,6445,3,PG,1,100,12307
1575665248.689862,39735.000,6445,3,PG,1,100,12315
1575665248.735079,39773.000,6463,2,PG,1,100,12341
1575665248.780296,39811.000,6463,2,PG,1,100,12290
1575665248.817183,39842.000,6482,4,PG,1,100,12257
1575665248.854070,39873.000,6482,4,PG,1,100,12258
1575665248.890957,39904.000,6482,4,PG,1,100,12253
1575665248.927844,39935.000,6482,4,PG,1,100,12269
1575665248.965921,39967.000,6500,3,PG,1,100,12290
1575665249.003998,39999.000,6500,3,PG,1,100,12278
1575665249.042075,40031.000,6500,3,PG,1,100,12277
1575665249.080152,40063.000,6518,3,PG,1,100,12281
1575665249.118229,40095.000,6518,3,PG,1,100,12274
1575665249.156306,40127.000,6518,3,PG,1,100,12254
1575665249.196763,40161.000,6535,3,PG,1,100,12232
1575665249.237220,40195.000,6535,3,PG,1,100,12236
1575665249.277677,40229.000,6535,3,PG,1,100,12250
1575665249.318530,40263.333,6553,3,PG,1,100,12258
1575665249.359384,40297.667,6553,3,PG,1,100,12224
1575665249.400237,40332.000,6553,3,PG,1,100,12196
1575665249.441884,40367.000,6569,3,PG,1,100,12176
1575665249.483531,40402.000,6569,3,PG,1,100,12149
1575665249.525177,40437.000,6569,3,PG,1,100,12185
1575665249.564841,40470.333,6587,3,PG,1,100,12182
1575665249.604505,40503.667,6587,3,PG,1,100,12213
1575665249.644168,40537.000,6587,3,PG,1,100,12216
1575665249.682245,40569.000,6605,3,PG,1,100,12177
1575665249.720322,40601.000,6605,3,PG,1,100,12150
1575665249.758399,40633.000,6605,3,PG,1,100,12141
1575665249.798063,40666.333,6624,3,PG,1,100,12133
1575665249.837726,40699.667,6624,3,PG,1,100,12143
1575665249.877390,40733.000,6624,3,PG,1,100,12142
1575665249.917450,40766.667,6642,3,PG,1,100,12146
1575665249.957510,40800.333,6642,3,PG,1,100,12152
1575665249.997571,40834.000,6642,3,PG,1,100,12159
1575665250.038821,40868.667,6660,3,PG,1,100,12164
1575665250.080071,40903.333,6660,3,PG,1,100,12166
1575665250.121321,40938.000,6660,3,PG,1,100,12162
1575665250.161778,40972.000,6678,3,PG,1,100,12159
1575665250.202235,41006.000,6678,3,PG,1,100,12150
1575665250.242692,41040.000,6678,3,PG,1,100,12160
1575665250.280372,41071.667,6695,3,PG,1,100,12176
1575665250.318052,41103.333,6695,3,PG,1,100,12190
1575665250.355733,41135.000,6695,3,PG,1,100,12199
1575665250.395000,41168.000,6713,3,PG,1,100,12219
1575665250.434267,41201.000,6713,3,PG,1,100,12206
1575665250.473533,41234.000,6713,3,PG,1,100,12199
1575665250.513990,41268.000,6731,3,PG,1,100,12203
1575665250.554447,41302.000,6731,3,PG,1,100,12174
1575665250.594904,41336.000,6731,3,PG,1,100,12175
1575665250.635757,41370.333,6749,3,PG,1,100,12184
1575665250.676611,41404.667,6749,3,PG,1,100,12167
1575665250.717464,41439.000,6749,3,PG,1,100,12160
1575665250.758714,41473.667,6765,3,PG,1,100,12150
1575665250.799965,41508.333,6765,3,PG,1,100,12144
1575665250.841215,41543.000,6765,3,PG,1,100,12142
1575665250.878895,41574.667,6784,3,PG,1,100,12130
1575665250.916575,41606.333,6784,3,PG,1,100,12135
1575665250.954256,41638.000,6784,3,PG,1,100,12139
1575665250.993523,41671.000,6802,3,PG,1,100,12106
1575665251.032790,41704.000,6802,3,PG,1,100,12115
1575665251.072057,41737.000,6802,3,PG,1,100,12147
1575665251.116083,41774.000,6820,3,PG,1,100,12181
1575665251.160110,41811.000,6820,3,PG,1,100,12195
1575665251.204136,41848.000,6820,3,PG,1,100,12201
1575665251.245387,41882.667,6838,3,PG,1,100,12146
1575665251.286637,41917.333,6838,3,PG,1,100,12133
1575665251.327887,41952.000,6838,3,PG,1,100,12125
1575665251.369534,41987.000,6856,3,PG,1,100,12185
1575665251.411180,42022.000,6856,3,PG,1,100,12220
1575665251.452827,42057.000,6856,3,PG,1,100,12216
1575665251.486938,42085.667,6874,3,PG,1,100,12262
1575665251.521048,42114.333,6874,3,PG,1,100,12212
1575665251.555159,42143.000,6874,3,PG,1,100,12198
1575665251.594426,42176.000,6891,3,PG,1,100,12201
1575665251.633693,42209.000,6891,3,PG,1,100,12207
1575665251.672960,42242.000,6891,3,PG,1,100,12217
1575665251.713020,42275.667,6909,3,PG,1,100,12216
1575665251.753080,42309.333,6909,3,PG,1,100,12234
1575665251.793140,42343.000,6909,3,PG,1,100,12254
1575665251.834787,42378.000,6928,3,PG,1,100,12250
1575665251.876434,42413.000,6928,3,PG,1,100,12274
1575665251.918081,42448.000,6928,3,PG,1,100,12250
1575665251.959331,42482.667,6944,3,PG,1,100,12253
1575665252.000581,42517.333,6944,3,PG,1,100,12247
1575665252.041831,42552.000,6944,3,PG,1,100,12232
1575665252.078718,42583.000,6962,3,PG,1,100,12252
1575665252.115605,42614.000,6962,3,PG,1,100,12253
1575665252.152493,42645.000,6962,3,PG,1,100,12267
1575665252.191363,42677.667,6980,3,PG,1,100,12274
1575665252.230233,42710.333,6980,3,PG,1,100,12268
1575665252.269103,42743.000,6980,3,PG,1,100,12255
1575665252.313527,42780.333,6998,3,PG,1,100,12252
1575665252.357950,42817.667,6998,3,PG,1,100,12239
1575665252.402373,42855.000,6998,3,PG,1,100,12256
1575665252.441243,42887.667,7016,3,PG,1,100,12267
1575665252.480114,42920.333,7016,3,PG,1,100,12257
1575665252.518984,42953.000,7016,3,PG,1,100,12263
1575665252.559441,42987.000,7034,3,PG,1,100,12273
1575665252.599898,43021.000,7034,3,PG,1,100,12253
1575665252.640354,43055.000,7034,3,PG,1,100,12250
1575665252.681605,43089.667,7052,3,PG,1,100,12268
1575665252.722855,43124.333,7052,3,PG,1,100,12295
1575665252.764105,43159.000,7052,3,PG,1,100,12288
1575665252.805752,43194.000,7070,3,PG,1,100,12291
1575665252.847398,43229.000,7070,3,PG,1,100,12327
1575665252.889045,43264.000,7070,3,PG,1,100,12318
1575665252.927122,43296.000,7088,3,PG,1,100,12322
1575665252.965199,43328.000,7088,3,PG,1,100,12321
1575665253.003276,43360.000,7088,3,PG,1,100,12324
1575665253.041353,43392.000,7105,3,PG,1,100,12331
1575665253.079430,43424.000,7105,3,PG,1,100,12330
1575665253.117507,43456.000,7105,3,PG,1,100,12333
1575665253.157171,43489.333,7122,3,PG,1,100,12346
1575665253.196834,43522.667,7122,3,PG,1,100,12350
1575665253.236498,43556.000,7122,3,PG,1,100,12349
1575665253.277748,43590.667,7140,3,PG,1,100,12333
1575665253.318998,43625.333,7140,3,PG,1,100,12337
1575665253.360248,43660.000,7140,3,PG,1,100,12337
1575665253.402292,43695.333,7158,3,PG,1,100,12314
1575665253.444335,43730.667,7158,3,PG,1,100,12310
1575665253.486378,43766.000,7158,3,PG,1,100,12284
1575665253.527728,43800.750,7179,4,PG,1,100,12358
1575665253.569077,43835.500,7179,4,PG,1,100,12368
1575665253.610426,43870.250,7179,4,PG,1,100,12390
1575665253.651776,43905.000,7179,4,PG,1,100,12375
1575665253.690745,43937.750,7199,4,PG,1,100,12321
1575665253.729714,43970.500,7199,4,PG,1,100,12315
1575665253.768684,44003.250,7199,4,PG,1,100,12320
1575665253.807653,44036.000,7199,4,PG,1,100,12332
1575665253.848110,44070.000,7216,3,PG,1,100,12375
1575665253.888567,44104.000,7216,3,PG,1,100,12398
1575665253.929024,44138.000,7216,3,PG,1,100,12411
1575665253.970076,44172.500,7234,2,PG,1,100,12353
1575665254.011127,44207.000,7234,2,PG,1,100,12356
1575665254.052774,44242.000,7252,3,PG,1,100,12359
1575665254.094421,44277.000,7252,3,PG,1,100,12354
1575665254.136068,44312.000,7252,3,PG,1,100,12366
1575665254.174145,44344.000,7270,3,PG,1,100,12388
1575665254.212222,44376.000,7270,3,PG,1,100,12382
1575665254.250299,44408.000,7270,3,PG,1,100,12392
1575665254.288971,44440.500,7288,4,PG,1,100,12397
1575665254.327643,44473.000,7288,4,PG,1,100,12404
1575665254.366315,44505.500,7288,4,PG,1,100,12407
1575665254.404987,44538.000,7288,4,PG,1,100,12417
1575665254.445444,44572.000,7306,3,PG,1,100,12406
1575665254.485900,44606.000,7306,3,PG,1,100,12418
1575665254.526357,44640.000,7306,3,PG,1,100,12429
1575665254.568599,44675.500,7324,2,PG,1,100,12439
1575665254.610841,44711.000,7324,2,PG,1,100,12451
1575665254.652488,44746.000,7341,3,PG,1,100,12460
1575665254.694134,44781.000,7341,3,PG,1,100,12455
1575665254.735781,44816.000,7341,3,PG,1,100,12446
1575665254.775048,44849.000,7359,3,PG,1,100,12420
1575665254.814315,44882.000,7359,3,PG,1,100,12438
1575665254.853582,44915.000,7359,3,PG,1,100,12417
1575665254.891956,44947.250,7378,4,PG,1,100,12420
1575665254.930331,44979.500,7378,4,PG,1,100,12416
1575665254.968705,45011.750,7378,4,PG,1,100,12424
1575665255.007080,45044.000,7378,4,PG,1,100,12414
1575665255.045157,45076.000,7394,3,PG,1,100,12409
1575665255.083234,45108.000,7394,3,PG,1,100,12400
1575665255.121311,45140.000,7394,3,PG,1,100,12396
1575665255.162958,45175.000,7412,3,PG,1,100,12405
1575665255.204604,45210.000,7412,3,PG,1,100,12389
1575665255.246251,45245.000,7412,3,PG,1,100,12395
1575665255.287105,45279.333,7430,3,PG,1,100,12380
1575665255.327958,45313.667,7430,3,PG,1,100,12384
1575665255.368812,45348.000,7430,3,PG,1,100,12442
1575665255.412243,45384.500,7448,2,PG,1,100,12457
1575665255.455675,45421.000,7448,2,PG,1,100,12451
1575665255.492859,45452.250,7466,4,PG,1,100,12428
1575665255.530044,45483.500,7466,4,PG,1,100,12404
1575665255.567229,45514.750,7466,4,PG,1,100,12406
1575665255.604413,45546.000,7466,4,PG,1,100,12435
1575665255.644870,45580.000,7484,3,PG,1,100,12455
1575665255.685327,45614.000,7484,3,PG,1,100,12487
1575665255.725784,45648.000,7484,3,PG,1,100,12499
1575665255.767431,45683.000,7502,3,PG,1,100,12461
1575665255.809077,45718.000,7502,3,PG,1,100,12456
1575665255.850724,45753.000,7502,3,PG,1,100,12451
1575665255.891181,45787.000,7520,2,PG,1,100,12456
1575665255.931638,45821.000,7520,2,PG,1,100,12456
1575665255.973284,45856.000,7538,3,PG,1,100,12478
1575665256.014931,45891.000,7538,3,PG,1,100,12453
1575665256.056578,45926.000,7538,3,PG,1,100,12446
1575665256.094655,45958.000,7556,4,PG,1,100,12436
1575665256.132732,45990.000,7556,4,PG,1,100,12443
1575665256.170809,46022.000,7556,4,PG,1,100,12398
1575665256.208886,46054.000,7556,4,PG,1,100,12412
1575665256.248946,46087.667,7572,3,PG,1,100,12432
1575665256.289006,46121.333,7572,3,PG,1,100,12480
1575665256.329067,46155.000,7572,3,PG,1,100,12421
1575665256.370118,46189.500,7590,2,PG,1,100,12362
1575665256.411170,46224.000,7590,2,PG,1,100,12351
1575665256.449247,46256.000,7608,4,PG,1,100,12339
1575665256.487324,46288.000,7608,4,PG,1,100,12363
1575665256.525401,46320.000,7608,4,PG,1,100,12404
1575665256.563478,46352.000,7608,4,PG,1,100,12393
1575665256.603142,46385.333,7626,3,PG,1,100,12428
1575665256.642806,46418.667,7626,3,PG,1,100,12366
1575665256.682469,46452.000,7626,3,PG,1,100,12337
1575665256.722133,46485.333,7644,3,PG,1,100,12338
1575665256.761796,46518.667,7644,3,PG,1,100,12374
1575665256.801460,46552.000,7644,3,PG,1,100,12404
1575665256.842710,46586.667,7663,3,PG,1,100,12411
1575665256.883960,46621.333,7663,3,PG,1,100,12421
1575665256.925210,46656.000,7663,3,PG,1,100,12410
1575665256.966857,46691.000,7681,3,PG,1,100,12388
1575665257.008504,46726.000,7681,3,PG,1,100,12385
1575665257.050150,46761.000,7681,3,PG,1,100,12386
1575665257.088228,46793.000,7698,3,PG,1,100,12391
1575665257.126304,46825.000,7698,3,PG,1,100,12396
1575665257.164382,46857.000,7698,3,PG,1,100,12406
1575665257.203252,46889.667,7716,3,PG,1,100,12409
1575665257.242122,46922.333,7716,3,PG,1,100,12403
1575665257.280993,46955.000,7716,3,PG,1,100,12411
1575665257.320259,46988.000,7734,3,PG,1,100,12398
1575665257.359526,47021.000,7734,3,PG,1,100,12397
1575665257.398793,47054.000,7734,3,PG,1,100,12382
1575665257.440043,47088.667,7750,3,PG,1,100,12352
1575665257.481293,47123.333,7750,3,PG,1,100,12377
1575665257.522544,47158.000,7750,3,PG,1,100,12373
1575665257.563794,47192.667,7768,3,PG,1,100,12370
1575665257.605044,47227.333,7768,3,PG,1,100,12364
1575665257.646294,47262.000,7768,3,PG,1,100,12366
1575665257.685561,47295.000,7786,3,PG,1,100,12369
1575665257.724828,47328.000,7786,3,PG,1,100,12359
1575665257.764095,47361.000,7786,3,PG,1,100,12337
1575665257.802172,47393.000,7805,3,PG,1,100,12349
1575665257.840249,47425.000,7805,3,PG,1,100,12360
1575665257.878326,47457.000,7805,3,PG,1,100,12345
1575665257.917593,47490.000,7823,3,PG,1,100,12341
1575665257.956860,47523.000,7823,3,PG,1,100,12336
1575665257.996127,47556.000,7823,3,PG,1,100,12336
1575665258.036980,47590.333,7841,3,PG,1,100,12334
1575665258.077834,47624.667,7841,3,PG,1,100,12345
1575665258.118687,47659.000,7841,3,PG,1,100,12332
1575665258.159937,47693.667,7859,3,PG,1,100,12341
1575665258.201187,47728.333,7859,3,PG,1,100,12306
1575665258.242437,47763.000,7859,3,PG,1,100,12339
1575665258.286067,47799.667,7877,3,PG,1,100,12384
1575665258.329697,47836.333,7877,3,PG,1,100,12390
1575665258.373327,47873.000,7877,3,PG,1,100,12397
1575665258.411404,47905.000,7894,3,PG,1,100,12358
1575665258.449481,47937.000,7894,3,PG,1,100,12362
1575665258.487558,47969.000,7894,3,PG,1,100,12359
1575665258.526429,48001.667,7912,3,PG,1,100,12339
1575665258.565299,48034.333,7912,3,PG,1,100,12390
1575665258.604169,48067.000,7912,3,PG,1,100,12402
1575665258.645023,48101.333,7930,3,PG,1,100,12377
1575665258.685876,48135.667,7930,3,PG,1,100,12349
1575665258.726730,48170.000,7930,3,PG,1,100,12324
1575665258.768376,48205.000,7946,3,PG,1,100,12314
1575665258.810023,48240.000,7946,3,PG,1,100,12298
1575665258.851670,48275.000,7946,3,PG,1,100,12296
1575665258.892523,48309.333,7965,3,PG,1,100,12283
1575665258.933377,48343.667,7965,3,PG,1,100,12291
1575665258.974230,48378.000,7965,3,PG,1,100,12306
1575665259.009531,48407.667,7983,3,PG,1,100,12290
1575665259.044832,48437.333,7983,3,PG,1,100,12282
1575665259.080132,48467.000,7983,3,PG,1,100,12283
1575665259.118209,48499.000,8001,3,PG,1,100,12283
1575665259.156286,48531.000,8001,3,PG,1,100,12266
1575665259.194363,48563.000,8001,3,PG,1,100,12269
1575665259.236010,48598.000,8019,3,PG,1,100,12290
1575665259.277657,48633.000,8019,3,PG,1,100,12282
1575665259.319304,48668.000,8019,3,PG,1,100,12302
1575665259.360157,48702.333,8037,3,PG,1,100,12301
1575665259.401011,48736.667,8037,3,PG,1,100,12304
1575665259.441864,48771.000,8037,3,PG,1,100,12290
1575665259.482321,48805.000,8055,3,PG,1,100,12292
1575665259.522778,48839.000,8055,3,PG,1,100,12284
1575665259.563234,48873.000,8055,3,PG,1,100,12298
1575665259.600836,48904.600,8075,5,PG,1,100,12288
1575665259.638437,48936.200,8075,5,PG,1,100,12296
1575665259.676038,48967.800,8075,5,PG,1,100,12285
1575665259.713639,48999.400,8075,5,PG,1,100,12265
1575665259.751240,49031.000,8075,5,PG,1,100,12242
1575665259.791697,49065.000,8096,2,PG,1,100,12230
1575665259.832153,49099.000,8096,2,PG,1,100,12214
1575665259.871718,49132.250,8114,4,PG,1,100,12185
1575665259.911282,49165.500,8114,4,PG,1,100,12173
1575665259.950847,49198.750,8114,4,PG,1,100,12206
1575665259.990411,49232.000,8114,4,PG,1,100,12210
1575665260.032058,49267.000,8132,3,PG,1,100,12189
1575665260.073704,49302.000,8132,3,PG,1,100,12185
1575665260.115351,49337.000,8132,3,PG,1,100,12183
1575665260.156601,49371.667,8150,3,PG,1,100,12192
1575665260.197852,49406.333,8150,3,PG,1,100,12182
1575665260.239102,49441.000,8150,3,PG,1,100,12180
1575665260.281145,49476.333,8167,3,PG,1,100,12168
1575665260.323189,49511.667,8167,3,PG,1,100,12161
1575665260.365232,49547.000,8167,3,PG,1,100,12173
1575665260.404102,49579.667,8185,3,PG,1,100,12147
1575665260.442972,49612.333,8185,3,PG,1,100,12136
1575665260.481843,49645.000,8185,3,PG,1,100,12133
1575665260.523093,49679.667,8203,3,PG,1,100,12190
1575665260.564343,49714.333,8203,3,PG,1,100,12207
1575665260.605593,49749.000,8203,3,PG,1,100,12243
1575665260.643670,49781.000,8219,3,PG,1,100,12201
1575665260.681747,49813.000,8219,3,PG,1,100,12177
1575665260.719824,49845.000,8219,3,PG,1,100,12174
1575665260.758694,49877.667,8237,3,PG,1,100,12223
1575665260.797565,49910.333,8237,3,PG,1,100,12216
1575665260.836435,49943.000,8237,3,PG,1,100,12215
1575665260.876892,49977.000,8256,3,PG,1,100,12210
1575665260.917349,50011.000,8256,3,PG,1,100,12208
1575665260.957806,50045.000,8256,3,PG,1,100,12212
1575665260.999056,50079.667,8274,3,PG,1,100,12178
1575665261.040306,50114.333,8274,3,PG,1,100,12182
1575665261.081556,50149.000,8274,3,PG,1,100,12199
1575665261.123203,50184.000,8292,3,PG,1,100,12222
1575665261.164850,50219.000,8292,3,PG,1,100,12231
1575665261.206496,50254.000,8292,3,PG,1,100,12231
1575665261.244573,50286.000,8310,3,PG,1,100,12162
1575665261.282650,50318.000,8310,3,PG,1,100,12131
1575665261.320727,50350.000,8310,3,PG,1,100,12124
1575665261.358408,50381.667,8328,3,PG,1,100,12186
1575665261.396088,50413.333,8328,3,PG,1,100,12217
1575665261.433769,50445.000,8328,3,PG,1,100,12216
1575665261.473829,50478.667,8346,3,PG,1,100,12227
1575665261.513889,50512.333,8346,3,PG,1,100,12178
1575665261.553949,50546.000,8346,3,PG,1,100,12178
1575665261.594803,50580.333,8363,3,PG,1,100,12181
1575665261.635656,50614.667,8363,3,PG,1,100,12186
1575665261.676510,50649.000,8363,3,PG,1,100,12194
1575665261.718156,50684.000,8381,3,PG,1,100,12198
1575665261.759803,50719.000,8381,3,PG,1,100,12216
1575665261.801450,50754.000,8381,3,PG,1,100,12221
1575665261.840320,50786.667,8398,3,PG,1,100,12215
1575665261.879190,50819.333,8398,3,PG,1,100,12221
1575665261.918061,50852.000,8398,3,PG,1,100,12221
1575665261.955741,50883.667,8416,3,PG,1,100,12222
1575665261.993422,50915.333,8416,3,PG,1,100,12212
1575665262.031102,50947.000,8416,3,PG,1,100,12232
1575665262.070765,50980.333,8434,3,PG,1,100,12242
1575665262.110429,51013.667,8434,3,PG,1,100,12255
1575665262.150093,51047.000,8434,3,PG,1,100,12252
1575665262.191739,51082.000,8452,3,PG,1,100,12229
1575665262.233386,51117.000,8452,3,PG,1,100,12206
1575665262.275033,51152.000,8452,3,PG,1,100,12208
1575665262.315886,51186.333,8470,3,PG,1,100,12207
1575665262.356740,51220.667,8470,3,PG,1,100,12192
1575665262.397593,51255.000,8470,3,PG,1,100,12178
1575665262.437654,51288.667,8488,3,PG,1,100,12193
1575665262.477714,51322.333,8488,3,PG,1,100,12169
1575665262.517774,51356.000,8488,3,PG,1,100,12161
1575665262.555454,51387.667,8506,3,PG,1,100,12141
1575665262.593135,51419.333,8506,3,PG,1,100,12145
1575665262.630815,51451.000,8506,3,PG,1,100,12150
1575665262.670082,51484.000,8524,3,PG,1,100,12138
1575665262.709349,51517.000,8524,3,PG,1,100,12131
1575665262.748616,51550.000,8524,3,PG,1,100,12128
1575665262.794229,51588.333,8542,3,PG,1,100,12152
1575665262.839842,51626.667,8542,3,PG,1,100,12185
1575665262.885455,51665.000,8542,3,PG,1,100,12202
1575665262.926309,51699.333,8560,3,PG,1,100,12210
1575665262.967162,51733.667,8560,3,PG,1,100,12145
1575665263.008016,51768.000,8560,3,PG,1,100,12149
1575665263.045300,51799.333,8576,3,PG,1,100,12139
1575665263.082583,51830.667,8576,3,PG,1,100,12167
1575665263.119867,51862.000,8576,3,PG,1,100,12220
1575665263.157547,51893.667,8594,3,PG,1,100,12245
1575665263.195228,51925.333,8594,3,PG,1,100,12291
1575665263.232908,51957.000,8594,3,PG,1,100,12261
1575665263.271779,51989.667,8612,3,PG,1,100,12271
1575665263.310649,52022.333,8612,3,PG,1,100,12275
1575665263.349519,52055.000,8612,3,PG,1,100,12275
1575665263.391166,52090.000,8630,3,PG,1,100,12284
1575665263.432813,52125.000,8630,3,PG,1,100,12272
1575665263.474459,52160.000,8630,3,PG,1,100,12246
1575665263.515313,52194.333,8648,3,PG,1,100,12194
1575665263.556166,52228.667,8648,3,PG,1,100,12167
1575665263.597020,52263.000,8648,3,PG,1,100,12147
1575665263.637873,52297.333,8666,3,PG,1,100,12116
1575665263.678727,52331.667,8666,3,PG,1,100,12107
1575665263.719580,52366.000,8666,3,PG,1,100,12087
1575665263.760434,52400.333,8684,3,PG,1,100,12076
1575665263.801287,52434.667,8684,3,PG,1,100,12082
1575665263.842141,52469.000,8684,3,PG,1,100,12089
1575665263.878234,52499.333,8703,3,PG,1,100,12064
1575665263.914328,52529.667,8703,3,PG,1,100,12065
1575665263.950422,52560.000,8703,3,PG,1,100,12033
1575665263.988499,52592.000,8721,3,PG,1,100,12041
1575665264.026576,52624.000,8721,3,PG,1,100,12037
1575665264.064653,52656.000,8721,3,PG,1,100,12022
1575665264.103127,52688.333,8738,3,PG,1,100,12022
1575665264.141601,52720.667,8738,3,PG,1,100,12015
1575665264.180074,52753.000,8738,3,PG,1,100,12012
1575665264.220928,52787.333,8756,3,PG,1,100,12007
1575665264.261781,52821.667,8756,3,PG,1,100,12017
1575665264.302635,52856.000,8756,3,PG,1,100,12027
1575665264.343488,52890.333,8774,3,PG,1,100,12037
1575665264.384342,52924.667,8774,3,PG,1,100,12034
1575665264.425195,52959.000,8774,3,PG,1,100,12066
1575665264.466445,52993.667,8790,3,PG,1,100,12080
1575665264.507695,53028.333,8790,3,PG,1,100,12074
1575665264.548945,53063.000,8790,3,PG,1,100,12058
1575665264.587419,53095.333,8808,3,PG,1,100,12044
1575665264.625893,53127.667,8808,3,PG,1,100,12053
1575665264.664366,53160.000,8808,3,PG,1,100,12025
1575665264.702444,53192.000,8826,3,PG,1,100,12031
1575665264.740520,53224.000,8826,3,PG,1,100,12009
1575665264.778598,53256.000,8826,3,PG,1,100,12003
1575665264.819451,53290.333,8845,3,PG,1,100,12011
1575665264.860305,53324.667,8845,3,PG,1,100,11981
1575665264.901158,53359.000,8845,3,PG,1,100,11931
1575665264.942408,53393.667,8863,3,PG,1,100,11951
1575665264.983658,53428.333,8863,3,PG,1,100,11970
1575665265.024908,53463.000,8863,3,PG,1,100,12001
1575665265.070522,53501.333,8881,3,PG,1,100,12032
1575665265.116135,53539.667,8881,3,PG,1,100,12030
1575665265.161748,53578.000,8881,3,PG,1,100,11966
1575665265.199825,53610.000,8898,3,PG,1,100,11969
1575665265.237902,53642.000,8898,3,PG,1,100,11960
1575665265.275979,53674.000,8898,3,PG,1,100,11992
1575665265.314056,53706.000,8916,3,PG,1,100,12034
1575665265.352133,53738.000,8916,3,PG,1,100,12056
1575665265.390210,53770.000,8916,3,PG,1,100,12087
1575665265.430270,53803.667,8934,3,PG,1,100,12038
1575665265.470330,53837.333,8934,3,PG,1,100,12030
1575665265.510391,53871.000,8934,3,PG,1,100,12018
1575665265.551641,53905.667,8952,3,PG,1,100,12046
1575665265.592891,53940.333,8952,3,PG,1,100,12031
1575665265.634141,53975.000,8952,3,PG,1,100,12044
1575665265.674598,54009.000,8971,5,PG,1,100,12065
1575665265.715055,54043.000,8971,5,PG,1,100,12076
1575665265.755511,54077.000,8971,5,PG,1,100,12103
1575665265.795968,54111.000,8971,5,PG,1,100,12109
1575665265.836425,54145.000,8971,5,PG,1,100,12089
1575665265.874105,54176.667,8992,3,PG,1,100,12091
1575665265.911786,54208.333,8992,3,PG,1,100,12095
1575665265.949466,54240.000,8992,3,PG,1,100,12109
1575665265.989130,54273.333,9009,3,PG,1,100,12119
1575665266.028793,54306.667,9009,3,PG,1,100,12143
1575665266.068457,54340.000,9009,3,PG,1,100,12145
1575665266.109707,54374.667,9027,3,PG,1,100,12145
1575665266.150957,54409.333,9027,3,PG,1,100,12125
1575665266.192207,54444.000,9027,3,PG,1,100,12147
1575665266.233458,54478.667,9045,3,PG,1,100,12142
1575665266.274708,54513.333,9045,3,PG,1,100,12144
1575665266.315958,54548.000,9045,3,PG,1,100,12147
1575665266.356811,54582.333,9061,3,PG,1,100,12169
1575665266.397665,54616.667,9061,3,PG,1,100,12159
1575665266.438518,54651.000,9061,3,PG,1,100,12161
1575665266.473422,54680.333,9079,3,PG,1,100,12160
1575665266.508326,54709.667,9079,3,PG,1,100,12166
1575665266.543230,54739.000,9079,3,PG,1,100,12167
1575665266.582894,54772.333,9097,3,PG,1,100,12162
1575665266.622557,54805.667,9097,3,PG,1,100,12172
1575665266.662221,54839.000,9097,3,PG,1,100,12166
1575665266.705454,54875.333,9115,3,PG,1,100,12226
1575665266.748687,54911.667,9115,3,PG,1,100,12245
1575665266.791921,54948.000,9115,3,PG,1,100,12262
1575665266.832774,54982.333,9134,3,PG,1,100,12283
1575665266.873627,55016.667,9134,3,PG,1,100,12238
1575665266.914481,55051.000,9134,3,PG,1,100,12227
1575665266.956524,55086.333,9152,3,PG,1,100,12236
1575665266.998568,55121.667,9152,3,PG,1,100,12266
1575665267.040611,55157.000,9152,3,PG,1,100,12298
1575665267.077498,55188.000,9170,3,PG,1,100,12317
1575665267.114385,55219.000,9170,3,PG,1,100,12316
1575665267.151273,55250.000,9170,3,PG,1,100,12283
1575665267.190539,55283.000,9187,3,PG,1,100,12274
1575665267.229806,55316.000,9187,3,PG,1,100,12270
1575665267.269073,55349.000,9187,3,PG,1,100,12285
1575665267.309530,55383.000,9205,3,PG,1,100,12295
1575665267.349987,55417.000,9205,3,PG,1,100,12314
1575665267.390444,55451.000,9205,3,PG,1,100,12279
1575665267.429314,55483.667,9223,3,PG,1,100,12272
1575665267.468184,55516.333,9223,3,PG,1,100,12292
1575665267.507055,55549.000,9223,3,PG,1,100,12311
1575665267.547512,55583.000,9239,3,PG,1,100,12315
1575665267.587968,55617.000,9239,3,PG,1,100,12353
1575665267.628425,55651.000,9239,3,PG,1,100,12362
1575665267.670469,55686.333,9257,3,PG,1,100,12364
1575665267.712512,55721.667,9257,3,PG,1,100,12331
1575665267.754555,55757.000,9257,3,PG,1,100,12305
1575665267.796202,55792.000,9276,3,PG,1,100,12289
1575665267.837849,55827.000,9276,3,PG,1,100,12343
1575665267.879496,55862.000,9276,3,PG,1,100,12374
1575665267.920349,55896.333,9294,3,PG,1,100,12407
1575665267.961203,55930.667,9294,3,PG,1,100,12386
1575665268.002056,55965.000,9294,3,PG,1,100,12361
1575665268.042513,55999.000,9312,3,PG,1,100,12357
1575665268.082970,56033.000,9312,3,PG,1,100,12373
1575665268.123427,56067.000,9312,3,PG,1,100,12413
1575665268.161504,56099.000,9330,3,PG,1,100,12439
1575665268.199581,56131.000,9330,3,PG,1,100,12478
1575665268.237658,56163.000,9330,3,PG,1,100,12434
1575665268.276528,56195.667,9348,3,PG,1,100,12409
1575665268.315398,56228.333,9348,3,PG,1,100,12402
1575665268.354269,56261.000,9348,3,PG,1,100,12402
1575665268.395122,56295.333,9365,3,PG,1,100,12401
1575665268.435976,56329.667,9365,3,PG,1,100,12404
1575665268.476829,56364.000,9365,3,PG,1,100,12411
1575665268.517683,56398.333,9383,3,PG,1,100,12409
1575665268.558536,56432.667,9383,3,PG,1,100,12406
1575665268.599390,56467.000,9383,3,PG,1,100,12409
1575665268.640640,56501.667,9399,3,PG,1,100,12396
1575665268.681890,56536.333,9399,3,PG,1,100,12393
1575665268.723140,56571.000,9399,3,PG,1,100,12391
1575665268.760820,56602.667,9417,3,PG,1,100,12406
1575665268.798501,56634.333,9417,3,PG,1,100,12406
1575665268.836181,56666.000,9417,3,PG,1,100,12426
1575665268.874655,56698.333,9436,3,PG,1,100,12419
1575665268.913128,56730.667,9436,3,PG,1,100,12419
1575665268.951602,56763.000,9436,3,PG,1,100,12419
1575665268.992059,56797.000,9454,3,PG,1,100,12424
1575665269.032516,56831.000,9454,3,PG,1,100,12422
1575665269.072973,56865.000,9454,3,PG,1,100,12417
1575665269.113826,56899.333,9472,3,PG,1,100,12415
1575665269.154680,56933.667,9472,3,PG,1,100,12430
1575665269.195533,56968.000,9472,3,PG,1,100,12419
1575665269.237180,57003.000,9490,3,PG,1,100,12421
1575665269.278826,57038.000,9490,3,PG,1,100,12413
1575665269.320473,57073.000,9490,3,PG,1,100,12411
1575665269.358550,57105.000,9508,3,PG,1,100,12431
1575665269.396627,57137.000,9508,3,PG,1,100,12408
1575665269.434704,57169.000,9508,3,PG,1,100,12406
1575665269.476748,57204.333,9526,3,PG,1,100,12393
1575665269.518791,57239.667,9526,3,PG,1,100,12453
1575665269.560835,57275.000,9526,3,PG,1,100,12461
1575665269.601291,57309.000,9543,3,PG,1,100,12495
1575665269.641748,57343.000,9543,3,PG,1,100,12443
1575665269.682205,57377.000,9543,3,PG,1,100,12414
1575665269.723059,57411.333,9561,3,PG,1,100,12394
1575665269.763912,57445.667,9561,3,PG,1,100,12436
1575665269.804765,57480.000,9561,3,PG,1,100,12461
1575665269.846412,57515.000,9578,3,PG,1,100,12466
1575665269.888059,57550.000,9578,3,PG,1,100,12471
1575665269.929706,57585.000,9578,3,PG,1,100,12437
1575665269.968179,57617.333,9596,3,PG,1,100,12437
1575665270.006653,57649.667,9596,3,PG,1,100,12437
1575665270.045127,57682.000,9596,3,PG,1,100,12445
1575665270.083204,57714.000,9614,3,PG,1,100,12442
1575665270.121281,57746.000,9614,3,PG,1,100,12450
1575665270.159358,57778.000,9614,3,PG,1,100,12464
1575665270.200211,57812.333,9632,3,PG,1,100,12468
1575665270.241065,57846.667,9632,3,PG,1,100,12471
1575665270.281918,57881.000,9632,3,PG,1,100,12482
1575665270.323169,57915.667,9650,3,PG,1,100,12491
1575665270.364419,57950.333,9650,3,PG,1,100,12495
1575665270.405669,57985.000,9650,3,PG,1,100,12494
1575665270.444142,58017.333,9668,3,PG,1,100,12521
1575665270.482616,58049.667,9668,3,PG,1,100,12536
1575665270.521090,58082.000,9668,3,PG,1,100,12545
1575665270.559960,58114.667,9686,3,PG,1,100,12554
1575665270.598830,58147.333,9686,3,PG,1,100,12554
1575665270.637701,58180.000,9686,3,PG,1,100,12542
1575665270.674984,58211.333,9704,3,PG,1,100,12540
1575665270.712268,58242.667,9704,3,PG,1,100,12533
1575665270.749552,58274.000,9704,3,PG,1,100,12535
1575665270.790405,58308.333,9722,3,PG,1,100,12525
1575665270.831259,58342.667,9722,3,PG,1,100,12535
1575665270.872112,58377.000,9722,3,PG,1,100,12518
1575665270.912966,58411.333,9740,3,PG,1,100,12511
1575665270.953819,58445.667,9740,3,PG,1,100,12495
1575665270.994673,58480.000,9740,3,PG,1,100,12493
1575665271.035923,58514.667,9758,3,PG,1,100,12490
1575665271.077173,58549.333,9758,3,PG,1,100,12473
1575665271.118423,58584.000,9758,3,PG,1,100,12469
1575665271.160863,58619.667,9774,3,PG,1,100,12490
1575665271.203303,58655.333,9774,3,PG,1,100,12518
1575665271.245743,58691.000,9774,3,PG,1,100,12517
1575665271.283820,58723.000,9792,3,PG,1,100,12531
1575665271.321897,58755.000,9792,3,PG,1,100,12505
1575665271.359974,58787.000,9792,3,PG,1,100,12502
1575665271.398844,58819.667,9810,3,PG,1,100,12506
1575665271.437715,58852.333,9810,3,PG,1,100,12515
1575665271.476585,58885.000,9810,3,PG,1,100,12514
1575665271.513472,58916.000,9828,3,PG,1,100,12511
1575665271.550359,58947.000,9828,3,PG,1,100,12513
1575665271.587246,58978.000,9828,3,PG,1,100,12507
1575665271.626910,59011.333,9846,3,PG,1,100,12513
1575665271.666574,59044.667,9846,3,PG,1,100,12489
1575665271.706237,59078.000,9846,3,PG,1,100,12509
1575665271.747884,59113.000,9867,5,PG,1,100,12568
1575665271.789531,59148.000,9867,5,PG,1,100,12579
1575665271.831177,59183.000,9867,5,PG,1,100,12587
1575665271.872824,59218.000,9867,5,PG,1,100,12551
1575665271.914471,59253.000,9867,5,PG,1,100,12532
1575665271.954928,59287.000,9888,3,PG,1,100,12548
1575665271.995385,59321.000,9888,3,PG,1,100,12545
1575665272.035841,59355.000,9888,3,PG,1,100,12546
1575665272.077092,59389.667,9906,3,PG,1,100,12542
1575665272.118342,59424.333,9906,3,PG,1,100,12532
1575665272.159592,59459.000,9906,3,PG,1,100,12540
1575665272.201833,59494.500,9924,2,PG,1,100,12521
1575665272.244075,59530.000,9924,2,PG,1,100,12520
1575665272.281855,59561.750,9942,4,PG,1,100,12493
1575665272.319634,59593.500,9942,4,PG,1,100,12528
1575665272.357414,59625.250,9942,4,PG,1,100,12562
1575665272.395194,59657.000,9942,4,PG,1,100,12567
1575665272.434857,59690.333,9960,3,PG,1,100,12589
1575665272.474521,59723.667,9960,3,PG,1,100,12552
1575665272.514184,59757.000,9960,3,PG,1,100,12536
1575665272.554245,59790.667,9978,3,PG,1,100,12543
1575665272.594305,59824.333,9978,3,PG,1,100,12523
1575665272.634365,59858.000,9978,3,PG,1,100,12586
1575665272.676012,59893.000,9995,3,PG,1,100,12623
1575665272.717658,59928.000,9995,3,PG,1,100,12629
1575665272.759305,59963.000,9995,3,PG,1,100,12598
1575665272.800952,59998.000,10013,2,PG,1,100,12580
1575665272.842599,60033.000,10013,2,PG,1,100,12572
1575665272.880973,60065.250,10030,4,PG,1,100,12568
1575665272.919348,60097.500,10030,4,PG,1,100,12573
1575665272.957722,60129.750,10030,4,PG,1,100,12570
1575665272.996097,60162.000,10030,4,PG,1,100,12575
1575665273.034570,60194.333,10048,3,PG,1,100,12570
1575665273.073044,60226.667,10048,3,PG,1,100,12568
1575665273.111518,60259.000,10048,3,PG,1,100,12577
1575665273.151181,60292.333,10066,3,PG,1,100,12576
1575665273.190845,60325.667,10066,3,PG,1,100,12556
1575665273.230508,60359.000,10066,3,PG,1,100,12538
1575665273.271759,60393.667,10084,3,PG,1,100,12562
1575665273.313009,60428.333,10084,3,PG,1,100,12570
1575665273.354259,60463.000,10084,3,PG,1,100,12575
1575665273.396302,60498.333,10102,3,PG,1,100,12595
1575665273.438345,60533.667,10102,3,PG,1,100,12587
1575665273.480389,60569.000,10102,3,PG,1,100,12588
1575665273.518069,60600.667,10120,3,PG,1,100,12584
1575665273.555750,60632.333,10120,3,PG,1,100,12576
1575665273.593430,60664.000,10120,3,PG,1,100,12580
1575665273.631904,60696.333,10138,3,PG,1,100,12595
1575665273.670377,60728.667,10138,3,PG,1,100,12588
1575665273.708851,60761.000,10138,3,PG,1,100,12587
1575665273.748911,60794.667,10156,3,PG,1,100,12586
1575665273.788971,60828.333,10156,3,PG,1,100,12589
1575665273.829032,60862.000,10156,3,PG,1,100,12588
1575665273.870282,60896.667,10175,3,PG,1,100,12582
1575665273.911532,60931.333,10175,3,PG,1,100,12547
1575665273.952782,60966.000,10175,3,PG,1,100,12559
1575665273.994825,61001.333,10192,3,PG,1,100,12529
1575665274.036869,61036.667,10192,3,PG,1,100,12571
1575665274.078912,61072.000,10192,3,PG,1,100,12597
1575665274.123534,61109.500,10210,2,PG,1,100,12615
1575665274.168155,61147.000,10210,2,PG,1,100,12555
1575665274.205935,61178.750,10226,4,PG,1,100,12518
1575665274.243714,61210.500,10226,4,PG,1,100,12517
1575665274.281494,61242.250,10226,4,PG,1,100,12503
1575665274.319273,61274.000,10226,4,PG,1,100,12554
1575665274.357350,61306.000,10244,3,PG,1,100,12576
1575665274.395427,61338.000,10244,3,PG,1,100,12577
1575665274.433505,61370.000,10244,3,PG,1,100,12600
1575665274.474755,61404.667,10262,3,PG,1,100,12543
1575665274.516005,61439.333,10262,3,PG,1,100,12549
1575665274.557255,61474.000,10262,3,PG,1,100,12542
1575665274.598505,61508.667,10280,3,PG,1,100,12544
1575665274.639755,61543.333,10280,3,PG,1,100,12560
1575665274.681005,61578.000,10280,3,PG,1,100,12555
1575665274.719479,61610.333,10298,3,PG,1,100,12572
1575665274.757952,61642.667,10298,3,PG,1,100,12562
1575665274.796426,61675.000,10298,3,PG,1,100,12580
1575665274.834900,61707.333,10317,3,PG,1,100,12575
1575665274.873374,61739.667,10317,3,PG,1,100,12589
1575665274.911847,61772.000,10317,3,PG,1,100,12580
1575665274.951114,61805.000,10335,3,PG,1,100,12577
1575665274.990381,61838.000,10335,3,PG,1,100,12597
1575665275.029648,61871.000,10335,3,PG,1,100,12593
1575665275.075261,61909.333,10353,3,PG,1,100,12587
1575665275.120874,61947.667,10353,3,PG,1,100,12600
1575665275.166487,61986.000,10353,3,PG,1,100,12583
1575665275.207539,62020.500,10370,2,PG,1,100,12580
1575665275.248591,62055.000,10370,2,PG,1,100,12554
1575665275.287560,62087.750,10388,4,PG,1,100,12561
1575665275.326530,62120.500,10388,4,PG,1,100,12557
1575665275.365499,62153.250,10388,4,PG,1,100,12556
1575665275.404469,62186.000,10388,4,PG,1,100,12545
1575665275.446115,62221.000,10404,2,PG,1,100,12541
1575665275.487762,62256.000,10404,2,PG,1,100,12545
1575665275.529012,62290.667,10422,3,PG,1,100,12534
1575665275.570262,62325.333,10422,3,PG,1,100,12541
1575665275.611513,62360.000,10422,3,PG,1,100,12557
1575665275.649590,62392.000,10440,4,PG,1,100,12566
1575665275.687667,62424.000,10440,4,PG,1,100,12584
1575665275.725744,62456.000,10440,4,PG,1,100,12576
1575665275.763821,62488.000,10440,4,PG,1,100,12570
1575665275.803881,62521.667,10458,3,PG,1,100,12573
1575665275.843941,62555.333,10458,3,PG,1,100,12561
1575665275.884001,62589.000,10458,3,PG,1,100,12566
1575665275.924062,62622.667,10477,3,PG,1,100,12572
1575665275.964122,62656.333,10477,3,PG,1,100,12585
1575665276.004182,62690.000,10477,3,PG,1,100,12581
1575665276.045829,62725.000,10495,2,PG,1,100,12584
1575665276.087476,62760.000,10495,2,PG,1,100,12585
1575665276.129519,62795.333,10513,3,PG,1,100,12584
1575665276.171562,62830.667,10513,3,PG,1,100,12589
1575665276.213606,62866.000,10513,3,PG,1,100,12568
1575665276.251385,62897.750,10530,4,PG,1,100,12568
1575665276.289165,62929.500,10530,4,PG,1,100,12539
1575665276.326944,62961.250,10530,4,PG,1,100,12565
1575665276.364724,62993.000,10530,4,PG,1,100,12582
1575665276.408751,63030.000,10548,2,PG,1,100,12588
1575665276.452777,63067.000,10548,2,PG,1,100,12611
1575665276.494027,63101.667,10564,3,PG,1,100,12545
1575665276.535277,63136.333,10564,3,PG,1,100,12510
1575665276.576527,63171.000,10564,3,PG,1,100,12517
1575665276.617381,63205.333,10582,3,PG,1,100,12540
1575665276.658234,63239.667,10582,3,PG,1,100,12569
1575665276.699088,63274.000,10582,3,PG,1,100,12608
1575665276.740735,63309.000,10600,3,PG,1,100,12568
1575665276.782381,63344.000,10600,3,PG,1,100,12527
1575665276.824028,63379.000,10600,3,PG,1,100,12539
1575665276.861708,63410.667,10619,3,PG,1,100,12534
1575665276.899389,63442.333,10619,3,PG,1,100,12542
1575665276.937069,63474.000,10619,3,PG,1,100,12543
1575665276.974750,63505.667,10637,3,PG,1,100,12571
1575665277.012430,63537.333,10637,3,PG,1,100,12554
1575665277.050110,63569.000,10637,3,PG,1,100,12556
1575665277.090567,63603.000,10655,3,PG,1,100,12563
1575665277.131024,63637.000,10655,3,PG,1,100,12573
1575665277.171481,63671.000,10655,3,PG,1,100,12566
1575665277.213128,63706.000,10673,3,PG,1,100,12557
1575665277.254774,63741.000,10673,3,PG,1,100,12544
1575665277.296421,63776.000,10673,3,PG,1,100,12566
1575665277.337275,63810.333,10691,3,PG,1,100,12586
1575665277.378128,63844.667,10691,3,PG,1,100,12579
1575665277.418982,63879.000,10691,3,PG,1,100,12598
1575665277.457852,63911.667,10708,3,PG,1,100,12576
1575665277.496722,63944.333,10708,3,PG,1,100,12576
1575665277.535593,63977.000,10708,3,PG,1,100,12563
1575665277.574265,64009.500,10726,4,PG,1,100,12550
1575665277.612936,64042.000,10726,4,PG,1,100,12542
1575665277.651608,64074.500,10726,4,PG,1,100,12550
1575665277.690280,64107.000,10726,4,PG,1,100,12540
1575665277.729944,64140.333,10744,3,PG,1,100,12525
1575665277.769608,64173.667,10744,3,PG,1,100,12524
1575665277.809271,64207.000,10744,3,PG,1,100,12512
1575665277.848538,64240.000,10764,4,PG,1,100,12512
1575665277.887805,64273.000,10764,4,PG,1,100,12503
1575665277.927072,64306.000,10764,4,PG,1,100,12500
1575665277.966339,64339.000,10764,4,PG,1,100,12510
1575665278.007589,64373.667,10783,3,PG,1,100,12490
1575665278.048839,64408.333,10783,3,PG,1,100,12520
1575665278.090089,64443.000,10783,3,PG,1,100,12556
1575665278.129356,64476.000,10801,3,PG,1,100,12581
1575665278.168623,64509.000,10801,3,PG,1,100,12538
1575665278.207890,64542.000,10801,3,PG,1,100,12509
1575665278.246760,64574.667,10819,3,PG,1,100,12510
1575665278.285631,64607.333,10819,3,PG,1,100,12514
1575665278.324501,64640.000,10819,3,PG,1,100,12564
1575665278.364958,64674.000,10837,3,PG,1,100,12581
1575665278.405415,64708.000,10837,3,PG,1,100,12605
1575665278.445872,64742.000,10837,3,PG,1,100,12575
1575665278.487122,64776.667,10853,3,PG,1,100,12550
1575665278.528372,64811.333,10853,3,PG,1,100,12553
1575665278.569622,64846.000,10853,3,PG,1,100,12549
1575665278.612062,64881.667,10871,3,PG,1,100,12536
1575665278.654502,64917.333,10871,3,PG,1,100,12515
1575665278.696942,64953.000,10871,3,PG,1,100,12515
1575665278.734622,64984.667,10889,3,PG,1,100,12512
1575665278.772303,65016.333,10889,3,PG,1,100,12511
1575665278.809983,65048.000,10889,3,PG,1,100,12501
1575665278.846275,65078.500,10908,4,PG,1,100,12493
1575665278.882567,65109.000,10908,4,PG,1,100,12474
1575665278.918860,65139.500,10908,4,PG,1,100,12438
1575665278.955152,65170.000,10908,4,PG,1,100,12469
1575665278.997195,65205.333,10926,3,PG,1,100,12483
1575665279.039238,65240.667,10926,3,PG,1,100,12425
1575665279.081282,65276.000,10926,3,PG,1,100,12419
1575665279.116186,65305.333,10944,3,PG,1,100,12412
1575665279.151090,65334.667,10944,3,PG,1,100,12437
1575665279.185994,65364.000,10944,3,PG,1,100,12443
1575665279.224468,65396.333,10962,3,PG,1,100,12452
1575665279.262941,65428.667,10962,3,PG,1,100,12426
1575665279.301415,65461.000,10962,3,PG,1,100,12385
1575665279.341078,65494.333,10980,3,PG,1,100,12379
1575665279.380742,65527.667,10980,3,PG,1,100,12391
1575665279.420405,65561.000,10980,3,PG,1,100,12441
1575665279.461656,65595.667,10998,3,PG,1,100,12464
1575665279.502906,65630.333,10998,3,PG,1,100,12457
1575665279.544156,65665.000,10998,3,PG,1,100,12415
1575665279.585803,65700.000,11015,3,PG,1,100,12423
1575665279.627449,65735.000,11015,3,PG,1,100,12413
1575665279.669096,65770.000,11015,3,PG,1,100,12411
1575665279.708760,65803.333,11033,3,PG,1,100,12420
1575665279.748423,65836.667,11033,3,PG,1,100,12423
1575665279.788087,65870.000,11033,3,PG,1,100,12422
1575665279.826164,65902.000,11050,3,PG,1,100,12390
1575665279.864241,65934.000,11050,3,PG,1,100,12379
1575665279.902318,65966.000,11050,3,PG,1,100,12361
1575665279.941585,65999.000,11068,3,PG,1,100,12364
1575665279.980852,66032.000,11068,3,PG,1,100,12351
1575665280.020119,66065.000,11068,3,PG,1,100,12331
1575665280.060972,66099.333,11086,3,PG,1,100,12354
1575665280.101826,66133.667,11086,3,PG,1,100,12342
1575665280.142679,66168.000,11086,3,PG,1,100,12352
1575665280.183929,66202.667,11104,3,PG,1,100,12354
1575665280.225179,66237.333,11104,3,PG,1,100,12356
1575665280.266429,66272.000,11104,3,PG,1,100,12359
1575665280.306886,66306.000,11122,3,PG,1,100,12347
1575665280.347343,66340.000,11122,3,PG,1,100,12339
1575665280.387800,66374.000,11122,3,PG,1,100,12345
1575665280.425480,66405.667,11140,3,PG,1,100,12369
1575665280.463161,66437.333,11140,3,PG,1,100,12358
1575665280.500841,66469.000,11140,3,PG,1,100,12361
1575665280.539315,66501.333,11158,3,PG,1,100,12360
1575665280.577789,66533.667,11158,3,PG,1,100,12364
1575665280.616262,66566.000,11158,3,PG,1,100,12373
1575665280.657116,66600.333,11176,3,PG,1,100,12374
1575665280.697969,66634.667,11176,3,PG,1,100,12381
1575665280.738823,66669.000,11176,3,PG,1,100,12384
1575665280.784039,66707.000,11194,3,PG,1,100,12422
1575665280.829256,66745.000,11194,3,PG,1,100,12449
1575665280.874472,66783.000,11194,3,PG,1,100,12475
1575665280.914929,66817.000,11212,3,PG,1,100,12506
1575665280.955386,66851.000,11212,3,PG,1,100,12437
1575665280.995843,66885.000,11212,3,PG,1,100,12439
1575665281.033523,66916.667,11230,3,PG,1,100,12449
1575665281.071203,66948.333,11230,3,PG,1,100,12492
1575665281.108884,66980.000,11230,3,PG,1,100,12494
1575665281.147754,67012.667,11246,3,PG,1,100,12512
1575665281.186624,67045.333,11246,3,PG,1,100,12462
1575665281.225495,67078.000,11246,3,PG,1,100,12447
1575665281.266745,67112.667,11264,3,PG,1,100,12447
1575665281.307995,67147.333,11264,3,PG,1,100,12435
1575665281.349245,67182.000,11264,3,PG,1,100,12459
1575665281.390892,67217.000,11282,3,PG,1,100,12442
1575665281.432539,67252.000,11282,3,PG,1,100,12449
1575665281.474185,67287.000,11282,3,PG,1,100,12438
1575665281.515435,67321.667,11300,3,PG,1,100,12444
1575665281.556685,67356.333,11300,3,PG,1,100,12445
1575665281.597936,67391.000,11300,3,PG,1,100,12455
1575665281.635616,67422.667,11318,3,PG,1,100,12451
1575665281.673296,67454.333,11318,3,PG,1,100,12448
1575665281.710977,67486.000,11318,3,PG,1,100,12457
1575665281.746277,67515.667,11336,3,PG,1,100,12470
1575665281.781578,67545.333,11336,3,PG,1,100,12483
1575665281.816879,67575.000,11336,3,PG,1,100,12506
1575665281.858129,67609.667,11355,3,PG,1,100,12512
1575665281.899379,67644.333,11355,3,PG,1,100,12512
1575665281.940629,67679.000,11355,3,PG,1,100,12507
1575665281.981879,67713.667,11372,3,PG,1,100,12518
1575665282.023129,67748.333,11372,3,PG,1,100,12530
1575665282.064379,67783.000,11372,3,PG,1,100,12521
1575665282.105233,67817.333,11390,3,PG,1,100,12534
1575665282.146086,67851.667,11390,3,PG,1,100,12557
1575665282.186940,67886.000,11390,3,PG,1,100,12547
1575665282.225017,67918.000,11408,3,PG,1,100,12559
1575665282.263094,67950.000,11408,3,PG,1,100,12559
1575665282.301171,67982.000,11408,3,PG,1,100,12559
1575665282.338851,68013.667,11424,3,PG,1,100,12562
1575665282.376532,68045.333,11424,3,PG,1,100,12519
1575665282.414212,68077.000,11424,3,PG,1,100,12528
1575665282.457445,68113.333,11442,3,PG,1,100,12552
1575665282.500679,68149.667,11442,3,PG,1,100,12562
1575665282.543912,68186.000,11442,3,PG,1,100,12568
1575665282.586352,68221.667,11460,3,PG,1,100,12544
1575665282.628792,68257.333,11460,3,PG,1,100,12513
1575665282.671232,68293.000,11460,3,PG,1,100,12483
1575665282.708516,68324.333,11478,3,PG,1,100,12510
1575665282.745800,68355.667,11478,3,PG,1,100,12517
1575665282.783083,68387.000,11478,3,PG,1,100,12507
1575665282.824333,68421.667,11497,3,PG,1,100,12504
1575665282.865583,68456.333,11497,3,PG,1,100,12502
1575665282.906834,68491.000,11497,3,PG,1,100,12488
1575665282.948480,68526.000,11515,3,PG,1,100,12491
1575665282.990127,68561.000,11515,3,PG,1,100,12490
1575665283.031774,68596.000,11515,3,PG,1,100,12553
1575665283.073421,68631.000,11533,3,PG,1,100,12569
1575665283.115067,68666.000,11533,3,PG,1,100,12586
1575665283.156714,68701.000,11533,3,PG,1,100,12535
1575665283.198361,68736.000,11550,3,PG,1,100,12540
1575665283.240008,68771.000,11550,3,PG,1,100,12556
1575665283.281654,68806.000,11550,3,PG,1,100,12545
1575665283.319335,68837.667,11568,3,PG,1,100,12547
1575665283.357015,68869.333,11568,3,PG,1,100,12539
1575665283.394696,68901.000,11568,3,PG,1,100,12546
1575665283.433962,68934.000,11584,3,PG,1,100,12556
1575665283.473229,68967.000,11584,3,PG,1,100,12540
1575665283.512496,69000.000,11584,3,PG,1,100,12528
1575665283.552557,69033.667,11602,3,PG,1,100,12573
1575665283.592617,69067.333,11602,3,PG,1,100,12606
1575665283.632677,69101.000,11602,3,PG,1,100,12599
1575665283.673927,69135.667,11620,3,PG,1,100,12589
1575665283.715177,69170.333,11620,3,PG,1,100,12528
1575665283.756427,69205.000,11620,3,PG,1,100,12508
1575665283.798074,69240.000,11639,3,PG,1,100,12482
1575665283.839721,69275.000,11639,3,PG,1,100,12518
1575665283.881367,69310.000,11639,3,PG,1,100,12555
1575665283.919920,69342.400,11660,5,PG,1,100,12565
1575665283.958473,69374.800,11660,5,PG,1,100,12533
1575665283.997026,69407.200,11660,5,PG,1,100,12498
1575665284.035579,69439.600,11660,5,PG,1,100,12491
1575665284.074132,69472.000,11660,5,PG,1,100,12487
1575665284.112606,69504.333,11680,3,PG,1,100,12494
1575665284.151080,69536.667,11680,3,PG,1,100,12495
1575665284.189553,69569.000,11680,3,PG,1,100,12506
1575665284.230407,69603.333,11696,3,PG,1,100,12495
1575665284.271260,69637.667,11696,3,PG,1,100,12503
1575665284.312114,69672.000,11696,3,PG,1,100,12508
1575665284.353364,69706.667,11714,3,PG,1,100,12508
1575665284.394614,69741.333,11714,3,PG,1,100,12508
1575665284.435864,69776.000,11714,3,PG,1,100,12483
1575665284.476321,69810.000,11732,3,PG,1,100,12515
1575665284.516778,69844.000,11732,3,PG,1,100,12530
1575665284.557235,69878.000,11732,3,PG,1,100,12542
1575665284.595312,69910.000,11750,3,PG,1,100,12554
1575665284.633389,69942.000,11750,3,PG,1,100,12549
1575665284.671466,69974.000,11750,3,PG,1,100,12571
1575665284.710336,70006.667,11768,3,PG,1,100,12560
1575665284.749207,70039.333,11768,3,PG,1,100,12571
1575665284.788077,70072.000,11768,3,PG,1,100,12566
1575665284.828534,70106.000,11787,3,PG,1,100,12577
1575665284.868990,70140.000,11787,3,PG,1,100,12544
1575665284.909447,70174.000,11787,3,PG,1,100,12515
1575665284.950697,70208.667,11805,3,PG,1,100,12485
1575665284.991948,70243.333,11805,3,PG,1,100,12496
1575665285.033198,70278.000,11805,3,PG,1,100,12487
1575665285.074448,70312.667,11822,3,PG,1,100,12466
1575665285.115698,70347.333,11822,3,PG,1,100,12445
1575665285.156948,70382.000,11822,3,PG,1,100,12463
1575665285.199785,70418.000,11840,2,PG,1,100,12487
1575665285.242621,70454.000,11840,2,PG,1,100,12485
1575665285.281293,70486.500,11858,4,PG,1,100,12483
1575665285.319965,70519.000,11858,4,PG,1,100,12447
1575665285.358637,70551.500,11858,4,PG,1,100,12446
1575665285.397309,70584.000,11858,4,PG,1,100,12399
1575665285.437766,70618.000,11874,3,PG,1,100,12442
1575665285.478223,70652.000,11874,3,PG,1,100,12501
1575665285.518680,70686.000,11874,3,PG,1,100,12521
1575665285.560921,70721.500,11892,2,PG,1,100,12502
1575665285.603163,70757.000,11892,2,PG,1,100,12478
1575665285.642133,70789.750,11910,4,PG,1,100,12469
1575665285.681102,70822.500,11910,4,PG,1,100,12468
1575665285.720072,70855.250,11910,4,PG,1,100,12476
1575665285.759041,70888.000,11910,4,PG,1,100,12503
1575665285.796721,70919.667,11928,3,PG,1,100,12497
1575665285.834402,70951.333,11928,3,PG,1,100,12501
1575665285.872082,70983.000,11928,3,PG,1,100,12501
1575665285.909366,71014.333,11947,3,PG,1,100,12509
1575665285.946650,71045.667,11947,3,PG,1,100,12519
1575665285.983933,71077.000,11947,3,PG,1,100,12515
1575665286.025580,71112.000,11965,3,PG,1,100,12504
1575665286.067227,71147.000,11965,3,PG,1,100,12501
1575665286.108874,71182.000,11965,3,PG,1,100,12494
1575665286.150124,71216.667,11983,3,PG,1,100,12479
1575665286.191374,71251.333,11983,3,PG,1,100,12495
1575665286.232624,71286.000,11983,3,PG,1,100,12472
1575665286.273478,71320.333,12001,3,PG,1,100,12473
1575665286.314331,71354.667,12001,3,PG,1,100,12457
1575665286.355185,71389.000,12001,3,PG,1,100,12443
1575665286.393658,71421.333,12018,3,PG,1,100,12432
1575665286.432132,71453.667,12018,3,PG,1,100,12434
1575665286.470606,71486.000,12018,3,PG,1,100,12417
1575665286.511856,71520.667,12036,3,PG,1,100,12415
1575665286.553106,71555.333,12036,3,PG,1,100,12408
1575665286.594356,71590.000,12036,3,PG,1,100,12413
1575665286.632433,71622.000,12054,3,PG,1,100,12410
1575665286.670510,71654.000,12054,3,PG,1,100,12407
1575665286.708587,71686.000,12054,3,PG,1,100,12387
1575665286.746664,71718.000,12070,3,PG,1,100,12436
1575665286.784741,71750.000,12070,3,PG,1,100,12448
1575665286.822818,71782.000,12070,3,PG,1,100,12432
1575665286.862878,71815.667,12089,3,PG,1,100,12452
1575665286.902939,71849.333,12089,3,PG,1,100,12447
1575665286.942999,71883.000,12089,3,PG,1,100,12459
1575665286.984249,71917.667,12107,3,PG,1,100,12457
1575665287.025499,71952.333,12107,3,PG,1,100,12461
1575665287.066749,71987.000,12107,3,PG,1,100,12471
1575665287.108396,72022.000,12125,3,PG,1,100,12466
1575665287.150043,72057.000,12125,3,PG,1,100,12473
1575665287.191689,72092.000,12125,3,PG,1,100,12479
1575665287.230163,72124.333,12143,3,PG,1,100,12487
1575665287.268637,72156.667,12143,3,PG,1,100,12473
1575665287.307110,72189.000,12143,3,PG,1,100,12462
1575665287.349154,72224.333,12161,3,PG,1,100,12497
1575665287.391197,72259.667,12161,3,PG,1,100,12516
1575665287.433240,72295.000,12161,3,PG,1,100,12493
1575665287.470128,72326.000,12179,3,PG,1,100,12442
1575665287.507015,72357.000,12179,3,PG,1,100,12439
1575665287.543902,72388.000,12179,3,PG,1,100,12474
1575665287.583565,72421.333,12196,3,PG,1,100,12469
1575665287.623229,72454.667,12196,3,PG,1,100,12464
1575665287.662893,72488.000,12196,3,PG,1,100,12451
1575665287.702556,72521.333,12214,3,PG,1,100,12450
1575665287.742220,72554.667,12214,3,PG,1,100,12467
1575665287.781883,72588.000,12214,3,PG,1,100,12439
1575665287.823530,72623.000,12233,3,PG,1,100,12473
1575665287.865177,72658.000,12233,3,PG,1,100,12499
1575665287.906824,72693.000,12233,3,PG,1,100,12516
1575665287.948470,72728.000,12249,3,PG,1,100,12520
1575665287.990117,72763.000,12249,3,PG,1,100,12474
1575665288.031764,72798.000,12249,3,PG,1,100,12469
1575665288.069841,72830.000,12267,3,PG,1,100,12494
1575665288.107918,72862.000,12267,3,PG,1,100,12548
1575665288.145995,72894.000,12267,3,PG,1,100,12571
1575665288.184072,72926.000,12285,3,PG,1,100,12578
1575665288.222149,72958.000,12285,3,PG,1,100,12534
1575665288.260226,72990.000,12285,3,PG,1,100,12539
1575665288.299493,73023.000,12303,3,PG,1,100,12542
1575665288.338760,73056.000,12303,3,PG,1,100,12562
1575665288.378027,73089.000,12303,3,PG,1,100,12564
1575665288.419277,73123.667,12321,3,PG,1,100,12567
1575665288.460527,73158.333,12321,3,PG,1,100,12580
1575665288.501777,73193.000,12321,3,PG,1,100,12578
1575665288.543027,73227.667,12339,3,PG,1,100,12566
1575665288.584277,73262.333,12339,3,PG,1,100,12562
1575665288.625527,73297.000,12339,3,PG,1,100,12540
1575665288.664398,73329.667,12357,3,PG,1,100,12556
1575665288.703268,73362.333,12357,3,PG,1,100,12551
1575665288.742138,73395.000,12357,3,PG,1,100,12562
1575665288.780612,73427.333,12375,3,PG,1,100,12578
1575665288.819086,73459.667,12375,3,PG,1,100,12580
1575665288.857559,73492.000,12375,3,PG,1,100,12581
1575665288.897223,73525.333,12393,3,PG,1,100,12578
1575665288.936887,73558.667,12393,3,PG,1,100,12568
1575665288.976550,73592.000,12393,3,PG,1,100,12576
1575665289.017800,73626.667,12411,3,PG,1,100,12595
1575665289.059050,73661.333,12411,3,PG,1,100,12584
1575665289.100301,73696.000,12411,3,PG,1,100,12587
1575665289.141551,73730.667,12427,3,PG,1,100,12589
1575665289.182801,73765.333,12427,3,PG,1,100,12588
1575665289.224051,73800.000,12427,3,PG,1,100,12593
1575665289.264111,73833.667,12445,3,PG,1,100,12594
1575665289.304171,73867.333,12445,3,PG,1,100,12586
1575665289.344231,73901.000,12445,3,PG,1,100,12601
1575665289.385878,73936.000,12463,3,PG,1,100,12608
1575665289.427525,73971.000,12463,3,PG,1,100,12654
1575665289.469172,74006.000,12463,3,PG,1,100,12684
1575665289.508439,74039.000,12481,3,PG,1,100,12686
1575665289.547706,74072.000,12481,3,PG,1,100,12635
1575665289.586972,74105.000,12481,3,PG,1,100,12636
1575665289.625446,74137.333,12499,3,PG,1,100,12628
1575665289.663920,74169.667,12499,3,PG,1,100,12693
1575665289.702394,74202.000,12499,3,PG,1,100,12701
1575665289.743247,74236.333,12517,3,PG,1,100,12702
1575665289.784101,74270.667,12517,3,PG,1,100,12684
1575665289.824954,74305.000,12517,3,PG,1,100,12654
1575665289.864221,74338.000,12536,3,PG,1,100,12652
1575665289.903488,74371.000,12536,3,PG,1,100,12658
1575665289.942755,74404.000,12536,3,PG,1,100,12658
1575665289.980594,74435.800,12557,5,PG,1,100,12657
1575665290.018433,74467.600,12557,5,PG,1,100,12665
1575665290.056272,74499.400,12557,5,PG,1,100,12655
1575665290.094111,74531.200,12557,5,PG,1,100,12669
1575665290.131950,74563.000,12557,5,PG,1,100,12661
1575665290.173597,74598.000,12577,3,PG,1,100,12673
1575665290.215244,74633.000,12577,3,PG,1,100,12658
1575665290.256890,74668.000,12577,3,PG,1,100,12661
1575665290.301313,74705.333,12595,3,PG,1,100,12683
1575665290.345737,74742.667,12595,3,PG,1,100,12685
1575665290.390160,74780.000,12595,3,PG,1,100,12699
1575665290.428633,74812.333,12613,3,PG,1,100,12721
1575665290.467107,74844.667,12613,3,PG,1,100,12712
1575665290.505581,74877.000,12613,3,PG,1,100,12709
1575665290.546434,74911.333,12631,3,PG,1,100,12694
1575665290.587288,74945.667,12631,3,PG,1,100,12718
1575665290.628141,74980.000,12631,3,PG,1,100,12712
1575665290.669788,75015.000,12649,3,PG,1,100,12727
1575665290.711435,75050.000,12649,3,PG,1,100,12731
1575665290.753082,75085.000,12649,3,PG,1,100,12727
1575665290.791555,75117.333,12666,3,PG,1,100,12737
1575665290.830029,75149.667,12666,3,PG,1,100,12716
1575665290.868503,75182.000,12666,3,PG,1,100,12751
1575665290.906579,75214.000,12685,3,PG,1,100,12746
1575665290.944657,75246.000,12685,3,PG,1,100,12737
1575665290.982734,75278.000,12685,3,PG,1,100,12744
1575665291.023190,75312.000,12703,3,PG,1,100,12732
1575665291.063647,75346.000,12703,3,PG,1,100,12727
1575665291.104104,75380.000,12703,3,PG,1,100,12721
1575665291.145354,75414.667,12719,3,PG,1,100,12716
1575665291.186604,75449.333,12719,3,PG,1,100,12714
1575665291.227854,75484.000,12719,3,PG,1,100,12729
1575665291.269898,75519.333,12737,3,PG,1,100,12707
1575665291.311941,75554.667,12737,3,PG,1,100,12701
1575665291.353985,75590.000,12737,3,PG,1,100,12694
1575665291.392855,75622.667,12755,3,PG,1,100,12690
1575665291.431725,75655.333,12755,3,PG,1,100,12697
1575665291.470596,75688.000,12755,3,PG,1,100,12688
1575665291.508276,75719.667,12773,3,PG,1,100,12678
1575665291.545956,75751.333,12773,3,PG,1,100,12678
1575665291.583637,75783.000,12773,3,PG,1,100,12705
1575665291.627663,75820.000,12791,3,PG,1,100,12721
1575665291.671690,75857.000,12791,3,PG,1,100,12739
1575665291.715716,75894.000,12791,3,PG,1,100,12736
1575665291.756967,75928.667,12809,3,PG,1,100,12696
1575665291.798217,75963.333,12809,3,PG,1,100,12672
1575665291.839467,75998.000,12809,3,PG,1,100,12681
1575665291.880519,76032.500,12827,2,PG,1,100,12741
1575665291.921570,76067.000,12827,2,PG,1,100,12773
1575665291.961135,76100.250,12845,4,PG,1,100,12796
1575665292.000699,76133.500,12845,4,PG,1,100,12758
1575665292.040264,76166.750,12845,4,PG,1,100,12745
1575665292.079828,76200.000,12845,4,PG,1,100,12746
1575665292.117508,76231.667,12863,3,PG,1,100,12741
1575665292.155189,76263.333,12863,3,PG,1,100,12756
1575665292.192869,76295.000,12863,3,PG,1,100,12721
1575665292.232929,76328.667,12881,3,PG,1,100,12740
1575665292.272990,76362.333,12881,3,PG,1,100,12726
1575665292.313050,76396.000,12881,3,PG,1,100,12731
1575665292.354300,76430.667,12897,3,PG,1,100,12731
1575665292.395550,76465.333,12897,3,PG,1,100,12719
1575665292.436800,76500.000,12897,3,PG,1,100,12686
1575665292.478050,76534.667,12915,3,PG,1,100,12699
1575665292.519300,76569.333,12915,3,PG,1,100,12715
1575665292.560550,76604.000,12915,3,PG,1,100,12699
1575665292.600611,76637.667,12933,3,PG,1,100,12726
1575665292.640671,76671.333,12933,3,PG,1,100,12709
1575665292.680731,76705.000,12933,3,PG,1,100,12711
1575665292.718015,76736.333,12951,3,PG,1,100,12710
1575665292.755299,76767.667,12951,3,PG,1,100,12710
1575665292.792583,76799.000,12951,3,PG,1,100,12705
1575665292.832246,76832.333,12970,3,PG,1,100,12710
1575665292.871910,76865.667,12970,3,PG,1,100,12704
1575665292.911573,76899.000,12970,3,PG,1,100,12698
1575665292.952823,76933.667,12988,3,PG,1,100,12693
1575665292.994073,76968.333,12988,3,PG,1,100,12698
1575665293.035324,77003.000,12988,3,PG,1,100,12700
1575665293.076177,77037.333,13006,3,PG,1,100,12670
1575665293.117030,77071.667,13006,3,PG,1,100,12728
1575665293.157884,77106.000,13006,3,PG,1,100,12739
1575665293.198737,77140.333,13023,3,PG,1,100,12790
1575665293.239591,77174.667,13023,3,PG,1,100,12756
1575665293.280444,77209.000,13023,3,PG,1,100,12716
1575665293.317332,77240.000,13041,3,PG,1,100,12706
1575665293.354219,77271.000,13041,3,PG,1,100,12762
1575665293.391106,77302.000,13041,3,PG,1,100,12763
1575665293.429976,77334.667,13059,3,PG,1,100,12755
1575665293.468846,77367.333,13059,3,PG,1,100,12723
1575665293.507717,77400.000,13059,3,PG,1,100,12697
1575665293.548173,77434.000,13075,3,PG,1,100,12696
1575665293.588630,77468.000,13075,3,PG,1,100,12679
1575665293.629087,77502.000,13075,3,PG,1,100,12671
1575665293.670337,77536.667,13093,3,PG,1,100,12655
1575665293.711587,77571.333,13093,3,PG,1,100,12665
1575665293.752838,77606.000,13093,3,PG,1,100,12661
1575665293.794881,77641.333,13112,3,PG,1,100,12651
1575665293.836924,77676.667,13112,3,PG,1,100,12647
1575665293.878968,77712.000,13112,3,PG,1,100,12642
1575665293.916648,77743.667,13130,3,PG,1,100,12637
1575665293.954329,77775.333,13130,3,PG,1,100,12641
1575665293.992009,77807.000,13130,3,PG,1,100,12634
1575665294.028103,77837.333,13148,3,PG,1,100,12661
1575665294.064197,77867.667,13148,3,PG,1,100,12661
1575665294.100291,77898.000,13148,3,PG,1,100,12653
1575665294.137574,77929.333,13166,3,PG,1,100,12635
1575665294.174858,77960.667,13166,3,PG,1,100,12646
1575665294.212142,77992.000,13166,3,PG,1,100,12641
1575665294.250615,78024.333,13184,3,PG,1,100,12644
1575665294.289089,78056.667,13184,3,PG,1,100,12658
1575665294.327563,78089.000,13184,3,PG,1,100,12616
1575665294.366235,78121.500,13202,4,PG,1,100,12643
1575665294.404907,78154.000,13202,4,PG,1,100,12681
1575665294.443579,78186.500,13202,4,PG,1,100,12723
1575665294.482251,78219.000,13202,4,PG,1,100,12702
1575665294.521914,78252.333,13220,3,PG,1,100,12662
1575665294.561578,78285.667,13220,3,PG,1,100,12650
1575665294.601241,78319.000,13220,3,PG,1,100,12627
1575665294.642492,78353.667,13237,3,PG,1,100,12613
1575665294.683742,78388.333,13237,3,PG,1,100,12608
1575665294.724992,78423.000,13237,3,PG,1,100,12601
1575665294.766043,78457.500,13255,2,PG,1,100,12581
1575665294.807095,78492.000,13255,2,PG,1,100,12572
1575665294.847552,78526.000,13272,3,PG,1,100,12568
1575665294.888009,78560.000,13272,3,PG,1,100,12550
1575665294.928466,78594.000,13272,3,PG,1,100,12530
1575665294.966543,78626.000,13290,4,PG,1,100,12522
1575665295.004620,78658.000,13290,4,PG,1,100,12534
1575665295.042697,78690.000,13290,4,PG,1,100,12542
1575665295.080774,78722.000,13290,4,PG,1,100,12538
1575665295.120834,78755.667,13308,3,PG,1,100,12522
1575665295.160894,78789.333,13308,3,PG,1,100,12525
1575665295.200955,78823.000,13308,3,PG,1,100,12508
1575665295.241808,78857.333,13326,3,PG,1,100,12504
1575665295.282661,78891.667,13326,3,PG,1,100,12506
1575665295.323515,78926.000,13326,3,PG,1,100,12509
1575665295.364567,78960.500,13344,2,PG,1,100,12498
1575665295.405619,78995.000,13344,2,PG,1,100,12498
1575665295.446869,79029.667,13362,3,PG,1,100,12495
1575665295.488119,79064.333,13362,3,PG,1,100,12485
1575665295.529369,79099.000,13362,3,PG,1,100,12494
1575665295.567446,79131.000,13380,3,PG,1,100,12483
1575665295.605523,79163.000,13380,3,PG,1,100,12459
1575665295.643600,79195.000,13380,3,PG,1,100,12517
1575665295.685643,79230.333,13398,3,PG,1,100,12553
1575665295.727687,79265.667,13398,3,PG,1,100,12563
1575665295.769730,79301.000,13398,3,PG,1,100,12527
1575665295.809790,79334.667,13416,3,PG,1,100,12506
1575665295.849851,79368.333,13416,3,PG,1,100,12479
1575665295.889911,79402.000,13416,3,PG,1,100,12540
1575665295.931558,79437.000,13434,3,PG,1,100,12527
1575665295.973204,79472.000,13434,3,PG,1,100,12534
1575665296.014851,79507.000,13434,3,PG,1,100,12481
1575665296.054832,79540.600,13453,5,PG,1,100,12442
1575665296.094813,79574.200,13453,5,PG,1,100,12439
1575665296.134794,79607.800,13453,5,PG,1,100,12435
1575665296.174775,79641.400,13453,5,PG,1,100,12419
1575665296.214756,79675.000,13453,5,PG,1,100,12419
1575665296.252833,79707.000,13473,3,PG,1,100,12405
1575665296.290910,79739.000,13473,3,PG,1,100,12389
1575665296.328987,79771.000,13473,3,PG,1,100,12390
1575665296.369443,79805.000,13491,3,PG,1,100,12388
1575665296.409900,79839.000,13491,3,PG,1,100,12379
1575665296.450357,79873.000,13491,3,PG,1,100,12374
1575665296.491607,79907.667,13508,3,PG,1,100,12367
1575665296.532857,79942.333,13508,3,PG,1,100,12377
1575665296.574107,79977.000,13508,3,PG,1,100,12378
1575665296.615358,80011.667,13526,3,PG,1,100,12413
1575665296.656608,80046.333,13526,3,PG,1,100,12400
1575665296.697858,80081.000,13526,3,PG,1,100,12396
1575665296.737918,80114.667,13542,3,PG,1,100,12377
1575665296.777978,80148.333,13542,3,PG,1,100,12392
1575665296.818038,80182.000,13542,3,PG,1,100,12394
1575665296.855719,80213.667,13561,3,PG,1,100,12391
1575665296.893399,80245.333,13561,3,PG,1,100,12397
1575665296.931080,80277.000,13561,3,PG,1,100,12421
1575665296.968760,80308.667,13579,3,PG,1,100,12398
1575665297.006440,80340.333,13579,3,PG,1,100,12406
1575665297.044121,80372.000,13579,3,PG,1,100,12404
1575665297.084578,80406.000,13597,3,PG,1,100,12411
1575665297.125035,80440.000,13597,3,PG,1,100,12413
1575665297.165491,80474.000,13597,3,PG,1,100,12389
1575665297.209121,80510.667,13615,3,PG,1,100,12400
1575665297.252751,80547.333,13615,3,PG,1,100,12440
1575665297.296381,80584.000,13615,3,PG,1,100,12435
1575665297.337631,80618.667,13633,3,PG,1,100,12393
1575665297.378881,80653.333,13633,3,PG,1,100,12354
1575665297.420131,80688.000,13633,3,PG,1,100,12337
1575665297.457019,80719.000,13651,3,PG,1,100,12344
1575665297.493906,80750.000,13651,3,PG,1,100,12379
1575665297.530793,80781.000,13651,3,PG,1,100,12400
1575665297.570457,80814.333,13669,3,PG,1,100,12394
1575665297.610120,80847.667,13669,3,PG,1,100,12337
1575665297.649784,80881.000,13669,3,PG,1,100,12322
1575665297.690240,80915.000,13686,3,PG,1,100,12310
1575665297.730697,80949.000,13686,3,PG,1,100,12324
1575665297.771154,80983.000,13686,3,PG,1,100,12324
1575665297.810818,81016.333,13705,3,PG,1,100,12330
1575665297.850481,81049.667,13705,3,PG,1,100,12332
1575665297.890145,81083.000,13705,3,PG,1,100,12331
1575665297.930998,81117.333,13721,3,PG,1,100,12318
1575665297.971852,81151.667,13721,3,PG,1,100,12307
1575665298.012705,81186.000,13721,3,PG,1,100,12338
1575665298.057525,81223.667,13739,3,PG,1,100,12375
1575665298.102345,81261.333,13739,3,PG,1,100,12398
1575665298.147165,81299.000,13739,3,PG,1,100,12348
1575665298.186828,81332.333,13757,3,PG,1,100,12350
1575665298.226492,81365.667,13757,3,PG,1,100,12353
1575665298.266155,81399.000,13757,3,PG,1,100,12367
1575665298.304629,81431.333,13775,3,PG,1,100,12373
1575665298.343103,81463.667,13775,3,PG,1,100,12431
1575665298.381577,81496.000,13775,3,PG,1,100,12441
1575665298.421240,81529.333,13793,3,PG,1,100,12389
1575665298.460904,81562.667,13793,3,PG,1,100,12369
1575665298.500567,81596.000,13793,3,PG,1,100,12367
1575665298.538644,81628.000,13811,3,PG,1,100,12442
1575665298.576721,81660.000,13811,3,PG,1,100,12468
1575665298.614798,81692.000,13811,3,PG,1,100,12456
1575665298.654065,81725.000,13829,3,PG,1,100,12413
1575665298.693332,81758.000,13829,3,PG,1,100,12373
1575665298.732599,81791.000,13829,3,PG,1,100,12374
1575665298.773849,81825.667,13848,3,PG,1,100,12373
1575665298.815099,81860.333,13848,3,PG,1,100,12381
1575665298.856349,81895.000,13848,3,PG,1,100,12388
1575665298.897203,81929.333,13865,3,PG,1,100,12397
1575665298.938056,81963.667,13865,3,PG,1,100,12402
1575665298.978910,81998.000,13865,3,PG,1,100,12396
1575665299.019367,82032.000,13883,3,PG,1,100,12398
1575665299.059824,82066.000,13883,3,PG,1,100,12403
1575665299.100281,82100.000,13883,3,PG,1,100,12390
1575665299.137961,82131.667,13899,3,PG,1,100,12391
1575665299.175641,82163.333,13899,3,PG,1,100,12406
1575665299.213322,82195.000,13899,3,PG,1,100,12421
1575665299.252589,82228.000,13917,3,PG,1,100,12406
1575665299.291856,82261.000,13917,3,PG,1,100,12390
1575665299.331122,82294.000,13917,3,PG,1,100,12359
1575665299.371579,82328.000,13935,3,PG,1,100,12362
1575665299.412036,82362.000,13935,3,PG,1,100,12369
1575665299.452493,82396.000,13935,3,PG,1,100,12355
1575665299.493346,82430.333,13953,3,PG,1,100,12357
1575665299.534200,82464.667,13953,3,PG,1,100,12356
1575665299.575053,82499.000,13953,3,PG,1,100,12364
1575665299.616303,82533.667,13971,3,PG,1,100,12368
1575665299.657554,82568.333,13971,3,PG,1,100,12382
1575665299.698804,82603.000,13971,3,PG,1,100,12386
1575665299.736484,82634.667,13989,3,PG,1,100,12407
1575665299.774164,82666.333,13989,3,PG,1,100,12371
1575665299.811845,82698.000,13989,3,PG,1,100,12443
1575665299.854285,82733.667,14008,3,PG,1,100,12481
1575665299.896725,82769.333,14008,3,PG,1,100,12500
1575665299.939165,82805.000,14008,3,PG,1,100,12445
1575665299.980018,82839.333,14026,3,PG,1,100,12423
1575665300.020872,82873.667,14026,3,PG,1,100,12426
1575665300.061725,82908.000,14026,3,PG,1,100,12475
1575665300.102579,82942.333,14043,3,PG,1,100,12515
1575665300.143432,82976.667,14043,3,PG,1,100,12546
1575665300.184286,83011.000,14043,3,PG,1,100,12543
1575665300.225933,83046.000,14061,3,PG,1,100,12492
1575665300.267579,83081.000,14061,3,PG,1,100,12478
1575665300.309226,83116.000,14061,3,PG,1,100,12477
1575665300.346906,83147.667,14077,3,PG,1,100,12501
1575665300.384587,83179.333,14077,3,PG,1,100,12491
1575665300.422267,83211.000,14077,3,PG,1,100,12508
1575665300.460741,83243.333,14095,3,PG,1,100,12512
1575665300.499215,83275.667,14095,3,PG,1,100,12527
1575665300.537688,83308.000,14095,3,PG,1,100,12526
1575665300.578542,83342.333,14113,3,PG,1,100,12527
1575665300.619395,83376.667,14113,3,PG,1,100,12521
1575665300.660249,83411.000,14113,3,PG,1,100,12530
1575665300.701102,83445.333,14131,3,PG,1,100,12537
1575665300.741956,83479.667,14131,3,PG,1,100,12550
1575665300.782809,83514.000,14131,3,PG,1,100,12569
1575665300.821283,83546.333,14150,3,PG,1,100,12597
1575665300.859756,83578.667,14150,3,PG,1,100,12590
1575665300.898230,83611.000,14150,3,PG,1,100,12590
1575665300.936307,83643.000,14168,3,PG,1,100,12581
1575665300.974384,83675.000,14168,3,PG,1,100,12602
1575665301.012461,83707.000,14168,3,PG,1,100,12625
1575665301.050142,83738.667,14186,3,PG,1,100,12620
1575665301.087822,83770.333,14186,3,PG,1,100,12627
1575665301.125502,83802.000,14186,3,PG,1,100,12612
1575665301.166753,83836.667,14204,3,PG,1,100,12604
1575665301.208003,83871.333,14204,3,PG,1,100,12598
1575665301.249253,83906.000,14204,3,PG,1,100,12594
1575665301.290106,83940.333,14221,3,PG,1,100,12594
1575665301.330960,83974.667,14221,3,PG,1,100,12605
1575665301.371813,84009.000,14221,3,PG,1,100,12579
1575665301.415443,84045.667,14239,3,PG,1,100,12629
1575665301.459073,84082.333,14239,3,PG,1,100,12646
1575665301.502703,84119.000,14239,3,PG,1,100,12651
1575665301.542367,84152.333,14255,3,PG,1,100,12599
1575665301.582030,84185.667,14255,3,PG,1,100,12588
1575665301.621694,84219.000,14255,3,PG,1,100,12594
1575665301.660167,84251.333,14273,3,PG,1,100,12643
1575665301.698641,84283.667,14273,3,PG,1,100,12659
1575665301.737115,84316.000,14273,3,PG,1,100,12620
1575665301.775192,84348.000,14292,3,PG,1,100,12608
1575665301.813269,84380.000,14292,3,PG,1,100,12593
1575665301.851346,84412.000,14292,3,PG,1,100,12576
1575665301.888630,84443.333,14310,3,PG,1,100,12560
1575665301.925913,84474.667,14310,3,PG,1,100,12581
1575665301.963197,84506.000,14310,3,PG,1,100,12596
1575665302.003356,84539.750,14328,4,PG,1,100,12615
1575665302.043516,84573.500,14328,4,PG,1,100,12596
1575665302.083675,84607.250,14328,4,PG,1,100,12534
1575665302.123835,84641.000,14328,4,PG,1,100,12573
1575665302.163994,84674.750,14349,4,PG,1,100,12565
1575665302.204153,84708.500,14349,4,PG,1,100,12569
1575665302.244313,84742.250,14349,4,PG,1,100,12563
1575665302.284472,84776.000,14349,4,PG,1,100,12557
1575665302.325722,84810.667,14369,3,PG,1,100,12553
1575665302.366972,84845.333,14369,3,PG,1,100,12513
1575665302.408222,84880.000,14369,3,PG,1,100,12489
1575665302.449869,84915.000,14385,3,PG,1,100,12455
1575665302.491516,84950.000,14385,3,PG,1,100,12480
1575665302.533163,84985.000,14385,3,PG,1,100,12506
1575665302.573223,85018.667,14403,3,PG,1,100,12516
1575665302.613283,85052.333,14403,3,PG,1,100,12488
1575665302.653343,85086.000,14403,3,PG,1,100,12431
1575665302.691024,85117.667,14421,3,PG,1,100,12413
1575665302.728704,85149.333,14421,3,PG,1,100,12422
1575665302.766384,85181.000,14421,3,PG,1,100,12471
1575665302.806048,85214.333,14440,3,PG,1,100,12489
1575665302.845712,85247.667,14440,3,PG,1,100,12516
1575665302.885375,85281.000,14440,3,PG,1,100,12480
1575665302.925832,85315.000,14458,3,PG,1,100,12460
1575665302.966289,85349.000,14458,3,PG,1,100,12455
1575665303.006746,85383.000,14458,3,PG,1,100,12458
1575665303.047996,85417.667,14476,3,PG,1,100,12477
1575665303.089246,85452.333,14476,3,PG,1,100,12488
1575665303.130496,85487.000,14476,3,PG,1,100,12510
1575665303.170953,85521.000,14493,3,PG,1,100,12517
1575665303.211410,85555.000,14493,3,PG,1,100,12530
1575665303.251867,85589.000,14493,3,PG,1,100,12551
1575665303.289547,85620.667,14511,3,PG,1,100,12568
1575665303.327227,85652.333,14511,3,PG,1,100,12564
1575665303.364908,85684.000,14511,3,PG,1,100,12566
1575665303.403778,85716.667,14529,3,PG,1,100,12602
1575665303.442648,85749.333,14529,3,PG,1,100,12618
1575665303.481519,85782.000,14529,3,PG,1,100,12640
1575665303.521182,85815.333,14547,3,PG,1,100,12659
1575665303.560846,85848.667,14547,3,PG,1,100,12655
1575665303.600509,85882.000,14547,3,PG,1,100,12628
1575665303.641363,85916.333,14563,3,PG,1,100,12654
1575665303.682216,85950.667,14563,3,PG,1,100,12651
1575665303.723070,85985.000,14563,3,PG,1,100,12663
1575665303.764320,86019.667,14582,3,PG,1,100,12659
1575665303.805570,86054.333,14582,3,PG,1,100,12659
1575665303.846820,86089.000,14582,3,PG,1,100,12656
1575665303.884104,86120.333,14600,3,PG,1,100,12659
1575665303.921388,86151.667,14600,3,PG,1,100,12676
1575665303.958672,86183.000,14600,3,PG,1,100,12668
1575665303.997938,86216.000,14618,4,PG,1,100,12667
1575665304.037205,86249.000,14618,4,PG,1,100,12660
1575665304.076472,86282.000,14618,4,PG,1,100,12721
1575665304.115739,86315.000,14618,4,PG,1,100,12736
1575665304.162740,86354.500,14636,2,PG,1,100,12777
1575665304.209742,86394.000,14636,2,PG,1,100,12724
1575665304.250992,86428.667,14654,3,PG,1,100,12702
1575665304.292242,86463.333,14654,3,PG,1,100,12697
1575665304.333492,86498.000,14654,3,PG,1,100,12743
1575665304.375536,86533.333,14672,3,PG,1,100,12775
1575665304.417579,86568.667,14672,3,PG,1,100,12781
1575665304.459622,86604.000,14672,3,PG,1,100,12777
1575665304.496906,86635.333,14689,3,PG,1,100,12766
1575665304.534190,86666.667,14689,3,PG,1,100,12756
1575665304.571474,86698.000,14689,3,PG,1,100,12770
1575665304.607171,86728.000,14707,3,PG,1,100,12783
1575665304.642868,86758.000,14707,3,PG,1,100,12800
1575665304.678565,86788.000,14707,3,PG,1,100,12812
1575665304.719022,86822.000,14725,3,PG,1,100,12835
1575665304.759479,86856.000,14725,3,PG,1,100,12806
1575665304.799936,86890.000,14725,3,PG,1,100,12815
1575665304.841186,86924.667,14742,3,PG,1,100,12827
1575665304.882436,86959.333,14742,3,PG,1,100,12811
1575665304.923686,86994.000,14742,3,PG,1,100,12803
1575665304.965333,87029.000,14760,3,PG,1,100,12809
1575665305.006980,87064.000,14760,3,PG,1,100,12821
1575665305.048626,87099.000,14760,3,PG,1,100,12825
1575665305.086307,87130.667,14778,3,PG,1,100,12843
1575665305.123987,87162.333,14778,3,PG,1,100,12840
1575665305.161668,87194.000,14778,3,PG,1,100,12844
1575665305.200042,87226.250,14796,4,PG,1,100,12824
1575665305.238417,87258.500,14796,4,PG,1,100,12837
1575665305.276791,87290.750,14796,4,PG,1,100,12839
1575665305.315166,87323.000,14796,4,PG,1,100,12838
1575665305.356217,87357.500,14814,2,PG,1,100,12840
1575665305.397269,87392.000,14814,2,PG,1,100,12850
1575665305.442486,87430.000,14832,3,PG,1,100,12848
1575665305.487702,87468.000,14832,3,PG,1,100,12842
1575665305.532919,87506.000,14832,3,PG,1,100,12859
1575665305.574169,87540.667,14850,3,PG,1,100,12853
1575665305.615419,87575.333,14850,3,PG,1,100,12858
1575665305.656669,87610.000,14850,3,PG,1,100,12856
1575665305.694746,87642.000,14867,3,PG,1,100,12894
1575665305.732823,87674.000,14867,3,PG,1,100,12888
1575665305.770900,87706.000,14867,3,PG,1,100,12904
1575665305.812547,87741.000,14886,3,PG,1,100,12900
1575665305.854194,87776.000,14886,3,PG,1,100,12906
1575665305.895840,87811.000,14886,3,PG,1,100,12918
1575665305.934711,87843.667,14902,3,PG,1,100,12911
1575665305.973581,87876.333,14902,3,PG,1,100,12904
1575665306.012451,87909.000,14902,3,PG,1,100,12886
1575665306.050528,87941.000,14920,3,PG,1,100,12882
1575665306.088605,87973.000,14920,3,PG,1,100,12859
1575665306.126682,88005.000,14920,3,PG,1,100,12879
1575665306.171106,88042.333,14938,3,PG,1,100,12858
1575665306.215529,88079.667,14938,3,PG,1,100,12916
1575665306.259952,88117.000,14938,3,PG,1,100,12941
1575665306.295649,88147.000,14956,3,PG,1,100,12929
1575665306.331346,88177.000,14956,3,PG,1,100,12917
1575665306.367043,88207.000,14956,3,PG,1,100,12925
1575665306.407897,88241.333,14974,3,PG,1,100,12929
1575665306.448750,88275.667,14974,3,PG,1,100,12934
1575665306.489604,88310.000,14974,3,PG,1,100,12938
1575665306.530854,88344.667,14992,3,PG,1,100,12949
1575665306.572104,88379.333,14992,3,PG,1,100,12938
1575665306.613354,88414.000,14992,3,PG,1,100,12951
1575665306.655398,88449.333,15010,3,PG,1,100,12933
1575665306.697441,88484.667,15010,3,PG,1,100,12992
1575665306.739485,88520.000,15010,3,PG,1,100,13008
1575665306.778355,88552.667,15028,3,PG,1,100,13032
1575665306.817225,88585.333,15028,3,PG,1,100,13008
1575665306.856096,88618.000,15028,3,PG,1,100,12975
1575665306.893776,88649.667,15046,3,PG,1,100,12975
1575665306.931456,88681.333,15046,3,PG,1,100,13045
1575665306.969137,88713.000,15046,3,PG,1,100,13067
1575665307.009197,88746.667,15064,3,PG,1,100,13075
1575665307.049257,88780.333,15064,3,PG,1,100,13058
1575665307.089317,88814.000,15064,3,PG,1,100,13044
1575665307.130567,88848.667,15082,3,PG,1,100,13041
1575665307.171818,88883.333,15082,3,PG,1,100,13040
1575665307.213068,88918.000,15082,3,PG,1,100,13029
1575665307.254714,88953.000,15098,3,PG,1,100,13037
1575665307.296361,88988.000,15098,3,PG,1,100,13040
1575665307.338008,89023.000,15098,3,PG,1,100,13019
1575665307.376878,89055.667,15116,3,PG,1,100,13021
1575665307.415748,89088.333,15116,3,PG,1,100,13021
1575665307.454619,89121.000,15116,3,PG,1,100,13022
1575665307.492299,89152.667,15134,3,PG,1,100,13012
1575665307.529979,89184.333,15134,3,PG,1,100,13006
1575665307.567660,89216.000,15134,3,PG,1,100,13022
1575665307.607324,89249.333,15152,3,PG,1,100,13035
1575665307.646987,89282.667,15152,3,PG,1,100,13044
1575665307.686651,89316.000,15152,3,PG,1,100,13054
1575665307.727901,89350.667,15170,3,PG,1,100,13046
1575665307.769151,89385.333,15170,3,PG,1,100,13048
1575665307.810401,89420.000,15170,3,PG,1,100,13049
1575665307.851651,89454.667,15189,3,PG,1,100,13051
1575665307.892901,89489.333,15189,3,PG,1,100,13062
1575665307.934151,89524.000,15189,3,PG,1,100,13074
1575665307.974212,89557.667,15206,3,PG,1,100,13077
1575665308.014272,89591.333,15206,3,PG,1,100,13081
1575665308.054332,89625.000,15206,3,PG,1,100,13078
1575665308.091616,89656.333,15224,3,PG,1,100,13073
1575665308.128900,89687.667,15224,3,PG,1,100,13080
1575665308.166183,89719.000,15224,3,PG,1,100,13081
1575665308.208782,89754.800,15245,5,PG,1,100,13089
1575665308.251381,89790.600,15245,5,PG,1,100,13092
1575665308.293979,89826.400,15245,5,PG,1,100,13141
1575665308.336578,89862.200,15245,5,PG,1,100,13155
1575665308.379177,89898.000,15245,5,PG,1,100,13163
1575665308.420030,89932.333,15265,3,PG,1,100,13131
1575665308.460884,89966.667,15265,3,PG,1,100,13098
1575665308.501737,90001.000,15265,3,PG,1,100,13077
1575665308.540607,90033.667,15283,3,PG,1,100,13155
1575665308.579478,90066.333,15283,3,PG,1,100,13164
1575665308.618348,90099.000,15283,3,PG,1,100,13196
1575665308.654442,90129.333,15301,3,PG,1,100,13140
1575665308.690536,90159.667,15301,3,PG,1,100,13127
1575665308.726629,90190.000,15301,3,PG,1,100,13123
1575665308.765897,90223.000,15320,3,PG,1,100,13131
1575665308.805163,90256.000,15320,3,PG,1,100,13142
1575665308.844430,90289.000,15320,3,PG,1,100,13144
1575665308.884490,90322.667,15337,3,PG,1,100,13150
1575665308.924551,90356.333,15337,3,PG,1,100,13153
1575665308.964611,90390.000,15337,3,PG,1,100,13155
1575665309.006258,90425.000,15355,3,PG,1,100,13165
1575665309.047904,90460.000,15355,3,PG,1,100,13167
1575665309.089551,90495.000,15355,3,PG,1,100,13171
1575665309.130801,90529.667,15371,3,PG,1,100,13189
1575665309.172051,90564.333,15371,3,PG,1,100,13210
1575665309.213302,90599.000,15371,3,PG,1,100,13246
1575665309.254155,90633.333,15389,3,PG,1,100,13225
1575665309.295009,90667.667,15389,3,PG,1,100,13234
1575665309.335862,90702.000,15389,3,PG,1,100,13228
1575665309.374732,90734.667,15407,3,PG,1,100,13233
1575665309.413603,90767.333,15407,3,PG,1,100,13247
1575665309.452473,90800.000,15407,3,PG,1,100,13247
1575665309.486980,90829.000,15425,3,PG,1,100,13259
1575665309.521487,90858.000,15425,3,PG,1,100,13261
1575665309.555995,90887.000,15425,3,PG,1,100,13258
1575665309.594964,90919.750,15443,4,PG,1,100,13277
1575665309.633934,90952.500,15443,4,PG,1,100,13284
1575665309.672903,90985.250,15443,4,PG,1,100,13287
1575665309.711873,91018.000,15443,4,PG,1,100,13298
1575665309.751734,91051.500,15461,2,PG,1,100,13294
1575665309.791596,91085.000,15461,2,PG,1,100,13264
1575665309.832847,91119.667,15480,3,PG,1,100,13288
1575665309.874097,91154.333,15480,3,PG,1,100,13280
1575665309.915347,91189.000,15480,3,PG,1,100,13290
1575665309.957390,91224.333,15498,3,PG,1,100,13278
1575665309.999434,91259.667,15498,3,PG,1,100,13278
1575665310.041477,91295.000,15498,3,PG,1,100,13271
1575665310.079951,91327.333,15515,3,PG,1,100,13268
1575665310.118424,91359.667,15515,3,PG,1,100,13276
1575665310.156898,91392.000,15515,3,PG,1,100,13252
1575665310.194975,91424.000,15533,3,PG,1,100,13256
1575665310.233052,91456.000,15533,3,PG,1,100,13273
1575665310.271129,91488.000,15533,3,PG,1,100,13324
1575665310.315552,91525.333,15551,3,PG,1,100,13331
1575665310.359976,91562.667,15551,3,PG,1,100,13348
1575665310.404399,91600.000,15551,3,PG,1,100,13296
1575665310.442178,91631.750,15567,4,PG,1,100,13277
1575665310.479958,91663.500,15567,4,PG,1,100,13306
1575665310.517737,91695.250,15567,4,PG,1,100,13341
1575665310.555517,91727.000,15567,4,PG,1,100,13324
1575665310.597164,91762.000,15585,2,PG,1,100,13326
1575665310.638810,91797.000,15585,2,PG,1,100,13329
1575665310.679267,91831.000,15603,3,PG,1,100,13324
1575665310.719724,91865.000,15603,3,PG,1,100,13343
1575665310.760181,91899.000,15603,3,PG,1,100,13375
1575665310.801828,91934.000,15622,3,PG,1,100,13390
1575665310.843474,91969.000,15622,3,PG,1,100,13398
1575665310.885121,92004.000,15622,3,PG,1,100,13373
1575665310.923198,92036.000,15640,3,PG,1,100,13355
1575665310.961275,92068.000,15640,3,PG,1,100,13309
1575665310.999352,92100.000,15640,3,PG,1,100,13338
1575665311.038024,92132.500,15658,4,PG,1,100,13388
1575665311.076696,92165.000,15658,4,PG,1,100,13425
1575665311.115368,92197.500,15658,4,PG,1,100,13419
1575665311.154040,92230.000,15658,4,PG,1,100,13389
1575665311.194497,92264.000,15676,3,PG,1,100,13379
1575665311.234954,92298.000,15676,3,PG,1,100,13389
1575665311.275411,92332.000,15676,3,PG,1,100,13394
1575665311.315868,92366.000,15694,2,PG,1,100,13397
1575665311.356324,92400.000,15694,2,PG,1,100,13433
1575665311.397971,92435.000,15711,3,PG,1,100,13427
1575665311.439618,92470.000,15711,3,PG,1,100,13438
1575665311.481265,92505.000,15711,3,PG,1,100,13443
1575665311.520135,92537.667,15729,3,PG,1,100,13440
1575665311.559005,92570.333,15729,3,PG,1,100,13444
1575665311.597876,92603.000,15729,3,PG,1,100,13421
1575665311.636250,92635.250,15745,4,PG,1,100,13456
1575665311.674625,92667.500,15745,4,PG,1,100,13467
1575665311.712999,92699.750,15745,4,PG,1,100,13472
1575665311.751374,92732.000,15745,4,PG,1,100,13465
1575665311.791831,92766.000,15764,3,PG,1,100,13455
1575665311.832287,92800.000,15764,3,PG,1,100,13454
1575665311.872744,92834.000,15764,3,PG,1,100,13447
1575665311.914391,92869.000,15782,2,PG,1,100,13443
1575665311.956038,92904.000,15782,2,PG,1,100,13445
1575665311.997288,92938.667,15800,3,PG,1,100,13460
1575665312.038538,92973.333,15800,3,PG,1,100,13451
1575665312.079788,93008.000,15800,3,PG,1,100,13449
1575665312.119848,93041.667,15818,3,PG,1,100,13448
1575665312.159909,93075.333,15818,3,PG,1,100,13443
1575665312.199969,93109.000,15818,3,PG,1,100,13451
1575665312.237748,93140.750,15836,4,PG,1,100,13443
1575665312.275528,93172.500,15836,4,PG,1,100,13428
1575665312.313307,93204.250,15836,4,PG,1,100,13441
1575665312.351087,93236.000,15836,4,PG,1,100,13472
1575665312.394518,93272.500,15854,2,PG,1,100,13509
1575665312.437950,93309.000,15854,2,PG,1,100,13523
1575665312.478804,93343.333,15872,3,PG,1,100,13548
1575665312.519657,93377.667,15872,3,PG,1,100,13484
1575665312.560510,93412.000,15872,3,PG,1,100,13459
1575665312.601761,93446.667,15889,3,PG,1,100,13471
1575665312.643011,93481.333,15889,3,PG,1,100,13518
1575665312.684261,93516.000,15889,3,PG,1,100,13554
1575665312.723924,93549.333,15907,3,PG,1,100,13571
1575665312.763588,93582.667,15907,3,PG,1,100,13541
1575665312.803252,93616.000,15907,3,PG,1,100,13528
1575665312.840139,93647.000,15924,4,PG,1,100,13525
1575665312.877026,93678.000,15924,4,PG,1,100,13523
1575665312.913913,93709.000,15924,4,PG,1,100,13509
1575665312.950800,93740.000,15924,4,PG,1,100,13510
1575665312.991653,93774.333,15942,3,PG,1,100,13524
1575665313.032507,93808.667,15942,3,PG,1,100,13510
1575665313.073360,93843.000,15942,3,PG,1,100,13526
1575665313.119172,93881.500,15960,2,PG,1,100,13506
1575665313.164983,93920.000,15960,2,PG,1,100,13488
1575665313.203457,93952.333,15978,3,PG,1,100,13476
1575665313.241931,93984.667,15978,3,PG,1,100,13491
1575665313.280404,94017.000,15978,3,PG,1,100,13499
1575665313.321655,94051.667,15996,3,PG,1,100,13489
1575665313.362905,94086.333,15996,3,PG,1,100,13484
1575665313.404155,94121.000,15996,3,PG,1,100,13474
1575665313.445801,94156.000,16014,3,PG,1,100,13477
1575665313.487448,94191.000,16014,3,PG,1,100,13476
1575665313.529095,94226.000,16014,3,PG,1,100,13490
1575665313.569948,94260.333,16032,3,PG,1,100,13497
1575665313.610802,94294.667,16032,3,PG,1,100,13497
1575665313.651655,94329.000,16032,3,PG,1,100,13502
1575665313.689336,94360.667,16049,3,PG,1,100,13486
1575665313.727016,94392.333,16049,3,PG,1,100,13474
1575665313.764697,94424.000,16049,3,PG,1,100,13478
1575665313.804757,94457.667,16068,3,PG,1,100,13495
1575665313.844817,94491.333,16068,3,PG,1,100,13494
1575665313.884877,94525.000,16068,3,PG,1,100,13505
1575665313.924937,94558.667,16086,3,PG,1,100,13511
1575665313.964998,94592.333,16086,3,PG,1,100,13509
1575665314.005058,94626.000,16086,3,PG,1,100,13492
1575665314.045911,94660.333,16102,3,PG,1,100,13497
1575665314.086765,94694.667,16102,3,PG,1,100,13487
1575665314.127618,94729.000,16102,3,PG,1,100,13483
1575665314.169265,94764.000,16120,3,PG,1,100,13474
1575665314.210912,94799.000,16120,3,PG,1,100,13477
1575665314.252558,94834.000,16120,3,PG,1,100,13461
1575665314.290398,94865.800,16141,5,PG,1,100,13456
1575665314.328237,94897.600,16141,5,PG,1,100,13468
1575665314.366076,94929.400,16141,5,PG,1,100,13435
1575665314.403915,94961.200,16141,5,PG,1,100,13428
1575665314.441754,94993.000,16141,5,PG,1,100,13432
1575665314.484987,95029.333,16161,3,PG,1,100,13453
1575665314.528220,95065.667,16161,3,PG,1,100,13472
1575665314.571454,95102.000,16161,3,PG,1,100,13503
1575665314.612307,95136.333,16179,3,PG,1,100,13457
1575665314.653161,95170.667,16179,3,PG,1,100,13430
1575665314.694014,95205.000,16179,3,PG,1,100,13426
1575665314.735264,95239.667,16195,3,PG,1,100,13452
1575665314.776514,95274.333,16195,3,PG,1,100,13483
1575665314.817765,95309.000,16195,3,PG,1,100,13513
1575665314.856635,95341.667,16214,3,PG,1,100,13521
1575665314.895505,95374.333,16214,3,PG,1,100,13465
1575665314.934375,95407.000,16214,3,PG,1,100,13451
1575665314.972452,95439.000,16232,3,PG,1,100,13456
1575665315.010529,95471.000,16232,3,PG,1,100,13473
1575665315.048606,95503.000,16232,3,PG,1,100,13458
1575665315.088270,95536.333,16250,3,PG,1,100,13490
1575665315.127934,95569.667,16250,3,PG,1,100,13499
1575665315.167597,95603.000,16250,3,PG,1,100,13505
1575665315.208451,95637.333,16268,3,PG,1,100,13509
1575665315.249304,95671.667,16268,3,PG,1,100,13501
1575665315.290158,95706.000,16268,3,PG,1,100,13492
1575665315.331804,95741.000,16286,3,PG,1,100,13498
1575665315.373451,95776.000,16286,3,PG,1,100,13495
1575665315.415098,95811.000,16286,3,PG,1,100,13505
1575665315.455158,95844.667,16304,3,PG,1,100,13502
1575665315.495218,95878.333,16304,3,PG,1,100,13512
1575665315.535279,95912.000,16304,3,PG,1,100,13484
1575665315.573355,95944.000,16321,3,PG,1,100,13501
1575665315.611433,95976.000,16321,3,PG,1,100,13477
1575665315.649510,96008.000,16321,3,PG,1,100,13477
1575665315.688380,96040.667,16339,3,PG,1,100,13480
1575665315.727250,96073.333,16339,3,PG,1,100,13483
1575665315.766120,96106.000,16339,3,PG,1,100,13476
1575665315.806974,96140.333,16358,3,PG,1,100,13484
1575665315.847827,96174.667,16358,3,PG,1,100,13482
1575665315.888681,96209.000,16358,3,PG,1,100,13470
1575665315.927551,96241.667,16376,3,PG,1,100,13468
1575665315.966422,96274.333,16376,3,PG,1,100,13471
1575665316.005292,96307.000,16376,3,PG,1,100,13474
1575665316.044955,96340.333,16392,3,PG,1,100,13463
1575665316.084619,96373.667,16392,3,PG,1,100,13450
1575665316.124283,96407.000,16392,3,PG,1,100,13517
1575665316.165136,96441.333,16410,3,PG,1,100,13539
1575665316.205989,96475.667,16410,3,PG,1,100,13538
1575665316.246843,96510.000,16410,3,PG,1,100,13506
1575665316.284127,96541.333,16428,3,PG,1,100,13476
1575665316.321410,96572.667,16428,3,PG,1,100,13483
1575665316.358694,96604.000,16428,3,PG,1,100,13533
1575665316.399151,96638.000,16446,3,PG,1,100,13550
1575665316.439608,96672.000,16446,3,PG,1,100,13584
1575665316.480065,96706.000,16446,3,PG,1,100,13551
1575665316.521315,96740.667,16464,3,PG,1,100,13510
1575665316.562565,96775.333,16464,3,PG,1,100,13506
1575665316.603815,96810.000,16464,3,PG,1,100,13502
1575665316.644669,96844.333,16482,3,PG,1,100,13498
1575665316.685522,96878.667,16482,3,PG,1,100,13495
1575665316.726376,96913.000,16482,3,PG,1,100,13504
1575665316.765642,96946.000,16501,3,PG,1,100,13489
1575665316.804909,96979.000,16501,3,PG,1,100,13474
1575665316.844176,97012.000,16501,3,PG,1,100,13476
1575665316.881063,97043.000,16518,4,PG,1,100,13470
1575665316.917951,97074.000,16518,4,PG,1,100,13484
1575665316.954838,97105.000,16518,4,PG,1,100,13510
1575665316.991725,97136.000,16518,4,PG,1,100,13500
1575665317.033372,97171.000,16536,2,PG,1,100,13491
1575665317.075018,97206.000,16536,2,PG,1,100,13467
1575665317.113690,97238.500,16554,4,PG,1,100,13454
1575665317.152362,97271.000,16554,4,PG,1,100,13457
1575665317.191034,97303.500,16554,4,PG,1,100,13485
1575665317.229706,97336.000,16554,4,PG,1,100,13499
1575665317.266593,97367.000,16572,3,PG,1,100,13503
1575665317.303481,97398.000,16572,3,PG,1,100,13470
1575665317.340368,97429.000,16572,3,PG,1,100,13437
1575665317.380825,97463.000,16588,3,PG,1,100,13453
1575665317.421281,97497.000,16588,3,PG,1,100,13506
1575665317.461738,97531.000,16588,3,PG,1,100,13529
1575665317.502988,97565.667,16606,3,PG,1,100,13533
1575665317.544238,97600.333,16606,3,PG,1,100,13498
1575665317.585489,97635.000,16606,3,PG,1,100,13468
1575665317.627532,97670.333,16624,3,PG,1,100,13464
1575665317.669575,97705.667,16624,3,PG,1,100,13463
1575665317.711619,97741.000,16624,3,PG,1,100,13468
1575665317.750886,97774.000,16642,3,PG,1,100,13474
1575665317.790153,97807.000,16642,3,PG,1,100,13475
1575665317.829420,97840.000,16642,3,PG,1,100,13468
1575665317.867100,97871.667,16661,3,PG,1,100,13469
1575665317.904780,97903.333,16661,3,PG,1,100,13461
1575665317.942461,97935.000,16661,3,PG,1,100,13464
1575665317.982918,97969.000,16679,3,PG,1,100,13432
1575665318.023374,98003.000,16679,3,PG,1,100,13438
1575665318.063831,98037.000,16679,3,PG,1,100,13452
1575665318.104288,98071.000,16697,3,PG,1,100,13447
1575665318.144745,98105.000,16697,3,PG,1,100,13451
1575665318.185202,98139.000,16697,3,PG,1,100,13455
1575665318.226849,98174.000,16714,3,PG,1,100,13450
1575665318.268495,98209.000,16714,3,PG,1,100,13448
1575665318.310142,98244.000,16714,3,PG,1,100,13436
1575665318.350202,98277.667,16732,3,PG,1,100,13441
1575665318.390262,98311.333,16732,3,PG,1,100,13443
1575665318.430323,98345.000,16732,3,PG,1,100,13439
1575665318.468003,98376.667,16749,3,PG,1,100,13439
1575665318.505683,98408.333,16749,3,PG,1,100,13437
1575665318.543364,98440.000,16749,3,PG,1,100,13430
1575665318.582631,98473.000,16766,3,PG,1,100,13438
1575665318.621898,98506.000,16766,3,PG,1,100,13432
1575665318.661165,98539.000,16766,3,PG,1,100,13414
1575665318.705191,98576.000,16784,3,PG,1,100,13436
1575665318.749218,98613.000,16784,3,PG,1,100,13483
1575665318.793244,98650.000,16784,3,PG,1,100,13500
1575665318.834098,98684.333,16803,3,PG,1,100,13532
1575665318.874951,98718.667,16803,3,PG,1,100,13476
1575665318.915805,98753.000,16803,3,PG,1,100,13455
1575665318.958046,98788.500,16821,2,PG,1,100,13439
1575665319.000288,98824.000,16821,2,PG,1,100,13486
1575665319.037770,98855.500,16839,4,PG,1,100,13536
1575665319.075252,98887.000,16839,4,PG,1,100,13559
1575665319.112734,98918.500,16839,4,PG,1,100,13528
1575665319.150217,98950.000,16839,4,PG,1,100,13499
1575665319.189483,98983.000,16857,3,PG,1,100,13489
1575665319.228750,99016.000,16857,3,PG,1,100,13483
1575665319.268017,99049.000,16857,3,PG,1,100,13485
1575665319.308871,99083.333,16875,3,PG,1,100,13509
1575665319.349724,99117.667,16875,3,PG,1,100,13493
1575665319.390578,99152.000,16875,3,PG,1,100,13490
1575665319.431828,99186.667,16893,3,PG,1,100,13483
1575665319.473078,99221.333,16893,3,PG,1,100,13486
1575665319.514328,99256.000,16893,3,PG,1,100,13481
1575665319.556570,99291.500,16910,2,PG,1,100,13485
1575665319.598811,99327.000,16910,2,PG,1,100,13460
1575665319.636889,99359.000,16928,4,PG,1,100,13487
1575665319.674966,99391.000,16928,4,PG,1,100,13497
1575665319.713042,99423.000,16928,4,PG,1,100,13496
1575665319.751120,99455.000,16928,4,PG,1,100,13512
1575665319.788007,99486.000,16946,3,PG,1,100,13505
1575665319.824894,99517.000,16946,3,PG,1,100,13512
1575665319.861781,99548.000,16946,3,PG,1,100,13512
1575665319.902238,99582.000,16963,3,PG,1,100,13509
1575665319.942695,99616.000,16963,3,PG,1,100,13506
1575665319.983151,99650.000,16963,3,PG,1,100,13526
1575665320.024402,99684.667,16981,3,PG,1,100,13517
1575665320.065652,99719.333,16981,3,PG,1,100,13508
1575665320.106902,99754.000,16981,3,PG,1,100,13498
1575665320.148549,99789.000,16999,3,PG,1,100,13504
1575665320.190195,99824.000,16999,3,PG,1,100,13503
1575665320.231842,99859.000,16999,3,PG,1,100,13485
1575665320.268729,99890.000,17017,3,PG,1,100,13489
1575665320.305616,99921.000,17017,3,PG,1,100,13541
1575665320.342504,99952.000,17017,3,PG,1,100,13572
1575665320.382960,99986.000,17038,5,PG,1,100,13581
1575665320.423417,100020.000,17038,5,PG,1,100,13548
1575665320.463874,100054.000,17038,5,PG,1,100,13497
1575665320.504331,100088.000,17038,5,PG,1,100,13502
1575665320.544788,100122.000,17038,5,PG,1,100,13496
1575665320.583658,100154.667,17058,3,PG,1,100,13542
1575665320.622528,100187.333,17058,3,PG,1,100,13566
1575665320.661399,100220.000,17058,3,PG,1,100,13552
1575665320.701855,100254.000,17075,3,PG,1,100,13481
1575665320.742312,100288.000,17075,3,PG,1,100,13480
1575665320.782769,100322.000,17075,3,PG,1,100,13464
1575665320.824416,100357.000,17094,2,PG,1,100,13482
1575665320.866063,100392.000,17094,2,PG,1,100,13512
1575665320.911279,100430.000,17112,3,PG,1,100,13511
1575665320.956496,100468.000,17112,3,PG,1,100,13523
1575665321.001712,100506.000,17112,3,PG,1,100,13467
1575665321.040186,100538.333,17130,3,PG,1,100,13446
1575665321.078659,100570.667,17130,3,PG,1,100,13464
1575665321.117133,100603.000,17130,3,PG,1,100,13475
1575665321.158780,100638.000,17148,3,PG,1,100,13469
1575665321.200427,100673.000,17148,3,PG,1,100,13460
1575665321.242073,100708.000,17148,3,PG,1,100,13454
1575665321.281737,100741.333,17165,3,PG,1,100,13443
1575665321.321400,100774.667,17165,3,PG,1,100,13451
1575665321.361064,100808.000,17165,3,PG,1,100,13411
1575665321.398744,100839.667,17183,3,PG,1,100,13462
1575665321.436425,100871.333,17183,3,PG,1,100,13501
1575665321.474105,100903.000,17183,3,PG,1,100,13518
1575665321.513372,100936.000,17201,3,PG,1,100,13497
1575665321.552639,100969.000,17201,3,PG,1,100,13454
1575665321.591906,101002.000,17201,3,PG,1,100,13451
1575665321.632760,101036.333,17217,3,PG,1,100,13489
1575665321.673613,101070.667,17217,3,PG,1,100,13515
1575665321.714467,101105.000,17217,3,PG,1,100,13511
1575665321.755717,101139.667,17236,3,PG,1,100,13509
1575665321.796967,101174.333,17236,3,PG,1,100,13450
1575665321.838217,101209.000,17236,3,PG,1,100,13451
1575665321.878674,101243.000,17254,3,PG,1,100,13443
1575665321.919131,101277.000,17254,3,PG,1,100,13452
1575665321.959587,101311.000,17254,3,PG,1,100,13448
1575665321.997664,101343.000,17272,3,PG,1,100,13459
1575665322.035741,101375.000,17272,3,PG,1,100,13458
1575665322.073818,101407.000,17272,3,PG,1,100,13461
1575665322.112292,101439.333,17290,3,PG,1,100,13471
1575665322.150766,101471.667,17290,3,PG,1,100,13473
1575665322.189240,101504.000,17290,3,PG,1,100,13462
1575665322.230093,101538.333,17308,3,PG,1,100,13467
1575665322.270947,101572.667,17308,3,PG,1,100,13486
1575665322.311800,101607.000,17308,3,PG,1,100,13493
1575665322.353050,101641.667,17326,3,PG,1,100,13503
1575665322.394300,101676.333,17326,3,PG,1,100,13516
1575665322.435550,101711.000,17326,3,PG,1,100,13496
1575665322.476800,101745.667,17343,3,PG,1,100,13496
1575665322.518050,101780.333,17343,3,PG,1,100,13474
1575665322.559301,101815.000,17343,3,PG,1,100,13478
1575665322.597080,101846.750,17361,4,PG,1,100,13495
1575665322.634860,101878.500,17361,4,PG,1,100,13480
1575665322.672639,101910.250,17361,4,PG,1,100,13485
1575665322.710419,101942.000,17361,4,PG,1,100,13477
1575665322.750082,101975.333,17379,3,PG,1,100,13475
1575665322.789746,102008.667,17379,3,PG,1,100,13475
1575665322.829410,102042.000,17379,3,PG,1,100,13468
1575665322.869866,102076.000,17396,2,PG,1,100,13463
1575665322.910323,102110.000,17396,2,PG,1,100,13477
1575665322.955936,102148.333,17414,3,PG,1,100,13472
1575665323.001549,102186.667,17414,3,PG,1,100,13506
1575665323.047163,102225.000,17414,3,PG,1,100,13508
1575665323.088413,102259.667,17432,3,PG,1,100,13486
1575665323.129663,102294.333,17432,3,PG,1,100,13447
1575665323.170913,102329.000,17432,3,PG,1,100,13432
1575665323.208593,102360.667,17450,3,PG,1,100,13452
1575665323.246274,102392.333,17450,3,PG,1,100,13496
1575665323.283954,102424.000,17450,3,PG,1,100,13515
1575665323.322031,102456.000,17468,3,PG,1,100,13495
1575665323.360108,102488.000,17468,3,PG,1,100,13461
1575665323.398185,102520.000,17468,3,PG,1,100,13441
1575665323.438642,102554.000,17486,3,PG,1,100,13434
1575665323.479099,102588.000,17486,3,PG,1,100,13436
1575665323.519556,102622.000,17486,3,PG,1,100,13458
1575665323.561203,102657.000,17504,3,PG,1,100,13436
1575665323.602849,102692.000,17504,3,PG,1,100,13440
1575665323.644496,102727.000,17504,3,PG,1,100,13441
1575665323.685349,102761.333,17521,3,PG,1,100,13434
1575665323.726203,102795.667,17521,3,PG,1,100,13449
1575665323.767056,102830.000,17521,3,PG,1,100,13444
1575665323.802456,102859.750,17540,4,PG,1,100,13421
