EpochTimestamp,EmotiBitTimestamp,PacketNumber,DataLength,TypeTag,ProtocolVersion,DataReliability,EL
1576765092.272590,44674.000,7303,3,EL,1,100,0.407424
1576765092.272590,44674.000,7303,3,EL,1,100,0.405853
1576765092.272590,44674.000,7303,3,EL,1,100,0.405330
1576765092.338466,44729.500,7321,2,EL,1,100,0.404081
1576765092.404342,44785.000,7321,2,EL,1,100,0.403839
1576765092.466658,44837.500,7339,2,EL,1,100,0.403275
1576765092.528973,44890.000,7339,2,EL,1,100,0.403235
1576765092.595443,44946.000,7355,2,EL,1,100,0.402953
1576765092.661912,45002.000,7355,2,EL,1,100,0.402349
1576765092.731943,45061.000,7374,1,EL,1,100,0.402026
1576765092.799006,45117.500,7392,2,EL,1,100,0.402107
1576765092.866069,45174.000,7392,2,EL,1,100,0.400536
1576765092.934319,45231.500,7410,2,EL,1,100,0.400536
1576765093.002569,45289.000,7410,2,EL,1,100,0.400214
1576765093.065478,45342.000,7428,2,EL,1,100,0.400536
1576765093.128386,45395.000,7428,2,EL,1,100,0.400093
1576765093.196043,45452.000,7446,2,EL,1,100,0.400052
1576765093.263700,45509.000,7446,2,EL,1,100,0.399166
1576765093.330169,45565.000,7464,1,EL,1,100,0.399569
1576765093.399013,45623.000,7481,2,EL,1,100,0.399287
1576765093.467856,45681.000,7481,2,EL,1,100,0.398602
1576765093.536106,45738.500,7499,2,EL,1,100,0.398884
1576765093.604356,45796.000,7499,2,EL,1,100,0.397635
1576765093.667265,45849.000,7518,2,EL,1,100,0.398481
1576765093.730174,45902.000,7518,2,EL,1,100,0.397756
1576765093.796050,45957.500,7534,2,EL,1,100,0.397756
1576765093.861926,46013.000,7534,2,EL,1,100,0.397192
1576765093.927209,46068.000,7552,1,EL,1,100,0.396749
1576765093.996645,46126.500,7570,2,EL,1,100,0.397515
1576765094.066082,46185.000,7570,2,EL,1,100,0.397676
1576765094.135520,46243.500,7588,2,EL,1,100,0.397354
1576765094.204957,46302.000,7588,2,EL,1,100,0.396669
1576765094.265491,46353.000,7606,2,EL,1,100,0.397313
1576765094.326026,46404.000,7606,2,EL,1,100,0.396870
1576765094.391902,46459.500,7624,2,EL,1,100,0.397434
1576765094.457778,46515.000,7624,2,EL,1,100,0.397273
1576765094.524248,46571.000,7642,1,EL,1,100,0.396870
1576765094.594279,46630.000,7660,2,EL,1,100,0.397595
1576765094.664309,46689.000,7660,2,EL,1,100,0.397595
1576765094.734339,46748.000,7678,2,EL,1,100,0.397031
1576765094.804370,46807.000,7678,2,EL,1,100,0.397233
1576765094.864905,46858.000,7694,2,EL,1,100,0.397958
1576765094.925440,46909.000,7694,2,EL,1,100,0.397877
1576765094.988942,46962.500,7712,2,EL,1,100,0.397877
1576765095.052444,47016.000,7712,2,EL,1,100,0.397716
1576765095.121288,47074.000,7730,2,EL,1,100,0.398643
1576765095.190131,47132.000,7730,2,EL,1,100,0.397716
1576765095.255414,47187.000,7748,1,EL,1,100,0.398240
1576765095.324851,47245.500,7766,2,EL,1,100,0.397112
1576765095.394288,47304.000,7766,2,EL,1,100,0.397635
1576765095.456603,47356.500,7784,2,EL,1,100,0.397837
1576765095.518918,47409.000,7784,2,EL,1,100,0.397716
1576765095.583014,47463.000,7802,2,EL,1,100,0.397676
1576765095.647110,47517.000,7802,2,EL,1,100,0.397474
1576765095.714766,47574.000,7821,2,EL,1,100,0.397313
1576765095.782423,47631.000,7821,2,EL,1,100,0.397635
1576765095.847705,47686.000,7839,1,EL,1,100,0.397434
1576765095.917142,47744.500,7856,2,EL,1,100,0.398119
1576765095.986579,47803.000,7856,2,EL,1,100,0.397354
1576765096.052456,47858.500,7874,2,EL,1,100,0.397555
1576765096.118332,47914.000,7874,2,EL,1,100,0.397152
1576765096.181834,47967.500,7892,2,EL,1,100,0.397837
1576765096.245336,48021.000,7892,2,EL,1,100,0.397555
1576765096.312399,48077.500,7908,2,EL,1,100,0.397998
1576765096.379462,48134.000,7908,2,EL,1,100,0.398038
1576765096.445932,48190.000,7926,1,EL,1,100,0.397515
1576765096.515369,48248.500,7944,2,EL,1,100,0.397837
1576765096.584806,48307.000,7944,2,EL,1,100,0.397515
1576765096.651275,48363.000,7963,2,EL,1,100,0.397837
1576765096.717745,48419.000,7963,2,EL,1,100,0.398643
1576765096.781247,48472.500,7981,2,EL,1,100,0.397797
1576765096.844749,48526.000,7981,2,EL,1,100,0.397837
1576765096.910032,48581.000,7999,2,EL,1,100,0.398441
1576765096.975315,48636.000,7999,2,EL,1,100,0.398119
1576765097.042971,48693.000,8017,2,EL,1,100,0.398441
1576765097.110628,48750.000,8017,2,EL,1,100,0.398441
1576765097.179471,48808.000,8035,1,EL,1,100,0.398683
1576765097.247721,48865.500,8052,2,EL,1,100,0.399045
1576765097.315972,48923.000,8052,2,EL,1,100,0.399609
1576765097.380067,48977.000,8070,2,EL,1,100,0.400012
1576765097.444163,49031.000,8070,2,EL,1,100,0.401503
1576765097.511226,49087.500,8086,2,EL,1,100,0.402993
1576765097.578289,49144.000,8086,2,EL,1,100,0.404363
1576765097.644759,49200.000,8105,1,EL,1,100,0.405088
1576765097.714196,49258.500,8123,2,EL,1,100,0.405732
1576765097.783633,49317.000,8123,2,EL,1,100,0.406820
1576765097.850102,49373.000,8141,2,EL,1,100,0.407666
1576765097.916572,49429.000,8141,2,EL,1,100,0.409277
1576765097.980074,49482.500,8159,2,EL,1,100,0.410486
1576765098.043576,49536.000,8159,2,EL,1,100,0.411211
1576765098.110046,49592.000,8177,2,EL,1,100,0.411654
1576765098.176516,49648.000,8177,2,EL,1,100,0.411775
1576765098.243579,49704.500,8198,2,EL,1,100,0.412903
1576765098.310642,49761.000,8198,2,EL,1,100,0.413265
1576765098.378892,49818.500,8218,2,EL,1,100,0.414111
1576765098.447142,49876.000,8218,2,EL,1,100,0.414313
1576765098.514798,49933.000,8236,2,EL,1,100,0.414474
1576765098.582455,49990.000,8236,2,EL,1,100,0.415239
1576765098.644770,50042.500,8255,2,EL,1,100,0.415441
1576765098.707085,50095.000,8255,2,EL,1,100,0.414917
1576765098.772962,50150.500,8273,2,EL,1,100,0.415521
1576765098.838838,50206.000,8273,2,EL,1,100,0.415441
1576765098.906494,50263.000,8291,1,EL,1,100,0.414756
1576765098.975338,50321.000,8309,2,EL,1,100,0.414554
1576765099.044181,50379.000,8309,2,EL,1,100,0.414071
1576765099.115399,50439.000,8326,2,EL,1,100,0.413749
1576765099.186616,50499.000,8326,2,EL,1,100,0.412097
1576765099.248931,50551.500,8344,2,EL,1,100,0.411372
1576765099.311247,50604.000,8344,2,EL,1,100,0.409922
1576765099.375342,50658.000,8360,2,EL,1,100,0.408673
1576765099.439438,50712.000,8360,2,EL,1,100,0.408109
1576765099.508282,50770.000,8378,1,EL,1,100,0.406780
1576765099.575938,50827.000,8397,2,EL,1,100,0.406458
1576765099.643595,50884.000,8397,2,EL,1,100,0.404886
1576765099.714812,50944.000,8415,2,EL,1,100,0.404081
1576765099.786030,51004.000,8415,2,EL,1,100,0.402469
1576765099.849532,51057.500,8433,2,EL,1,100,0.401503
1576765099.913034,51111.000,8433,2,EL,1,100,0.400979
1576765099.977723,51165.500,8451,2,EL,1,100,0.399650
1576765100.042413,51220.000,8451,2,EL,1,100,0.398119
1576765100.108882,51276.000,8469,2,EL,1,100,0.397313
1576765100.175352,51332.000,8469,2,EL,1,100,0.396105
1576765100.243008,51389.000,8487,1,EL,1,100,0.395178
1576765100.311852,51447.000,8504,2,EL,1,100,0.394493
1576765100.380695,51505.000,8504,2,EL,1,100,0.392399
1576765100.444791,51559.000,8522,2,EL,1,100,0.392036
1576765100.508887,51613.000,8522,2,EL,1,100,0.391553
1576765100.572389,51666.500,8538,2,EL,1,100,0.390304
1576765100.635891,51720.000,8538,2,EL,1,100,0.390465
1576765100.703548,51777.000,8557,2,EL,1,100,0.389136
1576765100.771204,51834.000,8557,2,EL,1,100,0.388129
1576765100.837674,51890.000,8575,1,EL,1,100,0.387162
1576765100.907111,51948.500,8593,2,EL,1,100,0.386235
1576765100.976548,52007.000,8593,2,EL,1,100,0.385470
1576765101.041237,52061.500,8611,2,EL,1,100,0.385228
1576765101.105926,52116.000,8611,2,EL,1,100,0.384745
1576765101.170022,52170.000,8629,2,EL,1,100,0.384543
1576765101.234118,52224.000,8629,2,EL,1,100,0.383617
1576765101.301181,52280.500,8647,2,EL,1,100,0.382529
1576765101.368244,52337.000,8647,2,EL,1,100,0.382489
1576765101.435900,52394.000,8665,1,EL,1,100,0.381804
1576765101.505337,52452.500,8682,2,EL,1,100,0.381281
1576765101.574774,52511.000,8682,2,EL,1,100,0.380918
1576765101.639463,52565.500,8701,2,EL,1,100,0.380596
1576765101.704153,52620.000,8701,2,EL,1,100,0.379991
1576765101.767655,52673.500,8719,2,EL,1,100,0.379830
1576765101.831157,52727.000,8719,2,EL,1,100,0.378420
1576765101.898220,52783.500,8735,2,EL,1,100,0.378702
1576765101.965283,52840.000,8735,2,EL,1,100,0.378501
1576765102.031753,52896.000,8753,1,EL,1,100,0.377816
1576765102.101190,52954.500,8771,2,EL,1,100,0.377252
1576765102.170627,53013.000,8771,2,EL,1,100,0.376648
1576765102.237096,53069.000,8789,2,EL,1,100,0.376447
1576765102.303566,53125.000,8789,2,EL,1,100,0.375963
1576765102.366475,53178.000,8807,2,EL,1,100,0.375923
1576765102.429384,53231.000,8807,2,EL,1,100,0.374795
1576765102.494666,53286.000,8825,2,EL,1,100,0.374150
1576765102.559949,53341.000,8825,2,EL,1,100,0.374191
1576765102.625232,53396.000,8844,1,EL,1,100,0.373667
1576765102.694669,53454.500,8862,2,EL,1,100,0.372821
1576765102.764105,53513.000,8862,2,EL,1,100,0.372660
1576765102.832949,53571.000,8879,2,EL,1,100,0.372700
1576765102.901793,53629.000,8879,2,EL,1,100,0.372257
1576765102.965295,53682.500,8897,2,EL,1,100,0.371693
1576765103.028797,53736.000,8897,2,EL,1,100,0.371653
1576765103.093486,53790.500,8913,2,EL,1,100,0.371532
1576765103.158175,53845.000,8913,2,EL,1,100,0.371008
1576765103.225238,53901.500,8931,2,EL,1,100,0.370364
1576765103.292301,53958.000,8931,2,EL,1,100,0.370767
1576765103.361145,54016.000,8949,1,EL,1,100,0.370243
1576765103.429395,54073.500,8967,2,EL,1,100,0.370887
1576765103.497645,54131.000,8967,2,EL,1,100,0.369316
1576765103.563521,54186.500,8985,2,EL,1,100,0.369719
1576765103.629397,54242.000,8985,2,EL,1,100,0.370041
1576765103.692899,54295.500,9004,2,EL,1,100,0.369598
1576765103.756402,54349.000,9004,2,EL,1,100,0.369800
1576765103.823465,54405.500,9022,2,EL,1,100,0.368873
1576765103.890528,54462.000,9022,2,EL,1,100,0.369880
1576765103.959371,54520.000,9040,1,EL,1,100,0.369679
1576765104.027622,54577.500,9057,2,EL,1,100,0.369800
1576765104.095871,54635.000,9057,2,EL,1,100,0.369316
1576765104.162341,54691.000,9075,2,EL,1,100,0.369679
1576765104.228811,54747.000,9075,2,EL,1,100,0.369236
1576765104.292511,54800.667,9094,3,EL,1,100,0.369478
1576765104.356211,54854.333,9094,3,EL,1,100,0.368994
1576765104.419911,54908.000,9094,3,EL,1,100,0.369800
1576765104.489941,54967.000,9114,2,EL,1,100,0.369518
1576765104.559972,55026.000,9114,2,EL,1,100,0.370041
1576765104.626441,55082.000,9133,1,EL,1,100,0.370485
1576765104.697065,55141.500,9150,2,EL,1,100,0.369719
1576765104.767689,55201.000,9150,2,EL,1,100,0.370525
1576765104.830004,55253.500,9168,2,EL,1,100,0.370162
1576765104.892320,55306.000,9168,2,EL,1,100,0.369800
1576765104.956415,55360.000,9184,2,EL,1,100,0.370001
1576765105.020511,55414.000,9184,2,EL,1,100,0.370082
1576765105.090542,55473.000,9202,2,EL,1,100,0.369961
1576765105.160572,55532.000,9202,2,EL,1,100,0.369760
1576765105.225855,55587.000,9220,1,EL,1,100,0.369236
1576765105.295292,55645.500,9238,2,EL,1,100,0.369880
1576765105.364729,55704.000,9238,2,EL,1,100,0.370162
1576765105.427638,55757.000,9256,2,EL,1,100,0.370726
1576765105.490546,55810.000,9256,2,EL,1,100,0.369800
1576765105.554049,55863.500,9274,2,EL,1,100,0.370404
1576765105.617551,55917.000,9274,2,EL,1,100,0.370001
1576765105.686394,55975.000,9293,2,EL,1,100,0.369961
1576765105.755238,56033.000,9293,2,EL,1,100,0.369760
1576765105.820520,56088.000,9311,1,EL,1,100,0.369961
1576765105.891144,56147.500,9328,2,EL,1,100,0.370283
1576765105.961768,56207.000,9328,2,EL,1,100,0.370283
1576765106.030612,56265.000,9346,2,EL,1,100,0.369961
1576765106.099455,56323.000,9346,2,EL,1,100,0.370605
1576765106.167705,56380.500,9362,2,EL,1,100,0.370243
1576765106.235955,56438.000,9362,2,EL,1,100,0.370122
1576765106.305986,56497.000,9380,1,EL,1,100,0.369679
1576765106.374830,56555.000,9398,2,EL,1,100,0.369679
1576765106.443673,56613.000,9398,2,EL,1,100,0.369075
1576765106.508362,56667.500,9416,2,EL,1,100,0.370082
1576765106.573051,56722.000,9416,2,EL,1,100,0.370203
1576765106.637147,56776.000,9435,2,EL,1,100,0.370444
1576765106.701243,56830.000,9435,2,EL,1,100,0.370323
1576765106.768306,56886.500,9453,2,EL,1,100,0.370646
1576765106.835369,56943.000,9453,2,EL,1,100,0.369719
1576765106.905399,57002.000,9471,1,EL,1,100,0.370485
1576765106.973649,57059.500,9488,2,EL,1,100,0.370767
1576765107.041899,57117.000,9488,2,EL,1,100,0.369961
1576765107.107775,57172.500,9506,2,EL,1,100,0.370485
1576765107.173652,57228.000,9506,2,EL,1,100,0.370203
1576765107.235967,57280.500,9523,2,EL,1,100,0.370887
1576765107.298282,57333.000,9523,2,EL,1,100,0.371169
1576765107.365939,57390.000,9540,2,EL,1,100,0.371250
1576765107.433595,57447.000,9540,2,EL,1,100,0.371814
1576765107.500065,57503.000,9558,1,EL,1,100,0.371532
1576765107.568908,57561.000,9577,2,EL,1,100,0.371814
1576765107.637752,57619.000,9577,2,EL,1,100,0.372056
1576765107.704221,57675.000,9595,2,EL,1,100,0.372297
1576765107.770691,57731.000,9595,2,EL,1,100,0.373063
1576765107.833600,57784.000,9613,2,EL,1,100,0.373586
1576765107.896509,57837.000,9613,2,EL,1,100,0.372620
1576765107.964165,57894.000,9631,2,EL,1,100,0.374191
1576765108.031822,57951.000,9631,2,EL,1,100,0.374030
1576765108.098291,58007.000,9649,1,EL,1,100,0.373667
1576765108.167728,58065.500,9666,2,EL,1,100,0.374674
1576765108.237165,58124.000,9666,2,EL,1,100,0.374755
1576765108.305415,58181.500,9684,2,EL,1,100,0.375319
1576765108.373666,58239.000,9684,2,EL,1,100,0.375157
1576765108.435387,58291.000,9700,2,EL,1,100,0.375077
1576765108.497109,58343.000,9700,2,EL,1,100,0.375439
1576765108.562985,58398.500,9718,2,EL,1,100,0.375037
1576765108.628861,58454.000,9718,2,EL,1,100,0.375359
1576765108.696518,58511.000,9737,1,EL,1,100,0.375238
1576765108.765955,58569.500,9755,2,EL,1,100,0.375842
1576765108.835392,58628.000,9755,2,EL,1,100,0.375601
1576765108.903642,58685.500,9773,2,EL,1,100,0.376527
1576765108.971892,58743.000,9773,2,EL,1,100,0.376447
1576765109.033020,58794.500,9791,2,EL,1,100,0.376285
1576765109.094149,58846.000,9791,2,EL,1,100,0.377131
1576765109.159431,58901.000,9809,2,EL,1,100,0.377051
1576765109.224714,58956.000,9809,2,EL,1,100,0.376970
1576765109.292370,59013.000,9827,1,EL,1,100,0.376970
1576765109.361214,59071.000,9844,2,EL,1,100,0.377292
1576765109.430058,59129.000,9844,2,EL,1,100,0.377534
1576765109.499495,59187.500,9862,2,EL,1,100,0.378219
1576765109.568931,59246.000,9862,2,EL,1,100,0.378783
1576765109.633027,59300.000,9881,2,EL,1,100,0.378461
1576765109.697123,59354.000,9881,2,EL,1,100,0.377897
1576765109.763592,59410.000,9897,2,EL,1,100,0.378702
1576765109.830062,59466.000,9897,2,EL,1,100,0.379468
1576765109.893564,59519.500,9915,2,EL,1,100,0.378904
1576765109.957067,59573.000,9915,2,EL,1,100,0.379750
1576765110.021162,59627.000,9933,1,EL,1,100,0.379951
1576765110.090006,59685.000,9951,2,EL,1,100,0.380475
1576765110.158849,59743.000,9951,2,EL,1,100,0.379991
1576765110.227693,59801.000,9969,2,EL,1,100,0.381361
1576765110.296536,59859.000,9969,2,EL,1,100,0.380999
1576765110.363797,59915.667,9990,3,EL,1,100,0.380636
1576765110.431058,59972.333,9990,3,EL,1,100,0.381683
1576765110.498319,60029.000,9990,3,EL,1,100,0.381844
1576765110.569536,60089.000,10010,1,EL,1,100,0.381764
1576765110.634226,60143.500,10029,2,EL,1,100,0.382449
1576765110.698915,60198.000,10029,2,EL,1,100,0.382207
1576765110.762417,60251.500,10047,2,EL,1,100,0.382046
1576765110.825919,60305.000,10047,2,EL,1,100,0.382731
1576765110.894169,60362.500,10065,2,EL,1,100,0.383093
1576765110.962419,60420.000,10065,2,EL,1,100,0.383818
1576765111.030076,60477.000,10083,2,EL,1,100,0.383738
1576765111.097732,60534.000,10083,2,EL,1,100,0.384302
1576765111.166576,60592.000,10101,1,EL,1,100,0.383859
1576765111.231858,60647.000,10118,2,EL,1,100,0.384382
1576765111.297141,60702.000,10118,2,EL,1,100,0.384261
1576765111.360643,60755.500,10136,2,EL,1,100,0.384181
1576765111.424146,60809.000,10136,2,EL,1,100,0.384503
1576765111.489428,60864.000,10154,2,EL,1,100,0.384543
1576765111.554711,60919.000,10154,2,EL,1,100,0.384342
1576765111.622368,60976.000,10172,2,EL,1,100,0.384221
1576765111.690024,61033.000,10172,2,EL,1,100,0.383617
1576765111.758868,61091.000,10189,1,EL,1,100,0.382892
1576765111.825931,61147.500,10207,2,EL,1,100,0.383013
1576765111.892994,61204.000,10207,2,EL,1,100,0.382368
1576765111.956496,61257.500,10225,2,EL,1,100,0.382126
1576765112.019998,61311.000,10225,2,EL,1,100,0.381522
1576765112.087061,61367.500,10243,2,EL,1,100,0.381240
1576765112.154124,61424.000,10243,2,EL,1,100,0.380233
1576765112.220594,61480.000,10261,2,EL,1,100,0.379669
1576765112.287064,61536.000,10261,2,EL,1,100,0.379669
1576765112.359468,61597.000,10279,1,EL,1,100,0.378259
1576765112.426531,61653.500,10296,2,EL,1,100,0.378098
1576765112.493594,61710.000,10296,2,EL,1,100,0.376970
1576765112.556503,61763.000,10315,2,EL,1,100,0.376688
1576765112.619412,61816.000,10315,2,EL,1,100,0.375359
1576765112.685288,61871.500,10333,2,EL,1,100,0.374916
1576765112.751164,61927.000,10333,2,EL,1,100,0.373748
1576765112.818227,61983.500,10351,2,EL,1,100,0.373586
1576765112.885290,62040.000,10351,2,EL,1,100,0.373143
1576765112.956507,62100.000,10367,1,EL,1,100,0.372177
1576765113.023571,62156.500,10385,2,EL,1,100,0.371250
1576765113.090634,62213.000,10385,2,EL,1,100,0.371089
1576765113.153542,62266.000,10403,2,EL,1,100,0.370968
1576765113.216451,62319.000,10403,2,EL,1,100,0.369719
1576765113.281734,62374.000,10421,2,EL,1,100,0.369961
1576765113.347016,62429.000,10421,2,EL,1,100,0.368833
1576765113.415860,62487.000,10439,2,EL,1,100,0.368712
1576765113.484704,62545.000,10439,2,EL,1,100,0.368752
1576765113.551173,62601.000,10457,2,EL,1,100,0.367343
1576765113.617643,62657.000,10457,2,EL,1,100,0.367504
1576765113.690047,62718.000,10476,1,EL,1,100,0.367463
1576765113.758297,62775.500,10493,2,EL,1,100,0.367544
1576765113.826547,62833.000,10493,2,EL,1,100,0.366819
1576765113.896578,62892.000,10511,2,EL,1,100,0.367302
1576765113.966608,62951.000,10511,2,EL,1,100,0.366577
1576765114.029517,63004.000,10527,2,EL,1,100,0.366416
1576765114.092426,63057.000,10527,2,EL,1,100,0.366779
1576765114.157115,63111.500,10545,2,EL,1,100,0.366174
1576765114.221804,63166.000,10545,2,EL,1,100,0.366376
1576765114.290648,63224.000,10563,1,EL,1,100,0.366215
1576765114.358304,63281.000,10581,2,EL,1,100,0.365610
1576765114.425961,63338.000,10581,2,EL,1,100,0.365852
1576765114.496585,63397.500,10599,2,EL,1,100,0.365771
1576765114.567209,63457.000,10599,2,EL,1,100,0.365449
1576765114.632491,63512.000,10618,2,EL,1,100,0.364523
1576765114.697774,63567.000,10618,2,EL,1,100,0.365006
1576765114.770178,63628.000,10636,1,EL,1,100,0.364845
1576765114.832494,63680.500,10653,2,EL,1,100,0.365006
1576765114.894809,63733.000,10653,2,EL,1,100,0.364845
1576765114.960091,63788.000,10671,2,EL,1,100,0.365046
1576765115.025374,63843.000,10671,2,EL,1,100,0.364321
1576765115.093031,63900.000,10689,2,EL,1,100,0.364563
1576765115.160687,63957.000,10689,2,EL,1,100,0.364200
1576765115.227750,64013.500,10705,2,EL,1,100,0.364644
1576765115.294813,64070.000,10705,2,EL,1,100,0.364966
1576765115.366031,64130.000,10723,1,EL,1,100,0.364402
1576765115.428940,64183.000,10741,2,EL,1,100,0.365530
1576765115.491848,64236.000,10741,2,EL,1,100,0.364402
1576765115.555944,64290.000,10760,2,EL,1,100,0.365369
1576765115.620040,64344.000,10760,2,EL,1,100,0.365369
1576765115.688290,64401.500,10778,2,EL,1,100,0.364563
1576765115.756540,64459.000,10778,2,EL,1,100,0.365127
1576765115.823009,64515.000,10796,2,EL,1,100,0.365288
1576765115.889479,64571.000,10796,2,EL,1,100,0.365489
1576765115.961883,64632.000,10814,1,EL,1,100,0.365610
1576765116.025386,64685.500,10831,2,EL,1,100,0.365731
1576765116.088888,64739.000,10831,2,EL,1,100,0.366134
1576765116.152983,64793.000,10849,2,EL,1,100,0.366255
1576765116.217079,64847.000,10849,2,EL,1,100,0.365973
1576765116.284736,64904.000,10867,2,EL,1,100,0.367262
1576765116.352392,64961.000,10867,2,EL,1,100,0.366658
1576765116.421236,65019.000,10886,3,EL,1,100,0.366779
1576765116.490079,65077.000,10886,3,EL,1,100,0.367343
1576765116.558923,65135.000,10886,3,EL,1,100,0.368027
1576765116.622425,65188.500,10907,2,EL,1,100,0.368350
1576765116.685927,65242.000,10907,2,EL,1,100,0.368108
1576765116.750023,65296.000,10925,1,EL,1,100,0.368591
1576765116.814119,65350.000,10942,2,EL,1,100,0.368712
1576765116.878214,65404.000,10942,2,EL,1,100,0.369196
1576765116.946464,65461.500,10960,2,EL,1,100,0.369961
1576765117.014714,65519.000,10960,2,EL,1,100,0.369921
1576765117.084152,65577.500,10978,2,EL,1,100,0.370122
1576765117.153588,65636.000,10978,2,EL,1,100,0.370485
1576765117.218871,65691.000,10994,2,EL,1,100,0.370726
1576765117.284154,65746.000,10994,2,EL,1,100,0.371129
1576765117.348249,65800.000,11012,1,EL,1,100,0.371371
1576765117.411752,65853.500,11030,2,EL,1,100,0.371895
1576765117.475254,65907.000,11030,2,EL,1,100,0.372982
1576765117.538162,65960.000,11049,2,EL,1,100,0.372982
1576765117.601071,66013.000,11049,2,EL,1,100,0.373224
1576765117.666354,66068.000,11067,2,EL,1,100,0.373103
1576765117.731637,66123.000,11067,2,EL,1,100,0.373143
1576765117.799293,66180.000,11085,2,EL,1,100,0.373788
1576765117.866950,66237.000,11085,2,EL,1,100,0.374110
1576765117.934606,66294.000,11103,2,EL,1,100,0.374432
1576765118.002263,66351.000,11103,2,EL,1,100,0.375037
1576765118.073480,66411.000,11121,1,EL,1,100,0.374996
1576765118.136389,66464.000,11138,2,EL,1,100,0.375480
1576765118.199298,66517.000,11138,2,EL,1,100,0.374835
1576765118.265174,66572.500,11156,2,EL,1,100,0.376285
1576765118.331050,66628.000,11156,2,EL,1,100,0.376406
1576765118.398113,66684.500,11174,2,EL,1,100,0.376729
1576765118.465176,66741.000,11174,2,EL,1,100,0.377212
1576765118.534020,66799.000,11190,2,EL,1,100,0.376567
1576765118.602863,66857.000,11190,2,EL,1,100,0.377292
1576765118.670520,66914.000,11209,1,EL,1,100,0.377655
1576765118.735209,66968.500,11227,2,EL,1,100,0.377292
1576765118.799898,67023.000,11227,2,EL,1,100,0.377897
1576765118.862807,67076.000,11245,2,EL,1,100,0.377776
1576765118.925716,67129.000,11245,2,EL,1,100,0.377373
1576765118.992779,67185.500,11263,2,EL,1,100,0.378259
1576765119.059842,67242.000,11263,2,EL,1,100,0.378380
1576765119.128685,67300.000,11281,2,EL,1,100,0.378864
1576765119.197529,67358.000,11281,2,EL,1,100,0.378380
1576765119.266372,67416.000,11299,1,EL,1,100,0.378501
1576765119.332248,67471.500,11316,2,EL,1,100,0.378904
1576765119.398125,67527.000,11316,2,EL,1,100,0.378743
1576765119.462220,67581.000,11334,2,EL,1,100,0.378259
1576765119.526316,67635.000,11334,2,EL,1,100,0.378420
1576765119.592192,67690.500,11353,2,EL,1,100,0.378461
1576765119.658068,67746.000,11353,2,EL,1,100,0.378420
1576765119.727505,67804.500,11369,2,EL,1,100,0.378219
1576765119.796942,67863.000,11369,2,EL,1,100,0.377897
1576765119.864599,67920.000,11387,1,EL,1,100,0.377534
1576765119.931662,67976.500,11405,2,EL,1,100,0.377776
1576765119.998725,68033.000,11405,2,EL,1,100,0.377695
1576765120.062227,68086.500,11423,2,EL,1,100,0.377937
1576765120.125729,68140.000,11423,2,EL,1,100,0.376930
1576765120.192199,68196.000,11441,2,EL,1,100,0.377252
1576765120.258669,68252.000,11441,2,EL,1,100,0.376487
1576765120.327512,68310.000,11459,2,EL,1,100,0.376648
1576765120.396356,68368.000,11459,2,EL,1,100,0.376084
1576765120.464012,68425.000,11477,1,EL,1,100,0.376648
1576765120.532856,68483.000,11495,2,EL,1,100,0.375923
1576765120.601699,68541.000,11495,2,EL,1,100,0.376205
1576765120.664015,68593.500,11513,2,EL,1,100,0.375359
1576765120.726330,68646.000,11513,2,EL,1,100,0.375802
1576765120.791612,68701.000,11531,2,EL,1,100,0.375238
1576765120.856895,68756.000,11531,2,EL,1,100,0.374593
1576765120.924552,68813.000,11547,2,EL,1,100,0.374916
1576765120.992208,68870.000,11547,2,EL,1,100,0.374030
1576765121.063426,68930.000,11565,1,EL,1,100,0.374150
1576765121.132269,68988.000,11583,2,EL,1,100,0.373707
1576765121.201113,69046.000,11583,2,EL,1,100,0.373748
1576765121.271143,69105.000,11601,2,EL,1,100,0.372861
1576765121.341174,69164.000,11601,2,EL,1,100,0.372458
1576765121.408237,69220.500,11619,2,EL,1,100,0.372136
1576765121.475300,69277.000,11619,2,EL,1,100,0.371290
1576765121.546517,69337.000,11637,1,EL,1,100,0.371331
1576765121.612393,69392.500,11655,2,EL,1,100,0.371008
1576765121.678269,69448.000,11655,2,EL,1,100,0.370605
1576765121.741772,69501.500,11673,2,EL,1,100,0.370485
1576765121.805274,69555.000,11673,2,EL,1,100,0.368873
1576765121.871743,69611.000,11691,2,EL,1,100,0.368390
1576765121.938213,69667.000,11691,2,EL,1,100,0.368591
1576765122.006463,69724.500,11707,2,EL,1,100,0.367705
1576765122.074713,69782.000,11707,2,EL,1,100,0.367624
1576765122.143557,69840.000,11725,1,EL,1,100,0.366497
1576765122.211213,69897.000,11743,2,EL,1,100,0.366456
1576765122.278870,69954.000,11743,2,EL,1,100,0.366215
1576765122.342372,70007.500,11761,2,EL,1,100,0.365651
1576765122.405874,70061.000,11761,2,EL,1,100,0.364845
1576765122.471948,70116.667,11782,3,EL,1,100,0.365127
1576765122.538022,70172.333,11782,3,EL,1,100,0.364120
1576765122.604096,70228.000,11782,3,EL,1,100,0.364764
1576765122.671753,70285.000,11803,2,EL,1,100,0.363999
1576765122.739409,70342.000,11803,2,EL,1,100,0.362952
1576765122.809440,70401.000,11819,1,EL,1,100,0.362750
1576765122.874722,70456.000,11837,2,EL,1,100,0.362589
1576765122.940005,70511.000,11837,2,EL,1,100,0.362388
1576765123.002320,70563.500,11855,2,EL,1,100,0.362670
1576765123.064636,70616.000,11855,2,EL,1,100,0.361864
1576765123.131699,70672.500,11873,2,EL,1,100,0.361985
1576765123.198762,70729.000,11873,2,EL,1,100,0.361663
1576765123.268199,70787.500,11891,2,EL,1,100,0.361743
1576765123.337636,70846.000,11891,2,EL,1,100,0.361300
1576765123.404105,70902.000,11909,1,EL,1,100,0.361340
1576765123.472355,70959.500,11926,2,EL,1,100,0.361743
1576765123.540606,71017.000,11926,2,EL,1,100,0.361622
1576765123.602327,71069.000,11945,2,EL,1,100,0.361582
1576765123.664049,71121.000,11945,2,EL,1,100,0.361461
1576765123.730519,71177.000,11963,2,EL,1,100,0.361783
1576765123.796988,71233.000,11963,2,EL,1,100,0.362065
1576765123.866425,71291.500,11980,2,EL,1,100,0.361260
1576765123.935862,71350.000,11980,2,EL,1,100,0.361824
1576765124.002925,71406.500,11997,2,EL,1,100,0.361501
1576765124.069988,71463.000,11997,2,EL,1,100,0.361622
1576765124.136458,71519.000,12015,1,EL,1,100,0.361340
1576765124.198180,71571.000,12033,2,EL,1,100,0.361824
1576765124.259902,71623.000,12033,2,EL,1,100,0.362025
1576765124.325778,71678.500,12051,2,EL,1,100,0.361985
1576765124.391654,71734.000,12051,2,EL,1,100,0.361461
1576765124.461684,71793.000,12069,2,EL,1,100,0.361783
1576765124.531715,71852.000,12069,2,EL,1,100,0.361300
1576765124.598184,71908.000,12088,2,EL,1,100,0.361018
1576765124.664654,71964.000,12088,2,EL,1,100,0.360494
1576765124.735871,72024.000,12106,1,EL,1,100,0.360776
1576765124.800561,72078.500,12123,2,EL,1,100,0.359810
1576765124.865250,72133.000,12123,2,EL,1,100,0.359366
1576765124.930532,72188.000,12141,2,EL,1,100,0.358964
1576765124.995815,72243.000,12141,2,EL,1,100,0.358077
1576765125.058130,72295.500,12159,2,EL,1,100,0.357634
1576765125.120445,72348.000,12159,2,EL,1,100,0.357151
1576765125.187509,72404.500,12177,2,EL,1,100,0.356466
1576765125.254572,72461.000,12177,2,EL,1,100,0.355862
1576765125.319261,72515.500,12193,2,EL,1,100,0.355620
1576765125.383950,72570.000,12193,2,EL,1,100,0.354291
1576765125.452794,72628.000,12211,1,EL,1,100,0.354009
1576765125.520450,72685.000,12230,2,EL,1,100,0.353525
1576765125.588107,72742.000,12230,2,EL,1,100,0.353646
1576765125.659324,72802.000,12248,2,EL,1,100,0.353123
1576765125.730542,72862.000,12248,2,EL,1,100,0.352196
1576765125.794044,72915.500,12266,2,EL,1,100,0.352357
1576765125.857546,72969.000,12266,2,EL,1,100,0.351914
1576765125.921048,73022.500,12284,2,EL,1,100,0.351149
1576765125.984550,73076.000,12284,2,EL,1,100,0.350585
1576765126.052207,73133.000,12302,1,EL,1,100,0.350746
1576765126.121051,73191.000,12319,2,EL,1,100,0.350182
1576765126.189894,73249.000,12319,2,EL,1,100,0.349497
1576765126.259331,73307.500,12337,2,EL,1,100,0.350585
1576765126.328768,73366.000,12337,2,EL,1,100,0.350021
1576765126.393457,73420.500,12353,2,EL,1,100,0.349175
1576765126.458146,73475.000,12353,2,EL,1,100,0.349376
1576765126.521649,73528.500,12371,2,EL,1,100,0.349416
1576765126.585151,73582.000,12371,2,EL,1,100,0.349578
1576765126.649246,73636.000,12390,1,EL,1,100,0.349014
1576765126.717497,73693.500,12408,2,EL,1,100,0.349376
1576765126.785747,73751.000,12408,2,EL,1,100,0.348893
1576765126.853403,73808.000,12426,2,EL,1,100,0.348490
1576765126.921060,73865.000,12426,2,EL,1,100,0.348127
1576765126.987529,73921.000,12444,2,EL,1,100,0.348973
1576765127.053999,73977.000,12444,2,EL,1,100,0.348812
1576765127.117501,74030.500,12462,2,EL,1,100,0.348409
1576765127.181003,74084.000,12462,2,EL,1,100,0.349537
1576765127.245099,74138.000,12480,1,EL,1,100,0.349175
1576765127.313349,74195.500,12497,2,EL,1,100,0.349175
1576765127.381599,74253.000,12497,2,EL,1,100,0.348772
1576765127.451036,74311.500,12515,2,EL,1,100,0.348853
1576765127.520473,74370.000,12515,2,EL,1,100,0.349175
1576765127.587536,74426.500,12532,2,EL,1,100,0.349135
1576765127.654599,74483.000,12532,2,EL,1,100,0.348933
1576765127.718102,74536.500,12550,2,EL,1,100,0.349054
1576765127.781604,74590.000,12550,2,EL,1,100,0.348691
1576765127.844512,74643.000,12568,1,EL,1,100,0.348691
1576765127.912763,74700.500,12586,2,EL,1,100,0.348772
1576765127.981013,74758.000,12586,2,EL,1,100,0.348732
1576765128.050450,74816.500,12604,2,EL,1,100,0.348691
1576765128.119887,74875.000,12604,2,EL,1,100,0.348168
1576765128.186356,74931.000,12622,2,EL,1,100,0.348248
1576765128.252826,74987.000,12622,2,EL,1,100,0.348893
1576765128.315735,75040.000,12640,2,EL,1,100,0.349296
1576765128.378643,75093.000,12640,2,EL,1,100,0.349175
1576765128.441552,75146.000,12658,1,EL,1,100,0.348933
1576765128.510000,75203.667,12679,3,EL,1,100,0.348087
1576765128.578448,75261.333,12679,3,EL,1,100,0.348087
1576765128.646896,75319.000,12679,3,EL,1,100,0.348933
1576765128.713959,75375.500,12699,2,EL,1,100,0.348289
1576765128.781022,75432.000,12699,2,EL,1,100,0.347805
1576765128.852833,75492.500,12717,2,EL,1,100,0.348047
1576765128.924644,75553.000,12717,2,EL,1,100,0.348047
1576765128.989926,75608.000,12735,1,EL,1,100,0.347281
1576765129.061144,75668.000,12752,2,EL,1,100,0.347725
1576765129.132361,75728.000,12752,2,EL,1,100,0.347362
1576765129.200611,75785.500,12770,2,EL,1,100,0.347362
1576765129.268861,75843.000,12770,2,EL,1,100,0.347040
1576765129.333550,75897.500,12786,2,EL,1,100,0.347040
1576765129.398240,75952.000,12786,2,EL,1,100,0.346637
1576765129.462929,76006.500,12804,2,EL,1,100,0.346234
1576765129.527618,76061.000,12804,2,EL,1,100,0.345992
1576765129.591714,76115.000,12823,1,EL,1,100,0.346194
1576765129.661744,76174.000,12841,2,EL,1,100,0.345549
1576765129.731775,76233.000,12841,2,EL,1,100,0.345428
1576765129.800025,76290.500,12859,2,EL,1,100,0.346395
1576765129.868275,76348.000,12859,2,EL,1,100,0.346436
1576765129.934151,76403.500,12877,2,EL,1,100,0.345630
1576765130.000027,76459.000,12877,2,EL,1,100,0.344985
1576765130.063529,76512.500,12895,2,EL,1,100,0.345227
1576765130.127031,76566.000,12895,2,EL,1,100,0.344945
1576765130.193501,76622.000,12913,1,EL,1,100,0.344623
1576765130.261158,76679.000,12930,2,EL,1,100,0.344945
1576765130.328814,76736.000,12930,2,EL,1,100,0.344139
1576765130.395877,76792.500,12948,2,EL,1,100,0.344663
1576765130.462940,76849.000,12948,2,EL,1,100,0.344099
1576765130.531190,76906.500,12964,2,EL,1,100,0.344180
1576765130.599440,76964.000,12964,2,EL,1,100,0.343938
1576765130.661756,77016.500,12983,2,EL,1,100,0.343777
1576765130.724071,77069.000,12983,2,EL,1,100,0.343777
1576765130.789354,77124.000,13001,1,EL,1,100,0.343334
1576765130.858197,77182.000,13019,2,EL,1,100,0.343777
1576765130.927041,77240.000,13019,2,EL,1,100,0.343414
1576765130.994104,77296.500,13037,2,EL,1,100,0.343777
1576765131.061167,77353.000,13037,2,EL,1,100,0.342850
1576765131.129417,77410.500,13055,2,EL,1,100,0.342931
1576765131.197667,77468.000,13055,2,EL,1,100,0.343334
1576765131.261169,77521.500,13073,2,EL,1,100,0.343575
1576765131.324671,77575.000,13073,2,EL,1,100,0.342810
1576765131.386393,77627.000,13091,1,EL,1,100,0.342971
1576765131.455830,77685.500,13109,2,EL,1,100,0.342850
1576765131.525267,77744.000,13109,2,EL,1,100,0.342850
1576765131.592330,77800.500,13127,2,EL,1,100,0.342850
1576765131.659393,77857.000,13127,2,EL,1,100,0.343173
1576765131.728830,77915.500,13145,2,EL,1,100,0.343173
1576765131.798267,77974.000,13145,2,EL,1,100,0.342447
1576765131.859989,78026.000,13161,2,EL,1,100,0.342367
1576765131.921711,78078.000,13161,2,EL,1,100,0.342488
1576765131.986400,78132.500,13179,2,EL,1,100,0.342528
1576765132.051089,78187.000,13179,2,EL,1,100,0.342045
1576765132.121119,78246.000,13197,1,EL,1,100,0.341440
1576765132.188183,78302.500,13215,2,EL,1,100,0.341642
1576765132.255246,78359.000,13215,2,EL,1,100,0.341038
1576765132.324089,78417.000,13233,2,EL,1,100,0.340514
1576765132.392933,78475.000,13233,2,EL,1,100,0.340030
1576765132.455842,78528.000,13251,2,EL,1,100,0.339749
1576765132.518750,78581.000,13251,2,EL,1,100,0.339064
1576765132.582846,78635.000,13270,2,EL,1,100,0.338419
1576765132.646942,78689.000,13270,2,EL,1,100,0.337815
1576765132.711037,78743.000,13288,1,EL,1,100,0.338339
1576765132.774539,78796.500,13306,2,EL,1,100,0.337170
1576765132.838042,78850.000,13306,2,EL,1,100,0.337493
1576765132.904511,78906.000,13323,2,EL,1,100,0.336566
1576765132.970981,78962.000,13323,2,EL,1,100,0.336163
1576765133.040418,79020.500,13341,2,EL,1,100,0.336324
1576765133.109855,79079.000,13341,2,EL,1,100,0.335962
1576765133.177511,79136.000,13357,2,EL,1,100,0.335761
1576765133.245168,79193.000,13357,2,EL,1,100,0.335156
1576765133.314012,79251.000,13375,1,EL,1,100,0.335599
1576765133.382855,79309.000,13393,2,EL,1,100,0.334874
1576765133.451699,79367.000,13393,2,EL,1,100,0.334471
1576765133.514607,79420.000,13411,2,EL,1,100,0.334189
1576765133.577516,79473.000,13411,2,EL,1,100,0.333948
1576765133.642799,79528.000,13430,2,EL,1,100,0.334230
1576765133.708081,79583.000,13430,2,EL,1,100,0.333585
1576765133.775738,79640.000,13448,2,EL,1,100,0.333545
1576765133.843395,79697.000,13448,2,EL,1,100,0.333545
1576765133.912238,79755.000,13466,1,EL,1,100,0.332820
1576765133.981081,79813.000,13483,2,EL,1,100,0.333021
1576765134.049925,79871.000,13483,2,EL,1,100,0.333505
1576765134.114021,79925.000,13501,2,EL,1,100,0.333223
1576765134.178117,79979.000,13501,2,EL,1,100,0.332820
1576765134.242212,80033.000,13519,2,EL,1,100,0.333102
1576765134.306308,80087.000,13519,2,EL,1,100,0.332377
1576765134.372777,80143.000,13535,2,EL,1,100,0.332175
1576765134.439247,80199.000,13535,2,EL,1,100,0.333102
1576765134.508091,80257.000,13553,1,EL,1,100,0.332780
1576765134.577330,80315.333,13575,3,EL,1,100,0.332941
1576765134.646569,80373.667,13575,3,EL,1,100,0.333545
1576765134.715808,80432.000,13575,3,EL,1,100,0.332699
1576765134.777530,80484.000,13595,2,EL,1,100,0.333102
1576765134.839252,80536.000,13595,2,EL,1,100,0.332981
1576765134.905721,80592.000,13613,2,EL,1,100,0.333464
1576765134.972191,80648.000,13613,2,EL,1,100,0.333424
1576765135.041628,80706.500,13629,2,EL,1,100,0.333787
1576765135.111065,80765.000,13629,2,EL,1,100,0.333585
1576765135.177535,80821.000,13647,1,EL,1,100,0.333666
1576765135.247565,80880.000,13665,2,EL,1,100,0.333948
1576765135.317595,80939.000,13665,2,EL,1,100,0.334109
1576765135.378724,80990.500,13683,2,EL,1,100,0.334109
1576765135.439852,81042.000,13683,2,EL,1,100,0.334512
1576765135.504541,81096.500,13701,2,EL,1,100,0.334270
1576765135.569230,81151.000,13701,2,EL,1,100,0.334955
1576765135.638667,81209.500,13720,2,EL,1,100,0.334512
1576765135.708104,81268.000,13720,2,EL,1,100,0.335035
1576765135.773387,81323.000,13738,1,EL,1,100,0.334713
1576765135.842824,81381.500,13755,2,EL,1,100,0.335519
1576765135.912261,81440.000,13755,2,EL,1,100,0.335680
1576765135.973389,81491.500,13773,2,EL,1,100,0.336002
1576765136.034518,81543.000,13773,2,EL,1,100,0.336284
1576765136.098613,81597.000,13791,2,EL,1,100,0.335801
1576765136.162709,81651.000,13791,2,EL,1,100,0.336083
1576765136.232739,81710.000,13809,2,EL,1,100,0.336204
1576765136.302770,81769.000,13809,2,EL,1,100,0.336284
1576765136.368053,81824.000,13825,1,EL,1,100,0.335640
1576765136.439270,81884.000,13843,2,EL,1,100,0.336042
1576765136.510488,81944.000,13843,2,EL,1,100,0.336445
1576765136.578144,82001.000,13862,2,EL,1,100,0.336083
1576765136.645801,82058.000,13862,2,EL,1,100,0.336687
1576765136.714644,82116.000,13880,2,EL,1,100,0.336365
1576765136.783488,82174.000,13880,2,EL,1,100,0.336768
1576765136.846990,82227.500,13898,2,EL,1,100,0.336405
1576765136.910492,82281.000,13898,2,EL,1,100,0.336526
1576765136.973401,82334.000,13916,1,EL,1,100,0.336405
1576765137.042244,82392.000,13933,2,EL,1,100,0.337372
1576765137.111088,82450.000,13933,2,EL,1,100,0.336888
1576765137.180525,82508.500,13951,2,EL,1,100,0.337291
1576765137.249962,82567.000,13951,2,EL,1,100,0.336848
1576765137.317025,82623.500,13967,2,EL,1,100,0.337090
1576765137.384088,82680.000,13967,2,EL,1,100,0.337170
1576765137.454118,82739.000,13985,1,EL,1,100,0.337251
1576765137.522962,82797.000,14004,2,EL,1,100,0.336888
1576765137.591806,82855.000,14004,2,EL,1,100,0.337291
1576765137.656495,82909.500,14022,2,EL,1,100,0.337533
1576765137.721184,82964.000,14022,2,EL,1,100,0.337815
1576765137.784093,83017.000,14040,2,EL,1,100,0.337775
1576765137.847001,83070.000,14040,2,EL,1,100,0.337976
1576765137.915251,83127.500,14058,2,EL,1,100,0.337976
1576765137.983501,83185.000,14058,2,EL,1,100,0.338177
1576765138.049971,83241.000,14076,1,EL,1,100,0.337694
1576765138.119408,83299.500,14093,2,EL,1,100,0.337775
1576765138.188845,83358.000,14093,2,EL,1,100,0.338137
1576765138.253534,83412.500,14111,2,EL,1,100,0.337815
1576765138.318223,83467.000,14111,2,EL,1,100,0.338298
1576765138.380539,83519.500,14129,2,EL,1,100,0.338862
1576765138.442854,83572.000,14129,2,EL,1,100,0.338097
1576765138.511104,83629.500,14145,2,EL,1,100,0.338339
1576765138.579354,83687.000,14145,2,EL,1,100,0.337936
1576765138.645824,83743.000,14164,1,EL,1,100,0.337976
1576765138.715261,83801.500,14182,2,EL,1,100,0.338903
1576765138.784698,83860.000,14182,2,EL,1,100,0.338057
1576765138.852354,83917.000,14200,2,EL,1,100,0.338177
1576765138.920011,83974.000,14200,2,EL,1,100,0.338782
1576765138.981733,84026.000,14218,2,EL,1,100,0.339467
1576765139.043454,84078.000,14218,2,EL,1,100,0.338943
1576765139.111704,84135.500,14236,2,EL,1,100,0.338580
1576765139.179955,84193.000,14236,2,EL,1,100,0.338258
1576765139.247611,84250.000,14254,1,EL,1,100,0.338057
1576765139.316454,84308.000,14271,2,EL,1,100,0.338057
1576765139.385298,84366.000,14271,2,EL,1,100,0.338500
1576765139.451768,84422.000,14289,2,EL,1,100,0.337734
1576765139.518237,84478.000,14289,2,EL,1,100,0.337775
1576765139.580553,84530.500,14308,2,EL,1,100,0.337976
1576765139.642868,84583.000,14308,2,EL,1,100,0.337291
1576765139.709337,84639.000,14324,2,EL,1,100,0.337130
1576765139.775807,84695.000,14324,2,EL,1,100,0.337090
1576765139.843463,84752.000,14342,1,EL,1,100,0.336244
1576765139.912307,84810.000,14360,2,EL,1,100,0.337251
1576765139.981151,84868.000,14360,2,EL,1,100,0.335881
1576765140.049401,84925.500,14378,2,EL,1,100,0.336204
1576765140.117651,84983.000,14378,2,EL,1,100,0.336647
1576765140.181746,85037.000,14396,2,EL,1,100,0.335277
1576765140.245842,85091.000,14396,2,EL,1,100,0.335559
1576765140.310531,85145.500,14414,2,EL,1,100,0.335358
1576765140.375220,85200.000,14414,2,EL,1,100,0.335116
1576765140.438129,85253.000,14432,2,EL,1,100,0.335076
1576765140.501038,85306.000,14432,2,EL,1,100,0.334955
1576765140.565134,85360.000,14451,1,EL,1,100,0.334592
1576765140.633186,85417.333,14472,3,EL,1,100,0.334109
1576765140.701238,85474.667,14472,3,EL,1,100,0.334270
1576765140.769290,85532.000,14472,3,EL,1,100,0.334794
1576765140.840508,85592.000,14492,2,EL,1,100,0.334270
1576765140.911725,85652.000,14492,2,EL,1,100,0.334270
1576765140.974634,85705.000,14510,2,EL,1,100,0.333706
1576765141.037543,85758.000,14510,2,EL,1,100,0.333867
1576765141.102232,85812.500,14528,2,EL,1,100,0.333907
1576765141.166921,85867.000,14528,2,EL,1,100,0.333384
1576765141.238138,85927.000,14546,1,EL,1,100,0.333827
1576765141.301641,85980.500,14563,2,EL,1,100,0.333867
1576765141.365143,86034.000,14563,2,EL,1,100,0.333625
1576765141.433986,86092.000,14581,2,EL,1,100,0.333545
1576765141.502830,86150.000,14581,2,EL,1,100,0.333062
1576765141.571080,86207.500,14600,2,EL,1,100,0.333223
1576765141.639330,86265.000,14600,2,EL,1,100,0.333344
1576765141.708767,86323.500,14616,2,EL,1,100,0.332820
1576765141.778204,86382.000,14616,2,EL,1,100,0.333263
1576765141.838739,86433.000,14634,1,EL,1,100,0.333625
1576765141.902834,86487.000,14652,2,EL,1,100,0.333625
1576765141.966930,86541.000,14652,2,EL,1,100,0.333223
1576765142.033400,86597.000,14670,2,EL,1,100,0.333867
1576765142.099869,86653.000,14670,2,EL,1,100,0.333585
1576765142.166932,86709.500,14688,2,EL,1,100,0.333102
1576765142.233995,86766.000,14688,2,EL,1,100,0.332820
1576765142.303432,86824.500,14706,2,EL,1,100,0.333062
1576765142.372869,86883.000,14706,2,EL,1,100,0.333263
1576765142.433404,86934.000,14724,1,EL,1,100,0.333464
1576765142.497500,86988.000,14743,2,EL,1,100,0.333505
1576765142.561596,87042.000,14743,2,EL,1,100,0.332860
1576765142.628659,87098.500,14760,2,EL,1,100,0.332900
1576765142.695722,87155.000,14760,2,EL,1,100,0.332900
1576765142.762785,87211.500,14778,2,EL,1,100,0.332377
1576765142.829848,87268.000,14778,2,EL,1,100,0.332457
1576765142.899879,87327.000,14794,2,EL,1,100,0.332175
1576765142.969909,87386.000,14794,2,EL,1,100,0.332054
1576765143.034005,87440.000,14812,1,EL,1,100,0.331853
1576765143.097507,87493.500,14830,2,EL,1,100,0.331329
1576765143.161009,87547.000,14830,2,EL,1,100,0.331289
1576765143.228072,87603.500,14848,2,EL,1,100,0.330967
1576765143.295135,87660.000,14848,2,EL,1,100,0.330403
1576765143.362792,87717.000,14866,2,EL,1,100,0.330242
1576765143.430448,87774.000,14866,2,EL,1,100,0.329355
1576765143.498698,87831.500,14884,2,EL,1,100,0.328590
1576765143.566948,87889.000,14884,2,EL,1,100,0.328711
1576765143.631638,87943.500,14903,2,EL,1,100,0.329114
1576765143.696327,87998.000,14903,2,EL,1,100,0.328147
1576765143.758049,88050.000,14921,1,EL,1,100,0.327664
1576765143.824518,88106.000,14938,2,EL,1,100,0.327543
1576765143.890988,88162.000,14938,2,EL,1,100,0.327462
1576765143.959831,88220.000,14956,2,EL,1,100,0.326938
1576765144.028675,88278.000,14956,2,EL,1,100,0.326656
1576765144.095738,88334.500,14972,2,EL,1,100,0.325166
1576765144.162801,88391.000,14972,2,EL,1,100,0.325770
1576765144.235205,88452.000,14990,1,EL,1,100,0.325367
1576765144.304049,88510.000,15008,2,EL,1,100,0.325488
1576765144.372892,88568.000,15008,2,EL,1,100,0.325247
1576765144.441143,88625.500,15026,2,EL,1,100,0.325126
1576765144.509392,88683.000,15026,2,EL,1,100,0.324723
1576765144.572301,88736.000,15045,2,EL,1,100,0.324199
1576765144.635210,88789.000,15045,2,EL,1,100,0.324481
1576765144.699899,88843.500,15063,2,EL,1,100,0.324401
1576765144.764588,88898.000,15063,2,EL,1,100,0.324119
1576765144.834619,88957.000,15081,1,EL,1,100,0.324038
1576765144.901682,89013.500,15098,2,EL,1,100,0.323917
1576765144.968745,89070.000,15098,2,EL,1,100,0.324119
1576765145.038775,89129.000,15116,2,EL,1,100,0.324844
1576765145.108806,89188.000,15116,2,EL,1,100,0.323917
1576765145.174089,89243.000,15133,2,EL,1,100,0.323434
1576765145.239371,89298.000,15133,2,EL,1,100,0.323877
1576765145.304654,89353.000,15150,2,EL,1,100,0.323837
1576765145.369936,89408.000,15150,2,EL,1,100,0.324078
1576765145.434032,89462.000,15168,1,EL,1,100,0.323796
1576765145.499315,89517.000,15187,2,EL,1,100,0.324199
1576765145.564598,89572.000,15187,2,EL,1,100,0.323716
1576765145.632254,89629.000,15205,2,EL,1,100,0.323635
1576765145.699911,89686.000,15205,2,EL,1,100,0.323555
1576765145.767567,89743.000,15223,2,EL,1,100,0.323837
1576765145.835224,89800.000,15223,2,EL,1,100,0.323676
1576765145.902880,89857.000,15241,2,EL,1,100,0.323676
1576765145.970537,89914.000,15241,2,EL,1,100,0.323837
1576765146.032852,89966.500,15259,2,EL,1,100,0.323555
1576765146.095167,90019.000,15259,2,EL,1,100,0.323796
1576765146.161637,90075.000,15277,1,EL,1,100,0.323152
1576765146.231074,90133.500,15294,2,EL,1,100,0.323676
1576765146.300511,90192.000,15294,2,EL,1,100,0.323434
1576765146.366981,90248.000,15312,2,EL,1,100,0.324119
1576765146.433450,90304.000,15312,2,EL,1,100,0.323917
1576765146.502294,90362.000,15328,2,EL,1,100,0.323837
1576765146.571137,90420.000,15328,2,EL,1,100,0.323917
1576765146.631672,90471.000,15347,1,EL,1,100,0.323756
1576765146.696163,90525.333,15368,3,EL,1,100,0.324038
1576765146.760655,90579.667,15368,3,EL,1,100,0.322668
1576765146.825146,90634.000,15368,3,EL,1,100,0.323595
1576765146.894583,90692.500,15388,2,EL,1,100,0.322991
1576765146.964020,90751.000,15388,2,EL,1,100,0.323152
1576765147.034051,90810.000,15406,2,EL,1,100,0.323474
1576765147.104081,90869.000,15406,2,EL,1,100,0.322870
1576765147.166990,90922.000,15422,2,EL,1,100,0.322427
1576765147.229899,90975.000,15422,2,EL,1,100,0.322467
1576765147.293401,91028.500,15440,2,EL,1,100,0.323353
1576765147.356903,91082.000,15440,2,EL,1,100,0.322467
1576765147.424560,91139.000,15458,1,EL,1,100,0.321742
1576765147.492810,91196.500,15477,2,EL,1,100,0.322064
1576765147.561060,91254.000,15477,2,EL,1,100,0.321984
1576765147.630497,91312.500,15495,2,EL,1,100,0.321702
1576765147.699934,91371.000,15495,2,EL,1,100,0.321742
1576765147.763436,91424.500,15513,2,EL,1,100,0.321581
1576765147.826938,91478.000,15513,2,EL,1,100,0.321339
1576765147.890440,91531.500,15531,2,EL,1,100,0.321621
1576765147.953943,91585.000,15531,2,EL,1,100,0.321339
1576765148.019225,91640.000,15549,1,EL,1,100,0.321218
1576765148.082727,91693.500,15567,2,EL,1,100,0.321500
1576765148.146230,91747.000,15567,2,EL,1,100,0.320896
1576765148.212699,91803.000,15584,2,EL,1,100,0.320533
1576765148.279169,91859.000,15584,2,EL,1,100,0.320292
1576765148.347419,91916.500,15602,2,EL,1,100,0.320090
1576765148.415669,91974.000,15602,2,EL,1,100,0.320614
1576765148.483325,92031.000,15618,2,EL,1,100,0.319687
1576765148.550982,92088.000,15618,2,EL,1,100,0.319728
1576765148.618639,92145.000,15637,1,EL,1,100,0.320090
1576765148.681547,92198.000,15655,2,EL,1,100,0.319929
1576765148.744456,92251.000,15655,2,EL,1,100,0.319889
1576765148.809739,92306.000,15673,2,EL,1,100,0.319969
1576765148.875021,92361.000,15673,2,EL,1,100,0.319647
1576765148.943271,92418.500,15691,2,EL,1,100,0.318922
1576765149.011522,92476.000,15691,2,EL,1,100,0.319929
1576765149.080365,92534.000,15709,2,EL,1,100,0.319486
1576765149.149209,92592.000,15709,2,EL,1,100,0.319406
1576765149.219239,92651.000,15727,1,EL,1,100,0.319043
1576765149.282148,92704.000,15744,2,EL,1,100,0.319406
1576765149.345057,92757.000,15744,2,EL,1,100,0.319083
1576765149.409152,92811.000,15762,2,EL,1,100,0.319446
1576765149.473248,92865.000,15762,2,EL,1,100,0.318721
1576765149.540905,92922.000,15781,2,EL,1,100,0.318801
1576765149.608561,92979.000,15781,2,EL,1,100,0.319204
1576765149.676811,93036.500,15799,2,EL,1,100,0.319526
1576765149.745061,93094.000,15799,2,EL,1,100,0.319285
1576765149.813905,93152.000,15815,1,EL,1,100,0.319083
1576765149.878000,93206.000,15833,2,EL,1,100,0.319244
1576765149.942096,93260.000,15833,2,EL,1,100,0.319406
1576765150.006785,93314.500,15851,2,EL,1,100,0.319406
1576765150.071474,93369.000,15851,2,EL,1,100,0.319003
1576765150.137944,93425.000,15869,2,EL,1,100,0.319607
1576765150.204414,93481.000,15869,2,EL,1,100,0.319929
1576765150.273850,93539.500,15887,2,EL,1,100,0.320211
1576765150.343287,93598.000,15887,2,EL,1,100,0.320090
1576765150.412131,93656.000,15905,1,EL,1,100,0.319285
1576765150.478007,93711.500,15923,2,EL,1,100,0.319969
1576765150.543883,93767.000,15923,2,EL,1,100,0.321017
1576765150.606792,93820.000,15941,2,EL,1,100,0.319969
1576765150.669701,93873.000,15941,2,EL,1,100,0.320171
1576765150.736170,93929.000,15959,2,EL,1,100,0.320735
1576765150.802640,93985.000,15959,2,EL,1,100,0.321178
1576765150.871484,94043.000,15977,2,EL,1,100,0.320775
1576765150.940327,94101.000,15977,2,EL,1,100,0.321259
1576765151.007984,94158.000,15993,1,EL,1,100,0.321420
1576765151.075047,94214.500,16011,2,EL,1,100,0.321420
1576765151.142110,94271.000,16011,2,EL,1,100,0.321581
1576765151.204425,94323.500,16029,2,EL,1,100,0.321581
1576765151.266740,94376.000,16029,2,EL,1,100,0.321863
1576765151.334397,94433.000,16047,2,EL,1,100,0.321984
1576765151.402053,94490.000,16047,2,EL,1,100,0.322386
1576765151.469116,94546.500,16065,2,EL,1,100,0.323112
1576765151.536180,94603.000,16065,2,EL,1,100,0.322185
1576765151.607397,94663.000,16084,1,EL,1,100,0.322628
1576765151.675647,94720.500,16102,2,EL,1,100,0.322991
1576765151.743897,94778.000,16102,2,EL,1,100,0.323273
1576765151.815114,94838.000,16119,2,EL,1,100,0.322789
1576765151.886332,94898.000,16119,2,EL,1,100,0.323273
1576765151.954582,94955.500,16137,2,EL,1,100,0.322749
1576765152.022832,95013.000,16137,2,EL,1,100,0.323313
1576765152.094049,95073.000,16153,1,EL,1,100,0.322870
1576765152.158739,95127.500,16171,2,EL,1,100,0.323555
1576765152.223428,95182.000,16171,2,EL,1,100,0.322991
1576765152.286930,95235.500,16189,2,EL,1,100,0.323031
1576765152.350432,95289.000,16189,2,EL,1,100,0.323071
1576765152.418682,95346.500,16207,2,EL,1,100,0.323152
1576765152.486932,95404.000,16207,2,EL,1,100,0.322628
1576765152.554589,95461.000,16226,2,EL,1,100,0.322548
1576765152.622246,95518.000,16226,2,EL,1,100,0.322104
1576765152.691089,95576.000,16244,1,EL,1,100,0.322467
1576765152.756372,95631.000,16265,3,EL,1,100,0.322145
1576765152.821654,95686.000,16265,3,EL,1,100,0.321460
1576765152.886937,95741.000,16265,3,EL,1,100,0.321259
1576765152.951033,95795.000,16285,2,EL,1,100,0.321178
1576765153.015128,95849.000,16285,2,EL,1,100,0.321259
1576765153.082191,95905.500,16303,2,EL,1,100,0.320775
1576765153.149255,95962.000,16303,2,EL,1,100,0.320372
1576765153.216911,96019.000,16321,2,EL,1,100,0.320211
1576765153.284568,96076.000,16321,2,EL,1,100,0.320010
1576765153.352224,96133.000,16339,2,EL,1,100,0.320453
1576765153.419881,96190.000,16339,2,EL,1,100,0.319728
1576765153.482790,96243.000,16357,2,EL,1,100,0.319969
1576765153.545698,96296.000,16357,2,EL,1,100,0.320090
1576765153.609794,96350.000,16376,1,EL,1,100,0.319365
1576765153.678044,96407.500,16393,2,EL,1,100,0.319285
1576765153.746294,96465.000,16393,2,EL,1,100,0.318560
1576765153.815731,96523.500,16411,2,EL,1,100,0.319164
1576765153.885168,96582.000,16411,2,EL,1,100,0.318197
1576765153.952231,96638.500,16427,2,EL,1,100,0.318600
1576765154.019294,96695.000,16427,2,EL,1,100,0.318278
1576765154.082203,96748.000,16445,2,EL,1,100,0.318519
1576765154.145112,96801.000,16445,2,EL,1,100,0.318842
1576765154.206833,96853.000,16463,1,EL,1,100,0.318680
1576765154.274490,96910.000,16481,2,EL,1,100,0.318439
1576765154.342147,96967.000,16481,2,EL,1,100,0.317955
1576765154.411584,97025.500,16499,2,EL,1,100,0.318439
1576765154.481021,97084.000,16499,2,EL,1,100,0.317875
1576765154.548677,97141.000,16518,2,EL,1,100,0.318560
1576765154.616334,97198.000,16518,2,EL,1,100,0.318439
1576765154.679836,97251.500,16536,2,EL,1,100,0.318278
1576765154.743338,97305.000,16536,2,EL,1,100,0.318237
1576765154.805060,97357.000,16554,1,EL,1,100,0.317834
1576765154.870342,97412.000,16571,2,EL,1,100,0.319083
1576765154.935625,97467.000,16571,2,EL,1,100,0.319164
1576765155.005062,97525.500,16589,2,EL,1,100,0.319285
1576765155.074499,97584.000,16589,2,EL,1,100,0.319003
1576765155.140969,97640.000,16607,2,EL,1,100,0.319083
1576765155.207438,97696.000,16607,2,EL,1,100,0.318882
1576765155.271534,97750.000,16623,2,EL,1,100,0.318882
1576765155.335630,97804.000,16623,2,EL,1,100,0.319406
1576765155.404473,97862.000,16641,1,EL,1,100,0.319406
1576765155.469162,97916.500,16660,2,EL,1,100,0.319526
1576765155.533852,97971.000,16660,2,EL,1,100,0.319164
1576765155.602102,98028.500,16678,2,EL,1,100,0.319486
1576765155.670352,98086.000,16678,2,EL,1,100,0.319889
1576765155.732667,98138.500,16696,2,EL,1,100,0.319244
1576765155.794982,98191.000,16696,2,EL,1,100,0.319567
1576765155.859078,98245.000,16714,2,EL,1,100,0.320050
1576765155.923174,98299.000,16714,2,EL,1,100,0.320171
1576765155.992611,98357.500,16732,2,EL,1,100,0.319969
1576765156.062048,98416.000,16732,2,EL,1,100,0.320372
1576765156.127330,98471.000,16750,1,EL,1,100,0.319969
1576765156.199141,98531.500,16767,2,EL,1,100,0.320372
1576765156.270952,98592.000,16767,2,EL,1,100,0.320735
1576765156.333267,98644.500,16785,2,EL,1,100,0.319849
1576765156.395583,98697.000,16785,2,EL,1,100,0.319647
1576765156.460272,98751.500,16801,2,EL,1,100,0.319889
1576765156.524961,98806.000,16801,2,EL,1,100,0.319406
1576765156.592618,98863.000,16820,2,EL,1,100,0.318962
1576765156.660274,98920.000,16820,2,EL,1,100,0.320251
1576765156.724370,98974.000,16838,1,EL,1,100,0.320654
1576765156.793213,99032.000,16856,2,EL,1,100,0.320533
1576765156.862057,99090.000,16856,2,EL,1,100,0.320332
1576765156.929713,99147.000,16874,2,EL,1,100,0.320251
1576765156.997370,99204.000,16874,2,EL,1,100,0.319687
1576765157.066214,99262.000,16892,2,EL,1,100,0.319567
1576765157.135057,99320.000,16892,2,EL,1,100,0.319607
1576765157.197372,99372.500,16910,2,EL,1,100,0.319124
1576765157.259687,99425.000,16910,2,EL,1,100,0.319969
1576765157.323783,99479.000,16928,1,EL,1,100,0.319607
1576765157.390846,99535.500,16945,2,EL,1,100,0.320211
1576765157.457909,99592.000,16945,2,EL,1,100,0.320372
1576765157.524972,99648.500,16964,2,EL,1,100,0.319446
1576765157.592036,99705.000,16964,2,EL,1,100,0.319647
1576765157.662066,99764.000,16980,2,EL,1,100,0.318600
1576765157.732096,99823.000,16980,2,EL,1,100,0.318801
1576765157.795599,99876.500,16998,2,EL,1,100,0.317633
1576765157.859101,99930.000,16998,2,EL,1,100,0.318600
1576765157.920823,99982.000,17016,1,EL,1,100,0.318398
1576765157.987886,100038.500,17034,2,EL,1,100,0.318479
1576765158.054949,100095.000,17034,2,EL,1,100,0.318197
1576765158.122012,100151.500,17052,2,EL,1,100,0.318116
1576765158.189075,100208.000,17052,2,EL,1,100,0.318358
1576765158.259105,100267.000,17070,2,EL,1,100,0.317996
1576765158.329136,100326.000,17070,2,EL,1,100,0.317834
1576765158.393825,100380.500,17088,2,EL,1,100,0.318197
1576765158.458514,100435.000,17088,2,EL,1,100,0.318278
1576765158.520236,100487.000,17107,1,EL,1,100,0.319003
1576765158.587893,100544.000,17124,2,EL,1,100,0.318398
1576765158.655549,100601.000,17124,2,EL,1,100,0.318398
1576765158.722612,100657.500,17142,2,EL,1,100,0.317794
1576765158.789675,100714.000,17142,2,EL,1,100,0.317512
1576765158.856936,100770.667,17161,3,EL,1,100,0.317955
1576765158.924197,100827.333,17161,3,EL,1,100,0.317512
1576765158.991458,100884.000,17161,3,EL,1,100,0.317512
1576765159.054367,100937.000,17181,2,EL,1,100,0.317109
1576765159.117276,100990.000,17181,2,EL,1,100,0.317391
1576765159.180184,101043.000,17199,1,EL,1,100,0.316908
1576765159.248435,101100.500,17217,2,EL,1,100,0.317150
1576765159.316684,101158.000,17217,2,EL,1,100,0.317190
1576765159.386122,101216.500,17234,2,EL,1,100,0.316545
1576765159.455559,101275.000,17234,2,EL,1,100,0.316465
1576765159.523808,101332.500,17253,2,EL,1,100,0.316425
1576765159.592059,101390.000,17253,2,EL,1,100,0.316344
1576765159.659715,101447.000,17269,2,EL,1,100,0.316143
1576765159.727372,101504.000,17269,2,EL,1,100,0.316183
1576765159.798589,101564.000,17287,1,EL,1,100,0.316384
1576765159.861498,101617.000,17305,2,EL,1,100,0.316586
1576765159.924407,101670.000,17305,2,EL,1,100,0.315981
1576765159.990283,101725.500,17323,2,EL,1,100,0.316263
1576765160.056159,101781.000,17323,2,EL,1,100,0.315659
1576765160.125002,101839.000,17341,2,EL,1,100,0.315135
1576765160.193846,101897.000,17341,2,EL,1,100,0.314853
1576765160.259129,101952.000,17359,2,EL,1,100,0.315135
1576765160.324411,102007.000,17359,2,EL,1,100,0.314934
1576765160.394442,102066.000,17377,1,EL,1,100,0.315055
1576765160.461505,102122.500,17395,2,EL,1,100,0.315256
1576765160.528568,102179.000,17395,2,EL,1,100,0.316022
1576765160.598005,102237.500,17413,2,EL,1,100,0.315377
1576765160.667442,102296.000,17413,2,EL,1,100,0.314692
1576765160.729757,102348.500,17429,2,EL,1,100,0.315377
1576765160.792072,102401.000,17429,2,EL,1,100,0.314692
1576765160.857355,102456.000,17447,2,EL,1,100,0.314612
1576765160.922638,102511.000,17447,2,EL,1,100,0.314169
1576765160.987920,102566.000,17465,1,EL,1,100,0.314692
1576765161.057357,102624.500,17483,2,EL,1,100,0.315015
1576765161.126794,102683.000,17483,2,EL,1,100,0.314088
1576765161.195638,102741.000,17501,2,EL,1,100,0.313927
1576765161.264481,102799.000,17501,2,EL,1,100,0.313967
1576765161.326203,102851.000,17519,2,EL,1,100,0.313403
1576765161.387925,102903.000,17519,2,EL,1,100,0.313726
1576765161.453207,102958.000,17537,2,EL,1,100,0.313041
1576765161.518490,103013.000,17537,2,EL,1,100,0.313645
1576765161.583773,103068.000,17556,1,EL,1,100,0.312598
1576765161.653210,103126.500,17573,2,EL,1,100,0.312437
1576765161.722647,103185.000,17573,2,EL,1,100,0.312356
1576765161.793271,103244.500,17591,2,EL,1,100,0.312316
1576765161.863895,103304.000,17591,2,EL,1,100,0.312074
1576765161.925617,103356.000,17607,2,EL,1,100,0.312557
1576765161.987338,103408.000,17607,2,EL,1,100,0.312275
1576765162.050841,103461.500,17625,2,EL,1,100,0.311309
1576765162.114343,103515.000,17625,2,EL,1,100,0.311873
1576765162.181999,103572.000,17643,1,EL,1,100,0.311147
1576765162.250843,103630.000,17661,2,EL,1,100,0.311510
1576765162.319686,103688.000,17661,2,EL,1,100,0.310946
1576765162.389123,103746.500,17679,2,EL,1,100,0.311268
1576765162.458560,103805.000,17679,2,EL,1,100,0.310986
1576765162.520876,103857.500,17698,2,EL,1,100,0.311470
1576765162.583191,103910.000,17698,2,EL,1,100,0.310664
1576765162.647287,103964.000,17716,2,EL,1,100,0.310825
1576765162.711382,104018.000,17716,2,EL,1,100,0.311268
1576765162.779039,104075.000,17734,1,EL,1,100,0.311389
1576765162.846695,104132.000,17751,2,EL,1,100,0.311550
1576765162.914352,104189.000,17751,2,EL,1,100,0.310906
1576765162.983789,104247.500,17769,2,EL,1,100,0.311631
1576765163.053226,104306.000,17769,2,EL,1,100,0.311591
1576765163.120289,104362.500,17787,2,EL,1,100,0.311309
1576765163.187352,104419.000,17787,2,EL,1,100,0.310624
1576765163.258569,104479.000,17803,1,EL,1,100,0.310825
1576765163.326226,104536.000,17821,2,EL,1,100,0.310584
1576765163.393883,104593.000,17821,2,EL,1,100,0.310382
1576765163.462726,104651.000,17839,2,EL,1,100,0.310422
1576765163.531570,104709.000,17839,2,EL,1,100,0.311309
1576765163.595072,104762.500,17858,2,EL,1,100,0.311107
1576765163.658574,104816.000,17858,2,EL,1,100,0.310825
1576765163.722670,104870.000,17876,2,EL,1,100,0.311188
1576765163.786766,104924.000,17876,2,EL,1,100,0.311188
1576765163.853829,104980.500,17894,2,EL,1,100,0.311107
1576765163.920892,105037.000,17894,2,EL,1,100,0.311550
1576765163.990922,105096.000,17912,1,EL,1,100,0.311953
1576765164.059172,105153.500,17929,2,EL,1,100,0.311832
1576765164.127422,105211.000,17929,2,EL,1,100,0.311752
1576765164.193298,105266.500,17947,2,EL,1,100,0.311953
1576765164.259175,105322.000,17947,2,EL,1,100,0.310946
1576765164.322083,105375.000,17963,2,EL,1,100,0.311832
1576765164.384992,105428.000,17963,2,EL,1,100,0.311591
1576765164.452649,105485.000,17981,2,EL,1,100,0.312195
1576765164.520305,105542.000,17981,2,EL,1,100,0.311873
1576765164.586775,105598.000,18000,1,EL,1,100,0.311631
1576765164.656212,105656.500,18018,2,EL,1,100,0.312155
1576765164.725649,105715.000,18018,2,EL,1,100,0.311832
1576765164.791525,105770.500,18036,2,EL,1,100,0.311027
1576765164.857401,105826.000,18036,2,EL,1,100,0.311711
1576765164.921497,105880.000,18057,3,EL,1,100,0.311228
1576765164.985592,105934.000,18057,3,EL,1,100,0.311228
1576765165.049688,105988.000,18057,3,EL,1,100,0.311188
1576765165.117345,106045.000,18075,2,EL,1,100,0.311107
1576765165.185001,106102.000,18075,2,EL,1,100,0.310543
1576765165.256219,106162.000,18095,1,EL,1,100,0.310261
1576765165.323875,106219.000,18113,2,EL,1,100,0.310100
1576765165.391532,106276.000,18113,2,EL,1,100,0.309536
1576765165.455627,106330.000,18131,2,EL,1,100,0.309375
1576765165.519723,106384.000,18131,2,EL,1,100,0.309738
1576765165.585006,106439.000,18150,2,EL,1,100,0.309053
1576765165.650289,106494.000,18150,2,EL,1,100,0.308972
1576765165.716758,106550.000,18168,2,EL,1,100,0.308650
1576765165.783228,106606.000,18168,2,EL,1,100,0.308569
1576765165.855632,106667.000,18186,1,EL,1,100,0.308046
1576765165.923289,106724.000,18203,2,EL,1,100,0.308046
1576765165.990945,106781.000,18203,2,EL,1,100,0.308086
1576765166.056228,106836.000,18221,2,EL,1,100,0.307562
1576765166.121511,106891.000,18221,2,EL,1,100,0.307119
1576765166.184419,106944.000,18239,2,EL,1,100,0.307280
1576765166.247328,106997.000,18239,2,EL,1,100,0.306837
1576765166.313204,107052.500,18255,2,EL,1,100,0.306837
1576765166.379080,107108.000,18255,2,EL,1,100,0.306716
1576765166.451485,107169.000,18273,1,EL,1,100,0.305951
1576765166.517954,107225.000,18292,2,EL,1,100,0.306515
1576765166.584424,107281.000,18292,2,EL,1,100,0.305951
1576765166.651487,107337.500,18310,2,EL,1,100,0.306394
1576765166.718550,107394.000,18310,2,EL,1,100,0.305750
1576765166.780865,107446.500,18328,2,EL,1,100,0.305870
1576765166.843180,107499.000,18328,2,EL,1,100,0.305629
1576765166.910244,107555.500,18346,2,EL,1,100,0.306354
1576765166.977307,107612.000,18346,2,EL,1,100,0.306112
1576765167.041996,107666.500,18364,2,EL,1,100,0.306152
1576765167.106685,107721.000,18364,2,EL,1,100,0.306072
1576765167.175529,107779.000,18382,1,EL,1,100,0.305669
1576765167.240218,107833.500,18399,2,EL,1,100,0.305830
1576765167.304907,107888.000,18399,2,EL,1,100,0.306152
1576765167.374344,107946.500,18417,2,EL,1,100,0.306152
1576765167.443781,108005.000,18417,2,EL,1,100,0.306152
1576765167.512031,108062.500,18434,2,EL,1,100,0.305750
1576765167.580281,108120.000,18434,2,EL,1,100,0.306434
1576765167.651498,108180.000,18452,1,EL,1,100,0.305427
1576765167.715594,108234.000,18470,2,EL,1,100,0.306193
1576765167.779690,108288.000,18470,2,EL,1,100,0.305830
1576765167.843192,108341.500,18488,2,EL,1,100,0.305870
1576765167.906694,108395.000,18488,2,EL,1,100,0.305105
1576765167.974944,108452.500,18506,2,EL,1,100,0.305991
1576765168.043194,108510.000,18506,2,EL,1,100,0.305870
1576765168.111444,108567.500,18524,2,EL,1,100,0.305468
1576765168.179694,108625.000,18524,2,EL,1,100,0.305588
1576765168.248538,108683.000,18542,1,EL,1,100,0.306233
1576765168.314414,108738.500,18559,2,EL,1,100,0.306031
1576765168.380290,108794.000,18559,2,EL,1,100,0.306273
1576765168.443199,108847.000,18578,2,EL,1,100,0.306233
1576765168.506108,108900.000,18578,2,EL,1,100,0.306555
1576765168.571984,108955.500,18596,2,EL,1,100,0.306555
1576765168.637860,109011.000,18596,2,EL,1,100,0.306313
1576765168.706110,109068.500,18614,2,EL,1,100,0.306797
1576765168.774360,109126.000,18614,2,EL,1,100,0.306595
1576765168.842016,109183.000,18630,1,EL,1,100,0.305991
1576765168.909080,109239.500,18648,2,EL,1,100,0.306797
1576765168.976143,109296.000,18648,2,EL,1,100,0.307643
1576765169.039645,109349.500,18666,2,EL,1,100,0.307159
1576765169.103147,109403.000,18666,2,EL,1,100,0.307361
1576765169.169617,109459.000,18684,2,EL,1,100,0.307240
1576765169.236086,109515.000,18684,2,EL,1,100,0.307159
1576765169.303743,109572.000,18702,2,EL,1,100,0.307401
1576765169.371399,109629.000,18702,2,EL,1,100,0.307200
1576765169.442617,109689.000,18720,1,EL,1,100,0.307079
1576765169.509680,109745.500,18739,2,EL,1,100,0.308489
1576765169.576743,109802.000,18739,2,EL,1,100,0.308046
1576765169.640245,109855.500,18756,2,EL,1,100,0.308126
1576765169.703748,109909.000,18756,2,EL,1,100,0.308287
1576765169.769624,109964.500,18774,2,EL,1,100,0.308167
1576765169.835500,110020.000,18774,2,EL,1,100,0.307925
1576765169.902563,110076.500,18792,2,EL,1,100,0.307925
1576765169.969626,110133.000,18792,2,EL,1,100,0.307401
1576765170.038470,110191.000,18808,2,EL,1,100,0.308086
1576765170.107313,110249.000,18808,2,EL,1,100,0.307844
1576765170.176157,110307.000,18826,1,EL,1,100,0.307965
1576765170.239065,110360.000,18844,2,EL,1,100,0.308046
1576765170.301974,110413.000,18844,2,EL,1,100,0.307240
1576765170.366663,110467.500,18862,2,EL,1,100,0.307119
1576765170.431352,110522.000,18862,2,EL,1,100,0.306797
1576765170.497228,110577.500,18881,2,EL,1,100,0.307562
1576765170.563105,110633.000,18881,2,EL,1,100,0.307159
1576765170.631355,110690.500,18899,2,EL,1,100,0.306475
1576765170.699605,110748.000,18899,2,EL,1,100,0.306918
1576765170.772009,110809.000,18917,1,EL,1,100,0.306434
1576765170.840259,110866.500,18934,2,EL,1,100,0.307119
1576765170.908509,110924.000,18934,2,EL,1,100,0.306475
1576765170.977748,110982.333,18955,3,EL,1,100,0.306434
1576765171.046988,111040.667,18955,3,EL,1,100,0.306273
1576765171.116227,111099.000,18955,3,EL,1,100,0.306716
1576765171.185664,111157.500,18975,2,EL,1,100,0.305306
1576765171.255101,111216.000,18975,2,EL,1,100,0.305508
1576765171.316823,111268.000,18993,1,EL,1,100,0.305387
1576765171.381512,111322.500,19010,2,EL,1,100,0.305387
1576765171.446201,111377.000,19010,2,EL,1,100,0.305427
1576765171.513264,111433.500,19029,2,EL,1,100,0.305186
1576765171.580327,111490.000,19029,2,EL,1,100,0.304662
1576765171.647390,111546.500,19047,2,EL,1,100,0.304702
1576765171.714453,111603.000,19047,2,EL,1,100,0.305105
1576765171.788044,111665.000,19063,1,EL,1,100,0.304944
1576765171.855701,111722.000,19081,2,EL,1,100,0.304702
1576765171.923358,111779.000,19081,2,EL,1,100,0.304299
1576765171.995168,111839.500,19099,2,EL,1,100,0.304863
1576765172.066979,111900.000,19099,2,EL,1,100,0.303735
1576765172.129295,111952.500,19117,2,EL,1,100,0.303977
1576765172.191610,112005.000,19117,2,EL,1,100,0.304058
1576765172.256893,112060.000,19135,2,EL,1,100,0.304340
1576765172.322175,112115.000,19135,2,EL,1,100,0.304420
1576765172.387458,112170.000,19153,1,EL,1,100,0.303816
1576765172.456301,112228.000,19171,2,EL,1,100,0.303977
1576765172.525145,112286.000,19171,2,EL,1,100,0.303776
1576765172.593988,112344.000,19189,2,EL,1,100,0.303816
1576765172.662832,112402.000,19189,2,EL,1,100,0.304178
1576765172.725741,112455.000,19207,2,EL,1,100,0.303776
1576765172.788650,112508.000,19207,2,EL,1,100,0.303655
1576765172.852745,112562.000,19223,2,EL,1,100,0.304219
1576765172.916841,112616.000,19223,2,EL,1,100,0.304178
1576765172.980937,112670.000,19241,1,EL,1,100,0.304863
1576765173.050967,112729.000,19259,2,EL,1,100,0.304460
1576765173.120997,112788.000,19259,2,EL,1,100,0.304541
1576765173.191028,112847.000,19277,2,EL,1,100,0.304984
1576765173.261059,112906.000,19277,2,EL,1,100,0.304742
1576765173.325154,112960.000,19295,2,EL,1,100,0.305024
1576765173.389250,113014.000,19295,2,EL,1,100,0.305226
1576765173.452752,113067.500,19313,2,EL,1,100,0.305387
1576765173.516254,113121.000,19313,2,EL,1,100,0.305387
1576765173.583911,113178.000,19332,1,EL,1,100,0.305105
1576765173.652754,113236.000,19350,2,EL,1,100,0.305145
1576765173.721598,113294.000,19350,2,EL,1,100,0.305266
1576765173.791035,113352.500,19367,2,EL,1,100,0.305024
1576765173.860472,113411.000,19367,2,EL,1,100,0.305186
1576765173.923974,113464.500,19385,2,EL,1,100,0.305387
1576765173.987476,113518.000,19385,2,EL,1,100,0.305065
1576765174.050979,113571.500,19401,2,EL,1,100,0.305830
1576765174.114481,113625.000,19401,2,EL,1,100,0.305629
1576765174.182137,113682.000,19419,2,EL,1,100,0.305991
1576765174.249794,113739.000,19419,2,EL,1,100,0.305870
1576765174.316263,113795.000,19437,1,EL,1,100,0.305870
1576765174.385700,113853.500,19455,2,EL,1,100,0.305306
1576765174.455137,113912.000,19455,2,EL,1,100,0.305266
1576765174.521607,113968.000,19474,2,EL,1,100,0.304984
1576765174.588077,114024.000,19474,2,EL,1,100,0.305588
1576765174.650985,114077.000,19492,2,EL,1,100,0.304460
1576765174.713894,114130.000,19492,2,EL,1,100,0.304219
1576765174.778583,114184.500,19510,2,EL,1,100,0.303695
1576765174.843272,114239.000,19510,2,EL,1,100,0.303816
1576765174.906181,114292.000,19528,1,EL,1,100,0.303856
1576765174.971464,114347.000,19546,2,EL,1,100,0.303171
1576765175.036747,114402.000,19546,2,EL,1,100,0.303091
1576765175.099062,114454.500,19563,2,EL,1,100,0.302245
1576765175.161377,114507.000,19563,2,EL,1,100,0.301439
1576765175.228440,114563.500,19581,2,EL,1,100,0.300956
1576765175.295503,114620.000,19581,2,EL,1,100,0.300795
1576765175.364940,114678.500,19599,2,EL,1,100,0.300553
1576765175.434377,114737.000,19599,2,EL,1,100,0.299828
1576765175.502627,114794.500,19616,2,EL,1,100,0.299989
1576765175.570877,114852.000,19616,2,EL,1,100,0.299667
1576765175.634973,114906.000,19634,1,EL,1,100,0.299143
1576765175.697882,114959.000,19652,2,EL,1,100,0.298297
1576765175.760791,115012.000,19652,2,EL,1,100,0.298217
1576765175.826073,115067.000,19670,2,EL,1,100,0.297733
1576765175.891356,115122.000,19670,2,EL,1,100,0.297653
1576765175.960793,115180.500,19688,2,EL,1,100,0.298055
1576765176.030230,115239.000,19688,2,EL,1,100,0.296766
1576765176.098480,115296.500,19706,2,EL,1,100,0.296565
1576765176.166730,115354.000,19706,2,EL,1,100,0.296766
1576765176.234386,115411.000,19724,1,EL,1,100,0.295518
1576765176.297295,115464.000,19741,2,EL,1,100,0.295719
1576765176.360204,115517.000,19741,2,EL,1,100,0.295840
1576765176.426080,115572.500,19760,2,EL,1,100,0.295679
1576765176.491956,115628.000,19760,2,EL,1,100,0.294994
1576765176.560206,115685.500,19778,2,EL,1,100,0.295195
1576765176.628456,115743.000,19778,2,EL,1,100,0.294833
1576765176.696706,115800.500,19794,2,EL,1,100,0.294954
1576765176.764956,115858.000,19794,2,EL,1,100,0.294551
1576765176.836174,115918.000,19812,1,EL,1,100,0.294994
1576765176.897896,115970.000,19830,2,EL,1,100,0.295115
1576765176.959617,116022.000,19830,2,EL,1,100,0.294913
1576765177.025691,116077.667,19851,3,EL,1,100,0.294833
1576765177.091765,116133.333,19851,3,EL,1,100,0.294712
1576765177.157839,116189.000,19851,3,EL,1,100,0.295155
1576765177.227276,116247.500,19871,2,EL,1,100,0.294591
1576765177.296713,116306.000,19871,2,EL,1,100,0.294712
1576765177.367337,116365.500,19887,2,EL,1,100,0.294349
1576765177.437961,116425.000,19887,2,EL,1,100,0.294188
1576765177.499683,116477.000,19906,1,EL,1,100,0.294712
1576765177.563185,116530.500,19924,2,EL,1,100,0.295115
1576765177.626687,116584.000,19924,2,EL,1,100,0.294833
1576765177.692564,116639.500,19942,2,EL,1,100,0.295074
1576765177.758440,116695.000,19942,2,EL,1,100,0.295155
1576765177.826690,116752.500,19960,2,EL,1,100,0.295236
1576765177.894940,116810.000,19960,2,EL,1,100,0.295074
1576765177.964970,116869.000,19978,2,EL,1,100,0.295800
1576765178.035001,116928.000,19978,2,EL,1,100,0.294913
1576765178.100283,116983.000,19996,1,EL,1,100,0.295638
1576765178.162599,117035.500,20013,2,EL,1,100,0.295638
1576765178.224914,117088.000,20013,2,EL,1,100,0.295437
1576765178.290196,117143.000,20031,2,EL,1,100,0.296202
1576765178.355479,117198.000,20031,2,EL,1,100,0.296404
1576765178.423136,117255.000,20049,2,EL,1,100,0.296323
1576765178.490792,117312.000,20049,2,EL,1,100,0.296323
1576765178.561416,117371.500,20066,2,EL,1,100,0.296565
1576765178.632040,117431.000,20066,2,EL,1,100,0.296646
1576765178.697323,117486.000,20084,1,EL,1,100,0.296686
1576765178.767947,117545.500,20102,2,EL,1,100,0.296847
1576765178.838571,117605.000,20102,2,EL,1,100,0.297814
1576765178.906227,117662.000,20120,2,EL,1,100,0.297209
1576765178.973884,117719.000,20120,2,EL,1,100,0.297854
1576765179.042727,117777.000,20138,2,EL,1,100,0.297975
1576765179.111571,117835.000,20138,2,EL,1,100,0.298418
1576765179.175667,117889.000,20156,1,EL,1,100,0.298176
1576765179.239169,117942.500,20173,2,EL,1,100,0.298257
1576765179.302671,117996.000,20173,2,EL,1,100,0.298619
1576765179.369141,118052.000,20191,2,EL,1,100,0.298257
1576765179.435610,118108.000,20191,2,EL,1,100,0.298982
1576765179.503860,118165.500,20210,2,EL,1,100,0.298821
1576765179.572110,118223.000,20210,2,EL,1,100,0.299425
1576765179.640954,118281.000,20226,2,EL,1,100,0.299425
1576765179.709797,118339.000,20226,2,EL,1,100,0.299626
1576765179.776267,118395.000,20244,1,EL,1,100,0.299385
1576765179.839769,118448.500,20262,2,EL,1,100,0.299949
1576765179.903271,118502.000,20262,2,EL,1,100,0.300714
1576765179.967961,118556.500,20280,2,EL,1,100,0.300795
1576765180.032650,118611.000,20280,2,EL,1,100,0.300513
1576765180.100306,118668.000,20298,2,EL,1,100,0.300956
1576765180.167963,118725.000,20298,2,EL,1,100,0.301399
1576765180.236806,118783.000,20316,2,EL,1,100,0.301036
1576765180.305650,118841.000,20316,2,EL,1,100,0.301439
1576765180.374493,118899.000,20334,1,EL,1,100,0.301560
1576765180.437402,118952.000,20352,2,EL,1,100,0.301802
1576765180.500311,119005.000,20352,2,EL,1,100,0.301923
1576765180.565593,119060.000,20370,2,EL,1,100,0.302607
1576765180.630876,119115.000,20370,2,EL,1,100,0.302366
1576765180.697939,119171.500,20388,2,EL,1,100,0.302688
1576765180.765002,119228.000,20388,2,EL,1,100,0.302527
1576765180.833846,119286.000,20406,2,EL,1,100,0.302728
1576765180.902689,119344.000,20406,2,EL,1,100,0.303171
1576765180.972720,119403.000,20422,1,EL,1,100,0.302970
1576765181.036222,119456.500,20440,2,EL,1,100,0.303494
1576765181.099724,119510.000,20440,2,EL,1,100,0.302889
1576765181.165007,119565.000,20458,2,EL,1,100,0.304138
1576765181.230290,119620.000,20458,2,EL,1,100,0.303735
1576765181.296759,119676.000,20476,2,EL,1,100,0.303896
1576765181.363229,119732.000,20476,2,EL,1,100,0.304138
1576765181.432072,119790.000,20494,2,EL,1,100,0.304541
1576765181.500916,119848.000,20494,2,EL,1,100,0.304501
1576765181.568573,119905.000,20513,1,EL,1,100,0.304138
1576765181.633855,119960.000,20530,2,EL,1,100,0.304420
1576765181.699138,120015.000,20530,2,EL,1,100,0.304420
1576765181.762640,120068.500,20548,2,EL,1,100,0.304863
1576765181.826142,120122.000,20548,2,EL,1,100,0.304501
1576765181.892018,120177.500,20566,2,EL,1,100,0.305588
1576765181.957894,120233.000,20566,2,EL,1,100,0.304823
1576765182.026738,120291.000,20584,2,EL,1,100,0.305387
1576765182.095582,120349.000,20584,2,EL,1,100,0.305387
1576765182.164425,120407.000,20600,2,EL,1,100,0.305669
1576765182.233268,120465.000,20600,2,EL,1,100,0.305669
1576765182.293803,120516.000,20618,1,EL,1,100,0.305347
1576765182.363240,120574.500,20636,2,EL,1,100,0.305750
1576765182.432677,120633.000,20636,2,EL,1,100,0.305911
1576765182.496773,120687.000,20655,2,EL,1,100,0.305508
1576765182.560869,120741.000,20655,2,EL,1,100,0.304904
1576765182.626745,120796.500,20673,2,EL,1,100,0.305911
1576765182.692621,120852.000,20673,2,EL,1,100,0.305830
1576765182.756123,120905.500,20691,2,EL,1,100,0.306193
1576765182.819625,120959.000,20691,2,EL,1,100,0.306193
1576765182.885501,121014.500,20709,2,EL,1,100,0.305709
1576765182.951378,121070.000,20709,2,EL,1,100,0.306595
1576765183.021408,121129.000,20727,1,EL,1,100,0.306112
1576765183.090647,121187.333,20747,3,EL,1,100,0.306958
1576765183.159886,121245.667,20747,3,EL,1,100,0.305911
1576765183.229126,121304.000,20747,3,EL,1,100,0.306515
1576765183.297376,121361.500,20767,2,EL,1,100,0.307401
1576765183.365626,121419.000,20767,2,EL,1,100,0.306434
1576765183.433876,121476.500,20785,2,EL,1,100,0.307401
1576765183.502126,121534.000,20785,2,EL,1,100,0.307401
1576765183.565035,121587.000,20804,1,EL,1,100,0.306918
1576765183.628537,121640.500,20821,2,EL,1,100,0.307603
1576765183.692039,121694.000,20821,2,EL,1,100,0.307401
1576765183.760882,121752.000,20839,2,EL,1,100,0.307764
1576765183.829726,121810.000,20839,2,EL,1,100,0.307039
1576765183.895602,121865.500,20857,8,EL,1,100,0.307965
1576765183.961478,121921.000,20857,8,EL,1,100,0.307885
1576765184.027354,121976.500,20857,8,EL,1,100,0.307764
1576765184.093230,122032.000,20857,8,EL,1,100,0.307401
1576765184.159107,122087.500,20857,8,EL,1,100,0.308126
1576765184.224983,122143.000,20857,8,EL,1,100,0.307482
1576765184.290859,122198.500,20857,8,EL,1,100,0.308207
1576765184.356735,122254.000,20857,8,EL,1,100,0.308207
1576765184.423724,122310.438,20876,16,EL,1,100,0.308811
1576765184.490713,122366.875,20876,16,EL,1,100,0.308932
1576765184.557702,122423.313,20876,16,EL,1,100,0.308932
1576765184.624691,122479.750,20876,16,EL,1,100,0.308650
1576765184.691679,122536.188,20876,16,EL,1,100,0.308771
1576765184.758668,122592.625,20876,16,EL,1,100,0.308650
1576765184.825657,122649.063,20876,16,EL,1,100,0.309335
1576765184.892646,122705.500,20876,16,EL,1,100,0.309133
1576765184.959635,122761.938,20876,16,EL,1,100,0.309496
1576765185.026624,122818.375,20876,16,EL,1,100,0.309858
1576765185.093613,122874.813,20876,16,EL,1,100,0.308932
1576765185.160602,122931.250,20876,16,EL,1,100,0.309294
1576765185.227591,122987.688,20876,16,EL,1,100,0.309617
1576765185.294580,123044.125,20876,16,EL,1,100,0.310020
1576765185.361568,123100.563,20876,16,EL,1,100,0.309858
1576765185.428557,123157.000,20876,16,EL,1,100,0.309375
1576765185.495135,123213.091,20895,22,EL,1,100,0.310302
1576765185.561713,123269.182,20895,22,EL,1,100,0.310261
1576765185.628290,123325.273,20895,22,EL,1,100,0.310543
1576765185.694867,123381.364,20895,22,EL,1,100,0.309899
1576765185.761445,123437.455,20895,22,EL,1,100,0.309456
1576765185.828022,123493.545,20895,22,EL,1,100,0.309012
1576765185.894600,123549.636,20895,22,EL,1,100,0.309335
1576765185.961178,123605.727,20895,22,EL,1,100,0.309778
1576765186.027755,123661.818,20895,22,EL,1,100,0.309576
1576765186.094332,123717.909,20895,22,EL,1,100,0.309012
1576765186.160910,123774.000,20895,22,EL,1,100,0.309012
1576765186.227488,123830.091,20895,22,EL,1,100,0.309375
1576765186.294065,123886.182,20895,22,EL,1,100,0.309254
1576765186.360643,123942.273,20895,22,EL,1,100,0.309697
1576765186.427220,123998.364,20895,22,EL,1,100,0.309939
1576765186.493798,124054.455,20895,22,EL,1,100,0.309174
1576765186.560375,124110.545,20895,22,EL,1,100,0.308972
1576765186.626953,124166.636,20895,22,EL,1,100,0.309174
1576765186.693530,124222.727,20895,22,EL,1,100,0.308972
1576765186.760108,124278.818,20895,22,EL,1,100,0.310100
1576765186.826685,124334.909,20895,22,EL,1,100,0.309012
1576765186.893263,124391.000,20895,22,EL,1,100,0.310140
1576765186.959937,124447.172,20914,29,EL,1,100,0.309979
1576765187.026611,124503.345,20914,29,EL,1,100,0.309778
1576765187.093286,124559.517,20914,29,EL,1,100,0.309858
1576765187.159960,124615.690,20914,29,EL,1,100,0.309294
1576765187.226634,124671.862,20914,29,EL,1,100,0.310100
1576765187.293308,124728.034,20914,29,EL,1,100,0.309174
1576765187.359982,124784.207,20914,29,EL,1,100,0.309133
1576765187.426657,124840.379,20914,29,EL,1,100,0.308932
1576765187.493331,124896.552,20914,29,EL,1,100,0.309617
1576765187.560005,124952.724,20914,29,EL,1,100,0.310020
1576765187.626679,125008.897,20914,29,EL,1,100,0.309617
1576765187.693354,125065.069,20914,29,EL,1,100,0.309496
1576765187.760028,125121.241,20914,29,EL,1,100,0.309617
1576765187.826702,125177.414,20914,29,EL,1,100,0.309576
1576765187.893377,125233.586,20914,29,EL,1,100,0.309496
1576765187.960051,125289.759,20914,29,EL,1,100,0.310221
1576765188.026725,125345.931,20914,29,EL,1,100,0.309214
1576765188.093399,125402.103,20914,29,EL,1,100,0.310302
1576765188.160074,125458.276,20914,29,EL,1,100,0.309053
1576765188.226748,125514.448,20914,29,EL,1,100,0.308368
1576765188.293422,125570.621,20914,29,EL,1,100,0.308650
1576765188.360096,125626.793,20914,29,EL,1,100,0.308610
1576765188.426771,125682.966,20914,29,EL,1,100,0.308529
1576765188.493445,125739.138,20914,29,EL,1,100,0.308368
1576765188.560119,125795.310,20914,29,EL,1,100,0.307965
1576765188.626793,125851.483,20914,29,EL,1,100,0.308086
1576765188.693468,125907.655,20914,29,EL,1,100,0.307643
1576765188.760142,125963.828,20914,29,EL,1,100,0.307200
1576765188.826816,126020.000,20914,29,EL,1,100,0.308046
1576765188.894649,126077.148,20936,27,EL,1,100,0.307683
1576765188.962481,126134.296,20936,27,EL,1,100,0.307723
1576765189.030313,126191.444,20936,27,EL,1,100,0.307079
1576765189.098146,126248.593,20936,27,EL,1,100,0.305911
1576765189.165978,126305.741,20936,27,EL,1,100,0.305427
1576765189.233811,126362.889,20936,27,EL,1,100,0.305145
1576765189.301643,126420.037,20936,27,EL,1,100,0.305105
1576765189.369475,126477.185,20936,27,EL,1,100,0.304501
1576765189.437308,126534.333,20936,27,EL,1,100,0.304259
1576765189.505140,126591.481,20936,27,EL,1,100,0.304581
1576765189.572973,126648.630,20936,27,EL,1,100,0.303896
1576765189.640805,126705.778,20936,27,EL,1,100,0.303131
1576765189.708637,126762.926,20936,27,EL,1,100,0.303131
1576765189.776470,126820.074,20936,27,EL,1,100,0.303091
1576765189.844302,126877.222,20936,27,EL,1,100,0.302527
1576765189.912135,126934.370,20936,27,EL,1,100,0.302164
1576765189.979967,126991.519,20936,27,EL,1,100,0.302205
1576765190.047800,127048.667,20936,27,EL,1,100,0.301963
1576765190.115632,127105.815,20936,27,EL,1,100,0.301399
1576765190.183464,127162.963,20936,27,EL,1,100,0.301761
1576765190.251297,127220.111,20936,27,EL,1,100,0.301117
1576765190.319129,127277.259,20936,27,EL,1,100,0.300674
1576765190.386961,127334.407,20936,27,EL,1,100,0.300311
1576765190.454794,127391.556,20936,27,EL,1,100,0.299506
1576765190.522626,127448.704,20936,27,EL,1,100,0.299908
1576765190.590459,127505.852,20936,27,EL,1,100,0.300231
1576765190.658291,127563.000,20936,27,EL,1,100,0.300352
1576765190.724761,127619.000,20956,5,EL,1,100,0.299788
1576765190.791230,127675.000,20956,5,EL,1,100,0.299506
1576765190.857700,127731.000,20956,5,EL,1,100,0.298982
1576765190.924170,127787.000,20956,5,EL,1,100,0.298619
1576765190.990639,127843.000,20956,5,EL,1,100,0.299143
1576765191.063044,127904.000,20975,1,EL,1,100,0.298901
1576765191.128326,127959.000,20992,2,EL,1,100,0.298297
1576765191.193609,128014.000,20992,2,EL,1,100,0.297612
1576765191.257111,128067.500,21010,2,EL,1,100,0.297653
1576765191.320613,128121.000,21010,2,EL,1,100,0.297935
1576765191.387083,128177.000,21028,2,EL,1,100,0.298096
1576765191.453552,128233.000,21028,2,EL,1,100,0.297048
1576765191.520022,128289.000,21045,2,EL,1,100,0.297693
1576765191.586492,128345.000,21045,2,EL,1,100,0.296565
1576765191.658896,128406.000,21063,1,EL,1,100,0.296484
1576765191.725366,128462.000,21081,2,EL,1,100,0.297048
1576765191.791835,128518.000,21081,2,EL,1,100,0.295840
1576765191.855338,128571.500,21099,2,EL,1,100,0.296686
1576765191.918840,128625.000,21099,2,EL,1,100,0.295397
1576765191.984123,128680.000,21117,2,EL,1,100,0.295880
1576765192.049405,128735.000,21117,2,EL,1,100,0.295477
1576765192.117062,128792.000,21135,2,EL,1,100,0.295719
1576765192.184718,128849.000,21135,2,EL,1,100,0.294752
1576765192.253562,128907.000,21153,1,EL,1,100,0.295115
1576765192.321812,128964.500,21171,2,EL,1,100,0.295236
1576765192.390062,129022.000,21171,2,EL,1,100,0.295195
1576765192.454751,129076.500,21188,2,EL,1,100,0.295316
1576765192.519440,129131.000,21188,2,EL,1,100,0.294591
1576765192.584129,129185.500,21207,2,EL,1,100,0.294712
1576765192.648818,129240.000,21207,2,EL,1,100,0.294470
1576765192.715882,129296.500,21224,2,EL,1,100,0.293826
1576765192.782945,129353.000,21224,2,EL,1,100,0.294309
1576765192.852975,129412.000,21241,1,EL,1,100,0.295316
1576765192.921225,129469.500,21259,2,EL,1,100,0.294792
1576765192.989475,129527.000,21259,2,EL,1,100,0.294551
1576765193.055945,129583.000,21277,2,EL,1,100,0.294954
1576765193.122414,129639.000,21277,2,EL,1,100,0.294390
1576765193.185323,129692.000,21295,2,EL,1,100,0.294672
1576765193.248232,129745.000,21295,2,EL,1,100,0.293785
1576765193.314702,129801.000,21313,2,EL,1,100,0.294631
1576765193.381171,129857.000,21313,2,EL,1,100,0.294591
1576765193.451202,129916.000,21331,1,EL,1,100,0.294430
1576765193.518265,129972.500,21350,2,EL,1,100,0.295155
1576765193.585328,130029.000,21350,2,EL,1,100,0.294430
1576765193.652984,130086.000,21367,2,EL,1,100,0.294551
1576765193.720641,130143.000,21367,2,EL,1,100,0.295155
1576765193.784143,130196.500,21385,2,EL,1,100,0.294470
1576765193.847645,130250.000,21385,2,EL,1,100,0.295115
1576765193.912928,130305.000,21403,2,EL,1,100,0.295356
1576765193.978211,130360.000,21403,2,EL,1,100,0.295518
1576765194.051802,130422.000,21419,1,EL,1,100,0.294792
1576765194.118272,130478.000,21437,2,EL,1,100,0.295759
1576765194.184741,130534.000,21437,2,EL,1,100,0.295477
1576765194.252991,130591.500,21455,2,EL,1,100,0.296082
1576765194.321241,130649.000,21455,2,EL,1,100,0.296041
1576765194.384743,130702.500,21473,2,EL,1,100,0.296122
1576765194.448246,130756.000,21473,2,EL,1,100,0.296484
1576765194.511748,130809.500,21492,2,EL,1,100,0.296766
1576765194.575250,130863.000,21492,2,EL,1,100,0.296444
1576765194.643500,130920.500,21510,2,EL,1,100,0.296726
1576765194.711750,130978.000,21510,2,EL,1,100,0.296646
1576765194.778220,131034.000,21528,1,EL,1,100,0.296968
1576765194.848250,131093.000,21545,2,EL,1,100,0.296686
1576765194.918281,131152.000,21545,2,EL,1,100,0.297048
1576765194.980596,131204.500,21563,2,EL,1,100,0.297411
1576765195.042911,131257.000,21563,2,EL,1,100,0.296807
1576765195.105820,131310.000,21581,2,EL,1,100,0.296484
1576765195.168729,131363.000,21581,2,EL,1,100,0.297169
1576765195.237572,131421.000,21597,2,EL,1,100,0.297371
1576765195.306416,131479.000,21597,2,EL,1,100,0.297451
1576765195.376446,131538.000,21615,1,EL,1,100,0.297612
1576765195.444696,131595.500,21634,2,EL,1,100,0.297169
1576765195.512946,131653.000,21634,2,EL,1,100,0.297491
1576765195.577636,131707.500,21652,2,EL,1,100,0.297572
1576765195.642325,131762.000,21652,2,EL,1,100,0.297491
1576765195.706420,131816.000,21670,2,EL,1,100,0.297854
1576765195.770516,131870.000,21670,2,EL,1,100,0.298257
1576765195.837579,131926.500,21688,2,EL,1,100,0.298176
1576765195.904642,131983.000,21688,2,EL,1,100,0.298378
1576765195.974673,132042.000,21706,1,EL,1,100,0.298660
1576765196.044110,132100.500,21723,2,EL,1,100,0.298660
1576765196.113547,132159.000,21723,2,EL,1,100,0.298257
1576765196.178829,132214.000,21741,2,EL,1,100,0.298176
1576765196.244112,132269.000,21741,2,EL,1,100,0.297894
1576765196.306427,132321.500,21759,2,EL,1,100,0.298015
1576765196.368743,132374.000,21759,2,EL,1,100,0.298458
1576765196.436399,132431.000,21775,2,EL,1,100,0.298942
1576765196.504056,132488.000,21775,2,EL,1,100,0.298499
1576765196.571712,132545.000,21797,2,EL,1,100,0.298740
1576765196.639369,132602.000,21797,2,EL,1,100,0.298660
1576765196.708806,132660.500,21816,2,EL,1,100,0.298418
1576765196.778243,132719.000,21816,2,EL,1,100,0.297854
1576765196.842339,132773.000,21835,2,EL,1,100,0.297733
1576765196.906434,132827.000,21835,2,EL,1,100,0.297814
1576765196.972310,132882.500,21851,2,EL,1,100,0.296847
1576765197.038187,132938.000,21851,2,EL,1,100,0.297169
1576765197.103469,132993.000,21869,1,EL,1,100,0.296444
1576765197.172906,133051.500,21887,2,EL,1,100,0.295719
1576765197.242343,133110.000,21887,2,EL,1,100,0.295719
1576765197.309406,133166.500,21905,2,EL,1,100,0.295518
1576765197.376469,133223.000,21905,2,EL,1,100,0.295195
1576765197.441752,133278.000,21923,2,EL,1,100,0.295034
1576765197.507035,133333.000,21923,2,EL,1,100,0.295034
1576765197.572911,133388.500,21942,2,EL,1,100,0.295155
1576765197.638787,133444.000,21942,2,EL,1,100,0.295437
1576765197.705256,133500.000,21960,1,EL,1,100,0.295558
1576765197.775287,133559.000,21977,2,EL,1,100,0.295800
1576765197.845317,133618.000,21977,2,EL,1,100,0.295558
1576765197.911787,133674.000,21995,2,EL,1,100,0.296001
1576765197.978257,133730.000,21995,2,EL,1,100,0.295518
1576765198.042946,133784.500,22011,2,EL,1,100,0.295155
1576765198.107635,133839.000,22011,2,EL,1,100,0.295477
1576765198.169950,133891.500,22029,2,EL,1,100,0.295558
1576765198.232265,133944.000,22029,2,EL,1,100,0.295477
1576765198.298735,134000.000,22047,1,EL,1,100,0.295316
1576765198.368766,134059.000,22065,2,EL,1,100,0.294591
1576765198.438796,134118.000,22065,2,EL,1,100,0.294148
1576765198.507046,134175.500,22084,2,EL,1,100,0.294631
1576765198.575296,134233.000,22084,2,EL,1,100,0.294430
1576765198.642359,134289.500,22102,2,EL,1,100,0.293906
1576765198.709422,134346.000,22102,2,EL,1,100,0.294430
1576765198.772924,134399.500,22120,2,EL,1,100,0.294188
1576765198.836427,134453.000,22120,2,EL,1,100,0.293987
1576765198.900522,134507.000,22138,1,EL,1,100,0.293947
1576765198.969366,134565.000,22156,2,EL,1,100,0.293826
1576765199.038209,134623.000,22156,2,EL,1,100,0.293463
1576765199.106460,134680.500,22173,2,EL,1,100,0.293503
1576765199.174710,134738.000,22173,2,EL,1,100,0.294672
1576765199.243553,134796.000,22190,2,EL,1,100,0.293906
1576765199.312397,134854.000,22190,2,EL,1,100,0.294229
1576765199.374712,134906.500,22207,2,EL,1,100,0.293947
1576765199.437027,134959.000,22207,2,EL,1,100,0.294027
1576765199.501123,135013.000,22226,2,EL,1,100,0.294349
1576765199.565218,135067.000,22226,2,EL,1,100,0.294067
1576765199.634062,135125.000,22244,1,EL,1,100,0.294752
1576765199.701719,135182.000,22262,2,EL,1,100,0.294712
1576765199.769375,135239.000,22262,2,EL,1,100,0.294712
1576765199.838219,135297.000,22280,2,EL,1,100,0.294390
1576765199.907062,135355.000,22280,2,EL,1,100,0.294712
1576765199.969378,135407.500,22298,2,EL,1,100,0.294954
1576765200.031693,135460.000,22298,2,EL,1,100,0.295397
1576765200.096975,135515.000,22316,2,EL,1,100,0.295518
1576765200.162258,135570.000,22316,2,EL,1,100,0.294913
1576765200.231102,135628.000,22334,1,EL,1,100,0.295356
1576765200.298758,135685.000,22351,2,EL,1,100,0.295397
1576765200.366415,135742.000,22351,2,EL,1,100,0.295840
1576765200.435852,135800.500,22369,2,EL,1,100,0.295518
1576765200.505289,135859.000,22369,2,EL,1,100,0.296686
1576765200.569978,135913.500,22386,2,EL,1,100,0.296807
1576765200.634667,135968.000,22386,2,EL,1,100,0.296887
1576765200.697576,136021.000,22404,2,EL,1,100,0.296968
1576765200.760484,136074.000,22404,2,EL,1,100,0.296887
1576765200.829328,136132.000,22422,1,EL,1,100,0.296968
1576765200.896985,136189.000,22440,2,EL,1,100,0.298096
1576765200.964641,136246.000,22440,2,EL,1,100,0.297451
1576765201.034078,136304.500,22458,2,EL,1,100,0.297612
1576765201.103515,136363.000,22458,2,EL,1,100,0.297814
1576765201.168798,136418.000,22476,2,EL,1,100,0.298337
1576765201.234080,136473.000,22476,2,EL,1,100,0.297894
1576765201.295802,136525.000,22494,2,EL,1,100,0.298096
1576765201.357524,136577.000,22494,2,EL,1,100,0.298982
1576765201.426368,136635.000,22512,1,EL,1,100,0.298378
1576765201.492837,136691.000,22530,2,EL,1,100,0.299143
1576765201.559307,136747.000,22530,2,EL,1,100,0.298901
1576765201.628150,136805.000,22548,2,EL,1,100,0.298821
1576765201.696994,136863.000,22548,2,EL,1,100,0.299183
1576765201.768805,136923.500,22564,2,EL,1,100,0.299264
1576765201.840616,136984.000,22564,2,EL,1,100,0.300070
1576765201.907085,137040.000,22582,1,EL,1,100,0.300271
1576765201.978896,137100.500,22600,2,EL,1,100,0.300754
1576765202.050707,137161.000,22600,2,EL,1,100,0.300150
1576765202.118957,137218.500,22618,2,EL,1,100,0.300150
1576765202.187207,137276.000,22618,2,EL,1,100,0.300634
1576765202.250709,137329.500,22636,2,EL,1,100,0.300513
1576765202.314212,137383.000,22636,2,EL,1,100,0.300956
1576765202.378307,137437.000,22654,1,EL,1,100,0.301077
1576765202.442997,137491.500,22673,2,EL,1,100,0.300835
1576765202.507686,137546.000,22673,2,EL,1,100,0.301278
1576765202.575738,137603.333,22693,3,EL,1,100,0.301842
1576765202.643790,137660.667,22693,3,EL,1,100,0.301600
1576765202.711842,137718.000,22693,3,EL,1,100,0.302003
1576765202.780686,137776.000,22713,2,EL,1,100,0.302285
1576765202.849529,137834.000,22713,2,EL,1,100,0.302003
1576765202.915999,137890.000,22731,2,EL,1,100,0.302325
1576765202.982469,137946.000,22731,2,EL,1,100,0.302446
1576765203.051312,138004.000,22749,1,EL,1,100,0.302124
1576765203.113627,138056.500,22767,2,EL,1,100,0.302648
1576765203.175942,138109.000,22767,2,EL,1,100,0.302446
1576765203.241225,138164.000,22784,2,EL,1,100,0.302446
1576765203.306508,138219.000,22784,2,EL,1,100,0.302889
1576765203.374164,138276.000,22802,2,EL,1,100,0.302849
1576765203.441821,138333.000,22802,2,EL,1,100,0.303373
1576765203.508884,138389.500,22819,2,EL,1,100,0.302809
1576765203.575947,138446.000,22819,2,EL,1,100,0.303171
1576765203.648351,138507.000,22837,1,EL,1,100,0.303171
1576765203.710073,138559.000,22855,2,EL,1,100,0.303212
1576765203.771795,138611.000,22855,2,EL,1,100,0.302446
1576765203.837078,138666.000,22873,2,EL,1,100,0.302930
1576765203.902360,138721.000,22873,2,EL,1,100,0.303655
1576765203.971797,138779.500,22891,2,EL,1,100,0.303776
1576765204.041234,138838.000,22891,2,EL,1,100,0.303735
1576765204.107704,138894.000,22909,2,EL,1,100,0.304259
1576765204.174174,138950.000,22909,2,EL,1,100,0.303896
1576765204.248952,139013.000,22927,1,EL,1,100,0.303937
1576765204.311267,139065.500,22944,2,EL,1,100,0.303413
1576765204.373582,139118.000,22944,2,EL,1,100,0.304340
1576765204.437678,139172.000,22963,2,EL,1,100,0.303977
1576765204.501774,139226.000,22963,2,EL,1,100,0.304702
1576765204.570617,139284.000,22981,2,EL,1,100,0.304299
1576765204.639461,139342.000,22981,2,EL,1,100,0.304219
1576765204.706524,139398.500,22999,2,EL,1,100,0.304702
1576765204.773587,139455.000,22999,2,EL,1,100,0.304138
1576765204.844805,139515.000,23015,1,EL,1,100,0.304581
1576765204.907713,139568.000,23033,2,EL,1,100,0.304662
1576765204.970622,139621.000,23033,2,EL,1,100,0.304742
1576765205.034124,139674.500,23051,2,EL,1,100,0.304541
1576765205.097626,139728.000,23051,2,EL,1,100,0.304219
1576765205.166470,139786.000,23069,2,EL,1,100,0.304742
1576765205.235313,139844.000,23069,2,EL,1,100,0.304944
1576765205.302377,139900.500,23087,2,EL,1,100,0.304622
1576765205.369440,139957.000,23087,2,EL,1,100,0.304702
1576765205.440657,140017.000,23105,1,EL,1,100,0.304138
1576765205.505940,140072.000,23124,2,EL,1,100,0.304541
1576765205.571222,140127.000,23124,2,EL,1,100,0.304340
1576765205.634725,140180.500,23141,2,EL,1,100,0.305105
1576765205.698227,140234.000,23141,2,EL,1,100,0.303977
1576765205.762916,140288.500,23159,2,EL,1,100,0.304380
1576765205.827605,140343.000,23159,2,EL,1,100,0.304501
1576765205.891701,140397.000,23177,2,EL,1,100,0.304380
1576765205.955796,140451.000,23177,2,EL,1,100,0.304098
1576765206.019299,140504.500,23195,2,EL,1,100,0.304340
1576765206.082801,140558.000,23195,2,EL,1,100,0.304622
1576765206.149271,140614.000,23211,2,EL,1,100,0.303977
1576765206.215740,140670.000,23211,2,EL,1,100,0.304017
1576765206.281023,140725.000,23229,1,EL,1,100,0.303896
1576765206.350460,140783.500,23247,2,EL,1,100,0.303735
1576765206.419897,140842.000,23247,2,EL,1,100,0.303574
1576765206.487553,140899.000,23266,2,EL,1,100,0.303373
1576765206.555210,140956.000,23266,2,EL,1,100,0.303655
1576765206.618119,141009.000,23284,2,EL,1,100,0.303695
1576765206.681027,141062.000,23284,2,EL,1,100,0.303453
1576765206.746310,141117.000,23302,2,EL,1,100,0.303655
1576765206.811593,141172.000,23302,2,EL,1,100,0.303292
1576765206.879249,141229.000,23320,2,EL,1,100,0.302930
1576765206.946906,141286.000,23320,2,EL,1,100,0.304058
1576765207.015749,141344.000,23338,1,EL,1,100,0.303614
1576765207.085780,141403.000,23355,2,EL,1,100,0.303695
1576765207.155810,141462.000,23355,2,EL,1,100,0.303292
1576765207.218719,141515.000,23373,2,EL,1,100,0.303413
1576765207.281628,141568.000,23373,2,EL,1,100,0.303091
1576765207.345723,141622.000,23389,2,EL,1,100,0.303494
1576765207.409819,141676.000,23389,2,EL,1,100,0.303655
1576765207.476882,141732.500,23408,2,EL,1,100,0.303695
1576765207.543945,141789.000,23408,2,EL,1,100,0.303856
1576765207.611602,141846.000,23426,1,EL,1,100,0.302930
1576765207.680445,141904.000,23444,2,EL,1,100,0.303453
1576765207.749289,141962.000,23444,2,EL,1,100,0.303131
1576765207.813978,142016.500,23462,2,EL,1,100,0.303735
1576765207.878667,142071.000,23462,2,EL,1,100,0.303655
1576765207.943356,142125.500,23480,2,EL,1,100,0.303333
1576765208.008046,142180.000,23480,2,EL,1,100,0.303494
1576765208.074515,142236.000,23498,2,EL,1,100,0.303534
1576765208.140985,142292.000,23498,2,EL,1,100,0.304098
1576765208.213389,142353.000,23516,1,EL,1,100,0.303453
1576765208.281046,142410.000,23533,2,EL,1,100,0.303252
1576765208.348702,142467.000,23533,2,EL,1,100,0.304098
1576765208.414578,142522.500,23551,2,EL,1,100,0.304017
1576765208.480454,142578.000,23551,2,EL,1,100,0.304622
1576765208.543363,142631.000,23568,2,EL,1,100,0.303574
1576765208.606272,142684.000,23568,2,EL,1,100,0.303534
1576765208.674324,142741.333,23589,3,EL,1,100,0.304219
1576765208.742377,142798.667,23589,3,EL,1,100,0.304662
1576765208.810429,142856.000,23589,3,EL,1,100,0.304662
1576765208.875711,142911.000,23609,1,EL,1,100,0.304904
1576765208.945742,142970.000,23626,2,EL,1,100,0.305347
1576765209.015772,143029.000,23626,2,EL,1,100,0.303735
1576765209.077494,143081.000,23644,2,EL,1,100,0.304702
1576765209.139216,143133.000,23644,2,EL,1,100,0.304219
1576765209.203311,143187.000,23662,2,EL,1,100,0.304501
1576765209.267407,143241.000,23662,2,EL,1,100,0.304420
1576765209.333877,143297.000,23678,2,EL,1,100,0.304541
1576765209.400347,143353.000,23678,2,EL,1,100,0.304581
1576765209.464442,143407.000,23697,1,EL,1,100,0.304904
1576765209.533879,143465.500,23715,2,EL,1,100,0.304944
1576765209.603316,143524.000,23715,2,EL,1,100,0.304863
1576765209.671566,143581.500,23733,2,EL,1,100,0.305226
1576765209.739816,143639.000,23733,2,EL,1,100,0.304823
1576765209.808066,143696.500,23751,2,EL,1,100,0.306233
1576765209.876316,143754.000,23751,2,EL,1,100,0.305830
1576765209.947534,143814.000,23769,1,EL,1,100,0.305951
1576765210.015190,143871.000,23786,2,EL,1,100,0.306112
1576765210.082847,143928.000,23786,2,EL,1,100,0.306031
1576765210.152877,143987.000,23804,2,EL,1,100,0.305669
1576765210.222908,144046.000,23804,2,EL,1,100,0.305951
1576765210.288190,144101.000,23820,2,EL,1,100,0.305588
1576765210.353473,144156.000,23820,2,EL,1,100,0.305951
1576765210.416975,144209.500,23838,2,EL,1,100,0.306233
1576765210.480478,144263.000,23838,2,EL,1,100,0.306434
1576765210.548134,144320.000,23857,1,EL,1,100,0.306072
1576765210.615197,144376.500,23875,2,EL,1,100,0.306837
1576765210.682260,144433.000,23875,2,EL,1,100,0.307119
1576765210.752291,144492.000,23893,2,EL,1,100,0.306958
1576765210.822321,144551.000,23893,2,EL,1,100,0.306757
1576765210.888791,144607.000,23911,2,EL,1,100,0.306757
1576765210.955261,144663.000,23911,2,EL,1,100,0.306958
1576765211.018763,144716.500,23929,2,EL,1,100,0.306958
1576765211.082265,144770.000,23929,2,EL,1,100,0.306958
1576765211.145174,144823.000,23947,1,EL,1,100,0.306636
1576765211.213424,144880.500,23965,2,EL,1,100,0.307603
1576765211.281674,144938.000,23965,2,EL,1,100,0.307119
1576765211.349330,144995.000,23982,2,EL,1,100,0.307361
1576765211.416987,145052.000,23982,2,EL,1,100,0.307119
1576765211.485237,145109.500,24001,2,EL,1,100,0.307401
1576765211.553487,145167.000,24001,2,EL,1,100,0.307321
1576765211.616396,145220.000,24017,2,EL,1,100,0.306837
1576765211.679304,145273.000,24017,2,EL,1,100,0.307482
1576765211.742213,145326.000,24035,1,EL,1,100,0.307321
1576765211.809870,145383.000,24053,2,EL,1,100,0.306918
1576765211.877526,145440.000,24053,2,EL,1,100,0.307119
1576765211.946963,145498.500,24071,2,EL,1,100,0.307643
1576765212.016400,145557.000,24071,2,EL,1,100,0.307240
1576765212.084057,145614.000,24089,2,EL,1,100,0.307280
1576765212.151713,145671.000,24089,2,EL,1,100,0.307280
1576765212.214622,145724.000,24107,2,EL,1,100,0.306837
1576765212.277531,145777.000,24107,2,EL,1,100,0.307522
1576765212.343407,145832.500,24125,2,EL,1,100,0.307723
1576765212.409283,145888.000,24125,2,EL,1,100,0.307441
1576765212.475753,145944.000,24144,1,EL,1,100,0.307522
1576765212.545190,146002.500,24161,2,EL,1,100,0.307844
1576765212.614627,146061.000,24161,2,EL,1,100,0.307361
1576765212.682283,146118.000,24179,2,EL,1,100,0.307764
1576765212.749940,146175.000,24179,2,EL,1,100,0.308408
1576765212.814036,146229.000,24195,2,EL,1,100,0.307764
1576765212.878131,146283.000,24195,2,EL,1,100,0.307522
1576765212.941633,146336.500,24213,2,EL,1,100,0.307844
1576765213.005136,146390.000,24213,2,EL,1,100,0.308005
1576765213.069231,146444.000,24231,1,EL,1,100,0.308207
1576765213.139262,146503.000,24249,2,EL,1,100,0.308489
1576765213.209292,146562.000,24249,2,EL,1,100,0.307522
1576765213.277542,146619.500,24267,2,EL,1,100,0.308892
1576765213.345792,146677.000,24267,2,EL,1,100,0.307965
1576765213.414636,146735.000,24285,2,EL,1,100,0.309254
1576765213.483479,146793.000,24285,2,EL,1,100,0.309657
1576765213.555884,146854.000,24304,1,EL,1,100,0.308448
1576765213.624727,146912.000,24321,2,EL,1,100,0.309133
1576765213.693571,146970.000,24321,2,EL,1,100,0.308126
1576765213.763601,147029.000,24339,2,EL,1,100,0.309375
1576765213.833632,147088.000,24339,2,EL,1,100,0.308892
1576765213.895947,147140.500,24355,2,EL,1,100,0.308569
1576765213.958262,147193.000,24355,2,EL,1,100,0.309093
1576765214.022358,147247.000,24373,2,EL,1,100,0.309012
1576765214.086454,147301.000,24373,2,EL,1,100,0.309818
1576765214.155297,147359.000,24391,1,EL,1,100,0.309697
1576765214.222954,147416.000,24409,2,EL,1,100,0.309617
1576765214.290610,147473.000,24409,2,EL,1,100,0.309617
1576765214.362421,147533.500,24427,2,EL,1,100,0.309617
1576765214.434232,147594.000,24427,2,EL,1,100,0.309818
1576765214.499515,147649.000,24446,1,EL,1,100,0.309496
1576765214.570732,147709.000,24464,2,EL,1,100,0.310100
1576765214.641950,147769.000,24464,2,EL,1,100,0.309899
1576765214.705254,147822.333,24484,3,EL,1,100,0.309858
1576765214.768559,147875.667,24484,3,EL,1,100,0.310181
1576765214.831863,147929.000,24484,3,EL,1,100,0.310221
1576765214.896552,147983.500,24504,2,EL,1,100,0.310261
1576765214.961241,148038.000,24504,2,EL,1,100,0.310503
1576765215.030085,148096.000,24522,2,EL,1,100,0.311188
1576765215.098928,148154.000,24522,2,EL,1,100,0.310422
1576765215.167772,148212.000,24540,2,EL,1,100,0.310704
1576765215.236615,148270.000,24540,2,EL,1,100,0.310986
1576765215.304272,148327.000,24558,1,EL,1,100,0.310503
1576765215.366587,148379.500,24575,2,EL,1,100,0.310986
1576765215.428902,148432.000,24575,2,EL,1,100,0.310745
1576765215.492998,148486.000,24594,2,EL,1,100,0.310946
1576765215.557094,148540.000,24594,2,EL,1,100,0.310503
1576765215.626531,148598.500,24612,2,EL,1,100,0.311550
1576765215.695968,148657.000,24612,2,EL,1,100,0.310261
1576765215.765405,148715.500,24628,2,EL,1,100,0.310865
1576765215.834842,148774.000,24628,2,EL,1,100,0.310745
1576765215.902498,148831.000,24646,1,EL,1,100,0.310986
1576765215.966001,148884.500,24664,2,EL,1,100,0.311389
1576765216.029503,148938.000,24664,2,EL,1,100,0.311268
1576765216.093005,148991.500,24682,2,EL,1,100,0.311470
1576765216.156507,149045.000,24682,2,EL,1,100,0.310825
1576765216.224757,149102.500,24700,2,EL,1,100,0.311107
1576765216.293007,149160.000,24700,2,EL,1,100,0.310946
1576765216.362444,149218.500,24718,2,EL,1,100,0.310825
1576765216.431881,149277.000,24718,2,EL,1,100,0.310865
1576765216.498351,149333.000,24737,1,EL,1,100,0.311309
1576765216.561853,149386.500,24754,2,EL,1,100,0.310745
1576765216.625355,149440.000,24754,2,EL,1,100,0.311510
1576765216.688858,149493.500,24772,2,EL,1,100,0.311027
1576765216.752360,149547.000,24772,2,EL,1,100,0.310221
1576765216.820610,149604.500,24790,2,EL,1,100,0.310785
1576765216.888860,149662.000,24790,2,EL,1,100,0.310704
1576765216.958297,149720.500,24806,2,EL,1,100,0.310382
1576765217.027734,149779.000,24806,2,EL,1,100,0.310060
1576765217.095390,149836.000,24824,1,EL,1,100,0.309456
1576765217.160673,149891.000,24842,2,EL,1,100,0.309818
1576765217.225956,149946.000,24842,2,EL,1,100,0.309294
1576765217.290645,150000.500,24860,2,EL,1,100,0.309375
1576765217.355334,150055.000,24860,2,EL,1,100,0.309254
1576765217.418243,150108.000,24878,2,EL,1,100,0.309697
1576765217.481152,150161.000,24878,2,EL,1,100,0.309415
1576765217.547028,150216.500,24897,2,EL,1,100,0.308569
1576765217.612904,150272.000,24897,2,EL,1,100,0.308851
1576765217.675812,150325.000,24915,2,EL,1,100,0.308408
1576765217.738721,150378.000,24915,2,EL,1,100,0.308167
1576765217.804597,150433.500,24933,2,EL,1,100,0.307844
1576765217.870474,150489.000,24933,2,EL,1,100,0.307764
1576765217.940504,150548.000,24951,1,EL,1,100,0.307482
1576765218.007567,150604.500,24968,2,EL,1,100,0.307562
1576765218.074630,150661.000,24968,2,EL,1,100,0.307200
1576765218.143474,150719.000,24986,2,EL,1,100,0.307321
1576765218.212317,150777.000,24986,2,EL,1,100,0.306555
1576765218.275226,150830.000,25002,2,EL,1,100,0.306515
1576765218.338135,150883.000,25002,2,EL,1,100,0.307482
1576765218.404604,150939.000,25020,2,EL,1,100,0.306112
1576765218.471074,150995.000,25020,2,EL,1,100,0.306394
1576765218.537544,151051.000,25039,1,EL,1,100,0.305588
1576765218.606981,151109.500,25057,2,EL,1,100,0.306273
1576765218.676418,151168.000,25057,2,EL,1,100,0.305387
1576765218.744668,151225.500,25075,2,EL,1,100,0.305266
1576765218.812917,151283.000,25075,2,EL,1,100,0.305709
1576765218.875826,151336.000,25093,2,EL,1,100,0.305347
1576765218.938735,151389.000,25093,2,EL,1,100,0.305669
1576765219.003424,151443.500,25111,2,EL,1,100,0.304742
1576765219.068113,151498.000,25111,2,EL,1,100,0.305145
1576765219.135770,151555.000,25129,1,EL,1,100,0.305347
1576765219.204020,151612.500,25146,2,EL,1,100,0.305024
1576765219.272270,151670.000,25146,2,EL,1,100,0.305629
1576765219.342894,151729.500,25164,2,EL,1,100,0.305266
1576765219.413518,151789.000,25164,2,EL,1,100,0.305065
1576765219.474646,151840.500,25181,2,EL,1,100,0.304501
1576765219.535774,151892.000,25181,2,EL,1,100,0.305186
1576765219.600464,151946.500,25199,2,EL,1,100,0.304420
1576765219.665153,152001.000,25199,2,EL,1,100,0.304622
1576765219.732810,152058.000,25217,1,EL,1,100,0.304581
1576765219.802247,152116.500,25235,2,EL,1,100,0.304944
1576765219.871683,152175.000,25235,2,EL,1,100,0.304783
1576765219.942307,152234.500,25253,2,EL,1,100,0.305105
1576765220.012931,152294.000,25253,2,EL,1,100,0.304863
1576765220.074653,152346.000,25271,2,EL,1,100,0.304581
1576765220.136375,152398.000,25271,2,EL,1,100,0.305065
1576765220.199877,152451.500,25289,2,EL,1,100,0.304984
1576765220.263379,152505.000,25289,2,EL,1,100,0.305306
1576765220.331036,152562.000,25307,1,EL,1,100,0.304662
1576765220.398693,152619.000,25325,2,EL,1,100,0.304742
1576765220.466349,152676.000,25325,2,EL,1,100,0.305306
1576765220.535786,152734.500,25343,2,EL,1,100,0.305306
1576765220.605223,152793.000,25343,2,EL,1,100,0.305870
1576765220.669319,152847.000,25359,2,EL,1,100,0.305588
1576765220.733414,152901.000,25359,2,EL,1,100,0.305306
1576765220.798697,152956.000,25380,3,EL,1,100,0.305347
1576765220.863980,153011.000,25380,3,EL,1,100,0.305105
1576765220.929262,153066.000,25380,3,EL,1,100,0.305709
1576765220.992765,153119.500,25400,2,EL,1,100,0.305306
1576765221.056267,153173.000,25400,2,EL,1,100,0.305266
1576765221.126297,153232.000,25418,1,EL,1,100,0.304984
1576765221.193360,153288.500,25435,2,EL,1,100,0.305387
1576765221.260423,153345.000,25435,2,EL,1,100,0.304944
1576765221.330454,153404.000,25453,2,EL,1,100,0.304380
1576765221.400484,153463.000,25453,2,EL,1,100,0.304501
1576765221.469328,153521.000,25470,2,EL,1,100,0.304702
1576765221.538172,153579.000,25470,2,EL,1,100,0.304138
1576765221.607015,153637.000,25488,1,EL,1,100,0.304138
1576765221.676452,153695.500,25506,2,EL,1,100,0.304098
1576765221.745889,153754.000,25506,2,EL,1,100,0.303212
1576765221.814139,153811.500,25524,2,EL,1,100,0.304622
1576765221.882389,153869.000,25524,2,EL,1,100,0.305508
1576765221.947672,153924.000,25542,2,EL,1,100,0.305991
1576765222.012954,153979.000,25542,2,EL,1,100,0.306354
1576765222.075863,154032.000,25560,1,EL,1,100,0.306394
1576765222.142333,154088.000,25577,2,EL,1,100,0.306434
1576765222.208802,154144.000,25577,2,EL,1,100,0.307240
1576765222.276459,154201.000,25595,2,EL,1,100,0.307079
1576765222.344115,154258.000,25595,2,EL,1,100,0.307200
1576765222.412959,154316.000,25613,2,EL,1,100,0.306595
1576765222.481802,154374.000,25613,2,EL,1,100,0.306918
1576765222.547085,154429.000,25630,2,EL,1,100,0.306354
1576765222.612368,154484.000,25630,2,EL,1,100,0.307240
1576765222.674683,154536.500,25648,2,EL,1,100,0.306152
1576765222.736998,154589.000,25648,2,EL,1,100,0.307683
1576765222.804655,154646.000,25666,1,EL,1,100,0.307683
1576765222.871718,154702.500,25684,2,EL,1,100,0.308167
1576765222.938781,154759.000,25684,2,EL,1,100,0.309214
1576765223.008218,154817.500,25702,2,EL,1,100,0.309818
1576765223.077655,154876.000,25702,2,EL,1,100,0.309899
1576765223.144125,154932.000,25720,2,EL,1,100,0.311147
1576765223.210594,154988.000,25720,2,EL,1,100,0.312557
1576765223.274096,155041.500,25738,2,EL,1,100,0.312437
1576765223.337599,155095.000,25738,2,EL,1,100,0.312759
1576765223.405255,155152.000,25756,1,EL,1,100,0.313000
1576765223.471725,155208.000,25774,2,EL,1,100,0.313363
1576765223.538194,155264.000,25774,2,EL,1,100,0.312678
1576765223.607038,155322.000,25792,2,EL,1,100,0.312759
1576765223.675882,155380.000,25792,2,EL,1,100,0.312678
1576765223.744725,155438.000,25808,2,EL,1,100,0.313927
1576765223.813569,155496.000,25808,2,EL,1,100,0.315579
1576765223.875290,155548.000,25826,2,EL,1,100,0.318398
1576765223.937012,155600.000,25826,2,EL,1,100,0.319849
1576765224.003482,155656.000,25844,1,EL,1,100,0.320413
1576765224.070545,155712.500,25862,2,EL,1,100,0.320735
1576765224.137608,155769.000,25862,2,EL,1,100,0.320413
1576765224.206451,155827.000,25880,2,EL,1,100,0.319607
1576765224.275295,155885.000,25880,2,EL,1,100,0.317069
1576765224.344732,155943.500,25898,2,EL,1,100,0.316143
1576765224.414169,156002.000,25898,2,EL,1,100,0.315820
1576765224.475891,156054.000,25917,1,EL,1,100,0.315015
1576765224.538206,156106.500,25935,2,EL,1,100,0.315458
1576765224.600521,156159.000,25935,2,EL,1,100,0.315780
1576765224.666397,156214.500,25952,2,EL,1,100,0.315740
1576765224.732274,156270.000,25952,2,EL,1,100,0.317432
1576765224.801117,156328.000,25970,2,EL,1,100,0.318157
1576765224.869961,156386.000,25970,2,EL,1,100,0.319083
1576765224.941772,156446.500,25986,2,EL,1,100,0.320654
1576765225.013582,156507.000,25986,2,EL,1,100,0.320815
1576765225.078865,156562.000,26004,1,EL,1,100,0.319365
1576765225.150676,156622.500,26022,2,EL,1,100,0.318197
1576765225.222487,156683.000,26022,2,EL,1,100,0.317351
1576765225.288956,156739.000,26040,2,EL,1,100,0.316263
1576765225.355426,156795.000,26040,2,EL,1,100,0.314894
1576765225.423676,156852.500,26058,2,EL,1,100,0.314008
1576765225.491926,156910.000,26058,2,EL,1,100,0.313121
1576765225.554835,156963.000,26077,1,EL,1,100,0.312719
1576765225.618337,157016.500,26094,2,EL,1,100,0.311913
1576765225.681839,157070.000,26094,2,EL,1,100,0.311429
1576765225.750683,157128.000,26112,2,EL,1,100,0.311067
1576765225.819526,157186.000,26112,2,EL,1,100,0.311268
1576765225.887776,157243.500,26130,2,EL,1,100,0.311389
1576765225.956026,157301.000,26130,2,EL,1,100,0.311147
1576765226.024870,157359.000,26146,2,EL,1,100,0.310785
1576765226.093714,157417.000,26146,2,EL,1,100,0.310906
1576765226.157809,157471.000,26164,1,EL,1,100,0.310342
1576765226.220718,157524.000,26182,2,EL,1,100,0.310100
1576765226.283627,157577.000,26182,2,EL,1,100,0.309214
1576765226.350690,157633.500,26200,2,EL,1,100,0.309335
1576765226.417753,157690.000,26200,2,EL,1,100,0.309979
1576765226.486003,157747.500,26219,2,EL,1,100,0.309576
1576765226.554253,157805.000,26219,2,EL,1,100,0.309375
1576765226.623096,157863.000,26237,2,EL,1,100,0.309939
1576765226.691940,157921.000,26237,2,EL,1,100,0.310342
1576765226.754849,157974.000,26255,1,EL,1,100,0.309979
1576765226.818153,158027.333,26275,3,EL,1,100,0.309738
1576765226.881457,158080.667,26275,3,EL,1,100,0.309657
1576765226.944762,158134.000,26275,3,EL,1,100,0.310060
1576765227.013012,158191.500,26293,2,EL,1,100,0.309778
1576765227.081262,158249.000,26293,2,EL,1,100,0.309858
1576765227.150699,158307.500,26313,2,EL,1,100,0.309778
1576765227.220136,158366.000,26313,2,EL,1,100,0.309214
1576765227.287199,158422.500,26331,2,EL,1,100,0.309818
1576765227.354262,158479.000,26331,2,EL,1,100,0.308448
1576765227.417171,158532.000,26349,2,EL,1,100,0.308328
1576765227.480080,158585.000,26349,2,EL,1,100,0.309335
1576765227.542988,158638.000,26368,1,EL,1,100,0.307723
1576765227.610645,158695.000,26385,2,EL,1,100,0.308247
1576765227.678301,158752.000,26385,2,EL,1,100,0.308287
1576765227.747738,158810.500,26403,2,EL,1,100,0.307683
1576765227.817175,158869.000,26403,2,EL,1,100,0.308448
1576765227.884238,158925.500,26419,2,EL,1,100,0.308851
1576765227.951302,158982.000,26419,2,EL,1,100,0.309415
1576765228.014210,159035.000,26437,2,EL,1,100,0.309738
1576765228.077119,159088.000,26437,2,EL,1,100,0.309697
1576765228.138841,159140.000,26455,1,EL,1,100,0.309939
1576765228.205904,159196.500,26473,2,EL,1,100,0.309012
1576765228.272967,159253.000,26473,2,EL,1,100,0.309053
1576765228.342404,159311.500,26491,2,EL,1,100,0.308086
1576765228.411841,159370.000,26491,2,EL,1,100,0.307361
1576765228.478904,159426.500,26510,2,EL,1,100,0.307643
1576765228.545967,159483.000,26510,2,EL,1,100,0.307119
1576765228.609469,159536.500,26528,2,EL,1,100,0.306515
1576765228.672972,159590.000,26528,2,EL,1,100,0.306837
1576765228.741815,159648.000,26546,1,EL,1,100,0.307240
1576765228.805911,159702.000,26563,2,EL,1,100,0.307401
1576765228.870007,159756.000,26563,2,EL,1,100,0.307482
1576765228.937663,159813.000,26581,2,EL,1,100,0.308690
1576765229.005320,159870.000,26581,2,EL,1,100,0.308207
1576765229.070009,159924.500,26599,2,EL,1,100,0.308690
1576765229.134698,159979.000,26599,2,EL,1,100,0.307643
1576765229.198794,160033.000,26615,2,EL,1,100,0.307965
1576765229.262889,160087.000,26615,2,EL,1,100,0.308086
1576765229.328172,160142.000,26633,2,EL,1,100,0.307119
1576765229.393455,160197.000,26633,2,EL,1,100,0.307361
1576765229.457550,160251.000,26652,1,EL,1,100,0.307562
1576765229.526987,160309.500,26670,2,EL,1,100,0.308005
1576765229.596424,160368.000,26670,2,EL,1,100,0.308207
1576765229.664675,160425.500,26688,2,EL,1,100,0.308489
1576765229.732924,160483.000,26688,2,EL,1,100,0.308247
1576765229.799394,160539.000,26706,2,EL,1,100,0.308610
1576765229.865864,160595.000,26706,2,EL,1,100,0.308690
1576765229.929366,160648.500,26724,2,EL,1,100,0.308811
1576765229.992868,160702.000,26724,2,EL,1,100,0.308811
1576765230.056964,160756.000,26742,1,EL,1,100,0.308448
1576765230.126401,160814.500,26759,2,EL,1,100,0.308247
1576765230.195838,160873.000,26759,2,EL,1,100,0.307925
1576765230.262901,160929.500,26777,2,EL,1,100,0.308247
1576765230.329964,160986.000,26777,2,EL,1,100,0.307804
1576765230.398214,161043.500,26793,2,EL,1,100,0.307361
1576765230.466464,161101.000,26793,2,EL,1,100,0.307441
1576765230.528779,161153.500,26812,2,EL,1,100,0.307079
1576765230.591094,161206.000,26812,2,EL,1,100,0.306998
1576765230.656377,161261.000,26830,1,EL,1,100,0.306757
1576765230.723440,161317.500,26848,2,EL,1,100,0.306233
1576765230.790503,161374.000,26848,2,EL,1,100,0.305870
1576765230.858160,161431.000,26866,2,EL,1,100,0.306313
1576765230.925817,161488.000,26866,2,EL,1,100,0.306152
1576765230.994660,161546.000,26884,2,EL,1,100,0.305951
1576765231.063504,161604.000,26884,2,EL,1,100,0.306273
1576765231.127006,161657.500,26902,2,EL,1,100,0.305991
1576765231.190508,161711.000,26902,2,EL,1,100,0.306515
1576765231.254604,161765.000,26920,2,EL,1,100,0.305709
1576765231.318699,161819.000,26920,2,EL,1,100,0.306475
1576765231.388730,161878.000,26938,1,EL,1,100,0.306555
1576765231.455793,161934.500,26956,2,EL,1,100,0.307401
1576765231.522856,161991.000,26956,2,EL,1,100,0.307079
1576765231.592293,162049.500,26974,2,EL,1,100,0.306958
1576765231.661730,162108.000,26974,2,EL,1,100,0.307159
1576765231.724045,162160.500,26990,2,EL,1,100,0.306757
1576765231.786361,162213.000,26990,2,EL,1,100,0.307603
1576765231.849269,162266.000,27008,2,EL,1,100,0.307361
1576765231.912178,162319.000,27008,2,EL,1,100,0.306918
1576765231.981021,162377.000,27026,1,EL,1,100,0.306313
1576765232.048084,162433.500,27044,2,EL,1,100,0.307764
1576765232.115148,162490.000,27044,2,EL,1,100,0.307280
1576765232.184585,162548.500,27062,2,EL,1,100,0.307965
1576765232.254022,162607.000,27062,2,EL,1,100,0.307280
1576765232.318117,162661.000,27080,2,EL,1,100,0.308086
1576765232.382213,162715.000,27080,2,EL,1,100,0.308126
1576765232.447496,162770.000,27099,2,EL,1,100,0.308167
1576765232.512778,162825.000,27099,2,EL,1,100,0.307844
1576765232.580435,162882.000,27117,1,EL,1,100,0.308448
1576765232.648685,162939.500,27134,2,EL,1,100,0.308368
1576765232.716935,162997.000,27134,2,EL,1,100,0.307321
1576765232.785185,163054.500,27152,2,EL,1,100,0.308892
1576765232.853435,163112.000,27152,2,EL,1,100,0.308408
1576765232.922279,163170.000,27171,3,EL,1,100,0.308328
1576765232.991122,163228.000,27171,3,EL,1,100,0.308811
1576765233.059966,163286.000,27171,3,EL,1,100,0.308610
1576765233.129996,163345.000,27191,1,EL,1,100,0.308690
1576765233.198246,163402.500,27208,2,EL,1,100,0.308408
1576765233.266496,163460.000,27208,2,EL,1,100,0.308408
1576765233.333559,163516.500,27226,2,EL,1,100,0.308569
1576765233.400622,163573.000,27226,2,EL,1,100,0.308207
1576765233.464125,163626.500,27243,2,EL,1,100,0.308972
1576765233.527627,163680.000,27243,2,EL,1,100,0.308328
1576765233.594690,163736.500,27261,2,EL,1,100,0.307683
1576765233.661753,163793.000,27261,2,EL,1,100,0.307039
1576765233.732970,163853.000,27279,1,EL,1,100,0.307522
1576765233.798846,163908.500,27297,2,EL,1,100,0.307723
1576765233.864723,163964.000,27297,2,EL,1,100,0.307441
1576765233.934160,164022.500,27315,2,EL,1,100,0.307804
1576765234.003597,164081.000,27315,2,EL,1,100,0.307965
1576765234.071847,164138.500,27333,2,EL,1,100,0.307482
1576765234.140097,164196.000,27333,2,EL,1,100,0.307039
1576765234.206566,164252.000,27351,1,EL,1,100,0.308005
1576765234.269475,164305.000,27368,2,EL,1,100,0.308207
1576765234.332384,164358.000,27368,2,EL,1,100,0.307804
1576765234.398260,164413.500,27387,2,EL,1,100,0.308167
1576765234.464136,164469.000,27387,2,EL,1,100,0.308005
1576765234.532386,164526.500,27405,2,EL,1,100,0.307643
1576765234.600636,164584.000,27405,2,EL,1,100,0.307885
1576765234.668293,164641.000,27421,2,EL,1,100,0.307844
1576765234.735949,164698.000,27421,2,EL,1,100,0.308408
1576765234.805980,164757.000,27439,1,EL,1,100,0.308972
1576765234.868889,164810.000,27457,2,EL,1,100,0.308972
1576765234.931797,164863.000,27457,2,EL,1,100,0.308972
1576765234.997080,164918.000,27475,2,EL,1,100,0.308529
1576765235.062363,164973.000,27475,2,EL,1,100,0.308932
1576765235.132393,165032.000,27493,2,EL,1,100,0.308287
1576765235.202424,165091.000,27493,2,EL,1,100,0.309254
1576765235.269487,165147.500,27511,2,EL,1,100,0.309778
1576765235.336550,165204.000,27511,2,EL,1,100,0.308932
1576765235.410141,165266.000,27529,1,EL,1,100,0.309053
1576765235.471269,165317.500,27547,2,EL,1,100,0.307723
1576765235.532398,165369.000,27547,2,EL,1,100,0.306193
1576765235.597087,165423.500,27565,2,EL,1,100,0.306152
1576765235.661776,165478.000,27565,2,EL,1,100,0.306595
1576765235.731213,165536.500,27583,2,EL,1,100,0.306273
1576765235.800650,165595.000,27583,2,EL,1,100,0.307159
1576765235.867120,165651.000,27599,2,EL,1,100,0.307441
1576765235.933589,165707.000,27599,2,EL,1,100,0.307200
1576765236.004807,165767.000,27617,1,EL,1,100,0.307401
1576765236.067715,165820.000,27635,2,EL,1,100,0.307280
1576765236.130624,165873.000,27635,2,EL,1,100,0.307683
1576765236.194126,165926.500,27653,2,EL,1,100,0.308771
1576765236.257628,165980.000,27653,2,EL,1,100,0.309617
1576765236.326472,166038.000,27671,2,EL,1,100,0.310100
1576765236.395316,166096.000,27671,2,EL,1,100,0.309778
1576765236.463566,166153.500,27690,2,EL,1,100,0.308650
1576765236.531816,166211.000,27690,2,EL,1,100,0.309133
1576765236.601846,166270.000,27708,1,EL,1,100,0.308771
1576765236.670096,166327.500,27725,2,EL,1,100,0.308851
1576765236.738346,166385.000,27725,2,EL,1,100,0.308247
1576765236.805409,166441.500,27743,2,EL,1,100,0.307965
1576765236.872473,166498.000,27743,2,EL,1,100,0.307441
1576765236.941909,166556.500,27759,2,EL,1,100,0.307844
1576765237.011346,166615.000,27759,2,EL,1,100,0.307643
1576765237.077223,166670.500,27777,2,EL,1,100,0.307643
1576765237.143099,166726.000,27777,2,EL,1,100,0.308368
1576765237.207194,166780.000,27795,1,EL,1,100,0.307361
1576765237.271290,166834.000,27813,2,EL,1,100,0.307925
1576765237.335386,166888.000,27813,2,EL,1,100,0.309294
1576765237.402449,166944.500,27831,2,EL,1,100,0.308730
1576765237.469512,167001.000,27831,2,EL,1,100,0.308569
1576765237.538949,167059.500,27850,2,EL,1,100,0.309174
1576765237.608386,167118.000,27850,2,EL,1,100,0.308771
1576765237.675449,167174.500,27868,2,EL,1,100,0.308972
1576765237.742512,167231.000,27868,2,EL,1,100,0.309254
1576765237.806608,167285.000,27886,1,EL,1,100,0.308811
1576765237.870703,167339.000,27903,2,EL,1,100,0.308972
1576765237.934799,167393.000,27903,2,EL,1,100,0.309536
1576765237.999488,167447.500,27921,2,EL,1,100,0.308932
1576765238.064178,167502.000,27921,2,EL,1,100,0.309294
1576765238.128867,167556.500,27939,2,EL,1,100,0.309053
1576765238.193556,167611.000,27939,2,EL,1,100,0.309214
1576765238.260619,167667.500,27956,2,EL,1,100,0.309093
1576765238.327682,167724.000,27956,2,EL,1,100,0.309254
1576765238.396526,167782.000,27973,1,EL,1,100,0.308932
1576765238.464776,167839.500,27992,2,EL,1,100,0.309053
1576765238.533026,167897.000,27992,2,EL,1,100,0.308811
1576765238.596528,167950.500,28010,2,EL,1,100,0.308529
