EpochTimestamp,EmotiBitTimestamp,PacketNumber,DataLength,TypeTag,ProtocolVersion,DataReliability,H0
1576765092.308199,44704.000,7307,2,H0,1,100,99.389
1576765092.308199,44704.000,7307,2,H0,1,100,99.389
1576765092.435203,44811.000,7325,1,H0,1,100,99.385
1576765092.562208,44918.000,7359,1,H0,1,100,99.385
1576765092.699895,45034.000,7378,1,H0,1,100,99.370
1576765092.832834,45146.000,7396,1,H0,1,100,99.381
1576765092.970521,45262.000,7414,1,H0,1,100,99.370
1576765093.098712,45370.000,7432,1,H0,1,100,99.370
1576765093.226904,45478.000,7450,1,H0,1,100,99.354
1576765093.363404,45593.000,7467,1,H0,1,100,99.362
1576765093.502278,45710.000,7485,1,H0,1,100,99.354
1576765093.634030,45821.000,7503,1,H0,1,100,99.362
1576765093.762222,45929.000,7538,1,H0,1,100,99.350
1576765093.895161,46041.000,7556,1,H0,1,100,99.347
1576765094.029287,46154.000,7574,1,H0,1,100,99.339
1576765094.166974,46270.000,7592,1,H0,1,100,99.354
1576765094.296352,46379.000,7610,1,H0,1,100,99.350
1576765094.423357,46486.000,7628,1,H0,1,100,99.331
1576765094.558670,46600.000,7645,1,H0,1,100,99.343
1576765094.698731,46718.000,7664,1,H0,1,100,99.328
1576765094.836418,46834.000,7698,1,H0,1,100,99.335
1576765094.958674,46937.000,7716,1,H0,1,100,99.331
1576765095.085679,47044.000,7734,1,H0,1,100,99.328
1576765095.222179,47159.000,7752,1,H0,1,100,99.328
1576765095.358679,47274.000,7770,1,H0,1,100,99.324
1576765095.490431,47385.000,7788,1,H0,1,100,99.324
1576765095.615062,47490.000,7806,1,H0,1,100,99.324
1576765095.748001,47602.000,7825,1,H0,1,100,99.320
1576765095.885688,47718.000,7842,1,H0,1,100,99.316
1576765096.019814,47831.000,7860,1,H0,1,100,99.316
1576765096.150379,47941.000,7878,1,H0,1,100,99.305
1576765096.280945,48051.000,7912,1,H0,1,100,99.320
1576765096.411510,48161.000,7930,1,H0,1,100,99.301
1576765096.549197,48277.000,7948,1,H0,1,100,99.293
1576765096.688071,48394.000,7967,1,H0,1,100,99.301
1576765096.811515,48498.000,7985,1,H0,1,100,99.297
1576765096.940893,48607.000,8003,1,H0,1,100,99.289
1576765097.078580,48723.000,8021,1,H0,1,100,99.289
1576765097.211519,48835.000,8038,1,H0,1,100,99.309
1576765097.349206,48951.000,8056,1,H0,1,100,99.309
1576765097.476211,49058.000,8090,1,H0,1,100,99.328
1576765097.610337,49171.000,8109,1,H0,1,100,99.339
1576765097.744463,49284.000,8127,1,H0,1,100,99.316
1576765097.884524,49402.000,8145,1,H0,1,100,99.312
1576765098.012716,49510.000,8163,1,H0,1,100,99.305
1576765098.138533,49616.000,8181,1,H0,1,100,99.274
1576765098.277407,49733.000,8202,1,H0,1,100,99.278
1576765098.413907,49848.000,8222,1,H0,1,100,99.270
1576765098.551594,49964.000,8240,1,H0,1,100,99.278
1576765098.676225,50069.000,8259,1,H0,1,100,99.278
1576765098.804416,50177.000,8277,1,H0,1,100,99.267
1576765098.944477,50295.000,8295,1,H0,1,100,99.267
1576765099.082164,50411.000,8312,1,H0,1,100,99.263
1576765099.217477,50525.000,8330,1,H0,1,100,99.259
1576765099.344481,50632.000,8364,1,H0,1,100,99.259
1576765099.476234,50743.000,8382,1,H0,1,100,99.259
1576765099.610360,50856.000,8401,1,H0,1,100,99.259
1576765099.750421,50974.000,8419,1,H0,1,100,99.259
1576765099.883360,51086.000,8437,1,H0,1,100,99.259
1576765100.006804,51190.000,8455,1,H0,1,100,99.263
1576765100.142117,51304.000,8473,1,H0,1,100,99.263
1576765100.277430,51418.000,8490,1,H0,1,100,99.259
1576765100.413930,51533.000,8508,1,H0,1,100,99.255
1576765100.542121,51641.000,8542,1,H0,1,100,99.244
1576765100.669126,51748.000,8561,1,H0,1,100,99.240
1576765100.804439,51862.000,8579,1,H0,1,100,99.240
1576765100.938565,51975.000,8597,1,H0,1,100,99.228
1576765101.076252,52091.000,8615,1,H0,1,100,99.247
1576765101.202070,52197.000,8633,1,H0,1,100,99.232
1576765101.332635,52307.000,8651,1,H0,1,100,99.217
1576765101.470322,52423.000,8668,1,H0,1,100,99.209
1576765101.608009,52539.000,8686,1,H0,1,100,99.209
1576765101.737387,52648.000,8705,1,H0,1,100,99.206
1576765101.863205,52754.000,8739,1,H0,1,100,99.206
1576765101.997331,52867.000,8757,1,H0,1,100,99.198
1576765102.136205,52984.000,8775,1,H0,1,100,99.186
1576765102.271518,53098.000,8793,1,H0,1,100,99.179
1576765102.398523,53205.000,8811,1,H0,1,100,99.171
1576765102.527901,53314.000,8829,1,H0,1,100,99.179
1576765102.663214,53428.000,8848,1,H0,1,100,99.175
1576765102.797340,53541.000,8865,1,H0,1,100,99.164
1576765102.936214,53658.000,8883,1,H0,1,100,99.160
1576765103.063219,53765.000,8917,1,H0,1,100,99.152
1576765103.189036,53871.000,8935,1,H0,1,100,99.152
1576765103.326723,53987.000,8953,1,H0,1,100,99.137
1576765103.464410,54103.000,8971,1,H0,1,100,99.129
1576765103.596163,54214.000,8989,1,H0,1,100,99.133
1576765103.725541,54323.000,9008,1,H0,1,100,99.133
1576765103.858480,54435.000,9026,1,H0,1,100,99.122
1576765103.991419,54547.000,9043,1,H0,1,100,99.122
1576765104.131480,54665.000,9061,1,H0,1,100,99.129
1576765104.259078,54772.500,9098,2,H0,1,100,99.118
1576765104.386676,54880.000,9098,2,H0,1,100,99.114
1576765104.521989,54994.000,9118,1,H0,1,100,99.118
1576765104.662050,55112.000,9136,1,H0,1,100,99.106
1576765104.799737,55228.000,9154,1,H0,1,100,99.099
1576765104.926742,55335.000,9188,1,H0,1,100,99.099
1576765105.054933,55443.000,9206,1,H0,1,100,99.099
1576765105.192620,55559.000,9224,1,H0,1,100,99.095
1576765105.330307,55675.000,9242,1,H0,1,100,99.087
1576765105.462059,55786.000,9260,1,H0,1,100,99.076
1576765105.585503,55890.000,9278,1,H0,1,100,99.072
1576765105.722003,56005.000,9297,1,H0,1,100,99.076
1576765105.859690,56121.000,9314,1,H0,1,100,99.076
1576765105.993816,56234.000,9332,1,H0,1,100,99.068
1576765106.136251,56354.000,9366,1,H0,1,100,99.061
1576765106.270377,56467.000,9384,1,H0,1,100,99.061
1576765106.409251,56584.000,9402,1,H0,1,100,99.061
1576765106.542190,56696.000,9420,1,H0,1,100,99.042
1576765106.670382,56804.000,9439,1,H0,1,100,99.045
1576765106.800947,56914.000,9457,1,H0,1,100,99.049
1576765106.939821,57031.000,9474,1,H0,1,100,99.049
1576765107.079882,57149.000,9492,1,H0,1,100,99.053
1576765107.203326,57253.000,9509,1,H0,1,100,99.045
1576765107.333891,57363.000,9544,1,H0,1,100,99.045
1576765107.468017,57476.000,9562,1,H0,1,100,99.038
1576765107.600956,57588.000,9581,1,H0,1,100,99.042
1576765107.739830,57705.000,9599,1,H0,1,100,99.038
1576765107.865648,57811.000,9617,1,H0,1,100,99.030
1576765107.998587,57923.000,9635,1,H0,1,100,99.030
1576765108.132713,58036.000,9652,1,H0,1,100,99.038
1576765108.272774,58154.000,9670,1,H0,1,100,99.019
1576765108.403339,58264.000,9704,1,H0,1,100,99.034
1576765108.529157,58370.000,9722,1,H0,1,100,99.019
1576765108.664470,58484.000,9741,1,H0,1,100,99.011
1576765108.802157,58600.000,9759,1,H0,1,100,99.011
1576765108.939844,58716.000,9777,1,H0,1,100,99.007
1576765109.064475,58821.000,9795,1,H0,1,100,99.015
1576765109.190292,58927.000,9813,1,H0,1,100,99.007
1576765109.330353,59045.000,9830,1,H0,1,100,99.007
1576765109.464479,59158.000,9848,1,H0,1,100,99.007
1576765109.598605,59271.000,9866,1,H0,1,100,99.000
1576765109.733918,59385.000,9901,1,H0,1,100,99.000
1576765109.860923,59492.000,9919,1,H0,1,100,98.996
1576765109.987927,59599.000,9937,1,H0,1,100,98.988
1576765110.124428,59714.000,9955,1,H0,1,100,98.984
1576765110.262115,59830.000,9973,1,H0,1,100,98.988
1576765110.398615,59945.000,9994,1,H0,1,100,98.996
1576765110.533928,60059.000,10014,1,H0,1,100,98.988
1576765110.669241,60173.000,10033,1,H0,1,100,98.988
1576765110.793871,60278.000,10051,1,H0,1,100,98.980
1576765110.929184,60392.000,10069,1,H0,1,100,98.984
1576765111.065685,60507.000,10087,1,H0,1,100,98.984
1576765111.199811,60620.000,10104,1,H0,1,100,98.973
1576765111.330376,60730.000,10122,1,H0,1,100,98.977
1576765111.456193,60836.000,10140,1,H0,1,100,98.977
1576765111.586759,60946.000,10157,1,H0,1,100,98.977
1576765111.724446,61062.000,10193,1,H0,1,100,98.977
1576765111.863320,61179.000,10211,1,H0,1,100,98.965
1576765111.989137,61285.000,10229,1,H0,1,100,98.961
1576765112.118516,61394.000,10247,1,H0,1,100,98.961
1576765112.255016,61509.000,10265,1,H0,1,100,98.969
1576765112.392703,61625.000,10282,1,H0,1,100,98.958
1576765112.525642,61737.000,10300,1,H0,1,100,98.965
1576765112.652647,61844.000,10319,1,H0,1,100,98.958
1576765112.783212,61954.000,10337,1,H0,1,100,98.958
1576765112.922086,62071.000,10371,1,H0,1,100,98.950
1576765113.057399,62185.000,10389,1,H0,1,100,98.946
1576765113.185590,62293.000,10407,1,H0,1,100,98.961
1576765113.313782,62401.000,10425,1,H0,1,100,98.942
1576765113.447908,62514.000,10443,1,H0,1,100,98.950
1576765113.584408,62629.000,10461,1,H0,1,100,98.950
1576765113.726843,62749.000,10479,1,H0,1,100,98.946
1576765113.864530,62865.000,10497,1,H0,1,100,98.954
1576765113.997469,62977.000,10531,1,H0,1,100,98.942
1576765114.125660,63085.000,10549,1,H0,1,100,98.942
1576765114.258600,63197.000,10567,1,H0,1,100,98.931
1576765114.392726,63310.000,10585,1,H0,1,100,98.939
1576765114.533974,63429.000,10603,1,H0,1,100,98.935
1576765114.662165,63537.000,10622,1,H0,1,100,98.927
1576765114.801039,63654.000,10639,1,H0,1,100,98.927
1576765114.928044,63761.000,10657,1,H0,1,100,98.923
1576765115.058609,63871.000,10675,1,H0,1,100,98.923
1576765115.192735,63984.000,10709,1,H0,1,100,98.916
1576765115.330422,64100.000,10727,1,H0,1,100,98.923
1576765115.462174,64211.000,10745,1,H0,1,100,98.923
1576765115.585618,64315.000,10764,1,H0,1,100,98.919
1576765115.719744,64428.000,10782,1,H0,1,100,98.919
1576765115.857431,64544.000,10800,1,H0,1,100,98.923
1576765115.995118,64660.000,10817,1,H0,1,100,98.904
1576765116.122123,64767.000,10835,1,H0,1,100,98.912
1576765116.250314,64875.000,10853,1,H0,1,100,98.908
1576765116.385627,64989.000,10890,2,H0,1,100,98.900
1576765116.520940,65103.000,10890,2,H0,1,100,98.916
1576765116.656253,65217.000,10911,1,H0,1,100,98.897
1576765116.780884,65322.000,10928,1,H0,1,100,98.904
1576765116.915010,65435.000,10946,1,H0,1,100,98.897
1576765117.049136,65548.000,10964,1,H0,1,100,98.893
1576765117.186823,65664.000,10998,1,H0,1,100,98.889
1576765117.317389,65774.000,11016,1,H0,1,100,98.889
1576765117.445580,65882.000,11034,1,H0,1,100,98.885
1576765117.570210,65987.000,11053,1,H0,1,100,98.893
1576765117.699589,66096.000,11071,1,H0,1,100,98.889
1576765117.834902,66210.000,11089,1,H0,1,100,98.881
1576765117.969028,66323.000,11107,1,H0,1,100,98.877
1576765118.106715,66439.000,11124,1,H0,1,100,98.877
1576765118.233720,66546.000,11142,1,H0,1,100,98.877
1576765118.361911,66654.000,11160,1,H0,1,100,98.877
1576765118.499598,66770.000,11194,1,H0,1,100,98.866
1576765118.637285,66886.000,11213,1,H0,1,100,98.870
1576765118.766663,66995.000,11231,1,H0,1,100,98.874
1576765118.894855,67103.000,11249,1,H0,1,100,98.862
1576765119.027794,67215.000,11267,1,H0,1,100,98.862
1576765119.160733,67327.000,11285,1,H0,1,100,98.862
1576765119.301981,67446.000,11302,1,H0,1,100,98.866
1576765119.431359,67555.000,11320,1,H0,1,100,98.862
1576765119.557177,67661.000,11338,1,H0,1,100,98.858
1576765119.692490,67775.000,11373,1,H0,1,100,98.851
1576765119.832551,67893.000,11391,1,H0,1,100,98.855
1576765119.967864,68007.000,11409,1,H0,1,100,98.858
1576765120.092494,68112.000,11427,1,H0,1,100,98.843
1576765120.225434,68224.000,11445,1,H0,1,100,98.847
1576765120.363121,68340.000,11463,1,H0,1,100,98.847
1576765120.500808,68456.000,11480,1,H0,1,100,98.851
1576765120.633747,68568.000,11499,1,H0,1,100,98.843
1576765120.757191,68672.000,11517,1,H0,1,100,98.839
1576765120.893691,68787.000,11551,1,H0,1,100,98.839
1576765121.031378,68903.000,11569,1,H0,1,100,98.828
1576765121.167878,69018.000,11587,1,H0,1,100,98.839
1576765121.306752,69135.000,11605,1,H0,1,100,98.828
1576765121.442065,69249.000,11623,1,H0,1,100,98.828
1576765121.580939,69366.000,11640,1,H0,1,100,98.828
1576765121.711504,69476.000,11659,1,H0,1,100,98.836
1576765121.839696,69584.000,11677,1,H0,1,100,98.824
1576765121.970261,69694.000,11711,1,H0,1,100,98.820
1576765122.109135,69811.000,11729,1,H0,1,100,98.813
1576765122.249196,69929.000,11747,1,H0,1,100,98.813
1576765122.372639,70033.000,11765,1,H0,1,100,98.816
1576765122.505579,70145.000,11786,2,H0,1,100,98.813
1576765122.638518,70257.000,11786,2,H0,1,100,98.809
1576765122.772644,70370.000,11823,1,H0,1,100,98.805
1576765122.909144,70485.000,11841,1,H0,1,100,98.805
1576765123.036149,70592.000,11859,1,H0,1,100,98.805
1576765123.164340,70700.000,11877,1,H0,1,100,98.809
1576765123.299653,70814.000,11895,1,H0,1,100,98.805
1576765123.440901,70933.000,11912,1,H0,1,100,98.805
1576765123.570279,71042.000,11930,1,H0,1,100,98.797
1576765123.696097,71148.000,11949,1,H0,1,100,98.794
1576765123.832597,71263.000,11966,1,H0,1,100,98.790
1576765123.969097,71378.000,12001,1,H0,1,100,98.794
1576765124.106784,71494.000,12019,1,H0,1,100,98.786
1576765124.229041,71597.000,12037,1,H0,1,100,98.790
1576765124.357232,71705.000,12055,1,H0,1,100,98.774
1576765124.497293,71823.000,12073,1,H0,1,100,98.771
1576765124.632606,71937.000,12092,1,H0,1,100,98.786
1576765124.766732,72050.000,12109,1,H0,1,100,98.771
1576765124.902045,72164.000,12127,1,H0,1,100,98.755
1576765125.026676,72269.000,12145,1,H0,1,100,98.763
1576765125.151306,72374.000,12163,1,H0,1,100,98.759
1576765125.287807,72489.000,12197,1,H0,1,100,98.755
1576765125.420746,72601.000,12215,1,H0,1,100,98.755
1576765125.554872,72714.000,12234,1,H0,1,100,98.759
1576765125.694933,72832.000,12252,1,H0,1,100,98.755
1576765125.827872,72944.000,12270,1,H0,1,100,98.744
1576765125.952503,73049.000,12288,1,H0,1,100,98.755
1576765126.087816,73163.000,12305,1,H0,1,100,98.733
1576765126.224316,73278.000,12323,1,H0,1,100,98.744
1576765126.362003,73394.000,12357,1,H0,1,100,98.740
1576765126.491381,73503.000,12375,1,H0,1,100,98.736
1576765126.618386,73610.000,12394,1,H0,1,100,98.729
1576765126.748951,73720.000,12412,1,H0,1,100,98.729
1576765126.886638,73836.000,12430,1,H0,1,100,98.740
1576765127.024325,73952.000,12448,1,H0,1,100,98.729
1576765127.148956,74057.000,12466,1,H0,1,100,98.725
1576765127.278334,74166.000,12483,1,H0,1,100,98.725
1576765127.417208,74283.000,12501,1,H0,1,100,98.717
1576765127.553708,74398.000,12536,1,H0,1,100,98.725
1576765127.686647,74510.000,12554,1,H0,1,100,98.717
1576765127.814839,74618.000,12572,1,H0,1,100,98.706
1576765127.946591,74729.000,12590,1,H0,1,100,98.713
1576765128.085465,74846.000,12608,1,H0,1,100,98.698
1576765128.220778,74960.000,12626,1,H0,1,100,98.706
1576765128.347782,75067.000,12644,1,H0,1,100,98.698
1576765128.478348,75177.000,12661,1,H0,1,100,98.702
1576765128.611287,75289.000,12683,1,H0,1,100,98.691
1576765128.747787,75404.000,12703,1,H0,1,100,98.698
1576765128.890222,75524.000,12721,1,H0,1,100,98.694
1576765129.029096,75641.000,12738,1,H0,1,100,98.694
1576765129.164409,75755.000,12756,1,H0,1,100,98.687
1576765129.305657,75874.000,12790,1,H0,1,100,98.683
1576765129.432661,75981.000,12808,1,H0,1,100,98.671
1576765129.558479,76087.000,12827,1,H0,1,100,98.687
1576765129.697353,76204.000,12845,1,H0,1,100,98.668
1576765129.835040,76320.000,12863,1,H0,1,100,98.668
1576765129.969166,76433.000,12881,1,H0,1,100,98.675
1576765130.096170,76540.000,12899,1,H0,1,100,98.671
1576765130.226736,76650.000,12916,1,H0,1,100,98.668
1576765130.360862,76763.000,12934,1,H0,1,100,98.656
1576765130.499736,76880.000,12968,1,H0,1,100,98.660
1576765130.630301,76990.000,12987,1,H0,1,100,98.668
1576765130.753745,77094.000,13005,1,H0,1,100,98.652
1576765130.889058,77208.000,13023,1,H0,1,100,98.652
1576765131.029119,77326.000,13041,1,H0,1,100,98.652
1576765131.166806,77442.000,13059,1,H0,1,100,98.645
1576765131.291436,77547.000,13077,1,H0,1,100,98.645
1576765131.422002,77657.000,13095,1,H0,1,100,98.652
1576765131.558502,77772.000,13112,1,H0,1,100,98.645
1576765131.693815,77886.000,13131,1,H0,1,100,98.641
1576765131.827941,77999.000,13165,1,H0,1,100,98.645
1576765131.952572,78104.000,13183,1,H0,1,100,98.633
1576765132.087885,78218.000,13201,1,H0,1,100,98.630
1576765132.222011,78331.000,13219,1,H0,1,100,98.630
1576765132.359698,78447.000,13237,1,H0,1,100,98.637
1576765132.487889,78555.000,13255,1,H0,1,100,98.630
1576765132.617268,78664.000,13274,1,H0,1,100,98.630
1576765132.741898,78769.000,13292,1,H0,1,100,98.622
1576765132.873651,78880.000,13309,1,H0,1,100,98.618
1576765133.010150,78995.000,13327,1,H0,1,100,98.610
1576765133.140716,79105.000,13361,1,H0,1,100,98.610
1576765133.279590,79222.000,13379,1,H0,1,100,98.618
1576765133.419651,79340.000,13397,1,H0,1,100,98.607
1576765133.546655,79447.000,13415,1,H0,1,100,98.610
1576765133.676033,79556.000,13434,1,H0,1,100,98.595
1576765133.811347,79670.000,13452,1,H0,1,100,98.603
1576765133.945473,79783.000,13469,1,H0,1,100,98.599
1576765134.084347,79900.000,13487,1,H0,1,100,98.588
1576765134.210164,80006.000,13505,1,H0,1,100,98.591
1576765134.337169,80113.000,13539,1,H0,1,100,98.588
1576765134.473669,80228.000,13557,1,H0,1,100,98.576
1576765134.609576,80342.500,13579,2,H0,1,100,98.584
1576765134.745482,80457.000,13579,2,H0,1,100,98.576
1576765134.872487,80564.000,13599,1,H0,1,100,98.565
1576765135.005426,80676.000,13633,1,H0,1,100,98.568
1576765135.144300,80793.000,13651,1,H0,1,100,98.568
1576765135.280800,80908.000,13669,1,H0,1,100,98.572
1576765135.410178,81017.000,13687,1,H0,1,100,98.561
1576765135.534809,81122.000,13705,1,H0,1,100,98.568
1576765135.674870,81240.000,13724,1,H0,1,100,98.557
1576765135.807809,81352.000,13741,1,H0,1,100,98.561
1576765135.944309,81467.000,13759,1,H0,1,100,98.549
1576765136.067752,81571.000,13777,1,H0,1,100,98.553
1576765136.197131,81680.000,13795,1,H0,1,100,98.557
1576765136.334818,81796.000,13829,1,H0,1,100,98.546
1576765136.477253,81916.000,13847,1,H0,1,100,98.538
1576765136.610192,82028.000,13866,1,H0,1,100,98.538
1576765136.750253,82146.000,13884,1,H0,1,100,98.542
1576765136.879631,82255.000,13902,1,H0,1,100,98.534
1576765137.010196,82365.000,13919,1,H0,1,100,98.534
1576765137.143136,82477.000,13937,1,H0,1,100,98.538
1576765137.285571,82597.000,13971,1,H0,1,100,98.530
1576765137.422071,82712.000,13989,1,H0,1,100,98.523
1576765137.557384,82826.000,14008,1,H0,1,100,98.519
1576765137.690323,82938.000,14026,1,H0,1,100,98.519
1576765137.816140,83044.000,14044,1,H0,1,100,98.519
1576765137.946706,83154.000,14062,1,H0,1,100,98.507
1576765138.084393,83270.000,14079,1,H0,1,100,98.511
1576765138.224454,83388.000,14097,1,H0,1,100,98.511
1576765138.347897,83492.000,14115,1,H0,1,100,98.504
1576765138.478463,83602.000,14149,1,H0,1,100,98.507
1576765138.613776,83716.000,14168,1,H0,1,100,98.492
1576765138.751463,83832.000,14186,1,H0,1,100,98.496
1576765138.886776,83946.000,14204,1,H0,1,100,98.500
1576765139.012594,84052.000,14222,1,H0,1,100,98.485
1576765139.145533,84164.000,14240,1,H0,1,100,98.492
1576765139.280846,84278.000,14257,1,H0,1,100,98.492
1576765139.419720,84395.000,14275,1,H0,1,100,98.481
1576765139.549098,84504.000,14293,1,H0,1,100,98.481
1576765139.676103,84611.000,14328,1,H0,1,100,98.473
1576765139.810229,84724.000,14346,1,H0,1,100,98.481
1576765139.947916,84840.000,14364,1,H0,1,100,98.477
1576765140.085603,84956.000,14382,1,H0,1,100,98.477
1576765140.212607,85063.000,14400,1,H0,1,100,98.469
1576765140.344359,85174.000,14418,1,H0,1,100,98.477
1576765140.470177,85280.000,14436,1,H0,1,100,98.465
1576765140.601929,85391.000,14455,1,H0,1,100,98.465
1576765140.736055,85504.000,14476,1,H0,1,100,98.462
1576765140.876116,85622.000,14496,1,H0,1,100,98.450
1576765141.007869,85733.000,14514,1,H0,1,100,98.450
1576765141.132499,85838.000,14532,1,H0,1,100,98.454
1576765141.271373,85955.000,14549,1,H0,1,100,98.446
1576765141.401938,86065.000,14567,1,H0,1,100,98.450
1576765141.534878,86177.000,14585,1,H0,1,100,98.450
1576765141.674939,86295.000,14620,1,H0,1,100,98.450
1576765141.809065,86408.000,14638,1,H0,1,100,98.450
1576765141.932508,86512.000,14656,1,H0,1,100,98.443
1576765142.066634,86625.000,14674,1,H0,1,100,98.446
1576765142.201948,86739.000,14692,1,H0,1,100,98.439
1576765142.336074,86852.000,14710,1,H0,1,100,98.435
1576765142.466639,86962.000,14728,1,H0,1,100,98.439
1576765142.593643,87069.000,14746,1,H0,1,100,98.424
1576765142.728957,87183.000,14764,1,H0,1,100,98.420
1576765142.864270,87297.000,14798,1,H0,1,100,98.424
1576765143.004331,87415.000,14816,1,H0,1,100,98.427
1576765143.130148,87521.000,14834,1,H0,1,100,98.424
1576765143.261900,87632.000,14852,1,H0,1,100,98.420
1576765143.397214,87746.000,14870,1,H0,1,100,98.416
1576765143.533714,87861.000,14888,1,H0,1,100,98.412
1576765143.665466,87972.000,14907,1,H0,1,100,98.404
1576765143.790097,88077.000,14924,1,H0,1,100,98.401
1576765143.923036,88189.000,14942,1,H0,1,100,98.397
1576765144.061910,88306.000,14976,1,H0,1,100,98.393
1576765144.201971,88424.000,14994,1,H0,1,100,98.397
1576765144.339658,88540.000,15012,1,H0,1,100,98.393
1576765144.478532,88657.000,15030,1,H0,1,100,98.389
1576765144.605536,88764.000,15049,1,H0,1,100,98.385
1576765144.731354,88870.000,15067,1,H0,1,100,98.370
1576765144.869041,88986.000,15084,1,H0,1,100,98.366
1576765145.006728,89102.000,15102,1,H0,1,100,98.382
1576765145.138480,89213.000,15119,1,H0,1,100,98.385
1576765145.276167,89329.000,15154,1,H0,1,100,98.378
1576765145.404358,89437.000,15172,1,H0,1,100,98.370
1576765145.528989,89542.000,15191,1,H0,1,100,98.370
1576765145.665489,89657.000,15209,1,H0,1,100,98.374
1576765145.803176,89773.000,15227,1,H0,1,100,98.366
1576765145.937302,89886.000,15245,1,H0,1,100,98.359
1576765146.064306,89993.000,15263,1,H0,1,100,98.359
1576765146.194872,90103.000,15280,1,H0,1,100,98.362
1576765146.333746,90220.000,15298,1,H0,1,100,98.347
1576765146.470246,90335.000,15332,1,H0,1,100,98.355
1576765146.601998,90446.000,15351,1,H0,1,100,98.340
1576765146.731377,90555.000,15372,2,H0,1,100,98.343
1576765146.860755,90664.000,15372,2,H0,1,100,98.347
1576765146.998442,90780.000,15392,1,H0,1,100,98.340
1576765147.137316,90897.000,15426,1,H0,1,100,98.336
1576765147.263134,91003.000,15444,1,H0,1,100,98.343
1576765147.391325,91111.000,15462,1,H0,1,100,98.332
1576765147.526638,91225.000,15481,1,H0,1,100,98.324
1576765147.665512,91342.000,15499,1,H0,1,100,98.321
1576765147.797264,91453.000,15517,1,H0,1,100,98.313
1576765147.921895,91558.000,15535,1,H0,1,100,98.313
1576765148.052460,91668.000,15553,1,H0,1,100,98.313
1576765148.180651,91776.000,15570,1,H0,1,100,98.305
1576765148.311217,91886.000,15588,1,H0,1,100,98.305
1576765148.450091,92003.000,15622,1,H0,1,100,98.309
1576765148.588965,92120.000,15641,1,H0,1,100,98.301
1576765148.713595,92225.000,15659,1,H0,1,100,98.298
1576765148.842973,92334.000,15677,1,H0,1,100,98.305
1576765148.978287,92448.000,15695,1,H0,1,100,98.294
1576765149.112413,92561.000,15713,1,H0,1,100,98.294
1576765149.251287,92678.000,15730,1,H0,1,100,98.294
1576765149.378291,92785.000,15748,1,H0,1,100,98.290
1576765149.504109,92891.000,15766,1,H0,1,100,98.282
1576765149.641796,93007.000,15785,1,H0,1,100,98.275
1576765149.780670,93124.000,15819,1,H0,1,100,98.271
1576765149.911235,93234.000,15837,1,H0,1,100,98.267
1576765150.037053,93340.000,15855,1,H0,1,100,98.267
1576765150.172366,93454.000,15873,1,H0,1,100,98.263
1576765150.310053,93570.000,15891,1,H0,1,100,98.267
1576765150.447740,93686.000,15908,1,H0,1,100,98.256
1576765150.577118,93795.000,15927,1,H0,1,100,98.259
1576765150.701749,93900.000,15945,1,H0,1,100,98.252
1576765150.840623,94017.000,15963,1,H0,1,100,98.248
1576765150.975936,94131.000,15997,1,H0,1,100,98.252
1576765151.111249,94245.000,16015,1,H0,1,100,98.252
1576765151.235879,94350.000,16033,1,H0,1,100,98.244
1576765151.366445,94460.000,16051,1,H0,1,100,98.240
1576765151.502945,94575.000,16069,1,H0,1,100,98.240
1576765151.645380,94695.000,16088,1,H0,1,100,98.229
1576765151.783067,94811.000,16105,1,H0,1,100,98.237
1576765151.918380,94925.000,16123,1,H0,1,100,98.233
1576765152.058441,95043.000,16157,1,H0,1,100,98.237
1576765152.193754,95157.000,16175,1,H0,1,100,98.225
1576765152.318384,95262.000,16193,1,H0,1,100,98.229
1576765152.453697,95376.000,16211,1,H0,1,100,98.229
1576765152.590198,95491.000,16230,1,H0,1,100,98.221
1576765152.725511,95605.000,16248,1,H0,1,100,98.229
1576765152.856076,95715.000,16269,1,H0,1,100,98.218
1576765152.984267,95823.000,16289,1,H0,1,100,98.218
1576765153.112459,95931.000,16307,1,H0,1,100,98.206
1576765153.250146,96047.000,16325,1,H0,1,100,98.206
1576765153.390207,96165.000,16343,1,H0,1,100,98.202
1576765153.512463,96268.000,16361,1,H0,1,100,98.195
1576765153.643029,96378.000,16379,1,H0,1,100,98.195
1576765153.781903,96495.000,16397,1,H0,1,100,98.191
1576765153.918403,96610.000,16431,1,H0,1,100,98.187
1576765154.051342,96722.000,16449,1,H0,1,100,98.191
1576765154.178346,96829.000,16467,1,H0,1,100,98.179
1576765154.307725,96938.000,16485,1,H0,1,100,98.179
1576765154.446599,97055.000,16503,1,H0,1,100,98.183
1576765154.584286,97171.000,16522,1,H0,1,100,98.179
1576765154.712477,97279.000,16540,1,H0,1,100,98.176
1576765154.839482,97386.000,16557,1,H0,1,100,98.172
1576765154.971234,97497.000,16575,1,H0,1,100,98.164
1576765155.106547,97611.000,16593,1,H0,1,100,98.168
1576765155.244234,97727.000,16627,1,H0,1,100,98.160
1576765155.371238,97834.000,16645,1,H0,1,100,98.160
1576765155.502991,97945.000,16664,1,H0,1,100,98.156
1576765155.639491,98060.000,16682,1,H0,1,100,98.145
1576765155.765308,98166.000,16700,1,H0,1,100,98.149
1576765155.889939,98271.000,16718,1,H0,1,100,98.153
1576765156.027626,98387.000,16736,1,H0,1,100,98.153
1576765156.165313,98503.000,16753,1,H0,1,100,98.141
1576765156.301813,98618.000,16771,1,H0,1,100,98.141
1576765156.428818,98725.000,16805,1,H0,1,100,98.145
1576765156.564131,98839.000,16824,1,H0,1,100,98.141
1576765156.691135,98946.000,16842,1,H0,1,100,98.137
1576765156.827635,99061.000,16860,1,H0,1,100,98.130
1576765156.964135,99176.000,16878,1,H0,1,100,98.134
1576765157.101822,99292.000,16896,1,H0,1,100,98.122
1576765157.228827,99399.000,16914,1,H0,1,100,98.126
1576765157.357018,99507.000,16931,1,H0,1,100,98.111
1576765157.489957,99619.000,16949,1,H0,1,100,98.115
1576765157.627644,99735.000,16984,1,H0,1,100,98.115
1576765157.762957,99849.000,17002,1,H0,1,100,98.115
1576765157.888775,99955.000,17020,1,H0,1,100,98.115
1576765158.019340,100065.000,17038,1,H0,1,100,98.103
1576765158.157027,100181.000,17056,1,H0,1,100,98.107
1576765158.294714,100297.000,17074,1,H0,1,100,98.107
1576765158.425280,100407.000,17092,1,H0,1,100,98.103
1576765158.552284,100514.000,17110,1,H0,1,100,98.088
1576765158.687597,100628.000,17128,1,H0,1,100,98.095
1576765158.824691,100743.500,17165,2,H0,1,100,98.076
1576765158.961784,100859.000,17165,2,H0,1,100,98.076
1576765159.086415,100964.000,17185,1,H0,1,100,98.076
1576765159.216980,101074.000,17203,1,H0,1,100,98.107
1576765159.355854,101191.000,17220,1,H0,1,100,98.122
1576765159.487606,101302.000,17238,1,H0,1,100,98.107
1576765159.626480,101419.000,17273,1,H0,1,100,98.122
1576765159.765354,101536.000,17291,1,H0,1,100,98.115
1576765159.893546,101644.000,17309,1,H0,1,100,98.103
1576765160.022924,101753.000,17327,1,H0,1,100,98.111
1576765160.161798,101870.000,17345,1,H0,1,100,98.115
1576765160.291176,101979.000,17363,1,H0,1,100,98.111
1576765160.428864,102095.000,17380,1,H0,1,100,98.118
1576765160.566550,102211.000,17399,1,H0,1,100,98.122
1576765160.697116,102321.000,17433,1,H0,1,100,98.118
1576765160.825307,102429.000,17451,1,H0,1,100,98.118
1576765160.955873,102539.000,17469,1,H0,1,100,98.103
1576765161.089999,102652.000,17487,1,H0,1,100,98.103
1576765161.230060,102770.000,17505,1,H0,1,100,98.126
1576765161.358251,102878.000,17523,1,H0,1,100,98.103
1576765161.485255,102985.000,17541,1,H0,1,100,98.092
1576765161.619382,103098.000,17559,1,H0,1,100,98.099
1576765161.758255,103215.000,17577,1,H0,1,100,98.103
1576765161.894756,103330.000,17611,1,H0,1,100,98.103
1576765162.019386,103435.000,17629,1,H0,1,100,98.084
1576765162.149951,103545.000,17647,1,H0,1,100,98.095
1576765162.286452,103660.000,17665,1,H0,1,100,98.092
1576765162.424139,103776.000,17683,1,H0,1,100,98.076
1576765162.553517,103885.000,17702,1,H0,1,100,98.084
1576765162.678148,103990.000,17720,1,H0,1,100,98.084
1576765162.815835,104106.000,17737,1,H0,1,100,98.080
1576765162.949961,104219.000,17755,1,H0,1,100,98.065
1576765163.086461,104334.000,17773,1,H0,1,100,98.069
1576765163.224148,104450.000,17807,1,H0,1,100,98.065
1576765163.360648,104565.000,17825,1,H0,1,100,98.053
1576765163.498335,104681.000,17843,1,H0,1,100,98.065
1576765163.627713,104790.000,17862,1,H0,1,100,98.057
1576765163.755905,104898.000,17880,1,H0,1,100,98.050
1576765163.886470,105008.000,17898,1,H0,1,100,98.034
1576765164.025344,105125.000,17915,1,H0,1,100,98.042
1576765164.165405,105243.000,17933,1,H0,1,100,98.038
1576765164.290035,105348.000,17967,1,H0,1,100,98.034
1576765164.420601,105458.000,17985,1,H0,1,100,98.050
1576765164.554727,105571.000,18004,1,H0,1,100,98.038
1576765164.688853,105684.000,18022,1,H0,1,100,98.034
1576765164.826540,105800.000,18040,1,H0,1,100,98.038
1576765164.952358,105906.000,18061,1,H0,1,100,98.038
1576765165.080549,106014.000,18079,1,H0,1,100,98.042
1576765165.218236,106130.000,18099,1,H0,1,100,98.042
1576765165.358297,106248.000,18117,1,H0,1,100,98.046
1576765165.488862,106358.000,18135,1,H0,1,100,98.038
1576765165.614680,106464.000,18154,1,H0,1,100,98.050
1576765165.751180,106579.000,18172,1,H0,1,100,98.034
1576765165.888867,106695.000,18189,1,H0,1,100,98.042
1576765166.026554,106811.000,18207,1,H0,1,100,98.042
1576765166.152371,106917.000,18225,1,H0,1,100,98.034
1576765166.278189,107023.000,18259,1,H0,1,100,98.042
1576765166.417063,107140.000,18277,1,H0,1,100,98.038
1576765166.552376,107254.000,18296,1,H0,1,100,98.038
1576765166.687689,107368.000,18314,1,H0,1,100,98.034
1576765166.812320,107473.000,18332,1,H0,1,100,98.038
1576765166.947633,107587.000,18350,1,H0,1,100,98.034
1576765167.072263,107692.000,18368,1,H0,1,100,98.038
1576765167.208763,107807.000,18385,1,H0,1,100,98.027
1576765167.339329,107917.000,18403,1,H0,1,100,98.019
1576765167.475829,108032.000,18438,1,H0,1,100,98.012
1576765167.615890,108150.000,18456,1,H0,1,100,98.023
1576765167.750016,108263.000,18474,1,H0,1,100,98.019
1576765167.874646,108368.000,18492,1,H0,1,100,98.019
1576765168.009959,108482.000,18510,1,H0,1,100,98.023
1576765168.146460,108597.000,18528,1,H0,1,100,98.019
1576765168.281773,108711.000,18545,1,H0,1,100,98.012
1576765168.412338,108821.000,18563,1,H0,1,100,98.019
1576765168.541716,108930.000,18582,1,H0,1,100,98.012
1576765168.669908,109038.000,18600,1,H0,1,100,98.015
1576765168.807595,109154.000,18634,1,H0,1,100,98.000
1576765168.946469,109271.000,18652,1,H0,1,100,97.996
1576765169.071099,109376.000,18670,1,H0,1,100,98.004
1576765169.200478,109485.000,18688,1,H0,1,100,98.000
1576765169.339352,109602.000,18706,1,H0,1,100,97.996
1576765169.475852,109717.000,18724,1,H0,1,100,97.992
1576765169.608791,109829.000,18742,1,H0,1,100,97.996
1576765169.736982,109937.000,18760,1,H0,1,100,97.992
1576765169.867548,110047.000,18778,1,H0,1,100,97.996
1576765170.006422,110164.000,18812,1,H0,1,100,97.989
1576765170.144109,110280.000,18830,1,H0,1,100,97.985
1576765170.271113,110387.000,18848,1,H0,1,100,97.989
1576765170.399304,110495.000,18866,1,H0,1,100,98.000
1576765170.531057,110606.000,18885,1,H0,1,100,97.977
1576765170.666370,110720.000,18903,1,H0,1,100,97.981
1576765170.808805,110840.000,18920,1,H0,1,100,97.973
1576765170.947679,110957.000,18938,1,H0,1,100,97.981
1576765171.082992,111071.000,18959,1,H0,1,100,97.966
1576765171.223053,111189.000,18979,1,H0,1,100,97.966
1576765171.351244,111297.000,18996,1,H0,1,100,97.966
1576765171.477062,111403.000,19014,1,H0,1,100,97.970
1576765171.614749,111519.000,19033,1,H0,1,100,97.970
1576765171.753623,111636.000,19067,1,H0,1,100,97.966
1576765171.890123,111751.000,19085,1,H0,1,100,97.951
1576765172.031371,111870.000,19103,1,H0,1,100,97.962
1576765172.161936,111980.000,19121,1,H0,1,100,97.962
1576765172.286566,112085.000,19139,1,H0,1,100,97.951
1576765172.423067,112200.000,19156,1,H0,1,100,97.954
1576765172.559567,112315.000,19175,1,H0,1,100,97.954
1576765172.694880,112429.000,19193,1,H0,1,100,97.947
1576765172.821884,112536.000,19227,1,H0,1,100,97.947
1576765172.950076,112644.000,19245,1,H0,1,100,97.947
1576765173.087763,112760.000,19263,1,H0,1,100,97.935
1576765173.223076,112874.000,19281,1,H0,1,100,97.947
1576765173.359576,112989.000,19299,1,H0,1,100,97.935
1576765173.484206,113094.000,19317,1,H0,1,100,97.935
1576765173.617146,113206.000,19336,1,H0,1,100,97.935
1576765173.757207,113324.000,19353,1,H0,1,100,97.928
1576765173.893707,113439.000,19371,1,H0,1,100,97.935
1576765174.020711,113546.000,19405,1,H0,1,100,97.924
1576765174.146529,113652.000,19423,1,H0,1,100,97.924
1576765174.281842,113766.000,19441,1,H0,1,100,97.920
1576765174.420716,113883.000,19459,1,H0,1,100,97.928
1576765174.559590,114000.000,19478,1,H0,1,100,97.905
1576765174.683033,114104.000,19496,1,H0,1,100,97.924
1576765174.812412,114213.000,19514,1,H0,1,100,97.909
1576765174.941790,114322.000,19532,1,H0,1,100,97.912
1576765175.067607,114428.000,19549,1,H0,1,100,97.916
1576765175.198173,114538.000,19567,1,H0,1,100,97.905
1576765175.333486,114652.000,19585,1,H0,1,100,97.905
1576765175.466425,114764.000,19620,1,H0,1,100,97.905
1576765175.604112,114880.000,19638,1,H0,1,100,97.897
1576765175.731117,114987.000,19656,1,H0,1,100,97.901
1576765175.858121,115094.000,19674,1,H0,1,100,97.886
1576765175.995808,115210.000,19692,1,H0,1,100,97.889
1576765176.133495,115326.000,19710,1,H0,1,100,97.897
1576765176.264060,115436.000,19727,1,H0,1,100,97.889
1576765176.393439,115545.000,19745,1,H0,1,100,97.893
1576765176.527565,115658.000,19764,1,H0,1,100,97.901
1576765176.660504,115770.000,19798,1,H0,1,100,97.886
1576765176.800565,115888.000,19816,1,H0,1,100,97.889
1576765176.929943,115997.000,19834,1,H0,1,100,97.882
1576765177.061102,116107.500,19855,2,H0,1,100,97.882
1576765177.192261,116218.000,19855,2,H0,1,100,97.878
1576765177.332322,116336.000,19891,1,H0,1,100,97.874
1576765177.468822,116451.000,19910,1,H0,1,100,97.870
1576765177.593452,116556.000,19928,1,H0,1,100,97.878
1576765177.725205,116667.000,19946,1,H0,1,100,97.882
1576765177.861705,116782.000,19964,1,H0,1,100,97.867
1576765177.999392,116898.000,19982,1,H0,1,100,97.874
1576765178.132331,117010.000,19999,1,H0,1,100,97.859
1576765178.255775,117114.000,20017,1,H0,1,100,97.859
1576765178.392275,117229.000,20035,1,H0,1,100,97.863
1576765178.529962,117345.000,20070,1,H0,1,100,97.855
1576765178.664088,117458.000,20088,1,H0,1,100,97.855
1576765178.805336,117577.000,20106,1,H0,1,100,97.855
1576765178.938275,117689.000,20124,1,H0,1,100,97.848
1576765179.077149,117806.000,20142,1,H0,1,100,97.848
1576765179.208901,117917.000,20159,1,H0,1,100,97.848
1576765179.337093,118025.000,20177,1,H0,1,100,97.848
1576765179.467658,118135.000,20195,1,H0,1,100,97.848
1576765179.606532,118252.000,20230,1,H0,1,100,97.848
1576765179.746593,118370.000,20248,1,H0,1,100,97.840
1576765179.870037,118474.000,20266,1,H0,1,100,97.844
1576765180.000602,118584.000,20284,1,H0,1,100,97.828
1576765180.135915,118698.000,20302,1,H0,1,100,97.836
1576765180.268854,118810.000,20320,1,H0,1,100,97.840
1576765180.406541,118926.000,20337,1,H0,1,100,97.832
1576765180.533546,119033.000,20356,1,H0,1,100,97.832
1576765180.662924,119142.000,20374,1,H0,1,100,97.821
1576765180.798237,119256.000,20392,1,H0,1,100,97.825
1576765180.939485,119375.000,20426,1,H0,1,100,97.821
1576765181.068863,119484.000,20444,1,H0,1,100,97.813
1576765181.194681,119590.000,20462,1,H0,1,100,97.809
1576765181.331181,119705.000,20480,1,H0,1,100,97.813
1576765181.467681,119820.000,20498,1,H0,1,100,97.817
1576765181.605368,119936.000,20516,1,H0,1,100,97.809
1576765181.732373,120043.000,20534,1,H0,1,100,97.809
1576765181.857003,120148.000,20552,1,H0,1,100,97.802
1576765181.995877,120265.000,20570,1,H0,1,100,97.809
1576765182.131190,120379.000,20604,1,H0,1,100,97.809
1576765182.262942,120490.000,20622,1,H0,1,100,97.802
1576765182.398256,120604.000,20640,1,H0,1,100,97.802
1576765182.527634,120713.000,20659,1,H0,1,100,97.794
1576765182.661760,120826.000,20677,1,H0,1,100,97.798
1576765182.788764,120933.000,20695,1,H0,1,100,97.794
1576765182.920517,121044.000,20713,1,H0,1,100,97.786
1576765183.053456,121156.000,20730,1,H0,1,100,97.790
1576765183.194704,121275.000,20751,1,H0,1,100,97.794
1576765183.332391,121391.000,20771,1,H0,1,100,97.779
1576765183.471265,121508.000,20789,1,H0,1,100,97.771
1576765183.598269,121615.000,20807,1,H0,1,100,97.779
1576765183.728835,121725.000,20825,1,H0,1,100,97.767
1576765183.861774,121837.000,20843,1,H0,1,100,97.767
1576765183.994317,121948.667,20861,3,H0,1,100,97.767
1576765184.126861,122060.333,20861,3,H0,1,100,97.760
1576765184.259404,122172.000,20861,3,H0,1,100,97.760
1576765184.392607,122284.222,20880,9,H0,1,100,97.760
1576765184.525810,122396.444,20880,9,H0,1,100,97.756
1576765184.659014,122508.667,20880,9,H0,1,100,97.764
1576765184.792217,122620.889,20880,9,H0,1,100,97.752
1576765184.925419,122733.111,20880,9,H0,1,100,97.760
1576765185.058622,122845.333,20880,9,H0,1,100,97.752
1576765185.191825,122957.556,20880,9,H0,1,100,97.745
1576765185.325028,123069.778,20880,9,H0,1,100,97.748
1576765185.458231,123182.000,20880,9,H0,1,100,97.748
1576765185.592142,123294.818,20899,11,H0,1,100,97.741
1576765185.726052,123407.636,20899,11,H0,1,100,97.745
1576765185.859962,123520.455,20899,11,H0,1,100,97.748
1576765185.993873,123633.273,20899,11,H0,1,100,97.741
1576765186.127783,123746.091,20899,11,H0,1,100,97.737
1576765186.261693,123858.909,20899,11,H0,1,100,97.729
1576765186.395604,123971.727,20899,11,H0,1,100,97.729
1576765186.529514,124084.545,20899,11,H0,1,100,97.733
1576765186.663425,124197.364,20899,11,H0,1,100,97.725
1576765186.797335,124310.182,20899,11,H0,1,100,97.729
1576765186.931245,124423.000,20899,11,H0,1,100,97.722
1576765187.063930,124534.786,20918,14,H0,1,100,97.729
1576765187.196615,124646.571,20918,14,H0,1,100,97.722
1576765187.329300,124758.357,20918,14,H0,1,100,97.710
1576765187.461985,124870.143,20918,14,H0,1,100,97.714
1576765187.594670,124981.929,20918,14,H0,1,100,97.714
1576765187.727355,125093.714,20918,14,H0,1,100,97.718
1576765187.860039,125205.500,20918,14,H0,1,100,97.714
1576765187.992724,125317.286,20918,14,H0,1,100,97.714
1576765188.125409,125429.071,20918,14,H0,1,100,97.710
1576765188.258094,125540.857,20918,14,H0,1,100,97.706
1576765188.390779,125652.643,20918,14,H0,1,100,97.706
1576765188.523464,125764.429,20918,14,H0,1,100,97.703
1576765188.656149,125876.214,20918,14,H0,1,100,97.695
1576765188.788833,125988.000,20918,14,H0,1,100,97.695
1576765188.924486,126102.286,20940,14,H0,1,100,97.699
1576765189.060138,126216.571,20940,14,H0,1,100,97.695
1576765189.195790,126330.857,20940,14,H0,1,100,97.687
1576765189.331443,126445.143,20940,14,H0,1,100,97.683
1576765189.467095,126559.429,20940,14,H0,1,100,97.695
1576765189.602747,126673.714,20940,14,H0,1,100,97.687
1576765189.738399,126788.000,20940,14,H0,1,100,97.683
1576765189.874052,126902.286,20940,14,H0,1,100,97.687
1576765190.009704,127016.571,20940,14,H0,1,100,97.680
1576765190.145356,127130.857,20940,14,H0,1,100,97.676
1576765190.281008,127245.143,20940,14,H0,1,100,97.687
1576765190.416661,127359.429,20940,14,H0,1,100,97.672
1576765190.552313,127473.714,20940,14,H0,1,100,97.680
1576765190.687965,127588.000,20940,14,H0,1,100,97.676
1576765190.823278,127702.000,20960,2,H0,1,100,97.676
1576765190.958591,127816.000,20960,2,H0,1,100,97.676
1576765191.096278,127932.000,20978,1,H0,1,100,97.676
1576765191.225657,128041.000,20996,1,H0,1,100,97.668
1576765191.352661,128148.000,21014,1,H0,1,100,97.668
1576765191.485600,128260.000,21049,1,H0,1,100,97.664
1576765191.623287,128376.000,21067,1,H0,1,100,97.664
1576765191.759788,128491.000,21085,1,H0,1,100,97.661
1576765191.887979,128599.000,21103,1,H0,1,100,97.661
1576765192.014983,128706.000,21121,1,H0,1,100,97.668
1576765192.152670,128822.000,21139,1,H0,1,100,97.661
1576765192.285609,128934.000,21157,1,H0,1,100,97.649
1576765192.425671,129052.000,21174,1,H0,1,100,97.653
1576765192.553862,129160.000,21192,1,H0,1,100,97.657
1576765192.680866,129267.000,21210,1,H0,1,100,97.649
1576765192.817366,129382.000,21245,1,H0,1,100,97.661
1576765192.956240,129499.000,21263,1,H0,1,100,97.645
1576765193.089180,129611.000,21281,1,H0,1,100,97.661
1576765193.216184,129718.000,21299,1,H0,1,100,97.645
1576765193.349123,129830.000,21317,1,H0,1,100,97.649
1576765193.483249,129943.000,21335,1,H0,1,100,97.645
1576765193.620936,130059.000,21353,1,H0,1,100,97.645
1576765193.751502,130169.000,21371,1,H0,1,100,97.645
1576765193.877319,130275.000,21389,1,H0,1,100,97.638
1576765194.012632,130389.000,21423,1,H0,1,100,97.642
1576765194.152693,130507.000,21441,1,H0,1,100,97.642
1576765194.291567,130624.000,21459,1,H0,1,100,97.638
1576765194.413824,130727.000,21477,1,H0,1,100,97.634
1576765194.544389,130837.000,21496,1,H0,1,100,97.642
1576765194.678515,130950.000,21514,1,H0,1,100,97.638
1576765194.815016,131065.000,21531,1,H0,1,100,97.638
1576765194.949142,131178.000,21549,1,H0,1,100,97.634
1576765195.073772,131283.000,21567,1,H0,1,100,97.630
1576765195.205524,131394.000,21601,1,H0,1,100,97.630
1576765195.344398,131511.000,21619,1,H0,1,100,97.619
1576765195.478525,131624.000,21638,1,H0,1,100,97.634
1576765195.611464,131736.000,21656,1,H0,1,100,97.615
1576765195.739655,131844.000,21674,1,H0,1,100,97.619
1576765195.870220,131954.000,21692,1,H0,1,100,97.615
1576765196.009094,132071.000,21709,1,H0,1,100,97.619
1576765196.149155,132189.000,21727,1,H0,1,100,97.611
1576765196.273786,132294.000,21745,1,H0,1,100,97.615
1576765196.404351,132404.000,21779,1,H0,1,100,97.619
1576765196.538477,132517.000,21801,2,H0,1,100,97.611
1576765196.672604,132630.000,21801,2,H0,1,100,97.611
1576765196.811478,132747.000,21820,1,H0,1,100,97.607
1576765196.938482,132854.000,21855,1,H0,1,100,97.603
1576765197.070234,132965.000,21873,1,H0,1,100,97.600
1576765197.204360,133078.000,21891,1,H0,1,100,97.607
1576765197.343235,133195.000,21909,1,H0,1,100,97.611
1576765197.476174,133307.000,21927,1,H0,1,100,97.603
1576765197.603178,133414.000,21946,1,H0,1,100,97.611
1576765197.739678,133529.000,21963,1,H0,1,100,97.603
1576765197.877365,133645.000,21981,1,H0,1,100,97.596
1576765198.015052,133761.000,22015,1,H0,1,100,97.600
1576765198.138496,133865.000,22033,1,H0,1,100,97.603
1576765198.264313,133971.000,22051,1,H0,1,100,97.592
1576765198.404374,134089.000,22069,1,H0,1,100,97.600
1576765198.542061,134205.000,22088,1,H0,1,100,97.584
1576765198.678561,134320.000,22106,1,H0,1,100,97.592
1576765198.805566,134427.000,22124,1,H0,1,100,97.596
1576765198.937318,134538.000,22142,1,H0,1,100,97.588
1576765199.070257,134650.000,22159,1,H0,1,100,97.577
1576765199.210318,134768.000,22176,1,H0,1,100,97.580
1576765199.343257,134880.000,22211,1,H0,1,100,97.577
1576765199.466701,134984.000,22230,1,H0,1,100,97.569
1576765199.600827,135097.000,22248,1,H0,1,100,97.580
1576765199.736140,135211.000,22266,1,H0,1,100,97.569
1576765199.870266,135324.000,22284,1,H0,1,100,97.573
1576765200.000832,135434.000,22302,1,H0,1,100,97.573
1576765200.131397,135544.000,22320,1,H0,1,100,97.577
1576765200.264336,135656.000,22337,1,H0,1,100,97.573
1576765200.399649,135770.000,22355,1,H0,1,100,97.561
1576765200.539711,135888.000,22390,1,H0,1,100,97.580
1576765200.664341,135993.000,22408,1,H0,1,100,97.573
1576765200.793719,136102.000,22426,1,H0,1,100,97.569
1576765200.932593,136219.000,22444,1,H0,1,100,97.573
1576765201.069093,136334.000,22462,1,H0,1,100,97.569
1576765201.203220,136447.000,22480,1,H0,1,100,97.569
1576765201.329037,136553.000,22498,1,H0,1,100,97.554
1576765201.457228,136661.000,22515,1,H0,1,100,97.558
1576765201.596102,136778.000,22534,1,H0,1,100,97.550
1576765201.736163,136896.000,22568,1,H0,1,100,97.561
1576765201.873850,137012.000,22586,1,H0,1,100,97.565
1576765202.016285,137132.000,22604,1,H0,1,100,97.558
1576765202.151598,137246.000,22622,1,H0,1,100,97.554
1576765202.283351,137357.000,22640,1,H0,1,100,97.550
1576765202.411542,137465.000,22658,1,H0,1,100,97.558
1576765202.545668,137578.000,22676,1,H0,1,100,97.558
1576765202.678607,137690.000,22697,1,H0,1,100,97.554
1576765202.818668,137808.000,22717,1,H0,1,100,97.554
1576765202.946860,137916.000,22735,1,H0,1,100,97.546
1576765203.082173,138030.000,22753,1,H0,1,100,97.546
1576765203.209177,138137.000,22770,1,H0,1,100,97.550
1576765203.339743,138247.000,22788,1,H0,1,100,97.535
1576765203.473869,138360.000,22823,1,H0,1,100,97.539
1576765203.612743,138477.000,22841,1,H0,1,100,97.546
1576765203.742121,138586.000,22859,1,H0,1,100,97.539
1576765203.866752,138691.000,22877,1,H0,1,100,97.542
1576765204.003252,138806.000,22895,1,H0,1,100,97.531
1576765204.142126,138923.000,22913,1,H0,1,100,97.539
1576765204.281000,139040.000,22930,1,H0,1,100,97.531
1576765204.405630,139145.000,22948,1,H0,1,100,97.531
1576765204.537383,139256.000,22967,1,H0,1,100,97.516
1576765204.672696,139370.000,22985,1,H0,1,100,97.527
1576765204.810383,139486.000,23019,1,H0,1,100,97.519
1576765204.940948,139596.000,23037,1,H0,1,100,97.523
1576765205.065578,139701.000,23055,1,H0,1,100,97.519
1576765205.202079,139816.000,23073,1,H0,1,100,97.523
1576765205.337392,139930.000,23091,1,H0,1,100,97.516
1576765205.475079,140046.000,23109,1,H0,1,100,97.516
1576765205.604457,140155.000,23127,1,H0,1,100,97.516
1576765205.733835,140264.000,23145,1,H0,1,100,97.512
1576765205.858466,140369.000,23163,1,H0,1,100,97.519
1576765205.989031,140479.000,23181,1,H0,1,100,97.508
1576765206.117223,140587.000,23215,1,H0,1,100,97.508
1576765206.246601,140696.000,23233,1,H0,1,100,97.504
1576765206.385475,140813.000,23251,1,H0,1,100,97.504
1576765206.524349,140930.000,23270,1,H0,1,100,97.500
1576765206.650167,141036.000,23288,1,H0,1,100,97.512
1576765206.779545,141145.000,23306,1,H0,1,100,97.508
1576765206.914858,141259.000,23324,1,H0,1,100,97.508
1576765207.048984,141372.000,23341,1,H0,1,100,97.497
1576765207.187858,141489.000,23359,1,H0,1,100,97.500
1576765207.314862,141596.000,23393,1,H0,1,100,97.504
1576765207.440680,141702.000,23412,1,H0,1,100,97.500
1576765207.577180,141817.000,23430,1,H0,1,100,97.500
1576765207.716054,141934.000,23448,1,H0,1,100,97.497
1576765207.847806,142045.000,23466,1,H0,1,100,97.489
1576765207.973624,142151.000,23484,1,H0,1,100,97.500
1576765208.108937,142265.000,23502,1,H0,1,100,97.485
1576765208.246624,142381.000,23519,1,H0,1,100,97.493
1576765208.384311,142497.000,23537,1,H0,1,100,97.485
1576765208.513689,142606.000,23572,1,H0,1,100,97.493
1576765208.644848,142716.500,23593,2,H0,1,100,97.493
1576765208.776007,142827.000,23593,2,H0,1,100,97.481
1576765208.911320,142941.000,23612,1,H0,1,100,97.477
1576765209.047820,143056.000,23630,1,H0,1,100,97.481
1576765209.172451,143161.000,23648,1,H0,1,100,97.477
1576765209.306577,143274.000,23682,1,H0,1,100,97.474
1576765209.430020,143378.000,23701,1,H0,1,100,97.470
1576765209.570081,143496.000,23719,1,H0,1,100,97.470
1576765209.707768,143612.000,23737,1,H0,1,100,97.470
1576765209.843081,143726.000,23755,1,H0,1,100,97.481
1576765209.983142,143844.000,23772,1,H0,1,100,97.477
1576765210.117269,143957.000,23790,1,H0,1,100,97.474
1576765210.257330,144075.000,23824,1,H0,1,100,97.474
1576765210.386708,144184.000,23842,1,H0,1,100,97.474
1576765210.517273,144294.000,23861,1,H0,1,100,97.474
1576765210.647839,144404.000,23879,1,H0,1,100,97.474
1576765210.787899,144522.000,23897,1,H0,1,100,97.470
1576765210.925586,144638.000,23915,1,H0,1,100,97.470
1576765211.049030,144742.000,23933,1,H0,1,100,97.458
1576765211.180782,144853.000,23951,1,H0,1,100,97.466
1576765211.316095,144967.000,23968,1,H0,1,100,97.462
1576765211.450222,145080.000,23986,1,H0,1,100,97.466
1576765211.585535,145194.000,24021,1,H0,1,100,97.458
1576765211.712539,145301.000,24039,1,H0,1,100,97.462
1576765211.843105,145411.000,24057,1,H0,1,100,97.466
1576765211.978418,145525.000,24075,1,H0,1,100,97.462
1576765212.119666,145644.000,24093,1,H0,1,100,97.470
1576765212.246670,145751.000,24111,1,H0,1,100,97.458
1576765212.373674,145858.000,24129,1,H0,1,100,97.458
1576765212.510175,145973.000,24147,1,H0,1,100,97.447
1576765212.647861,146089.000,24165,1,H0,1,100,97.451
1576765212.785549,146205.000,24199,1,H0,1,100,97.447
1576765212.911366,146311.000,24217,1,H0,1,100,97.451
1576765213.035996,146416.000,24235,1,H0,1,100,97.443
1576765213.174870,146533.000,24253,1,H0,1,100,97.443
1576765213.313745,146650.000,24271,1,H0,1,100,97.443
1576765213.450245,146765.000,24289,1,H0,1,100,97.432
1576765213.593867,146886.000,24307,1,H0,1,100,97.439
1576765213.727993,146999.000,24325,1,H0,1,100,97.432
1576765213.864493,147114.000,24359,1,H0,1,100,97.432
1576765213.991497,147221.000,24377,1,H0,1,100,97.439
1576765214.123249,147332.000,24395,1,H0,1,100,97.436
1576765214.257375,147445.000,24413,1,H0,1,100,97.428
1576765214.399811,147565.000,24431,1,H0,1,100,97.428
1576765214.537498,147681.000,24450,1,H0,1,100,97.424
1576765214.673998,147796.000,24467,1,H0,1,100,97.432
1576765214.801002,147903.000,24488,1,H0,1,100,97.432
1576765214.930380,148012.000,24508,1,H0,1,100,97.428
1576765215.063320,148124.000,24526,1,H0,1,100,97.428
1576765215.201007,148240.000,24544,1,H0,1,100,97.416
1576765215.335133,148353.000,24561,1,H0,1,100,97.416
1576765215.458576,148457.000,24579,1,H0,1,100,97.420
1576765215.592703,148570.000,24598,1,H0,1,100,97.420
1576765215.730390,148686.000,24632,1,H0,1,100,97.420
1576765215.868077,148802.000,24650,1,H0,1,100,97.409
1576765215.996268,148910.000,24668,1,H0,1,100,97.416
1576765216.125646,149019.000,24686,1,H0,1,100,97.416
1576765216.258585,149131.000,24704,1,H0,1,100,97.413
1576765216.397460,149248.000,24722,1,H0,1,100,97.416
1576765216.531586,149361.000,24740,1,H0,1,100,97.409
1576765216.656216,149466.000,24758,1,H0,1,100,97.413
1576765216.789155,149578.000,24776,1,H0,1,100,97.409
1576765216.924469,149692.000,24810,1,H0,1,100,97.409
1576765217.060969,149807.000,24828,1,H0,1,100,97.405
1576765217.195095,149920.000,24846,1,H0,1,100,97.405
1576765217.323286,150028.000,24864,1,H0,1,100,97.405
1576765217.450291,150135.000,24882,1,H0,1,100,97.405
1576765217.582043,150246.000,24901,1,H0,1,100,97.405
1576765217.709047,150353.000,24919,1,H0,1,100,97.394
1576765217.837239,150461.000,24937,1,H0,1,100,97.397
1576765217.974926,150577.000,24954,1,H0,1,100,97.397
1576765218.112613,150693.000,24972,1,H0,1,100,97.401
1576765218.243178,150803.000,25006,1,H0,1,100,97.401
1576765218.371369,150911.000,25024,1,H0,1,100,97.390
1576765218.505496,151024.000,25043,1,H0,1,100,97.397
1576765218.639622,151137.000,25061,1,H0,1,100,97.405
1576765218.780870,151256.000,25079,1,H0,1,100,97.394
1576765218.909061,151364.000,25097,1,H0,1,100,97.394
1576765219.032505,151468.000,25115,1,H0,1,100,97.394
1576765219.170192,151584.000,25132,1,H0,1,100,97.397
1576765219.307879,151700.000,25150,1,H0,1,100,97.390
1576765219.443192,151814.000,25185,1,H0,1,100,97.390
1576765219.567822,151919.000,25203,1,H0,1,100,97.390
1576765219.700762,152031.000,25221,1,H0,1,100,97.386
1576765219.838449,152147.000,25239,1,H0,1,100,97.397
1576765219.974949,152262.000,25257,1,H0,1,100,97.378
1576765220.107888,152374.000,25275,1,H0,1,100,97.378
1576765220.231332,152478.000,25293,1,H0,1,100,97.378
1576765220.367832,152593.000,25310,1,H0,1,100,97.386
1576765220.501958,152706.000,25329,1,H0,1,100,97.378
1576765220.639645,152822.000,25363,1,H0,1,100,97.374
1576765220.769617,152931.500,25384,2,H0,1,100,97.390
1576765220.899588,153041.000,25384,2,H0,1,100,97.378
1576765221.024219,153146.000,25404,1,H0,1,100,97.378
1576765221.160719,153261.000,25421,1,H0,1,100,97.378
1576765221.299593,153378.000,25439,1,H0,1,100,97.382
1576765221.432532,153490.000,25474,1,H0,1,100,97.371
1576765221.572593,153608.000,25492,1,H0,1,100,97.371
1576765221.710280,153724.000,25510,1,H0,1,100,97.382
1576765221.847967,153840.000,25528,1,H0,1,100,97.378
1576765221.982094,153953.000,25546,1,H0,1,100,97.374
1576765222.110285,154061.000,25563,1,H0,1,100,97.374
1576765222.239663,154170.000,25581,1,H0,1,100,97.378
1576765222.378537,154287.000,25599,1,H0,1,100,97.367
1576765222.517411,154404.000,25634,1,H0,1,100,97.371
1576765222.642042,154509.000,25652,1,H0,1,100,97.371
1576765222.772607,154619.000,25670,1,H0,1,100,97.363
1576765222.906733,154732.000,25688,1,H0,1,100,97.371
1576765223.040859,154845.000,25706,1,H0,1,100,97.367
1576765223.179733,154962.000,25724,1,H0,1,100,97.363
1576765223.307925,155070.000,25742,1,H0,1,100,97.371
1576765223.437303,155179.000,25759,1,H0,1,100,97.359
1576765223.571429,155292.000,25778,1,H0,1,100,97.367
1576765223.711490,155410.000,25812,1,H0,1,100,97.374
1576765223.843242,155521.000,25830,1,H0,1,100,97.371
1576765223.969060,155627.000,25848,1,H0,1,100,97.363
1576765224.104373,155741.000,25866,1,H0,1,100,97.367
1576765224.242060,155857.000,25884,1,H0,1,100,97.355
1576765224.379747,155973.000,25902,1,H0,1,100,97.359
1576765224.507939,156081.000,25921,1,H0,1,100,97.352
1576765224.631382,156185.000,25938,1,H0,1,100,97.363
1576765224.770256,156302.000,25956,1,H0,1,100,97.359
1576765224.909130,156419.000,25990,1,H0,1,100,97.348
1576765225.045630,156534.000,26008,1,H0,1,100,97.352
1576765225.188065,156654.000,26026,1,H0,1,100,97.355
1576765225.322191,156767.000,26044,1,H0,1,100,97.359
1576765225.461065,156884.000,26062,1,H0,1,100,97.340
1576765225.588070,156991.000,26080,1,H0,1,100,97.352
1576765225.718635,157101.000,26098,1,H0,1,100,97.348
1576765225.851574,157213.000,26116,1,H0,1,100,97.355
1576765225.991635,157331.000,26150,1,H0,1,100,97.355
1576765226.126948,157445.000,26168,1,H0,1,100,97.348
1576765226.250392,157549.000,26186,1,H0,1,100,97.352
1576765226.384518,157662.000,26204,1,H0,1,100,97.340
1576765226.522205,157778.000,26223,1,H0,1,100,97.348
1576765226.655144,157890.000,26241,1,H0,1,100,97.344
1576765226.786896,158001.000,26258,1,H0,1,100,97.348
1576765226.913901,158108.000,26279,1,H0,1,100,97.340
1576765227.046840,158220.000,26297,1,H0,1,100,97.348
1576765227.182153,158334.000,26317,1,H0,1,100,97.340
1576765227.324588,158454.000,26335,1,H0,1,100,97.340
1576765227.449219,158559.000,26353,1,H0,1,100,97.340
1576765227.576223,158666.000,26371,1,H0,1,100,97.344
1576765227.713910,158782.000,26389,1,H0,1,100,97.333
1576765227.850410,158897.000,26423,1,H0,1,100,97.333
1576765227.984536,159010.000,26441,1,H0,1,100,97.336
1576765228.110354,159116.000,26459,1,H0,1,100,97.321
1576765228.238545,159224.000,26477,1,H0,1,100,97.333
1576765228.377419,159341.000,26495,1,H0,1,100,97.325
1576765228.513919,159456.000,26514,1,H0,1,100,97.325
1576765228.642111,159564.000,26532,1,H0,1,100,97.333
1576765228.777424,159678.000,26549,1,H0,1,100,97.333
1576765228.905615,159786.000,26567,1,H0,1,100,97.333
1576765229.036180,159896.000,26585,1,H0,1,100,97.325
1576765229.171494,160010.000,26619,1,H0,1,100,97.329
1576765229.294937,160114.000,26637,1,H0,1,100,97.321
1576765229.424315,160223.000,26656,1,H0,1,100,97.313
1576765229.562003,160339.000,26674,1,H0,1,100,97.329
1576765229.699690,160455.000,26692,1,H0,1,100,97.333
1576765229.835003,160569.000,26710,1,H0,1,100,97.329
1576765229.962007,160676.000,26728,1,H0,1,100,97.321
1576765230.093760,160787.000,26745,1,H0,1,100,97.325
1576765230.227886,160900.000,26763,1,H0,1,100,97.321
1576765230.366760,161017.000,26797,1,H0,1,100,97.317
1576765230.497325,161127.000,26816,1,H0,1,100,97.321
1576765230.620769,161231.000,26834,1,H0,1,100,97.313
1576765230.757269,161346.000,26852,1,H0,1,100,97.317
1576765230.893769,161461.000,26870,1,H0,1,100,97.325
1576765231.031456,161577.000,26888,1,H0,1,100,97.321
1576765231.157273,161683.000,26906,1,H0,1,100,97.306
1576765231.287838,161793.000,26924,1,H0,1,100,97.306
1576765231.421965,161906.000,26941,1,H0,1,100,97.306
1576765231.556091,162019.000,26960,1,H0,1,100,97.317
1576765231.693778,162135.000,26994,1,H0,1,100,97.310
1576765231.816035,162238.000,27012,1,H0,1,100,97.310
1576765231.948974,162350.000,27030,1,H0,1,100,97.306
1576765232.083100,162463.000,27048,1,H0,1,100,97.310
1576765232.219600,162578.000,27066,1,H0,1,100,97.313
1576765232.351352,162689.000,27084,1,H0,1,100,97.302
1576765232.478357,162796.000,27103,1,H0,1,100,97.294
1576765232.612483,162909.000,27120,1,H0,1,100,97.294
1576765232.753731,163028.000,27138,1,H0,1,100,97.306
1576765232.889637,163142.500,27175,2,H0,1,100,97.306
1576765233.025544,163257.000,27175,2,H0,1,100,97.306
1576765233.164418,163374.000,27194,1,H0,1,100,97.306
1576765233.304479,163492.000,27212,1,H0,1,100,97.294
1576765233.431483,163599.000,27247,1,H0,1,100,97.306
1576765233.562049,163709.000,27265,1,H0,1,100,97.294
1576765233.700922,163826.000,27283,1,H0,1,100,97.306
1576765233.831488,163936.000,27301,1,H0,1,100,97.298
1576765233.969175,164052.000,27319,1,H0,1,100,97.298
1576765234.106862,164168.000,27337,1,H0,1,100,97.302
1576765234.236240,164277.000,27354,1,H0,1,100,97.302
1576765234.365619,164386.000,27372,1,H0,1,100,97.294
1576765234.498558,164498.000,27391,1,H0,1,100,97.291
1576765234.632684,164611.000,27425,1,H0,1,100,97.287
1576765234.772745,164729.000,27443,1,H0,1,100,97.291
1576765234.900936,164837.000,27461,1,H0,1,100,97.287
1576765235.029128,164945.000,27479,1,H0,1,100,97.291
1576765235.164441,165059.000,27497,1,H0,1,100,97.291
1576765235.304502,165177.000,27515,1,H0,1,100,97.283
1576765235.439815,165291.000,27532,1,H0,1,100,97.291
1576765235.564445,165396.000,27551,1,H0,1,100,97.283
1576765235.696198,165507.000,27569,1,H0,1,100,97.287
1576765235.832698,165622.000,27603,1,H0,1,100,97.283
1576765235.970385,165738.000,27621,1,H0,1,100,97.283
1576765236.102137,165849.000,27639,1,H0,1,100,97.283
1576765236.225581,165953.000,27657,1,H0,1,100,97.275
1576765236.362081,166068.000,27675,1,H0,1,100,97.279
1576765236.499768,166184.000,27694,1,H0,1,100,97.275
1576765236.633894,166297.000,27711,1,H0,1,100,97.275
1576765236.771581,166413.000,27729,1,H0,1,100,97.279
1576765236.906894,166527.000,27763,1,H0,1,100,97.271
1576765237.045768,166644.000,27781,1,H0,1,100,97.271
1576765237.176333,166754.000,27799,1,H0,1,100,97.275
1576765237.304525,166862.000,27817,1,H0,1,100,97.275
1576765237.435090,166972.000,27835,1,H0,1,100,97.264
1576765237.573964,167089.000,27854,1,H0,1,100,97.264
1576765237.712838,167206.000,27872,1,H0,1,100,97.260
1576765237.836282,167310.000,27889,1,H0,1,100,97.260
1576765237.968034,167421.000,27907,1,H0,1,100,97.264
1576765238.096225,167529.000,27925,1,H0,1,100,97.271
1576765238.224417,167637.000,27942,1,H0,1,100,97.264
1576765238.362104,167753.000,27977,1,H0,1,100,97.260
1576765238.500978,167870.000,27996,1,H0,1,100,97.260
1576765238.626795,167976.000,28014,1,H0,1,100,97.264
1576765238.757360,168086.000,28032,1,H0,1,100,97.268
1576765238.891487,168199.000,28050,1,H0,1,100,97.256
1576765239.029174,168315.000,28069,1,H0,1,100,97.260
1576765239.165674,168430.000,28091,1,H0,1,100,97.260
1576765239.291491,168536.000,28109,1,H0,1,100,97.256
1576765239.423244,168647.000,28127,1,H0,1,100,97.252
1576765239.557370,168760.000,28146,1,H0,1,100,97.249
1576765239.696244,168877.000,28164,1,H0,1,100,97.256
1576765239.827996,168988.000,28181,1,H0,1,100,97.264
1576765239.955000,169095.000,28199,1,H0,1,100,97.252
1576765240.087940,169207.000,28217,1,H0,1,100,97.252
1576765240.225627,169323.000,28251,1,H0,1,100,97.260
1576765240.363314,169439.000,28269,1,H0,1,100,97.256
1576765240.491505,169547.000,28288,1,H0,1,100,97.245
1576765240.625631,169660.000,28306,1,H0,1,100,97.245
1576765240.753823,169768.000,28324,1,H0,1,100,97.252
1576765240.889136,169882.000,28342,1,H0,1,100,97.252
1576765241.013766,169987.000,28360,1,H0,1,100,97.241
1576765241.150266,170102.000,28377,1,H0,1,100,97.241
1576765241.287953,170218.000,28395,1,H0,1,100,97.233
1576765241.426827,170335.000,28430,1,H0,1,100,97.241
1576765241.553832,170442.000,28448,1,H0,1,100,97.241
1576765241.684397,170552.000,28466,1,H0,1,100,97.241
1576765241.817336,170664.000,28484,1,H0,1,100,97.241
1576765241.956210,170781.000,28502,1,H0,1,100,97.237
1576765242.091524,170895.000,28520,1,H0,1,100,97.226
1576765242.214967,170999.000,28538,1,H0,1,100,97.237
1576765242.349093,171112.000,28555,1,H0,1,100,97.230
1576765242.485593,171227.000,28574,1,H0,1,100,97.233
1576765242.622093,171342.000,28608,1,H0,1,100,97.237
1576765242.752659,171452.000,28626,1,H0,1,100,97.237
1576765242.880850,171560.000,28644,1,H0,1,100,97.237
1576765243.013789,171672.000,28662,1,H0,1,100,97.222
1576765243.149102,171786.000,28680,1,H0,1,100,97.233
1576765243.291537,171906.000,28698,1,H0,1,100,97.237
1576765243.416168,172011.000,28716,1,H0,1,100,97.233
1576765243.545546,172120.000,28734,1,H0,1,100,97.230
1576765243.678485,172232.000,28752,1,H0,1,100,97.226
1576765243.814986,172347.000,28786,1,H0,1,100,97.237
1576765243.950299,172461.000,28804,1,H0,1,100,97.230
1576765244.076116,172567.000,28822,1,H0,1,100,97.210
1576765244.206681,172677.000,28840,1,H0,1,100,97.226
1576765244.344368,172793.000,28858,1,H0,1,100,97.218
1576765244.483243,172910.000,28877,1,H0,1,100,97.214
1576765244.612621,173019.000,28895,1,H0,1,100,97.222
1576765244.751495,173136.000,28912,1,H0,1,100,97.214
1576765244.889182,173252.000,28930,1,H0,1,100,97.218
1576765245.018560,173361.000,28967,2,H0,1,100,97.226
1576765245.147938,173470.000,28967,2,H0,1,100,97.210
1576765245.285625,173586.000,28986,1,H0,1,100,97.218
1576765245.413817,173694.000,29004,1,H0,1,100,97.210
1576765245.551504,173810.000,29023,1,H0,1,100,97.222
1576765245.689191,173926.000,29057,1,H0,1,100,97.210
1576765245.823317,174039.000,29075,1,H0,1,100,97.214
1576765245.950322,174146.000,29093,1,H0,1,100,97.218
1576765246.080887,174256.000,29111,1,H0,1,100,97.207
1576765246.215013,174369.000,29129,1,H0,1,100,97.210
1576765246.352700,174485.000,29147,1,H0,1,100,97.210
1576765246.484452,174596.000,29165,1,H0,1,100,97.207
1576765246.609083,174701.000,29183,1,H0,1,100,97.203
1576765246.743209,174814.000,29201,1,H0,1,100,97.203
1576765246.882083,174931.000,29235,1,H0,1,100,97.199
1576765247.019770,175047.000,29253,1,H0,1,100,97.203
1576765247.145588,175153.000,29271,1,H0,1,100,97.195
1576765247.276153,175263.000,29289,1,H0,1,100,97.207
1576765247.410279,175376.000,29307,1,H0,1,100,97.195
1576765247.547966,175492.000,29326,1,H0,1,100,97.203
1576765247.683279,175606.000,29343,1,H0,1,100,97.203
1576765247.806723,175710.000,29361,1,H0,1,100,97.195
1576765247.939662,175822.000,29379,1,H0,1,100,97.195
1576765248.073788,175935.000,29396,1,H0,1,100,97.191
1576765248.210288,176050.000,29431,1,H0,1,100,97.199
1576765248.351536,176169.000,29449,1,H0,1,100,97.195
1576765248.491597,176287.000,29468,1,H0,1,100,97.199
1576765248.629284,176403.000,29486,1,H0,1,100,97.191
1576765248.763410,176516.000,29503,1,H0,1,100,97.191
1576765248.891602,176624.000,29521,1,H0,1,100,97.195
1576765249.018606,176731.000,29539,1,H0,1,100,97.188
1576765249.157480,176848.000,29573,1,H0,1,100,97.184
1576765249.296354,176965.000,29591,1,H0,1,100,97.176
1576765249.424546,177073.000,29610,1,H0,1,100,97.180
1576765249.559859,177187.000,29628,1,H0,1,100,97.188
1576765249.686863,177294.000,29646,1,H0,1,100,97.188
1576765249.813868,177401.000,29664,1,H0,1,100,97.188
1576765249.950368,177516.000,29682,1,H0,1,100,97.184
1576765250.088055,177632.000,29699,1,H0,1,100,97.184
1576765250.218620,177742.000,29717,1,H0,1,100,97.188
1576765250.347998,177851.000,29735,1,H0,1,100,97.188
1576765250.480937,177963.000,29770,1,H0,1,100,97.184
1576765250.619812,178080.000,29788,1,H0,1,100,97.188
1576765250.757499,178196.000,29806,1,H0,1,100,97.176
1576765250.886877,178305.000,29824,1,H0,1,100,97.176
1576765251.013881,178412.000,29842,1,H0,1,100,97.176
1576765251.149194,178526.000,29863,1,H0,1,100,97.168
1576765251.289255,178644.000,29883,1,H0,1,100,97.176
1576765251.423382,178757.000,29901,1,H0,1,100,97.176
1576765251.548012,178862.000,29920,1,H0,1,100,97.168
1576765251.678577,178972.000,29938,1,H0,1,100,97.165
1576765251.815078,179087.000,29956,1,H0,1,100,97.168
1576765251.952765,179203.000,29973,1,H0,1,100,97.165
1576765252.085704,179315.000,29991,1,H0,1,100,97.168
1576765252.211521,179421.000,30009,1,H0,1,100,97.168
1576765252.345647,179534.000,30043,1,H0,1,100,97.168
1576765252.478587,179646.000,30062,1,H0,1,100,97.172
1576765252.603217,179751.000,30080,1,H0,1,100,97.165
1576765252.738530,179865.000,30098,1,H0,1,100,97.157
1576765252.873843,179979.000,30116,1,H0,1,100,97.161
1576765253.009156,180093.000,30134,1,H0,1,100,97.161
1576765253.140909,180204.000,30152,1,H0,1,100,97.153
1576765253.269100,180312.000,30169,1,H0,1,100,97.165
1576765253.399665,180422.000,30187,1,H0,1,100,97.157
1576765253.537353,180538.000,30222,1,H0,1,100,97.157
1576765253.676226,180655.000,30240,1,H0,1,100,97.157
1576765253.799670,180759.000,30258,1,H0,1,100,97.153
1576765253.930235,180869.000,30276,1,H0,1,100,97.153
1576765254.065548,180983.000,30294,1,H0,1,100,97.153
1576765254.202049,181098.000,30312,1,H0,1,100,97.153
1576765254.336175,181211.000,30330,1,H0,1,100,97.153
1576765254.463179,181318.000,30349,1,H0,1,100,97.149
1576765254.592557,181427.000,30366,1,H0,1,100,97.153
1576765254.727871,181541.000,30384,1,H0,1,100,97.157
1576765254.869118,181660.000,30418,1,H0,1,100,97.138
1576765254.998497,181769.000,30436,1,H0,1,100,97.146
1576765255.125501,181876.000,30454,1,H0,1,100,97.138
1576765255.257254,181987.000,30472,1,H0,1,100,97.142
1576765255.392567,182101.000,30490,1,H0,1,100,97.142
1576765255.530254,182217.000,30509,1,H0,1,100,97.134
1576765255.657258,182324.000,30527,1,H0,1,100,97.142
1576765255.783076,182430.000,30544,1,H0,1,100,97.138
1576765255.919576,182545.000,30562,1,H0,1,100,97.138
1576765256.056076,182660.000,30596,1,H0,1,100,97.134
1576765256.181893,182766.000,30614,1,H0,1,100,97.127
1576765256.321954,182884.000,30632,1,H0,1,100,97.138
1576765256.459641,183000.000,30651,1,H0,1,100,97.127
1576765256.596141,183115.000,30669,1,H0,1,100,97.127
1576765256.732641,183230.000,30687,1,H0,1,100,97.119
1576765256.864394,183341.000,30704,1,H0,1,100,97.127
1576765256.989024,183446.000,30722,1,H0,1,100,97.115
1576765257.125524,183561.000,30740,1,H0,1,100,97.119
1576765257.263211,183677.000,30761,1,H0,1,100,97.119
1576765257.400898,183793.000,30781,1,H0,1,100,97.119
1576765257.527903,183900.000,30800,1,H0,1,100,97.111
1576765257.656094,184008.000,30817,1,H0,1,100,97.104
1576765257.789033,184120.000,30835,1,H0,1,100,97.107
1576765257.926720,184236.000,30869,1,H0,1,100,97.107
1576765258.063221,184351.000,30887,1,H0,1,100,97.107
1576765258.187851,184456.000,30905,1,H0,1,100,97.107
1576765258.319603,184567.000,30923,1,H0,1,100,97.100
1576765258.458477,184684.000,30942,1,H0,1,100,97.107
1576765258.594977,184799.000,30960,1,H0,1,100,97.096
1576765258.725543,184909.000,30978,1,H0,1,100,97.104
1576765258.853734,185017.000,30995,1,H0,1,100,97.104
1576765258.987860,185130.000,31013,1,H0,1,100,97.104
1576765259.126734,185247.000,31047,1,H0,1,100,97.104
1576765259.265608,185364.000,31065,1,H0,1,100,97.104
1576765259.390239,185469.000,31084,1,H0,1,100,97.104
1576765259.519617,185578.000,31102,1,H0,1,100,97.107
1576765259.652556,185690.000,31120,1,H0,1,100,97.096
1576765259.789056,185805.000,31138,1,H0,1,100,97.100
1576765259.931491,185925.000,31155,1,H0,1,100,97.100
1576765260.071552,186043.000,31173,1,H0,1,100,97.100
1576765260.209239,186159.000,31207,1,H0,1,100,97.092
1576765260.348113,186276.000,31225,1,H0,1,100,97.092
1576765260.475118,186383.000,31244,1,H0,1,100,97.096
1576765260.600935,186489.000,31262,1,H0,1,100,97.092
1576765260.738622,186605.000,31280,1,H0,1,100,97.088
1576765260.876309,186721.000,31298,1,H0,1,100,97.092
1576765261.006875,186831.000,31315,1,H0,1,100,97.096
1576765261.144562,186947.000,31333,1,H0,1,100,97.088
1576765261.272753,187055.000,31351,1,H0,1,100,97.104
1576765261.397383,187160.000,31368,1,H0,1,100,97.100
1576765261.533884,187275.000,31404,1,H0,1,100,97.092
1576765261.671571,187391.000,31422,1,H0,1,100,97.081
1576765261.805697,187504.000,31440,1,H0,1,100,97.081
1576765261.932701,187611.000,31458,1,H0,1,100,97.081
1576765262.063267,187721.000,31476,1,H0,1,100,97.073
1576765262.202141,187838.000,31494,1,H0,1,100,97.081
1576765262.338641,187953.000,31511,1,H0,1,100,97.073
1576765262.471580,188065.000,31529,1,H0,1,100,97.073
1576765262.596210,188170.000,31548,1,H0,1,100,97.081
1576765262.730336,188283.000,31582,1,H0,1,100,97.077
1576765262.869210,188400.000,31600,1,H0,1,100,97.065
1576765263.005711,188515.000,31618,1,H0,1,100,97.069
1576765263.131528,188621.000,31636,1,H0,1,100,97.081
1576765263.259719,188729.000,31657,1,H0,1,100,97.085
1576765263.395033,188843.000,31678,1,H0,1,100,97.073
1576765263.533907,188960.000,31696,1,H0,1,100,97.077
1576765263.672781,189077.000,31714,1,H0,1,100,97.073
1576765263.810468,189193.000,31732,1,H0,1,100,97.081
1576765263.938659,189301.000,31750,1,H0,1,100,97.085
1576765264.068037,189410.000,31768,1,H0,1,100,97.073
1576765264.192668,189515.000,31786,1,H0,1,100,97.077
1576765264.324420,189626.000,31803,1,H0,1,100,97.073
1576765264.459733,189740.000,31822,1,H0,1,100,97.069
1576765264.593859,189853.000,31856,1,H0,1,100,97.069
1576765264.730360,189968.000,31874,1,H0,1,100,97.085
1576765264.858551,190076.000,31892,1,H0,1,100,97.077
1576765264.985555,190183.000,31910,1,H0,1,100,97.065
1576765265.124429,190300.000,31928,1,H0,1,100,97.073
1576765265.259742,190414.000,31946,1,H0,1,100,97.073
1576765265.392682,190526.000,31963,1,H0,1,100,97.073
1576765265.531556,190643.000,31982,1,H0,1,100,97.077
1576765265.657373,190749.000,32000,1,H0,1,100,97.073
1576765265.785564,190857.000,32034,1,H0,1,100,97.077
1576765265.922065,190972.000,32052,1,H0,1,100,97.077
1576765266.059752,191088.000,32070,1,H0,1,100,97.073
1576765266.192691,191200.000,32088,1,H0,1,100,97.073
1576765266.319695,191307.000,32106,1,H0,1,100,97.073
1576765266.452635,191419.000,32125,1,H0,1,100,97.073
1576765266.591509,191536.000,32142,1,H0,1,100,97.073
1576765266.728009,191651.000,32160,1,H0,1,100,97.073
1576765266.856200,191759.000,32178,1,H0,1,100,97.069
1576765266.982018,191865.000,32212,1,H0,1,100,97.062
1576765267.122078,191983.000,32230,1,H0,1,100,97.073
1576765267.256205,192096.000,32248,1,H0,1,100,97.065
1576765267.391518,192210.000,32266,1,H0,1,100,97.065
1576765267.514961,192314.000,32285,1,H0,1,100,97.077
1576765267.649087,192427.000,32303,1,H0,1,100,97.062
1576765267.772531,192531.000,32321,1,H0,1,100,97.069
1576765267.910218,192647.000,32338,1,H0,1,100,97.065
1576765268.047905,192763.000,32356,1,H0,1,100,97.062
1576765268.184405,192878.000,32390,1,H0,1,100,97.077
1576765268.324466,192996.000,32408,1,H0,1,100,97.065
1576765268.459779,193110.000,32427,1,H0,1,100,97.065
1576765268.584410,193215.000,32445,1,H0,1,100,97.065
1576765268.719723,193329.000,32463,1,H0,1,100,97.065
1576765268.856223,193444.000,32481,1,H0,1,100,97.065
1576765268.990349,193557.000,32498,1,H0,1,100,97.069
1576765269.122101,193668.000,32516,1,H0,1,100,97.062
1576765269.247919,193774.000,32534,1,H0,1,100,97.065
1576765269.378484,193884.000,32555,1,H0,1,100,97.058
1576765269.516171,194000.000,32576,1,H0,1,100,97.050
1576765269.657419,194119.000,32593,1,H0,1,100,97.054
1576765269.782050,194224.000,32611,1,H0,1,100,97.058
1576765269.909054,194331.000,32629,1,H0,1,100,97.065
1576765270.046741,194447.000,32663,1,H0,1,100,97.065
1576765270.183241,194562.000,32681,1,H0,1,100,97.058
1576765270.317367,194675.000,32699,1,H0,1,100,97.062
1576765270.444372,194782.000,32718,1,H0,1,100,97.062
1576765270.573750,194891.000,32736,1,H0,1,100,97.058
1576765270.712624,195008.000,32754,1,H0,1,100,97.054
1576765270.849124,195123.000,32772,1,H0,1,100,97.058
1576765270.978503,195232.000,32789,1,H0,1,100,97.058
1576765271.104320,195338.000,32807,1,H0,1,100,97.050
1576765271.236072,195449.000,32825,1,H0,1,100,97.050
1576765271.372572,195564.000,32860,1,H0,1,100,97.054
1576765271.516194,195685.000,32878,1,H0,1,100,97.058
1576765271.655068,195802.000,32896,1,H0,1,100,97.050
1576765271.791568,195917.000,32914,1,H0,1,100,97.054
1576765271.932816,196036.000,32931,1,H0,1,100,97.050
1576765272.061007,196144.000,32949,1,H0,1,100,97.046
1576765272.186825,196250.000,32967,1,H0,1,100,97.050
1576765272.325699,196367.000,33001,1,H0,1,100,97.054
1576765272.457451,196478.000,33020,1,H0,1,100,97.050
1576765272.591578,196591.000,33038,1,H0,1,100,97.046
1576765272.731638,196709.000,33056,1,H0,1,100,97.046
1576765272.863391,196820.000,33074,1,H0,1,100,97.046
1576765272.986834,196924.000,33092,1,H0,1,100,97.054
1576765273.122147,197038.000,33110,1,H0,1,100,97.043
1576765273.257461,197152.000,33127,1,H0,1,100,97.054
1576765273.393961,197267.000,33145,1,H0,1,100,97.050
1576765273.522152,197375.000,33164,1,H0,1,100,97.062
1576765273.651530,197484.000,33198,1,H0,1,100,97.050
1576765273.785656,197597.000,33216,1,H0,1,100,97.046
1576765273.919783,197710.000,33234,1,H0,1,100,97.046
1576765274.057470,197826.000,33252,1,H0,1,100,97.043
1576765274.182100,197931.000,33270,1,H0,1,100,97.046
1576765274.311479,198040.000,33288,1,H0,1,100,97.046
1576765274.449166,198156.000,33306,1,H0,1,100,97.046
1576765274.586853,198272.000,33324,1,H0,1,100,97.046
1576765274.718605,198383.000,33342,1,H0,1,100,97.043
1576765274.845609,198490.000,33376,1,H0,1,100,97.031
1576765274.977362,198601.000,33394,1,H0,1,100,97.043
1576765275.116236,198718.000,33412,1,H0,1,100,97.035
1576765275.256297,198836.000,33430,1,H0,1,100,97.035
1576765275.392797,198951.000,33451,1,H0,1,100,97.035
1576765275.535232,199071.000,33472,1,H0,1,100,97.039
1576765275.670545,199185.000,33490,1,H0,1,100,97.050
1576765275.797549,199292.000,33508,1,H0,1,100,97.039
1576765275.928114,199402.000,33526,1,H0,1,100,97.043
1576765276.062241,199515.000,33544,1,H0,1,100,97.035
1576765276.196367,199628.000,33561,1,H0,1,100,97.039
1576765276.338802,199748.000,33579,1,H0,1,100,97.039
1576765276.476489,199864.000,33614,1,H0,1,100,97.035
1576765276.607054,199974.000,33632,1,H0,1,100,97.035
1576765276.735245,200082.000,33650,1,H0,1,100,97.039
1576765276.868185,200194.000,33668,1,H0,1,100,97.039
1576765277.002311,200307.000,33686,1,H0,1,100,97.035
1576765277.143559,200426.000,33704,1,H0,1,100,97.039
1576765277.271750,200534.000,33722,1,H0,1,100,97.031
1576765277.396380,200639.000,33739,1,H0,1,100,97.035
1576765277.532881,200754.000,33758,1,H0,1,100,97.031
1576765277.672942,200872.000,33792,1,H0,1,100,97.027
1576765277.808255,200986.000,33810,1,H0,1,100,97.027
1576765277.932885,201091.000,33828,1,H0,1,100,97.027
1576765278.065825,201203.000,33846,1,H0,1,100,97.035
1576765278.203511,201319.000,33864,1,H0,1,100,97.031
1576765278.342386,201436.000,33882,1,H0,1,100,97.016
1576765278.471764,201545.000,33901,1,H0,1,100,97.027
1576765278.595207,201649.000,33918,1,H0,1,100,97.035
1576765278.731708,201764.000,33936,1,H0,1,100,97.039
1576765278.865834,201877.000,33954,1,H0,1,100,97.020
1576765279.003521,201993.000,33988,1,H0,1,100,97.031
1576765279.130525,202100.000,34006,1,H0,1,100,97.035
1576765279.262277,202211.000,34024,1,H0,1,100,97.020
1576765279.386908,202316.000,34043,1,H0,1,100,97.024
1576765279.519847,202428.000,34061,1,H0,1,100,97.020
1576765279.648038,202536.000,34079,1,H0,1,100,97.020
1576765279.778604,202646.000,34097,1,H0,1,100,97.012
1576765279.917478,202763.000,34114,1,H0,1,100,97.016
1576765280.056352,202880.000,34132,1,H0,1,100,97.016
1576765280.180982,202985.000,34150,1,H0,1,100,97.020
1576765280.312735,203096.000,34184,1,H0,1,100,97.012
1576765280.440926,203204.000,34203,1,H0,1,100,97.016
1576765280.569117,203312.000,34221,1,H0,1,100,97.008
1576765280.707991,203429.000,34239,1,H0,1,100,97.016
1576765280.848052,203547.000,34257,1,H0,1,100,97.012
1576765280.973870,203653.000,34275,1,H0,1,100,97.016
1576765281.104435,203763.000,34293,1,H0,1,100,97.016
1576765281.238561,203876.000,34310,1,H0,1,100,97.016
1576765281.371500,203988.000,34328,1,H0,1,100,97.012
1576765281.510374,204105.000,34350,1,H0,1,100,97.008
1576765281.637379,204212.000,34370,1,H0,1,100,97.020
1576765281.766757,204321.000,34388,1,H0,1,100,97.008
1576765281.900883,204434.000,34405,1,H0,1,100,97.004
1576765282.040944,204552.000,34423,1,H0,1,100,97.004
1576765282.173883,204664.000,34440,1,H0,1,100,97.008
1576765282.300888,204771.000,34475,1,H0,1,100,97.001
1576765282.432640,204882.000,34494,1,H0,1,100,97.008
1576765282.569140,204997.000,34512,1,H0,1,100,97.004
1576765282.706827,205113.000,34530,1,H0,1,100,96.997
1576765282.835019,205221.000,34548,1,H0,1,100,97.001
1576765282.958462,205325.000,34566,1,H0,1,100,97.004
1576765283.094962,205440.000,34584,1,H0,1,100,97.012
1576765283.231462,205555.000,34601,1,H0,1,100,96.997
1576765283.356093,205660.000,34619,1,H0,1,100,97.001
1576765283.496154,205778.000,34654,1,H0,1,100,97.004
1576765283.632654,205893.000,34672,1,H0,1,100,96.997
1576765283.770341,206009.000,34690,1,H0,1,100,97.001
1576765283.897346,206116.000,34708,1,H0,1,100,97.004
1576765284.031472,206229.000,34726,1,H0,1,100,97.001
1576765284.158476,206336.000,34744,1,H0,1,100,97.001
1576765284.293789,206450.000,34762,1,H0,1,100,97.004
1576765284.430289,206565.000,34780,1,H0,1,100,96.997
1576765284.565603,206679.000,34798,1,H0,1,100,96.993
1576765284.696168,206789.000,34832,1,H0,1,100,96.989
1576765284.823172,206896.000,34850,1,H0,1,100,97.004
1576765284.953737,207006.000,34868,1,H0,1,100,97.004
1576765285.091424,207122.000,34886,1,H0,1,100,96.993
1576765285.230299,207239.000,34904,1,H0,1,100,96.997
1576765285.354929,207344.000,34922,1,H0,1,100,96.997
1576765285.484307,207453.000,34941,1,H0,1,100,96.997
1576765285.623181,207570.000,34958,1,H0,1,100,96.989
1576765285.759681,207685.000,34976,1,H0,1,100,96.985
1576765285.892621,207797.000,35010,1,H0,1,100,96.989
1576765286.020812,207905.000,35028,1,H0,1,100,96.997
1576765286.152564,208016.000,35046,1,H0,1,100,96.989
1576765286.291438,208133.000,35064,1,H0,1,100,96.993
1576765286.427938,208248.000,35083,1,H0,1,100,96.985
1576765286.554943,208355.000,35101,1,H0,1,100,96.993
1576765286.681947,208462.000,35119,1,H0,1,100,96.985
1576765286.813699,208573.000,35137,1,H0,1,100,96.985
1576765286.949013,208687.000,35154,1,H0,1,100,96.982
1576765287.091448,208807.000,35188,1,H0,1,100,96.985
1576765287.230321,208924.000,35206,1,H0,1,100,96.985
1576765287.365635,209038.000,35225,1,H0,1,100,96.989
1576765287.500354,209151.500,35246,2,H0,1,100,96.982
1576765287.635074,209265.000,35246,2,H0,1,100,96.989
1576765287.760891,209371.000,35282,1,H0,1,100,96.989
1576765287.899765,209488.000,35300,1,H0,1,100,96.993
1576765288.031518,209599.000,35318,1,H0,1,100,96.982
1576765288.165644,209712.000,35336,1,H0,1,100,96.982
1576765288.306892,209831.000,35354,1,H0,1,100,96.982
1576765288.437457,209941.000,35373,1,H0,1,100,96.978
1576765288.562088,210046.000,35390,1,H0,1,100,96.985
1576765288.698588,210161.000,35408,1,H0,1,100,96.985
1576765288.835088,210276.000,35426,1,H0,1,100,96.978
1576765288.970401,210390.000,35460,1,H0,1,100,96.978
1576765289.097405,210497.000,35478,1,H0,1,100,96.970
1576765289.227971,210607.000,35496,1,H0,1,100,96.978
1576765289.364471,210722.000,35514,1,H0,1,100,96.978
1576765289.499784,210836.000,35533,1,H0,1,100,96.978
1576765289.636284,210951.000,35551,1,H0,1,100,96.982
1576765289.760914,211056.000,35569,1,H0,1,100,96.978
1576765289.892667,211167.000,35586,1,H0,1,100,96.974
1576765290.031541,211284.000,35604,1,H0,1,100,96.978
1576765290.170415,211401.000,35638,1,H0,1,100,96.970
1576765290.299793,211510.000,35656,1,H0,1,100,96.978
1576765290.426797,211617.000,35675,1,H0,1,100,96.970
1576765290.558550,211728.000,35693,1,H0,1,100,96.970
1576765290.697424,211845.000,35711,1,H0,1,100,96.970
1576765290.837485,211963.000,35729,1,H0,1,100,96.970
1576765290.975172,212079.000,35746,1,H0,1,100,96.974
1576765291.117607,212199.000,35780,1,H0,1,100,96.970
1576765291.252920,212313.000,35798,1,H0,1,100,96.974
1576765291.378737,212419.000,35817,1,H0,1,100,96.966
1576765291.508116,212528.000,35835,1,H0,1,100,96.974
1576765291.643429,212642.000,35853,1,H0,1,100,96.970
1576765291.777555,212755.000,35871,1,H0,1,100,96.970
1576765291.919990,212875.000,35888,1,H0,1,100,96.974
1576765292.058864,212992.000,35906,1,H0,1,100,96.974
1576765292.188242,213101.000,35924,1,H0,1,100,96.974
1576765292.317620,213210.000,35958,1,H0,1,100,96.966
1576765292.450560,213322.000,35977,1,H0,1,100,96.970
1576765292.583499,213434.000,35995,1,H0,1,100,96.978
1576765292.724747,213553.000,36013,1,H0,1,100,96.978
1576765292.850564,213659.000,36031,1,H0,1,100,96.970
1576765292.975195,213764.000,36049,1,H0,1,100,96.970
1576765293.112882,213880.000,36066,1,H0,1,100,96.966
1576765293.252943,213998.000,36084,1,H0,1,100,96.959
1576765293.387069,214111.000,36102,1,H0,1,100,96.959
1576765293.511699,214216.000,36120,1,H0,1,100,96.966
1576765293.645826,214329.000,36141,1,H0,1,100,96.966
1576765293.783513,214445.000,36161,1,H0,1,100,96.970
1576765293.922387,214562.000,36178,1,H0,1,100,96.966
1576765294.050578,214670.000,36196,1,H0,1,100,96.959
1576765294.172835,214773.000,36214,1,H0,1,100,96.959
1576765294.310522,214889.000,36248,1,H0,1,100,96.974
1576765294.444648,215002.000,36267,1,H0,1,100,96.966
1576765294.582335,215118.000,36285,1,H0,1,100,96.959
1576765294.710526,215226.000,36303,1,H0,1,100,96.966
1576765294.843465,215338.000,36321,1,H0,1,100,96.959
1576765294.968096,215443.000,36339,1,H0,1,100,96.974
1576765295.102222,215556.000,36357,1,H0,1,100,96.970
1576765295.232787,215666.000,36374,1,H0,1,100,96.962
1576765295.363353,215776.000,36392,1,H0,1,100,96.970
1576765295.503414,215894.000,36427,1,H0,1,100,96.962
1576765295.639914,216009.000,36445,1,H0,1,100,96.955
1576765295.778788,216126.000,36463,1,H0,1,100,96.955
1576765295.911727,216238.000,36481,1,H0,1,100,96.959
1576765296.039918,216346.000,36499,1,H0,1,100,96.966
1576765296.170484,216456.000,36517,1,H0,1,100,96.955
1576765296.309358,216573.000,36534,1,H0,1,100,96.959
1576765296.448232,216690.000,36553,1,H0,1,100,96.962
1576765296.571675,216794.000,36571,1,H0,1,100,96.959
1576765296.702240,216904.000,36605,1,H0,1,100,96.959
1576765296.837554,217018.000,36623,1,H0,1,100,96.947
1576765296.974054,217133.000,36641,1,H0,1,100,96.955
1576765297.109367,217247.000,36659,1,H0,1,100,96.959
1576765297.236371,217354.000,36677,1,H0,1,100,96.955
1576765297.366937,217464.000,36695,1,H0,1,100,96.955
1576765297.502250,217578.000,36713,1,H0,1,100,96.966
1576765297.642311,217696.000,36731,1,H0,1,100,96.959
1576765297.772876,217806.000,36749,1,H0,1,100,96.955
1576765297.898693,217912.000,36783,1,H0,1,100,96.959
1576765298.030446,218023.000,36801,1,H0,1,100,96.955
1576765298.166946,218138.000,36819,1,H0,1,100,96.962
1576765298.304633,218254.000,36837,1,H0,1,100,96.951
1576765298.432824,218362.000,36856,1,H0,1,100,96.947
1576765298.557455,218467.000,36874,1,H0,1,100,96.962
1576765298.693955,218582.000,36892,1,H0,1,100,96.966
1576765298.830455,218697.000,36909,1,H0,1,100,96.955
1576765298.956272,218803.000,36927,1,H0,1,100,96.951
1576765299.095146,218920.000,36945,1,H0,1,100,96.955
1576765299.234020,219037.000,36979,1,H0,1,100,96.951
1576765299.370520,219152.000,36998,1,H0,1,100,96.951
1576765299.510581,219270.000,37016,1,H0,1,100,96.951
1576765299.643521,219382.000,37037,1,H0,1,100,96.959
1576765299.766964,219486.000,37057,1,H0,1,100,96.955
1576765299.903464,219601.000,37075,1,H0,1,100,96.951
1576765300.039964,219716.000,37093,1,H0,1,100,96.947
1576765300.177651,219832.000,37111,1,H0,1,100,96.943
1576765300.305843,219940.000,37129,1,H0,1,100,96.951
1576765300.432847,220047.000,37148,1,H0,1,100,96.943
1576765300.564600,220158.000,37166,1,H0,1,100,96.947
1576765300.701100,220273.000,37183,1,H0,1,100,96.943
1576765300.838787,220389.000,37201,1,H0,1,100,96.947
1576765300.963417,220494.000,37235,1,H0,1,100,96.947
1576765301.093982,220604.000,37253,1,H0,1,100,96.947
1576765301.232857,220721.000,37271,1,H0,1,100,96.947
1576765301.369356,220836.000,37289,1,H0,1,100,96.940
1576765301.501109,220947.000,37308,1,H0,1,100,96.943
1576765301.629300,221055.000,37326,1,H0,1,100,96.947
1576765301.758678,221164.000,37344,1,H0,1,100,96.940
1576765301.897552,221281.000,37361,1,H0,1,100,96.947
1576765302.035239,221397.000,37379,1,H0,1,100,96.947
1576765302.161057,221503.000,37396,1,H0,1,100,96.943
1576765302.290435,221612.000,37431,1,H0,1,100,96.940
1576765302.426935,221727.000,37450,1,H0,1,100,96.943
1576765302.557501,221837.000,37468,1,H0,1,100,96.943
1576765302.696375,221954.000,37486,1,H0,1,100,96.947
1576765302.835249,222071.000,37504,1,H0,1,100,96.947
1576765302.970562,222185.000,37521,1,H0,1,100,96.943
1576765303.112997,222305.000,37539,1,H0,1,100,96.943
1576765303.250684,222421.000,37573,1,H0,1,100,96.940
1576765303.382436,222532.000,37592,1,H0,1,100,96.943
1576765303.510628,222640.000,37610,1,H0,1,100,96.940
1576765303.644753,222753.000,37628,1,H0,1,100,96.943
1576765303.778880,222866.000,37646,1,H0,1,100,96.936
1576765303.920128,222985.000,37664,1,H0,1,100,96.940
1576765304.047132,223092.000,37682,1,H0,1,100,96.932
1576765304.171763,223197.000,37699,1,H0,1,100,96.943
1576765304.308263,223312.000,37717,1,H0,1,100,96.940
1576765304.447137,223429.000,37752,1,H0,1,100,96.932
1576765304.581263,223542.000,37770,1,H0,1,100,96.936
1576765304.708267,223649.000,37788,1,H0,1,100,96.936
1576765304.840019,223760.000,37806,1,H0,1,100,96.932
1576765304.976520,223875.000,37824,1,H0,1,100,96.940
1576765305.113020,223990.000,37842,1,H0,1,100,96.932
1576765305.247146,224103.000,37859,1,H0,1,100,96.936
1576765305.371776,224208.000,37877,1,H0,1,100,96.932
1576765305.508276,224323.000,37896,1,H0,1,100,96.932
1576765305.644777,224438.000,37933,2,H0,1,100,96.936
1576765305.781277,224553.000,37933,2,H0,1,100,96.932
1576765305.909468,224661.000,37953,1,H0,1,100,96.932
1576765306.037659,224769.000,37970,1,H0,1,100,96.928
1576765306.169412,224880.000,37988,1,H0,1,100,96.932
1576765306.308286,224997.000,38022,1,H0,1,100,96.928
1576765306.445973,225113.000,38041,1,H0,1,100,96.932
1576765306.583660,225229.000,38059,1,H0,1,100,96.924
1576765306.724908,225348.000,38077,1,H0,1,100,96.924
1576765306.863782,225465.000,38095,1,H0,1,100,96.932
1576765307.001469,225581.000,38112,1,H0,1,100,96.932
1576765307.135595,225694.000,38130,1,H0,1,100,96.924
1576765307.262599,225801.000,38148,1,H0,1,100,96.932
1576765307.390791,225909.000,38183,1,H0,1,100,96.924
1576765307.529665,226026.000,38201,1,H0,1,100,96.928
1576765307.669726,226144.000,38219,1,H0,1,100,96.928
1576765307.796730,226251.000,38237,1,H0,1,100,96.932
1576765307.926108,226360.000,38255,1,H0,1,100,96.921
1576765308.060235,226473.000,38273,1,H0,1,100,96.924
1576765308.193174,226585.000,38290,1,H0,1,100,96.924
1576765308.333235,226703.000,38308,1,H0,1,100,96.921
1576765308.460239,226810.000,38326,1,H0,1,100,96.932
1576765308.588431,226918.000,38361,1,H0,1,100,96.924
1576765308.723744,227032.000,38379,1,H0,1,100,96.921
1576765308.863805,227150.000,38397,1,H0,1,100,96.928
1576765308.996744,227262.000,38415,1,H0,1,100,96.921
1576765309.121374,227367.000,38433,1,H0,1,100,96.928
1576765309.255501,227480.000,38451,1,H0,1,100,96.921
1576765309.393188,227596.000,38468,1,H0,1,100,96.928
1576765309.530875,227712.000,38487,1,H0,1,100,96.924
1576765309.660253,227821.000,38505,1,H0,1,100,96.921
1576765309.783697,227925.000,38539,1,H0,1,100,96.928
1576765309.922570,228042.000,38557,1,H0,1,100,96.924
1576765310.057884,228156.000,38575,1,H0,1,100,96.924
1576765310.194384,228271.000,38593,1,H0,1,100,96.928
1576765310.329697,228385.000,38611,1,H0,1,100,96.921
1576765310.463823,228498.000,38630,1,H0,1,100,96.924
1576765310.601510,228614.000,38647,1,H0,1,100,96.917
1576765310.727328,228720.000,38665,1,H0,1,100,96.921
1576765310.860267,228832.000,38699,1,H0,1,100,96.921
1576765310.984897,228937.000,38717,1,H0,1,100,96.928
1576765311.120210,229051.000,38735,1,H0,1,100,96.921
1576765311.256711,229166.000,38753,1,H0,1,100,96.909
1576765311.392024,229280.000,38771,1,H0,1,100,96.921
1576765311.522589,229390.000,38790,1,H0,1,100,96.921
1576765311.650780,229498.000,38808,1,H0,1,100,96.921
1576765311.781346,229608.000,38829,1,H0,1,100,96.917
1576765311.919033,229724.000,38849,1,H0,1,100,96.909
1576765312.059094,229842.000,38867,1,H0,1,100,96.909
1576765312.181350,229945.000,38885,1,H0,1,100,96.913
1576765312.311916,230055.000,38903,1,H0,1,100,96.913
1576765312.448416,230170.000,38922,1,H0,1,100,96.917
1576765312.584916,230285.000,38939,1,H0,1,100,96.917
1576765312.717855,230397.000,38957,1,H0,1,100,96.917
1576765312.844859,230504.000,38975,1,H0,1,100,96.917
1576765312.974238,230613.000,39009,1,H0,1,100,96.928
1576765313.109551,230727.000,39027,1,H0,1,100,96.917
1576765313.250799,230846.000,39045,1,H0,1,100,96.905
1576765313.378990,230954.000,39063,1,H0,1,100,96.909
1576765313.507181,231062.000,39082,1,H0,1,100,96.909
1576765313.638934,231173.000,39100,1,H0,1,100,96.905
1576765313.774247,231287.000,39117,1,H0,1,100,96.909
1576765313.911934,231403.000,39135,1,H0,1,100,96.905
1576765314.038938,231510.000,39153,1,H0,1,100,96.905
1576765314.171878,231622.000,39187,1,H0,1,100,96.905
1576765314.300069,231730.000,39205,1,H0,1,100,96.917
1576765314.437756,231846.000,39224,1,H0,1,100,96.901
1576765314.563574,231952.000,39242,1,H0,1,100,96.901
1576765314.700073,232067.000,39260,1,H0,1,100,96.901
1576765314.833013,232179.000,39278,1,H0,1,100,96.905
1576765314.967139,232292.000,39296,1,H0,1,100,96.901
1576765315.108387,232411.000,39313,1,H0,1,100,96.898
1576765315.238952,232521.000,39331,1,H0,1,100,96.901
1576765315.363583,232626.000,39349,1,H0,1,100,96.894
1576765315.500083,232741.000,39384,1,H0,1,100,96.901
1576765315.636583,232856.000,39402,1,H0,1,100,96.898
1576765315.771896,232970.000,39420,1,H0,1,100,96.901
1576765315.911957,233088.000,39438,1,H0,1,100,96.901
1576765316.044896,233200.000,39456,1,H0,1,100,96.905
1576765316.168340,233304.000,39474,1,H0,1,100,96.894
1576765316.302466,233417.000,39491,1,H0,1,100,96.901
1576765316.437779,233531.000,39510,1,H0,1,100,96.898
1576765316.571905,233644.000,39544,1,H0,1,100,96.901
1576765316.702471,233754.000,39562,1,H0,1,100,96.890
1576765316.831849,233863.000,39580,1,H0,1,100,96.898
1576765316.964788,233975.000,39598,1,H0,1,100,96.898
1576765317.100101,234089.000,39616,1,H0,1,100,96.898
1576765317.240162,234207.000,39634,1,H0,1,100,96.901
1576765317.364793,234312.000,39652,1,H0,1,100,96.890
1576765317.498919,234425.000,39670,1,H0,1,100,96.894
1576765317.633045,234538.000,39688,1,H0,1,100,96.898
1576765317.768952,234652.500,39725,2,H0,1,100,96.894
1576765317.904858,234767.000,39725,2,H0,1,100,96.901
1576765318.031863,234874.000,39744,1,H0,1,100,96.882
1576765318.161241,234983.000,39762,1,H0,1,100,96.890
1576765318.301302,235101.000,39780,1,H0,1,100,96.898
1576765318.440176,235218.000,39815,1,H0,1,100,96.890
1576765318.571928,235329.000,39833,1,H0,1,100,96.898
1576765318.710802,235446.000,39851,1,H0,1,100,96.890
1576765318.849676,235563.000,39869,1,H0,1,100,96.898
1576765318.979054,235672.000,39887,1,H0,1,100,96.894
1576765319.107246,235780.000,39905,1,H0,1,100,96.894
1576765319.243746,235895.000,39922,1,H0,1,100,96.886
1576765319.371937,236003.000,39940,1,H0,1,100,96.894
1576765319.510811,236120.000,39959,1,H0,1,100,96.894
1576765319.648499,236236.000,39993,1,H0,1,100,96.890
1576765319.780251,236347.000,40011,1,H0,1,100,96.890
1576765319.909629,236456.000,40029,1,H0,1,100,96.886
1576765320.040194,236566.000,40047,1,H0,1,100,96.886
1576765320.174320,236679.000,40065,1,H0,1,100,96.886
1576765320.313195,236796.000,40083,1,H0,1,100,96.890
1576765320.443760,236906.000,40101,1,H0,1,100,96.886
1576765320.569577,237012.000,40119,1,H0,1,100,96.890
1576765320.704890,237126.000,40137,1,H0,1,100,96.879
1576765320.844951,237244.000,40171,1,H0,1,100,96.882
1576765320.982638,237360.000,40189,1,H0,1,100,96.882
1576765321.107269,237465.000,40207,1,H0,1,100,96.875
1576765321.237834,237575.000,40225,1,H0,1,100,96.879
1576765321.375521,237691.000,40243,1,H0,1,100,96.879
1576765321.513208,237807.000,40262,1,H0,1,100,96.871
1576765321.647335,237920.000,40279,1,H0,1,100,96.886
1576765321.770778,238024.000,40297,1,H0,1,100,96.890
1576765321.906091,238138.000,40315,1,H0,1,100,96.879
1576765322.044965,238255.000,40349,1,H0,1,100,96.875
1576765322.179091,238368.000,40367,1,H0,1,100,96.879
1576765322.317965,238485.000,40385,1,H0,1,100,96.879
1576765322.455652,238601.000,40404,1,H0,1,100,96.875
1576765322.594526,238718.000,40422,1,H0,1,100,96.879
1576765322.727466,238830.000,40439,1,H0,1,100,96.879
1576765322.856844,238939.000,40457,1,H0,1,100,96.879
1576765322.983848,239046.000,40475,1,H0,1,100,96.875
1576765323.115601,239157.000,40509,1,H0,1,100,96.871
1576765323.250914,239271.000,40527,1,H0,1,100,96.875
1576765323.383853,239383.000,40546,1,H0,1,100,96.875
1576765323.520353,239498.000,40564,1,H0,1,100,96.875
1576765323.646171,239604.000,40582,1,H0,1,100,96.867
1576765323.773175,239711.000,40600,1,H0,1,100,96.871
1576765323.910862,239827.000,40621,1,H0,1,100,96.875
1576765324.052110,239946.000,40639,1,H0,1,100,96.871
1576765324.179114,240053.000,40659,1,H0,1,100,96.879
1576765324.308493,240162.000,40677,1,H0,1,100,96.867
1576765324.444993,240277.000,40696,1,H0,1,100,96.863
1576765324.581493,240392.000,40713,1,H0,1,100,96.863
1576765324.719180,240508.000,40731,1,H0,1,100,96.867
1576765324.846184,240615.000,40749,1,H0,1,100,96.879
1576765324.974376,240723.000,40766,1,H0,1,100,96.871
1576765325.113250,240840.000,40801,1,H0,1,100,96.867
1576765325.249750,240955.000,40819,1,H0,1,100,96.875
1576765325.383876,241068.000,40837,1,H0,1,100,96.863
1576765325.508507,241173.000,40856,1,H0,1,100,96.863
1576765325.639072,241283.000,40874,1,H0,1,100,96.867
1576765325.775572,241398.000,40892,1,H0,1,100,96.879
1576765325.914446,241515.000,40909,1,H0,1,100,96.863
1576765326.045011,241625.000,40927,1,H0,1,100,96.859
1576765326.181511,241740.000,40961,1,H0,1,100,96.867
1576765326.316824,241854.000,40979,1,H0,1,100,96.871
1576765326.447390,241964.000,40998,1,H0,1,100,96.859
1576765326.572020,242069.000,41016,1,H0,1,100,96.867
1576765326.709707,242185.000,41034,1,H0,1,100,96.863
1576765326.840272,242295.000,41052,1,H0,1,100,96.871
1576765326.973212,242407.000,41070,1,H0,1,100,96.863
1576765327.113273,242525.000,41087,1,H0,1,100,96.859
1576765327.248586,242639.000,41105,1,H0,1,100,96.859
1576765327.373216,242744.000,41140,1,H0,1,100,96.856
1576765327.507343,242857.000,41158,1,H0,1,100,96.859
1576765327.642656,242971.000,41176,1,H0,1,100,96.848
1576765327.776782,243084.000,41194,1,H0,1,100,96.859
1576765327.909721,243196.000,41212,1,H0,1,100,96.859
1576765328.036726,243303.000,41230,1,H0,1,100,96.859
1576765328.168478,243414.000,41248,1,H0,1,100,96.859
1576765328.303791,243528.000,41265,1,H0,1,100,96.848
1576765328.446226,243648.000,41283,1,H0,1,100,96.848
1576765328.570856,243753.000,41301,1,H0,1,100,96.856
1576765328.697861,243860.000,41336,1,H0,1,100,96.852
1576765328.835548,243976.000,41354,1,H0,1,100,96.852
1576765328.972048,244091.000,41372,1,H0,1,100,96.856
1576765329.107361,244205.000,41390,1,H0,1,100,96.848
1576765329.233178,244311.000,41408,1,H0,1,100,96.852
1576765329.361370,244419.000,41426,1,H0,1,100,96.852
1576765329.500244,244536.000,41444,1,H0,1,100,96.852
1576765329.636744,244651.000,41462,1,H0,1,100,96.852
1576765329.764935,244759.000,41480,1,H0,1,100,96.848
1576765329.897281,244870.500,41517,2,H0,1,100,96.844
1576765330.029627,244982.000,41517,2,H0,1,100,96.844
1576765330.160192,245092.000,41537,1,H0,1,100,96.852
1576765330.296692,245207.000,41554,1,H0,1,100,96.844
1576765330.421323,245312.000,41573,1,H0,1,100,96.848
1576765330.550701,245421.000,41591,1,H0,1,100,96.848
1576765330.688388,245537.000,41625,1,H0,1,100,96.848
1576765330.826075,245653.000,41643,1,H0,1,100,96.848
1576765330.961388,245767.000,41661,1,H0,1,100,96.844
1576765331.088392,245874.000,41679,1,H0,1,100,96.848
1576765331.220145,245985.000,41697,1,H0,1,100,96.848
1576765331.354271,246098.000,41715,1,H0,1,100,96.844
1576765331.491958,246214.000,41733,1,H0,1,100,96.848
1576765331.624897,246326.000,41751,1,H0,1,100,96.837
1576765331.747154,246429.000,41769,1,H0,1,100,96.840
1576765331.883654,246544.000,41803,1,H0,1,100,96.840
1576765332.020154,246659.000,41821,1,H0,1,100,96.844
1576765332.157841,246775.000,41839,1,H0,1,100,96.840
1576765332.283659,246881.000,41857,1,H0,1,100,96.844
1576765332.414224,246991.000,41876,1,H0,1,100,96.844
1576765332.548350,247104.000,41894,1,H0,1,100,96.837
1576765332.682476,247217.000,41911,1,H0,1,100,96.840
1576765332.821350,247334.000,41929,1,H0,1,100,96.840
1576765332.944794,247438.000,41947,1,H0,1,100,96.844
1576765333.077733,247550.000,41965,1,H0,1,100,96.844
1576765333.211859,247663.000,41999,1,H0,1,100,96.837
1576765333.348359,247778.000,42018,1,H0,1,100,96.837
1576765333.480111,247889.000,42036,1,H0,1,100,96.837
1576765333.609490,247998.000,42054,1,H0,1,100,96.837
1576765333.734120,248103.000,42072,1,H0,1,100,96.840
1576765333.863499,248212.000,42090,1,H0,1,100,96.840
1576765333.989316,248318.000,42108,1,H0,1,100,96.829
1576765334.123442,248431.000,42125,1,H0,1,100,96.829
1576765334.263503,248549.000,42143,1,H0,1,100,96.837
1576765334.398816,248663.000,42178,1,H0,1,100,96.837
1576765334.532943,248776.000,42196,1,H0,1,100,96.837
1576765334.670630,248892.000,42214,1,H0,1,100,96.837
1576765334.798821,249000.000,42232,1,H0,1,100,96.829
1576765334.930573,249111.000,42250,1,H0,1,100,96.833
1576765335.059952,249220.000,42268,1,H0,1,100,96.840
1576765335.194078,249333.000,42286,1,H0,1,100,96.833
1576765335.327017,249445.000,42303,1,H0,1,100,96.840
1576765335.468265,249564.000,42322,1,H0,1,100,96.837
1576765335.594082,249670.000,42340,1,H0,1,100,96.837
1576765335.719900,249776.000,42374,1,H0,1,100,96.833
1576765335.856400,249891.000,42392,1,H0,1,100,96.829
1576765335.992900,250006.000,42413,2,H0,1,100,96.825
1576765336.129400,250121.000,42413,2,H0,1,100,96.837
1576765336.254031,250226.000,42433,1,H0,1,100,96.829
1576765336.386970,250338.000,42468,1,H0,1,100,96.829
1576765336.524657,250454.000,42486,1,H0,1,100,96.833
1576765336.661157,250569.000,42504,1,H0,1,100,96.829
1576765336.792909,250680.000,42522,1,H0,1,100,96.825
1576765336.913979,250782.000,42540,1,H0,1,100,96.833
1576765337.051666,250898.000,42558,1,H0,1,100,96.833
1576765337.185792,251011.000,42576,1,H0,1,100,96.829
1576765337.323479,251127.000,42593,1,H0,1,100,96.833
1576765337.449296,251233.000,42612,1,H0,1,100,96.837
1576765337.582236,251345.000,42646,1,H0,1,100,96.818
1576765337.706866,251450.000,42664,1,H0,1,100,96.829
1576765337.844553,251566.000,42682,1,H0,1,100,96.821
1576765337.982240,251682.000,42700,1,H0,1,100,96.825
1576765338.116367,251795.000,42718,1,H0,1,100,96.821
1576765338.256428,251913.000,42736,1,H0,1,100,96.821
1576765338.392928,252028.000,42754,1,H0,1,100,96.821
1576765338.531802,252145.000,42772,1,H0,1,100,96.818
1576765338.664741,252257.000,42806,1,H0,1,100,96.814
1576765338.792932,252365.000,42824,1,H0,1,100,96.821
1576765338.923497,252475.000,42842,1,H0,1,100,96.825
1576765339.062371,252592.000,42860,1,H0,1,100,96.814
1576765339.202432,252710.000,42878,1,H0,1,100,96.814
1576765339.325876,252814.000,42896,1,H0,1,100,96.821
1576765339.456441,252924.000,42915,1,H0,1,100,96.814
1576765339.591754,253038.000,42932,1,H0,1,100,96.814
1576765339.724694,253150.000,42950,1,H0,1,100,96.814
1576765339.863568,253267.000,42984,1,H0,1,100,96.814
1576765339.990572,253374.000,43002,1,H0,1,100,96.818
1576765340.121137,253484.000,43020,1,H0,1,100,96.810
1576765340.256450,253598.000,43038,1,H0,1,100,96.814
1576765340.396512,253716.000,43057,1,H0,1,100,96.810
1576765340.527077,253826.000,43075,1,H0,1,100,96.806
1576765340.655268,253934.000,43093,1,H0,1,100,96.810
1576765340.788207,254046.000,43110,1,H0,1,100,96.814
1576765340.924707,254161.000,43128,1,H0,1,100,96.810
1576765341.062395,254277.000,43162,1,H0,1,100,96.806
1576765341.190586,254385.000,43180,1,H0,1,100,96.806
1576765341.314029,254489.000,43199,1,H0,1,100,96.810
1576765341.452904,254606.000,43217,1,H0,1,100,96.806
1576765341.591778,254723.000,43235,1,H0,1,100,96.818
1576765341.728277,254838.000,43253,1,H0,1,100,96.810
1576765341.870713,254958.000,43270,1,H0,1,100,96.814
1576765342.009586,255075.000,43288,1,H0,1,100,96.810
1576765342.146086,255190.000,43309,1,H0,1,100,96.806
1576765342.286147,255308.000,43328,1,H0,1,100,96.802
1576765342.419087,255420.000,43347,1,H0,1,100,96.814
1576765342.542530,255524.000,43365,1,H0,1,100,96.810
1576765342.679030,255639.000,43383,1,H0,1,100,96.806
1576765342.815530,255754.000,43417,1,H0,1,100,96.806
1576765342.953218,255870.000,43435,1,H0,1,100,96.798
1576765343.081409,255978.000,43453,1,H0,1,100,96.795
1576765343.210787,256087.000,43471,1,H0,1,100,96.806
1576765343.340166,256196.000,43489,1,H0,1,100,96.802
1576765343.476665,256311.000,43508,1,H0,1,100,96.810
1576765343.614353,256427.000,43525,1,H0,1,100,96.798
1576765343.740170,256533.000,43543,1,H0,1,100,96.795
1576765343.870735,256643.000,43561,1,H0,1,100,96.806
1576765344.009609,256760.000,43595,1,H0,1,100,96.810
1576765344.146110,256875.000,43613,1,H0,1,100,96.798
1576765344.277862,256986.000,43631,1,H0,1,100,96.810
1576765344.406053,257094.000,43650,1,H0,1,100,96.810
1576765344.536618,257204.000,43668,1,H0,1,100,96.806
1576765344.675493,257321.000,43686,1,H0,1,100,96.806
1576765344.813179,257437.000,43703,1,H0,1,100,96.802
1576765344.938997,257543.000,43721,1,H0,1,100,96.810
1576765345.068375,257652.000,43739,1,H0,1,100,96.798
1576765345.201314,257764.000,43773,1,H0,1,100,96.818
1576765345.336628,257878.000,43792,1,H0,1,100,96.806
1576765345.479063,257998.000,43810,1,H0,1,100,96.795
1576765345.617937,258115.000,43828,1,H0,1,100,96.806
1576765345.754436,258230.000,43846,1,H0,1,100,96.810
1576765345.895684,258349.000,43863,1,H0,1,100,96.806
1576765346.029811,258462.000,43881,1,H0,1,100,96.810
1576765346.163937,258575.000,43915,1,H0,1,100,96.806
1576765346.292128,258683.000,43933,1,H0,1,100,96.798
1576765346.426255,258796.000,43952,1,H0,1,100,96.802
1576765346.560380,258909.000,43970,1,H0,1,100,96.810
1576765346.702816,259029.000,43988,1,H0,1,100,96.802
1576765346.840503,259145.000,44006,1,H0,1,100,96.802
1576765346.975816,259259.000,44023,1,H0,1,100,96.806
1576765347.102820,259366.000,44041,1,H0,1,100,96.795
1576765347.233385,259476.000,44059,1,H0,1,100,96.818
1576765347.367512,259589.000,44094,1,H0,1,100,96.806
1576765347.506386,259706.000,44112,1,H0,1,100,96.802
1576765347.636951,259816.000,44130,1,H0,1,100,96.798
1576765347.760394,259920.000,44148,1,H0,1,100,96.798
1576765347.896894,260035.000,44166,1,H0,1,100,96.798
1576765348.035769,260152.000,44184,1,H0,1,100,96.806
1576765348.173455,260268.000,44205,1,H0,1,100,96.802
1576765348.299273,260374.000,44225,1,H0,1,100,96.802
1576765348.429838,260484.000,44244,1,H0,1,100,96.802
1576765348.563964,260597.000,44262,1,H0,1,100,96.806
1576765348.701652,260713.000,44280,1,H0,1,100,96.795
1576765348.836965,260827.000,44297,1,H0,1,100,96.802
1576765348.960408,260931.000,44315,1,H0,1,100,96.802
1576765349.093347,261043.000,44333,1,H0,1,100,96.798
1576765349.227473,261156.000,44367,1,H0,1,100,96.798
1576765349.363974,261271.000,44386,1,H0,1,100,96.802
1576765349.505222,261390.000,44404,1,H0,1,100,96.798
1576765349.639348,261503.000,44422,1,H0,1,100,96.798
1576765349.766352,261610.000,44440,1,H0,1,100,96.810
1576765349.895730,261719.000,44458,1,H0,1,100,96.802
1576765350.023922,261827.000,44476,1,H0,1,100,96.802
1576765350.152113,261935.000,44493,1,H0,1,100,96.802
1576765350.292174,262053.000,44511,1,H0,1,100,96.798
1576765350.427487,262167.000,44546,1,H0,1,100,96.802
1576765350.561614,262280.000,44564,1,H0,1,100,96.798
1576765350.699301,262396.000,44582,1,H0,1,100,96.802
1576765350.826305,262503.000,44600,1,H0,1,100,96.795
1576765350.954496,262611.000,44618,1,H0,1,100,96.798
1576765351.090997,262726.000,44636,1,H0,1,100,96.806
1576765351.228683,262842.000,44654,1,H0,1,100,96.802
1576765351.358062,262951.000,44671,1,H0,1,100,96.798
1576765351.486253,263059.000,44690,1,H0,1,100,96.798
1576765351.619192,263171.000,44708,1,H0,1,100,96.798
1576765351.756880,263287.000,44742,1,H0,1,100,96.798
1576765351.894567,263403.000,44760,1,H0,1,100,96.798
1576765352.022758,263511.000,44778,1,H0,1,100,96.795
1576765352.149762,263618.000,44796,1,H0,1,100,96.802
1576765352.285075,263732.000,44814,1,H0,1,100,96.795
1576765352.425136,263850.000,44833,1,H0,1,100,96.795
1576765352.559263,263963.000,44850,1,H0,1,100,96.795
1576765352.683893,264068.000,44868,1,H0,1,100,96.795
1576765352.814458,264178.000,44886,1,H0,1,100,96.795
1576765352.950958,264293.000,44920,1,H0,1,100,96.802
1576765353.088645,264409.000,44938,1,H0,1,100,96.798
1576765353.223959,264523.000,44956,1,H0,1,100,96.802
1576765353.361646,264639.000,44974,1,H0,1,100,96.798
1576765353.485089,264743.000,44993,1,H0,1,100,96.795
1576765353.618028,264855.000,45011,1,H0,1,100,96.802
1576765353.742659,264960.000,45029,1,H0,1,100,96.795
1576765353.876785,265073.000,45046,1,H0,1,100,96.795
1576765354.007350,265183.000,45064,1,H0,1,100,96.783
1576765354.137916,265293.000,45082,1,H0,1,100,96.791
1576765354.276790,265410.000,45103,1,H0,1,100,96.795
1576765354.414477,265526.000,45124,1,H0,1,100,96.795
1576765354.539107,265631.000,45141,1,H0,1,100,96.795
1576765354.672047,265743.000,45159,1,H0,1,100,96.791
1576765354.808547,265858.000,45177,1,H0,1,100,96.795
1576765354.942673,265971.000,45211,1,H0,1,100,96.798
1576765355.076799,266084.000,45229,1,H0,1,100,96.798
1576765355.203803,266191.000,45247,1,H0,1,100,96.791
1576765355.330808,266298.000,45266,1,H0,1,100,96.783
1576765355.468495,266414.000,45284,1,H0,1,100,96.795
1576765355.609743,266533.000,45302,1,H0,1,100,96.798
1576765355.736747,266640.000,45320,1,H0,1,100,96.798
1576765355.862565,266746.000,45337,1,H0,1,100,96.795
1576765356.000252,266862.000,45355,1,H0,1,100,96.795
1576765356.136752,266977.000,45389,1,H0,1,100,96.791
1576765356.273252,267092.000,45407,1,H0,1,100,96.795
1576765356.400256,267199.000,45426,1,H0,1,100,96.798
1576765356.524887,267304.000,45444,1,H0,1,100,96.795
1576765356.662574,267420.000,45462,1,H0,1,100,96.787
1576765356.797887,267534.000,45480,1,H0,1,100,96.795
1576765356.929639,267645.000,45498,1,H0,1,100,96.787
1576765357.054270,267750.000,45515,1,H0,1,100,96.787
1576765357.191957,267866.000,45533,1,H0,1,100,96.783
1576765357.317774,267972.000,45551,1,H0,1,100,96.787
1576765357.454274,268087.000,45586,1,H0,1,100,96.802
1576765357.590775,268202.000,45604,1,H0,1,100,96.787
1576765357.716592,268308.000,45622,1,H0,1,100,96.783
1576765357.856653,268426.000,45640,1,H0,1,100,96.787
1576765357.994340,268542.000,45658,1,H0,1,100,96.787
1576765358.130840,268657.000,45676,1,H0,1,100,96.802
1576765358.257844,268764.000,45693,1,H0,1,100,96.791
1576765358.389597,268875.000,45712,1,H0,1,100,96.791
1576765358.522536,268987.000,45730,1,H0,1,100,96.787
1576765358.663784,269106.000,45764,1,H0,1,100,96.795
1576765358.800284,269221.000,45782,1,H0,1,100,96.787
1576765358.936784,269336.000,45800,1,H0,1,100,96.791
1576765359.064976,269444.000,45818,1,H0,1,100,96.795
1576765359.193167,269552.000,45836,1,H0,1,100,96.795
1576765359.324919,269663.000,45854,1,H0,1,100,96.802
1576765359.461419,269778.000,45872,1,H0,1,100,96.795
1576765359.596732,269892.000,45890,1,H0,1,100,96.791
1576765359.722550,269998.000,45908,1,H0,1,100,96.787
1576765359.853115,270108.000,45942,1,H0,1,100,96.787
1576765359.991989,270225.000,45960,1,H0,1,100,96.787
1576765360.128489,270340.000,45978,1,H0,1,100,96.795
1576765360.257868,270449.000,45999,2,H0,1,100,96.791
1576765360.387246,270558.000,45999,2,H0,1,100,96.791
1576765360.522559,270672.000,46036,1,H0,1,100,96.791
1576765360.661433,270789.000,46054,1,H0,1,100,96.787
1576765360.800307,270906.000,46072,1,H0,1,100,96.783
1576765360.924937,271011.000,46090,1,H0,1,100,96.795
1576765361.054316,271120.000,46108,1,H0,1,100,96.783
1576765361.190816,271235.000,46126,1,H0,1,100,96.787
1576765361.322568,271346.000,46143,1,H0,1,100,96.791
1576765361.461442,271463.000,46162,1,H0,1,100,96.791
1576765361.595568,271576.000,46196,1,H0,1,100,96.783
1576765361.733255,271692.000,46214,1,H0,1,100,96.787
1576765361.873316,271810.000,46232,1,H0,1,100,96.783
1576765362.000321,271917.000,46250,1,H0,1,100,96.791
1576765362.126138,272023.000,46268,1,H0,1,100,96.791
1576765362.265012,272140.000,46286,1,H0,1,100,96.787
1576765362.399138,272253.000,46304,1,H0,1,100,96.783
1576765362.533265,272366.000,46322,1,H0,1,100,96.783
1576765362.674512,272485.000,46356,1,H0,1,100,96.795
1576765362.802704,272593.000,46374,1,H0,1,100,96.787
1576765362.927334,272698.000,46392,1,H0,1,100,96.791
1576765363.063834,272813.000,46410,1,H0,1,100,96.787
1576765363.200335,272928.000,46428,1,H0,1,100,96.791
1576765363.334461,273041.000,46446,1,H0,1,100,96.787
1576765363.461465,273148.000,46465,1,H0,1,100,96.787
1576765363.594404,273260.000,46483,1,H0,1,100,96.791
1576765363.732091,273376.000,46500,1,H0,1,100,96.787
1576765363.867404,273490.000,46518,1,H0,1,100,96.787
1576765364.001531,273603.000,46552,1,H0,1,100,96.791
1576765364.126161,273708.000,46570,1,H0,1,100,96.791
1576765364.265035,273825.000,46588,1,H0,1,100,96.783
1576765364.400348,273939.000,46607,1,H0,1,100,96.783
1576765364.538035,274055.000,46625,1,H0,1,100,96.795
1576765364.665040,274162.000,46643,1,H0,1,100,96.787
1576765364.793231,274270.000,46661,1,H0,1,100,96.783
1576765364.924984,274381.000,46678,1,H0,1,100,96.791
1576765365.063858,274498.000,46696,1,H0,1,100,96.787
1576765365.201545,274614.000,46730,1,H0,1,100,96.791
1576765365.339231,274730.000,46749,1,H0,1,100,96.776
1576765365.479292,274848.000,46767,1,H0,1,100,96.787
1576765365.618166,274965.000,46785,1,H0,1,100,96.783
1576765365.742797,275070.000,46803,1,H0,1,100,96.787
1576765365.874549,275181.000,46820,1,H0,1,100,96.791
1576765366.002741,275289.000,46838,1,H0,1,100,96.791
1576765366.130932,275397.000,46856,1,H0,1,100,96.787
1576765366.269806,275514.000,46893,2,H0,1,100,96.787
1576765366.408680,275631.000,46893,2,H0,1,100,96.779
1576765366.535684,275738.000,46914,1,H0,1,100,96.787
1576765366.665063,275847.000,46931,1,H0,1,100,96.783
1576765366.799189,275960.000,46949,1,H0,1,100,96.783
1576765366.933315,276073.000,46967,1,H0,1,100,96.783
1576765367.072189,276190.000,47001,1,H0,1,100,96.783
1576765367.199193,276297.000,47019,1,H0,1,100,96.779
1576765367.327385,276405.000,47038,1,H0,1,100,96.779
1576765367.461511,276518.000,47056,1,H0,1,100,96.787
1576765367.601572,276636.000,47074,1,H0,1,100,96.783
1576765367.734511,276748.000,47092,1,H0,1,100,96.779
1576765367.860329,276854.000,47109,1,H0,1,100,96.779
1576765367.995642,276968.000,47127,1,H0,1,100,96.779
1576765368.133329,277084.000,47145,1,H0,1,100,96.772
1576765368.271016,277200.000,47179,1,H0,1,100,96.779
1576765368.399207,277308.000,47198,1,H0,1,100,96.783
1576765368.522651,277412.000,47216,1,H0,1,100,96.783
1576765368.661525,277529.000,47234,1,H0,1,100,96.776
1576765368.796838,277643.000,47252,1,H0,1,100,96.772
1576765368.933338,277758.000,47270,1,H0,1,100,96.772
1576765369.068651,277872.000,47287,1,H0,1,100,96.776
1576765369.200403,277983.000,47305,1,H0,1,100,96.779
1576765369.338091,278099.000,47340,1,H0,1,100,96.772
1576765369.472217,278212.000,47358,1,H0,1,100,96.776
1576765369.602782,278322.000,47376,1,H0,1,100,96.772
1576765369.727412,278427.000,47394,1,H0,1,100,96.776
1576765369.862726,278541.000,47412,1,H0,1,100,96.779
1576765369.999226,278656.000,47430,1,H0,1,100,96.776
1576765370.135726,278771.000,47448,1,H0,1,100,96.776
1576765370.266291,278881.000,47465,1,H0,1,100,96.772
1576765370.398043,278992.000,47484,1,H0,1,100,96.779
1576765370.525048,279099.000,47502,1,H0,1,100,96.772
1576765370.657987,279211.000,47536,1,H0,1,100,96.779
1576765370.793300,279325.000,47554,1,H0,1,100,96.776
1576765370.927426,279438.000,47572,1,H0,1,100,96.772
1576765371.061553,279551.000,47590,1,H0,1,100,96.768
1576765371.187370,279657.000,47608,1,H0,1,100,96.776
1576765371.316748,279766.000,47626,1,H0,1,100,96.768
1576765371.454435,279882.000,47644,1,H0,1,100,96.776
1576765371.595683,280001.000,47662,1,H0,1,100,96.776
1576765371.721501,280107.000,47680,1,H0,1,100,96.776
1576765371.847318,280213.000,47698,1,H0,1,100,96.776
1576765371.985005,280329.000,47732,1,H0,1,100,96.772
1576765372.121505,280444.000,47750,1,H0,1,100,96.768
1576765372.256819,280558.000,47768,1,H0,1,100,96.772
1576765372.383229,280664.500,47790,2,H0,1,100,96.772
1576765372.509640,280771.000,47790,2,H0,1,100,96.768
1576765372.647327,280887.000,47826,1,H0,1,100,96.772
1576765372.782640,281001.000,47844,1,H0,1,100,96.764
1576765372.913206,281111.000,47862,1,H0,1,100,96.776
1576765373.048519,281225.000,47880,1,H0,1,100,96.768
1576765373.176710,281333.000,47898,1,H0,1,100,96.768
1576765373.307276,281443.000,47916,1,H0,1,100,96.772
1576765373.436654,281552.000,47935,1,H0,1,100,96.772
1576765373.568406,281663.000,47952,1,H0,1,100,96.776
1576765373.702533,281776.000,47970,1,H0,1,100,96.776
1576765373.842593,281894.000,48004,1,H0,1,100,96.768
1576765373.971972,282003.000,48022,1,H0,1,100,96.760
1576765374.110846,282120.000,48040,1,H0,1,100,96.764
1576765374.237850,282227.000,48058,1,H0,1,100,96.764
1576765374.369602,282338.000,48077,1,H0,1,100,96.764
1576765374.502542,282450.000,48095,1,H0,1,100,96.768
1576765374.640229,282566.000,48112,1,H0,1,100,96.768
1576765374.773168,282678.000,48130,1,H0,1,100,96.768
1576765374.896611,282782.000,48148,1,H0,1,100,96.760
1576765375.031924,282896.000,48166,1,H0,1,100,96.760
1576765375.168425,283011.000,48200,1,H0,1,100,96.768
1576765375.306112,283127.000,48219,1,H0,1,100,96.757
1576765375.433116,283234.000,48237,1,H0,1,100,96.764
1576765375.562495,283343.000,48255,1,H0,1,100,96.764
1576765375.695434,283455.000,48273,1,H0,1,100,96.772
1576765375.830747,283569.000,48291,1,H0,1,100,96.764
1576765375.970808,283687.000,48308,1,H0,1,100,96.764
1576765376.094251,283791.000,48326,1,H0,1,100,96.760
1576765376.226004,283902.000,48344,1,H0,1,100,96.764
1576765376.360130,284015.000,48379,1,H0,1,100,96.772
1576765376.496630,284130.000,48397,1,H0,1,100,96.764
1576765376.629569,284242.000,48415,1,H0,1,100,96.764
1576765376.758947,284351.000,48433,1,H0,1,100,96.760
1576765376.884765,284457.000,48451,1,H0,1,100,96.764
1576765377.015330,284567.000,48469,1,H0,1,100,96.764
1576765377.154204,284684.000,48487,1,H0,1,100,96.760
1576765377.285956,284795.000,48504,1,H0,1,100,96.757
1576765377.426017,284913.000,48523,1,H0,1,100,96.760
1576765377.562517,285028.000,48557,1,H0,1,100,96.764
1576765377.696644,285141.000,48575,1,H0,1,100,96.757
1576765377.835518,285258.000,48593,1,H0,1,100,96.764
1576765377.962522,285365.000,48611,1,H0,1,100,96.757
1576765378.088340,285471.000,48629,1,H0,1,100,96.757
1576765378.226027,285587.000,48647,1,H0,1,100,96.757
1576765378.364901,285704.000,48665,1,H0,1,100,96.760
1576765378.501401,285819.000,48686,1,H0,1,100,96.753
1576765378.642649,285938.000,48706,1,H0,1,100,96.757
1576765378.769653,286045.000,48724,1,H0,1,100,96.753
1576765378.894284,286150.000,48742,1,H0,1,100,96.760
1576765379.030784,286265.000,48759,1,H0,1,100,96.757
1576765379.167284,286380.000,48777,1,H0,1,100,96.768
1576765379.303784,286495.000,48812,1,H0,1,100,96.760
1576765379.429601,286601.000,48830,1,H0,1,100,96.757
1576765379.562541,286713.000,48848,1,H0,1,100,96.757
1576765379.700227,286829.000,48866,1,H0,1,100,96.749
1576765379.836728,286944.000,48884,1,H0,1,100,96.760
1576765379.969667,287056.000,48902,1,H0,1,100,96.757
1576765380.094297,287161.000,48920,1,H0,1,100,96.764
1576765380.233171,287278.000,48937,1,H0,1,100,96.760
1576765380.367297,287391.000,48956,1,H0,1,100,96.764
1576765380.504985,287507.000,48990,1,H0,1,100,96.757
1576765380.631989,287614.000,49008,1,H0,1,100,96.760
1576765380.761367,287723.000,49026,1,H0,1,100,96.753
1576765380.895494,287836.000,49044,1,H0,1,100,96.753
1576765381.037928,287956.000,49062,1,H0,1,100,96.749
1576765381.176802,288073.000,49080,1,H0,1,100,96.757
1576765381.310929,288186.000,49097,1,H0,1,100,96.757
1576765381.450989,288304.000,49116,1,H0,1,100,96.757
1576765381.589864,288421.000,49150,1,H0,1,100,96.757
1576765381.714494,288526.000,49168,1,H0,1,100,96.757
1576765381.848620,288639.000,49186,1,H0,1,100,96.749
1576765381.987494,288756.000,49204,1,H0,1,100,96.757
1576765382.119246,288867.000,49222,1,H0,1,100,96.757
1576765382.258121,288984.000,49240,1,H0,1,100,96.760
1576765382.396994,289101.000,49258,1,H0,1,100,96.745
1576765382.521625,289206.000,49276,1,H0,1,100,96.749
1576765382.652190,289316.000,49294,1,H0,1,100,96.753
1576765382.786316,289429.000,49328,1,H0,1,100,96.753
1576765382.920443,289542.000,49346,1,H0,1,100,96.753
1576765383.059317,289659.000,49364,1,H0,1,100,96.753
1576765383.187508,289767.000,49382,1,H0,1,100,96.760
1576765383.316886,289876.000,49400,1,H0,1,100,96.753
1576765383.451012,289989.000,49419,1,H0,1,100,96.753
1576765383.591074,290107.000,49436,1,H0,1,100,96.741
1576765383.722826,290218.000,49454,1,H0,1,100,96.753
1576765383.848643,290324.000,49472,1,H0,1,100,96.745
1576765383.983956,290438.000,49506,1,H0,1,100,96.753
1576765384.120456,290553.000,49524,1,H0,1,100,96.741
1576765384.258143,290669.000,49542,1,H0,1,100,96.749
1576765384.386335,290777.000,49561,1,H0,1,100,96.741
1576765384.517493,290887.500,49582,2,H0,1,100,96.745
1576765384.648652,290998.000,49582,2,H0,1,100,96.745
1576765384.787526,291115.000,49619,1,H0,1,100,96.737
1576765384.924026,291230.000,49637,1,H0,1,100,96.741
1576765385.066461,291350.000,49655,1,H0,1,100,96.741
1576765385.204148,291466.000,49673,1,H0,1,100,96.745
1576765385.340648,291581.000,49690,1,H0,1,100,96.745
1576765385.475962,291695.000,49709,1,H0,1,100,96.741
1576765385.610088,291808.000,49743,1,H0,1,100,96.757
1576765385.734718,291913.000,49761,1,H0,1,100,96.741
1576765385.870031,292027.000,49779,1,H0,1,100,96.753
1576765386.006531,292142.000,49797,1,H0,1,100,96.753
1576765386.144218,292258.000,49815,1,H0,1,100,96.745
1576765386.273597,292367.000,49833,1,H0,1,100,96.753
1576765386.400601,292474.000,49852,1,H0,1,100,96.734
1576765386.531167,292584.000,49869,1,H0,1,100,96.741
1576765386.668854,292700.000,49887,1,H0,1,100,96.745
1576765386.807728,292817.000,49921,1,H0,1,100,96.741
1576765386.929984,292920.000,49939,1,H0,1,100,96.741
1576765387.060549,293030.000,49957,1,H0,1,100,96.741
1576765387.199424,293147.000,49975,1,H0,1,100,96.741
1576765387.335924,293262.000,49993,1,H0,1,100,96.745
1576765387.468863,293374.000,50012,1,H0,1,100,96.745
1576765387.597054,293482.000,50030,1,H0,1,100,96.737
1576765387.727619,293592.000,50047,1,H0,1,100,96.726
1576765387.866493,293709.000,50065,1,H0,1,100,96.730
1576765388.004181,293825.000,50099,1,H0,1,100,96.741
1576765388.131185,293932.000,50117,1,H0,1,100,96.730
1576765388.260563,294041.000,50135,1,H0,1,100,96.734
1576765388.393502,294153.000,50154,1,H0,1,100,96.741
1576765388.528816,294267.000,50172,1,H0,1,100,96.737
1576765388.671251,294387.000,50190,1,H0,1,100,96.737
1576765388.810125,294504.000,50207,1,H0,1,100,96.734
1576765388.945438,294618.000,50225,1,H0,1,100,96.734
1576765389.087873,294738.000,50259,1,H0,1,100,96.741
1576765389.221999,294851.000,50277,1,H0,1,100,96.745
1576765389.354938,294963.000,50296,1,H0,1,100,96.745
1576765389.483129,295071.000,50314,1,H0,1,100,96.734
1576765389.616069,295183.000,50332,1,H0,1,100,96.734
1576765389.750195,295296.000,50350,1,H0,1,100,96.734
1576765389.891443,295415.000,50367,1,H0,1,100,96.734
1576765390.020821,295524.000,50385,1,H0,1,100,96.734
1576765390.144264,295628.000,50403,1,H0,1,100,96.734
1576765390.281952,295744.000,50437,1,H0,1,100,96.730
1576765390.420825,295861.000,50456,1,H0,1,100,96.730
1576765390.551391,295971.000,50477,2,H0,1,100,96.734
1576765390.681956,296081.000,50477,2,H0,1,100,96.737
1576765390.813708,296192.000,50497,1,H0,1,100,96.734
1576765390.949022,296306.000,50531,1,H0,1,100,96.734
1576765391.084335,296420.000,50549,1,H0,1,100,96.730
1576765391.219648,296534.000,50567,1,H0,1,100,96.726
1576765391.344278,296639.000,50586,1,H0,1,100,96.726
1576765391.477217,296751.000,50604,1,H0,1,100,96.726
1576765391.616091,296868.000,50622,1,H0,1,100,96.726
1576765391.753779,296984.000,50639,1,H0,1,100,96.726
1576765391.883157,297093.000,50657,1,H0,1,100,96.722
1576765392.010161,297200.000,50675,1,H0,1,100,96.726
1576765392.141914,297311.000,50693,1,H0,1,100,96.726
1576765392.280788,297428.000,50727,1,H0,1,100,96.730
1576765392.419662,297545.000,50746,1,H0,1,100,96.730
1576765392.557349,297661.000,50764,1,H0,1,100,96.722
1576765392.699784,297781.000,50782,1,H0,1,100,96.726
1576765392.839844,297899.000,50799,1,H0,1,100,96.730
1576765392.977531,298015.000,50817,1,H0,1,100,96.726
1576765393.111658,298128.000,50851,1,H0,1,100,96.726
1576765393.238662,298235.000,50869,1,H0,1,100,96.718
1576765393.368041,298344.000,50888,1,H0,1,100,96.730
1576765393.508101,298462.000,50906,1,H0,1,100,96.730
1576765393.643414,298576.000,50924,1,H0,1,100,96.730
1576765393.777541,298689.000,50942,1,H0,1,100,96.734
1576765393.916415,298806.000,50959,1,H0,1,100,96.726
1576765394.043419,298913.000,50977,1,H0,1,100,96.718
1576765394.170424,299020.000,50995,1,H0,1,100,96.726
1576765394.306924,299135.000,51029,1,H0,1,100,96.726
1576765394.445798,299252.000,51048,1,H0,1,100,96.730
1576765394.575176,299361.000,51066,1,H0,1,100,96.715
1576765394.703367,299469.000,51084,1,H0,1,100,96.715
1576765394.836307,299581.000,51102,1,H0,1,100,96.722
