EpochTimestamp,EmotiBitTimestamp,PacketNumber,DataLength,TypeTag,ProtocolVersion,DataReliability,PI
1576765737.445271,22244.000,3194,6,PI,1,100,156889
1576765737.445271,22244.000,3194,6,PI,1,100,156051
1576765737.445271,22244.000,3194,6,PI,1,100,155850
1576765737.445271,22244.000,3194,6,PI,1,100,155727
1576765737.445271,22244.000,3194,6,PI,1,100,155652
1576765737.445271,22244.000,3194,6,PI,1,100,155692
1576765737.484510,22277.000,3212,3,PI,1,100,155737
1576765737.523749,22310.000,3212,3,PI,1,100,155736
1576765737.562988,22343.000,3212,3,PI,1,100,155734
1576765737.603416,22377.000,3231,3,PI,1,100,155764
1576765737.643844,22411.000,3231,3,PI,1,100,155828
1576765737.684272,22445.000,3231,3,PI,1,100,155911
1576765737.725889,22480.000,3248,3,PI,1,100,156007
1576765737.767506,22515.000,3248,3,PI,1,100,156161
1576765737.809123,22550.000,3248,3,PI,1,100,156312
1576765737.849948,22584.333,3266,3,PI,1,100,156411
1576765737.890772,22618.667,3266,3,PI,1,100,156432
1576765737.931597,22653.000,3266,3,PI,1,100,156522
1576765737.969646,22685.000,3282,3,PI,1,100,156656
1576765738.007696,22717.000,3282,3,PI,1,100,156814
1576765738.045746,22749.000,3282,3,PI,1,100,156902
1576765738.084193,22781.333,3300,3,PI,1,100,156969
1576765738.122639,22813.667,3300,3,PI,1,100,157076
1576765738.161085,22846.000,3300,3,PI,1,100,157173
1576765738.201117,22879.667,3318,3,PI,1,100,157273
1576765738.241149,22913.333,3318,3,PI,1,100,157178
1576765738.281180,22947.000,3318,3,PI,1,100,156818
1576765738.322401,22981.667,3336,3,PI,1,100,156462
1576765738.363622,23016.333,3336,3,PI,1,100,156263
1576765738.404843,23051.000,3336,3,PI,1,100,156159
1576765738.445667,23085.333,3354,3,PI,1,100,156083
1576765738.486492,23119.667,3354,3,PI,1,100,156126
1576765738.527316,23154.000,3354,3,PI,1,100,156206
1576765738.565762,23186.333,3372,3,PI,1,100,156253
1576765738.604209,23218.667,3372,3,PI,1,100,156250
1576765738.642655,23251.000,3372,3,PI,1,100,156259
1576765738.685065,23286.667,3391,3,PI,1,100,156318
1576765738.727475,23322.333,3391,3,PI,1,100,156411
1576765738.769884,23358.000,3391,3,PI,1,100,156499
1576765738.809916,23391.667,3409,3,PI,1,100,156600
1576765738.849948,23425.333,3409,3,PI,1,100,156684
1576765738.889980,23459.000,3409,3,PI,1,100,156769
1576765738.931200,23493.667,3427,3,PI,1,100,156861
1576765738.972421,23528.333,3427,3,PI,1,100,156909
1576765739.013642,23563.000,3427,3,PI,1,100,156968
1576765739.055259,23598.000,3444,2,PI,1,100,157102
1576765739.096876,23633.000,3444,2,PI,1,100,157246
1576765739.137007,23666.750,3462,4,PI,1,100,157352
1576765739.177138,23700.500,3462,4,PI,1,100,157392
1576765739.217268,23734.250,3462,4,PI,1,100,157406
1576765739.257399,23768.000,3462,4,PI,1,100,157273
1576765739.295449,23800.000,3478,3,PI,1,100,156933
1576765739.333499,23832.000,3478,3,PI,1,100,156653
1576765739.371549,23864.000,3478,3,PI,1,100,156496
1576765739.411581,23897.667,3496,3,PI,1,100,156415
1576765739.451613,23931.333,3496,3,PI,1,100,156411
1576765739.491644,23965.000,3496,3,PI,1,100,156462
1576765739.530487,23997.667,3514,3,PI,1,100,156520
1576765739.569330,24030.333,3514,3,PI,1,100,156516
1576765739.608172,24063.000,3514,3,PI,1,100,156508
1576765739.649393,24097.667,3533,3,PI,1,100,156554
1576765739.690614,24132.333,3533,3,PI,1,100,156621
1576765739.731835,24167.000,3533,3,PI,1,100,156703
1576765739.770677,24199.667,3551,3,PI,1,100,156800
1576765739.809520,24232.333,3551,3,PI,1,100,156904
1576765739.848362,24265.000,3551,3,PI,1,100,157013
1576765739.886412,24297.000,3569,3,PI,1,100,157107
1576765739.924462,24329.000,3569,3,PI,1,100,157167
1576765739.962512,24361.000,3569,3,PI,1,100,157248
1576765740.004129,24396.000,3587,3,PI,1,100,157316
1576765740.045747,24431.000,3587,3,PI,1,100,157412
1576765740.087364,24466.000,3587,3,PI,1,100,157499
1576765740.127792,24500.000,3605,3,PI,1,100,157582
1576765740.168220,24534.000,3605,3,PI,1,100,157659
1576765740.208648,24568.000,3605,3,PI,1,100,157553
1576765740.250265,24603.000,3622,3,PI,1,100,157141
1576765740.291882,24638.000,3622,3,PI,1,100,156775
1576765740.333499,24673.000,3622,3,PI,1,100,156587
1576765740.374324,24707.333,3640,3,PI,1,100,156543
1576765740.415148,24741.667,3640,3,PI,1,100,156511
1576765740.455973,24776.000,3640,3,PI,1,100,156524
1576765740.493626,24807.667,3656,3,PI,1,100,156507
1576765740.531280,24839.333,3656,3,PI,1,100,156522
1576765740.568933,24871.000,3656,3,PI,1,100,156546
1576765740.608569,24904.333,3675,3,PI,1,100,156601
1576765740.648204,24937.667,3675,3,PI,1,100,156673
1576765740.687840,24971.000,3675,3,PI,1,100,156690
1576765740.729060,25005.667,3693,3,PI,1,100,156780
1576765740.770281,25040.333,3693,3,PI,1,100,156865
1576765740.811502,25075.000,3693,3,PI,1,100,156968
1576765740.852722,25109.667,3711,3,PI,1,100,157059
1576765740.893943,25144.333,3711,3,PI,1,100,157115
1576765740.935164,25179.000,3711,3,PI,1,100,157207
1576765740.975592,25213.000,3729,3,PI,1,100,157283
1576765741.016020,25247.000,3729,3,PI,1,100,157360
1576765741.056448,25281.000,3729,3,PI,1,100,157439
1576765741.094102,25312.667,3747,3,PI,1,100,157526
1576765741.131755,25344.333,3747,3,PI,1,100,157637
1576765741.169409,25376.000,3747,3,PI,1,100,157668
1576765741.207855,25408.333,3765,3,PI,1,100,157378
1576765741.246302,25440.667,3765,3,PI,1,100,156951
1576765741.284748,25473.000,3765,3,PI,1,100,156709
1576765741.324780,25506.667,3783,3,PI,1,100,156581
1576765741.364811,25540.333,3783,3,PI,1,100,156505
1576765741.404843,25574.000,3783,3,PI,1,100,156483
1576765741.446460,25609.000,3800,3,PI,1,100,156518
1576765741.488077,25644.000,3800,3,PI,1,100,156506
1576765741.529695,25679.000,3800,3,PI,1,100,156487
1576765741.570915,25713.667,3818,3,PI,1,100,156434
1576765741.612136,25748.333,3818,3,PI,1,100,156400
1576765741.653357,25783.000,3818,3,PI,1,100,156425
1576765741.691010,25814.667,3835,3,PI,1,100,156441
1576765741.728664,25846.333,3835,3,PI,1,100,156505
1576765741.766318,25878.000,3835,3,PI,1,100,156533
1576765741.804764,25910.333,3853,3,PI,1,100,156530
1576765741.843210,25942.667,3853,3,PI,1,100,156587
1576765741.881656,25975.000,3853,3,PI,1,100,156671
1576765741.921688,26008.667,3871,3,PI,1,100,156725
1576765741.961720,26042.333,3871,3,PI,1,100,156774
1576765742.001752,26076.000,3871,3,PI,1,100,156876
1576765742.043369,26111.000,3889,3,PI,1,100,156967
1576765742.084986,26146.000,3889,3,PI,1,100,157000
1576765742.126603,26181.000,3889,3,PI,1,100,156973
1576765742.167824,26215.667,3907,3,PI,1,100,156716
1576765742.209044,26250.333,3907,3,PI,1,100,156389
1576765742.250265,26285.000,3907,3,PI,1,100,156264
1576765742.289504,26318.000,3925,3,PI,1,100,156180
1576765742.328743,26351.000,3925,3,PI,1,100,156118
1576765742.367982,26384.000,3925,3,PI,1,100,156147
1576765742.405636,26415.667,3943,3,PI,1,100,156189
1576765742.443290,26447.333,3943,3,PI,1,100,156174
1576765742.480943,26479.000,3943,3,PI,1,100,156120
1576765742.520578,26512.333,3961,3,PI,1,100,156047
1576765742.560214,26545.667,3961,3,PI,1,100,156047
1576765742.599849,26579.000,3961,3,PI,1,100,156043
1576765742.641070,26613.667,3980,3,PI,1,100,156094
1576765742.682291,26648.333,3980,3,PI,1,100,156185
1576765742.723511,26683.000,3980,3,PI,1,100,156327
1576765742.764336,26717.333,3997,3,PI,1,100,156550
1576765742.805160,26751.667,3997,3,PI,1,100,156722
1576765742.845985,26786.000,3997,3,PI,1,100,156740
1576765742.886413,26820.000,4015,3,PI,1,100,156928
1576765742.926841,26854.000,4015,3,PI,1,100,157128
1576765742.967269,26888.000,4015,3,PI,1,100,157293
1576765743.004922,26919.667,4031,3,PI,1,100,157480
1576765743.042576,26951.333,4031,3,PI,1,100,157446
1576765743.080230,26983.000,4031,3,PI,1,100,157352
1576765743.119469,27016.000,4049,3,PI,1,100,157217
1576765743.158708,27049.000,4049,3,PI,1,100,157094
1576765743.197947,27082.000,4049,3,PI,1,100,157085
1576765743.239167,27116.667,4067,3,PI,1,100,157169
1576765743.280388,27151.333,4067,3,PI,1,100,157172
1576765743.321609,27186.000,4067,3,PI,1,100,157121
1576765743.363226,27221.000,4088,5,PI,1,100,157070
1576765743.404843,27256.000,4088,5,PI,1,100,157102
1576765743.446460,27291.000,4088,5,PI,1,100,157051
1576765743.488077,27326.000,4088,5,PI,1,100,157063
1576765743.529695,27361.000,4088,5,PI,1,100,157128
1576765743.566952,27392.333,4108,3,PI,1,100,157292
1576765743.604209,27423.667,4108,3,PI,1,100,157417
1576765743.641466,27455.000,4108,3,PI,1,100,157525
1576765743.681102,27488.333,4126,3,PI,1,100,157594
1576765743.720737,27521.667,4126,3,PI,1,100,157615
1576765743.760372,27555.000,4126,3,PI,1,100,157619
1576765743.801197,27589.333,4143,3,PI,1,100,157534
1576765743.842021,27623.667,4143,3,PI,1,100,157381
1576765743.882846,27658.000,4143,3,PI,1,100,157252
1576765743.924463,27693.000,4161,3,PI,1,100,157159
1576765743.966080,27728.000,4161,3,PI,1,100,157149
1576765744.007697,27763.000,4161,3,PI,1,100,157186
1576765744.049314,27798.000,4179,3,PI,1,100,157441
1576765744.090931,27833.000,4179,3,PI,1,100,156980
1576765744.132548,27868.000,4179,3,PI,1,100,157145
1576765744.170598,27900.000,4197,3,PI,1,100,157118
1576765744.208648,27932.000,4197,3,PI,1,100,157140
1576765744.246698,27964.000,4197,3,PI,1,100,157123
1576765744.285145,27996.333,4215,3,PI,1,100,157227
1576765744.323591,28028.667,4215,3,PI,1,100,157329
1576765744.362037,28061.000,4215,3,PI,1,100,157415
1576765744.402862,28095.333,4233,3,PI,1,100,157556
1576765744.443686,28129.667,4233,3,PI,1,100,157777
1576765744.484510,28164.000,4233,3,PI,1,100,157964
1576765744.526722,28199.500,4251,2,PI,1,100,158178
1576765744.568934,28235.000,4251,2,PI,1,100,158302
1576765744.613722,28272.667,4269,3,PI,1,100,158245
1576765744.658510,28310.333,4269,3,PI,1,100,158071
1576765744.703298,28348.000,4269,3,PI,1,100,158068
1576765744.742933,28381.333,4287,3,PI,1,100,158132
1576765744.782568,28414.667,4287,3,PI,1,100,158173
1576765744.822204,28448.000,4287,3,PI,1,100,158262
1576765744.859065,28479.000,4303,4,PI,1,100,158434
1576765744.895926,28510.000,4303,4,PI,1,100,158473
1576765744.932786,28541.000,4303,4,PI,1,100,158475
1576765744.969647,28572.000,4303,4,PI,1,100,158461
1576765745.010472,28606.333,4321,3,PI,1,100,158482
1576765745.051296,28640.667,4321,3,PI,1,100,158559
1576765745.092120,28675.000,4321,3,PI,1,100,158624
1576765745.132945,28709.333,4339,3,PI,1,100,158687
1576765745.173769,28743.667,4339,3,PI,1,100,158764
1576765745.214594,28778.000,4339,3,PI,1,100,158836
1576765745.255616,28812.500,4357,2,PI,1,100,158924
1576765745.296639,28847.000,4357,2,PI,1,100,158986
1576765745.337463,28881.333,4375,3,PI,1,100,159040
1576765745.378288,28915.667,4375,3,PI,1,100,158988
1576765745.419112,28950.000,4375,3,PI,1,100,158701
1576765745.456568,28981.500,4393,4,PI,1,100,158432
1576765745.494023,29013.000,4393,4,PI,1,100,158251
1576765745.531478,29044.500,4393,4,PI,1,100,158171
1576765745.568934,29076.000,4393,4,PI,1,100,158105
1576765745.608966,29109.667,4412,3,PI,1,100,158134
1576765745.648997,29143.333,4412,3,PI,1,100,158175
1576765745.689029,29177.000,4412,3,PI,1,100,158184
1576765745.729457,29211.000,4430,3,PI,1,100,158178
1576765745.769885,29245.000,4430,3,PI,1,100,158149
1576765745.810313,29279.000,4430,3,PI,1,100,158196
1576765745.851534,29313.667,4447,3,PI,1,100,158305
1576765745.892755,29348.333,4447,3,PI,1,100,158390
1576765745.933975,29383.000,4447,3,PI,1,100,158435
1576765745.976187,29418.500,4465,2,PI,1,100,158458
1576765746.018399,29454.000,4465,2,PI,1,100,158510
1576765746.056449,29486.000,4481,4,PI,1,100,158613
1576765746.094499,29518.000,4481,4,PI,1,100,158714
1576765746.132549,29550.000,4481,4,PI,1,100,158687
1576765746.170599,29582.000,4481,4,PI,1,100,158464
1576765746.209838,29615.000,4499,3,PI,1,100,158213
1576765746.249077,29648.000,4499,3,PI,1,100,158081
1576765746.288316,29681.000,4499,3,PI,1,100,158012
1576765746.327951,29714.333,4517,3,PI,1,100,157970
1576765746.367586,29747.667,4517,3,PI,1,100,157980
1576765746.407222,29781.000,4517,3,PI,1,100,158001
1576765746.448442,29815.667,4535,3,PI,1,100,157996
1576765746.489663,29850.333,4535,3,PI,1,100,157971
1576765746.530884,29885.000,4535,3,PI,1,100,157959
1576765746.572897,29920.333,4553,3,PI,1,100,157977
1576765746.614911,29955.667,4553,3,PI,1,100,158044
1576765746.656924,29991.000,4553,3,PI,1,100,158096
1576765746.694578,30022.667,4572,3,PI,1,100,158170
1576765746.732232,30054.333,4572,3,PI,1,100,158215
1576765746.769885,30086.000,4572,3,PI,1,100,158276
1576765746.808331,30118.333,4590,3,PI,1,100,158313
1576765746.846778,30150.667,4590,3,PI,1,100,158369
1576765746.885224,30183.000,4590,3,PI,1,100,158416
1576765746.924463,30216.000,4608,3,PI,1,100,158436
1576765746.963702,30249.000,4608,3,PI,1,100,158276
1576765747.002941,30282.000,4608,3,PI,1,100,158113
1576765747.044162,30316.667,4626,3,PI,1,100,158019
1576765747.085383,30351.333,4626,3,PI,1,100,157981
1576765747.126603,30386.000,4626,3,PI,1,100,157964
1576765747.168617,30421.333,4643,3,PI,1,100,157933
1576765747.210630,30456.667,4643,3,PI,1,100,158026
1576765747.252644,30492.000,4643,3,PI,1,100,158084
1576765747.290694,30524.000,4661,3,PI,1,100,158106
1576765747.328744,30556.000,4661,3,PI,1,100,158064
1576765747.366794,30588.000,4661,3,PI,1,100,158059
1576765747.405240,30620.333,4677,3,PI,1,100,158144
1576765747.443686,30652.667,4677,3,PI,1,100,158246
1576765747.482133,30685.000,4677,3,PI,1,100,158308
1576765747.522164,30718.667,4695,3,PI,1,100,158326
1576765747.562196,30752.333,4695,3,PI,1,100,158360
1576765747.602228,30786.000,4695,3,PI,1,100,158393
1576765747.643449,30820.667,4714,3,PI,1,100,158435
1576765747.684669,30855.333,4714,3,PI,1,100,158471
1576765747.725890,30890.000,4714,3,PI,1,100,158543
1576765747.767904,30925.333,4732,3,PI,1,100,158589
1576765747.809917,30960.667,4732,3,PI,1,100,158570
1576765747.851930,30996.000,4732,3,PI,1,100,158397
1576765747.891170,31029.000,4750,3,PI,1,100,158278
1576765747.930408,31062.000,4750,3,PI,1,100,158211
1576765747.969647,31095.000,4750,3,PI,1,100,158224
1576765748.008887,31128.000,4768,3,PI,1,100,158235
1576765748.048126,31161.000,4768,3,PI,1,100,158267
1576765748.087364,31194.000,4768,3,PI,1,100,158308
1576765748.127000,31227.333,4786,3,PI,1,100,158284
1576765748.166635,31260.667,4786,3,PI,1,100,158293
1576765748.206271,31294.000,4786,3,PI,1,100,158318
1576765748.247491,31328.667,4804,3,PI,1,100,158332
1576765748.288712,31363.333,4804,3,PI,1,100,158372
1576765748.329933,31398.000,4804,3,PI,1,100,158399
1576765748.371154,31432.667,4821,3,PI,1,100,158441
1576765748.412374,31467.333,4821,3,PI,1,100,158478
1576765748.453595,31502.000,4821,3,PI,1,100,158498
1576765748.492438,31534.667,4839,3,PI,1,100,158510
1576765748.531281,31567.333,4839,3,PI,1,100,158601
1576765748.570123,31600.000,4839,3,PI,1,100,158687
1576765748.608569,31632.333,4856,3,PI,1,100,158736
1576765748.647016,31664.667,4856,3,PI,1,100,158752
1576765748.685462,31697.000,4856,3,PI,1,100,158770
1576765748.724305,31729.667,4874,3,PI,1,100,158715
1576765748.763147,31762.333,4874,3,PI,1,100,158623
1576765748.801990,31795.000,4874,3,PI,1,100,158541
1576765748.842814,31829.333,4892,3,PI,1,100,158529
1576765748.883639,31863.667,4892,3,PI,1,100,158488
1576765748.924463,31898.000,4892,3,PI,1,100,158478
1576765748.965684,31932.667,4910,3,PI,1,100,158510
1576765749.006905,31967.333,4910,3,PI,1,100,158551
1576765749.048126,32002.000,4910,3,PI,1,100,158563
1576765749.089743,32037.000,4928,3,PI,1,100,158559
1576765749.131360,32072.000,4928,3,PI,1,100,158596
1576765749.172977,32107.000,4928,3,PI,1,100,158600
1576765749.210631,32138.667,4946,3,PI,1,100,158611
1576765749.248284,32170.333,4946,3,PI,1,100,158675
1576765749.285938,32202.000,4946,3,PI,1,100,158730
1576765749.324780,32234.667,4964,3,PI,1,100,158798
1576765749.363623,32267.333,4964,3,PI,1,100,158847
1576765749.402466,32300.000,4964,3,PI,1,100,158868
1576765749.446164,32336.750,4985,4,PI,1,100,158915
1576765749.489862,32373.500,4985,4,PI,1,100,158946
1576765749.533560,32410.250,4985,4,PI,1,100,158995
1576765749.577258,32447.000,4985,4,PI,1,100,159042
1576765749.615704,32479.333,5006,3,PI,1,100,159092
1576765749.654150,32511.667,5006,3,PI,1,100,159051
1576765749.692596,32544.000,5006,3,PI,1,100,158887
1576765749.733817,32578.667,5024,3,PI,1,100,158812
1576765749.775038,32613.333,5024,3,PI,1,100,158793
1576765749.816259,32648.000,5024,3,PI,1,100,158784
1576765749.857876,32683.000,5042,3,PI,1,100,158802
1576765749.899493,32718.000,5042,3,PI,1,100,158823
1576765749.941110,32753.000,5042,3,PI,1,100,158858
1576765749.980746,32786.333,5060,3,PI,1,100,158855
1576765750.020381,32819.667,5060,3,PI,1,100,158865
1576765750.060016,32853.000,5060,3,PI,1,100,158872
1576765750.097670,32884.667,5077,3,PI,1,100,158891
1576765750.135324,32916.333,5077,3,PI,1,100,158923
1576765750.172977,32948.000,5077,3,PI,1,100,158950
1576765750.212612,32981.333,5095,3,PI,1,100,158987
1576765750.252248,33014.667,5095,3,PI,1,100,159028
1576765750.291883,33048.000,5095,3,PI,1,100,159102
1576765750.331915,33081.667,5113,3,PI,1,100,159157
1576765750.371947,33115.333,5113,3,PI,1,100,159181
1576765750.411978,33149.000,5113,3,PI,1,100,159166
1576765750.453199,33183.667,5129,3,PI,1,100,159183
1576765750.494420,33218.333,5129,3,PI,1,100,159298
1576765750.535640,33253.000,5129,3,PI,1,100,159269
1576765750.576069,33287.000,5148,3,PI,1,100,159111
1576765750.616497,33321.000,5148,3,PI,1,100,158978
1576765750.656925,33355.000,5148,3,PI,1,100,158944
1576765750.694182,33386.333,5166,3,PI,1,100,158932
1576765750.731439,33417.667,5166,3,PI,1,100,158943
1576765750.768697,33449.000,5166,3,PI,1,100,159000
1576765750.808233,33482.250,5184,4,PI,1,100,159001
1576765750.847769,33515.500,5184,4,PI,1,100,159008
1576765750.887305,33548.750,5184,4,PI,1,100,158993
1576765750.926841,33582.000,5184,4,PI,1,100,159000
1576765750.967864,33616.500,5202,2,PI,1,100,159034
1576765751.008887,33651.000,5202,2,PI,1,100,159087
1576765751.049711,33685.333,5220,3,PI,1,100,159147
1576765751.090536,33719.667,5220,3,PI,1,100,159167
1576765751.131360,33754.000,5220,3,PI,1,100,159175
1576765751.176544,33792.000,5238,3,PI,1,100,159224
1576765751.221729,33830.000,5238,3,PI,1,100,159259
1576765751.266913,33868.000,5238,3,PI,1,100,159288
1576765751.304170,33899.333,5255,3,PI,1,100,159328
1576765751.341427,33930.667,5255,3,PI,1,100,159347
1576765751.378685,33962.000,5255,3,PI,1,100,159366
1576765751.417527,33994.667,5273,3,PI,1,100,159287
1576765751.456370,34027.333,5273,3,PI,1,100,159124
1576765751.495213,34060.000,5273,3,PI,1,100,159023
1576765751.533262,34092.000,5291,3,PI,1,100,159039
1576765751.571312,34124.000,5291,3,PI,1,100,159041
1576765751.609362,34156.000,5291,3,PI,1,100,159062
1576765751.650583,34190.667,5308,3,PI,1,100,159044
1576765751.691804,34225.333,5308,3,PI,1,100,158994
1576765751.733025,34260.000,5308,3,PI,1,100,159014
1576765751.774642,34295.000,5326,3,PI,1,100,159070
1576765751.816259,34330.000,5326,3,PI,1,100,159099
1576765751.857876,34365.000,5326,3,PI,1,100,159112
1576765751.895034,34396.250,5344,4,PI,1,100,159101
1576765751.932193,34427.500,5344,4,PI,1,100,159120
1576765751.969351,34458.750,5344,4,PI,1,100,159147
1576765752.006509,34490.000,5344,4,PI,1,100,159174
1576765752.045748,34523.000,5362,3,PI,1,100,159213
1576765752.084987,34556.000,5362,3,PI,1,100,159251
1576765752.124226,34589.000,5362,3,PI,1,100,159289
1576765752.165248,34623.500,5380,2,PI,1,100,159344
1576765752.206271,34658.000,5380,2,PI,1,100,159336
1576765752.247492,34692.667,5398,3,PI,1,100,159361
1576765752.288713,34727.333,5398,3,PI,1,100,159316
1576765752.329933,34762.000,5398,3,PI,1,100,159170
1576765752.375514,34800.333,5416,3,PI,1,100,159066
1576765752.421095,34838.667,5416,3,PI,1,100,159012
1576765752.466675,34877.000,5416,3,PI,1,100,158970
1576765752.504725,34909.000,5433,3,PI,1,100,158952
1576765752.542775,34941.000,5433,3,PI,1,100,158973
1576765752.580825,34973.000,5433,3,PI,1,100,158963
1576765752.621650,35007.333,5452,3,PI,1,100,158924
1576765752.662474,35041.667,5452,3,PI,1,100,158894
1576765752.703298,35076.000,5452,3,PI,1,100,158901
1576765752.741348,35108.000,5468,3,PI,1,100,158932
1576765752.779398,35140.000,5468,3,PI,1,100,158975
1576765752.817448,35172.000,5468,3,PI,1,100,159005
1576765752.856291,35204.667,5486,3,PI,1,100,159036
1576765752.895133,35237.333,5486,3,PI,1,100,159059
1576765752.933976,35270.000,5486,3,PI,1,100,159062
1576765752.979161,35308.000,5504,3,PI,1,100,159113
1576765753.024345,35346.000,5504,3,PI,1,100,159160
1576765753.069529,35384.000,5504,3,PI,1,100,159185
1576765753.105994,35414.667,5522,3,PI,1,100,159222
1576765753.142458,35445.333,5522,3,PI,1,100,159257
1576765753.178923,35476.000,5522,3,PI,1,100,159211
1576765753.219747,35510.333,5540,3,PI,1,100,159080
1576765753.260571,35544.667,5540,3,PI,1,100,158938
1576765753.301396,35579.000,5540,3,PI,1,100,158860
1576765753.342220,35613.333,5558,3,PI,1,100,158814
1576765753.383045,35647.667,5558,3,PI,1,100,158786
1576765753.423869,35682.000,5558,3,PI,1,100,158806
1576765753.465090,35716.667,5576,3,PI,1,100,158797
1576765753.506311,35751.333,5576,3,PI,1,100,158778
1576765753.547532,35786.000,5576,3,PI,1,100,158740
1576765753.585978,35818.333,5594,3,PI,1,100,158744
1576765753.624424,35850.667,5594,3,PI,1,100,158753
1576765753.662870,35883.000,5594,3,PI,1,100,158760
1576765753.700920,35915.000,5612,3,PI,1,100,158756
1576765753.738970,35947.000,5612,3,PI,1,100,158847
1576765753.777020,35979.000,5612,3,PI,1,100,158922
1576765753.817845,36013.333,5630,3,PI,1,100,158964
1576765753.858669,36047.667,5630,3,PI,1,100,158927
1576765753.899493,36082.000,5630,3,PI,1,100,158937
1576765753.940714,36116.667,5648,3,PI,1,100,159013
1576765753.981935,36151.333,5648,3,PI,1,100,159106
1576765754.023156,36186.000,5648,3,PI,1,100,159143
1576765754.064773,36221.000,5664,3,PI,1,100,159073
1576765754.106390,36256.000,5664,3,PI,1,100,158904
1576765754.148007,36291.000,5664,3,PI,1,100,158724
1576765754.186057,36323.000,5682,3,PI,1,100,158628
1576765754.224107,36355.000,5682,3,PI,1,100,158572
1576765754.262157,36387.000,5682,3,PI,1,100,158530
1576765754.300207,36419.000,5700,3,PI,1,100,158544
1576765754.338257,36451.000,5700,3,PI,1,100,158536
1576765754.376307,36483.000,5700,3,PI,1,100,158506
1576765754.416338,36516.667,5718,3,PI,1,100,158451
1576765754.456370,36550.333,5718,3,PI,1,100,158483
1576765754.496402,36584.000,5718,3,PI,1,100,158523
1576765754.537226,36618.333,5736,3,PI,1,100,158538
1576765754.578051,36652.667,5736,3,PI,1,100,158570
1576765754.618875,36687.000,5736,3,PI,1,100,158581
1576765754.664456,36725.333,5755,3,PI,1,100,158621
1576765754.710037,36763.667,5755,3,PI,1,100,158659
1576765754.755617,36802.000,5755,3,PI,1,100,158698
1576765754.794064,36834.333,5772,3,PI,1,100,158716
1576765754.832510,36866.667,5772,3,PI,1,100,158745
1576765754.870956,36899.000,5772,3,PI,1,100,158777
1576765754.908610,36930.667,5790,3,PI,1,100,158776
1576765754.946263,36962.333,5790,3,PI,1,100,158641
1576765754.983917,36994.000,5790,3,PI,1,100,158420
1576765755.024345,37028.000,5808,3,PI,1,100,158327
1576765755.064773,37062.000,5808,3,PI,1,100,158265
1576765755.105201,37096.000,5808,3,PI,1,100,158159
1576765755.147215,37131.333,5826,3,PI,1,100,158091
1576765755.189228,37166.667,5826,3,PI,1,100,158103
1576765755.231241,37202.000,5826,3,PI,1,100,158149
1576765755.272462,37236.667,5842,3,PI,1,100,158155
1576765755.313683,37271.333,5842,3,PI,1,100,158148
1576765755.354904,37306.000,5842,3,PI,1,100,158074
1576765755.394539,37339.333,5860,3,PI,1,100,158101
1576765755.434175,37372.667,5860,3,PI,1,100,158116
1576765755.473810,37406.000,5860,3,PI,1,100,158140
1576765755.510433,37436.800,5881,5,PI,1,100,158205
1576765755.547056,37467.600,5881,5,PI,1,100,158266
1576765755.583679,37498.400,5881,5,PI,1,100,158283
1576765755.620302,37529.200,5881,5,PI,1,100,158319
1576765755.656925,37560.000,5881,5,PI,1,100,158376
1576765755.696957,37593.667,5902,3,PI,1,100,158407
1576765755.736989,37627.333,5902,3,PI,1,100,158474
1576765755.777020,37661.000,5902,3,PI,1,100,158503
1576765755.818241,37695.667,5920,3,PI,1,100,158371
1576765755.859462,37730.333,5920,3,PI,1,100,158141
1576765755.900683,37765.000,5920,3,PI,1,100,157970
1576765755.945074,37802.333,5936,3,PI,1,100,157866
1576765755.989466,37839.667,5936,3,PI,1,100,157809
1576765756.033858,37877.000,5936,3,PI,1,100,157788
1576765756.070718,37908.000,5954,3,PI,1,100,157791
1576765756.107579,37939.000,5954,3,PI,1,100,157755
1576765756.144440,37970.000,5954,3,PI,1,100,157705
1576765756.183679,38003.000,5972,3,PI,1,100,157691
1576765756.222918,38036.000,5972,3,PI,1,100,157688
1576765756.262157,38069.000,5972,3,PI,1,100,157720
1576765756.303378,38103.667,5990,3,PI,1,100,157819
1576765756.344599,38138.333,5990,3,PI,1,100,157859
1576765756.385819,38173.000,5990,3,PI,1,100,157862
1576765756.424662,38205.667,6008,3,PI,1,100,157893
1576765756.463505,38238.333,6008,3,PI,1,100,157912
1576765756.502347,38271.000,6008,3,PI,1,100,158028
1576765756.546739,38308.333,6026,3,PI,1,100,158044
1576765756.591131,38345.667,6026,3,PI,1,100,158090
1576765756.635522,38383.000,6026,3,PI,1,100,158144
1576765756.673572,38415.000,6045,3,PI,1,100,158152
1576765756.711622,38447.000,6045,3,PI,1,100,158141
1576765756.749672,38479.000,6045,3,PI,1,100,157899
1576765756.791289,38514.000,6062,3,PI,1,100,157698
1576765756.832906,38549.000,6062,3,PI,1,100,157585
1576765756.874523,38584.000,6062,3,PI,1,100,157482
1576765756.915348,38618.333,6080,3,PI,1,100,157429
1576765756.956172,38652.667,6080,3,PI,1,100,157415
1576765756.996997,38687.000,6080,3,PI,1,100,157417
1576765757.037425,38721.000,6096,3,PI,1,100,157395
1576765757.077853,38755.000,6096,3,PI,1,100,157340
1576765757.118281,38789.000,6096,3,PI,1,100,157310
1576765757.156727,38821.333,6114,3,PI,1,100,157406
1576765757.195174,38853.667,6114,3,PI,1,100,157489
1576765757.233620,38886.000,6114,3,PI,1,100,157539
1576765757.272859,38919.000,6132,3,PI,1,100,157521
1576765757.312098,38952.000,6132,3,PI,1,100,157547
1576765757.351337,38985.000,6132,3,PI,1,100,157672
1576765757.392161,39019.333,6150,3,PI,1,100,157756
1576765757.432986,39053.667,6150,3,PI,1,100,157790
1576765757.473810,39088.000,6150,3,PI,1,100,157803
1576765757.514238,39122.000,6168,3,PI,1,100,157851
1576765757.554666,39156.000,6168,3,PI,1,100,157909
1576765757.595094,39190.000,6168,3,PI,1,100,157953
1576765757.636315,39224.667,6187,3,PI,1,100,157879
1576765757.677536,39259.333,6187,3,PI,1,100,157623
1576765757.718757,39294.000,6187,3,PI,1,100,157398
1576765757.756410,39325.667,6205,3,PI,1,100,157255
1576765757.794064,39357.333,6205,3,PI,1,100,157158
1576765757.831717,39389.000,6205,3,PI,1,100,157103
1576765757.870560,39421.667,6223,3,PI,1,100,157130
1576765757.909403,39454.333,6223,3,PI,1,100,157148
1576765757.948245,39487.000,6223,3,PI,1,100,157104
1576765757.992637,39524.333,6240,3,PI,1,100,157086
1576765758.037029,39561.667,6240,3,PI,1,100,157075
1576765758.081420,39599.000,6240,3,PI,1,100,157118
1576765758.121848,39633.000,6258,2,PI,1,100,157174
1576765758.162276,39667.000,6258,2,PI,1,100,157247
1576765758.203893,39702.000,6274,3,PI,1,100,157288
1576765758.245511,39737.000,6274,3,PI,1,100,157328
1576765758.287128,39772.000,6274,3,PI,1,100,157371
1576765758.325772,39804.500,6292,4,PI,1,100,157406
1576765758.364417,39837.000,6292,4,PI,1,100,157449
1576765758.403061,39869.500,6292,4,PI,1,100,157522
1576765758.441705,39902.000,6292,4,PI,1,100,157643
1576765758.480548,39934.667,6310,3,PI,1,100,157670
1576765758.519391,39967.333,6310,3,PI,1,100,157428
1576765758.558233,40000.000,6310,3,PI,1,100,157091
1576765758.599058,40034.333,6329,3,PI,1,100,156898
1576765758.639882,40068.667,6329,3,PI,1,100,156848
1576765758.680707,40103.000,6329,3,PI,1,100,156812
1576765758.721135,40137.000,6347,2,PI,1,100,156798
1576765758.761563,40171.000,6347,2,PI,1,100,156751
1576765758.803180,40206.000,6365,3,PI,1,100,156760
1576765758.844797,40241.000,6365,3,PI,1,100,156730
1576765758.886414,40276.000,6365,3,PI,1,100,156715
1576765758.926050,40309.333,6383,3,PI,1,100,156763
1576765758.965685,40342.667,6383,3,PI,1,100,156850
1576765759.005320,40376.000,6383,3,PI,1,100,156886
1576765759.043370,40408.000,6401,4,PI,1,100,156955
1576765759.081420,40440.000,6401,4,PI,1,100,157031
1576765759.119470,40472.000,6401,4,PI,1,100,157067
1576765759.157520,40504.000,6401,4,PI,1,100,157149
1576765759.198344,40538.333,6418,3,PI,1,100,157196
1576765759.239169,40572.667,6418,3,PI,1,100,157290
1576765759.279993,40607.000,6418,3,PI,1,100,157368
1576765759.321016,40641.500,6436,2,PI,1,100,157434
1576765759.362039,40676.000,6436,2,PI,1,100,157363
1576765759.403656,40711.000,6452,3,PI,1,100,157139
1576765759.445273,40746.000,6452,3,PI,1,100,156843
1576765759.486890,40781.000,6452,3,PI,1,100,156607
1576765759.527318,40815.000,6470,3,PI,1,100,156487
1576765759.567746,40849.000,6470,3,PI,1,100,156356
1576765759.608174,40883.000,6470,3,PI,1,100,156371
1576765759.645332,40914.250,6489,4,PI,1,100,156381
1576765759.682490,40945.500,6489,4,PI,1,100,156334
1576765759.719649,40976.750,6489,4,PI,1,100,156314
1576765759.756807,41008.000,6489,4,PI,1,100,156377
1576765759.796839,41041.667,6507,3,PI,1,100,156443
1576765759.836870,41075.333,6507,3,PI,1,100,156473
1576765759.876902,41109.000,6507,3,PI,1,100,156480
1576765759.917726,41143.333,6525,3,PI,1,100,156554
1576765759.958551,41177.667,6525,3,PI,1,100,156686
1576765759.999375,41212.000,6525,3,PI,1,100,156781
1576765760.040200,41246.333,6543,3,PI,1,100,156844
1576765760.081024,41280.667,6543,3,PI,1,100,156876
1576765760.121848,41315.000,6543,3,PI,1,100,156932
1576765760.164060,41350.500,6561,2,PI,1,100,157016
1576765760.206272,41386.000,6561,2,PI,1,100,157082
1576765760.244322,41418.000,6579,4,PI,1,100,157138
1576765760.282372,41450.000,6579,4,PI,1,100,157033
1576765760.320421,41482.000,6579,4,PI,1,100,156722
1576765760.358471,41514.000,6579,4,PI,1,100,156386
1576765760.397314,41546.667,6596,3,PI,1,100,156216
1576765760.436157,41579.333,6596,3,PI,1,100,156143
1576765760.474999,41612.000,6596,3,PI,1,100,156123
1576765760.516220,41646.667,6614,3,PI,1,100,156111
1576765760.557441,41681.333,6614,3,PI,1,100,156121
1576765760.598662,41716.000,6614,3,PI,1,100,156094
1576765760.636315,41747.667,6633,3,PI,1,100,156098
1576765760.673969,41779.333,6633,3,PI,1,100,156122
1576765760.711622,41811.000,6633,3,PI,1,100,156213
1576765760.749276,41842.667,6649,3,PI,1,100,156301
1576765760.786930,41874.333,6649,3,PI,1,100,156334
1576765760.824583,41906.000,6649,3,PI,1,100,156411
1576765760.865011,41940.000,6667,3,PI,1,100,156564
1576765760.905439,41974.000,6667,3,PI,1,100,156688
1576765760.945868,42008.000,6667,3,PI,1,100,156777
1576765760.987088,42042.667,6685,3,PI,1,100,156830
1576765761.028309,42077.333,6685,3,PI,1,100,156876
1576765761.069530,42112.000,6685,3,PI,1,100,156950
1576765761.111147,42147.000,6703,3,PI,1,100,157048
1576765761.152764,42182.000,6703,3,PI,1,100,157137
1576765761.194381,42217.000,6703,3,PI,1,100,157144
1576765761.233620,42250.000,6721,3,PI,1,100,156848
1576765761.272859,42283.000,6721,3,PI,1,100,156495
1576765761.312098,42316.000,6721,3,PI,1,100,156271
1576765761.350544,42348.333,6739,3,PI,1,100,156150
1576765761.388991,42380.667,6739,3,PI,1,100,156058
1576765761.427437,42413.000,6739,3,PI,1,100,156065
1576765761.467469,42446.667,6757,3,PI,1,100,156110
1576765761.507500,42480.333,6757,3,PI,1,100,156152
1576765761.547532,42514.000,6757,3,PI,1,100,156128
1576765761.588674,42548.600,6778,5,PI,1,100,156142
1576765761.629815,42583.200,6778,5,PI,1,100,156157
1576765761.670957,42617.800,6778,5,PI,1,100,156244
1576765761.712098,42652.400,6778,5,PI,1,100,156325
1576765761.753240,42687.000,6778,5,PI,1,100,156415
1576765761.793668,42721.000,6798,2,PI,1,100,156496
1576765761.834096,42755.000,6798,2,PI,1,100,156522
1576765761.875713,42790.000,6816,3,PI,1,100,156624
1576765761.917330,42825.000,6816,3,PI,1,100,156711
1576765761.958947,42860.000,6816,3,PI,1,100,156809
1576765762.000564,42895.000,6834,3,PI,1,100,156903
1576765762.042181,42930.000,6834,3,PI,1,100,156971
1576765762.083799,42965.000,6834,3,PI,1,100,157042
1576765762.121254,42996.500,6851,4,PI,1,100,156884
1576765762.158710,43028.000,6851,4,PI,1,100,156546
1576765762.196165,43059.500,6851,4,PI,1,100,156264
1576765762.233620,43091.000,6851,4,PI,1,100,156132
1576765762.272859,43124.000,6869,3,PI,1,100,156052
1576765762.312098,43157.000,6869,3,PI,1,100,156037
1576765762.351337,43190.000,6869,3,PI,1,100,156099
1576765762.392162,43224.333,6887,3,PI,1,100,156091
1576765762.432986,43258.667,6887,3,PI,1,100,156080
1576765762.473811,43293.000,6887,3,PI,1,100,156087
1576765762.514239,43327.000,6903,2,PI,1,100,156184
1576765762.554667,43361.000,6903,2,PI,1,100,156269
1576765762.596680,43396.333,6922,3,PI,1,100,156342
1576765762.638694,43431.667,6922,3,PI,1,100,156371
1576765762.680707,43467.000,6922,3,PI,1,100,156424
1576765762.718757,43499.000,6940,4,PI,1,100,156563
1576765762.756807,43531.000,6940,4,PI,1,100,156658
1576765762.794857,43563.000,6940,4,PI,1,100,156727
1576765762.832907,43595.000,6940,4,PI,1,100,156787
1576765762.871750,43627.667,6958,3,PI,1,100,156854
1576765762.910592,43660.333,6958,3,PI,1,100,156886
1576765762.949435,43693.000,6958,3,PI,1,100,156720
1576765762.990656,43727.667,6976,3,PI,1,100,156367
1576765763.031876,43762.333,6976,3,PI,1,100,156054
1576765763.073097,43797.000,6976,3,PI,1,100,155906
1576765763.113525,43831.000,6994,2,PI,1,100,155779
1576765763.153953,43865.000,6994,2,PI,1,100,155746
1576765763.195967,43900.333,7012,3,PI,1,100,155789
1576765763.237980,43935.667,7012,3,PI,1,100,155830
1576765763.279994,43971.000,7012,3,PI,1,100,155812
1576765763.318638,44003.500,7029,4,PI,1,100,155835
1576765763.357283,44036.000,7029,4,PI,1,100,155877
1576765763.395927,44068.500,7029,4,PI,1,100,155952
1576765763.434572,44101.000,7029,4,PI,1,100,156033
1576765763.477972,44137.500,7047,2,PI,1,100,156122
1576765763.521373,44174.000,7047,2,PI,1,100,156227
1576765763.559027,44205.667,7065,3,PI,1,100,156319
1576765763.596680,44237.333,7065,3,PI,1,100,156396
1576765763.634334,44269.000,7065,3,PI,1,100,156466
1576765763.675555,44303.667,7084,3,PI,1,100,156543
1576765763.716775,44338.333,7084,3,PI,1,100,156615
1576765763.757996,44373.000,7084,3,PI,1,100,156729
1576765763.799217,44407.667,7100,3,PI,1,100,156767
1576765763.840438,44442.333,7100,3,PI,1,100,156637
1576765763.881659,44477.000,7100,3,PI,1,100,156287
1576765763.920006,44509.250,7118,4,PI,1,100,155914
1576765763.958353,44541.500,7118,4,PI,1,100,155719
1576765763.996700,44573.750,7118,4,PI,1,100,155594
1576765764.035047,44606.000,7118,4,PI,1,100,155633
1576765764.072304,44637.333,7136,3,PI,1,100,155711
1576765764.109562,44668.667,7136,3,PI,1,100,155750
1576765764.146819,44700.000,7136,3,PI,1,100,155657
1576765764.188436,44735.000,7154,3,PI,1,100,155649
1576765764.230053,44770.000,7154,3,PI,1,100,155687
1576765764.271670,44805.000,7154,3,PI,1,100,155768
1576765764.312693,44839.500,7172,2,PI,1,100,155867
1576765764.353716,44874.000,7172,2,PI,1,100,155970
1576765764.398900,44912.000,7190,3,PI,1,100,156059
1576765764.444084,44950.000,7190,3,PI,1,100,156117
1576765764.489269,44988.000,7190,3,PI,1,100,156193
1576765764.527318,45020.000,7208,3,PI,1,100,156270
1576765764.565368,45052.000,7208,3,PI,1,100,156390
1576765764.603418,45084.000,7208,3,PI,1,100,156452
1576765764.645036,45119.000,7226,3,PI,1,100,156498
1576765764.686653,45154.000,7226,3,PI,1,100,156317
1576765764.728270,45189.000,7226,3,PI,1,100,155965
1576765764.768301,45222.667,7242,3,PI,1,100,155667
1576765764.808333,45256.333,7242,3,PI,1,100,155513
1576765764.848365,45290.000,7242,3,PI,1,100,155432
1576765764.886415,45322.000,7260,3,PI,1,100,155409
1576765764.924465,45354.000,7260,3,PI,1,100,155446
1576765764.962515,45386.000,7260,3,PI,1,100,155470
1576765765.002547,45419.667,7278,3,PI,1,100,155463
1576765765.042578,45453.333,7278,3,PI,1,100,155505
1576765765.082610,45487.000,7278,3,PI,1,100,155565
1576765765.123038,45521.000,7296,3,PI,1,100,155644
1576765765.163466,45555.000,7296,3,PI,1,100,155701
1576765765.203894,45589.000,7296,3,PI,1,100,155821
1576765765.246304,45624.667,7314,3,PI,1,100,155898
1576765765.288714,45660.333,7314,3,PI,1,100,155971
1576765765.331124,45696.000,7314,3,PI,1,100,156040
1576765765.372344,45730.667,7332,3,PI,1,100,156123
1576765765.413565,45765.333,7332,3,PI,1,100,156209
1576765765.454786,45800.000,7332,3,PI,1,100,156280
1576765765.496403,45835.000,7350,3,PI,1,100,156378
1576765765.538020,45870.000,7350,3,PI,1,100,156297
1576765765.579637,45905.000,7350,3,PI,1,100,155947
1576765765.619273,45938.333,7368,3,PI,1,100,155517
1576765765.658908,45971.667,7368,3,PI,1,100,155126
1576765765.698543,46005.000,7368,3,PI,1,100,154865
1576765765.736197,46036.667,7386,3,PI,1,100,154700
1576765765.773850,46068.333,7386,3,PI,1,100,154701
1576765765.811504,46100.000,7386,3,PI,1,100,154729
1576765765.851140,46133.333,7404,3,PI,1,100,154728
1576765765.890775,46166.667,7404,3,PI,1,100,154681
1576765765.930410,46200.000,7404,3,PI,1,100,154666
1576765765.970442,46233.667,7421,3,PI,1,100,154706
1576765766.010473,46267.333,7421,3,PI,1,100,154779
1576765766.050505,46301.000,7421,3,PI,1,100,154928
1576765766.091726,46335.667,7438,3,PI,1,100,155131
1576765766.132947,46370.333,7438,3,PI,1,100,155263
1576765766.174168,46405.000,7438,3,PI,1,100,155291
1576765766.214596,46439.000,7456,3,PI,1,100,155309
1576765766.255024,46473.000,7456,3,PI,1,100,155409
1576765766.295452,46507.000,7456,3,PI,1,100,155594
1576765766.333105,46538.667,7474,3,PI,1,100,155823
1576765766.370759,46570.333,7474,3,PI,1,100,156020
1576765766.408413,46602.000,7474,3,PI,1,100,156111
1576765766.447652,46635.000,7492,3,PI,1,100,155975
1576765766.486891,46668.000,7492,3,PI,1,100,155688
1576765766.526130,46701.000,7492,3,PI,1,100,155522
1576765766.566161,46734.667,7510,3,PI,1,100,155445
1576765766.606193,46768.333,7510,3,PI,1,100,155424
1576765766.646225,46802.000,7510,3,PI,1,100,155472
1576765766.687049,46836.333,7529,3,PI,1,100,155616
1576765766.727874,46870.667,7529,3,PI,1,100,155698
1576765766.768698,46905.000,7529,3,PI,1,100,155706
1576765766.809919,46939.667,7547,3,PI,1,100,155708
1576765766.851140,46974.333,7547,3,PI,1,100,155757
1576765766.892360,47009.000,7547,3,PI,1,100,155843
1576765766.929618,47040.333,7564,3,PI,1,100,155974
1576765766.966875,47071.667,7564,3,PI,1,100,156069
1576765767.004132,47103.000,7564,3,PI,1,100,156171
1576765767.046938,47139.000,7582,3,PI,1,100,156274
1576765767.089744,47175.000,7582,3,PI,1,100,156388
1576765767.132551,47211.000,7582,3,PI,1,100,156490
1576765767.173375,47245.333,7600,3,PI,1,100,156584
1576765767.214200,47279.667,7600,3,PI,1,100,156687
1576765767.255024,47314.000,7600,3,PI,1,100,156799
1576765767.296245,47348.667,7616,3,PI,1,100,156911
1576765767.337465,47383.333,7616,3,PI,1,100,156980
1576765767.378686,47418.000,7616,3,PI,1,100,156901
1576765767.417925,47451.000,7634,3,PI,1,100,156595
1576765767.457164,47484.000,7634,3,PI,1,100,156315
1576765767.496403,47517.000,7634,3,PI,1,100,156166
1576765767.532868,47547.667,7652,3,PI,1,100,156049
1576765767.569332,47578.333,7652,3,PI,1,100,156025
1576765767.605797,47609.000,7652,3,PI,1,100,156095
1576765767.645511,47642.400,7674,5,PI,1,100,156182
1576765767.685226,47675.800,7674,5,PI,1,100,156235
1576765767.724941,47709.200,7674,5,PI,1,100,156281
1576765767.764655,47742.600,7674,5,PI,1,100,156287
1576765767.804370,47776.000,7674,5,PI,1,100,156380
1576765767.845987,47811.000,7694,3,PI,1,100,156491
1576765767.887604,47846.000,7694,3,PI,1,100,156654
1576765767.929221,47881.000,7694,3,PI,1,100,156798
1576765767.970442,47915.667,7710,3,PI,1,100,156938
1576765768.011663,47950.333,7710,3,PI,1,100,157090
1576765768.052884,47985.000,7710,3,PI,1,100,157215
1576765768.091330,48017.333,7728,3,PI,1,100,157360
1576765768.129776,48049.667,7728,3,PI,1,100,157516
1576765768.168222,48082.000,7728,3,PI,1,100,157709
1576765768.206669,48114.333,7746,3,PI,1,100,157692
1576765768.245115,48146.667,7746,3,PI,1,100,157494
1576765768.283561,48179.000,7746,3,PI,1,100,157327
1576765768.326764,48215.333,7764,3,PI,1,100,157281
1576765768.369967,48251.667,7764,3,PI,1,100,157291
1576765768.413169,48288.000,7764,3,PI,1,100,157376
1576765768.451219,48320.000,7782,3,PI,1,100,157532
1576765768.489269,48352.000,7782,3,PI,1,100,157616
1576765768.527319,48384.000,7782,3,PI,1,100,157681
1576765768.567351,48417.667,7800,3,PI,1,100,157732
1576765768.607382,48451.333,7800,3,PI,1,100,157783
1576765768.647414,48485.000,7800,3,PI,1,100,157886
1576765768.688635,48519.667,7819,3,PI,1,100,158016
1576765768.729856,48554.333,7819,3,PI,1,100,158124
1576765768.771076,48589.000,7819,3,PI,1,100,158220
1576765768.816261,48627.000,7836,3,PI,1,100,158318
1576765768.861445,48665.000,7836,3,PI,1,100,158406
1576765768.906629,48703.000,7836,3,PI,1,100,158469
1576765768.945076,48735.333,7854,3,PI,1,100,158556
1576765768.983522,48767.667,7854,3,PI,1,100,158657
1576765769.021968,48800.000,7854,3,PI,1,100,158713
1576765769.063585,48835.000,7870,3,PI,1,100,158731
1576765769.105202,48870.000,7870,3,PI,1,100,158530
1576765769.146820,48905.000,7870,3,PI,1,100,158156
1576765769.185662,48937.667,7888,3,PI,1,100,157870
1576765769.224505,48970.333,7888,3,PI,1,100,157735
1576765769.263347,49003.000,7888,3,PI,1,100,157650
1576765769.301001,49034.667,7906,3,PI,1,100,157658
1576765769.338655,49066.333,7906,3,PI,1,100,157742
1576765769.376308,49098.000,7906,3,PI,1,100,157811
1576765769.416736,49132.000,7924,3,PI,1,100,157849
1576765769.457164,49166.000,7924,3,PI,1,100,157890
1576765769.497592,49200.000,7924,3,PI,1,100,157945
1576765769.538417,49234.333,7942,3,PI,1,100,158044
1576765769.579241,49268.667,7942,3,PI,1,100,158178
1576765769.620066,49303.000,7942,3,PI,1,100,158241
1576765769.661683,49338.000,7961,3,PI,1,100,158342
1576765769.703300,49373.000,7961,3,PI,1,100,158508
1576765769.744917,49408.000,7961,3,PI,1,100,158628
1576765769.784156,49441.000,7979,3,PI,1,100,158712
1576765769.823395,49474.000,7979,3,PI,1,100,158707
1576765769.862634,49507.000,7979,3,PI,1,100,158757
1576765769.901080,49539.333,7996,3,PI,1,100,158883
1576765769.939527,49571.667,7996,3,PI,1,100,159024
1576765769.977973,49604.000,7996,3,PI,1,100,159074
1576765770.017608,49637.333,8014,3,PI,1,100,159130
1576765770.057244,49670.667,8014,3,PI,1,100,159201
1576765770.096879,49704.000,8014,3,PI,1,100,159309
1576765770.137307,49738.000,8032,3,PI,1,100,159393
1576765770.177735,49772.000,8032,3,PI,1,100,159313
1576765770.218163,49806.000,8032,3,PI,1,100,158904
1576765770.258988,49840.333,8048,3,PI,1,100,158499
1576765770.299812,49874.667,8048,3,PI,1,100,158240
1576765770.340636,49909.000,8048,3,PI,1,100,158051
1576765770.381065,49943.000,8066,3,PI,1,100,157906
1576765770.421493,49977.000,8066,3,PI,1,100,157874
1576765770.461921,50011.000,8066,3,PI,1,100,157889
1576765770.499574,50042.667,8084,3,PI,1,100,157907
1576765770.537228,50074.333,8084,3,PI,1,100,157899
1576765770.574882,50106.000,8084,3,PI,1,100,157892
1576765770.618480,50142.667,8103,3,PI,1,100,157942
1576765770.662079,50179.333,8103,3,PI,1,100,158037
1576765770.705678,50216.000,8103,3,PI,1,100,158130
1576765770.746503,50250.333,8121,3,PI,1,100,158208
1576765770.787327,50284.667,8121,3,PI,1,100,158251
1576765770.828151,50319.000,8121,3,PI,1,100,158336
1576765770.869769,50354.000,8139,2,PI,1,100,158417
1576765770.911386,50389.000,8139,2,PI,1,100,158451
1576765770.953003,50424.000,8157,3,PI,1,100,158498
1576765770.994620,50459.000,8157,3,PI,1,100,158673
1576765771.036237,50494.000,8157,3,PI,1,100,158774
1576765771.073990,50525.750,8174,4,PI,1,100,158804
1576765771.111742,50557.500,8174,4,PI,1,100,158801
1576765771.149495,50589.250,8174,4,PI,1,100,158890
1576765771.187248,50621.000,8174,4,PI,1,100,159024
1576765771.226883,50654.333,8192,3,PI,1,100,158951
1576765771.266519,50687.667,8192,3,PI,1,100,158549
1576765771.306154,50721.000,8192,3,PI,1,100,158173
1576765771.346978,50755.333,8210,3,PI,1,100,158004
1576765771.387803,50789.667,8210,3,PI,1,100,157967
1576765771.428627,50824.000,8210,3,PI,1,100,157916
1576765771.467073,50856.333,8226,3,PI,1,100,157975
1576765771.505520,50888.667,8226,3,PI,1,100,157993
1576765771.543966,50921.000,8226,3,PI,1,100,157976
1576765771.585187,50955.667,8244,3,PI,1,100,157882
1576765771.626408,50990.333,8244,3,PI,1,100,157774
1576765771.667628,51025.000,8244,3,PI,1,100,157720
1576765771.703696,51055.333,8263,3,PI,1,100,157716
1576765771.739765,51085.667,8263,3,PI,1,100,157628
1576765771.775833,51116.000,8263,3,PI,1,100,157618
1576765771.818243,51151.667,8281,3,PI,1,100,157547
1576765771.860652,51187.333,8281,3,PI,1,100,157444
1576765771.903062,51223.000,8281,3,PI,1,100,157525
1576765771.943094,51256.667,8299,3,PI,1,100,157561
1576765771.983126,51290.333,8299,3,PI,1,100,157679
1576765772.023158,51324.000,8299,3,PI,1,100,157850
1576765772.064378,51358.667,8317,3,PI,1,100,158036
1576765772.105599,51393.333,8317,3,PI,1,100,158340
1576765772.146820,51428.000,8317,3,PI,1,100,158542
1576765772.190221,51464.500,8335,2,PI,1,100,158703
1576765772.233621,51501.000,8335,2,PI,1,100,158752
1576765772.271968,51533.250,8353,4,PI,1,100,158452
1576765772.310316,51565.500,8353,4,PI,1,100,158114
1576765772.348663,51597.750,8353,4,PI,1,100,157737
1576765772.387010,51630.000,8353,4,PI,1,100,157488
1576765772.434572,51670.000,8370,2,PI,1,100,157123
1576765772.482135,51710.000,8370,2,PI,1,100,156876
1576765772.519789,51741.667,8386,3,PI,1,100,156741
1576765772.557442,51773.333,8386,3,PI,1,100,156627
1576765772.595096,51805.000,8386,3,PI,1,100,156580
1576765772.636317,51839.667,8405,3,PI,1,100,156495
1576765772.677537,51874.333,8405,3,PI,1,100,156436
1576765772.718758,51909.000,8405,3,PI,1,100,156434
1576765772.756511,51940.750,8423,4,PI,1,100,156464
1576765772.794263,51972.500,8423,4,PI,1,100,156508
1576765772.832016,52004.250,8423,4,PI,1,100,156545
1576765772.869769,52036.000,8423,4,PI,1,100,156577
1576765772.909008,52069.000,8441,3,PI,1,100,156592
1576765772.948247,52102.000,8441,3,PI,1,100,156643
1576765772.987486,52135.000,8441,3,PI,1,100,156693
1576765773.028310,52169.333,8459,3,PI,1,100,156688
1576765773.069134,52203.667,8459,3,PI,1,100,156824
1576765773.109959,52238.000,8459,3,PI,1,100,156923
1576765773.150387,52272.000,8477,2,PI,1,100,156983
1576765773.190815,52306.000,8477,2,PI,1,100,156999
1576765773.232829,52341.333,8495,3,PI,1,100,156811
1576765773.274842,52376.667,8495,3,PI,1,100,156508
1576765773.316856,52412.000,8495,3,PI,1,100,156299
1576765773.355203,52444.250,8513,4,PI,1,100,156194
1576765773.393550,52476.500,8513,4,PI,1,100,156116
1576765773.431897,52508.750,8513,4,PI,1,100,156167
1576765773.470244,52541.000,8513,4,PI,1,100,156335
1576765773.508691,52573.333,8530,3,PI,1,100,156525
1576765773.547137,52605.667,8530,3,PI,1,100,156633
1576765773.585583,52638.000,8530,3,PI,1,100,156739
1576765773.626011,52672.000,8548,3,PI,1,100,156891
1576765773.666440,52706.000,8548,3,PI,1,100,157127
1576765773.706867,52740.000,8548,3,PI,1,100,157271
1576765773.747890,52774.500,8570,4,PI,1,100,157355
1576765773.788913,52809.000,8570,4,PI,1,100,157519
1576765773.829935,52843.500,8570,4,PI,1,100,157637
1576765773.870958,52878.000,8570,4,PI,1,100,157731
1576765773.911782,52912.333,8590,3,PI,1,100,157717
1576765773.952607,52946.667,8590,3,PI,1,100,157710
1576765773.993431,52981.000,8590,3,PI,1,100,157756
1576765774.035048,53016.000,8608,3,PI,1,100,157842
1576765774.076665,53051.000,8608,3,PI,1,100,157804
1576765774.118283,53086.000,8608,3,PI,1,100,157627
1576765774.157125,53118.667,8626,3,PI,1,100,157573
1576765774.195968,53151.333,8626,3,PI,1,100,157610
1576765774.234811,53184.000,8626,3,PI,1,100,157756
1576765774.274842,53217.667,8643,3,PI,1,100,157921
1576765774.314874,53251.333,8643,3,PI,1,100,158094
1576765774.354906,53285.000,8643,3,PI,1,100,158318
1576765774.396523,53320.000,8661,3,PI,1,100,158403
1576765774.438140,53355.000,8661,3,PI,1,100,158506
1576765774.479757,53390.000,8661,3,PI,1,100,158518
1576765774.520978,53424.667,8677,3,PI,1,100,158547
1576765774.562199,53459.333,8677,3,PI,1,100,158637
1576765774.603419,53494.000,8677,3,PI,1,100,158722
1576765774.641469,53526.000,8696,3,PI,1,100,158756
1576765774.679519,53558.000,8696,3,PI,1,100,158771
1576765774.717569,53590.000,8696,3,PI,1,100,158808
1576765774.756016,53622.333,8714,3,PI,1,100,158876
1576765774.794462,53654.667,8714,3,PI,1,100,159027
1576765774.832908,53687.000,8714,3,PI,1,100,159157
1576765774.873336,53721.000,8732,3,PI,1,100,159188
1576765774.913764,53755.000,8732,3,PI,1,100,158897
1576765774.954192,53789.000,8732,3,PI,1,100,158566
1576765774.996206,53824.333,8750,3,PI,1,100,158380
1576765775.038219,53859.667,8750,3,PI,1,100,158232
1576765775.080233,53895.000,8750,3,PI,1,100,158253
1576765775.122246,53930.333,8768,3,PI,1,100,158307
1576765775.164260,53965.667,8768,3,PI,1,100,158422
1576765775.206273,54001.000,8768,3,PI,1,100,158520
1576765775.243927,54032.667,8786,3,PI,1,100,158646
1576765775.281580,54064.333,8786,3,PI,1,100,158656
1576765775.319234,54096.000,8786,3,PI,1,100,158467
1576765775.356095,54127.000,8804,3,PI,1,100,158452
1576765775.392956,54158.000,8804,3,PI,1,100,158607
1576765775.429816,54189.000,8804,3,PI,1,100,158805
1576765775.470245,54223.000,8821,3,PI,1,100,158981
1576765775.510673,54257.000,8821,3,PI,1,100,159023
1576765775.551101,54291.000,8821,3,PI,1,100,159033
1576765775.592718,54326.000,8839,3,PI,1,100,159062
1576765775.634335,54361.000,8839,3,PI,1,100,159188
1576765775.675952,54396.000,8839,3,PI,1,100,159335
1576765775.717173,54430.667,8856,3,PI,1,100,159252
1576765775.758394,54465.333,8856,3,PI,1,100,158954
1576765775.799614,54500.000,8856,3,PI,1,100,158793
1576765775.838853,54533.000,8874,3,PI,1,100,158774
1576765775.878093,54566.000,8874,3,PI,1,100,158835
1576765775.917331,54599.000,8874,3,PI,1,100,158888
1576765775.954192,54630.000,8892,3,PI,1,100,158907
1576765775.991053,54661.000,8892,3,PI,1,100,158846
1576765776.027914,54692.000,8892,3,PI,1,100,158744
1576765776.065964,54724.000,8910,4,PI,1,100,158631
1576765776.104014,54756.000,8910,4,PI,1,100,158637
1576765776.142064,54788.000,8910,4,PI,1,100,158721
1576765776.180114,54820.000,8910,4,PI,1,100,158921
1576765776.220146,54853.667,8928,3,PI,1,100,159013
1576765776.260177,54887.333,8928,3,PI,1,100,159084
1576765776.300209,54921.000,8928,3,PI,1,100,158986
1576765776.346582,54960.000,8946,2,PI,1,100,158915
1576765776.392956,54999.000,8946,2,PI,1,100,158858
1576765776.434176,55033.667,8964,3,PI,1,100,158759
1576765776.475397,55068.333,8964,3,PI,1,100,158809
1576765776.516618,55103.000,8964,3,PI,1,100,158882
1576765776.554668,55135.000,8982,3,PI,1,100,158908
1576765776.592718,55167.000,8982,3,PI,1,100,158728
1576765776.630768,55199.000,8982,3,PI,1,100,158489
1576765776.672385,55234.000,9000,3,PI,1,100,158325
1576765776.714002,55269.000,9000,3,PI,1,100,158267
1576765776.755619,55304.000,9000,3,PI,1,100,158343
1576765776.797633,55339.333,9016,3,PI,1,100,158391
1576765776.839646,55374.667,9016,3,PI,1,100,158442
1576765776.881660,55410.000,9016,3,PI,1,100,158468
1576765776.919313,55441.667,9034,3,PI,1,100,158586
1576765776.956967,55473.333,9034,3,PI,1,100,158696
1576765776.994621,55505.000,9034,3,PI,1,100,158913
1576765777.034256,55538.333,9052,3,PI,1,100,159046
1576765777.073891,55571.667,9052,3,PI,1,100,159188
1576765777.113527,55605.000,9052,3,PI,1,100,159285
1576765777.152766,55638.000,9070,3,PI,1,100,159396
1576765777.192005,55671.000,9070,3,PI,1,100,159474
1576765777.231244,55704.000,9070,3,PI,1,100,159521
1576765777.272464,55738.667,9088,3,PI,1,100,159584
1576765777.313685,55773.333,9088,3,PI,1,100,159642
1576765777.354906,55808.000,9088,3,PI,1,100,159718
1576765777.396523,55843.000,9106,3,PI,1,100,159760
1576765777.438140,55878.000,9106,3,PI,1,100,159793
1576765777.479757,55913.000,9106,3,PI,1,100,159591
1576765777.521374,55948.000,9124,3,PI,1,100,159259
1576765777.562992,55983.000,9124,3,PI,1,100,159063
1576765777.604609,56018.000,9124,3,PI,1,100,158976
1576765777.646226,56053.000,9142,3,PI,1,100,158949
1576765777.687843,56088.000,9142,3,PI,1,100,158977
1576765777.729460,56123.000,9142,3,PI,1,100,159081
1576765777.767114,56154.667,9160,3,PI,1,100,159136
1576765777.804767,56186.333,9160,3,PI,1,100,159119
1576765777.842421,56218.000,9160,3,PI,1,100,159097
1576765777.880867,56250.333,9178,3,PI,1,100,159074
1576765777.919313,56282.667,9178,3,PI,1,100,159096
1576765777.957760,56315.000,9178,3,PI,1,100,159129
1576765777.997395,56348.333,9194,3,PI,1,100,159200
1576765778.037030,56381.667,9194,3,PI,1,100,159263
1576765778.076666,56415.000,9194,3,PI,1,100,159334
1576765778.117887,56449.667,9212,3,PI,1,100,159369
1576765778.159107,56484.333,9212,3,PI,1,100,159410
1576765778.200328,56519.000,9212,3,PI,1,100,159463
1576765778.242342,56554.333,9230,3,PI,1,100,159492
1576765778.284355,56589.667,9230,3,PI,1,100,159581
1576765778.326369,56625.000,9230,3,PI,1,100,159712
1576765778.364419,56657.000,9248,3,PI,1,100,159674
1576765778.402468,56689.000,9248,3,PI,1,100,159332
1576765778.440518,56721.000,9248,3,PI,1,100,159026
1576765778.478965,56753.333,9266,3,PI,1,100,158883
1576765778.517411,56785.667,9266,3,PI,1,100,158877
1576765778.555857,56818.000,9266,3,PI,1,100,158896
1576765778.595889,56851.667,9284,3,PI,1,100,158917
1576765778.635921,56885.333,9284,3,PI,1,100,158912
1576765778.675952,56919.000,9284,3,PI,1,100,158903
1576765778.717173,56953.667,9303,3,PI,1,100,158871
1576765778.758394,56988.333,9303,3,PI,1,100,158894
1576765778.799615,57023.000,9303,3,PI,1,100,158935
1576765778.841628,57058.333,9320,3,PI,1,100,158989
1576765778.883642,57093.667,9320,3,PI,1,100,159036
1576765778.925655,57129.000,9320,3,PI,1,100,159083
1576765778.964102,57161.333,9338,3,PI,1,100,159136
1576765779.002548,57193.667,9338,3,PI,1,100,159166
1576765779.040994,57226.000,9338,3,PI,1,100,159231
1576765779.079440,57258.333,9356,3,PI,1,100,159281
1576765779.117887,57290.667,9356,3,PI,1,100,159330
1576765779.156333,57323.000,9356,3,PI,1,100,159369
1576765779.200328,57360.000,9374,3,PI,1,100,159366
1576765779.244323,57397.000,9374,3,PI,1,100,159173
1576765779.288319,57434.000,9374,3,PI,1,100,158827
1576765779.329540,57468.667,9390,3,PI,1,100,158556
1576765779.370760,57503.333,9390,3,PI,1,100,158417
1576765779.411981,57538.000,9390,3,PI,1,100,158322
1576765779.450824,57570.667,9408,3,PI,1,100,158294
1576765779.489666,57603.333,9408,3,PI,1,100,158356
1576765779.528509,57636.000,9408,3,PI,1,100,158365
1576765779.566955,57668.333,9426,3,PI,1,100,158313
1576765779.605402,57700.667,9426,3,PI,1,100,158357
1576765779.643848,57733.000,9426,3,PI,1,100,158368
1576765779.682294,57765.333,9445,3,PI,1,100,158410
1576765779.720741,57797.667,9445,3,PI,1,100,158411
1576765779.759187,57830.000,9445,3,PI,1,100,158446
1576765779.799377,57863.800,9466,5,PI,1,100,158577
1576765779.839567,57897.600,9466,5,PI,1,100,158663
1576765779.879757,57931.400,9466,5,PI,1,100,158720
1576765779.919948,57965.200,9466,5,PI,1,100,158708
1576765779.960138,57999.000,9466,5,PI,1,100,158709
1576765780.001359,58033.667,9486,3,PI,1,100,158763
1576765780.042580,58068.333,9486,3,PI,1,100,158843
1576765780.083800,58103.000,9486,3,PI,1,100,158903
1576765780.124625,58137.333,9504,3,PI,1,100,158779
1576765780.165449,58171.667,9504,3,PI,1,100,158447
1576765780.206274,58206.000,9504,3,PI,1,100,158146
1576765780.247494,58240.667,9522,3,PI,1,100,157960
1576765780.288715,58275.333,9522,3,PI,1,100,157844
1576765780.329936,58310.000,9522,3,PI,1,100,157827
1576765780.367193,58341.333,9540,3,PI,1,100,157870
1576765780.404450,58372.667,9540,3,PI,1,100,157878
1576765780.441708,58404.000,9540,3,PI,1,100,157865
1576765780.479361,58435.667,9558,3,PI,1,100,157866
1576765780.517015,58467.333,9558,3,PI,1,100,157874
1576765780.554668,58499.000,9558,3,PI,1,100,157916
1576765780.593511,58531.667,9576,3,PI,1,100,157999
1576765780.632354,58564.333,9576,3,PI,1,100,158092
1576765780.671196,58597.000,9576,3,PI,1,100,158142
1576765780.711624,58631.000,9595,3,PI,1,100,158212
1576765780.752053,58665.000,9595,3,PI,1,100,158284
1576765780.792480,58699.000,9595,3,PI,1,100,158356
1576765780.833701,58733.667,9613,3,PI,1,100,158434
1576765780.874922,58768.333,9613,3,PI,1,100,158472
1576765780.916143,58803.000,9613,3,PI,1,100,158544
1576765780.961327,58841.000,9630,3,PI,1,100,158623
1576765781.006511,58879.000,9630,3,PI,1,100,158697
1576765781.051696,58917.000,9630,3,PI,1,100,158767
1576765781.087764,58947.333,9648,3,PI,1,100,158621
1576765781.123832,58977.667,9648,3,PI,1,100,158234
1576765781.159900,59008.000,9648,3,PI,1,100,157918
1576765781.200725,59042.333,9664,3,PI,1,100,157779
1576765781.241549,59076.667,9664,3,PI,1,100,157690
1576765781.282374,59111.000,9664,3,PI,1,100,157665
1576765781.320027,59142.667,9682,3,PI,1,100,157688
1576765781.357681,59174.333,9682,3,PI,1,100,157722
1576765781.395334,59206.000,9682,3,PI,1,100,157689
1576765781.435366,59239.667,9700,3,PI,1,100,157677
1576765781.475398,59273.333,9700,3,PI,1,100,157704
1576765781.515429,59307.000,9700,3,PI,1,100,157743
1576765781.555461,59340.667,9718,3,PI,1,100,157801
1576765781.595493,59374.333,9718,3,PI,1,100,157834
1576765781.635525,59408.000,9718,3,PI,1,100,157878
1576765781.676745,59442.667,9737,3,PI,1,100,157930
1576765781.717966,59477.333,9737,3,PI,1,100,157939
1576765781.759187,59512.000,9737,3,PI,1,100,158042
1576765781.800408,59546.667,9755,3,PI,1,100,158117
1576765781.841629,59581.333,9755,3,PI,1,100,158202
1576765781.882849,59616.000,9755,3,PI,1,100,158228
1576765781.920503,59647.667,9773,3,PI,1,100,158271
1576765781.958156,59679.333,9773,3,PI,1,100,158415
1576765781.995810,59711.000,9773,3,PI,1,100,158525
1576765782.034653,59743.667,9791,3,PI,1,100,158607
1576765782.073495,59776.333,9791,3,PI,1,100,158671
1576765782.112338,59809.000,9791,3,PI,1,100,158680
1576765782.152370,59842.667,9808,3,PI,1,100,158418
1576765782.192401,59876.333,9808,3,PI,1,100,158041
1576765782.232433,59910.000,9808,3,PI,1,100,157727
1576765782.273257,59944.333,9826,3,PI,1,100,157561
1576765782.314082,59978.667,9826,3,PI,1,100,157486
1576765782.354906,60013.000,9826,3,PI,1,100,157443
1576765782.396920,60048.333,9842,3,PI,1,100,157451
1576765782.438933,60083.667,9842,3,PI,1,100,157469
1576765782.480947,60119.000,9842,3,PI,1,100,157476
1576765782.518997,60151.000,9860,3,PI,1,100,157456
1576765782.557047,60183.000,9860,3,PI,1,100,157471
1576765782.595097,60215.000,9860,3,PI,1,100,157491
1576765782.637506,60250.667,9879,3,PI,1,100,157554
1576765782.679916,60286.333,9879,3,PI,1,100,157640
1576765782.722326,60322.000,9879,3,PI,1,100,157703
1576765782.761961,60355.333,9897,3,PI,1,100,157770
1576765782.801597,60388.667,9897,3,PI,1,100,157829
1576765782.841232,60422.000,9897,3,PI,1,100,157875
1576765782.882453,60456.667,9915,3,PI,1,100,157932
1576765782.923674,60491.333,9915,3,PI,1,100,157961
1576765782.964895,60526.000,9915,3,PI,1,100,157986
1576765783.006908,60561.333,9933,3,PI,1,100,158097
1576765783.048922,60596.667,9933,3,PI,1,100,158217
1576765783.090935,60632.000,9933,3,PI,1,100,158330
1576765783.129381,60664.333,9951,3,PI,1,100,158253
1576765783.167828,60696.667,9951,3,PI,1,100,157943
1576765783.206274,60729.000,9951,3,PI,1,100,157722
1576765783.241946,60759.000,9968,3,PI,1,100,157693
1576765783.277617,60789.000,9968,3,PI,1,100,157747
1576765783.313289,60819.000,9968,3,PI,1,100,157815
1576765783.353321,60852.667,9986,3,PI,1,100,157911
1576765783.393353,60886.333,9986,3,PI,1,100,158013
1576765783.433384,60920.000,9986,3,PI,1,100,158049
1576765783.475002,60955.000,10004,3,PI,1,100,158049
1576765783.516619,60990.000,10004,3,PI,1,100,158000
1576765783.558236,61025.000,10004,3,PI,1,100,157972
1576765783.599060,61059.333,10020,3,PI,1,100,157937
1576765783.639885,61093.667,10020,3,PI,1,100,157873
1576765783.680709,61128.000,10020,3,PI,1,100,157796
1576765783.719155,61160.333,10039,3,PI,1,100,157702
1576765783.757602,61192.667,10039,3,PI,1,100,157586
1576765783.796048,61225.000,10039,3,PI,1,100,157418
1576765783.834494,61257.333,10057,3,PI,1,100,157286
1576765783.872941,61289.667,10057,3,PI,1,100,157228
1576765783.911387,61322.000,10057,3,PI,1,100,157234
1576765783.953004,61357.000,10075,3,PI,1,100,157251
1576765783.994621,61392.000,10075,3,PI,1,100,157262
1576765784.036238,61427.000,10075,3,PI,1,100,157299
1576765784.075081,61459.667,10093,3,PI,1,100,157273
1576765784.113924,61492.333,10093,3,PI,1,100,156925
1576765784.152766,61525.000,10093,3,PI,1,100,156500
1576765784.193194,61559.000,10111,3,PI,1,100,156199
1576765784.233622,61593.000,10111,3,PI,1,100,156059
1576765784.274050,61627.000,10111,3,PI,1,100,156019
1576765784.315271,61661.667,10129,3,PI,1,100,156005
1576765784.356492,61696.333,10129,3,PI,1,100,156023
1576765784.397713,61731.000,10129,3,PI,1,100,155999
1576765784.443293,61769.333,10146,3,PI,1,100,155961
1576765784.488874,61807.667,10146,3,PI,1,100,155900
1576765784.534455,61846.000,10146,3,PI,1,100,155852
1576765784.572505,61878.000,10164,3,PI,1,100,155875
1576765784.610555,61910.000,10164,3,PI,1,100,155879
1576765784.648605,61942.000,10164,3,PI,1,100,155895
1576765784.690222,61977.000,10181,3,PI,1,100,155932
1576765784.731839,62012.000,10181,3,PI,1,100,155948
1576765784.773456,62047.000,10181,3,PI,1,100,155950
1576765784.811902,62079.333,10199,3,PI,1,100,155987
1576765784.850348,62111.667,10199,3,PI,1,100,156038
1576765784.888795,62144.000,10199,3,PI,1,100,156094
1576765784.926845,62176.000,10217,3,PI,1,100,156170
1576765784.964895,62208.000,10217,3,PI,1,100,156255
1576765785.002945,62240.000,10217,3,PI,1,100,156341
1576765785.043373,62274.000,10235,3,PI,1,100,156160
1576765785.083801,62308.000,10235,3,PI,1,100,155843
1576765785.124229,62342.000,10235,3,PI,1,100,155598
1576765785.164657,62376.000,10253,3,PI,1,100,155507
1576765785.205085,62410.000,10253,3,PI,1,100,155509
1576765785.245513,62444.000,10253,3,PI,1,100,155529
1576765785.287130,62479.000,10271,3,PI,1,100,155702
1576765785.328747,62514.000,10271,3,PI,1,100,155840
1576765785.370364,62549.000,10271,3,PI,1,100,155934
1576765785.410000,62582.333,10289,3,PI,1,100,155893
1576765785.449635,62615.667,10289,3,PI,1,100,155917
1576765785.489270,62649.000,10289,3,PI,1,100,156050
1576765785.527320,62681.000,10307,3,PI,1,100,156236
1576765785.565370,62713.000,10307,3,PI,1,100,156405
1576765785.603420,62745.000,10307,3,PI,1,100,156554
1576765785.643056,62778.333,10325,3,PI,1,100,156644
1576765785.682691,62811.667,10325,3,PI,1,100,156787
1576765785.722327,62845.000,10325,3,PI,1,100,156863
1576765785.762754,62879.000,10343,3,PI,1,100,156943
1576765785.803183,62913.000,10343,3,PI,1,100,157034
1576765785.843611,62947.000,10343,3,PI,1,100,157140
1576765785.884930,62981.750,10364,4,PI,1,100,157273
1576765785.926250,63016.500,10364,4,PI,1,100,157169
1576765785.967570,63051.250,10364,4,PI,1,100,156805
1576765786.008890,63086.000,10364,4,PI,1,100,156427
1576765786.046940,63118.000,10384,4,PI,1,100,156232
1576765786.084990,63150.000,10384,4,PI,1,100,156127
1576765786.123040,63182.000,10384,4,PI,1,100,156106
1576765786.161090,63214.000,10384,4,PI,1,100,156174
1576765786.203500,63249.667,10402,3,PI,1,100,156197
1576765786.245909,63285.333,10402,3,PI,1,100,156161
1576765786.288319,63321.000,10402,3,PI,1,100,156084
1576765786.328748,63355.000,10420,2,PI,1,100,156036
1576765786.369175,63389.000,10420,2,PI,1,100,156073
1576765786.411189,63424.333,10437,3,PI,1,100,156098
1576765786.453202,63459.667,10437,3,PI,1,100,156172
1576765786.495216,63495.000,10437,3,PI,1,100,156237
1576765786.536833,63530.000,10455,3,PI,1,100,156253
1576765786.578450,63565.000,10455,3,PI,1,100,156287
1576765786.620067,63600.000,10455,3,PI,1,100,156420
1576765786.659306,63633.000,10472,3,PI,1,100,156513
1576765786.698545,63666.000,10472,3,PI,1,100,156590
1576765786.737784,63699.000,10472,3,PI,1,100,156577
1576765786.775537,63730.750,10490,4,PI,1,100,156487
1576765786.813290,63762.500,10490,4,PI,1,100,156233
1576765786.851042,63794.250,10490,4,PI,1,100,155952
1576765786.888795,63826.000,10490,4,PI,1,100,155763
1576765786.929223,63860.000,10508,2,PI,1,100,155597
1576765786.969651,63894.000,10508,2,PI,1,100,155534
1576765787.011268,63929.000,10526,3,PI,1,100,155583
1576765787.052885,63964.000,10526,3,PI,1,100,155623
1576765787.094502,63999.000,10526,3,PI,1,100,155616
1576765787.132949,64031.333,10544,3,PI,1,100,155615
1576765787.171395,64063.667,10544,3,PI,1,100,155644
1576765787.209841,64096.000,10544,3,PI,1,100,155690
1576765787.248783,64128.750,10562,4,PI,1,100,155755
1576765787.287725,64161.500,10562,4,PI,1,100,155827
1576765787.326667,64194.250,10562,4,PI,1,100,155934
1576765787.365608,64227.000,10562,4,PI,1,100,156032
1576765787.403262,64258.667,10580,3,PI,1,100,156093
1576765787.440916,64290.333,10580,3,PI,1,100,156165
1576765787.478569,64322.000,10580,3,PI,1,100,156239
1576765787.521772,64358.333,10598,3,PI,1,100,156289
1576765787.564974,64394.667,10598,3,PI,1,100,156197
1576765787.608177,64431.000,10598,3,PI,1,100,155890
1576765787.649199,64465.500,10615,2,PI,1,100,155600
1576765787.690222,64500.000,10615,2,PI,1,100,155437
1576765787.731046,64534.333,10634,3,PI,1,100,155348
1576765787.771871,64568.667,10634,3,PI,1,100,155308
1576765787.812695,64603.000,10634,3,PI,1,100,155369
1576765787.854312,64638.000,10650,3,PI,1,100,155435
1576765787.895930,64673.000,10650,3,PI,1,100,155466
1576765787.937547,64708.000,10650,3,PI,1,100,155469
1576765787.975597,64740.000,10668,4,PI,1,100,155409
1576765788.013647,64772.000,10668,4,PI,1,100,155388
1576765788.051697,64804.000,10668,4,PI,1,100,155394
1576765788.089746,64836.000,10668,4,PI,1,100,155510
1576765788.125022,64865.667,10686,3,PI,1,100,155650
1576765788.160297,64895.333,10686,3,PI,1,100,155741
1576765788.195573,64925.000,10686,3,PI,1,100,155804
1576765788.237983,64960.667,10704,3,PI,1,100,155869
1576765788.280392,64996.333,10704,3,PI,1,100,155994
1576765788.322802,65032.000,10704,3,PI,1,100,156124
1576765788.357285,65061.000,10722,3,PI,1,100,156153
1576765788.391768,65090.000,10722,3,PI,1,100,155921
1576765788.426251,65119.000,10722,3,PI,1,100,155550
1576765788.465490,65152.000,10740,3,PI,1,100,155218
1576765788.504729,65185.000,10740,3,PI,1,100,155007
1576765788.543967,65218.000,10740,3,PI,1,100,154862
1576765788.583999,65251.667,10758,3,PI,1,100,154804
1576765788.624031,65285.333,10758,3,PI,1,100,154799
1576765788.664063,65319.000,10758,3,PI,1,100,154831
1576765788.705283,65353.667,10777,3,PI,1,100,154855
1576765788.746504,65388.333,10777,3,PI,1,100,154865
1576765788.787725,65423.000,10777,3,PI,1,100,154921
1576765788.829739,65458.333,10794,3,PI,1,100,154892
1576765788.871752,65493.667,10794,3,PI,1,100,154903
1576765788.913765,65529.000,10794,3,PI,1,100,154933
1576765788.951815,65561.000,10812,3,PI,1,100,155077
1576765788.989865,65593.000,10812,3,PI,1,100,155158
1576765789.027915,65625.000,10812,3,PI,1,100,155179
1576765789.065965,65657.000,10830,3,PI,1,100,155186
1576765789.104015,65689.000,10830,3,PI,1,100,155210
1576765789.142065,65721.000,10830,3,PI,1,100,155279
1576765789.181700,65754.333,10848,3,PI,1,100,155356
1576765789.221336,65787.667,10848,3,PI,1,100,155482
1576765789.260971,65821.000,10848,3,PI,1,100,155487
1576765789.302192,65855.667,10864,3,PI,1,100,155265
1576765789.343413,65890.333,10864,3,PI,1,100,154996
1576765789.384634,65925.000,10864,3,PI,1,100,154859
1576765789.426647,65960.333,10882,3,PI,1,100,154772
1576765789.468661,65995.667,10882,3,PI,1,100,154745
1576765789.510674,66031.000,10882,3,PI,1,100,154769
1576765789.549913,66064.000,10900,3,PI,1,100,154829
1576765789.589152,66097.000,10900,3,PI,1,100,154821
1576765789.628391,66130.000,10900,3,PI,1,100,154822
1576765789.669612,66164.667,10919,3,PI,1,100,154844
1576765789.710833,66199.333,10919,3,PI,1,100,154876
1576765789.752053,66234.000,10919,3,PI,1,100,154956
1576765789.791689,66267.333,10937,3,PI,1,100,155047
1576765789.831324,66300.667,10937,3,PI,1,100,155153
1576765789.870959,66334.000,10937,3,PI,1,100,155247
1576765789.912180,66368.667,10955,3,PI,1,100,155305
1576765789.953401,66403.333,10955,3,PI,1,100,155390
1576765789.994622,66438.000,10955,3,PI,1,100,155559
1576765790.035842,66472.667,10973,3,PI,1,100,155673
1576765790.077063,66507.333,10973,3,PI,1,100,155776
1576765790.118284,66542.000,10973,3,PI,1,100,155814
1576765790.157523,66575.000,10990,3,PI,1,100,155870
1576765790.196762,66608.000,10990,3,PI,1,100,156063
1576765790.236001,66641.000,10990,3,PI,1,100,156192
1576765790.273655,66672.667,11008,3,PI,1,100,156259
1576765790.311308,66704.333,11008,3,PI,1,100,156316
1576765790.348962,66736.000,11008,3,PI,1,100,156380
1576765790.388597,66769.333,11026,3,PI,1,100,156315
1576765790.428232,66802.667,11026,3,PI,1,100,155985
1576765790.467868,66836.000,11026,3,PI,1,100,155662
1576765790.509089,66870.667,11042,3,PI,1,100,155438
1576765790.550309,66905.333,11042,3,PI,1,100,155310
1576765790.591530,66940.000,11042,3,PI,1,100,155223
1576765790.633147,66975.000,11061,3,PI,1,100,155197
1576765790.674764,67010.000,11061,3,PI,1,100,155222
1576765790.716382,67045.000,11061,3,PI,1,100,155250
1576765790.756810,67079.000,11079,3,PI,1,100,155250
1576765790.797238,67113.000,11079,3,PI,1,100,155252
1576765790.837666,67147.000,11079,3,PI,1,100,155304
1576765790.875716,67179.000,11097,3,PI,1,100,155343
1576765790.913766,67211.000,11097,3,PI,1,100,155418
1576765790.951816,67243.000,11097,3,PI,1,100,155491
1576765790.991055,67276.000,11115,3,PI,1,100,155578
1576765791.030294,67309.000,11115,3,PI,1,100,155623
1576765791.069533,67342.000,11115,3,PI,1,100,155695
1576765791.110753,67376.667,11133,3,PI,1,100,155760
1576765791.151974,67411.333,11133,3,PI,1,100,155830
1576765791.193195,67446.000,11133,3,PI,1,100,155914
1576765791.234416,67480.667,11151,3,PI,1,100,156015
1576765791.275636,67515.333,11151,3,PI,1,100,156117
1576765791.316857,67550.000,11151,3,PI,1,100,156173
1576765791.357682,67584.333,11168,3,PI,1,100,156167
1576765791.398506,67618.667,11168,3,PI,1,100,156191
1576765791.439331,67653.000,11168,3,PI,1,100,156165
1576765791.476192,67684.000,11186,3,PI,1,100,155924
1576765791.513052,67715.000,11186,3,PI,1,100,155594
1576765791.549913,67746.000,11186,3,PI,1,100,155294
1576765791.588756,67778.667,11204,3,PI,1,100,155115
1576765791.627599,67811.333,11204,3,PI,1,100,155039
1576765791.666441,67844.000,11204,3,PI,1,100,155068
1576765791.707266,67878.333,11221,3,PI,1,100,155097
1576765791.748090,67912.667,11221,3,PI,1,100,155113
1576765791.788914,67947.000,11221,3,PI,1,100,155118
1576765791.831324,67982.667,11239,3,PI,1,100,155090
1576765791.873734,68018.333,11239,3,PI,1,100,155082
1576765791.916144,68054.000,11239,3,PI,1,100,155144
1576765791.954788,68086.500,11258,4,PI,1,100,155251
1576765791.993433,68119.000,11258,4,PI,1,100,155341
1576765792.032077,68151.500,11258,4,PI,1,100,155408
1576765792.070722,68184.000,11258,4,PI,1,100,155492
1576765792.112636,68219.250,11280,4,PI,1,100,155574
1576765792.154551,68254.500,11280,4,PI,1,100,155638
1576765792.196465,68289.750,11280,4,PI,1,100,155722
1576765792.238379,68325.000,11280,4,PI,1,100,155754
1576765792.279600,68359.667,11296,3,PI,1,100,155915
1576765792.320821,68394.333,11296,3,PI,1,100,156073
1576765792.362042,68429.000,11296,3,PI,1,100,156168
1576765792.403659,68464.000,11314,2,PI,1,100,156215
1576765792.445276,68499.000,11314,2,PI,1,100,156252
1576765792.483920,68531.500,11332,4,PI,1,100,156089
1576765792.522565,68564.000,11332,4,PI,1,100,155750
1576765792.561209,68596.500,11332,4,PI,1,100,155484
1576765792.599854,68629.000,11332,4,PI,1,100,155382
1576765792.639489,68662.333,11351,3,PI,1,100,155336
1576765792.679125,68695.667,11351,3,PI,1,100,155309
1576765792.718760,68729.000,11351,3,PI,1,100,155378
1576765792.758395,68762.333,11369,3,PI,1,100,155421
1576765792.798031,68795.667,11369,3,PI,1,100,155431
1576765792.837666,68829.000,11369,3,PI,1,100,155444
1576765792.879283,68864.000,11387,2,PI,1,100,155463
1576765792.920900,68899.000,11387,2,PI,1,100,155540
1576765792.965688,68936.667,11405,3,PI,1,100,155628
1576765793.010476,68974.333,11405,3,PI,1,100,155714
1576765793.055264,69012.000,11405,3,PI,1,100,155782
1576765793.092521,69043.333,11422,3,PI,1,100,155838
1576765793.129779,69074.667,11422,3,PI,1,100,155904
1576765793.167036,69106.000,11422,3,PI,1,100,155983
1576765793.208653,69141.000,11440,3,PI,1,100,156077
1576765793.250270,69176.000,11440,3,PI,1,100,156160
1576765793.291887,69211.000,11440,3,PI,1,100,156211
1576765793.330333,69243.333,11456,3,PI,1,100,156297
1576765793.368780,69275.667,11456,3,PI,1,100,156362
1576765793.407226,69308.000,11456,3,PI,1,100,156353
1576765793.445871,69340.500,11474,4,PI,1,100,156079
1576765793.484515,69373.000,11474,4,PI,1,100,155800
1576765793.523160,69405.500,11474,4,PI,1,100,155612
1576765793.561804,69438.000,11474,4,PI,1,100,155545
1576765793.601439,69471.333,11492,3,PI,1,100,155546
1576765793.641075,69504.667,11492,3,PI,1,100,155546
1576765793.680710,69538.000,11492,3,PI,1,100,155655
1576765793.722327,69573.000,11511,2,PI,1,100,155680
1576765793.763944,69608.000,11511,2,PI,1,100,155648
1576765793.805165,69642.667,11529,3,PI,1,100,155594
1576765793.846386,69677.333,11529,3,PI,1,100,155630
1576765793.887607,69712.000,11529,3,PI,1,100,155746
1576765793.926548,69744.750,11547,4,PI,1,100,155875
1576765793.965490,69777.500,11547,4,PI,1,100,155924
1576765794.004432,69810.250,11547,4,PI,1,100,155953
1576765794.043374,69843.000,11547,4,PI,1,100,156019
1576765794.081820,69875.333,11565,3,PI,1,100,156115
1576765794.120266,69907.667,11565,3,PI,1,100,156203
1576765794.158712,69940.000,11565,3,PI,1,100,156266
1576765794.197952,69973.000,11583,3,PI,1,100,156333
1576765794.237190,70006.000,11583,3,PI,1,100,156408
1576765794.276429,70039.000,11583,3,PI,1,100,156352
1576765794.317650,70073.667,11600,3,PI,1,100,156042
1576765794.358871,70108.333,11600,3,PI,1,100,155747
1576765794.400092,70143.000,11600,3,PI,1,100,155579
1576765794.441709,70178.000,11618,2,PI,1,100,155511
1576765794.483326,70213.000,11618,2,PI,1,100,155454
1576765794.527321,70250.000,11634,3,PI,1,100,155477
1576765794.571316,70287.000,11634,3,PI,1,100,155534
1576765794.615312,70324.000,11634,3,PI,1,100,155539
1576765794.653362,70356.000,11653,3,PI,1,100,155511
1576765794.691412,70388.000,11653,3,PI,1,100,155514
1576765794.729462,70420.000,11653,3,PI,1,100,155541
1576765794.768304,70452.667,11671,3,PI,1,100,155609
1576765794.807147,70485.333,11671,3,PI,1,100,155671
1576765794.845990,70518.000,11671,3,PI,1,100,155730
1576765794.886814,70552.333,11689,3,PI,1,100,155848
1576765794.927639,70586.667,11689,3,PI,1,100,155946
1576765794.968463,70621.000,11689,3,PI,1,100,155996
1576765795.010080,70656.000,11707,3,PI,1,100,156062
1576765795.051697,70691.000,11707,3,PI,1,100,156136
1576765795.093314,70726.000,11707,3,PI,1,100,156258
1576765795.130571,70757.333,11725,3,PI,1,100,156163
1576765795.167829,70788.667,11725,3,PI,1,100,155816
1576765795.205086,70820.000,11725,3,PI,1,100,155531
1576765795.242839,70851.750,11743,4,PI,1,100,155367
1576765795.280591,70883.500,11743,4,PI,1,100,155297
1576765795.318344,70915.250,11743,4,PI,1,100,155274
1576765795.356097,70947.000,11743,4,PI,1,100,155328
1576765795.395336,70980.000,11761,3,PI,1,100,155403
1576765795.434575,71013.000,11761,3,PI,1,100,155426
1576765795.473814,71046.000,11761,3,PI,1,100,155363
1576765795.515034,71080.667,11779,3,PI,1,100,155394
1576765795.556255,71115.333,11779,3,PI,1,100,155458
1576765795.597476,71150.000,11779,3,PI,1,100,155502
1576765795.638697,71184.667,11796,3,PI,1,100,155585
1576765795.679918,71219.333,11796,3,PI,1,100,155635
1576765795.721138,71254.000,11796,3,PI,1,100,155721
1576765795.765728,71291.500,11815,2,PI,1,100,155790
1576765795.810318,71329.000,11815,2,PI,1,100,155868
1576765795.848962,71361.500,11831,4,PI,1,100,155951
1576765795.887607,71394.000,11831,4,PI,1,100,156029
1576765795.926251,71426.500,11831,4,PI,1,100,155895
1576765795.964896,71459.000,11831,4,PI,1,100,155570
1576765796.004927,71492.667,11849,3,PI,1,100,155279
1576765796.044959,71526.333,11849,3,PI,1,100,155159
1576765796.084991,71560.000,11849,3,PI,1,100,155101
1576765796.121059,71590.333,11867,3,PI,1,100,155097
1576765796.157127,71620.667,11867,3,PI,1,100,155095
1576765796.193195,71651.000,11867,3,PI,1,100,155179
1576765796.238974,71689.500,11885,2,PI,1,100,155201
1576765796.284753,71728.000,11885,2,PI,1,100,155200
1576765796.321317,71758.750,11903,4,PI,1,100,155233
1576765796.357880,71789.500,11903,4,PI,1,100,155270
1576765796.394444,71820.250,11903,4,PI,1,100,155393
1576765796.431008,71851.000,11903,4,PI,1,100,155501
1576765796.472228,71885.667,11921,3,PI,1,100,155546
1576765796.513449,71920.333,11921,3,PI,1,100,155636
1576765796.554670,71955.000,11921,3,PI,1,100,155690
1576765796.595891,71989.667,11939,3,PI,1,100,155759
1576765796.637111,72024.333,11939,3,PI,1,100,155802
1576765796.678332,72059.000,11939,3,PI,1,100,155869
1576765796.720346,72094.333,11958,3,PI,1,100,155843
1576765796.762359,72129.667,11958,3,PI,1,100,155565
1576765796.804373,72165.000,11958,3,PI,1,100,155257
1576765796.843612,72198.000,11975,3,PI,1,100,155111
1576765796.882851,72231.000,11975,3,PI,1,100,155028
1576765796.922090,72264.000,11975,3,PI,1,100,154929
1576765796.959743,72295.667,11993,3,PI,1,100,154888
1576765796.997397,72327.333,11993,3,PI,1,100,154973
1576765797.035050,72359.000,11993,3,PI,1,100,155028
1576765797.075479,72393.000,12009,3,PI,1,100,155029
1576765797.115906,72427.000,12009,3,PI,1,100,155020
1576765797.156335,72461.000,12009,3,PI,1,100,155044
1576765797.197159,72495.333,12027,3,PI,1,100,155104
1576765797.237983,72529.667,12027,3,PI,1,100,155189
1576765797.278808,72564.000,12027,3,PI,1,100,155291
1576765797.320425,72599.000,12045,3,PI,1,100,155415
1576765797.362042,72634.000,12045,3,PI,1,100,155520
1576765797.403659,72669.000,12045,3,PI,1,100,155580
1576765797.443691,72702.667,12063,3,PI,1,100,155623
1576765797.483723,72736.333,12063,3,PI,1,100,155669
1576765797.523754,72770.000,12063,3,PI,1,100,155775
1576765797.561408,72801.667,12081,3,PI,1,100,155845
1576765797.599061,72833.333,12081,3,PI,1,100,155754
1576765797.636715,72865.000,12081,3,PI,1,100,155453
1576765797.679918,72901.333,12100,3,PI,1,100,155174
1576765797.723120,72937.667,12100,3,PI,1,100,155019
1576765797.766323,72974.000,12100,3,PI,1,100,154955
1576765797.806751,73008.000,12118,2,PI,1,100,154963
1576765797.847179,73042.000,12118,2,PI,1,100,155018
1576765797.887607,73076.000,12136,3,PI,1,100,155054
1576765797.928035,73110.000,12136,3,PI,1,100,155032
1576765797.968463,73144.000,12136,3,PI,1,100,154994
1576765798.008415,73177.600,12156,5,PI,1,100,155057
1576765798.048368,73211.200,12156,5,PI,1,100,155146
1576765798.088320,73244.800,12156,5,PI,1,100,155172
1576765798.128273,73278.400,12156,5,PI,1,100,155170
1576765798.168225,73312.000,12156,5,PI,1,100,155221
1576765798.206275,73344.000,12176,3,PI,1,100,155375
1576765798.244325,73376.000,12176,3,PI,1,100,155471
1576765798.282375,73408.000,12176,3,PI,1,100,155516
1576765798.322407,73441.667,12194,3,PI,1,100,155551
1576765798.362439,73475.333,12194,3,PI,1,100,155612
1576765798.402470,73509.000,12194,3,PI,1,100,155741
1576765798.444088,73544.000,12212,3,PI,1,100,155791
1576765798.485705,73579.000,12212,3,PI,1,100,155614
1576765798.527322,73614.000,12212,3,PI,1,100,155297
1576765798.568146,73648.333,12230,3,PI,1,100,155026
1576765798.608971,73682.667,12230,3,PI,1,100,154876
1576765798.649795,73717.000,12230,3,PI,1,100,154786
1576765798.689827,73750.667,12248,3,PI,1,100,154833
1576765798.729858,73784.333,12248,3,PI,1,100,154923
1576765798.769890,73818.000,12248,3,PI,1,100,154992
1576765798.807940,73850.000,12266,3,PI,1,100,154952
1576765798.845990,73882.000,12266,3,PI,1,100,154963
1576765798.884040,73914.000,12266,3,PI,1,100,154995
1576765798.923279,73947.000,12284,3,PI,1,100,155065
1576765798.962518,73980.000,12284,3,PI,1,100,155135
1576765799.001757,74013.000,12284,3,PI,1,100,155206
1576765799.043374,74048.000,12300,3,PI,1,100,155276
1576765799.084991,74083.000,12300,3,PI,1,100,155349
1576765799.126608,74118.000,12300,3,PI,1,100,155377
1576765799.167433,74152.333,12318,3,PI,1,100,155418
1576765799.208257,74186.667,12318,3,PI,1,100,155538
1576765799.249082,74221.000,12318,3,PI,1,100,155711
1576765799.289113,74254.667,12336,3,PI,1,100,155799
1576765799.329145,74288.333,12336,3,PI,1,100,155791
1576765799.369177,74322.000,12336,3,PI,1,100,155628
1576765799.407227,74354.000,12354,3,PI,1,100,155381
1576765799.445276,74386.000,12354,3,PI,1,100,155164
1576765799.483326,74418.000,12354,3,PI,1,100,154961
1576765799.521773,74450.333,12372,3,PI,1,100,154836
1576765799.560219,74482.667,12372,3,PI,1,100,154753
1576765799.598665,74515.000,12372,3,PI,1,100,154785
1576765799.639490,74549.333,12391,3,PI,1,100,154794
1576765799.680314,74583.667,12391,3,PI,1,100,154806
1576765799.721139,74618.000,12391,3,PI,1,100,154815
1576765799.763152,74653.333,12409,3,PI,1,100,154845
1576765799.805166,74688.667,12409,3,PI,1,100,154907
1576765799.847179,74724.000,12409,3,PI,1,100,154982
1576765799.886022,74756.667,12426,3,PI,1,100,155062
1576765799.924865,74789.333,12426,3,PI,1,100,155189
1576765799.963707,74822.000,12426,3,PI,1,100,155287
1576765800.008891,74860.000,12444,3,PI,1,100,155351
1576765800.054076,74898.000,12444,3,PI,1,100,155434
1576765800.099260,74936.000,12444,3,PI,1,100,155505
1576765800.137310,74968.000,12460,3,PI,1,100,155576
1576765800.175360,75000.000,12460,3,PI,1,100,155675
1576765800.213410,75032.000,12460,3,PI,1,100,155754
1576765800.255027,75067.000,12478,3,PI,1,100,155845
1576765800.296644,75102.000,12478,3,PI,1,100,155833
1576765800.338261,75137.000,12478,3,PI,1,100,155589
1576765800.377897,75170.333,12496,3,PI,1,100,155255
1576765800.417532,75203.667,12496,3,PI,1,100,155059
1576765800.457167,75237.000,12496,3,PI,1,100,154982
1576765800.495217,75269.000,12514,3,PI,1,100,154951
1576765800.533267,75301.000,12514,3,PI,1,100,154999
1576765800.571317,75333.000,12514,3,PI,1,100,155065
1576765800.610952,75366.333,12532,3,PI,1,100,155084
1576765800.650588,75399.667,12532,3,PI,1,100,155056
1576765800.690223,75433.000,12532,3,PI,1,100,155010
1576765800.731048,75467.333,12551,3,PI,1,100,155086
1576765800.771872,75501.667,12551,3,PI,1,100,155145
1576765800.812696,75536.000,12551,3,PI,1,100,155236
1576765800.857881,75574.000,12569,3,PI,1,100,155344
1576765800.903065,75612.000,12569,3,PI,1,100,155424
1576765800.948249,75650.000,12569,3,PI,1,100,155512
1576765800.985903,75681.667,12586,3,PI,1,100,155584
1576765801.023556,75713.333,12586,3,PI,1,100,155683
1576765801.061210,75745.000,12586,3,PI,1,100,155732
1576765801.102827,75780.000,12604,3,PI,1,100,155830
1576765801.144444,75815.000,12604,3,PI,1,100,155974
1576765801.186062,75850.000,12604,3,PI,1,100,156119
1576765801.225697,75883.333,12620,3,PI,1,100,156241
1576765801.265332,75916.667,12620,3,PI,1,100,156316
1576765801.304968,75950.000,12620,3,PI,1,100,156148
1576765801.342621,75981.667,12638,3,PI,1,100,155857
1576765801.380275,76013.333,12638,3,PI,1,100,155621
1576765801.417928,76045.000,12638,3,PI,1,100,155522
1576765801.457564,76078.333,12656,3,PI,1,100,155452
1576765801.497199,76111.667,12656,3,PI,1,100,155435
1576765801.536834,76145.000,12656,3,PI,1,100,155427
1576765801.577262,76179.000,12674,3,PI,1,100,155441
1576765801.617691,76213.000,12674,3,PI,1,100,155426
1576765801.658119,76247.000,12674,3,PI,1,100,155476
1576765801.699339,76281.667,12693,3,PI,1,100,155514
1576765801.740560,76316.333,12693,3,PI,1,100,155527
1576765801.781781,76351.000,12693,3,PI,1,100,155498
1576765801.821813,76384.667,12711,3,PI,1,100,155585
1576765801.861844,76418.333,12711,3,PI,1,100,155696
1576765801.901876,76452.000,12711,3,PI,1,100,155765
1576765801.939926,76484.000,12729,3,PI,1,100,155793
1576765801.977976,76516.000,12729,3,PI,1,100,155828
1576765802.016026,76548.000,12729,3,PI,1,100,155887
1576765802.055661,76581.333,12747,3,PI,1,100,155956
1576765802.095297,76614.667,12747,3,PI,1,100,156031
1576765802.134932,76648.000,12747,3,PI,1,100,156084
1576765802.175360,76682.000,12764,3,PI,1,100,156170
1576765802.215788,76716.000,12764,3,PI,1,100,156224
1576765802.256216,76750.000,12764,3,PI,1,100,156078
1576765802.297437,76784.667,12782,3,PI,1,100,155867
1576765802.338658,76819.333,12782,3,PI,1,100,155752
1576765802.379879,76854.000,12782,3,PI,1,100,155741
1576765802.421099,76888.667,12798,3,PI,1,100,155727
1576765802.462320,76923.333,12798,3,PI,1,100,155792
1576765802.503541,76958.000,12798,3,PI,1,100,155860
1576765802.544762,76992.667,12816,3,PI,1,100,155891
1576765802.585982,77027.333,12816,3,PI,1,100,155876
1576765802.627203,77062.000,12816,3,PI,1,100,155859
1576765802.666442,77095.000,12835,3,PI,1,100,155866
1576765802.705681,77128.000,12835,3,PI,1,100,155905
1576765802.744920,77161.000,12835,3,PI,1,100,155941
1576765802.785348,77195.000,12853,3,PI,1,100,155957
1576765802.825776,77229.000,12853,3,PI,1,100,156034
1576765802.866204,77263.000,12853,3,PI,1,100,156090
1576765802.907029,77297.333,12871,3,PI,1,100,156137
1576765802.947853,77331.667,12871,3,PI,1,100,156087
1576765802.988678,77366.000,12871,3,PI,1,100,156077
1576765803.027124,77398.333,12889,3,PI,1,100,156180
1576765803.065570,77430.667,12889,3,PI,1,100,156253
1576765803.104017,77463.000,12889,3,PI,1,100,156232
1576765803.140481,77493.667,12907,3,PI,1,100,156132
1576765803.176946,77524.333,12907,3,PI,1,100,155870
1576765803.213410,77555.000,12907,3,PI,1,100,155636
1576765803.253046,77588.333,12925,3,PI,1,100,155511
1576765803.292681,77621.667,12925,3,PI,1,100,155441
1576765803.332316,77655.000,12925,3,PI,1,100,155401
1576765803.372348,77688.667,12942,3,PI,1,100,155422
1576765803.412380,77722.333,12942,3,PI,1,100,155439
1576765803.452411,77756.000,12942,3,PI,1,100,155410
1576765803.493632,77790.667,12960,3,PI,1,100,155426
1576765803.534853,77825.333,12960,3,PI,1,100,155453
1576765803.576074,77860.000,12960,3,PI,1,100,155505
1576765803.620465,77897.333,12976,3,PI,1,100,155539
1576765803.664857,77934.667,12976,3,PI,1,100,155573
1576765803.709249,77972.000,12976,3,PI,1,100,155566
1576765803.746506,78003.333,12995,3,PI,1,100,155573
1576765803.783763,78034.667,12995,3,PI,1,100,155609
1576765803.821020,78066.000,12995,3,PI,1,100,155684
1576765803.861052,78099.667,13013,3,PI,1,100,155772
1576765803.901083,78133.333,13013,3,PI,1,100,155893
1576765803.941115,78167.000,13013,3,PI,1,100,156000
1576765803.975598,78196.000,13031,3,PI,1,100,156054
1576765804.010081,78225.000,13031,3,PI,1,100,155963
1576765804.044564,78254.000,13031,3,PI,1,100,155746
1576765804.086894,78289.600,13052,5,PI,1,100,155586
1576765804.129225,78325.200,13052,5,PI,1,100,155523
1576765804.171555,78360.800,13052,5,PI,1,100,155466
1576765804.213886,78396.400,13052,5,PI,1,100,155442
1576765804.256216,78432.000,13052,5,PI,1,100,155457
1576765804.295059,78464.667,13072,3,PI,1,100,155444
1576765804.333902,78497.333,13072,3,PI,1,100,155386
1576765804.372744,78530.000,13072,3,PI,1,100,155377
1576765804.413172,78564.000,13088,3,PI,1,100,155494
1576765804.453600,78598.000,13088,3,PI,1,100,155599
1576765804.494029,78632.000,13088,3,PI,1,100,155704
1576765804.535249,78666.667,13106,3,PI,1,100,155778
1576765804.576470,78701.333,13106,3,PI,1,100,155834
1576765804.617691,78736.000,13106,3,PI,1,100,155850
1576765804.659308,78771.000,13125,3,PI,1,100,155901
1576765804.700925,78806.000,13125,3,PI,1,100,155947
1576765804.742542,78841.000,13125,3,PI,1,100,155980
1576765804.780592,78873.000,13143,3,PI,1,100,156009
1576765804.818642,78905.000,13143,3,PI,1,100,156053
1576765804.856692,78937.000,13143,3,PI,1,100,155904
1576765804.895138,78969.333,13161,3,PI,1,100,155664
1576765804.933585,79001.667,13161,3,PI,1,100,155469
1576765804.972031,79034.000,13161,3,PI,1,100,155397
1576765805.011666,79067.333,13179,3,PI,1,100,155507
1576765805.051302,79100.667,13179,3,PI,1,100,155609
1576765805.090937,79134.000,13179,3,PI,1,100,155664
1576765805.132158,79168.667,13197,3,PI,1,100,155675
1576765805.173379,79203.333,13197,3,PI,1,100,155663
1576765805.214599,79238.000,13197,3,PI,1,100,155685
1576765805.256613,79273.333,13214,3,PI,1,100,155675
1576765805.298626,79308.667,13214,3,PI,1,100,155697
1576765805.340640,79344.000,13214,3,PI,1,100,155739
1576765805.379879,79377.000,13232,3,PI,1,100,155764
1576765805.419118,79410.000,13232,3,PI,1,100,155829
1576765805.458357,79443.000,13232,3,PI,1,100,155895
1576765805.496407,79475.000,13249,3,PI,1,100,155977
1576765805.534457,79507.000,13249,3,PI,1,100,156068
1576765805.572507,79539.000,13249,3,PI,1,100,156169
1576765805.615709,79575.333,13266,3,PI,1,100,156202
1576765805.658912,79611.667,13266,3,PI,1,100,156099
1576765805.702114,79648.000,13266,3,PI,1,100,155848
1576765805.743335,79682.667,13285,3,PI,1,100,155638
1576765805.784556,79717.333,13285,3,PI,1,100,155539
1576765805.825777,79752.000,13285,3,PI,1,100,155473
1576765805.866997,79786.667,13303,3,PI,1,100,155459
1576765805.908218,79821.333,13303,3,PI,1,100,155496
1576765805.949439,79856.000,13303,3,PI,1,100,155485
1576765805.989074,79889.333,13321,3,PI,1,100,155472
1576765806.028710,79922.667,13321,3,PI,1,100,155567
1576765806.068345,79956.000,13321,3,PI,1,100,155671
1576765806.106395,79988.000,13339,3,PI,1,100,155750
1576765806.144445,80020.000,13339,3,PI,1,100,155777
1576765806.182495,80052.000,13339,3,PI,1,100,155847
1576765806.222130,80085.333,13357,3,PI,1,100,155951
1576765806.261765,80118.667,13357,3,PI,1,100,156012
1576765806.301401,80152.000,13357,3,PI,1,100,155966
1576765806.342622,80186.667,13375,3,PI,1,100,155950
1576765806.383842,80221.333,13375,3,PI,1,100,155965
1576765806.425063,80256.000,13375,3,PI,1,100,155876
1576765806.466680,80291.000,13392,3,PI,1,100,155548
1576765806.508297,80326.000,13392,3,PI,1,100,155259
1576765806.549915,80361.000,13392,3,PI,1,100,155103
1576765806.590343,80395.000,13410,3,PI,1,100,155042
1576765806.630771,80429.000,13410,3,PI,1,100,155003
1576765806.671199,80463.000,13410,3,PI,1,100,155023
1576765806.708852,80494.667,13427,3,PI,1,100,155056
1576765806.746506,80526.333,13427,3,PI,1,100,155030
1576765806.784160,80558.000,13427,3,PI,1,100,154963
1576765806.823399,80591.000,13445,3,PI,1,100,154904
1576765806.862638,80624.000,13445,3,PI,1,100,154967
1576765806.901877,80657.000,13445,3,PI,1,100,155021
1576765806.943097,80691.667,13463,3,PI,1,100,155107
1576765806.984318,80726.333,13463,3,PI,1,100,155224
1576765807.025539,80761.000,13463,3,PI,1,100,155333
1576765807.066760,80795.667,13481,3,PI,1,100,155438
1576765807.107980,80830.333,13481,3,PI,1,100,155532
1576765807.149201,80865.000,13481,3,PI,1,100,155567
1576765807.190026,80899.333,13499,3,PI,1,100,155570
1576765807.230850,80933.667,13499,3,PI,1,100,155536
1576765807.271674,80968.000,13499,3,PI,1,100,155325
1576765807.308535,80999.000,13517,3,PI,1,100,154977
1576765807.345396,81030.000,13517,3,PI,1,100,154710
1576765807.382257,81061.000,13517,3,PI,1,100,154575
1576765807.421100,81093.667,13535,3,PI,1,100,154598
1576765807.459942,81126.333,13535,3,PI,1,100,154713
1576765807.498785,81159.000,13535,3,PI,1,100,154786
1576765807.540006,81193.667,13553,3,PI,1,100,154785
1576765807.581227,81228.333,13553,3,PI,1,100,154685
1576765807.622447,81263.000,13553,3,PI,1,100,154635
1576765807.664857,81298.667,13571,3,PI,1,100,154633
1576765807.707267,81334.333,13571,3,PI,1,100,154691
1576765807.749677,81370.000,13571,3,PI,1,100,154806
1576765807.787330,81401.667,13589,3,PI,1,100,154919
1576765807.824984,81433.333,13589,3,PI,1,100,155030
1576765807.862638,81465.000,13589,3,PI,1,100,155144
1576765807.903858,81499.667,13605,3,PI,1,100,155197
1576765807.945079,81534.333,13605,3,PI,1,100,155185
1576765807.986300,81569.000,13605,3,PI,1,100,155198
1576765808.033268,81608.500,13623,2,PI,1,100,155192
1576765808.080236,81648.000,13623,2,PI,1,100,155101
1576765808.117394,81679.250,13641,4,PI,1,100,154868
1576765808.154552,81710.500,13641,4,PI,1,100,154656
1576765808.191710,81741.750,13641,4,PI,1,100,154539
1576765808.228868,81773.000,13641,4,PI,1,100,154494
1576765808.269296,81807.000,13659,3,PI,1,100,154470
1576765808.309725,81841.000,13659,3,PI,1,100,154422
1576765808.350152,81875.000,13659,3,PI,1,100,154436
1576765808.387806,81906.667,13677,3,PI,1,100,154414
1576765808.425460,81938.333,13677,3,PI,1,100,154391
1576765808.463113,81970.000,13677,3,PI,1,100,154388
1576765808.503145,82003.667,13695,3,PI,1,100,154413
1576765808.543177,82037.333,13695,3,PI,1,100,154498
1576765808.583209,82071.000,13695,3,PI,1,100,154614
1576765808.623636,82105.000,13713,3,PI,1,100,154758
1576765808.664065,82139.000,13713,3,PI,1,100,154895
1576765808.704493,82173.000,13713,3,PI,1,100,155016
1576765808.746110,82208.000,13732,2,PI,1,100,155080
1576765808.787727,82243.000,13732,2,PI,1,100,155126
1576765808.832911,82281.000,13749,3,PI,1,100,155177
1576765808.878096,82319.000,13749,3,PI,1,100,155243
1576765808.923280,82357.000,13749,3,PI,1,100,155304
1576765808.960141,82388.000,13767,3,PI,1,100,155270
1576765808.997002,82419.000,13767,3,PI,1,100,155068
1576765809.033863,82450.000,13767,3,PI,1,100,154858
1576765809.075480,82485.000,13783,3,PI,1,100,154765
1576765809.117097,82520.000,13783,3,PI,1,100,154735
1576765809.158714,82555.000,13783,3,PI,1,100,154739
1576765809.196764,82587.000,13801,4,PI,1,100,154771
1576765809.234814,82619.000,13801,4,PI,1,100,154854
1576765809.272864,82651.000,13801,4,PI,1,100,154844
1576765809.310914,82683.000,13801,4,PI,1,100,154821
1576765809.350153,82716.000,13819,3,PI,1,100,154795
1576765809.389392,82749.000,13819,3,PI,1,100,154782
1576765809.428631,82782.000,13819,3,PI,1,100,154844
1576765809.469455,82816.333,13837,3,PI,1,100,154993
1576765809.510279,82850.667,13837,3,PI,1,100,155131
1576765809.551104,82885.000,13837,3,PI,1,100,155188
1576765809.591532,82919.000,13855,3,PI,1,100,155240
1576765809.631960,82953.000,13855,3,PI,1,100,155366
1576765809.672388,82987.000,13855,3,PI,1,100,155473
1576765809.712816,83021.000,13874,3,PI,1,100,155550
1576765809.753244,83055.000,13874,3,PI,1,100,155620
1576765809.793672,83089.000,13874,3,PI,1,100,155691
1576765809.831326,83120.667,13892,3,PI,1,100,155756
1576765809.868979,83152.333,13892,3,PI,1,100,155800
1576765809.906633,83184.000,13892,3,PI,1,100,155819
1576765809.945872,83217.000,13909,3,PI,1,100,155885
1576765809.985111,83250.000,13909,3,PI,1,100,155917
1576765810.024350,83283.000,13909,3,PI,1,100,155777
1576765810.064778,83317.000,13927,3,PI,1,100,155574
1576765810.105206,83351.000,13927,3,PI,1,100,155488
1576765810.145634,83385.000,13927,3,PI,1,100,155464
1576765810.189630,83422.000,13948,4,PI,1,100,155440
1576765810.233625,83459.000,13948,4,PI,1,100,155444
1576765810.277620,83496.000,13948,4,PI,1,100,155502
1576765810.321615,83533.000,13948,4,PI,1,100,155536
1576765810.361647,83566.667,13968,3,PI,1,100,155505
1576765810.401679,83600.333,13968,3,PI,1,100,155493
1576765810.441710,83634.000,13968,3,PI,1,100,155537
1576765810.479760,83666.000,13986,3,PI,1,100,155600
1576765810.517810,83698.000,13986,3,PI,1,100,155651
1576765810.555860,83730.000,13986,3,PI,1,100,155737
1576765810.594703,83762.667,14004,3,PI,1,100,155803
1576765810.633546,83795.333,14004,3,PI,1,100,155811
1576765810.672388,83828.000,14004,3,PI,1,100,155799
1576765810.713213,83862.333,14022,3,PI,1,100,155868
1576765810.754037,83896.667,14022,3,PI,1,100,156015
1576765810.794862,83931.000,14022,3,PI,1,100,156115
1576765810.836479,83966.000,14040,3,PI,1,100,156110
1576765810.878096,84001.000,14040,3,PI,1,100,156185
1576765810.919713,84036.000,14040,3,PI,1,100,156263
1576765810.956970,84067.333,14056,3,PI,1,100,156334
1576765810.994227,84098.667,14056,3,PI,1,100,156402
1576765811.031485,84130.000,14056,3,PI,1,100,156464
1576765811.069237,84161.750,14074,4,PI,1,100,156388
1576765811.106990,84193.500,14074,4,PI,1,100,156164
1576765811.144743,84225.250,14074,4,PI,1,100,156070
1576765811.182495,84257.000,14074,4,PI,1,100,156034
1576765811.221734,84290.000,14092,3,PI,1,100,156033
1576765811.260973,84323.000,14092,3,PI,1,100,156056
1576765811.300212,84356.000,14092,3,PI,1,100,156077
1576765811.345397,84394.000,14110,2,PI,1,100,156107
1576765811.390581,84432.000,14110,2,PI,1,100,156093
1576765811.431802,84466.667,14128,3,PI,1,100,156071
1576765811.473022,84501.333,14128,3,PI,1,100,156054
1576765811.514243,84536.000,14128,3,PI,1,100,156080
1576765811.555068,84570.333,14146,3,PI,1,100,156119
1576765811.595892,84604.667,14146,3,PI,1,100,156166
1576765811.636717,84639.000,14146,3,PI,1,100,156288
1576765811.675163,84671.333,14165,3,PI,1,100,156370
1576765811.713609,84703.667,14165,3,PI,1,100,156427
1576765811.752055,84736.000,14165,3,PI,1,100,156439
1576765811.791294,84769.000,14183,3,PI,1,100,156527
1576765811.830534,84802.000,14183,3,PI,1,100,156615
1576765811.869772,84835.000,14183,3,PI,1,100,156731
1576765811.907822,84867.000,14201,3,PI,1,100,156693
1576765811.945872,84899.000,14201,3,PI,1,100,156711
1576765811.983922,84931.000,14201,3,PI,1,100,156784
1576765812.026332,84966.667,14218,3,PI,1,100,156824
1576765812.068742,85002.333,14218,3,PI,1,100,156670
1576765812.111152,85038.000,14218,3,PI,1,100,156453
1576765812.147715,85068.750,14236,4,PI,1,100,156427
1576765812.184279,85099.500,14236,4,PI,1,100,156459
1576765812.220843,85130.250,14236,4,PI,1,100,156387
1576765812.257406,85161.000,14236,4,PI,1,100,156390
1576765812.298231,85195.333,14252,3,PI,1,100,156405
1576765812.339055,85229.667,14252,3,PI,1,100,156404
1576765812.379879,85264.000,14252,3,PI,1,100,156416
1576765812.421100,85298.667,14270,3,PI,1,100,156405
1576765812.462321,85333.333,14270,3,PI,1,100,156402
1576765812.503542,85368.000,14270,3,PI,1,100,156422
1576765812.545159,85403.000,14288,2,PI,1,100,156565
1576765812.586776,85438.000,14288,2,PI,1,100,156676
1576765812.626907,85471.750,14306,4,PI,1,100,156708
1576765812.667038,85505.500,14306,4,PI,1,100,156729
1576765812.707168,85539.250,14306,4,PI,1,100,156766
1576765812.747299,85573.000,14306,4,PI,1,100,156811
1576765812.784953,85604.667,14325,3,PI,1,100,156857
1576765812.822606,85636.333,14325,3,PI,1,100,156931
1576765812.860260,85668.000,14325,3,PI,1,100,156992
1576765812.900688,85702.000,14343,3,PI,1,100,157071
1576765812.941116,85736.000,14343,3,PI,1,100,157070
1576765812.981544,85770.000,14343,3,PI,1,100,156925
1576765813.022369,85804.333,14361,3,PI,1,100,156822
1576765813.063193,85838.667,14361,3,PI,1,100,156826
1576765813.104017,85873.000,14361,3,PI,1,100,156843
1576765813.145635,85908.000,14378,2,PI,1,100,156871
1576765813.187252,85943.000,14378,2,PI,1,100,156911
1576765813.232040,85980.667,14396,3,PI,1,100,156911
1576765813.276828,86018.333,14396,3,PI,1,100,156925
1576765813.321616,86056.000,14396,3,PI,1,100,156941
1576765813.359269,86087.667,14412,3,PI,1,100,156959
1576765813.396923,86119.333,14412,3,PI,1,100,156996
1576765813.434576,86151.000,14412,3,PI,1,100,157025
1576765813.473815,86184.000,14430,3,PI,1,100,157077
1576765813.513054,86217.000,14430,3,PI,1,100,157108
1576765813.552293,86250.000,14430,3,PI,1,100,157173
1576765813.592325,86283.667,14448,3,PI,1,100,157275
1576765813.632357,86317.333,14448,3,PI,1,100,157325
1576765813.672389,86351.000,14448,3,PI,1,100,157307
1576765813.712816,86385.000,14467,3,PI,1,100,157343
1576765813.753245,86419.000,14467,3,PI,1,100,157439
1576765813.793673,86453.000,14467,3,PI,1,100,157536
1576765813.835290,86488.000,14485,3,PI,1,100,157483
1576765813.876907,86523.000,14485,3,PI,1,100,157313
1576765813.918524,86558.000,14485,3,PI,1,100,157220
1576765813.955980,86589.500,14503,4,PI,1,100,157197
1576765813.993435,86621.000,14503,4,PI,1,100,157219
1576765814.030890,86652.500,14503,4,PI,1,100,157263
1576765814.068346,86684.000,14503,4,PI,1,100,157270
1576765814.107585,86717.000,14521,3,PI,1,100,157270
1576765814.146824,86750.000,14521,3,PI,1,100,157265
1576765814.186063,86783.000,14521,3,PI,1,100,157250
1576765814.226887,86817.333,14539,3,PI,1,100,157268
1576765814.267712,86851.667,14539,3,PI,1,100,157275
1576765814.308536,86886.000,14539,3,PI,1,100,157334
1576765814.349559,86920.500,14557,2,PI,1,100,157343
1576765814.390581,86955.000,14557,2,PI,1,100,157361
1576765814.432595,86990.333,14574,3,PI,1,100,157357
1576765814.474608,87025.667,14574,3,PI,1,100,157403
1576765814.516622,87061.000,14574,3,PI,1,100,157445
1576765814.554672,87093.000,14590,4,PI,1,100,157455
1576765814.592721,87125.000,14590,4,PI,1,100,157474
1576765814.630771,87157.000,14590,4,PI,1,100,157490
1576765814.668821,87189.000,14590,4,PI,1,100,157514
1576765814.707664,87221.667,14609,3,PI,1,100,157411
1576765814.746507,87254.333,14609,3,PI,1,100,157287
1576765814.785349,87287.000,14609,3,PI,1,100,157219
1576765814.826174,87321.333,14627,3,PI,1,100,157170
1576765814.866998,87355.667,14627,3,PI,1,100,157109
1576765814.907823,87390.000,14627,3,PI,1,100,157147
1576765814.948845,87424.500,14645,2,PI,1,100,157274
1576765814.989868,87459.000,14645,2,PI,1,100,157299
1576765815.031881,87494.333,14663,3,PI,1,100,157241
1576765815.073895,87529.667,14663,3,PI,1,100,157242
1576765815.115908,87565.000,14663,3,PI,1,100,157280
1576765815.154255,87597.250,14681,4,PI,1,100,157336
1576765815.192603,87629.500,14681,4,PI,1,100,157393
1576765815.230950,87661.750,14681,4,PI,1,100,157454
1576765815.269297,87694.000,14681,4,PI,1,100,157486
1576765815.307347,87726.000,14699,3,PI,1,100,157470
1576765815.345397,87758.000,14699,3,PI,1,100,157473
1576765815.383447,87790.000,14699,3,PI,1,100,157524
1576765815.423479,87823.667,14717,3,PI,1,100,157562
1576765815.463510,87857.333,14717,3,PI,1,100,157630
1576765815.503542,87891.000,14717,3,PI,1,100,157660
1576765815.546348,87927.000,14735,2,PI,1,100,157678
1576765815.589154,87963.000,14735,2,PI,1,100,157559
1576765815.630375,87997.667,14753,3,PI,1,100,157414
1576765815.671596,88032.333,14753,3,PI,1,100,157309
1576765815.712817,88067.000,14753,3,PI,1,100,157284
1576765815.751263,88099.333,14771,3,PI,1,100,157268
1576765815.789709,88131.667,14771,3,PI,1,100,157262
1576765815.828156,88164.000,14771,3,PI,1,100,157375
1576765815.873736,88202.333,14787,3,PI,1,100,157409
1576765815.919317,88240.667,14787,3,PI,1,100,157415
1576765815.964898,88279.000,14787,3,PI,1,100,157439
1576765816.003344,88311.333,14805,3,PI,1,100,157478
1576765816.041790,88343.667,14805,3,PI,1,100,157527
1576765816.080236,88376.000,14805,3,PI,1,100,157553
1576765816.121854,88411.000,14823,3,PI,1,100,157544
1576765816.163471,88446.000,14823,3,PI,1,100,157608
1576765816.205088,88481.000,14823,3,PI,1,100,157639
1576765816.244802,88514.400,14844,5,PI,1,100,157661
1576765816.284517,88547.800,14844,5,PI,1,100,157678
1576765816.324232,88581.200,14844,5,PI,1,100,157705
1576765816.363946,88614.600,14844,5,PI,1,100,157718
1576765816.403661,88648.000,14844,5,PI,1,100,157746
1576765816.442107,88680.333,14864,3,PI,1,100,157745
1576765816.480554,88712.667,14864,3,PI,1,100,157600
1576765816.519000,88745.000,14864,3,PI,1,100,157423
1576765816.557050,88777.000,14882,3,PI,1,100,157324
1576765816.595100,88809.000,14882,3,PI,1,100,157266
1576765816.633150,88841.000,14882,3,PI,1,100,157192
1576765816.673578,88875.000,14901,3,PI,1,100,157170
1576765816.714006,88909.000,14901,3,PI,1,100,157157
1576765816.754434,88943.000,14901,3,PI,1,100,157111
1576765816.794862,88977.000,14919,3,PI,1,100,157080
1576765816.835290,89011.000,14919,3,PI,1,100,157067
1576765816.875718,89045.000,14919,3,PI,1,100,157053
1576765816.917335,89080.000,14937,3,PI,1,100,157056
1576765816.958952,89115.000,14937,3,PI,1,100,157062
1576765817.000570,89150.000,14937,3,PI,1,100,157058
1576765817.040205,89183.333,14955,3,PI,1,100,157105
1576765817.079840,89216.667,14955,3,PI,1,100,157201
1576765817.119476,89250.000,14955,3,PI,1,100,157241
1576765817.157526,89282.000,14973,3,PI,1,100,157257
1576765817.195575,89314.000,14973,3,PI,1,100,157231
1576765817.233625,89346.000,14973,3,PI,1,100,157282
1576765817.273261,89379.333,14991,3,PI,1,100,157411
1576765817.312896,89412.667,14991,3,PI,1,100,157450
1576765817.352531,89446.000,14991,3,PI,1,100,157308
1576765817.392960,89480.000,15008,3,PI,1,100,157119
1576765817.433388,89514.000,15008,3,PI,1,100,157022
1576765817.473816,89548.000,15008,3,PI,1,100,156993
1576765817.514640,89582.333,15026,3,PI,1,100,156962
1576765817.555465,89616.667,15026,3,PI,1,100,156926
1576765817.596289,89651.000,15026,3,PI,1,100,156897
1576765817.636321,89684.667,15042,3,PI,1,100,156812
1576765817.676353,89718.333,15042,3,PI,1,100,156673
1576765817.716384,89752.000,15042,3,PI,1,100,156613
1576765817.754038,89783.667,15061,3,PI,1,100,156657
1576765817.791691,89815.333,15061,3,PI,1,100,156747
1576765817.829345,89847.000,15061,3,PI,1,100,156816
1576765817.872944,89883.667,15079,3,PI,1,100,156890
1576765817.916543,89920.333,15079,3,PI,1,100,156967
1576765817.960142,89957.000,15079,3,PI,1,100,157045
1576765818.001362,89991.667,15097,3,PI,1,100,157136
1576765818.042583,90026.333,15097,3,PI,1,100,157216
1576765818.083804,90061.000,15097,3,PI,1,100,157269
1576765818.125025,90095.667,15115,3,PI,1,100,157310
1576765818.166245,90130.333,15115,3,PI,1,100,157280
1576765818.207466,90165.000,15115,3,PI,1,100,157121
1576765818.248291,90199.333,15133,3,PI,1,100,156967
1576765818.289115,90233.667,15133,3,PI,1,100,156871
1576765818.329939,90268.000,15133,3,PI,1,100,156799
1576765818.367593,90299.667,15151,3,PI,1,100,156653
1576765818.405247,90331.333,15151,3,PI,1,100,156633
1576765818.442900,90363.000,15151,3,PI,1,100,156706
1576765818.482139,90396.000,15169,3,PI,1,100,156709
1576765818.521378,90429.000,15169,3,PI,1,100,156636
1576765818.560617,90462.000,15169,3,PI,1,100,156630
1576765818.601442,90496.333,15186,3,PI,1,100,156662
1576765818.642266,90530.667,15186,3,PI,1,100,156762
1576765818.683090,90565.000,15186,3,PI,1,100,156833
1576765818.724311,90599.667,15205,3,PI,1,100,156834
1576765818.765532,90634.333,15205,3,PI,1,100,156804
1576765818.806753,90669.000,15205,3,PI,1,100,156699
1576765818.845199,90701.333,15221,3,PI,1,100,156572
1576765818.883646,90733.667,15221,3,PI,1,100,156555
1576765818.922092,90766.000,15221,3,PI,1,100,156707
1576765818.958556,90796.667,15239,3,PI,1,100,156891
1576765818.995021,90827.333,15239,3,PI,1,100,156940
1576765819.031485,90858.000,15239,3,PI,1,100,156776
1576765819.073895,90893.667,15257,3,PI,1,100,156621
1576765819.116305,90929.333,15257,3,PI,1,100,156500
1576765819.158715,90965.000,15257,3,PI,1,100,156378
1576765819.198350,90998.333,15275,3,PI,1,100,156332
1576765819.237986,91031.667,15275,3,PI,1,100,156319
1576765819.277621,91065.000,15275,3,PI,1,100,156350
1576765819.318445,91099.333,15293,3,PI,1,100,156338
1576765819.359270,91133.667,15293,3,PI,1,100,156318
1576765819.400094,91168.000,15293,3,PI,1,100,156376
1576765819.442504,91203.667,15311,3,PI,1,100,156408
1576765819.484914,91239.333,15311,3,PI,1,100,156434
1576765819.527324,91275.000,15311,3,PI,1,100,156439
1576765819.564581,91306.333,15329,3,PI,1,100,156426
1576765819.601838,91337.667,15329,3,PI,1,100,156575
1576765819.639095,91369.000,15329,3,PI,1,100,156631
1576765819.679127,91402.667,15348,3,PI,1,100,156623
1576765819.719159,91436.333,15348,3,PI,1,100,156688
1576765819.759191,91470.000,15348,3,PI,1,100,156801
1576765819.793673,91499.000,15365,3,PI,1,100,156850
1576765819.828156,91528.000,15365,3,PI,1,100,156818
1576765819.862639,91557.000,15365,3,PI,1,100,156750
1576765819.901283,91589.500,15383,4,PI,1,100,156769
1576765819.939928,91622.000,15383,4,PI,1,100,156791
1576765819.978572,91654.500,15383,4,PI,1,100,156861
1576765820.017217,91687.000,15383,4,PI,1,100,156926
1576765820.056059,91719.667,15401,3,PI,1,100,157082
1576765820.094902,91752.333,15401,3,PI,1,100,157279
1576765820.133745,91785.000,15401,3,PI,1,100,157548
1576765820.173380,91818.333,15419,3,PI,1,100,157721
1576765820.213015,91851.667,15419,3,PI,1,100,157766
1576765820.252651,91885.000,15419,3,PI,1,100,157736
1576765820.294268,91920.000,15435,3,PI,1,100,157708
1576765820.335885,91955.000,15435,3,PI,1,100,157699
1576765820.377502,91990.000,15435,3,PI,1,100,157472
1576765820.418723,92024.667,15453,3,PI,1,100,157257
1576765820.459944,92059.333,15453,3,PI,1,100,157088
1576765820.501164,92094.000,15453,3,PI,1,100,157036
1576765820.540800,92127.333,15471,3,PI,1,100,157059
1576765820.580435,92160.667,15471,3,PI,1,100,157017
1576765820.620070,92194.000,15471,3,PI,1,100,156894
1576765820.658517,92226.333,15489,3,PI,1,100,156800
1576765820.696963,92258.667,15489,3,PI,1,100,156713
1576765820.735409,92291.000,15489,3,PI,1,100,156696
1576765820.773856,92323.333,15508,3,PI,1,100,156683
1576765820.812302,92355.667,15508,3,PI,1,100,156635
1576765820.850748,92388.000,15508,3,PI,1,100,156568
1576765820.891969,92422.667,15526,3,PI,1,100,156566
1576765820.933190,92457.333,15526,3,PI,1,100,156555
1576765820.974411,92492.000,15526,3,PI,1,100,156546
1576765821.021379,92531.500,15544,2,PI,1,100,156556
1576765821.068347,92571.000,15544,2,PI,1,100,156586
1576765821.109963,92606.000,15561,3,PI,1,100,156600
1576765821.151581,92641.000,15561,3,PI,1,100,156673
1576765821.193198,92676.000,15561,3,PI,1,100,156743
1576765821.230851,92707.667,15579,3,PI,1,100,156801
1576765821.268505,92739.333,15579,3,PI,1,100,156826
1576765821.306159,92771.000,15579,3,PI,1,100,156919
1576765821.345100,92803.750,15597,4,PI,1,100,157025
1576765821.384042,92836.500,15597,4,PI,1,100,156999
1576765821.422984,92869.250,15597,4,PI,1,100,156811
1576765821.461926,92902.000,15597,4,PI,1,100,156684
1576765821.502354,92936.000,15615,3,PI,1,100,156658
1576765821.542782,92970.000,15615,3,PI,1,100,156699
1576765821.583210,93004.000,15615,3,PI,1,100,156756
1576765821.624232,93038.500,15631,2,PI,1,100,156768
1576765821.665255,93073.000,15631,2,PI,1,100,156774
1576765821.706872,93108.000,15650,3,PI,1,100,156758
1576765821.748489,93143.000,15650,3,PI,1,100,156768
1576765821.790106,93178.000,15650,3,PI,1,100,156781
1576765821.828454,93210.250,15668,4,PI,1,100,156832
1576765821.866801,93242.500,15668,4,PI,1,100,156869
1576765821.905148,93274.750,15668,4,PI,1,100,156894
1576765821.943495,93307.000,15668,4,PI,1,100,156942
1576765821.981941,93339.333,15686,3,PI,1,100,156963
1576765822.020388,93371.667,15686,3,PI,1,100,157010
1576765822.058834,93404.000,15686,3,PI,1,100,157051
1576765822.099262,93438.000,15704,3,PI,1,100,157062
1576765822.139690,93472.000,15704,3,PI,1,100,156939
1576765822.180118,93506.000,15704,3,PI,1,100,156750
1576765822.222330,93541.500,15722,2,PI,1,100,156607
1576765822.264542,93577.000,15722,2,PI,1,100,156546
1576765822.305445,93611.400,15743,5,PI,1,100,156501
1576765822.346349,93645.800,15743,5,PI,1,100,156487
1576765822.387253,93680.200,15743,5,PI,1,100,156496
1576765822.428156,93714.600,15743,5,PI,1,100,156495
1576765822.469060,93749.000,15743,5,PI,1,100,156466
1576765822.507110,93781.000,15763,3,PI,1,100,156539
1576765822.545160,93813.000,15763,3,PI,1,100,156658
1576765822.583210,93845.000,15763,3,PI,1,100,156712
1576765822.622052,93877.667,15781,3,PI,1,100,156659
1576765822.660895,93910.333,15781,3,PI,1,100,156630
1576765822.699738,93943.000,15781,3,PI,1,100,156708
1576765822.740562,93977.333,15800,3,PI,1,100,156770
1576765822.781387,94011.667,15800,3,PI,1,100,156793
1576765822.822211,94046.000,15800,3,PI,1,100,156765
1576765822.863432,94080.667,15818,3,PI,1,100,156769
1576765822.904653,94115.333,15818,3,PI,1,100,156649
1576765822.945873,94150.000,15818,3,PI,1,100,156458
1576765822.986698,94184.333,15836,3,PI,1,100,156329
1576765823.027522,94218.667,15836,3,PI,1,100,156273
1576765823.068347,94253.000,15836,3,PI,1,100,156188
1576765823.105207,94284.000,15853,3,PI,1,100,156173
1576765823.142068,94315.000,15853,3,PI,1,100,156203
1576765823.178929,94346.000,15853,3,PI,1,100,156208
1576765823.217772,94378.667,15871,3,PI,1,100,156187
1576765823.256614,94411.333,15871,3,PI,1,100,156208
1576765823.295457,94444.000,15871,3,PI,1,100,156203
1576765823.336678,94478.667,15889,3,PI,1,100,156248
1576765823.377899,94513.333,15889,3,PI,1,100,156295
1576765823.419120,94548.000,15889,3,PI,1,100,156353
1576765823.461529,94583.667,15905,3,PI,1,100,156379
1576765823.503939,94619.333,15905,3,PI,1,100,156405
1576765823.546349,94655.000,15905,3,PI,1,100,156440
1576765823.584399,94687.000,15923,3,PI,1,100,156464
1576765823.622449,94719.000,15923,3,PI,1,100,156558
1576765823.660499,94751.000,15923,3,PI,1,100,156618
1576765823.702909,94786.667,15942,3,PI,1,100,156575
1576765823.745318,94822.333,15942,3,PI,1,100,156444
1576765823.787728,94858.000,15942,3,PI,1,100,156252
1576765823.828553,94892.333,15960,3,PI,1,100,156131
1576765823.869377,94926.667,15960,3,PI,1,100,156033
1576765823.910202,94961.000,15960,3,PI,1,100,155952
1576765823.951026,94995.333,15978,3,PI,1,100,155966
1576765823.991850,95029.667,15978,3,PI,1,100,155996
1576765824.032675,95064.000,15978,3,PI,1,100,156012
1576765824.077066,95101.333,15995,3,PI,1,100,155989
1576765824.121458,95138.667,15995,3,PI,1,100,155986
1576765824.165850,95176.000,15995,3,PI,1,100,156000
1576765824.204296,95208.333,16013,3,PI,1,100,156041
1576765824.242742,95240.667,16013,3,PI,1,100,156085
1576765824.281188,95273.000,16013,3,PI,1,100,156110
1576765824.320031,95305.667,16029,3,PI,1,100,156179
1576765824.358874,95338.333,16029,3,PI,1,100,156230
1576765824.397717,95371.000,16029,3,PI,1,100,156278
1576765824.436163,95403.333,16047,3,PI,1,100,156337
1576765824.474609,95435.667,16047,3,PI,1,100,156383
1576765824.513055,95468.000,16047,3,PI,1,100,156433
1576765824.553087,95501.667,16065,3,PI,1,100,156480
1576765824.593119,95535.333,16065,3,PI,1,100,156538
1576765824.633151,95569.000,16065,3,PI,1,100,156572
1576765824.673975,95603.333,16084,3,PI,1,100,156615
1576765824.714799,95637.667,16084,3,PI,1,100,156678
1576765824.755624,95672.000,16084,3,PI,1,100,156684
1576765824.796844,95706.667,16102,3,PI,1,100,156696
1576765824.838065,95741.333,16102,3,PI,1,100,156636
1576765824.879286,95776.000,16102,3,PI,1,100,156449
1576765824.919318,95809.667,16120,3,PI,1,100,156258
1576765824.959350,95843.333,16120,3,PI,1,100,156118
1576765824.999381,95877.000,16120,3,PI,1,100,156084
1576765825.037035,95908.667,16138,3,PI,1,100,156113
1576765825.074688,95940.333,16138,3,PI,1,100,156135
1576765825.112342,95972.000,16138,3,PI,1,100,156095
1576765825.151581,96005.000,16156,3,PI,1,100,156079
1576765825.190820,96038.000,16156,3,PI,1,100,156066
1576765825.230059,96071.000,16156,3,PI,1,100,156083
1576765825.270884,96105.333,16174,3,PI,1,100,156112
1576765825.311708,96139.667,16174,3,PI,1,100,156162
1576765825.352532,96174.000,16174,3,PI,1,100,156193
1576765825.393357,96208.333,16191,3,PI,1,100,156253
1576765825.434181,96242.667,16191,3,PI,1,100,156306
1576765825.475006,96277.000,16191,3,PI,1,100,156376
1576765825.515434,96311.000,16209,3,PI,1,100,156437
1576765825.555862,96345.000,16209,3,PI,1,100,156484
1576765825.596290,96379.000,16209,3,PI,1,100,156534
1576765825.637511,96413.667,16225,3,PI,1,100,156574
1576765825.678731,96448.333,16225,3,PI,1,100,156639
1576765825.719952,96483.000,16225,3,PI,1,100,156698
1576765825.759191,96516.000,16244,3,PI,1,100,156749
1576765825.798430,96549.000,16244,3,PI,1,100,156802
1576765825.837669,96582.000,16244,3,PI,1,100,156800
1576765825.878494,96616.333,16262,3,PI,1,100,156622
1576765825.919318,96650.667,16262,3,PI,1,100,156487
1576765825.960142,96685.000,16262,3,PI,1,100,156420
1576765826.000967,96719.333,16280,3,PI,1,100,156347
1576765826.041791,96753.667,16280,3,PI,1,100,156230
1576765826.082616,96788.000,16280,3,PI,1,100,156262
1576765826.123836,96822.667,16298,3,PI,1,100,156357
1576765826.165057,96857.333,16298,3,PI,1,100,156384
1576765826.206278,96892.000,16298,3,PI,1,100,156320
1576765826.243932,96923.667,16316,3,PI,1,100,156331
1576765826.281585,96955.333,16316,3,PI,1,100,156354
1576765826.319239,96987.000,16316,3,PI,1,100,156399
1576765826.357685,97019.333,16334,3,PI,1,100,156445
1576765826.396131,97051.667,16334,3,PI,1,100,156510
1576765826.434577,97084.000,16334,3,PI,1,100,156562
1576765826.475798,97118.667,16352,3,PI,1,100,156587
1576765826.517019,97153.333,16352,3,PI,1,100,156649
1576765826.558240,97188.000,16352,3,PI,1,100,156719
1576765826.599064,97222.333,16369,3,PI,1,100,156778
1576765826.639889,97256.667,16369,3,PI,1,100,156811
1576765826.680713,97291.000,16369,3,PI,1,100,156879
1576765826.721934,97325.667,16388,3,PI,1,100,156940
1576765826.763155,97360.333,16388,3,PI,1,100,156980
1576765826.804375,97395.000,16388,3,PI,1,100,157030
1576765826.842425,97427.000,16404,3,PI,1,100,157060
1576765826.880475,97459.000,16404,3,PI,1,100,156999
1576765826.918525,97491.000,16404,3,PI,1,100,156792
1576765826.955783,97522.333,16422,3,PI,1,100,156612
1576765826.993040,97553.667,16422,3,PI,1,100,156594
1576765827.030297,97585.000,16422,3,PI,1,100,156552
1576765827.070725,97619.000,16440,3,PI,1,100,156509
1576765827.111153,97653.000,16440,3,PI,1,100,156508
1576765827.151581,97687.000,16440,3,PI,1,100,156561
1576765827.192009,97721.000,16458,3,PI,1,100,156592
1576765827.232437,97755.000,16458,3,PI,1,100,156588
1576765827.272865,97789.000,16458,3,PI,1,100,156559
1576765827.313690,97823.333,16476,3,PI,1,100,156585
1576765827.354514,97857.667,16476,3,PI,1,100,156633
1576765827.395339,97892.000,16476,3,PI,1,100,156677
1576765827.435370,97925.667,16494,3,PI,1,100,156751
1576765827.475402,97959.333,16494,3,PI,1,100,156775
1576765827.515434,97993.000,16494,3,PI,1,100,156802
1576765827.553087,98024.667,16512,3,PI,1,100,156842
1576765827.590741,98056.333,16512,3,PI,1,100,156890
1576765827.628395,98088.000,16512,3,PI,1,100,156953
1576765827.666048,98119.667,16531,3,PI,1,100,156999
1576765827.703702,98151.333,16531,3,PI,1,100,157038
1576765827.741355,98183.000,16531,3,PI,1,100,157108
1576765827.782973,98218.000,16549,3,PI,1,100,157147
1576765827.824589,98253.000,16549,3,PI,1,100,157140
1576765827.866207,98288.000,16549,3,PI,1,100,156974
1576765827.904257,98320.000,16566,3,PI,1,100,156776
1576765827.942307,98352.000,16566,3,PI,1,100,156688
1576765827.980356,98384.000,16566,3,PI,1,100,156678
1576765828.018406,98416.000,16584,3,PI,1,100,156653
1576765828.056457,98448.000,16584,3,PI,1,100,156665
1576765828.094507,98480.000,16584,3,PI,1,100,156695
1576765828.135331,98514.333,16600,3,PI,1,100,156690
1576765828.176155,98548.667,16600,3,PI,1,100,156698
1576765828.216980,98583.000,16600,3,PI,1,100,156688
1576765828.258200,98617.667,16618,3,PI,1,100,156706
1576765828.299421,98652.333,16618,3,PI,1,100,156742
1576765828.340642,98687.000,16618,3,PI,1,100,156803
1576765828.381070,98721.000,16639,5,PI,1,100,156871
1576765828.421498,98755.000,16639,5,PI,1,100,156914
1576765828.461926,98789.000,16639,5,PI,1,100,156978
1576765828.502354,98823.000,16639,5,PI,1,100,156995
1576765828.542782,98857.000,16639,5,PI,1,100,157059
1576765828.584003,98891.667,16659,3,PI,1,100,157104
1576765828.625224,98926.333,16659,3,PI,1,100,157153
1576765828.666445,98961.000,16659,3,PI,1,100,157190
1576765828.704494,98993.000,16678,3,PI,1,100,157242
1576765828.742544,99025.000,16678,3,PI,1,100,157283
1576765828.780594,99057.000,16678,3,PI,1,100,157203
1576765828.819437,99089.667,16694,3,PI,1,100,157046
1576765828.858280,99122.333,16694,3,PI,1,100,156865
1576765828.897122,99155.000,16694,3,PI,1,100,156725
1576765828.937551,99189.000,16712,3,PI,1,100,156673
1576765828.977978,99223.000,16712,3,PI,1,100,156619
1576765829.018407,99257.000,16712,3,PI,1,100,156617
1576765829.059627,99291.667,16730,3,PI,1,100,156631
1576765829.100848,99326.333,16730,3,PI,1,100,156619
1576765829.142069,99361.000,16730,3,PI,1,100,156593
1576765829.184083,99396.333,16748,3,PI,1,100,156560
1576765829.226096,99431.667,16748,3,PI,1,100,156575
1576765829.268109,99467.000,16748,3,PI,1,100,156650
1576765829.306159,99499.000,16766,3,PI,1,100,156714
1576765829.344209,99531.000,16766,3,PI,1,100,156760
1576765829.382259,99563.000,16766,3,PI,1,100,156747
1576765829.419913,99594.667,16784,3,PI,1,100,156812
1576765829.457566,99626.333,16784,3,PI,1,100,156888
1576765829.495220,99658.000,16784,3,PI,1,100,156948
1576765829.535252,99691.667,16802,3,PI,1,100,156979
1576765829.575283,99725.333,16802,3,PI,1,100,156997
1576765829.615315,99759.000,16802,3,PI,1,100,157041
1576765829.656140,99793.333,16821,3,PI,1,100,157105
1576765829.696964,99827.667,16821,3,PI,1,100,157159
1576765829.737788,99862.000,16821,3,PI,1,100,157176
1576765829.778613,99896.333,16838,3,PI,1,100,157013
1576765829.819437,99930.667,16838,3,PI,1,100,156779
1576765829.860262,99965.000,16838,3,PI,1,100,156596
1576765829.899501,99998.000,16856,3,PI,1,100,156498
1576765829.938740,100031.000,16856,3,PI,1,100,156436
1576765829.977979,100064.000,16856,3,PI,1,100,156423
1576765830.019596,100099.000,16874,3,PI,1,100,156417
1576765830.061213,100134.000,16874,3,PI,1,100,156422
1576765830.102830,100169.000,16874,3,PI,1,100,156399
1576765830.142465,100202.333,16890,3,PI,1,100,156370
1576765830.182101,100235.667,16890,3,PI,1,100,156397
1576765830.221736,100269.000,16890,3,PI,1,100,156411
1576765830.263353,100304.000,16908,3,PI,1,100,156447
1576765830.304970,100339.000,16908,3,PI,1,100,156498
1576765830.346587,100374.000,16908,3,PI,1,100,156511
1576765830.387412,100408.333,16926,3,PI,1,100,156579
