EpochTimestamp,EmotiBitTimestamp,PacketNumber,DataLength,TypeTag,ProtocolVersion,DataReliability,GY
1576770650.728179,36215.000,5813,10,GY,1,100,-1.312
1576770650.728179,36215.000,5813,10,GY,1,100,-0.031
1576770650.728179,36215.000,5813,10,GY,1,100,-0.519
1576770650.728179,36215.000,5813,10,GY,1,100,0.366
1576770650.728179,36215.000,5813,10,GY,1,100,0.305
1576770650.728179,36215.000,5813,10,GY,1,100,0.824
1576770650.728179,36215.000,5813,10,GY,1,100,0.000
1576770650.728179,36215.000,5813,10,GY,1,100,0.000
1576770650.728179,36215.000,5813,10,GY,1,100,0.153
1576770650.728179,36215.000,5813,10,GY,1,100,1.068
1576770650.769713,36250.000,5831,2,GY,1,100,-0.031
1576770650.811247,36285.000,5831,2,GY,1,100,-0.824
1576770650.852386,36319.667,5849,3,GY,1,100,1.038
1576770650.893525,36354.333,5849,3,GY,1,100,1.221
1576770650.934664,36389.000,5849,3,GY,1,100,-0.366
1576770650.975011,36423.000,5867,3,GY,1,100,-0.031
1576770651.015359,36457.000,5867,3,GY,1,100,0.427
1576770651.055707,36491.000,5867,3,GY,1,100,0.366
1576770651.097637,36526.333,5885,3,GY,1,100,-1.343
1576770651.139566,36561.667,5885,3,GY,1,100,-1.587
1576770651.181496,36597.000,5885,3,GY,1,100,-0.275
1576770651.219471,36629.000,5903,3,GY,1,100,-0.854
1576770651.257445,36661.000,5903,3,GY,1,100,-1.190
1576770651.295419,36693.000,5903,3,GY,1,100,-0.183
1576770651.334185,36725.667,5921,3,GY,1,100,-0.031
1576770651.372950,36758.333,5921,3,GY,1,100,-1.007
1576770651.411716,36791.000,5921,3,GY,1,100,-0.122
1576770651.455228,36827.667,5939,3,GY,1,100,0.275
1576770651.498740,36864.333,5939,3,GY,1,100,-0.092
1576770651.542252,36901.000,5939,3,GY,1,100,-1.282
1576770651.582995,36935.333,5955,3,GY,1,100,-1.099
1576770651.623739,36969.667,5955,3,GY,1,100,0.122
1576770651.664482,37004.000,5955,3,GY,1,100,0.458
1576770651.705621,37038.667,5973,3,GY,1,100,-0.580
1576770651.746759,37073.333,5973,3,GY,1,100,-0.092
1576770651.787898,37108.000,5973,3,GY,1,100,0.519
1576770651.826663,37140.667,5991,3,GY,1,100,0.122
1576770651.865429,37173.333,5991,3,GY,1,100,0.153
1576770651.904194,37206.000,5991,3,GY,1,100,-1.373
1576770651.941773,37237.667,6009,3,GY,1,100,-0.732
1576770651.979352,37269.333,6009,3,GY,1,100,1.038
1576770652.016931,37301.000,6009,3,GY,1,100,-0.366
1576770652.056883,37334.667,6027,3,GY,1,100,-0.427
1576770652.096835,37368.333,6027,3,GY,1,100,0.336
1576770652.136787,37402.000,6027,3,GY,1,100,-0.732
1576770652.181486,37439.667,6045,3,GY,1,100,0.092
1576770652.226185,37477.333,6045,3,GY,1,100,1.312
1576770652.270884,37515.000,6045,3,GY,1,100,-0.092
1576770652.312022,37549.667,6063,3,GY,1,100,0.061
1576770652.353161,37584.333,6063,3,GY,1,100,2.045
1576770652.394300,37619.000,6063,3,GY,1,100,1.068
1576770652.433856,37652.333,6082,3,GY,1,100,-2.197
1576770652.473413,37685.667,6082,3,GY,1,100,-3.265
1576770652.512969,37719.000,6082,3,GY,1,100,-3.265
1576770652.550548,37750.667,6100,3,GY,1,100,-2.502
1576770652.588127,37782.333,6100,3,GY,1,100,0.122
1576770652.625706,37814.000,6100,3,GY,1,100,0.793
1576770652.665658,37847.667,6117,3,GY,1,100,-0.397
1576770652.705610,37881.333,6117,3,GY,1,100,-0.458
1576770652.745562,37915.000,6117,3,GY,1,100,0.580
1576770652.787096,37950.000,6135,3,GY,1,100,1.251
1576770652.828631,37985.000,6135,3,GY,1,100,0.305
1576770652.870165,38020.000,6135,3,GY,1,100,-0.214
1576770652.911106,38054.500,6151,2,GY,1,100,-0.824
1576770652.952047,38089.000,6151,2,GY,1,100,-1.434
1576770652.993878,38124.250,6169,4,GY,1,100,-1.129
1576770653.035709,38159.500,6169,4,GY,1,100,-1.160
1576770653.077540,38194.750,6169,4,GY,1,100,1.495
1576770653.119371,38230.000,6169,4,GY,1,100,2.289
1576770653.157741,38262.333,6187,3,GY,1,100,3.998
1576770653.196111,38294.667,6187,3,GY,1,100,3.784
1576770653.234481,38327.000,6187,3,GY,1,100,0.580
1576770653.273642,38360.000,6205,3,GY,1,100,-4.425
1576770653.312803,38393.000,6205,3,GY,1,100,-5.310
1576770653.351964,38426.000,6205,3,GY,1,100,-1.709
1576770653.393102,38460.667,6224,3,GY,1,100,0.244
1576770653.434241,38495.333,6224,3,GY,1,100,0.549
1576770653.475380,38530.000,6224,3,GY,1,100,0.824
1576770653.516519,38564.667,6242,3,GY,1,100,0.336
1576770653.557658,38599.333,6242,3,GY,1,100,-1.068
1576770653.598797,38634.000,6242,3,GY,1,100,-0.702
1576770653.637958,38667.000,6260,3,GY,1,100,0.031
1576770653.677119,38700.000,6260,3,GY,1,100,-1.251
1576770653.716280,38733.000,6260,3,GY,1,100,-0.885
1576770653.756232,38766.667,6277,3,GY,1,100,0.946
1576770653.796184,38800.333,6277,3,GY,1,100,1.007
1576770653.836136,38834.000,6277,3,GY,1,100,0.244
1576770653.874110,38866.000,6295,3,GY,1,100,-0.305
1576770653.912084,38898.000,6295,3,GY,1,100,0.031
1576770653.950058,38930.000,6295,3,GY,1,100,-0.183
1576770653.991197,38964.667,6313,3,GY,1,100,0.061
1576770654.032336,38999.333,6313,3,GY,1,100,-0.244
1576770654.073475,39034.000,6313,3,GY,1,100,0.305
1576770654.113427,39067.667,6330,3,GY,1,100,-1.282
1576770654.153379,39101.333,6330,3,GY,1,100,-1.190
1576770654.193331,39135.000,6330,3,GY,1,100,-0.061
1576770654.234075,39169.333,6347,3,GY,1,100,-2.533
1576770654.274818,39203.667,6347,3,GY,1,100,-1.678
1576770654.315561,39238.000,6347,3,GY,1,100,1.556
1576770654.357095,39273.000,6366,2,GY,1,100,2.838
1576770654.398630,39308.000,6366,2,GY,1,100,-0.885
1576770654.440560,39343.333,6384,3,GY,1,100,-1.892
1576770654.482490,39378.667,6384,3,GY,1,100,0.183
1576770654.524420,39414.000,6384,3,GY,1,100,0.366
1576770654.563976,39447.333,6402,3,GY,1,100,1.434
1576770654.603533,39480.667,6402,3,GY,1,100,0.610
1576770654.643089,39514.000,6402,3,GY,1,100,0.854
1576770654.683437,39548.000,6420,3,GY,1,100,0.519
1576770654.723784,39582.000,6420,3,GY,1,100,-0.122
1576770654.764132,39616.000,6420,3,GY,1,100,-0.397
1576770654.801810,39647.750,6438,4,GY,1,100,0.702
1576770654.839487,39679.500,6438,4,GY,1,100,1.312
1576770654.877165,39711.250,6438,4,GY,1,100,-0.946
1576770654.914843,39743.000,6438,4,GY,1,100,-0.153
1576770654.954795,39776.667,6456,3,GY,1,100,1.678
1576770654.994747,39810.333,6456,3,GY,1,100,-0.061
1576770655.034699,39844.000,6456,3,GY,1,100,-0.549
1576770655.082167,39884.000,6473,2,GY,1,100,-0.580
1576770655.129635,39924.000,6473,2,GY,1,100,-0.946
1576770655.170773,39958.667,6491,3,GY,1,100,-0.885
1576770655.211912,39993.333,6491,3,GY,1,100,0.153
1576770655.253051,40028.000,6491,3,GY,1,100,1.312
1576770655.293003,40061.667,6507,3,GY,1,100,0.763
1576770655.332955,40095.333,6507,3,GY,1,100,-1.495
1576770655.372907,40129.000,6507,3,GY,1,100,-1.740
1576770655.410882,40161.000,6526,3,GY,1,100,-0.214
1576770655.448856,40193.000,6526,3,GY,1,100,0.061
1576770655.486830,40225.000,6526,3,GY,1,100,-0.488
1576770655.525200,40257.333,6544,3,GY,1,100,-1.495
1576770655.563570,40289.667,6544,3,GY,1,100,-1.160
1576770655.601940,40322.000,6544,3,GY,1,100,0.732
1576770655.642683,40356.333,6562,3,GY,1,100,0.183
1576770655.683426,40390.667,6562,3,GY,1,100,-2.258
1576770655.724169,40425.000,6562,3,GY,1,100,-1.129
1576770655.764517,40459.000,6580,3,GY,1,100,0.885
1576770655.804865,40493.000,6580,3,GY,1,100,-0.366
1576770655.845212,40527.000,6580,3,GY,1,100,-1.495
1576770655.889516,40564.333,6598,3,GY,1,100,1.770
1576770655.933819,40601.667,6598,3,GY,1,100,5.859
1576770655.978122,40639.000,6598,3,GY,1,100,2.472
1576770656.016097,40671.000,6616,3,GY,1,100,-0.854
1576770656.054071,40703.000,6616,3,GY,1,100,0.427
1576770656.092045,40735.000,6616,3,GY,1,100,1.831
1576770656.130415,40767.333,6634,3,GY,1,100,8.545
1576770656.168785,40799.667,6634,3,GY,1,100,15.625
1576770656.207155,40832.000,6634,3,GY,1,100,14.191
1576770656.247502,40866.000,6651,3,GY,1,100,18.341
1576770656.287850,40900.000,6651,3,GY,1,100,31.860
1576770656.328198,40934.000,6651,3,GY,1,100,17.395
1576770656.369732,40969.000,6670,3,GY,1,100,2.106
1576770656.411266,41004.000,6670,3,GY,1,100,11.078
1576770656.452801,41039.000,6670,3,GY,1,100,10.162
1576770656.494335,41074.000,6686,3,GY,1,100,8.881
1576770656.535869,41109.000,6686,3,GY,1,100,25.513
1576770656.577404,41144.000,6686,3,GY,1,100,39.581
1576770656.617514,41177.800,6707,5,GY,1,100,43.121
1576770656.657624,41211.600,6707,5,GY,1,100,61.371
1576770656.697735,41245.400,6707,5,GY,1,100,69.702
1576770656.737845,41279.200,6707,5,GY,1,100,70.068
1576770656.777956,41313.000,6707,5,GY,1,100,75.989
1576770656.817908,41346.667,6725,3,GY,1,100,73.517
1576770656.857860,41380.333,6725,3,GY,1,100,46.997
1576770656.897812,41414.000,6725,3,GY,1,100,45.624
1576770656.939346,41449.000,6744,3,GY,1,100,17.487
1576770656.980880,41484.000,6744,3,GY,1,100,3.662
1576770657.022415,41519.000,6744,3,GY,1,100,15.289
1576770657.063554,41553.667,6762,3,GY,1,100,9.888
1576770657.104692,41588.333,6762,3,GY,1,100,21.362
1576770657.145831,41623.000,6762,3,GY,1,100,9.247
1576770657.183805,41655.000,6780,3,GY,1,100,6.775
1576770657.221780,41687.000,6780,3,GY,1,100,21.484
1576770657.259754,41719.000,6780,3,GY,1,100,79.254
1576770657.298520,41751.667,6796,3,GY,1,100,106.659
1576770657.337285,41784.333,6796,3,GY,1,100,-86.731
1576770657.376050,41817.000,6796,3,GY,1,100,24.628
1576770657.419167,41853.333,6815,3,GY,1,100,84.717
1576770657.462284,41889.667,6815,3,GY,1,100,-19.470
1576770657.505400,41926.000,6815,3,GY,1,100,-33.112
1576770657.543375,41958.000,6833,3,GY,1,100,-25.482
1576770657.581349,41990.000,6833,3,GY,1,100,-28.839
1576770657.619323,42022.000,6833,3,GY,1,100,-14.313
1576770657.659077,42055.500,6851,2,GY,1,100,3.479
1576770657.698832,42089.000,6851,2,GY,1,100,42.358
1576770657.743531,42126.667,6869,3,GY,1,100,26.703
1576770657.788229,42164.333,6869,3,GY,1,100,-65.460
1576770657.832928,42202.000,6869,3,GY,1,100,29.572
1576770657.874463,42237.000,6887,3,GY,1,100,12.482
1576770657.915997,42272.000,6887,3,GY,1,100,-68.237
1576770657.957531,42307.000,6887,3,GY,1,100,-62.683
1576770657.997483,42340.667,6905,3,GY,1,100,-22.491
1576770658.037436,42374.333,6905,3,GY,1,100,-18.280
1576770658.077388,42408.000,6905,3,GY,1,100,2.686
1576770658.116153,42440.667,6922,3,GY,1,100,28.564
1576770658.154919,42473.333,6922,3,GY,1,100,62.958
1576770658.193684,42506.000,6922,3,GY,1,100,-27.710
1576770658.233636,42539.667,6940,3,GY,1,100,-37.323
1576770658.273588,42573.333,6940,3,GY,1,100,95.062
1576770658.313540,42607.000,6940,3,GY,1,100,9.338
1576770658.351515,42639.000,6959,3,GY,1,100,-25.970
1576770658.389489,42671.000,6959,3,GY,1,100,-21.179
1576770658.427463,42703.000,6959,3,GY,1,100,-38.635
1576770658.467020,42736.333,6975,3,GY,1,100,-37.170
1576770658.506576,42769.667,6975,3,GY,1,100,-57.465
1576770658.546133,42803.000,6975,3,GY,1,100,-62.775
1576770658.587271,42837.667,6993,3,GY,1,100,-32.745
1576770658.628410,42872.333,6993,3,GY,1,100,-53.162
1576770658.669549,42907.000,6993,3,GY,1,100,-36.255
1576770658.710688,42941.667,7011,3,GY,1,100,-24.658
1576770658.751827,42976.333,7011,3,GY,1,100,-18.555
1576770658.792966,43011.000,7011,3,GY,1,100,-3.754
1576770658.836478,43047.667,7029,3,GY,1,100,-9.308
1576770658.879990,43084.333,7029,3,GY,1,100,-15.900
1576770658.923502,43121.000,7029,3,GY,1,100,-14.008
1576770658.961081,43152.667,7047,3,GY,1,100,-20.081
1576770658.998660,43184.333,7047,3,GY,1,100,-31.555
1576770659.036238,43216.000,7047,3,GY,1,100,-56.793
1576770659.075004,43248.667,7065,3,GY,1,100,-72.601
1576770659.113769,43281.333,7065,3,GY,1,100,-76.935
1576770659.152534,43314.000,7065,3,GY,1,100,-85.541
1576770659.193673,43348.667,7083,3,GY,1,100,-77.484
1576770659.234812,43383.333,7083,3,GY,1,100,-50.690
1576770659.275951,43418.000,7083,3,GY,1,100,-39.215
1576770659.316298,43452.000,7101,3,GY,1,100,-28.961
1576770659.356646,43486.000,7101,3,GY,1,100,-23.712
1576770659.396994,43520.000,7101,3,GY,1,100,-26.489
1576770659.438133,43554.667,7119,3,GY,1,100,5.585
1576770659.479271,43589.333,7119,3,GY,1,100,10.895
1576770659.520410,43624.000,7119,3,GY,1,100,-25.665
1576770659.561549,43658.667,7137,3,GY,1,100,-24.872
1576770659.602688,43693.333,7137,3,GY,1,100,-29.755
1576770659.643827,43728.000,7137,3,GY,1,100,-11.658
1576770659.683383,43761.333,7153,3,GY,1,100,13.153
1576770659.722940,43794.667,7153,3,GY,1,100,9.460
1576770659.762496,43828.000,7153,3,GY,1,100,-5.951
1576770659.803635,43862.667,7171,3,GY,1,100,-4.517
1576770659.844774,43897.333,7171,3,GY,1,100,7.446
1576770659.885913,43932.000,7171,3,GY,1,100,10.803
1576770659.926656,43966.333,7189,3,GY,1,100,6.470
1576770659.967399,44000.667,7189,3,GY,1,100,-0.214
1576770660.008142,44035.000,7189,3,GY,1,100,-1.984
1576770660.048886,44069.333,7207,3,GY,1,100,-1.190
1576770660.089629,44103.667,7207,3,GY,1,100,4.425
1576770660.130372,44138.000,7207,3,GY,1,100,9.308
1576770660.168346,44170.000,7225,3,GY,1,100,8.209
1576770660.206321,44202.000,7225,3,GY,1,100,2.625
1576770660.244295,44234.000,7225,3,GY,1,100,1.099
1576770660.282665,44266.333,7243,3,GY,1,100,0.183
1576770660.321035,44298.667,7243,3,GY,1,100,1.190
1576770660.359405,44331.000,7243,3,GY,1,100,1.282
1576770660.403708,44368.333,7262,3,GY,1,100,6.714
1576770660.448011,44405.667,7262,3,GY,1,100,8.514
1576770660.492314,44443.000,7262,3,GY,1,100,4.639
1576770660.533453,44477.667,7279,3,GY,1,100,5.432
1576770660.574592,44512.333,7279,3,GY,1,100,1.190
1576770660.615731,44547.000,7279,3,GY,1,100,-5.219
1576770660.656474,44581.333,7297,3,GY,1,100,-7.202
1576770660.697217,44615.667,7297,3,GY,1,100,-9.918
1576770660.737961,44650.000,7297,3,GY,1,100,-8.179
1576770660.774353,44680.667,7315,3,GY,1,100,-7.782
1576770660.810745,44711.333,7315,3,GY,1,100,-2.228
1576770660.847136,44742.000,7315,3,GY,1,100,4.547
1576770660.887089,44775.667,7333,3,GY,1,100,3.693
1576770660.927041,44809.333,7333,3,GY,1,100,0.854
1576770660.966993,44843.000,7333,3,GY,1,100,-1.770
1576770661.006945,44876.667,7349,3,GY,1,100,-3.601
1576770661.046897,44910.333,7349,3,GY,1,100,0.763
1576770661.086849,44944.000,7349,3,GY,1,100,2.319
1576770661.129175,44979.667,7367,3,GY,1,100,0.916
1576770661.171500,45015.333,7367,3,GY,1,100,0.549
1576770661.213826,45051.000,7367,3,GY,1,100,-1.038
1576770661.254173,45085.000,7385,3,GY,1,100,-5.127
1576770661.294521,45119.000,7385,3,GY,1,100,-5.127
1576770661.334869,45153.000,7385,3,GY,1,100,-2.808
1576770661.375810,45187.500,7404,2,GY,1,100,3.204
1576770661.416751,45222.000,7404,2,GY,1,100,3.876
1576770661.461845,45260.000,7422,3,GY,1,100,2.045
1576770661.506940,45298.000,7422,3,GY,1,100,1.465
1576770661.552034,45336.000,7422,3,GY,1,100,-0.671
1576770661.590008,45368.000,7440,3,GY,1,100,-1.526
1576770661.627983,45400.000,7440,3,GY,1,100,0.641
1576770661.665957,45432.000,7440,3,GY,1,100,0.763
1576770661.705513,45465.333,7457,3,GY,1,100,0.854
1576770661.745070,45498.667,7457,3,GY,1,100,1.373
1576770661.784626,45532.000,7457,3,GY,1,100,-0.610
1576770661.823194,45564.500,7475,4,GY,1,100,-2.899
1576770661.861762,45597.000,7475,4,GY,1,100,-5.890
1576770661.900329,45629.500,7475,4,GY,1,100,-5.005
1576770661.938897,45662.000,7475,4,GY,1,100,-2.472
1576770661.978058,45695.000,7493,3,GY,1,100,-1.465
1576770662.017219,45728.000,7493,3,GY,1,100,0.183
1576770662.056380,45761.000,7493,3,GY,1,100,-0.244
1576770662.097321,45795.500,7509,2,GY,1,100,0.641
1576770662.138262,45830.000,7509,2,GY,1,100,1.740
1576770662.179203,45864.500,7527,4,GY,1,100,-2.655
1576770662.220144,45899.000,7527,4,GY,1,100,-5.463
1576770662.261085,45933.500,7527,4,GY,1,100,-2.838
1576770662.302026,45968.000,7527,4,GY,1,100,1.068
1576770662.344154,46003.500,7546,2,GY,1,100,0.427
1576770662.386281,46039.000,7546,2,GY,1,100,1.556
1576770662.427420,46073.667,7564,3,GY,1,100,3.174
1576770662.468559,46108.333,7564,3,GY,1,100,1.678
1576770662.509698,46143.000,7564,3,GY,1,100,-0.244
1576770662.547672,46175.000,7582,3,GY,1,100,-2.136
1576770662.585646,46207.000,7582,3,GY,1,100,-1.770
1576770662.623621,46239.000,7582,3,GY,1,100,0.397
1576770662.663968,46273.000,7603,5,GY,1,100,0.732
1576770662.704316,46307.000,7603,5,GY,1,100,0.214
1576770662.744664,46341.000,7603,5,GY,1,100,-0.183
1576770662.785011,46375.000,7603,5,GY,1,100,1.068
1576770662.825359,46409.000,7603,5,GY,1,100,3.265
1576770662.866498,46443.667,7619,3,GY,1,100,-0.336
1576770662.907637,46478.333,7619,3,GY,1,100,-1.678
1576770662.948776,46513.000,7619,3,GY,1,100,1.465
1576770662.988728,46546.667,7639,3,GY,1,100,1.160
1576770663.028680,46580.333,7639,3,GY,1,100,-0.275
1576770663.068632,46614.000,7639,3,GY,1,100,-1.740
1576770663.106210,46645.667,7657,3,GY,1,100,0.854
1576770663.143789,46677.333,7657,3,GY,1,100,5.035
1576770663.181368,46709.000,7657,3,GY,1,100,2.777
1576770663.224880,46745.667,7675,3,GY,1,100,-0.580
1576770663.268392,46782.333,7675,3,GY,1,100,-0.885
1576770663.311904,46819.000,7675,3,GY,1,100,-0.366
1576770663.353043,46853.667,7694,3,GY,1,100,-1.801
1576770663.394182,46888.333,7694,3,GY,1,100,-1.709
1576770663.435321,46923.000,7694,3,GY,1,100,-1.160
1576770663.476460,46957.667,7712,3,GY,1,100,-1.495
1576770663.517598,46992.333,7712,3,GY,1,100,1.526
1576770663.558737,47027.000,7712,3,GY,1,100,5.157
1576770663.599085,47061.000,7729,3,GY,1,100,3.540
1576770663.639433,47095.000,7729,3,GY,1,100,1.709
1576770663.679780,47129.000,7729,3,GY,1,100,1.587
1576770663.716964,47160.333,7747,3,GY,1,100,0.061
1576770663.754147,47191.667,7747,3,GY,1,100,-1.862
1576770663.791330,47223.000,7747,3,GY,1,100,-3.326
1576770663.830886,47256.333,7765,3,GY,1,100,-1.221
1576770663.870443,47289.667,7765,3,GY,1,100,2.960
1576770663.909999,47323.000,7765,3,GY,1,100,3.326
1576770663.951138,47357.667,7783,3,GY,1,100,1.465
1576770663.992277,47392.333,7783,3,GY,1,100,-1.617
1576770664.033416,47427.000,7783,3,GY,1,100,-0.854
1576770664.080884,47467.000,7799,2,GY,1,100,-0.458
1576770664.128351,47507.000,7799,2,GY,1,100,-0.916
1576770664.169095,47541.333,7817,3,GY,1,100,-0.122
1576770664.209838,47575.667,7817,3,GY,1,100,-0.519
1576770664.250581,47610.000,7817,3,GY,1,100,-1.129
1576770664.288259,47641.750,7836,4,GY,1,100,0.610
1576770664.325936,47673.500,7836,4,GY,1,100,1.038
1576770664.363614,47705.250,7836,4,GY,1,100,0.488
1576770664.401292,47737.000,7836,4,GY,1,100,-0.671
1576770664.439661,47769.333,7854,3,GY,1,100,0.153
1576770664.478031,47801.667,7854,3,GY,1,100,1.556
1576770664.516401,47834.000,7854,3,GY,1,100,-0.275
1576770664.557935,47869.000,7872,3,GY,1,100,-1.862
1576770664.599470,47904.000,7872,3,GY,1,100,-1.221
1576770664.641004,47939.000,7872,3,GY,1,100,-0.122
1576770664.682143,47973.667,7890,3,GY,1,100,-2.350
1576770664.723282,48008.333,7890,3,GY,1,100,-1.678
1576770664.764421,48043.000,7890,3,GY,1,100,0.336
1576770664.810702,48082.000,7908,2,GY,1,100,-1.007
1576770664.856983,48121.000,7908,2,GY,1,100,-3.662
1576770664.893770,48152.000,7925,4,GY,1,100,-2.838
1576770664.930558,48183.000,7925,4,GY,1,100,-2.014
1576770664.967346,48214.000,7925,4,GY,1,100,-0.763
1576770665.004133,48245.000,7925,4,GY,1,100,2.228
1576770665.044481,48279.000,7943,2,GY,1,100,4.913
1576770665.084829,48313.000,7943,2,GY,1,100,1.678
1576770665.124880,48346.750,7961,4,GY,1,100,-1.190
1576770665.164931,48380.500,7961,4,GY,1,100,0.488
1576770665.204982,48414.250,7961,4,GY,1,100,1.648
1576770665.245033,48448.000,7961,4,GY,1,100,-0.031
1576770665.284787,48481.500,7977,2,GY,1,100,0.549
1576770665.324541,48515.000,7977,2,GY,1,100,1.892
1576770665.363999,48548.250,7996,4,GY,1,100,0.214
1576770665.403456,48581.500,7996,4,GY,1,100,-1.556
1576770665.442914,48614.750,7996,4,GY,1,100,0.031
1576770665.482372,48648.000,7996,4,GY,1,100,0.122
1576770665.522324,48681.667,8014,3,GY,1,100,-0.488
1576770665.562276,48715.333,8014,3,GY,1,100,-0.793
1576770665.602228,48749.000,8014,3,GY,1,100,-1.923
1576770665.643169,48783.500,8032,2,GY,1,100,-1.526
1576770665.684110,48818.000,8032,2,GY,1,100,0.214
1576770665.725249,48852.667,8050,3,GY,1,100,0.427
1576770665.766388,48887.333,8050,3,GY,1,100,0.946
1576770665.807527,48922.000,8050,3,GY,1,100,0.610
1576770665.848665,48956.667,8068,3,GY,1,100,-1.038
1576770665.889804,48991.333,8068,3,GY,1,100,-1.221
1576770665.930943,49026.000,8068,3,GY,1,100,-0.061
1576770665.968621,49057.750,8086,4,GY,1,100,-0.305
1576770666.006298,49089.500,8086,4,GY,1,100,-0.916
1576770666.043976,49121.250,8086,4,GY,1,100,0.641
1576770666.081653,49153.000,8086,4,GY,1,100,0.061
1576770666.122001,49187.000,8104,2,GY,1,100,-1.160
1576770666.162349,49221.000,8104,2,GY,1,100,0.153
1576770666.206652,49258.333,8121,3,GY,1,100,0.793
1576770666.250955,49295.667,8121,3,GY,1,100,1.312
1576770666.295259,49333.000,8121,3,GY,1,100,0.061
1576770666.336002,49367.333,8140,3,GY,1,100,-0.854
1576770666.376745,49401.667,8140,3,GY,1,100,-0.153
1576770666.417488,49436.000,8140,3,GY,1,100,-1.099
1576770666.458231,49470.333,8156,3,GY,1,100,-2.106
1576770666.498975,49504.667,8156,3,GY,1,100,0.641
1576770666.539718,49539.000,8156,3,GY,1,100,0.488
1576770666.577692,49571.000,8174,3,GY,1,100,-0.214
1576770666.615667,49603.000,8174,3,GY,1,100,-1.770
1576770666.653641,49635.000,8174,3,GY,1,100,-1.740
1576770666.691615,49667.000,8192,3,GY,1,100,-0.854
1576770666.729589,49699.000,8192,3,GY,1,100,-0.122
1576770666.767564,49731.000,8192,3,GY,1,100,1.373
1576770666.807911,49765.000,8210,3,GY,1,100,-0.305
1576770666.848259,49799.000,8210,3,GY,1,100,-1.251
1576770666.888607,49833.000,8210,3,GY,1,100,0.458
1576770666.933306,49870.667,8228,3,GY,1,100,-0.732
1576770666.978004,49908.333,8228,3,GY,1,100,-0.732
1576770667.022703,49946.000,8228,3,GY,1,100,0.519
1576770667.064238,49981.000,8246,3,GY,1,100,-0.275
1576770667.105772,50016.000,8246,3,GY,1,100,-0.092
1576770667.147306,50051.000,8246,3,GY,1,100,1.953
1576770667.185281,50083.000,8264,3,GY,1,100,0.519
1576770667.223255,50115.000,8264,3,GY,1,100,-0.671
1576770667.261229,50147.000,8264,3,GY,1,100,0.488
1576770667.299204,50179.000,8283,3,GY,1,100,0.641
1576770667.337178,50211.000,8283,3,GY,1,100,-1.740
1576770667.375152,50243.000,8283,3,GY,1,100,1.160
1576770667.415500,50277.000,8300,3,GY,1,100,1.526
1576770667.455848,50311.000,8300,3,GY,1,100,-4.761
1576770667.496195,50345.000,8300,3,GY,1,100,-2.594
1576770667.537730,50380.000,8318,3,GY,1,100,1.007
1576770667.579264,50415.000,8318,3,GY,1,100,0.183
1576770667.620798,50450.000,8318,3,GY,1,100,-0.519
1576770667.665893,50488.000,8334,3,GY,1,100,-1.801
1576770667.710987,50526.000,8334,3,GY,1,100,-2.014
1576770667.756082,50564.000,8334,3,GY,1,100,-1.221
1576770667.793265,50595.333,8352,3,GY,1,100,1.068
1576770667.830448,50626.667,8352,3,GY,1,100,5.096
1576770667.867631,50658.000,8352,3,GY,1,100,4.883
1576770667.906001,50690.333,8370,3,GY,1,100,2.411
1576770667.944371,50722.667,8370,3,GY,1,100,-1.160
1576770667.982740,50755.000,8370,3,GY,1,100,-4.578
1576770668.023088,50789.000,8388,3,GY,1,100,-3.021
1576770668.063436,50823.000,8388,3,GY,1,100,-0.153
1576770668.103784,50857.000,8388,3,GY,1,100,0.336
1576770668.144922,50891.667,8406,3,GY,1,100,1.404
1576770668.186061,50926.333,8406,3,GY,1,100,-1.038
1576770668.227200,50961.000,8406,3,GY,1,100,-2.563
1576770668.268339,50995.667,8424,3,GY,1,100,1.160
1576770668.309478,51030.333,8424,3,GY,1,100,3.204
1576770668.350616,51065.000,8424,3,GY,1,100,1.984
1576770668.388986,51097.333,8443,3,GY,1,100,0.671
1576770668.427356,51129.667,8443,3,GY,1,100,-1.282
1576770668.465726,51162.000,8443,3,GY,1,100,-1.129
1576770668.506073,51196.000,8461,3,GY,1,100,-0.122
1576770668.546421,51230.000,8461,3,GY,1,100,0.336
1576770668.586769,51264.000,8461,3,GY,1,100,2.380
1576770668.623952,51295.333,8479,3,GY,1,100,1.801
1576770668.661135,51326.667,8479,3,GY,1,100,3.021
1576770668.698318,51358.000,8479,3,GY,1,100,2.686
1576770668.740327,51393.400,8498,5,GY,1,100,-0.763
1576770668.782336,51428.800,8498,5,GY,1,100,-2.869
1576770668.824345,51464.200,8498,5,GY,1,100,-0.488
1576770668.866354,51499.600,8498,5,GY,1,100,-1.312
1576770668.908364,51535.000,8498,5,GY,1,100,0.336
1576770668.947525,51568.000,8520,3,GY,1,100,0.549
1576770668.986686,51601.000,8520,3,GY,1,100,0.458
1576770669.025846,51634.000,8520,3,GY,1,100,0.488
1576770669.066590,51668.333,8538,3,GY,1,100,1.251
1576770669.107333,51702.667,8538,3,GY,1,100,4.425
1576770669.148076,51737.000,8538,3,GY,1,100,5.188
1576770669.188424,51771.000,8556,3,GY,1,100,0.153
1576770669.228771,51805.000,8556,3,GY,1,100,-2.411
1576770669.269119,51839.000,8556,3,GY,1,100,0.458
1576770669.310653,51874.000,8574,2,GY,1,100,2.167
1576770669.352188,51909.000,8574,2,GY,1,100,-0.275
1576770669.392535,51943.000,8592,3,GY,1,100,1.984
1576770669.432883,51977.000,8592,3,GY,1,100,5.096
1576770669.473231,52011.000,8592,3,GY,1,100,4.028
1576770669.511205,52043.000,8610,4,GY,1,100,1.465
1576770669.549179,52075.000,8610,4,GY,1,100,2.930
1576770669.587154,52107.000,8610,4,GY,1,100,0.366
1576770669.625128,52139.000,8610,4,GY,1,100,-5.951
1576770669.665476,52173.000,8626,3,GY,1,100,-1.953
1576770669.705823,52207.000,8626,3,GY,1,100,6.744
1576770669.746171,52241.000,8626,3,GY,1,100,20.386
1576770669.793046,52280.500,8644,2,GY,1,100,38.849
1576770669.839920,52320.000,8644,2,GY,1,100,60.303
1576770669.879872,52353.667,8662,3,GY,1,100,67.261
1576770669.919824,52387.333,8662,3,GY,1,100,50.293
1576770669.959776,52421.000,8662,3,GY,1,100,25.726
1576770670.000915,52455.667,8680,3,GY,1,100,2.411
1576770670.042054,52490.333,8680,3,GY,1,100,2.228
1576770670.083193,52525.000,8680,3,GY,1,100,9.552
1576770670.120376,52556.333,8698,3,GY,1,100,6.958
1576770670.157559,52587.667,8698,3,GY,1,100,7.355
1576770670.194742,52619.000,8698,3,GY,1,100,18.585
1576770670.233508,52651.667,8716,3,GY,1,100,38.605
1576770670.272273,52684.333,8716,3,GY,1,100,40.466
1576770670.311038,52717.000,8716,3,GY,1,100,15.045
1576770670.351782,52751.333,8735,3,GY,1,100,2.502
1576770670.392525,52785.667,8735,3,GY,1,100,0.519
1576770670.433268,52820.000,8735,3,GY,1,100,-11.414
1576770670.473220,52853.667,8753,3,GY,1,100,-21.515
1576770670.513172,52887.333,8753,3,GY,1,100,-29.572
1576770670.553124,52921.000,8753,3,GY,1,100,-36.682
1576770670.597823,52958.667,8770,3,GY,1,100,-32.806
1576770670.642522,52996.333,8770,3,GY,1,100,-29.144
1576770670.687221,53034.000,8770,3,GY,1,100,-15.320
1576770670.725195,53066.000,8788,3,GY,1,100,10.590
1576770670.763170,53098.000,8788,3,GY,1,100,26.367
1576770670.801144,53130.000,8788,3,GY,1,100,23.926
1576770670.839514,53162.333,8806,3,GY,1,100,16.632
1576770670.877883,53194.667,8806,3,GY,1,100,9.247
1576770670.916253,53227.000,8806,3,GY,1,100,2.411
1576770670.957392,53261.667,8822,3,GY,1,100,-0.488
1576770670.998531,53296.333,8822,3,GY,1,100,-2.197
1576770671.039670,53331.000,8822,3,GY,1,100,-3.418
1576770671.080413,53365.333,8840,3,GY,1,100,-4.852
1576770671.121156,53399.667,8840,3,GY,1,100,-2.686
1576770671.161900,53434.000,8840,3,GY,1,100,-0.671
1576770671.203434,53469.000,8858,3,GY,1,100,-1.068
1576770671.244968,53504.000,8858,3,GY,1,100,-2.899
1576770671.286503,53539.000,8858,3,GY,1,100,0.366
1576770671.327641,53573.667,8877,3,GY,1,100,3.326
1576770671.368780,53608.333,8877,3,GY,1,100,-0.061
1576770671.409919,53643.000,8877,3,GY,1,100,2.289
1576770671.449080,53676.000,8895,3,GY,1,100,2.747
1576770671.488241,53709.000,8895,3,GY,1,100,-5.219
1576770671.527402,53742.000,8895,3,GY,1,100,-8.972
1576770671.567354,53775.667,8913,3,GY,1,100,-1.404
1576770671.607306,53809.333,8913,3,GY,1,100,7.538
1576770671.647258,53843.000,8913,3,GY,1,100,3.296
1576770671.688397,53877.667,8931,3,GY,1,100,0.336
1576770671.729536,53912.333,8931,3,GY,1,100,4.150
1576770671.770675,53947.000,8931,3,GY,1,100,3.601
1576770671.812209,53982.000,8948,3,GY,1,100,-3.632
1576770671.853743,54017.000,8948,3,GY,1,100,-10.010
1576770671.895278,54052.000,8948,3,GY,1,100,-7.568
1576770671.932856,54083.667,8966,3,GY,1,100,36.285
1576770671.970435,54115.333,8966,3,GY,1,100,82.184
1576770672.008014,54147.000,8966,3,GY,1,100,62.500
1576770672.046779,54179.667,8984,3,GY,1,100,23.956
1576770672.085545,54212.333,8984,3,GY,1,100,9.186
1576770672.124310,54245.000,8984,3,GY,1,100,3.387
1576770672.168218,54282.000,9000,3,GY,1,100,-6.500
1576770672.212126,54319.000,9000,3,GY,1,100,-13.153
1576770672.256033,54356.000,9000,3,GY,1,100,-17.029
1576770672.294799,54388.667,9019,3,GY,1,100,-15.259
1576770672.333564,54421.333,9019,3,GY,1,100,-6.134
1576770672.372329,54454.000,9019,3,GY,1,100,-2.075
1576770672.418017,54492.500,9037,2,GY,1,100,-3.845
1576770672.463705,54531.000,9037,2,GY,1,100,-1.526
1576770672.502569,54563.750,9055,4,GY,1,100,1.923
1576770672.541434,54596.500,9055,4,GY,1,100,3.387
1576770672.580298,54629.250,9055,4,GY,1,100,5.066
1576770672.619162,54662.000,9055,4,GY,1,100,5.310
1576770672.665443,54701.000,9073,2,GY,1,100,1.312
1576770672.711725,54740.000,9073,2,GY,1,100,-4.974
1576770672.752863,54774.667,9091,3,GY,1,100,-8.057
1576770672.794002,54809.333,9091,3,GY,1,100,-8.148
1576770672.835141,54844.000,9091,3,GY,1,100,-4.944
1576770672.877071,54879.333,9108,3,GY,1,100,0.122
1576770672.919001,54914.667,9108,3,GY,1,100,-0.031
1576770672.960931,54950.000,9108,3,GY,1,100,-2.197
1576770672.998510,54981.667,9126,3,GY,1,100,-2.625
1576770673.036088,55013.333,9126,3,GY,1,100,-0.092
1576770673.073667,55045.000,9126,3,GY,1,100,-0.305
1576770673.111246,55076.667,9144,3,GY,1,100,0.763
1576770673.148824,55108.333,9144,3,GY,1,100,1.312
1576770673.186403,55140.000,9144,3,GY,1,100,0.427
1576770673.226751,55174.000,9160,3,GY,1,100,-0.854
1576770673.267098,55208.000,9160,3,GY,1,100,-2.747
1576770673.307446,55242.000,9160,3,GY,1,100,-0.275
1576770673.348585,55276.667,9179,3,GY,1,100,3.326
1576770673.389724,55311.333,9179,3,GY,1,100,3.601
1576770673.430862,55346.000,9179,3,GY,1,100,0.885
1576770673.471447,55380.200,9197,10,GY,1,100,-4.059
1576770673.512033,55414.400,9197,10,GY,1,100,-8.606
1576770673.552618,55448.600,9197,10,GY,1,100,-6.683
1576770673.593203,55482.800,9197,10,GY,1,100,-3.479
1576770673.633788,55517.000,9197,10,GY,1,100,-2.258
1576770673.674373,55551.200,9197,10,GY,1,100,2.686
1576770673.714957,55585.400,9197,10,GY,1,100,6.012
1576770673.755543,55619.600,9197,10,GY,1,100,5.493
1576770673.796128,55653.800,9197,10,GY,1,100,4.242
1576770673.836713,55688.000,9197,10,GY,1,100,-2.167
1576770673.876467,55721.500,9215,2,GY,1,100,-8.423
1576770673.916221,55755.000,9215,2,GY,1,100,-10.254
1576770673.957360,55789.667,9232,3,GY,1,100,-5.188
1576770673.998499,55824.333,9232,3,GY,1,100,1.038
1576770674.039638,55859.000,9232,3,GY,1,100,0.732
1576770674.079985,55893.000,9250,3,GY,1,100,-2.625
1576770674.120333,55927.000,9250,3,GY,1,100,-4.028
1576770674.160681,55961.000,9250,3,GY,1,100,-1.526
1576770674.201622,55995.500,9266,2,GY,1,100,2.930
1576770674.242563,56030.000,9266,2,GY,1,100,3.876
1576770674.283207,56064.250,9285,4,GY,1,100,-0.458
1576770674.323851,56098.500,9285,4,GY,1,100,-6.439
1576770674.364496,56132.750,9285,4,GY,1,100,-5.493
1576770674.405140,56167.000,9285,4,GY,1,100,-1.587
1576770674.445092,56200.667,9303,3,GY,1,100,-5.127
1576770674.485044,56234.333,9303,3,GY,1,100,-5.005
1576770674.524996,56268.000,9303,3,GY,1,100,0.244
1576770674.565937,56302.500,9321,2,GY,1,100,6.165
1576770674.606879,56337.000,9321,2,GY,1,100,3.784
1576770674.648413,56372.000,9339,3,GY,1,100,0.854
1576770674.689947,56407.000,9339,3,GY,1,100,-0.031
1576770674.731482,56442.000,9339,3,GY,1,100,1.343
1576770674.770643,56475.000,9360,6,GY,1,100,4.181
1576770674.809803,56508.000,9360,6,GY,1,100,2.686
1576770674.848964,56541.000,9360,6,GY,1,100,-1.190
1576770674.888125,56574.000,9360,6,GY,1,100,-3.754
1576770674.927286,56607.000,9360,6,GY,1,100,-3.571
1576770674.966447,56640.000,9360,6,GY,1,100,-0.641
1576770675.005015,56672.500,9380,2,GY,1,100,0.153
1576770675.043583,56705.000,9380,2,GY,1,100,-1.831
1576770675.087886,56742.333,9396,3,GY,1,100,-1.709
1576770675.132189,56779.667,9396,3,GY,1,100,0.916
1576770675.176492,56817.000,9396,3,GY,1,100,2.380
1576770675.217631,56851.667,9414,3,GY,1,100,0.092
1576770675.258770,56886.333,9414,3,GY,1,100,0.488
1576770675.299909,56921.000,9414,3,GY,1,100,1.831
1576770675.340652,56955.333,9433,3,GY,1,100,-0.671
1576770675.381395,56989.667,9433,3,GY,1,100,-1.312
1576770675.422139,57024.000,9433,3,GY,1,100,0.305
1576770675.461300,57057.000,9451,3,GY,1,100,0.763
1576770675.500461,57090.000,9451,3,GY,1,100,0.854
1576770675.539622,57123.000,9451,3,GY,1,100,-1.373
1576770675.577299,57154.750,9469,4,GY,1,100,-2.258
1576770675.614977,57186.500,9469,4,GY,1,100,1.587
1576770675.652654,57218.250,9469,4,GY,1,100,2.533
1576770675.690332,57250.000,9469,4,GY,1,100,-0.031
1576770675.731075,57284.333,9487,3,GY,1,100,-1.221
1576770675.771818,57318.667,9487,3,GY,1,100,-2.136
1576770675.812562,57353.000,9487,3,GY,1,100,-2.930
1576770675.859436,57392.500,9505,2,GY,1,100,0.458
1576770675.906311,57432.000,9505,2,GY,1,100,1.343
1576770675.944285,57464.000,9522,3,GY,1,100,-0.458
1576770675.982259,57496.000,9522,3,GY,1,100,1.678
1576770676.020234,57528.000,9522,3,GY,1,100,3.326
1576770676.065328,57566.000,9540,3,GY,1,100,0.671
1576770676.110422,57604.000,9540,3,GY,1,100,-3.326
1576770676.155517,57642.000,9540,3,GY,1,100,-2.747
1576770676.193491,57674.000,9556,3,GY,1,100,-0.214
1576770676.231465,57706.000,9556,3,GY,1,100,0.092
1576770676.269440,57738.000,9556,3,GY,1,100,-1.404
1576770676.314139,57775.667,9575,3,GY,1,100,-3.082
1576770676.358837,57813.333,9575,3,GY,1,100,-3.479
1576770676.403536,57851.000,9575,3,GY,1,100,-2.625
1576770676.445664,57886.500,9593,2,GY,1,100,-0.061
1576770676.487792,57922.000,9593,2,GY,1,100,0.214
1576770676.526063,57954.250,9611,4,GY,1,100,-1.099
1576770676.564334,57986.500,9611,4,GY,1,100,-2.258
1576770676.602605,58018.750,9611,4,GY,1,100,-2.045
1576770676.640876,58051.000,9611,4,GY,1,100,0.671
1576770676.680432,58084.333,9629,3,GY,1,100,1.709
1576770676.719989,58117.667,9629,3,GY,1,100,1.312
1576770676.759545,58151.000,9629,3,GY,1,100,-1.221
1576770676.799497,58184.667,9647,3,GY,1,100,-3.418
1576770676.839449,58218.333,9647,3,GY,1,100,-3.387
1576770676.879401,58252.000,9647,3,GY,1,100,-0.275
1576770676.920145,58286.333,9665,3,GY,1,100,1.007
1576770676.960888,58320.667,9665,3,GY,1,100,-0.061
1576770677.001631,58355.000,9665,3,GY,1,100,-0.092
1576770677.043759,58390.500,9682,2,GY,1,100,1.282
1576770677.085887,58426.000,9682,2,GY,1,100,1.343
1576770677.126531,58460.250,9700,4,GY,1,100,-0.244
1576770677.167175,58494.500,9700,4,GY,1,100,0.519
1576770677.207820,58528.750,9700,4,GY,1,100,0.824
1576770677.248464,58563.000,9700,4,GY,1,100,0.000
1576770677.290592,58598.500,9716,2,GY,1,100,-1.129
1576770677.332720,58634.000,9716,2,GY,1,100,0.244
1576770677.374254,58669.000,9735,3,GY,1,100,1.221
1576770677.415788,58704.000,9735,3,GY,1,100,-1.587
1576770677.457323,58739.000,9735,3,GY,1,100,-1.923
1576770677.495594,58771.250,9753,4,GY,1,100,1.160
1576770677.533864,58803.500,9753,4,GY,1,100,0.427
1576770677.572135,58835.750,9753,4,GY,1,100,-1.129
1576770677.610406,58868.000,9753,4,GY,1,100,0.092
1576770677.650754,58902.000,9771,2,GY,1,100,-2.655
1576770677.691102,58936.000,9771,2,GY,1,100,-2.838
1576770677.731845,58970.333,9789,3,GY,1,100,-0.916
1576770677.772588,59004.667,9789,3,GY,1,100,-0.824
1576770677.813331,59039.000,9789,3,GY,1,100,-1.984
1576770677.854470,59073.667,9807,3,GY,1,100,1.709
1576770677.895609,59108.333,9807,3,GY,1,100,6.317
1576770677.936748,59143.000,9807,3,GY,1,100,5.341
1576770677.975513,59175.667,9825,3,GY,1,100,-2.014
1576770678.014279,59208.333,9825,3,GY,1,100,-7.050
1576770678.053044,59241.000,9825,3,GY,1,100,-3.693
1576770678.090623,59272.667,9843,3,GY,1,100,1.801
1576770678.128201,59304.333,9843,3,GY,1,100,1.373
1576770678.165780,59336.000,9843,3,GY,1,100,-3.387
1576770678.209688,59373.000,9860,3,GY,1,100,-3.601
1576770678.253596,59410.000,9860,3,GY,1,100,3.357
1576770678.297503,59447.000,9860,3,GY,1,100,5.341
1576770678.339038,59482.000,9879,3,GY,1,100,-1.251
1576770678.380572,59517.000,9879,3,GY,1,100,-4.913
1576770678.422107,59552.000,9879,3,GY,1,100,-1.740
1576770678.463245,59586.667,9895,3,GY,1,100,1.038
1576770678.504384,59621.333,9895,3,GY,1,100,1.740
1576770678.545523,59656.000,9895,3,GY,1,100,-0.305
1576770678.585079,59689.333,9913,3,GY,1,100,-1.312
1576770678.624636,59722.667,9913,3,GY,1,100,-0.427
1576770678.664192,59756.000,9913,3,GY,1,100,0.458
1576770678.701376,59787.333,9931,3,GY,1,100,-0.458
1576770678.738559,59818.667,9931,3,GY,1,100,-1.770
1576770678.775742,59850.000,9931,3,GY,1,100,0.061
1576770678.815299,59883.333,9949,3,GY,1,100,1.160
1576770678.854855,59916.667,9949,3,GY,1,100,-0.214
1576770678.894412,59950.000,9949,3,GY,1,100,1.282
1576770678.939506,59988.000,9967,3,GY,1,100,2.136
1576770678.984601,60026.000,9967,3,GY,1,100,-2.167
1576770679.029695,60064.000,9967,3,GY,1,100,-4.761
1576770679.071229,60099.000,9985,3,GY,1,100,-2.167
1576770679.112764,60134.000,9985,3,GY,1,100,-0.427
1576770679.154298,60169.000,9985,3,GY,1,100,1.587
1576770679.192272,60201.000,10003,3,GY,1,100,2.441
1576770679.230247,60233.000,10003,3,GY,1,100,0.580
1576770679.268221,60265.000,10003,3,GY,1,100,-1.801
1576770679.306591,60297.333,10022,3,GY,1,100,-2.380
1576770679.344960,60329.667,10022,3,GY,1,100,-1.495
1576770679.383330,60362.000,10022,3,GY,1,100,-2.563
1576770679.422491,60395.000,10040,3,GY,1,100,0.092
1576770679.461652,60428.000,10040,3,GY,1,100,0.519
1576770679.500813,60461.000,10040,3,GY,1,100,-1.251
1576770679.541952,60495.667,10057,3,GY,1,100,-0.610
1576770679.583091,60530.333,10057,3,GY,1,100,-0.977
1576770679.624230,60565.000,10057,3,GY,1,100,-0.916
1576770679.669324,60603.000,10073,3,GY,1,100,-0.702
1576770679.714419,60641.000,10073,3,GY,1,100,-0.854
1576770679.759513,60679.000,10073,3,GY,1,100,0.275
1576770679.797487,60711.000,10091,3,GY,1,100,2.472
1576770679.835462,60743.000,10091,3,GY,1,100,2.014
1576770679.873436,60775.000,10091,3,GY,1,100,-0.580
1576770679.914575,60809.667,10109,3,GY,1,100,-3.815
1576770679.955714,60844.333,10109,3,GY,1,100,-5.249
1576770679.996852,60879.000,10109,3,GY,1,100,-3.143
1576770680.038782,60914.333,10127,3,GY,1,100,-1.678
1576770680.080712,60949.667,10127,3,GY,1,100,1.129
1576770680.122642,60985.000,10127,3,GY,1,100,3.632
1576770680.160616,61017.000,10145,3,GY,1,100,3.113
1576770680.198591,61049.000,10145,3,GY,1,100,-0.854
1576770680.236565,61081.000,10145,3,GY,1,100,-3.357
1576770680.277704,61115.667,10163,3,GY,1,100,-0.488
1576770680.318842,61150.333,10163,3,GY,1,100,-0.519
1576770680.359981,61185.000,10163,3,GY,1,100,-0.275
1576770680.397560,61216.667,10182,3,GY,1,100,1.465
1576770680.435139,61248.333,10182,3,GY,1,100,0.183
1576770680.472718,61280.000,10182,3,GY,1,100,-0.549
1576770680.513065,61314.000,10200,3,GY,1,100,0.793
1576770680.553413,61348.000,10200,3,GY,1,100,0.916
1576770680.593760,61382.000,10200,3,GY,1,100,0.000
1576770680.635295,61417.000,10217,3,GY,1,100,-0.977
1576770680.676829,61452.000,10217,3,GY,1,100,-2.380
1576770680.718364,61487.000,10217,3,GY,1,100,-2.869
1576770680.760293,61522.333,10235,3,GY,1,100,-0.916
1576770680.802223,61557.667,10235,3,GY,1,100,1.556
1576770680.844153,61593.000,10235,3,GY,1,100,0.519
1576770680.882424,61625.250,10256,4,GY,1,100,0.214
1576770680.920695,61657.500,10256,4,GY,1,100,0.366
1576770680.958966,61689.750,10256,4,GY,1,100,0.397
1576770680.997237,61722.000,10256,4,GY,1,100,1.556
1576770681.036101,61754.750,10276,4,GY,1,100,2.441
1576770681.074966,61787.500,10276,4,GY,1,100,1.190
1576770681.113830,61820.250,10276,4,GY,1,100,0.977
1576770681.152694,61853.000,10276,4,GY,1,100,-0.336
1576770681.198976,61892.000,10294,2,GY,1,100,-2.625
1576770681.245257,61931.000,10294,2,GY,1,100,-2.625
1576770681.285209,61964.667,10312,3,GY,1,100,1.160
1576770681.325161,61998.333,10312,3,GY,1,100,5.981
1576770681.365113,62032.000,10312,3,GY,1,100,6.927
1576770681.407439,62067.667,10330,3,GY,1,100,-0.946
1576770681.449764,62103.333,10330,3,GY,1,100,-7.446
1576770681.492090,62139.000,10330,3,GY,1,100,-7.324
1576770681.529273,62170.333,10348,3,GY,1,100,-3.021
1576770681.566456,62201.667,10348,3,GY,1,100,0.427
1576770681.603639,62233.000,10348,3,GY,1,100,2.350
1576770681.641613,62265.000,10364,3,GY,1,100,0.885
1576770681.679587,62297.000,10364,3,GY,1,100,-0.854
1576770681.717562,62329.000,10364,3,GY,1,100,-3.021
1576770681.762261,62366.667,10382,3,GY,1,100,-2.899
1576770681.806959,62404.333,10382,3,GY,1,100,-0.580
1576770681.851658,62442.000,10382,3,GY,1,100,0.458
1576770681.892402,62476.333,10400,3,GY,1,100,-1.129
1576770681.933145,62510.667,10400,3,GY,1,100,-1.801
1576770681.973888,62545.000,10400,3,GY,1,100,-0.244
1576770682.015422,62580.000,10418,3,GY,1,100,2.106
1576770682.056957,62615.000,10418,3,GY,1,100,0.641
1576770682.098491,62650.000,10418,3,GY,1,100,-1.709
1576770682.136861,62682.333,10436,3,GY,1,100,-1.617
1576770682.175231,62714.667,10436,3,GY,1,100,-0.580
1576770682.213601,62747.000,10436,3,GY,1,100,-0.732
1576770682.251575,62779.000,10454,3,GY,1,100,0.580
1576770682.289549,62811.000,10454,3,GY,1,100,3.021
1576770682.327523,62843.000,10454,3,GY,1,100,1.953
1576770682.367871,62877.000,10473,3,GY,1,100,-2.655
1576770682.408219,62911.000,10473,3,GY,1,100,-3.967
1576770682.448566,62945.000,10473,3,GY,1,100,2.838
1576770682.489705,62979.667,10491,3,GY,1,100,6.256
1576770682.530844,63014.333,10491,3,GY,1,100,-0.183
1576770682.571983,63049.000,10491,3,GY,1,100,-7.416
1576770682.617077,63087.000,10508,3,GY,1,100,-6.897
1576770682.662172,63125.000,10508,3,GY,1,100,-0.488
1576770682.707266,63163.000,10508,3,GY,1,100,4.211
1576770682.744449,63194.333,10526,3,GY,1,100,3.479
1576770682.781633,63225.667,10526,3,GY,1,100,0.305
1576770682.818816,63257.000,10526,3,GY,1,100,-0.854
1576770682.857581,63289.667,10544,3,GY,1,100,-0.305
1576770682.896347,63322.333,10544,3,GY,1,100,1.129
1576770682.935112,63355.000,10544,3,GY,1,100,0.366
1576770682.974273,63388.000,10560,3,GY,1,100,-2.258
1576770683.013434,63421.000,10560,3,GY,1,100,-0.214
1576770683.052595,63454.000,10560,3,GY,1,100,2.655
1576770683.094129,63489.000,10578,3,GY,1,100,0.519
1576770683.135664,63524.000,10578,3,GY,1,100,-0.275
1576770683.177198,63559.000,10578,3,GY,1,100,0.336
1576770683.217941,63593.333,10596,3,GY,1,100,-1.556
1576770683.258684,63627.667,10596,3,GY,1,100,-1.343
1576770683.299428,63662.000,10596,3,GY,1,100,0.214
1576770683.342149,63698.000,10615,3,GY,1,100,0.671
1576770683.384870,63734.000,10615,3,GY,1,100,-1.282
1576770683.427591,63770.000,10615,3,GY,1,100,-2.441
1576770683.465961,63802.333,10633,3,GY,1,100,0.458
1576770683.504331,63834.667,10633,3,GY,1,100,1.923
1576770683.542700,63867.000,10633,3,GY,1,100,-0.244
1576770683.581070,63899.333,10651,3,GY,1,100,-1.740
1576770683.619440,63931.667,10651,3,GY,1,100,-1.160
1576770683.657810,63964.000,10651,3,GY,1,100,-1.038
1576770683.694202,63994.667,10669,3,GY,1,100,-2.808
1576770683.730594,64025.333,10669,3,GY,1,100,-2.136
1576770683.766986,64056.000,10669,3,GY,1,100,1.831
1576770683.807334,64090.000,10687,3,GY,1,100,1.892
1576770683.847681,64124.000,10687,3,GY,1,100,-0.549
1576770683.888029,64158.000,10687,3,GY,1,100,-0.305
1576770683.926399,64190.333,10704,3,GY,1,100,1.068
1576770683.964769,64222.667,10704,3,GY,1,100,-0.549
1576770684.003139,64255.000,10704,3,GY,1,100,-2.960
1576770684.044277,64289.667,10722,3,GY,1,100,-1.007
1576770684.085416,64324.333,10722,3,GY,1,100,2.594
1576770684.126555,64359.000,10722,3,GY,1,100,0.458
1576770684.166903,64393.000,10740,3,GY,1,100,-2.075
1576770684.207250,64427.000,10740,3,GY,1,100,-0.427
1576770684.247598,64461.000,10740,3,GY,1,100,2.045
1576770684.289132,64496.000,10757,3,GY,1,100,0.580
1576770684.330667,64531.000,10757,3,GY,1,100,-1.831
1576770684.372201,64566.000,10757,3,GY,1,100,-2.563
1576770684.410175,64598.000,10775,3,GY,1,100,-0.122
1576770684.448149,64630.000,10775,3,GY,1,100,2.075
1576770684.486124,64662.000,10775,3,GY,1,100,1.465
1576770684.524494,64694.333,10793,3,GY,1,100,-2.258
1576770684.562864,64726.667,10793,3,GY,1,100,-4.059
1576770684.601233,64759.000,10793,3,GY,1,100,-0.183
1576770684.641977,64793.333,10811,3,GY,1,100,1.038
1576770684.682720,64827.667,10811,3,GY,1,100,-0.824
1576770684.723463,64862.000,10811,3,GY,1,100,-0.397
1576770684.767766,64899.333,10829,3,GY,1,100,1.740
1576770684.812070,64936.667,10829,3,GY,1,100,0.610
1576770684.856373,64974.000,10829,3,GY,1,100,-0.732
1576770684.897907,65009.000,10847,3,GY,1,100,-0.092
1576770684.939442,65044.000,10847,3,GY,1,100,0.793
1576770684.980976,65079.000,10847,3,GY,1,100,-0.397
1576770685.018950,65111.000,10865,3,GY,1,100,0.244
1576770685.056925,65143.000,10865,3,GY,1,100,1.556
1576770685.094899,65175.000,10865,3,GY,1,100,0.183
1576770685.132873,65207.000,10883,3,GY,1,100,-0.977
1576770685.170847,65239.000,10883,3,GY,1,100,0.946
1576770685.208822,65271.000,10883,3,GY,1,100,1.801
1576770685.248378,65304.333,10901,3,GY,1,100,-1.221
1576770685.287935,65337.667,10901,3,GY,1,100,-1.312
1576770685.327491,65371.000,10901,3,GY,1,100,-0.275
1576770685.372586,65409.000,10919,3,GY,1,100,0.366
1576770685.417680,65447.000,10919,3,GY,1,100,0.916
1576770685.462775,65485.000,10919,3,GY,1,100,0.732
1576770685.504309,65520.000,10935,3,GY,1,100,0.610
1576770685.545844,65555.000,10935,3,GY,1,100,0.153
1576770685.587378,65590.000,10935,3,GY,1,100,-1.099
1576770685.625748,65622.333,10953,3,GY,1,100,-1.251
1576770685.664118,65654.667,10953,3,GY,1,100,-0.549
1576770685.702487,65687.000,10953,3,GY,1,100,-0.519
1576770685.740462,65719.000,10971,3,GY,1,100,0.458
1576770685.778436,65751.000,10971,3,GY,1,100,0.397
1576770685.816410,65783.000,10971,3,GY,1,100,-1.343
1576770685.856758,65817.000,10989,3,GY,1,100,-1.892
1576770685.897105,65851.000,10989,3,GY,1,100,-1.587
1576770685.937453,65885.000,10989,3,GY,1,100,-2.380
1576770685.978988,65920.000,11007,3,GY,1,100,-1.892
1576770686.020522,65955.000,11007,3,GY,1,100,1.740
1576770686.062056,65990.000,11007,3,GY,1,100,1.465
1576770686.103591,66025.000,11025,3,GY,1,100,-0.641
1576770686.145125,66060.000,11025,3,GY,1,100,-1.312
1576770686.186659,66095.000,11025,3,GY,1,100,0.214
1576770686.231754,66133.000,11043,2,GY,1,100,0.000
1576770686.276848,66171.000,11043,2,GY,1,100,-2.228
1576770686.313933,66202.250,11062,4,GY,1,100,-1.099
1576770686.351017,66233.500,11062,4,GY,1,100,0.793
1576770686.388101,66264.750,11062,4,GY,1,100,0.519
1576770686.425185,66296.000,11062,4,GY,1,100,-1.862
1576770686.465533,66330.000,11079,2,GY,1,100,-1.984
1576770686.505881,66364.000,11079,2,GY,1,100,0.549
1576770686.546525,66398.250,11097,4,GY,1,100,2.197
1576770686.587169,66432.500,11097,4,GY,1,100,2.258
1576770686.627814,66466.750,11097,4,GY,1,100,1.465
1576770686.668458,66501.000,11097,4,GY,1,100,-0.122
1576770686.709399,66535.500,11113,2,GY,1,100,-1.434
1576770686.750340,66570.000,11113,2,GY,1,100,-1.587
1576770686.791479,66604.667,11131,3,GY,1,100,-2.441
1576770686.832618,66639.333,11131,3,GY,1,100,-2.991
1576770686.873756,66674.000,11131,3,GY,1,100,-1.556
1576770686.913392,66707.400,11152,5,GY,1,100,-1.923
1576770686.953028,66740.800,11152,5,GY,1,100,-1.038
1576770686.992663,66774.200,11152,5,GY,1,100,1.801
1576770687.032299,66807.600,11152,5,GY,1,100,0.977
1576770687.071935,66841.000,11152,5,GY,1,100,-1.373
1576770687.107931,66871.333,11171,3,GY,1,100,-0.397
1576770687.143928,66901.667,11171,3,GY,1,100,2.014
1576770687.179924,66932.000,11171,3,GY,1,100,1.587
1576770687.223436,66968.667,11190,3,GY,1,100,2.411
1576770687.266948,67005.333,11190,3,GY,1,100,2.747
1576770687.310461,67042.000,11190,3,GY,1,100,-1.282
1576770687.346061,67072.000,11208,4,GY,1,100,-3.540
1576770687.381662,67102.000,11208,4,GY,1,100,-0.793
1576770687.417263,67132.000,11208,4,GY,1,100,1.801
1576770687.452864,67162.000,11208,4,GY,1,100,0.916
1576770687.497959,67200.000,11224,2,GY,1,100,-1.892
1576770687.543053,67238.000,11224,2,GY,1,100,-2.472
1576770687.583796,67272.333,11242,3,GY,1,100,-0.397
1576770687.624540,67306.667,11242,3,GY,1,100,1.282
1576770687.665283,67341.000,11242,3,GY,1,100,2.319
1576770687.706422,67375.667,11260,3,GY,1,100,0.885
1576770687.747561,67410.333,11260,3,GY,1,100,-1.587
1576770687.788699,67445.000,11260,3,GY,1,100,-1.282
1576770687.829838,67479.667,11278,3,GY,1,100,1.740
1576770687.870977,67514.333,11278,3,GY,1,100,1.312
1576770687.912116,67549.000,11278,3,GY,1,100,-0.366
1576770687.949694,67580.667,11296,3,GY,1,100,-1.343
1576770687.987273,67612.333,11296,3,GY,1,100,-1.343
1576770688.024852,67644.000,11296,3,GY,1,100,-0.549
1576770688.063222,67676.333,11314,3,GY,1,100,0.031
1576770688.101591,67708.667,11314,3,GY,1,100,-0.763
1576770688.139961,67741.000,11314,3,GY,1,100,-1.831
1576770688.181100,67775.667,11332,3,GY,1,100,-1.923
1576770688.222239,67810.333,11332,3,GY,1,100,-0.488
1576770688.263378,67845.000,11332,3,GY,1,100,1.801
1576770688.304517,67879.667,11350,3,GY,1,100,3.326
1576770688.345655,67914.333,11350,3,GY,1,100,3.082
1576770688.386794,67949.000,11350,3,GY,1,100,1.709
1576770688.428329,67984.000,11368,3,GY,1,100,-0.763
1576770688.469863,68019.000,11368,3,GY,1,100,-1.068
1576770688.511397,68054.000,11368,3,GY,1,100,-0.854
1576770688.556096,68091.667,11386,3,GY,1,100,-3.113
1576770688.600795,68129.333,11386,3,GY,1,100,-3.815
1576770688.645494,68167.000,11386,3,GY,1,100,-2.167
1576770688.685446,68200.667,11402,3,GY,1,100,0.183
1576770688.725398,68234.333,11402,3,GY,1,100,3.845
1576770688.765350,68268.000,11402,3,GY,1,100,2.960
1576770688.802929,68299.667,11420,3,GY,1,100,-1.556
1576770688.840508,68331.333,11420,3,GY,1,100,-0.946
1576770688.878086,68363.000,11420,3,GY,1,100,1.923
1576770688.917247,68396.000,11438,3,GY,1,100,1.923
1576770688.956408,68429.000,11438,3,GY,1,100,-2.319
1576770688.995569,68462.000,11438,3,GY,1,100,-3.357
1576770689.035521,68495.667,11456,3,GY,1,100,-1.862
1576770689.075473,68529.333,11456,3,GY,1,100,-1.617
1576770689.115426,68563.000,11456,3,GY,1,100,-0.824
1576770689.156564,68597.667,11474,3,GY,1,100,-1.160
1576770689.197703,68632.333,11474,3,GY,1,100,-0.092
1576770689.238842,68667.000,11474,3,GY,1,100,2.625
1576770689.279981,68701.667,11493,3,GY,1,100,2.411
1576770689.321120,68736.333,11493,3,GY,1,100,1.801
1576770689.362258,68771.000,11493,3,GY,1,100,1.556
1576770689.403397,68805.667,11511,3,GY,1,100,0.519
1576770689.444536,68840.333,11511,3,GY,1,100,-0.610
1576770689.485675,68875.000,11511,3,GY,1,100,-2.258
1576770689.525231,68908.333,11529,3,GY,1,100,-4.700
1576770689.564788,68941.667,11529,3,GY,1,100,-4.181
1576770689.604344,68975.000,11529,3,GY,1,100,1.617
1576770689.644692,69009.000,11546,3,GY,1,100,5.585
1576770689.685040,69043.000,11546,3,GY,1,100,3.601
1576770689.725387,69077.000,11546,3,GY,1,100,1.587
1576770689.766526,69111.667,11564,3,GY,1,100,2.014
1576770689.807665,69146.333,11564,3,GY,1,100,0.183
1576770689.848804,69181.000,11564,3,GY,1,100,-3.906
1576770689.889745,69215.500,11580,2,GY,1,100,-5.463
1576770689.930686,69250.000,11580,2,GY,1,100,-3.723
1576770689.969550,69282.750,11598,4,GY,1,100,-2.533
1576770690.008414,69315.500,11598,4,GY,1,100,1.587
1576770690.047279,69348.250,11598,4,GY,1,100,3.204
1576770690.086143,69381.000,11598,4,GY,1,100,3.296
1576770690.124908,69413.667,11616,3,GY,1,100,1.648
1576770690.163674,69446.333,11616,3,GY,1,100,0.092
1576770690.202439,69479.000,11616,3,GY,1,100,-0.397
1576770690.248720,69518.000,11635,2,GY,1,100,-0.305
1576770690.295002,69557.000,11635,2,GY,1,100,-0.244
1576770690.335745,69591.333,11653,3,GY,1,100,-0.671
1576770690.376488,69625.667,11653,3,GY,1,100,-0.793
1576770690.417231,69660.000,11653,3,GY,1,100,-2.411
1576770690.458370,69694.667,11671,3,GY,1,100,-5.432
1576770690.499509,69729.333,11671,3,GY,1,100,-3.754
1576770690.540648,69764.000,11671,3,GY,1,100,2.167
1576770690.579017,69796.333,11689,3,GY,1,100,4.608
1576770690.617387,69828.667,11689,3,GY,1,100,2.686
1576770690.655757,69861.000,11689,3,GY,1,100,1.678
1576770690.692841,69892.250,11707,4,GY,1,100,-0.031
1576770690.729926,69923.500,11707,4,GY,1,100,-5.005
1576770690.767010,69954.750,11707,4,GY,1,100,-6.805
1576770690.804094,69986.000,11707,4,GY,1,100,-4.028
1576770690.845628,70021.000,11724,3,GY,1,100,-0.793
1576770690.887163,70056.000,11724,3,GY,1,100,0.610
1576770690.928697,70091.000,11724,3,GY,1,100,1.617
1576770690.975572,70130.500,11742,2,GY,1,100,2.930
1576770691.022446,70170.000,11742,2,GY,1,100,1.190
1576770691.060816,70202.333,11758,3,GY,1,100,-0.305
1576770691.099186,70234.667,11758,3,GY,1,100,-0.458
1576770691.137556,70267.000,11758,3,GY,1,100,-1.556
1576770691.182255,70304.667,11776,3,GY,1,100,-0.427
1576770691.226954,70342.333,11776,3,GY,1,100,2.197
1576770691.271652,70380.000,11776,3,GY,1,100,3.326
1576770691.313187,70415.000,11795,3,GY,1,100,0.519
1576770691.354721,70450.000,11795,3,GY,1,100,-1.984
1576770691.396255,70485.000,11795,3,GY,1,100,-1.434
1576770691.435416,70518.000,11813,3,GY,1,100,0.275
1576770691.474577,70551.000,11813,3,GY,1,100,-0.336
1576770691.513738,70584.000,11813,3,GY,1,100,-0.763
1576770691.551713,70616.000,11831,3,GY,1,100,-0.214
1576770691.589687,70648.000,11831,3,GY,1,100,-1.038
1576770691.627661,70680.000,11831,3,GY,1,100,0.305
1576770691.668800,70714.667,11849,3,GY,1,100,2.441
1576770691.709939,70749.333,11849,3,GY,1,100,1.251
1576770691.751078,70784.000,11849,3,GY,1,100,-1.953
1576770691.789448,70816.333,11867,3,GY,1,100,-3.357
1576770691.827817,70848.667,11867,3,GY,1,100,-2.380
1576770691.866187,70881.000,11867,3,GY,1,100,-0.458
1576770691.906535,70915.000,11884,3,GY,1,100,-0.183
1576770691.946882,70949.000,11884,3,GY,1,100,0.610
1576770691.987230,70983.000,11884,3,GY,1,100,1.984
1576770692.028369,71017.667,11902,3,GY,1,100,1.953
1576770692.069508,71052.333,11902,3,GY,1,100,0.549
1576770692.110646,71087.000,11902,3,GY,1,100,-3.784
1576770692.152576,71122.333,11918,3,GY,1,100,-5.035
1576770692.194506,71157.667,11918,3,GY,1,100,-4.242
1576770692.236436,71193.000,11918,3,GY,1,100,-1.007
1576770692.278366,71228.333,11937,3,GY,1,100,4.089
1576770692.320296,71263.667,11937,3,GY,1,100,2.228
1576770692.362226,71299.000,11937,3,GY,1,100,-3.143
1576770692.400200,71331.000,11955,3,GY,1,100,-6.287
1576770692.438175,71363.000,11955,3,GY,1,100,-5.035
1576770692.476149,71395.000,11955,3,GY,1,100,-1.221
1576770692.516497,71429.000,11973,3,GY,1,100,0.397
1576770692.556844,71463.000,11973,3,GY,1,100,3.082
1576770692.597192,71497.000,11973,3,GY,1,100,5.127
1576770692.637144,71530.667,11991,3,GY,1,100,3.265
1576770692.677096,71564.333,11991,3,GY,1,100,-0.519
1576770692.717048,71598.000,11991,3,GY,1,100,-2.777
1576770692.758583,71633.000,12009,3,GY,1,100,-3.296
1576770692.800117,71668.000,12009,3,GY,1,100,-1.770
1576770692.841651,71703.000,12009,3,GY,1,100,1.251
1576770692.880021,71735.333,12027,3,GY,1,100,2.350
1576770692.918391,71767.667,12027,3,GY,1,100,-0.092
1576770692.956761,71800.000,12027,3,GY,1,100,-1.526
1576770692.997346,71834.200,12048,5,GY,1,100,-1.343
1576770693.037931,71868.400,12048,5,GY,1,100,-1.312
1576770693.078516,71902.600,12048,5,GY,1,100,-1.007
1576770693.119101,71936.800,12048,5,GY,1,100,-0.305
1576770693.159686,71971.000,12048,5,GY,1,100,0.854
1576770693.200034,72005.000,12068,2,GY,1,100,1.221
1576770693.240381,72039.000,12068,2,GY,1,100,0.488
1576770693.281916,72074.000,12087,3,GY,1,100,0.458
1576770693.323450,72109.000,12087,3,GY,1,100,0.732
1576770693.364985,72144.000,12087,3,GY,1,100,0.305
1576770693.406519,72179.000,12105,3,GY,1,100,-0.580
1576770693.448053,72214.000,12105,3,GY,1,100,-0.702
1576770693.489588,72249.000,12105,3,GY,1,100,-2.930
1576770693.527957,72281.333,12123,3,GY,1,100,-4.242
1576770693.566327,72313.667,12123,3,GY,1,100,-1.343
1576770693.604697,72346.000,12123,3,GY,1,100,-2.014
1576770693.642671,72378.000,12141,3,GY,1,100,-3.296
1576770693.680645,72410.000,12141,3,GY,1,100,-4.730
1576770693.718620,72442.000,12141,3,GY,1,100,-0.275
1576770693.762923,72479.333,12159,3,GY,1,100,3.876
1576770693.807226,72516.667,12159,3,GY,1,100,2.258
1576770693.851530,72554.000,12159,3,GY,1,100,1.312
1576770693.892669,72588.667,12176,3,GY,1,100,0.458
1576770693.933807,72623.333,12176,3,GY,1,100,0.610
1576770693.974946,72658.000,12176,3,GY,1,100,0.000
1576770694.016481,72693.000,12194,3,GY,1,100,-1.312
1576770694.058015,72728.000,12194,3,GY,1,100,-0.397
1576770694.099549,72763.000,12194,3,GY,1,100,-0.061
1576770694.136733,72794.333,12210,3,GY,1,100,-1.160
1576770694.173916,72825.667,12210,3,GY,1,100,-3.754
1576770694.211099,72857.000,12210,3,GY,1,100,-4.364
1576770694.249469,72889.333,12229,3,GY,1,100,-2.075
1576770694.287838,72921.667,12229,3,GY,1,100,-1.587
1576770694.326208,72954.000,12229,3,GY,1,100,-0.305
1576770694.366556,72988.000,12247,3,GY,1,100,2.625
1576770694.406904,73022.000,12247,3,GY,1,100,3.387
1576770694.447251,73056.000,12247,3,GY,1,100,0.275
1576770694.488390,73090.667,12265,3,GY,1,100,-1.648
1576770694.529529,73125.333,12265,3,GY,1,100,-1.465
1576770694.570668,73160.000,12265,3,GY,1,100,-0.122
1576770694.616158,73198.333,12283,3,GY,1,100,2.228
1576770694.661648,73236.667,12283,3,GY,1,100,2.350
1576770694.707138,73275.000,12283,3,GY,1,100,0.183
1576770694.744716,73306.667,12301,3,GY,1,100,-1.831
1576770694.782295,73338.333,12301,3,GY,1,100,-1.282
1576770694.819874,73370.000,12301,3,GY,1,100,0.458
1576770694.866748,73409.500,12318,2,GY,1,100,-2.319
1576770694.913623,73449.000,12318,2,GY,1,100,-2.899
1576770694.952190,73481.500,12336,4,GY,1,100,-3.845
1576770694.990758,73514.000,12336,4,GY,1,100,-1.892
1576770695.029326,73546.500,12336,4,GY,1,100,-0.305
1576770695.067893,73579.000,12336,4,GY,1,100,-2.960
1576770695.108637,73613.333,12354,3,GY,1,100,-1.740
1576770695.149380,73647.667,12354,3,GY,1,100,-1.343
1576770695.190123,73682.000,12354,3,GY,1,100,-1.923
1576770695.228493,73714.333,12372,3,GY,1,100,-1.648
1576770695.266863,73746.667,12372,3,GY,1,100,-0.916
1576770695.305233,73779.000,12372,3,GY,1,100,-0.366
1576770695.343207,73811.000,12389,3,GY,1,100,0.916
1576770695.381181,73843.000,12389,3,GY,1,100,0.153
1576770695.419155,73875.000,12389,3,GY,1,100,-2.258
1576770695.459899,73909.333,12407,3,GY,1,100,-2.228
1576770695.500642,73943.667,12407,3,GY,1,100,-0.824
1576770695.541385,73978.000,12407,3,GY,1,100,0.793
1576770695.582920,74013.000,12425,3,GY,1,100,1.953
1576770695.624454,74048.000,12425,3,GY,1,100,1.404
1576770695.665988,74083.000,12425,3,GY,1,100,-0.824
1576770695.707523,74118.000,12443,3,GY,1,100,-1.740
1576770695.749057,74153.000,12443,3,GY,1,100,-1.190
1576770695.790591,74188.000,12443,3,GY,1,100,1.007
1576770695.828566,74220.000,12461,3,GY,1,100,1.648
1576770695.866540,74252.000,12461,3,GY,1,100,-0.214
1576770695.904514,74284.000,12461,3,GY,1,100,-3.052
1576770695.946048,74319.000,12479,3,GY,1,100,-5.585
1576770695.987583,74354.000,12479,3,GY,1,100,-4.242
1576770696.029117,74389.000,12479,3,GY,1,100,-4.059
1576770696.069069,74422.667,12497,3,GY,1,100,-3.296
1576770696.109021,74456.333,12497,3,GY,1,100,-1.343
1576770696.148973,74490.000,12497,3,GY,1,100,3.113
1576770696.189717,74524.333,12514,3,GY,1,100,6.775
1576770696.230460,74558.667,12514,3,GY,1,100,5.493
1576770696.271203,74593.000,12514,3,GY,1,100,0.824
1576770696.312738,74628.000,12533,2,GY,1,100,-3.204
1576770696.354272,74663.000,12533,2,GY,1,100,-6.653
1576770696.392840,74695.500,12551,4,GY,1,100,-7.996
1576770696.431407,74728.000,12551,4,GY,1,100,-5.737
1576770696.469975,74760.500,12551,4,GY,1,100,-2.136
1576770696.508543,74793.000,12551,4,GY,1,100,4.730
1576770696.546912,74825.333,12569,3,GY,1,100,10.559
1576770696.585282,74857.667,12569,3,GY,1,100,6.378
1576770696.623652,74890.000,12569,3,GY,1,100,-6.470
1576770696.669340,74928.500,12585,2,GY,1,100,-13.031
1576770696.715028,74967.000,12585,2,GY,1,100,-17.090
1576770696.756562,75002.000,12603,3,GY,1,100,-20.660
1576770696.798096,75037.000,12603,3,GY,1,100,-17.731
1576770696.839631,75072.000,12603,3,GY,1,100,-9.918
1576770696.881165,75107.000,12621,3,GY,1,100,-0.671
1576770696.922699,75142.000,12621,3,GY,1,100,5.554
1576770696.964234,75177.000,12621,3,GY,1,100,4.913
1576770697.003790,75210.333,12639,3,GY,1,100,-1.099
1576770697.043347,75243.667,12639,3,GY,1,100,-7.538
1576770697.082903,75277.000,12639,3,GY,1,100,-8.392
1576770697.120581,75308.750,12657,4,GY,1,100,-10.773
1576770697.158259,75340.500,12657,4,GY,1,100,-11.993
1576770697.195936,75372.250,12657,4,GY,1,100,-10.956
1576770697.233614,75404.000,12657,4,GY,1,100,-8.209
1576770697.274555,75438.500,12676,2,GY,1,100,-5.310
1576770697.315496,75473.000,12676,2,GY,1,100,-1.099
1576770697.356239,75507.333,12694,3,GY,1,100,3.998
1576770697.396982,75541.667,12694,3,GY,1,100,6.775
1576770697.437726,75576.000,12694,3,GY,1,100,4.028
1576770697.482424,75613.667,12711,3,GY,1,100,-1.556
1576770697.527123,75651.333,12711,3,GY,1,100,-6.012
1576770697.571822,75689.000,12711,3,GY,1,100,-4.700
1576770697.612170,75723.000,12729,3,GY,1,100,-1.251
1576770697.652518,75757.000,12729,3,GY,1,100,-2.075
1576770697.692865,75791.000,12729,3,GY,1,100,-0.031
1576770697.729653,75822.000,12747,3,GY,1,100,-3.143
1576770697.766440,75853.000,12747,3,GY,1,100,-7.690
1576770697.803228,75884.000,12747,3,GY,1,100,-7.721
1576770697.843576,75918.000,12763,3,GY,1,100,-9.338
1576770697.883923,75952.000,12763,3,GY,1,100,-8.911
1576770697.924271,75986.000,12763,3,GY,1,100,0.061
1576770697.964619,76020.000,12781,3,GY,1,100,7.141
1576770698.004966,76054.000,12781,3,GY,1,100,8.698
1576770698.045314,76088.000,12781,3,GY,1,100,6.226
1576770698.086453,76122.667,12799,3,GY,1,100,-4.364
1576770698.127592,76157.333,12799,3,GY,1,100,-6.836
1576770698.168730,76192.000,12799,3,GY,1,100,-0.671
1576770698.213825,76230.000,12817,3,GY,1,100,6.226
1576770698.258919,76268.000,12817,3,GY,1,100,5.707
1576770698.304014,76306.000,12817,3,GY,1,100,6.927
1576770698.342384,76338.333,12836,3,GY,1,100,8.759
1576770698.380754,76370.667,12836,3,GY,1,100,5.249
1576770698.419123,76403.000,12836,3,GY,1,100,5.188
1576770698.461844,76439.000,12854,3,GY,1,100,20.844
1576770698.504565,76475.000,12854,3,GY,1,100,17.517
1576770698.547287,76511.000,12854,3,GY,1,100,11.414
1576770698.585656,76543.333,12871,3,GY,1,100,5.005
1576770698.624026,76575.667,12871,3,GY,1,100,-3.265
1576770698.662396,76608.000,12871,3,GY,1,100,-5.463
1576770698.700370,76640.000,12889,3,GY,1,100,-5.676
1576770698.738345,76672.000,12889,3,GY,1,100,7.416
1576770698.776319,76704.000,12889,3,GY,1,100,8.087
1576770698.815084,76736.667,12907,3,GY,1,100,2.289
1576770698.853850,76769.333,12907,3,GY,1,100,-6.348
1576770698.892615,76802.000,12907,3,GY,1,100,-12.085
1576770698.931776,76835.000,12925,3,GY,1,100,-14.862
1576770698.970937,76868.000,12925,3,GY,1,100,-18.005
1576770699.010098,76901.000,12925,3,GY,1,100,-17.639
1576770699.051158,76935.600,12946,5,GY,1,100,-11.993
1576770699.092217,76970.200,12946,5,GY,1,100,-8.301
1576770699.133277,77004.800,12946,5,GY,1,100,-0.488
1576770699.174337,77039.400,12946,5,GY,1,100,7.263
1576770699.215396,77074.000,12946,5,GY,1,100,4.486
1576770699.257524,77109.500,12967,2,GY,1,100,-0.549
1576770699.299652,77145.000,12967,2,GY,1,100,-4.730
1576770699.337626,77177.000,12984,4,GY,1,100,-6.805
1576770699.375600,77209.000,12984,4,GY,1,100,-5.646
1576770699.413575,77241.000,12984,4,GY,1,100,-4.852
1576770699.451549,77273.000,12984,4,GY,1,100,-2.441
1576770699.488930,77304.500,13002,2,GY,1,100,-0.031
1576770699.526311,77336.000,13002,2,GY,1,100,-1.678
1576770699.569329,77372.250,13020,4,GY,1,100,-3.021
1576770699.612346,77408.500,13020,4,GY,1,100,-2.960
1576770699.655364,77444.750,13020,4,GY,1,100,-4.120
1576770699.698382,77481.000,13020,4,GY,1,100,-5.035
1576770699.739916,77516.000,13036,2,GY,1,100,-3.204
1576770699.781451,77551.000,13036,2,GY,1,100,-4.517
1576770699.822589,77585.667,13054,3,GY,1,100,-7.385
1576770699.863728,77620.333,13054,3,GY,1,100,-4.272
1576770699.904867,77655.000,13054,3,GY,1,100,-0.702
1576770699.943434,77687.500,13072,4,GY,1,100,-0.092
1576770699.982002,77720.000,13072,4,GY,1,100,-3.693
1576770700.020570,77752.500,13072,4,GY,1,100,-7.538
1576770700.059137,77785.000,13072,4,GY,1,100,-1.038
1576770700.097903,77817.667,13090,3,GY,1,100,-2.960
1576770700.136668,77850.333,13090,3,GY,1,100,-10.956
1576770700.175434,77883.000,13090,3,GY,1,100,-4.272
1576770700.214990,77916.333,13109,3,GY,1,100,-12.451
1576770700.254547,77949.667,13109,3,GY,1,100,-17.609
1576770700.294103,77983.000,13109,3,GY,1,100,-13.428
1576770700.341571,78023.000,13127,2,GY,1,100,-10.010
1576770700.389039,78063.000,13127,2,GY,1,100,4.547
1576770700.429782,78097.333,13145,3,GY,1,100,13.092
1576770700.470525,78131.667,13145,3,GY,1,100,9.583
1576770700.511269,78166.000,13145,3,GY,1,100,7.660
1576770700.550430,78199.000,13162,3,GY,1,100,1.617
1576770700.589591,78232.000,13162,3,GY,1,100,-7.385
1576770700.628752,78265.000,13162,3,GY,1,100,0.244
1576770700.667121,78297.333,13180,3,GY,1,100,10.040
1576770700.705491,78329.667,13180,3,GY,1,100,8.759
1576770700.743861,78362.000,13180,3,GY,1,100,11.414
1576770700.783813,78395.667,13198,3,GY,1,100,8.270
1576770700.823765,78429.333,13198,3,GY,1,100,-2.167
1576770700.863717,78463.000,13198,3,GY,1,100,-7.355
1576770700.905252,78498.000,13214,3,GY,1,100,-8.026
1576770700.946786,78533.000,13214,3,GY,1,100,-5.280
1576770700.988320,78568.000,13214,3,GY,1,100,0.793
1576770701.033019,78605.667,13232,3,GY,1,100,-0.641
1576770701.077718,78643.333,13232,3,GY,1,100,-8.881
1576770701.122417,78681.000,13232,3,GY,1,100,-10.620
1576770701.161183,78713.667,13250,3,GY,1,100,-9.552
1576770701.199948,78746.333,13250,3,GY,1,100,-9.033
1576770701.238713,78779.000,13250,3,GY,1,100,-4.547
1576770701.275897,78810.333,13269,3,GY,1,100,1.312
1576770701.313080,78841.667,13269,3,GY,1,100,6.195
1576770701.350263,78873.000,13269,3,GY,1,100,8.484
1576770701.390215,78906.667,13287,3,GY,1,100,5.035
1576770701.430167,78940.333,13287,3,GY,1,100,2.960
1576770701.470119,78974.000,13287,3,GY,1,100,3.052
1576770701.510862,79008.333,13305,3,GY,1,100,2.380
1576770701.551605,79042.667,13305,3,GY,1,100,1.404
1576770701.592349,79077.000,13305,3,GY,1,100,-1.007
1576770701.633488,79111.667,13323,3,GY,1,100,-2.716
1576770701.674626,79146.333,13323,3,GY,1,100,0.916
1576770701.715765,79181.000,13323,3,GY,1,100,0.427
1576770701.756113,79215.000,13340,3,GY,1,100,0.183
1576770701.796461,79249.000,13340,3,GY,1,100,1.465
1576770701.836808,79283.000,13340,3,GY,1,100,-2.716
1576770701.877947,79317.667,13358,3,GY,1,100,-0.336
1576770701.919086,79352.333,13358,3,GY,1,100,5.737
1576770701.960225,79387.000,13358,3,GY,1,100,0.549
1576770702.000968,79421.333,13376,3,GY,1,100,-0.916
1576770702.041711,79455.667,13376,3,GY,1,100,3.174
1576770702.082454,79490.000,13376,3,GY,1,100,2.747
1576770702.120429,79522.000,13394,3,GY,1,100,-1.892
1576770702.158403,79554.000,13394,3,GY,1,100,-2.106
1576770702.196377,79586.000,13394,3,GY,1,100,-0.153
1576770702.233956,79617.667,13411,3,GY,1,100,-1.495
1576770702.271534,79649.333,13411,3,GY,1,100,-4.486
1576770702.309113,79681.000,13411,3,GY,1,100,-1.556
1576770702.349857,79715.333,13429,3,GY,1,100,-0.336
1576770702.390600,79749.667,13429,3,GY,1,100,-2.502
1576770702.431343,79784.000,13429,3,GY,1,100,-5.463
1576770702.472086,79818.333,13447,3,GY,1,100,1.251
1576770702.512830,79852.667,13447,3,GY,1,100,6.104
1576770702.553573,79887.000,13447,3,GY,1,100,-2.594
1576770702.595107,79922.000,13465,3,GY,1,100,0.732
1576770702.636642,79957.000,13465,3,GY,1,100,6.836
1576770702.678176,79992.000,13465,3,GY,1,100,4.059
1576770702.718919,80026.333,13483,3,GY,1,100,3.387
1576770702.759662,80060.667,13483,3,GY,1,100,6.378
1576770702.800406,80095.000,13483,3,GY,1,100,3.540
1576770702.841940,80130.000,13501,3,GY,1,100,0.458
1576770702.883474,80165.000,13501,3,GY,1,100,-3.326
1576770702.925009,80200.000,13501,3,GY,1,100,-6.744
1576770702.966543,80235.000,13518,3,GY,1,100,0.916
1576770703.008077,80270.000,13518,3,GY,1,100,4.913
1576770703.049612,80305.000,13518,3,GY,1,100,6.714
1576770703.087190,80336.667,13536,3,GY,1,100,4.150
1576770703.124769,80368.333,13536,3,GY,1,100,4.974
1576770703.162348,80400.000,13536,3,GY,1,100,6.317
1576770703.201904,80433.333,13555,3,GY,1,100,-0.763
1576770703.241461,80466.667,13555,3,GY,1,100,-2.350
1576770703.281017,80500.000,13555,3,GY,1,100,0.122
1576770703.320574,80533.333,13573,3,GY,1,100,0.061
1576770703.360131,80566.667,13573,3,GY,1,100,3.998
1576770703.399687,80600.000,13573,3,GY,1,100,6.744
1576770703.445177,80638.333,13589,3,GY,1,100,5.402
1576770703.490667,80676.667,13589,3,GY,1,100,7.019
1576770703.536157,80715.000,13589,3,GY,1,100,6.104
1576770703.577296,80749.667,13607,3,GY,1,100,3.113
1576770703.618435,80784.333,13607,3,GY,1,100,-1.282
1576770703.659574,80819.000,13607,3,GY,1,100,-6.409
1576770703.697548,80851.000,13625,3,GY,1,100,-7.416
1576770703.735522,80883.000,13625,3,GY,1,100,-8.636
1576770703.773496,80915.000,13625,3,GY,1,100,-7.965
1576770703.811075,80946.667,13643,3,GY,1,100,-5.188
1576770703.848654,80978.333,13643,3,GY,1,100,-3.052
1576770703.886232,81010.000,13643,3,GY,1,100,-1.862
1576770703.926580,81044.000,13661,3,GY,1,100,0.214
1576770703.966928,81078.000,13661,3,GY,1,100,-0.305
1576770704.007275,81112.000,13661,3,GY,1,100,-1.221
1576770704.048019,81146.333,13679,3,GY,1,100,1.617
1576770704.088762,81180.667,13679,3,GY,1,100,0.366
1576770704.129505,81215.000,13679,3,GY,1,100,-2.045
1576770704.175786,81254.000,13697,2,GY,1,100,-2.014
1576770704.222067,81293.000,13697,2,GY,1,100,-1.160
1576770704.262415,81327.000,13715,3,GY,1,100,-0.580
1576770704.302763,81361.000,13715,3,GY,1,100,1.495
1576770704.343111,81395.000,13715,3,GY,1,100,0.519
1576770704.380788,81426.750,13733,4,GY,1,100,-2.411
1576770704.418466,81458.500,13733,4,GY,1,100,-2.075
1576770704.456143,81490.250,13733,4,GY,1,100,0.000
1576770704.493821,81522.000,13733,4,GY,1,100,-0.549
1576770704.533773,81555.667,13751,3,GY,1,100,0.000
1576770704.573725,81589.333,13751,3,GY,1,100,0.854
1576770704.613677,81623.000,13751,3,GY,1,100,0.336
1576770704.655211,81658.000,13767,2,GY,1,100,-0.275
1576770704.696746,81693.000,13767,2,GY,1,100,-0.549
1576770704.737885,81727.667,13785,3,GY,1,100,-0.702
1576770704.779023,81762.333,13785,3,GY,1,100,-1.404
1576770704.820162,81797.000,13785,3,GY,1,100,-1.556
1576770704.860906,81831.333,13803,3,GY,1,100,0.275
1576770704.901649,81865.667,13803,3,GY,1,100,-0.824
1576770704.942392,81900.000,13803,3,GY,1,100,-1.434
1576770704.983531,81934.667,13821,3,GY,1,100,-0.336
1576770705.024670,81969.333,13821,3,GY,1,100,-1.343
1576770705.065809,82004.000,13821,3,GY,1,100,-2.960
1576770705.105919,82037.800,13842,5,GY,1,100,-2.197
1576770705.146029,82071.600,13842,5,GY,1,100,-1.831
1576770705.186139,82105.400,13842,5,GY,1,100,-0.946
1576770705.226250,82139.200,13842,5,GY,1,100,-1.038
1576770705.266360,82173.000,13842,5,GY,1,100,-2.808
1576770705.307103,82207.333,13861,3,GY,1,100,-2.991
1576770705.347847,82241.667,13861,3,GY,1,100,-2.655
1576770705.388590,82276.000,13861,3,GY,1,100,-1.190
1576770705.430124,82311.000,13879,3,GY,1,100,-1.862
1576770705.471658,82346.000,13879,3,GY,1,100,0.000
1576770705.513193,82381.000,13879,3,GY,1,100,5.005
1576770705.551167,82413.000,13897,3,GY,1,100,6.500
1576770705.589141,82445.000,13897,3,GY,1,100,1.099
1576770705.627116,82477.000,13897,3,GY,1,100,-2.686
1576770705.664299,82508.333,13915,3,GY,1,100,-2.472
1576770705.701482,82539.667,13915,3,GY,1,100,-1.740
1576770705.738665,82571.000,13915,3,GY,1,100,-1.678
1576770705.783760,82609.000,13933,3,GY,1,100,-1.892
1576770705.828854,82647.000,13933,3,GY,1,100,-0.580
1576770705.873949,82685.000,13933,3,GY,1,100,1.831
1576770705.909154,82714.667,13951,3,GY,1,100,1.617
1576770705.944359,82744.333,13951,3,GY,1,100,-0.244
1576770705.979564,82774.000,13951,3,GY,1,100,-1.343
1576770706.021494,82809.333,13969,3,GY,1,100,1.129
1576770706.063424,82844.667,13969,3,GY,1,100,1.770
1576770706.105354,82880.000,13969,3,GY,1,100,-0.519
1576770706.144515,82913.000,13986,3,GY,1,100,-2.258
1576770706.183676,82946.000,13986,3,GY,1,100,-1.587
1576770706.222837,82979.000,13986,3,GY,1,100,0.092
1576770706.267932,83017.000,14005,3,GY,1,100,2.350
1576770706.313026,83055.000,14005,3,GY,1,100,1.892
1576770706.358120,83093.000,14005,3,GY,1,100,1.190
1576770706.399061,83127.500,14021,2,GY,1,100,0.275
1576770706.440002,83162.000,14021,2,GY,1,100,-0.488
1576770706.481932,83197.333,14039,3,GY,1,100,0.183
1576770706.523862,83232.667,14039,3,GY,1,100,-1.465
1576770706.565792,83268.000,14039,3,GY,1,100,-2.319
1576770706.603470,83299.750,14057,4,GY,1,100,1.190
1576770706.641148,83331.500,14057,4,GY,1,100,0.610
1576770706.678825,83363.250,14057,4,GY,1,100,-1.251
1576770706.716503,83395.000,14057,4,GY,1,100,-0.580
1576770706.755268,83427.667,14075,3,GY,1,100,-2.075
1576770706.794034,83460.333,14075,3,GY,1,100,-1.190
1576770706.832799,83493.000,14075,3,GY,1,100,0.885
1576770706.873938,83527.667,14093,3,GY,1,100,4.791
1576770706.915076,83562.333,14093,3,GY,1,100,4.211
1576770706.956215,83597.000,14093,3,GY,1,100,-3.662
1576770706.997156,83631.500,14111,2,GY,1,100,-12.756
1576770707.038097,83666.000,14111,2,GY,1,100,-11.108
1576770707.083983,83704.667,14129,3,GY,1,100,-4.944
1576770707.129869,83743.333,14129,3,GY,1,100,-17.822
1576770707.175754,83782.000,14129,3,GY,1,100,-8.514
1576770707.213333,83813.667,14148,3,GY,1,100,9.369
1576770707.250912,83845.333,14148,3,GY,1,100,10.468
1576770707.288490,83877.000,14148,3,GY,1,100,2.563
1576770707.326860,83909.333,14165,3,GY,1,100,4.456
1576770707.365230,83941.667,14165,3,GY,1,100,25.970
1576770707.403600,83974.000,14165,3,GY,1,100,27.863
1576770707.443948,84008.000,14183,3,GY,1,100,10.895
1576770707.484295,84042.000,14183,3,GY,1,100,16.144
1576770707.524643,84076.000,14183,3,GY,1,100,40.894
1576770707.565386,84110.333,14199,3,GY,1,100,18.738
1576770707.606129,84144.667,14199,3,GY,1,100,-18.738
1576770707.646873,84179.000,14199,3,GY,1,100,-18.066
1576770707.688407,84214.000,14217,3,GY,1,100,5.524
1576770707.729941,84249.000,14217,3,GY,1,100,13.245
1576770707.771476,84284.000,14217,3,GY,1,100,28.290
1576770707.813406,84319.333,14235,3,GY,1,100,22.461
1576770707.855335,84354.667,14235,3,GY,1,100,-10.315
1576770707.897265,84390.000,14235,3,GY,1,100,-19.958
1576770707.935240,84422.000,14253,3,GY,1,100,-19.196
1576770707.973214,84454.000,14253,3,GY,1,100,-18.188
1576770708.011188,84486.000,14253,3,GY,1,100,-11.902
1576770708.051140,84519.667,14271,3,GY,1,100,-1.740
1576770708.091092,84553.333,14271,3,GY,1,100,0.397
1576770708.131045,84587.000,14271,3,GY,1,100,1.038
1576770708.172579,84622.000,14289,3,GY,1,100,0.885
1576770708.214113,84657.000,14289,3,GY,1,100,-2.319
1576770708.255648,84692.000,14289,3,GY,1,100,-2.472
1576770708.297182,84727.000,14308,3,GY,1,100,-1.984
1576770708.338717,84762.000,14308,3,GY,1,100,-3.754
1576770708.380251,84797.000,14308,3,GY,1,100,-2.502
1576770708.419412,84830.000,14325,3,GY,1,100,-3.723
1576770708.458573,84863.000,14325,3,GY,1,100,-0.916
1576770708.497734,84896.000,14325,3,GY,1,100,0.977
1576770708.539268,84931.000,14343,3,GY,1,100,1.068
1576770708.580802,84966.000,14343,3,GY,1,100,0.061
1576770708.622337,85001.000,14343,3,GY,1,100,-1.160
1576770708.661893,85034.333,14361,3,GY,1,100,-1.556
1576770708.701450,85067.667,14361,3,GY,1,100,1.465
1576770708.741006,85101.000,14361,3,GY,1,100,1.038
1576770708.782145,85135.667,14377,3,GY,1,100,-0.977
1576770708.823284,85170.333,14377,3,GY,1,100,-1.404
1576770708.864423,85205.000,14377,3,GY,1,100,-2.533
1576770708.905166,85239.333,14395,3,GY,1,100,-2.594
1576770708.945909,85273.667,14395,3,GY,1,100,-1.801
1576770708.986652,85308.000,14395,3,GY,1,100,0.183
1576770709.026605,85341.667,14413,3,GY,1,100,-0.092
1576770709.066557,85375.333,14413,3,GY,1,100,-1.221
1576770709.106509,85409.000,14413,3,GY,1,100,-0.671
1576770709.144088,85440.667,14431,3,GY,1,100,-0.366
1576770709.181666,85472.333,14431,3,GY,1,100,-0.885
1576770709.219245,85504.000,14431,3,GY,1,100,-1.129
1576770709.258406,85537.000,14450,3,GY,1,100,-0.977
1576770709.297567,85570.000,14450,3,GY,1,100,-1.831
1576770709.336728,85603.000,14450,3,GY,1,100,-0.977
1576770709.381822,85641.000,14468,3,GY,1,100,-0.397
1576770709.426917,85679.000,14468,3,GY,1,100,-2.869
1576770709.472011,85717.000,14468,3,GY,1,100,-3.540
1576770709.509194,85748.333,14486,3,GY,1,100,-2.380
1576770709.546377,85779.667,14486,3,GY,1,100,-1.465
1576770709.583561,85811.000,14486,3,GY,1,100,-2.594
1576770709.625886,85846.667,14503,3,GY,1,100,-5.005
1576770709.668212,85882.333,14503,3,GY,1,100,-2.930
1576770709.710537,85918.000,14503,3,GY,1,100,-1.801
1576770709.750885,85952.000,14521,3,GY,1,100,0.977
1576770709.791233,85986.000,14521,3,GY,1,100,3.876
1576770709.831580,86020.000,14521,3,GY,1,100,2.594
1576770709.877861,86059.000,14537,2,GY,1,100,0.000
1576770709.924142,86098.000,14537,2,GY,1,100,-1.221
1576770709.965677,86133.000,14555,3,GY,1,100,-1.038
1576770710.007211,86168.000,14555,3,GY,1,100,-1.862
1576770710.048746,86203.000,14555,3,GY,1,100,-1.923
1576770710.088698,86236.667,14573,3,GY,1,100,0.214
1576770710.128650,86270.333,14573,3,GY,1,100,0.946
1576770710.168602,86304.000,14573,3,GY,1,100,1.099
1576770710.207367,86336.667,14592,3,GY,1,100,0.824
1576770710.246133,86369.333,14592,3,GY,1,100,-2.350
1576770710.284898,86402.000,14592,3,GY,1,100,-6.012
1576770710.324059,86435.000,14610,3,GY,1,100,-1.099
1576770710.363220,86468.000,14610,3,GY,1,100,6.775
1576770710.402381,86501.000,14610,3,GY,1,100,1.099
1576770710.440355,86533.000,14628,3,GY,1,100,-0.488
1576770710.478330,86565.000,14628,3,GY,1,100,0.305
1576770710.516304,86597.000,14628,3,GY,1,100,-3.632
1576770710.556256,86630.667,14646,3,GY,1,100,-6.744
1576770710.596208,86664.333,14646,3,GY,1,100,-9.308
1576770710.636160,86698.000,14646,3,GY,1,100,-9.003
1576770710.677299,86732.667,14664,3,GY,1,100,-6.927
1576770710.718438,86767.333,14664,3,GY,1,100,0.305
1576770710.759577,86802.000,14664,3,GY,1,100,4.333
1576770710.800715,86836.667,14681,3,GY,1,100,2.716
1576770710.841854,86871.333,14681,3,GY,1,100,0.214
1576770710.882993,86906.000,14681,3,GY,1,100,-6.226
1576770710.926110,86942.333,14699,3,GY,1,100,-22.217
1576770710.969226,86978.667,14699,3,GY,1,100,-20.752
1576770711.012343,87015.000,14699,3,GY,1,100,-8.087
1576770711.050317,87047.000,14717,3,GY,1,100,5.463
1576770711.088291,87079.000,14717,3,GY,1,100,24.628
1576770711.126266,87111.000,14717,3,GY,1,100,31.128
1576770711.166139,87144.600,14738,5,GY,1,100,25.299
1576770711.206012,87178.200,14738,5,GY,1,100,16.632
1576770711.245885,87211.800,14738,5,GY,1,100,4.120
1576770711.285758,87245.400,14738,5,GY,1,100,-1.099
1576770711.325631,87279.000,14738,5,GY,1,100,-1.099
1576770711.366769,87313.667,14759,3,GY,1,100,-0.732
1576770711.407908,87348.333,14759,3,GY,1,100,-0.183
1576770711.449047,87383.000,14759,3,GY,1,100,0.275
1576770711.490581,87418.000,14776,3,GY,1,100,-0.488
1576770711.532116,87453.000,14776,3,GY,1,100,1.099
1576770711.573650,87488.000,14776,3,GY,1,100,3.540
1576770711.614393,87522.333,14794,3,GY,1,100,5.157
1576770711.655137,87556.667,14794,3,GY,1,100,3.967
1576770711.695880,87591.000,14794,3,GY,1,100,-0.366
1576770711.734645,87623.667,14812,3,GY,1,100,-0.122
1576770711.773411,87656.333,14812,3,GY,1,100,-0.214
1576770711.812176,87689.000,14812,3,GY,1,100,-0.549
1576770711.853315,87723.667,14828,3,GY,1,100,0.702
1576770711.894454,87758.333,14828,3,GY,1,100,0.031
1576770711.935592,87793.000,14828,3,GY,1,100,0.397
1576770711.977127,87828.000,14846,3,GY,1,100,-0.183
1576770712.018661,87863.000,14846,3,GY,1,100,0.732
1576770712.060195,87898.000,14846,3,GY,1,100,-0.824
1576770712.101730,87933.000,14864,2,GY,1,100,-1.617
1576770712.143264,87968.000,14864,2,GY,1,100,0.977
1576770712.181535,88000.250,14882,4,GY,1,100,1.312
1576770712.219806,88032.500,14882,4,GY,1,100,-1.373
1576770712.258077,88064.750,14882,4,GY,1,100,-2.045
1576770712.296348,88097.000,14882,4,GY,1,100,-1.007
1576770712.334718,88129.333,14901,3,GY,1,100,-1.007
1576770712.373088,88161.667,14901,3,GY,1,100,-1.068
1576770712.411458,88194.000,14901,3,GY,1,100,-1.312
1576770712.458332,88233.500,14919,2,GY,1,100,-2.197
1576770712.505207,88273.000,14919,2,GY,1,100,-1.831
1576770712.545950,88307.333,14937,3,GY,1,100,-0.763
1576770712.586693,88341.667,14937,3,GY,1,100,0.458
1576770712.627436,88376.000,14937,3,GY,1,100,0.214
1576770712.668180,88410.333,14954,3,GY,1,100,-1.129
1576770712.708923,88444.667,14954,3,GY,1,100,-1.556
1576770712.749666,88479.000,14954,3,GY,1,100,-0.793
1576770712.788431,88511.667,14972,3,GY,1,100,-0.854
1576770712.827197,88544.333,14972,3,GY,1,100,-1.465
1576770712.865962,88577.000,14972,3,GY,1,100,-2.380
1576770712.903343,88608.500,14990,4,GY,1,100,-3.387
1576770712.940724,88640.000,14990,4,GY,1,100,-3.601
1576770712.978105,88671.500,14990,4,GY,1,100,-1.465
1576770713.015486,88703.000,14990,4,GY,1,100,-0.488
1576770713.055834,88737.000,15008,3,GY,1,100,-1.343
1576770713.096181,88771.000,15008,3,GY,1,100,-4.181
1576770713.136529,88805.000,15008,3,GY,1,100,-5.829
1576770713.177470,88839.500,15024,2,GY,1,100,-2.899
1576770713.218411,88874.000,15024,2,GY,1,100,-1.923
1576770713.259945,88909.000,15043,3,GY,1,100,-2.930
1576770713.301480,88944.000,15043,3,GY,1,100,-2.045
1576770713.343014,88979.000,15043,3,GY,1,100,-3.143
1576770713.384153,89013.667,15061,3,GY,1,100,-1.862
1576770713.425292,89048.333,15061,3,GY,1,100,-2.167
1576770713.466430,89083.000,15061,3,GY,1,100,-2.899
1576770713.511129,89120.667,15079,3,GY,1,100,-2.472
1576770713.555828,89158.333,15079,3,GY,1,100,-2.014
1576770713.600527,89196.000,15079,3,GY,1,100,-1.923
1576770713.637315,89227.000,15097,3,GY,1,100,-1.343
1576770713.674102,89258.000,15097,3,GY,1,100,-0.977
1576770713.710890,89289.000,15097,3,GY,1,100,-0.916
1576770713.755984,89327.000,15115,3,GY,1,100,-0.580
1576770713.801079,89365.000,15115,3,GY,1,100,-0.244
1576770713.846173,89403.000,15115,3,GY,1,100,-0.671
1576770713.883752,89434.667,15132,3,GY,1,100,-1.160
1576770713.921331,89466.333,15132,3,GY,1,100,-1.007
1576770713.958909,89498.000,15132,3,GY,1,100,-1.068
1576770713.998070,89531.000,15150,3,GY,1,100,-0.885
1576770714.037231,89564.000,15150,3,GY,1,100,0.916
1576770714.076392,89597.000,15150,3,GY,1,100,1.678
1576770714.115949,89630.333,15168,3,GY,1,100,4.150
1576770714.155505,89663.667,15168,3,GY,1,100,6.683
1576770714.195062,89697.000,15168,3,GY,1,100,5.341
1576770714.236596,89732.000,15185,3,GY,1,100,4.272
1576770714.278131,89767.000,15185,3,GY,1,100,-1.892
1576770714.319665,89802.000,15185,3,GY,1,100,-10.254
1576770714.361595,89837.333,15203,3,GY,1,100,-11.017
1576770714.403525,89872.667,15203,3,GY,1,100,-3.876
1576770714.445455,89908.000,15203,3,GY,1,100,2.350
1576770714.487385,89943.333,15221,3,GY,1,100,4.822
1576770714.529315,89978.667,15221,3,GY,1,100,4.730
1576770714.571244,90014.000,15221,3,GY,1,100,-1.709
1576770714.608428,90045.333,15239,3,GY,1,100,-7.996
1576770714.645611,90076.667,15239,3,GY,1,100,-6.622
1576770714.682794,90108.000,15239,3,GY,1,100,1.190
1576770714.723142,90142.000,15257,3,GY,1,100,7.477
1576770714.763489,90176.000,15257,3,GY,1,100,7.782
1576770714.803837,90210.000,15257,3,GY,1,100,1.770
1576770714.844580,90244.333,15275,3,GY,1,100,-5.371
1576770714.885324,90278.667,15275,3,GY,1,100,-9.308
1576770714.926067,90313.000,15275,3,GY,1,100,-7.385
1576770714.967206,90347.667,15293,3,GY,1,100,-4.272
1576770715.008344,90382.333,15293,3,GY,1,100,-3.540
1576770715.049483,90417.000,15293,3,GY,1,100,1.984
1576770715.089040,90450.333,15310,3,GY,1,100,6.012
1576770715.128596,90483.667,15310,3,GY,1,100,2.747
1576770715.168153,90517.000,15310,3,GY,1,100,3.479
1576770715.208896,90551.333,15329,3,GY,1,100,6.104
1576770715.249639,90585.667,15329,3,GY,1,100,2.380
1576770715.290382,90620.000,15329,3,GY,1,100,2.014
1576770715.330334,90653.667,15347,3,GY,1,100,1.221
1576770715.370287,90687.333,15347,3,GY,1,100,-0.458
1576770715.410239,90721.000,15347,3,GY,1,100,-5.249
1576770715.451773,90756.000,15363,3,GY,1,100,-8.026
1576770715.493307,90791.000,15363,3,GY,1,100,-3.693
1576770715.534842,90826.000,15363,3,GY,1,100,-0.214
1576770715.575981,90860.667,15381,3,GY,1,100,3.754
1576770715.617120,90895.333,15381,3,GY,1,100,7.690
1576770715.658258,90930.000,15381,3,GY,1,100,5.920
1576770715.699199,90964.500,15399,2,GY,1,100,1.984
1576770715.740140,90999.000,15399,2,GY,1,100,-2.136
1576770715.777521,91030.500,15417,4,GY,1,100,-5.920
1576770715.814902,91062.000,15417,4,GY,1,100,-6.805
1576770715.852283,91093.500,15417,4,GY,1,100,-3.479
1576770715.889664,91125.000,15417,4,GY,1,100,-0.427
1576770715.929418,91158.500,15435,2,GY,1,100,0.946
1576770715.969173,91192.000,15435,2,GY,1,100,2.411
1576770716.013476,91229.333,15453,3,GY,1,100,3.723
1576770716.057779,91266.667,15453,3,GY,1,100,6.866
1576770716.102082,91304.000,15453,3,GY,1,100,4.578
1576770716.142826,91338.333,15471,3,GY,1,100,-2.075
1576770716.183569,91372.667,15471,3,GY,1,100,-7.111
1576770716.224312,91407.000,15471,3,GY,1,100,-7.050
1576770716.264660,91441.000,15489,3,GY,1,100,-2.258
1576770716.305008,91475.000,15489,3,GY,1,100,2.502
1576770716.345355,91509.000,15489,3,GY,1,100,4.425
1576770716.383725,91541.333,15507,3,GY,1,100,3.662
1576770716.422095,91573.667,15507,3,GY,1,100,-1.495
1576770716.460465,91606.000,15507,3,GY,1,100,-4.852
1576770716.498439,91638.000,15525,4,GY,1,100,-2.716
1576770716.536413,91670.000,15525,4,GY,1,100,-1.160
1576770716.574388,91702.000,15525,4,GY,1,100,-0.702
1576770716.612362,91734.000,15525,4,GY,1,100,1.312
1576770716.653501,91768.667,15541,3,GY,1,100,6.561
1576770716.694639,91803.333,15541,3,GY,1,100,5.280
1576770716.735778,91838.000,15541,3,GY,1,100,-0.305
1576770716.782653,91877.500,15559,2,GY,1,100,-2.808
1576770716.829527,91917.000,15559,2,GY,1,100,-3.021
1576770716.867897,91949.333,15577,3,GY,1,100,-0.702
1576770716.906267,91981.667,15577,3,GY,1,100,1.312
1576770716.944637,92014.000,15577,3,GY,1,100,1.587
1576770716.989731,92052.000,15595,3,GY,1,100,1.038
1576770717.034826,92090.000,15595,3,GY,1,100,2.380
1576770717.079920,92128.000,15595,3,GY,1,100,-0.275
1576770717.117894,92160.000,15613,3,GY,1,100,-3.601
1576770717.155869,92192.000,15613,3,GY,1,100,-2.808
1576770717.193843,92224.000,15613,3,GY,1,100,-2.991
1576770717.238047,92261.250,15635,4,GY,1,100,-1.495
1576770717.282252,92298.500,15635,4,GY,1,100,-0.214
1576770717.326456,92335.750,15635,4,GY,1,100,-0.366
1576770717.370661,92373.000,15635,4,GY,1,100,-1.190
1576770717.407152,92403.750,15655,4,GY,1,100,-2.869
1576770717.443643,92434.500,15655,4,GY,1,100,-2.289
1576770717.480134,92465.250,15655,4,GY,1,100,-1.923
1576770717.516624,92496.000,15655,4,GY,1,100,1.160
1576770717.562312,92534.500,15673,2,GY,1,100,2.625
1576770717.608000,92573.000,15673,2,GY,1,100,0.916
1576770717.645678,92604.750,15691,4,GY,1,100,0.488
1576770717.683355,92636.500,15691,4,GY,1,100,0.305
1576770717.721033,92668.250,15691,4,GY,1,100,0.916
1576770717.758710,92700.000,15691,4,GY,1,100,4.669
1576770717.798662,92733.667,15709,3,GY,1,100,4.913
1576770717.838615,92767.333,15709,3,GY,1,100,3.052
1576770717.878567,92801.000,15709,3,GY,1,100,0.732
1576770717.919310,92835.333,15727,3,GY,1,100,-0.183
1576770717.960053,92869.667,15727,3,GY,1,100,-0.092
1576770718.000796,92904.000,15727,3,GY,1,100,1.343
1576770718.042331,92939.000,15744,2,GY,1,100,4.211
1576770718.083865,92974.000,15744,2,GY,1,100,3.052
1576770718.125795,93009.333,15762,3,GY,1,100,1.526
1576770718.167725,93044.667,15762,3,GY,1,100,-0.610
1576770718.209655,93080.000,15762,3,GY,1,100,1.465
1576770718.250794,93114.667,15781,3,GY,1,100,3.571
1576770718.291933,93149.333,15781,3,GY,1,100,2.625
1576770718.333071,93184.000,15781,3,GY,1,100,1.556
1576770718.371046,93216.000,15798,3,GY,1,100,-0.122
1576770718.409020,93248.000,15798,3,GY,1,100,-2.167
1576770718.446994,93280.000,15798,3,GY,1,100,-2.228
1576770718.487737,93314.333,15815,3,GY,1,100,0.702
1576770718.528481,93348.667,15815,3,GY,1,100,0.061
1576770718.569224,93383.000,15815,3,GY,1,100,-1.312
1576770718.609176,93416.667,15833,3,GY,1,100,-0.366
1576770718.649128,93450.333,15833,3,GY,1,100,-0.977
1576770718.689080,93484.000,15833,3,GY,1,100,-2.136
1576770718.731406,93519.667,15851,3,GY,1,100,-1.709
1576770718.773731,93555.333,15851,3,GY,1,100,-1.770
1576770718.816057,93591.000,15851,3,GY,1,100,0.336
1576770718.854031,93623.000,15869,3,GY,1,100,1.312
1576770718.892005,93655.000,15869,3,GY,1,100,1.160
1576770718.929980,93687.000,15869,3,GY,1,100,1.312
1576770718.967558,93718.667,15887,3,GY,1,100,-0.488
1576770719.005137,93750.333,15887,3,GY,1,100,0.031
1576770719.042716,93782.000,15887,3,GY,1,100,1.221
1576770719.087415,93819.667,15905,3,GY,1,100,0.946
1576770719.132113,93857.333,15905,3,GY,1,100,2.594
1576770719.176812,93895.000,15905,3,GY,1,100,1.923
1576770719.217951,93929.667,15924,3,GY,1,100,1.160
1576770719.259090,93964.333,15924,3,GY,1,100,0.183
1576770719.300229,93999.000,15924,3,GY,1,100,0.305
1576770719.341367,94033.667,15941,3,GY,1,100,-0.244
1576770719.382506,94068.333,15941,3,GY,1,100,0.824
1576770719.423645,94103.000,15941,3,GY,1,100,1.373
1576770719.462806,94136.000,15959,3,GY,1,100,0.061
1576770719.501967,94169.000,15959,3,GY,1,100,-1.404
1576770719.541128,94202.000,15959,3,GY,1,100,-1.038
1576770719.579102,94234.000,15976,3,GY,1,100,-0.793
1576770719.617077,94266.000,15976,3,GY,1,100,-1.099
1576770719.655051,94298.000,15976,3,GY,1,100,-0.519
1576770719.694607,94331.333,15993,3,GY,1,100,-0.824
1576770719.734164,94364.667,15993,3,GY,1,100,-1.068
1576770719.773721,94398.000,15993,3,GY,1,100,-0.275
1576770719.818815,94436.000,16011,3,GY,1,100,0.671
1576770719.863909,94474.000,16011,3,GY,1,100,0.702
1576770719.909004,94512.000,16011,3,GY,1,100,0.397
1576770719.950143,94546.667,16029,3,GY,1,100,0.793
1576770719.991282,94581.333,16029,3,GY,1,100,0.366
1576770720.032420,94616.000,16029,3,GY,1,100,-0.977
1576770720.071186,94648.667,16047,3,GY,1,100,-1.892
1576770720.109951,94681.333,16047,3,GY,1,100,-1.251
1576770720.148716,94714.000,16047,3,GY,1,100,1.709
1576770720.187086,94746.333,16065,3,GY,1,100,6.439
1576770720.225456,94778.667,16065,3,GY,1,100,11.902
1576770720.263826,94811.000,16065,3,GY,1,100,14.679
1576770720.302591,94843.667,16084,3,GY,1,100,3.937
1576770720.341357,94876.333,16084,3,GY,1,100,0.366
1576770720.380122,94909.000,16084,3,GY,1,100,-4.059
1576770720.421261,94943.667,16102,3,GY,1,100,-4.364
1576770720.462400,94978.333,16102,3,GY,1,100,-1.801
1576770720.503539,95013.000,16102,3,GY,1,100,-0.702
1576770720.550413,95052.500,16119,2,GY,1,100,-0.977
1576770720.597288,95092.000,16119,2,GY,1,100,-1.007
1576770720.636449,95125.000,16137,4,GY,1,100,-1.495
1576770720.675610,95158.000,16137,4,GY,1,100,-1.984
1576770720.714771,95191.000,16137,4,GY,1,100,-1.770
1576770720.753932,95224.000,16137,4,GY,1,100,-1.709
1576770720.801399,95264.000,16153,2,GY,1,100,0.000
1576770720.848867,95304.000,16153,2,GY,1,100,1.404
1576770720.887237,95336.333,16171,3,GY,1,100,2.197
1576770720.925607,95368.667,16171,3,GY,1,100,1.343
1576770720.963977,95401.000,16171,3,GY,1,100,-1.007
1576770721.009071,95439.000,16189,3,GY,1,100,-2.502
1576770721.054166,95477.000,16189,3,GY,1,100,-1.648
1576770721.099260,95515.000,16189,3,GY,1,100,0.702
1576770721.138026,95547.667,16207,3,GY,1,100,1.099
1576770721.176791,95580.333,16207,3,GY,1,100,0.122
1576770721.215556,95613.000,16207,3,GY,1,100,-0.824
1576770721.252739,95644.333,16226,3,GY,1,100,-1.434
1576770721.289922,95675.667,16226,3,GY,1,100,-1.709
1576770721.327106,95707.000,16226,3,GY,1,100,-2.045
1576770721.367849,95741.333,16244,3,GY,1,100,-1.160
1576770721.408592,95775.667,16244,3,GY,1,100,-0.366
1576770721.449335,95810.000,16244,3,GY,1,100,0.488
1576770721.487705,95842.333,16262,3,GY,1,100,-0.824
1576770721.526075,95874.667,16262,3,GY,1,100,-0.610
1576770721.564445,95907.000,16262,3,GY,1,100,0.275
1576770721.605188,95941.333,16279,3,GY,1,100,-0.122
1576770721.645931,95975.667,16279,3,GY,1,100,-0.885
1576770721.686675,96010.000,16279,3,GY,1,100,-0.183
1576770721.727022,96044.000,16297,3,GY,1,100,-0.122
1576770721.767370,96078.000,16297,3,GY,1,100,-0.916
1576770721.807718,96112.000,16297,3,GY,1,100,-0.610
1576770721.849252,96147.000,16313,3,GY,1,100,0.458
1576770721.890786,96182.000,16313,3,GY,1,100,-1.160
1576770721.932321,96217.000,16313,3,GY,1,100,-1.556
1576770721.971086,96249.667,16331,3,GY,1,100,-0.824
1576770722.009852,96282.333,16331,3,GY,1,100,-0.610
1576770722.048617,96315.000,16331,3,GY,1,100,-0.488
1576770722.090151,96350.000,16349,3,GY,1,100,0.366
1576770722.131686,96385.000,16349,3,GY,1,100,0.275
1576770722.173220,96420.000,16349,3,GY,1,100,-0.854
1576770722.212381,96453.000,16368,3,GY,1,100,-0.305
1576770722.251542,96486.000,16368,3,GY,1,100,0.305
1576770722.290703,96519.000,16368,3,GY,1,100,-0.214
1576770722.332237,96554.000,16386,3,GY,1,100,-1.007
1576770722.373772,96589.000,16386,3,GY,1,100,-0.061
1576770722.415306,96624.000,16386,3,GY,1,100,1.678
1576770722.456445,96658.667,16404,3,GY,1,100,1.923
1576770722.497584,96693.333,16404,3,GY,1,100,0.153
1576770722.538723,96728.000,16404,3,GY,1,100,-1.160
1576770722.577488,96760.667,16422,3,GY,1,100,0.183
1576770722.616253,96793.333,16422,3,GY,1,100,0.824
1576770722.655019,96826.000,16422,3,GY,1,100,-0.610
1576770722.692993,96858.000,16440,3,GY,1,100,-0.946
1576770722.730967,96890.000,16440,3,GY,1,100,-1.129
1576770722.768942,96922.000,16440,3,GY,1,100,-0.854
1576770722.812454,96958.667,16457,3,GY,1,100,0.214
1576770722.855966,96995.333,16457,3,GY,1,100,1.038
1576770722.899478,97032.000,16457,3,GY,1,100,0.610
1576770722.941012,97067.000,16475,3,GY,1,100,-1.343
1576770722.982547,97102.000,16475,3,GY,1,100,-0.793
1576770723.024081,97137.000,16475,3,GY,1,100,0.458
1576770723.065616,97172.000,16491,3,GY,1,100,0.153
1576770723.107150,97207.000,16491,3,GY,1,100,-0.183
1576770723.148684,97242.000,16491,3,GY,1,100,0.671
1576770723.187845,97275.000,16509,3,GY,1,100,2.258
1576770723.227006,97308.000,16509,3,GY,1,100,3.937
1576770723.266167,97341.000,16509,3,GY,1,100,1.465
1576770723.304379,97373.200,16531,5,GY,1,100,-0.946
1576770723.342591,97405.400,16531,5,GY,1,100,-1.312
1576770723.380802,97437.600,16531,5,GY,1,100,-1.495
1576770723.419014,97469.800,16531,5,GY,1,100,-1.740
1576770723.457225,97502.000,16531,5,GY,1,100,-1.221
1576770723.497968,97536.333,16550,3,GY,1,100,-0.580
1576770723.538712,97570.667,16550,3,GY,1,100,-1.282
1576770723.579455,97605.000,16550,3,GY,1,100,-0.763
1576770723.626329,97644.500,16568,2,GY,1,100,0.214
1576770723.673204,97684.000,16568,2,GY,1,100,0.824
1576770723.713947,97718.333,16586,3,GY,1,100,0.977
1576770723.754690,97752.667,16586,3,GY,1,100,-0.916
1576770723.795434,97787.000,16586,3,GY,1,100,-0.793
1576770723.834199,97819.667,16602,3,GY,1,100,0.366
1576770723.872965,97852.333,16602,3,GY,1,100,0.244
1576770723.911730,97885.000,16602,3,GY,1,100,-0.153
1576770723.949309,97916.667,16620,3,GY,1,100,-0.793
1576770723.986887,97948.333,16620,3,GY,1,100,-0.885
1576770724.024466,97980.000,16620,3,GY,1,100,-0.214
1576770724.064418,98013.667,16638,3,GY,1,100,-0.153
1576770724.104370,98047.333,16638,3,GY,1,100,-0.275
1576770724.144322,98081.000,16638,3,GY,1,100,-1.099
1576770724.185461,98115.667,16657,3,GY,1,100,-1.434
1576770724.226600,98150.333,16657,3,GY,1,100,0.061
1576770724.267739,98185.000,16657,3,GY,1,100,0.610
1576770724.312438,98222.667,16675,3,GY,1,100,-1.221
1576770724.357136,98260.333,16675,3,GY,1,100,0.610
1576770724.401835,98298.000,16675,3,GY,1,100,4.425
1576770724.439018,98329.333,16693,3,GY,1,100,8.301
1576770724.476202,98360.667,16693,3,GY,1,100,8.026
1576770724.513385,98392.000,16693,3,GY,1,100,0.610
1576770724.558479,98430.000,16711,3,GY,1,100,-7.507
1576770724.603574,98468.000,16711,3,GY,1,100,-9.796
1576770724.648668,98506.000,16711,3,GY,1,100,-5.859
1576770724.685851,98537.333,16728,3,GY,1,100,3.265
1576770724.723035,98568.667,16728,3,GY,1,100,12.329
1576770724.760218,98600.000,16728,3,GY,1,100,17.548
1576770724.804126,98637.000,16746,3,GY,1,100,11.139
1576770724.848033,98674.000,16746,3,GY,1,100,1.404
1576770724.891941,98711.000,16746,3,GY,1,100,-9.735
1576770724.929520,98742.667,16764,3,GY,1,100,-14.038
1576770724.967098,98774.333,16764,3,GY,1,100,-10.406
1576770725.004677,98806.000,16764,3,GY,1,100,-2.258
1576770725.043838,98839.000,16780,3,GY,1,100,5.219
1576770725.082999,98872.000,16780,3,GY,1,100,10.162
1576770725.122160,98905.000,16780,3,GY,1,100,9.369
1576770725.163299,98939.667,16798,3,GY,1,100,6.134
1576770725.204437,98974.333,16798,3,GY,1,100,-0.244
1576770725.245576,99009.000,16798,3,GY,1,100,-3.876
1576770725.286715,99043.667,16817,3,GY,1,100,-2.106
1576770725.327854,99078.333,16817,3,GY,1,100,-0.519
1576770725.368993,99113.000,16817,3,GY,1,100,0.671
1576770725.410527,99148.000,16835,3,GY,1,100,3.174
1576770725.452062,99183.000,16835,3,GY,1,100,5.432
1576770725.493596,99218.000,16835,3,GY,1,100,6.592
1576770725.534339,99252.333,16853,3,GY,1,100,5.157
1576770725.575082,99286.667,16853,3,GY,1,100,1.801
1576770725.615826,99321.000,16853,3,GY,1,100,-5.249
1576770725.656173,99355.000,16871,3,GY,1,100,-8.911
1576770725.696521,99389.000,16871,3,GY,1,100,-9.460
1576770725.736869,99423.000,16871,3,GY,1,100,-1.495
1576770725.774843,99455.000,16888,2,GY,1,100,6.134
1576770725.812817,99487.000,16888,2,GY,1,100,4.364
1576770725.854055,99521.750,16906,4,GY,1,100,1.495
1576770725.895293,99556.500,16906,4,GY,1,100,-1.526
1576770725.936530,99591.250,16906,4,GY,1,100,-4.944
1576770725.977768,99626.000,16906,4,GY,1,100,0.946
1576770726.017720,99659.667,16924,3,GY,1,100,4.700
1576770726.057672,99693.333,16924,3,GY,1,100,5.005
1576770726.097624,99727.000,16924,3,GY,1,100,5.737
1576770726.138763,99761.667,16940,3,GY,1,100,5.646
1576770726.179902,99796.333,16940,3,GY,1,100,10.834
1576770726.221041,99831.000,16940,3,GY,1,100,13.153
1576770726.261982,99865.500,16959,2,GY,1,100,12.512
1576770726.302923,99900.000,16959,2,GY,1,100,4.700
1576770726.341490,99932.500,16977,4,GY,1,100,-6.622
1576770726.380058,99965.000,16977,4,GY,1,100,-16.357
1576770726.418626,99997.500,16977,4,GY,1,100,-17.670
1576770726.457193,100030.000,16977,4,GY,1,100,-11.108
1576770726.495959,100062.667,16995,3,GY,1,100,4.913
1576770726.534724,100095.333,16995,3,GY,1,100,20.721
1576770726.573489,100128.000,16995,3,GY,1,100,14.404
1576770726.619771,100167.000,17013,2,GY,1,100,-1.740
1576770726.666052,100206.000,17013,2,GY,1,100,-15.106
1576770726.707191,100240.667,17031,3,GY,1,100,-15.900
1576770726.748329,100275.333,17031,3,GY,1,100,1.221
1576770726.789468,100310.000,17031,3,GY,1,100,12.817
1576770726.830211,100344.333,17049,3,GY,1,100,7.599
1576770726.870955,100378.667,17049,3,GY,1,100,-1.953
1576770726.911698,100413.000,17049,3,GY,1,100,-7.141
1576770726.950463,100445.667,17067,3,GY,1,100,-2.991
1576770726.989229,100478.333,17067,3,GY,1,100,0.031
1576770727.027994,100511.000,17067,3,GY,1,100,-1.709
1576770727.066364,100543.333,17084,3,GY,1,100,-5.157
1576770727.104734,100575.667,17084,3,GY,1,100,-6.287
1576770727.143104,100608.000,17084,3,GY,1,100,-9.460
1576770727.182858,100641.500,17103,4,GY,1,100,-6.622
1576770727.222612,100675.000,17103,4,GY,1,100,1.373
1576770727.262367,100708.500,17103,4,GY,1,100,6.561
1576770727.302121,100742.000,17103,4,GY,1,100,6.683
1576770727.344249,100777.500,17119,2,GY,1,100,0.824
1576770727.386376,100813.000,17119,2,GY,1,100,-10.071
1576770727.431075,100850.667,17137,3,GY,1,100,-14.160
1576770727.475774,100888.333,17137,3,GY,1,100,-6.531
1576770727.520473,100926.000,17137,3,GY,1,100,6.104
1576770727.559634,100959.000,17155,3,GY,1,100,10.925
1576770727.598795,100992.000,17155,3,GY,1,100,10.620
1576770727.637956,101025.000,17155,3,GY,1,100,3.540
1576770727.675139,101056.333,17173,3,GY,1,100,-9.125
1576770727.712322,101087.667,17173,3,GY,1,100,-14.618
1576770727.749505,101119.000,17173,3,GY,1,100,-12.329
1576770727.789457,101152.667,17191,3,GY,1,100,-6.042
1576770727.829410,101186.333,17191,3,GY,1,100,2.411
1576770727.869362,101220.000,17191,3,GY,1,100,7.080
1576770727.910105,101254.333,17209,3,GY,1,100,3.662
1576770727.950848,101288.667,17209,3,GY,1,100,-3.357
1576770727.991591,101323.000,17209,3,GY,1,100,-8.606
1576770728.036686,101361.000,17227,3,GY,1,100,-8.942
1576770728.081780,101399.000,17227,3,GY,1,100,-6.409
1576770728.126875,101437.000,17227,3,GY,1,100,-5.463
1576770728.166036,101470.000,17245,3,GY,1,100,0.366
1576770728.205197,101503.000,17245,3,GY,1,100,1.526
1576770728.244358,101536.000,17245,3,GY,1,100,-9.033
1576770728.285496,101570.667,17263,3,GY,1,100,-9.033
1576770728.326635,101605.333,17263,3,GY,1,100,-4.639
1576770728.367774,101640.000,17263,3,GY,1,100,-2.533
1576770728.406144,101672.333,17281,3,GY,1,100,0.061
1576770728.444514,101704.667,17281,3,GY,1,100,1.617
1576770728.482883,101737.000,17281,3,GY,1,100,7.324
1576770728.521253,101769.333,17297,3,GY,1,100,10.742
1576770728.559623,101801.667,17297,3,GY,1,100,6.775
1576770728.597993,101834.000,17297,3,GY,1,100,-0.427
1576770728.638341,101868.000,17315,3,GY,1,100,-4.852
1576770728.678688,101902.000,17315,3,GY,1,100,-1.465
1576770728.719036,101936.000,17315,3,GY,1,100,6.561
1576770728.757406,101968.333,17333,3,GY,1,100,6.897
1576770728.795776,102000.667,17333,3,GY,1,100,3.357
1576770728.834146,102033.000,17333,3,GY,1,100,-1.862
1576770728.875284,102067.667,17351,3,GY,1,100,-15.656
1576770728.916423,102102.333,17351,3,GY,1,100,-10.193
1576770728.957562,102137.000,17351,3,GY,1,100,3.723
1576770728.998701,102171.667,17369,3,GY,1,100,10.468
1576770729.039840,102206.333,17369,3,GY,1,100,8.514
1576770729.080978,102241.000,17369,3,GY,1,100,1.434
1576770729.121722,102275.333,17387,3,GY,1,100,-4.517
1576770729.162465,102309.667,17387,3,GY,1,100,-3.326
1576770729.203208,102344.000,17387,3,GY,1,100,-4.639
1576770729.244742,102379.000,17406,3,GY,1,100,-11.292
1576770729.286277,102414.000,17406,3,GY,1,100,-11.963
1576770729.327811,102449.000,17406,3,GY,1,100,-12.848
1576770729.367684,102482.600,17427,5,GY,1,100,-8.545
1576770729.407557,102516.200,17427,5,GY,1,100,-0.366
1576770729.447430,102549.800,17427,5,GY,1,100,7.568
1576770729.487303,102583.400,17427,5,GY,1,100,8.514
1576770729.527176,102617.000,17427,5,GY,1,100,7.538
1576770729.570491,102653.500,17447,2,GY,1,100,5.096
1576770729.613805,102690.000,17447,2,GY,1,100,2.869
1576770729.652570,102722.667,17465,3,GY,1,100,-4.150
1576770729.691336,102755.333,17465,3,GY,1,100,-7.843
1576770729.730101,102788.000,17465,3,GY,1,100,-3.998
1576770729.770053,102821.667,17483,3,GY,1,100,-5.188
1576770729.810005,102855.333,17483,3,GY,1,100,-1.404
1576770729.849957,102889.000,17483,3,GY,1,100,1.831
1576770729.891096,102923.667,17501,3,GY,1,100,1.526
1576770729.932235,102958.333,17501,3,GY,1,100,0.000
1576770729.973374,102993.000,17501,3,GY,1,100,-2.197
1576770730.012930,103026.333,17519,3,GY,1,100,3.357
1576770730.052487,103059.667,17519,3,GY,1,100,8.209
1576770730.092043,103093.000,17519,3,GY,1,100,8.575
1576770730.130018,103125.000,17536,4,GY,1,100,0.977
1576770730.167992,103157.000,17536,4,GY,1,100,-1.221
1576770730.205966,103189.000,17536,4,GY,1,100,1.801
1576770730.243941,103221.000,17536,4,GY,1,100,-4.272
1576770730.283102,103254.000,17555,2,GY,1,100,-8.759
1576770730.322263,103287.000,17555,2,GY,1,100,-3.326
1576770730.367357,103325.000,17573,3,GY,1,100,3.479
1576770730.412452,103363.000,17573,3,GY,1,100,4.517
1576770730.457546,103401.000,17573,3,GY,1,100,3.967
1576770730.498685,103435.667,17589,3,GY,1,100,4.761
1576770730.539824,103470.333,17589,3,GY,1,100,2.228
1576770730.580962,103505.000,17589,3,GY,1,100,0.702
1576770730.621310,103539.000,17607,3,GY,1,100,-0.580
1576770730.661658,103573.000,17607,3,GY,1,100,0.427
1576770730.702005,103607.000,17607,3,GY,1,100,3.784
1576770730.739980,103639.000,17625,3,GY,1,100,4.333
1576770730.777954,103671.000,17625,3,GY,1,100,2.838
1576770730.815928,103703.000,17625,3,GY,1,100,1.007
1576770730.854693,103735.667,17643,3,GY,1,100,-0.763
1576770730.893459,103768.333,17643,3,GY,1,100,-0.305
1576770730.932224,103801.000,17643,3,GY,1,100,1.587
1576770730.972968,103835.333,17661,3,GY,1,100,2.380
1576770731.013711,103869.667,17661,3,GY,1,100,1.434
1576770731.054454,103904.000,17661,3,GY,1,100,-0.305
1576770731.095593,103938.667,17679,3,GY,1,100,0.214
1576770731.136732,103973.333,17679,3,GY,1,100,0.366
1576770731.177871,104008.000,17679,3,GY,1,100,-0.488
1576770731.222569,104045.667,17698,3,GY,1,100,-2.075
1576770731.267268,104083.333,17698,3,GY,1,100,-2.014
1576770731.311967,104121.000,17698,3,GY,1,100,-0.763
1576770731.349150,104152.333,17716,3,GY,1,100,0.488
1576770731.386333,104183.667,17716,3,GY,1,100,-0.488
1576770731.423517,104215.000,17716,3,GY,1,100,-1.343
1576770731.461491,104247.000,17733,3,GY,1,100,-0.732
1576770731.499465,104279.000,17733,3,GY,1,100,0.641
1576770731.537439,104311.000,17733,3,GY,1,100,-0.305
1576770731.578183,104345.333,17751,3,GY,1,100,-1.038
1576770731.618926,104379.667,17751,3,GY,1,100,1.038
1576770731.659669,104414.000,17751,3,GY,1,100,0.916
1576770731.700412,104448.333,17767,3,GY,1,100,0.366
1576770731.741156,104482.667,17767,3,GY,1,100,1.221
1576770731.781899,104517.000,17767,3,GY,1,100,2.594
1576770731.824620,104553.000,17785,3,GY,1,100,1.434
1576770731.867341,104589.000,17785,3,GY,1,100,0.580
1576770731.910062,104625.000,17785,3,GY,1,100,0.854
1576770731.950805,104659.333,17803,3,GY,1,100,-1.312
1576770731.991549,104693.667,17803,3,GY,1,100,-1.160
1576770732.032292,104728.000,17803,3,GY,1,100,2.502
1576770732.079166,104767.500,17821,2,GY,1,100,1.862
1576770732.126041,104807.000,17821,2,GY,1,100,0.092
1576770732.164015,104839.000,17839,4,GY,1,100,-0.488
1576770732.201989,104871.000,17839,4,GY,1,100,-0.885
1576770732.239964,104903.000,17839,4,GY,1,100,0.275
1576770732.277938,104935.000,17839,4,GY,1,100,0.427
1576770732.317494,104968.333,17858,3,GY,1,100,-0.305
1576770732.357051,105001.667,17858,3,GY,1,100,0.122
1576770732.396607,105035.000,17858,3,GY,1,100,-1.007
1576770732.434582,105067.000,17876,3,GY,1,100,-1.160
1576770732.472556,105099.000,17876,3,GY,1,100,-1.373
1576770732.510530,105131.000,17876,3,GY,1,100,-1.801
1576770732.549691,105164.000,17894,3,GY,1,100,-0.092
1576770732.588852,105197.000,17894,3,GY,1,100,1.312
1576770732.628013,105230.000,17894,3,GY,1,100,-0.549
1576770732.669943,105265.333,17911,3,GY,1,100,-1.740
1576770732.711873,105300.667,17911,3,GY,1,100,-0.336
1576770732.753803,105336.000,17911,3,GY,1,100,0.031
1576770732.794942,105370.667,17929,3,GY,1,100,-0.641
1576770732.836081,105405.333,17929,3,GY,1,100,1.251
1576770732.877219,105440.000,17929,3,GY,1,100,0.763
1576770732.918754,105475.000,17945,3,GY,1,100,-1.282
1576770732.960288,105510.000,17945,3,GY,1,100,-0.488
1576770733.001822,105545.000,17945,3,GY,1,100,0.854
1576770733.043357,105580.000,17963,2,GY,1,100,-0.122
1576770733.084891,105615.000,17963,2,GY,1,100,-0.732
1576770733.125634,105649.333,17981,3,GY,1,100,0.763
1576770733.166378,105683.667,17981,3,GY,1,100,0.458
1576770733.207121,105718.000,17981,3,GY,1,100,-0.031
1576770733.245095,105750.000,18000,3,GY,1,100,1.282
1576770733.283069,105782.000,18000,3,GY,1,100,1.282
1576770733.321044,105814.000,18000,3,GY,1,100,0.061
1576770733.360205,105847.000,18018,4,GY,1,100,-0.549
1576770733.399366,105880.000,18018,4,GY,1,100,-1.343
1576770733.438527,105913.000,18018,4,GY,1,100,-0.061
1576770733.477688,105946.000,18018,4,GY,1,100,3.052
1576770733.524562,105985.500,18036,2,GY,1,100,0.702
1576770733.571437,106025.000,18036,2,GY,1,100,-1.923
1576770733.611784,106059.000,18054,3,GY,1,100,-1.556
1576770733.652132,106093.000,18054,3,GY,1,100,0.000
1576770733.692480,106127.000,18054,3,GY,1,100,-0.397
1576770733.734410,106162.333,18071,3,GY,1,100,-2.197
1576770733.776340,106197.667,18071,3,GY,1,100,2.350
1576770733.818269,106233.000,18071,3,GY,1,100,3.265
1576770733.855453,106264.333,18089,3,GY,1,100,-1.587
1576770733.892636,106295.667,18089,3,GY,1,100,-2.136
1576770733.929819,106327.000,18089,3,GY,1,100,-1.923
1576770733.968189,106359.333,18105,3,GY,1,100,-0.641
1576770734.006558,106391.667,18105,3,GY,1,100,0.427
1576770734.044928,106424.000,18105,3,GY,1,100,1.587
1576770734.090418,106462.333,18123,3,GY,1,100,-0.305
1576770734.135908,106500.667,18123,3,GY,1,100,-4.272
1576770734.181398,106539.000,18123,3,GY,1,100,-3.540
1576770734.222142,106573.333,18142,3,GY,1,100,0.031
1576770734.262885,106607.667,18142,3,GY,1,100,0.824
1576770734.303628,106642.000,18142,3,GY,1,100,-0.183
1576770734.344767,106676.667,18160,3,GY,1,100,-0.641
1576770734.385906,106711.333,18160,3,GY,1,100,-1.587
1576770734.427044,106746.000,18160,3,GY,1,100,-0.458
1576770734.465019,106778.000,18178,3,GY,1,100,0.702
1576770734.502993,106810.000,18178,3,GY,1,100,0.244
1576770734.540967,106842.000,18178,3,GY,1,100,-0.183
1576770734.579337,106874.333,18196,3,GY,1,100,-0.916
1576770734.617707,106906.667,18196,3,GY,1,100,-1.099
1576770734.656077,106939.000,18196,3,GY,1,100,-0.854
1576770734.696424,106973.000,18214,3,GY,1,100,0.183
1576770734.736772,107007.000,18214,3,GY,1,100,0.885
1576770734.777120,107041.000,18214,3,GY,1,100,-0.458
1576770734.821819,107078.667,18232,3,GY,1,100,-2.228
1576770734.866518,107116.333,18232,3,GY,1,100,0.153
1576770734.911216,107154.000,18232,3,GY,1,100,2.258
1576770734.952751,107189.000,18249,3,GY,1,100,0.854
1576770734.994285,107224.000,18249,3,GY,1,100,-1.892
1576770735.035820,107259.000,18249,3,GY,1,100,-0.336
1576770735.073003,107290.333,18267,3,GY,1,100,1.617
1576770735.110186,107321.667,18267,3,GY,1,100,0.977
1576770735.147369,107353.000,18267,3,GY,1,100,0.092
1576770735.186530,107386.000,18285,3,GY,1,100,0.092
1576770735.225691,107419.000,18285,3,GY,1,100,0.671
1576770735.264852,107452.000,18285,3,GY,1,100,-0.427
1576770735.304013,107485.000,18302,3,GY,1,100,-1.251
1576770735.343174,107518.000,18302,3,GY,1,100,-1.068
1576770735.382335,107551.000,18302,3,GY,1,100,0.366
1576770735.423632,107585.800,18323,5,GY,1,100,-0.031
1576770735.464929,107620.600,18323,5,GY,1,100,-1.556
1576770735.506226,107655.400,18323,5,GY,1,100,-0.305
1576770735.547523,107690.200,18323,5,GY,1,100,0.916
1576770735.588820,107725.000,18323,5,GY,1,100,-1.160
1576770735.635101,107764.000,18342,2,GY,1,100,-2.533
1576770735.681382,107803.000,18342,2,GY,1,100,-0.031
1576770735.719752,107835.333,18360,3,GY,1,100,0.061
1576770735.758122,107867.667,18360,3,GY,1,100,-0.854
1576770735.796492,107900.000,18360,3,GY,1,100,0.702
1576770735.838817,107935.667,18376,3,GY,1,100,0.519
1576770735.881143,107971.333,18376,3,GY,1,100,-0.214
1576770735.923468,108007.000,18376,3,GY,1,100,0.000
1576770735.964607,108041.667,18394,3,GY,1,100,0.183
1576770736.005746,108076.333,18394,3,GY,1,100,-0.305
1576770736.046885,108111.000,18394,3,GY,1,100,-1.129
1576770736.088419,108146.000,18412,3,GY,1,100,-1.434
1576770736.129953,108181.000,18412,3,GY,1,100,-1.221
1576770736.171488,108216.000,18412,3,GY,1,100,-0.580
1576770736.209858,108248.333,18431,3,GY,1,100,1.068
1576770736.248228,108280.667,18431,3,GY,1,100,0.824
1576770736.286597,108313.000,18431,3,GY,1,100,-0.488
1576770736.325363,108345.667,18449,3,GY,1,100,-0.336
1576770736.364128,108378.333,18449,3,GY,1,100,0.153
1576770736.402894,108411.000,18449,3,GY,1,100,1.068
1576770736.444428,108446.000,18467,3,GY,1,100,0.305
1576770736.485962,108481.000,18467,3,GY,1,100,-1.251
1576770736.527497,108516.000,18467,3,GY,1,100,0.183
1576770736.567844,108550.000,18485,3,GY,1,100,0.641
1576770736.608192,108584.000,18485,3,GY,1,100,-0.305
1576770736.648540,108618.000,18485,3,GY,1,100,1.038
1576770736.689678,108652.667,18502,3,GY,1,100,0.305
1576770736.730817,108687.333,18502,3,GY,1,100,-1.953
1576770736.771956,108722.000,18502,3,GY,1,100,-0.732
1576770736.813886,108757.333,18520,3,GY,1,100,-0.702
1576770736.855816,108792.667,18520,3,GY,1,100,-0.702
1576770736.897746,108828.000,18520,3,GY,1,100,-0.122
1576770736.936116,108860.333,18536,3,GY,1,100,-0.214
1576770736.974486,108892.667,18536,3,GY,1,100,-1.343
1576770737.012855,108925.000,18536,3,GY,1,100,-0.580
1576770737.054390,108960.000,18554,3,GY,1,100,0.610
1576770737.095924,108995.000,18554,3,GY,1,100,0.092
1576770737.137459,109030.000,18554,3,GY,1,100,-0.885
1576770737.177015,109063.333,18572,3,GY,1,100,-0.427
1576770737.216572,109096.667,18572,3,GY,1,100,-0.854
1576770737.256128,109130.000,18572,3,GY,1,100,0.031
1576770737.297267,109164.667,18591,3,GY,1,100,1.099
1576770737.338406,109199.333,18591,3,GY,1,100,-0.458
1576770737.379544,109234.000,18591,3,GY,1,100,-1.801
1576770737.420288,109268.333,18609,3,GY,1,100,-1.404
1576770737.461031,109302.667,18609,3,GY,1,100,-0.153
1576770737.501774,109337.000,18609,3,GY,1,100,-1.617
1576770737.541726,109370.667,18627,3,GY,1,100,-2.380
1576770737.581678,109404.333,18627,3,GY,1,100,-1.923
1576770737.621630,109438.000,18627,3,GY,1,100,-4.059
1576770737.659209,109469.667,18645,3,GY,1,100,-4.974
1576770737.696788,109501.333,18645,3,GY,1,100,-3.143
1576770737.734367,109533.000,18645,3,GY,1,100,2.594
1576770737.777483,109569.333,18663,3,GY,1,100,-0.580
1576770737.820600,109605.667,18663,3,GY,1,100,-7.812
1576770737.863717,109642.000,18663,3,GY,1,100,-6.927
1576770737.904658,109676.500,18680,2,GY,1,100,-5.127
1576770737.945599,109711.000,18680,2,GY,1,100,-3.693
1576770737.987133,109746.000,18698,3,GY,1,100,-0.397
1576770738.028667,109781.000,18698,3,GY,1,100,-2.869
1576770738.070202,109816.000,18698,3,GY,1,100,-5.066
1576770738.111341,109850.667,18714,3,GY,1,100,-3.662
1576770738.152479,109885.333,18714,3,GY,1,100,-4.700
1576770738.193618,109920.000,18714,3,GY,1,100,-4.486
1576770738.231296,109951.750,18733,4,GY,1,100,-0.824
1576770738.268973,109983.500,18733,4,GY,1,100,-3.845
1576770738.306651,110015.250,18733,4,GY,1,100,-7.294
1576770738.344328,110047.000,18733,4,GY,1,100,-5.768
1576770738.383885,110080.333,18751,3,GY,1,100,-3.998
1576770738.423442,110113.667,18751,3,GY,1,100,-0.946
1576770738.462998,110147.000,18751,3,GY,1,100,0.061
1576770738.503939,110181.500,18769,2,GY,1,100,-7.385
1576770738.544880,110216.000,18769,2,GY,1,100,-17.029
1576770738.590370,110254.333,18787,3,GY,1,100,-9.796
1576770738.635860,110292.667,18787,3,GY,1,100,-1.617
1576770738.681350,110331.000,18787,3,GY,1,100,1.007
1576770738.722093,110365.333,18805,3,GY,1,100,3.174
1576770738.762837,110399.667,18805,3,GY,1,100,1.648
1576770738.803580,110434.000,18805,3,GY,1,100,-0.122
1576770738.841159,110465.667,18823,3,GY,1,100,1.862
1576770738.878737,110497.333,18823,3,GY,1,100,-1.129
1576770738.916316,110529.000,18823,3,GY,1,100,-0.793
1576770738.954290,110561.000,18841,3,GY,1,100,5.737
1576770738.992265,110593.000,18841,3,GY,1,100,6.897
1576770739.030239,110625.000,18841,3,GY,1,100,4.150
1576770739.071378,110659.667,18858,3,GY,1,100,2.411
1576770739.112516,110694.333,18858,3,GY,1,100,0.519
1576770739.153655,110729.000,18858,3,GY,1,100,0.671
1576770739.194794,110763.667,18877,3,GY,1,100,3.601
1576770739.235933,110798.333,18877,3,GY,1,100,4.456
1576770739.277072,110833.000,18877,3,GY,1,100,2.045
1576770739.321770,110870.667,18893,3,GY,1,100,0.488
1576770739.366469,110908.333,18893,3,GY,1,100,4.730
1576770739.411168,110946.000,18893,3,GY,1,100,5.981
1576770739.446769,110976.000,18911,3,GY,1,100,3.601
1576770739.482370,111006.000,18911,3,GY,1,100,3.723
1576770739.517971,111036.000,18911,3,GY,1,100,5.493
1576770739.561879,111073.000,18929,3,GY,1,100,4.944
1576770739.605787,111110.000,18929,3,GY,1,100,3.540
1576770739.649694,111147.000,18929,3,GY,1,100,2.136
1576770739.686482,111178.000,18947,3,GY,1,100,3.235
1576770739.723269,111209.000,18947,3,GY,1,100,3.693
1576770739.760057,111240.000,18947,3,GY,1,100,3.265
1576770739.802778,111276.000,18965,3,GY,1,100,7.385
1576770739.845499,111312.000,18965,3,GY,1,100,12.360
1576770739.888220,111348.000,18965,3,GY,1,100,10.925
1576770739.925799,111379.667,18983,3,GY,1,100,5.585
1576770739.963377,111411.333,18983,3,GY,1,100,1.312
1576770740.000956,111443.000,18983,3,GY,1,100,-1.068
1576770740.041304,111477.000,19001,3,GY,1,100,1.221
1576770740.081652,111511.000,19001,3,GY,1,100,2.380
1576770740.121999,111545.000,19001,3,GY,1,100,3.784
1576770740.163534,111580.000,19019,3,GY,1,100,3.113
1576770740.205068,111615.000,19019,3,GY,1,100,0.519
1576770740.246602,111650.000,19019,3,GY,1,100,1.770
1576770740.287741,111684.667,19037,3,GY,1,100,2.533
1576770740.328880,111719.333,19037,3,GY,1,100,-1.648
1576770740.370019,111754.000,19037,3,GY,1,100,-2.197
1576770740.411158,111788.667,19055,3,GY,1,100,-3.052
1576770740.452296,111823.333,19055,3,GY,1,100,-4.425
1576770740.493435,111858.000,19055,3,GY,1,100,-0.183
1576770740.534178,111892.333,19071,3,GY,1,100,3.082
1576770740.574922,111926.667,19071,3,GY,1,100,1.221
1576770740.615665,111961.000,19071,3,GY,1,100,-4.028
1576770740.654826,111994.000,19089,3,GY,1,100,-3.021
1576770740.693987,112027.000,19089,3,GY,1,100,-1.282
1576770740.733148,112060.000,19089,3,GY,1,100,-4.486
1576770740.775078,112095.333,19107,3,GY,1,100,-1.099
1576770740.817008,112130.667,19107,3,GY,1,100,3.418
1576770740.858938,112166.000,19107,3,GY,1,100,2.625
1576770740.898494,112199.333,19125,3,GY,1,100,8.606
1576770740.938051,112232.667,19125,3,GY,1,100,26.428
1576770740.977607,112266.000,19125,3,GY,1,100,19.135
1576770741.017955,112300.000,19143,3,GY,1,100,-6.287
1576770741.058303,112334.000,19143,3,GY,1,100,-15.106
1576770741.098650,112368.000,19143,3,GY,1,100,-20.172
1576770741.139789,112402.667,19161,3,GY,1,100,-22.827
1576770741.180928,112437.333,19161,3,GY,1,100,-13.397
1576770741.222067,112472.000,19161,3,GY,1,100,-0.153
1576770741.261821,112505.500,19180,2,GY,1,100,11.841
1576770741.301575,112539.000,19180,2,GY,1,100,22.980
1576770741.339550,112571.000,19198,4,GY,1,100,8.118
1576770741.377524,112603.000,19198,4,GY,1,100,-22.675
1576770741.415498,112635.000,19198,4,GY,1,100,-27.039
1576770741.453472,112667.000,19198,4,GY,1,100,-15.533
1576770741.495897,112702.750,19219,4,GY,1,100,-16.174
1576770741.538321,112738.500,19219,4,GY,1,100,-11.749
1576770741.580745,112774.250,19219,4,GY,1,100,2.197
1576770741.623170,112810.000,19219,4,GY,1,100,23.468
1576770741.664704,112845.000,19239,3,GY,1,100,31.128
1576770741.706239,112880.000,19239,3,GY,1,100,9.857
1576770741.747773,112915.000,19239,3,GY,1,100,-8.362
1576770741.788912,112949.667,19257,3,GY,1,100,-11.414
1576770741.830051,112984.333,19257,3,GY,1,100,-10.010
1576770741.871189,113019.000,19257,3,GY,1,100,-2.777
1576770741.910350,113052.000,19275,3,GY,1,100,-0.458
1576770741.949511,113085.000,19275,3,GY,1,100,1.068
1576770741.988672,113118.000,19275,3,GY,1,100,5.371
1576770742.025856,113149.333,19293,3,GY,1,100,4.456
1576770742.063039,113180.667,19293,3,GY,1,100,-3.357
1576770742.100222,113212.000,19293,3,GY,1,100,-5.676
1576770742.139778,113245.333,19310,3,GY,1,100,-5.188
1576770742.179335,113278.667,19310,3,GY,1,100,-3.967
1576770742.218891,113312.000,19310,3,GY,1,100,-0.061
1576770742.263986,113350.000,19329,3,GY,1,100,-1.221
1576770742.309080,113388.000,19329,3,GY,1,100,0.183
1576770742.354175,113426.000,19329,3,GY,1,100,3.693
1576770742.395709,113461.000,19345,3,GY,1,100,4.059
1576770742.437243,113496.000,19345,3,GY,1,100,-1.221
1576770742.478778,113531.000,19345,3,GY,1,100,-7.141
1576770742.517543,113563.667,19363,3,GY,1,100,-5.585
1576770742.556309,113596.333,19363,3,GY,1,100,-5.981
1576770742.595074,113629.000,19363,3,GY,1,100,-5.402
1576770742.633048,113661.000,19381,3,GY,1,100,1.221
1576770742.671023,113693.000,19381,3,GY,1,100,4.883
1576770742.708997,113725.000,19381,3,GY,1,100,-0.397
1576770742.748158,113758.000,19399,3,GY,1,100,-4.425
1576770742.787319,113791.000,19399,3,GY,1,100,-4.517
1576770742.826480,113824.000,19399,3,GY,1,100,-10.437
1576770742.867223,113858.333,19417,3,GY,1,100,-8.148
1576770742.907966,113892.667,19417,3,GY,1,100,-3.876
1576770742.948709,113927.000,19417,3,GY,1,100,2.838
1576770742.993804,113965.000,19435,3,GY,1,100,16.479
1576770743.038898,114003.000,19435,3,GY,1,100,14.648
1576770743.083993,114041.000,19435,3,GY,1,100,6.317
1576770743.121967,114073.000,19453,3,GY,1,100,-4.517
1576770743.159941,114105.000,19453,3,GY,1,100,-16.083
1576770743.197916,114137.000,19453,3,GY,1,100,-16.754
1576770743.239054,114171.667,19471,3,GY,1,100,-8.270
1576770743.280193,114206.333,19471,3,GY,1,100,-0.122
1576770743.321332,114241.000,19471,3,GY,1,100,9.430
1576770743.365240,114278.000,19489,2,GY,1,100,16.418
1576770743.409148,114315.000,19489,2,GY,1,100,10.468
1576770743.446825,114346.750,19507,4,GY,1,100,-2.167
1576770743.484503,114378.500,19507,4,GY,1,100,-16.724
1576770743.522181,114410.250,19507,4,GY,1,100,-13.275
1576770743.559858,114442.000,19507,4,GY,1,100,-2.991
1576770743.600997,114476.667,19523,3,GY,1,100,0.305
1576770743.642136,114511.333,19523,3,GY,1,100,2.563
1576770743.683275,114546.000,19523,3,GY,1,100,6.897
1576770743.721644,114578.333,19541,3,GY,1,100,16.052
1576770743.760014,114610.667,19541,3,GY,1,100,21.484
1576770743.798384,114643.000,19541,3,GY,1,100,12.054
1576770743.839523,114677.667,19559,3,GY,1,100,-6.134
1576770743.880661,114712.333,19559,3,GY,1,100,-14.679
1576770743.921800,114747.000,19559,3,GY,1,100,-11.353
1576770743.960566,114779.667,19577,3,GY,1,100,-2.563
1576770743.999331,114812.333,19577,3,GY,1,100,7.111
1576770744.038097,114845.000,19577,3,GY,1,100,11.749
1576770744.079235,114879.667,19595,3,GY,1,100,16.937
1576770744.120374,114914.333,19595,3,GY,1,100,18.250
1576770744.161513,114949.000,19595,3,GY,1,100,7.568
1576770744.202652,114983.667,19613,3,GY,1,100,-4.059
1576770744.243791,115018.333,19613,3,GY,1,100,-12.695
