EpochTimestamp,EmotiBitTimestamp,PacketNumber,DataLength,TypeTag,ProtocolVersion,DataReliability,H0
1576770650.605949,36112.000,5808,1,H0,1,100,35.992
1576770650.740046,36225.000,5826,1,H0,1,100,35.813
1576770650.877702,36341.000,5844,1,H0,1,100,35.782
1576770651.012986,36455.000,5862,1,H0,1,100,35.740
1576770651.151829,36572.000,5880,1,H0,1,100,35.676
1576770651.283552,36683.000,5898,1,H0,1,100,35.626
1576770651.411716,36791.000,5916,1,H0,1,100,35.576
1576770651.542252,36901.000,5934,1,H0,1,100,35.515
1576770651.679909,37017.000,5968,1,H0,1,100,35.466
1576770651.818752,37134.000,5986,1,H0,1,100,35.416
1576770651.942169,37238.000,6004,1,H0,1,100,35.348
1576770652.073892,37349.000,6022,1,H0,1,100,35.302
1576770652.207989,37462.000,6040,1,H0,1,100,35.271
1576770652.345645,37578.000,6058,1,H0,1,100,35.203
1576770652.479742,37691.000,6077,1,H0,1,100,35.168
1576770652.605532,37797.000,6095,1,H0,1,100,35.103
1576770652.738442,37909.000,6112,1,H0,1,100,35.077
1576770652.873725,38023.000,6130,1,H0,1,100,35.000
1576770653.012569,38140.000,6164,1,H0,1,100,34.974
1576770653.140732,38248.000,6182,1,H0,1,100,34.901
1576770653.267708,38355.000,6200,1,H0,1,100,34.836
1576770653.401805,38468.000,6219,1,H0,1,100,34.817
1576770653.538275,38583.000,6237,1,H0,1,100,34.752
1576770653.675932,38699.000,6255,1,H0,1,100,34.703
1576770653.802908,38806.000,6272,1,H0,1,100,34.642
1576770653.933445,38916.000,6290,1,H0,1,100,34.585
1576770654.061608,39024.000,6308,1,H0,1,100,34.558
1576770654.193331,39135.000,6325,1,H0,1,100,34.501
1576770654.327428,39248.000,6361,1,H0,1,100,34.428
1576770654.468645,39367.000,6379,1,H0,1,100,34.401
1576770654.599181,39477.000,6397,1,H0,1,100,34.337
1576770654.738025,39594.000,6415,1,H0,1,100,34.287
1576770654.865001,39701.000,6433,1,H0,1,100,34.226
1576770654.996725,39812.000,6451,1,H0,1,100,34.161
1576770655.129635,39924.000,6468,1,H0,1,100,34.127
1576770655.268478,40041.000,6486,1,H0,1,100,34.043
1576770655.401388,40153.000,6521,1,H0,1,100,34.009
1576770655.524804,40257.000,6539,1,H0,1,100,33.955
1576770655.658901,40370.000,6557,1,H0,1,100,33.909
1576770655.794184,40484.000,6575,1,H0,1,100,33.883
1576770655.931841,40600.000,6593,1,H0,1,100,33.799
1576770656.058818,40707.000,6611,1,H0,1,100,33.745
1576770656.185794,40814.000,6629,1,H0,1,100,33.703
1576770656.321078,40928.000,6646,1,H0,1,100,33.646
1576770656.456361,41042.000,6665,1,H0,1,100,33.593
1576770656.588677,41153.500,6702,2,H0,1,100,33.555
1576770656.720994,41265.000,6702,2,H0,1,100,33.516
1576770656.855091,41378.000,6720,1,H0,1,100,33.516
1576770656.989187,41491.000,6739,1,H0,1,100,33.555
1576770657.126844,41607.000,6757,1,H0,1,100,33.547
1576770657.257381,41717.000,6775,1,H0,1,100,33.589
1576770657.383171,41823.000,6810,1,H0,1,100,33.654
1576770657.516080,41935.000,6828,1,H0,1,100,33.913
1576770657.656111,42053.000,6846,1,H0,1,100,34.165
1576770657.793767,42169.000,6864,1,H0,1,100,34.283
1576770657.927864,42282.000,6882,1,H0,1,100,34.375
1576770658.065521,42398.000,6900,1,H0,1,100,34.436
1576770658.193684,42506.000,6917,1,H0,1,100,34.520
1576770658.325407,42617.000,6935,1,H0,1,100,34.577
1576770658.454757,42726.000,6954,1,H0,1,100,34.604
1576770658.588854,42839.000,6988,1,H0,1,100,34.638
1576770658.721764,42951.000,7006,1,H0,1,100,34.688
1576770658.862981,43070.000,7024,1,H0,1,100,34.668
1576770658.987584,43175.000,7042,1,H0,1,100,34.661
1576770659.113374,43281.000,7060,1,H0,1,100,34.634
1576770659.249844,43396.000,7078,1,H0,1,100,34.604
1576770659.387500,43512.000,7096,1,H0,1,100,34.516
1576770659.520410,43624.000,7114,1,H0,1,100,34.405
1576770659.648573,43732.000,7132,1,H0,1,100,34.276
1576770659.780297,43843.000,7166,1,H0,1,100,34.184
1576770659.919140,43960.000,7184,1,H0,1,100,34.058
1576770660.055610,44075.000,7202,1,H0,1,100,33.963
1576770660.187334,44186.000,7220,1,H0,1,100,33.879
1576770660.310750,44290.000,7238,1,H0,1,100,33.787
1576770660.449593,44407.000,7257,1,H0,1,100,33.719
1576770660.582503,44519.000,7274,1,H0,1,100,33.646
1576770660.720160,44635.000,7292,1,H0,1,100,33.574
1576770660.844763,44740.000,7310,1,H0,1,100,33.509
1576770660.974113,44849.000,7328,1,H0,1,100,33.436
1576770661.109396,44963.000,7362,1,H0,1,100,33.391
1576770661.250613,45082.000,7380,1,H0,1,100,33.303
1576770661.383523,45194.000,7399,1,H0,1,100,33.238
1576770661.522367,45311.000,7417,1,H0,1,100,33.173
1576770661.654090,45422.000,7435,1,H0,1,100,33.082
1576770661.784626,45532.000,7452,1,H0,1,100,33.051
1576770661.911603,45639.000,7470,1,H0,1,100,32.982
1576770662.044513,45751.000,7488,1,H0,1,100,32.918
1576770662.180983,45866.000,7522,1,H0,1,100,32.864
1576770662.313893,45978.000,7541,1,H0,1,100,32.795
1576770662.449176,46092.000,7559,1,H0,1,100,32.734
1576770662.574966,46198.000,7577,1,H0,1,100,32.658
1576770662.707876,46310.000,7598,2,H0,1,100,32.601
1576770662.840786,46422.000,7598,2,H0,1,100,32.567
1576770662.980816,46540.000,7634,1,H0,1,100,32.498
1576770663.106606,46646.000,7652,1,H0,1,100,32.445
1576770663.237143,46756.000,7670,1,H0,1,100,32.372
1576770663.372426,46870.000,7689,1,H0,1,100,32.334
1576770663.510083,46986.000,7707,1,H0,1,100,32.284
1576770663.646553,47101.000,7724,1,H0,1,100,32.227
1576770663.773529,47208.000,7742,1,H0,1,100,32.139
1576770663.902879,47317.000,7760,1,H0,1,100,32.097
1576770664.038162,47431.000,7778,1,H0,1,100,32.017
1576770664.177006,47548.000,7812,1,H0,1,100,31.956
1576770664.307543,47658.000,7831,1,H0,1,100,31.918
1576770664.434519,47765.000,7849,1,H0,1,100,31.842
1576770664.566242,47876.000,7867,1,H0,1,100,31.815
1576770664.703899,47992.000,7885,1,H0,1,100,31.754
1576770664.841556,48108.000,7903,1,H0,1,100,31.685
1576770664.970906,48217.000,7920,1,H0,1,100,31.624
1576770665.105002,48330.000,7938,1,H0,1,100,31.563
1576770665.231979,48437.000,7956,1,H0,1,100,31.514
1576770665.367262,48551.000,7991,1,H0,1,100,31.453
1576770665.494239,48658.000,8009,1,H0,1,100,31.384
1576770665.630709,48773.000,8027,1,H0,1,100,31.334
1576770665.767179,48888.000,8045,1,H0,1,100,31.273
1576770665.904835,49004.000,8063,1,H0,1,100,31.201
1576770666.031812,49111.000,8081,1,H0,1,100,31.144
1576770666.162349,49221.000,8099,1,H0,1,100,31.083
1576770666.295259,49333.000,8116,1,H0,1,100,31.033
1576770666.432915,49449.000,8135,1,H0,1,100,30.961
1576770666.568199,49563.000,8169,1,H0,1,100,30.907
1576770666.691615,49667.000,8187,1,H0,1,100,30.854
1576770666.824525,49779.000,8205,1,H0,1,100,30.808
1576770666.959808,49893.000,8223,1,H0,1,100,30.736
1576770667.097465,50009.000,8241,1,H0,1,100,30.686
1576770667.228002,50119.000,8259,1,H0,1,100,30.613
1576770667.356165,50227.000,8278,1,H0,1,100,30.579
1576770667.489075,50339.000,8295,1,H0,1,100,30.495
1576770667.624358,50453.000,8313,1,H0,1,100,30.457
1576770667.763202,50570.000,8347,1,H0,1,100,30.400
1576770667.888992,50676.000,8365,1,H0,1,100,30.343
1576770668.019528,50786.000,8383,1,H0,1,100,30.266
1576770668.153625,50899.000,8401,1,H0,1,100,30.224
1576770668.290095,51014.000,8419,1,H0,1,100,30.160
1576770668.425378,51128.000,8438,1,H0,1,100,30.106
1576770668.553541,51236.000,8456,1,H0,1,100,30.064
1576770668.681705,51344.000,8474,1,H0,1,100,29.980
1576770668.812241,51454.000,8493,1,H0,1,100,29.942
1576770668.951085,51571.000,8515,1,H0,1,100,29.892
1576770669.076874,51677.000,8533,1,H0,1,100,29.816
1576770669.214531,51793.000,8551,1,H0,1,100,29.767
1576770669.352188,51909.000,8569,1,H0,1,100,29.694
1576770669.485098,52021.000,8587,1,H0,1,100,29.645
1576770669.613261,52129.000,8605,1,H0,1,100,29.572
1576770669.746171,52241.000,8639,1,H0,1,100,29.500
1576770669.880268,52354.000,8657,1,H0,1,100,29.431
1576770670.019111,52471.000,8675,1,H0,1,100,29.393
1576770670.147274,52579.000,8693,1,H0,1,100,29.332
1576770670.271877,52684.000,8711,1,H0,1,100,29.267
1576770670.408347,52799.000,8730,1,H0,1,100,29.198
1576770670.544817,52914.000,8748,1,H0,1,100,29.156
1576770670.681288,53029.000,8765,1,H0,1,100,29.080
1576770670.805891,53134.000,8783,1,H0,1,100,29.015
1576770670.936427,53244.000,8801,1,H0,1,100,28.950
1576770671.072897,53359.000,8835,1,H0,1,100,28.882
1576770671.208181,53473.000,8853,1,H0,1,100,28.821
1576770671.343464,53587.000,8872,1,H0,1,100,28.763
1576770671.468067,53692.000,8890,1,H0,1,100,28.710
1576770671.604537,53807.000,8908,1,H0,1,100,28.664
1576770671.738634,53920.000,8926,1,H0,1,100,28.599
1576770671.876291,54036.000,8943,1,H0,1,100,28.550
1576770672.005641,54145.000,8961,1,H0,1,100,28.512
1576770672.132617,54252.000,8979,1,H0,1,100,28.454
1576770672.266714,54365.000,9014,1,H0,1,100,28.409
1576770672.409117,54485.000,9032,1,H0,1,100,28.359
1576770672.547961,54602.000,9050,1,H0,1,100,28.306
1576770672.682057,54715.000,9068,1,H0,1,100,28.264
1576770672.820901,54832.000,9086,1,H0,1,100,28.237
1576770672.960931,54950.000,9103,1,H0,1,100,28.187
1576770673.085534,55055.000,9121,1,H0,1,100,28.126
1576770673.214884,55164.000,9139,1,H0,1,100,28.092
1576770673.350167,55278.000,9174,1,H0,1,100,28.035
1576770673.483473,55390.333,9192,3,H0,1,100,27.993
1576770673.616778,55502.667,9192,3,H0,1,100,27.951
1576770673.750084,55615.000,9192,3,H0,1,100,27.920
1576770673.875874,55721.000,9210,1,H0,1,100,27.855
1576770674.013530,55837.000,9227,1,H0,1,100,27.798
1576770674.152374,55954.000,9245,1,H0,1,100,27.764
1576770674.284097,56065.000,9280,1,H0,1,100,27.718
1576770674.409887,56171.000,9298,1,H0,1,100,27.676
1576770674.545170,56285.000,9316,1,H0,1,100,27.634
1576770674.682827,56401.000,9334,1,H0,1,100,27.577
1576770674.815737,56513.000,9355,2,H0,1,100,27.531
1576770674.948647,56625.000,9355,2,H0,1,100,27.482
1576770675.075623,56732.000,9375,1,H0,1,100,27.443
1576770675.214467,56849.000,9409,1,H0,1,100,27.417
1576770675.349750,56963.000,9428,1,H0,1,100,27.356
1576770675.485034,57077.000,9446,1,H0,1,100,27.291
1576770675.609637,57182.000,9464,1,H0,1,100,27.264
1576770675.740173,57292.000,9482,1,H0,1,100,27.203
1576770675.875457,57406.000,9500,1,H0,1,100,27.165
1576770676.017860,57526.000,9517,1,H0,1,100,27.123
1576770676.155517,57642.000,9535,1,H0,1,100,27.062
1576770676.291987,57757.000,9570,1,H0,1,100,27.016
1576770676.430830,57874.000,9588,1,H0,1,100,26.951
1576770676.566114,57988.000,9606,1,H0,1,100,26.928
1576770676.690717,58093.000,9624,1,H0,1,100,26.883
1576770676.826000,58207.000,9642,1,H0,1,100,26.841
1576770676.962470,58322.000,9660,1,H0,1,100,26.795
1576770677.096567,58435.000,9677,1,H0,1,100,26.761
1576770677.234224,58551.000,9695,1,H0,1,100,26.722
1576770677.371881,58667.000,9730,1,H0,1,100,26.696
1576770677.495297,58771.000,9748,1,H0,1,100,26.635
1576770677.627020,58882.000,9766,1,H0,1,100,26.608
1576770677.762303,58996.000,9784,1,H0,1,100,26.562
1576770677.896400,59109.000,9802,1,H0,1,100,26.494
1576770678.030497,59222.000,9820,1,H0,1,100,26.455
1576770678.156286,59328.000,9838,1,H0,1,100,26.410
1576770678.290383,59441.000,9855,1,H0,1,100,26.364
1576770678.425667,59555.000,9874,1,H0,1,100,26.326
1576770678.565697,59673.000,9908,1,H0,1,100,26.265
1576770678.693860,59781.000,9926,1,H0,1,100,26.230
1576770678.819650,59887.000,9944,1,H0,1,100,26.181
1576770678.957306,60003.000,9962,1,H0,1,100,26.120
1576770679.093776,60118.000,9980,1,H0,1,100,26.063
1576770679.229060,60232.000,9998,1,H0,1,100,26.024
1576770679.352476,60336.000,10017,1,H0,1,100,25.986
1576770679.481826,60445.000,10035,1,H0,1,100,25.929
1576770679.620670,60562.000,10052,1,H0,1,100,25.872
1576770679.759513,60679.000,10086,1,H0,1,100,25.818
1576770679.895983,60794.000,10104,1,H0,1,100,25.788
1576770680.033640,60910.000,10122,1,H0,1,100,25.727
1576770680.162990,61019.000,10140,1,H0,1,100,25.689
1576770680.295900,61131.000,10158,1,H0,1,100,25.628
1576770680.422876,61238.000,10177,1,H0,1,100,25.582
1576770680.554600,61349.000,10195,1,H0,1,100,25.532
1576770680.688696,61462.000,10212,1,H0,1,100,25.502
1576770680.829913,61581.000,10230,1,H0,1,100,25.448
1576770680.960450,61691.000,10251,1,H0,1,100,25.406
1576770681.083866,61795.000,10271,1,H0,1,100,25.342
1576770681.219149,61909.000,10289,1,H0,1,100,25.319
1576770681.355619,62024.000,10307,1,H0,1,100,25.269
1576770681.492090,62139.000,10325,1,H0,1,100,25.223
1576770681.619066,62246.000,10343,1,H0,1,100,25.166
1576770681.749603,62356.000,10377,1,H0,1,100,25.128
1576770681.884886,62470.000,10395,1,H0,1,100,25.078
1576770682.020169,62584.000,10413,1,H0,1,100,25.033
1576770682.156639,62699.000,10431,1,H0,1,100,24.987
1576770682.281242,62804.000,10449,1,H0,1,100,24.922
1576770682.412966,62915.000,10468,1,H0,1,100,24.903
1576770682.551809,63032.000,10486,1,H0,1,100,24.853
1576770682.688279,63147.000,10503,1,H0,1,100,24.800
1576770682.816442,63255.000,10521,1,H0,1,100,24.766
1576770682.943419,63362.000,10539,1,H0,1,100,24.708
1576770683.075142,63473.000,10573,1,H0,1,100,24.666
1576770683.213985,63590.000,10591,1,H0,1,100,24.621
1576770683.351642,63706.000,10610,1,H0,1,100,24.563
1576770683.476245,63811.000,10628,1,H0,1,100,24.525
1576770683.606782,63921.000,10646,1,H0,1,100,24.491
1576770683.736132,64030.000,10664,1,H0,1,100,24.441
1576770683.861922,64136.000,10682,1,H0,1,100,24.380
1576770683.991271,64245.000,10699,1,H0,1,100,24.376
1576770684.126555,64359.000,10717,1,H0,1,100,24.308
1576770684.259465,64471.000,10735,1,H0,1,100,24.281
1576770684.398308,64588.000,10770,1,H0,1,100,24.205
1576770684.525285,64695.000,10788,1,H0,1,100,24.190
1576770684.652261,64802.000,10806,1,H0,1,100,24.117
1576770684.789918,64918.000,10824,1,H0,1,100,24.079
1576770684.927575,65034.000,10842,1,H0,1,100,24.029
1576770685.058111,65144.000,10860,1,H0,1,100,24.003
1576770685.186275,65252.000,10878,1,H0,1,100,23.930
1576770685.319185,65364.000,10896,1,H0,1,100,23.888
1576770685.455655,65479.000,10914,1,H0,1,100,23.839
1576770685.592125,65594.000,10948,1,H0,1,100,23.804
1576770685.721474,65703.000,10966,1,H0,1,100,23.762
1576770685.848451,65810.000,10984,1,H0,1,100,23.716
1576770685.983734,65924.000,11002,1,H0,1,100,23.675
1576770686.123765,66042.000,11020,1,H0,1,100,23.617
1576770686.260235,66157.000,11038,1,H0,1,100,23.572
1576770686.384838,66262.000,11057,1,H0,1,100,23.526
1576770686.514188,66371.000,11074,1,H0,1,100,23.472
1576770686.649471,66485.000,11092,1,H0,1,100,23.415
1576770686.787128,66601.000,11126,1,H0,1,100,23.392
1576770686.915291,66709.000,11147,2,H0,1,100,23.343
1576770687.043454,66817.000,11147,2,H0,1,100,23.289
1576770687.177551,66930.000,11166,1,H0,1,100,23.247
1576770687.310461,67042.000,11185,1,H0,1,100,23.194
1576770687.435064,67147.000,11203,1,H0,1,100,23.140
1576770687.571534,67262.000,11237,1,H0,1,100,23.068
1576770687.708004,67377.000,11255,1,H0,1,100,23.057
1576770687.843287,67491.000,11273,1,H0,1,100,22.996
1576770687.975010,67602.000,11291,1,H0,1,100,22.961
1576770688.101987,67709.000,11309,1,H0,1,100,22.893
1576770688.232524,67819.000,11327,1,H0,1,100,22.862
1576770688.374927,67939.000,11345,1,H0,1,100,22.812
1576770688.511397,68054.000,11363,1,H0,1,100,22.755
1576770688.645494,68167.000,11381,1,H0,1,100,22.732
1576770688.780777,68281.000,11415,1,H0,1,100,22.664
1576770688.906567,68387.000,11433,1,H0,1,100,22.625
1576770689.034730,68495.000,11451,1,H0,1,100,22.564
1576770689.172387,68611.000,11469,1,H0,1,100,22.526
1576770689.311230,68728.000,11488,1,H0,1,100,22.473
1576770689.440580,68837.000,11506,1,H0,1,100,22.427
1576770689.568743,68945.000,11524,1,H0,1,100,22.381
1576770689.704027,69059.000,11541,1,H0,1,100,22.336
1576770689.841684,69175.000,11559,1,H0,1,100,22.294
1576770689.978154,69290.000,11593,1,H0,1,100,22.248
1576770690.105130,69397.000,11611,1,H0,1,100,22.202
1576770690.233293,69505.000,11630,1,H0,1,100,22.126
1576770690.373323,69623.000,11648,1,H0,1,100,22.088
1576770690.507420,69736.000,11666,1,H0,1,100,22.019
1576770690.639143,69847.000,11684,1,H0,1,100,21.981
1576770690.763747,69952.000,11702,1,H0,1,100,21.920
1576770690.895470,70063.000,11719,1,H0,1,100,21.893
1576770691.033127,70179.000,11737,1,H0,1,100,21.821
1576770691.175530,70299.000,11771,1,H0,1,100,21.802
1576770691.313187,70415.000,11790,1,H0,1,100,21.740
1576770691.449657,70530.000,11808,1,H0,1,100,21.706
1576770691.576633,70637.000,11826,1,H0,1,100,21.653
1576770691.711917,70751.000,11844,1,H0,1,100,21.599
1576770691.837707,70857.000,11862,1,H0,1,100,21.538
1576770691.974176,70972.000,11879,1,H0,1,100,21.493
1576770692.110646,71087.000,11897,1,H0,1,100,21.424
1576770692.249490,71204.000,11932,1,H0,1,100,21.386
1576770692.377653,71312.000,11950,1,H0,1,100,21.355
1576770692.505816,71420.000,11968,1,H0,1,100,21.294
1576770692.637540,71531.000,11986,1,H0,1,100,21.248
1576770692.774010,71646.000,12004,1,H0,1,100,21.214
1576770692.909293,71760.000,12022,1,H0,1,100,21.164
1576770693.032710,71864.000,12043,1,H0,1,100,21.119
1576770693.164433,71975.000,12063,1,H0,1,100,21.061
1576770693.303276,72092.000,12082,1,H0,1,100,21.054
1576770693.439746,72207.000,12100,1,H0,1,100,20.993
1576770693.571470,72318.000,12118,1,H0,1,100,20.947
1576770693.699633,72426.000,12136,1,H0,1,100,20.909
1576770693.832543,72538.000,12154,1,H0,1,100,20.852
1576770693.971386,72655.000,12171,1,H0,1,100,20.802
1576770694.106669,72769.000,12189,1,H0,1,100,20.768
1576770694.232459,72875.000,12224,1,H0,1,100,20.718
1576770694.362996,72985.000,12242,1,H0,1,100,20.688
1576770694.497092,73098.000,12260,1,H0,1,100,20.638
1576770694.634749,73214.000,12278,1,H0,1,100,20.588
1576770694.775966,73333.000,12296,1,H0,1,100,20.546
1576770694.913623,73449.000,12313,1,H0,1,100,20.489
1576770695.040599,73556.000,12331,1,H0,1,100,20.451
1576770695.178256,73672.000,12349,1,H0,1,100,20.409
1576770695.305233,73779.000,12367,1,H0,1,100,20.367
1576770695.431022,73885.000,12402,1,H0,1,100,20.325
1576770695.569866,74002.000,12420,1,H0,1,100,20.279
1576770695.707523,74118.000,12438,1,H0,1,100,20.218
1576770695.840433,74230.000,12456,1,H0,1,100,20.196
1576770695.967409,74337.000,12474,1,H0,1,100,20.131
1576770696.097946,74447.000,12492,1,H0,1,100,20.093
1576770696.232042,74560.000,12509,1,H0,1,100,20.039
1576770696.370886,74677.000,12528,1,H0,1,100,20.005
1576770696.501422,74787.000,12546,1,H0,1,100,19.951
1576770696.623652,74890.000,12564,1,H0,1,100,19.890
1576770696.761309,75006.000,12598,1,H0,1,100,19.867
1576770696.901339,75124.000,12616,1,H0,1,100,19.826
1576770697.038996,75240.000,12634,1,H0,1,100,19.764
1576770697.163599,75345.000,12652,1,H0,1,100,19.719
1576770697.295322,75456.000,12671,1,H0,1,100,19.665
1576770697.430605,75570.000,12689,1,H0,1,100,19.627
1576770697.568262,75686.000,12706,1,H0,1,100,19.581
1576770697.701172,75798.000,12724,1,H0,1,100,19.539
1576770697.824589,75902.000,12742,1,H0,1,100,19.486
1576770697.961059,76017.000,12776,1,H0,1,100,19.433
1576770698.096342,76131.000,12794,1,H0,1,100,19.387
1576770698.233999,76247.000,12812,1,H0,1,100,19.330
1576770698.374029,76365.000,12831,1,H0,1,100,19.276
1576770698.506939,76477.000,12849,1,H0,1,100,19.219
1576770698.633915,76584.000,12866,1,H0,1,100,19.166
1576770698.764452,76694.000,12884,1,H0,1,100,19.108
1576770698.892615,76802.000,12902,1,H0,1,100,19.074
1576770699.021965,76911.000,12920,1,H0,1,100,19.036
1576770699.160808,77028.000,12941,1,H0,1,100,18.979
1576770699.299652,77145.000,12962,1,H0,1,100,18.956
1576770699.425442,77251.000,12979,1,H0,1,100,18.937
1576770699.554791,77360.000,12997,1,H0,1,100,18.891
1576770699.690075,77474.000,13015,1,H0,1,100,18.841
1576770699.822985,77586.000,13049,1,H0,1,100,18.799
1576770699.961828,77703.000,13067,1,H0,1,100,18.773
1576770700.088805,77810.000,13085,1,H0,1,100,18.723
1576770700.214595,77916.000,13104,1,H0,1,100,18.673
1576770700.351065,78031.000,13122,1,H0,1,100,18.639
1576770700.491095,78149.000,13140,1,H0,1,100,18.605
1576770700.622818,78260.000,13157,1,H0,1,100,18.567
1576770700.748608,78366.000,13175,1,H0,1,100,18.517
1576770700.883891,78480.000,13193,1,H0,1,100,18.471
1576770701.021548,78596.000,13227,1,H0,1,100,18.441
1576770701.159205,78712.000,13245,1,H0,1,100,18.391
1576770701.286181,78819.000,13264,1,H0,1,100,18.349
1576770701.409598,78923.000,13282,1,H0,1,100,18.292
1576770701.548441,79040.000,13300,1,H0,1,100,18.269
1576770701.683724,79154.000,13318,1,H0,1,100,18.223
1576770701.820194,79269.000,13335,1,H0,1,100,18.185
1576770701.947171,79376.000,13353,1,H0,1,100,18.139
1576770702.082454,79490.000,13371,1,H0,1,100,18.086
1576770702.205871,79594.000,13389,1,H0,1,100,18.052
1576770702.342341,79709.000,13424,1,H0,1,100,17.994
1576770702.472877,79819.000,13442,1,H0,1,100,17.964
1576770702.605787,79931.000,13460,1,H0,1,100,17.911
1576770702.747004,80050.000,13478,1,H0,1,100,17.865
1576770702.883474,80165.000,13496,1,H0,1,100,17.819
1576770703.021131,80281.000,13513,1,H0,1,100,17.788
1576770703.150481,80390.000,13531,1,H0,1,100,17.743
1576770703.281017,80500.000,13550,1,H0,1,100,17.689
1576770703.411554,80610.000,13568,1,H0,1,100,17.651
1576770703.551584,80728.000,13602,1,H0,1,100,17.605
1576770703.688054,80843.000,13620,1,H0,1,100,17.563
1576770703.811471,80947.000,13638,1,H0,1,100,17.510
1576770703.943194,81058.000,13656,1,H0,1,100,17.483
1576770704.078477,81172.000,13674,1,H0,1,100,17.415
1576770704.214947,81287.000,13692,1,H0,1,100,17.388
1576770704.347857,81399.000,13710,1,H0,1,100,17.323
1576770704.476020,81507.000,13728,1,H0,1,100,17.296
1576770704.606557,81617.000,13746,1,H0,1,100,17.228
1576770704.741840,81731.000,13780,1,H0,1,100,17.186
1576770704.883057,81850.000,13798,1,H0,1,100,17.140
1576770705.010034,81957.000,13816,1,H0,1,100,17.087
1576770705.141757,82068.000,13837,2,H0,1,100,17.033
1576770705.273480,82179.000,13837,2,H0,1,100,17.006
1576770705.411137,82295.000,13874,1,H0,1,100,16.972
1576770705.548794,82411.000,13892,1,H0,1,100,16.915
1576770705.674583,82517.000,13910,1,H0,1,100,16.861
1576770705.800373,82623.000,13928,1,H0,1,100,16.816
1576770705.936843,82738.000,13946,1,H0,1,100,16.766
1576770706.075687,82855.000,13964,1,H0,1,100,16.724
1576770706.203850,82963.000,13981,1,H0,1,100,16.690
1576770706.343880,83081.000,14000,1,H0,1,100,16.621
1576770706.481537,83197.000,14034,1,H0,1,100,16.583
1576770706.615633,83310.000,14052,1,H0,1,100,16.522
1576770706.742610,83417.000,14070,1,H0,1,100,16.472
1576770706.874333,83528.000,14088,1,H0,1,100,16.411
1576770707.008430,83641.000,14106,1,H0,1,100,16.373
1576770707.149647,83760.000,14124,1,H0,1,100,16.327
1576770707.281370,83871.000,14143,1,H0,1,100,16.285
1576770707.403600,83974.000,14160,1,H0,1,100,16.217
1576770707.541257,84090.000,14178,1,H0,1,100,16.160
1576770707.678913,84206.000,14212,1,H0,1,100,16.118
1576770707.814197,84320.000,14230,1,H0,1,100,16.057
1576770707.941173,84427.000,14248,1,H0,1,100,16.026
1576770708.071710,84537.000,14266,1,H0,1,100,15.950
1576770708.206993,84651.000,14284,1,H0,1,100,15.915
1576770708.342277,84765.000,14303,1,H0,1,100,15.862
1576770708.479933,84881.000,14320,1,H0,1,100,15.816
1576770708.604536,84986.000,14338,1,H0,1,100,15.778
1576770708.738633,85099.000,14356,1,H0,1,100,15.755
1576770708.872730,85212.000,14390,1,H0,1,100,15.702
1576770709.009200,85327.000,14408,1,H0,1,100,15.648
1576770709.139736,85437.000,14426,1,H0,1,100,15.606
1576770709.266713,85544.000,14445,1,H0,1,100,15.564
1576770709.398436,85655.000,14463,1,H0,1,100,15.526
1576770709.540840,85775.000,14481,1,H0,1,100,15.492
1576770709.679683,85892.000,14498,1,H0,1,100,15.431
1576770709.812593,86004.000,14516,1,H0,1,100,15.393
1576770709.951437,86121.000,14550,1,H0,1,100,15.366
1576770710.091467,86239.000,14568,1,H0,1,100,15.317
1576770710.218443,86346.000,14587,1,H0,1,100,15.267
1576770710.352540,86459.000,14605,1,H0,1,100,15.225
1576770710.479516,86566.000,14623,1,H0,1,100,15.194
1576770710.607679,86674.000,14641,1,H0,1,100,15.160
1576770710.745336,86790.000,14659,1,H0,1,100,15.095
1576770710.882993,86906.000,14676,1,H0,1,100,15.057
1576770711.012343,87015.000,14694,1,H0,1,100,15.000
1576770711.141693,87124.000,14712,1,H0,1,100,14.969
1576770711.274603,87236.000,14733,1,H0,1,100,14.920
1576770711.408699,87349.000,14754,1,H0,1,100,14.878
1576770711.549916,87468.000,14771,1,H0,1,100,14.828
1576770711.676893,87575.000,14789,1,H0,1,100,14.786
1576770711.805056,87683.000,14807,1,H0,1,100,14.725
1576770711.940339,87797.000,14841,1,H0,1,100,14.683
1576770712.080369,87915.000,14859,1,H0,1,100,14.634
1576770712.215653,88029.000,14877,1,H0,1,100,14.592
1576770712.340256,88134.000,14896,1,H0,1,100,14.538
1576770712.473166,88246.000,14914,1,H0,1,100,14.473
1576770712.608449,88360.000,14932,1,H0,1,100,14.432
1576770712.746106,88476.000,14949,1,H0,1,100,14.401
1576770712.874269,88584.000,14967,1,H0,1,100,14.351
1576770712.997685,88688.000,14985,1,H0,1,100,14.313
1576770713.134156,88803.000,15003,1,H0,1,100,14.279
1576770713.271812,88919.000,15038,1,H0,1,100,14.229
1576770713.405909,89032.000,15056,1,H0,1,100,14.180
1576770713.543566,89148.000,15074,1,H0,1,100,14.149
1576770713.677662,89261.000,15092,1,H0,1,100,14.100
1576770713.816506,89378.000,15110,1,H0,1,100,14.065
1576770713.947042,89488.000,15127,1,H0,1,100,14.039
1576770714.076392,89597.000,15145,1,H0,1,100,13.989
1576770714.206929,89707.000,15163,1,H0,1,100,13.939
1576770714.346959,89825.000,15198,1,H0,1,100,13.905
1576770714.485802,89942.000,15216,1,H0,1,100,13.859
1576770714.609219,90046.000,15234,1,H0,1,100,13.829
1576770714.739755,90156.000,15252,1,H0,1,100,13.791
1576770714.876225,90271.000,15270,1,H0,1,100,13.756
1576770715.009135,90383.000,15288,1,H0,1,100,13.695
1576770715.145606,90498.000,15305,1,H0,1,100,13.653
1576770715.272582,90605.000,15324,1,H0,1,100,13.627
1576770715.403119,90715.000,15342,1,H0,1,100,13.585
1576770715.538402,90829.000,15376,1,H0,1,100,13.547
1576770715.679619,90948.000,15394,1,H0,1,100,13.497
1576770715.807782,91056.000,15412,1,H0,1,100,13.474
1576770715.933572,91162.000,15430,1,H0,1,100,13.417
1576770716.070042,91277.000,15448,1,H0,1,100,13.382
1576770716.205325,91391.000,15466,1,H0,1,100,13.337
1576770716.342982,91507.000,15484,1,H0,1,100,13.295
1576770716.468772,91613.000,15502,1,H0,1,100,13.245
1576770716.593375,91718.000,15520,1,H0,1,100,13.188
1576770716.732218,91835.000,15554,1,H0,1,100,13.192
1576770716.871062,91952.000,15572,1,H0,1,100,13.119
1576770717.007532,92067.000,15590,1,H0,1,100,13.096
1576770717.149935,92187.000,15608,1,H0,1,100,13.035
1576770717.284032,92300.000,15630,1,H0,1,100,12.993
1576770717.418129,92413.000,15650,1,H0,1,100,12.955
1576770717.553412,92527.000,15668,1,H0,1,100,12.925
1576770717.683949,92637.000,15686,1,H0,1,100,12.875
1576770717.808552,92742.000,15704,1,H0,1,100,12.826
1576770717.946208,92858.000,15722,1,H0,1,100,12.795
1576770718.083865,92974.000,15739,1,H0,1,100,12.757
1576770718.221522,93090.000,15757,1,H0,1,100,12.711
1576770718.348498,93197.000,15776,1,H0,1,100,12.684
1576770718.476662,93305.000,15793,1,H0,1,100,12.635
1576770718.609571,93417.000,15828,1,H0,1,100,12.608
1576770718.747228,93533.000,15846,1,H0,1,100,12.547
1576770718.883698,93648.000,15864,1,H0,1,100,12.536
1576770719.005928,93751.000,15882,1,H0,1,100,12.494
1576770719.140025,93864.000,15900,1,H0,1,100,12.456
1576770719.280055,93982.000,15919,1,H0,1,100,12.417
1576770719.416525,94097.000,15936,1,H0,1,100,12.391
1576770719.545875,94206.000,15954,1,H0,1,100,12.353
1576770719.674038,94314.000,15971,1,H0,1,100,12.326
1576770719.806948,94426.000,16006,1,H0,1,100,12.276
1576770719.945791,94543.000,16024,1,H0,1,100,12.246
1576770720.084635,94660.000,16042,1,H0,1,100,12.208
1576770720.208051,94764.000,16060,1,H0,1,100,12.185
1576770720.338588,94874.000,16079,1,H0,1,100,12.154
1576770720.471498,94986.000,16097,1,H0,1,100,12.108
1576770720.607968,95101.000,16114,1,H0,1,100,12.051
1576770720.750371,95221.000,16132,1,H0,1,100,12.032
1576770720.890402,95339.000,16166,1,H0,1,100,11.982
1576770721.028058,95455.000,16184,1,H0,1,100,11.941
1576770721.165715,95571.000,16202,1,H0,1,100,11.910
1576770721.293878,95679.000,16221,1,H0,1,100,11.860
1576770721.423228,95788.000,16239,1,H0,1,100,11.834
1576770721.552578,95897.000,16257,1,H0,1,100,11.784
1576770721.686675,96010.000,16274,1,H0,1,100,11.738
1576770721.819585,96122.000,16292,1,H0,1,100,11.719
1576770721.960801,96241.000,16326,1,H0,1,100,11.677
1576770722.087778,96348.000,16344,1,H0,1,100,11.635
1576770722.212381,96453.000,16363,1,H0,1,100,11.609
1576770722.348851,96568.000,16381,1,H0,1,100,11.567
1576770722.486508,96684.000,16399,1,H0,1,100,11.509
1576770722.619418,96796.000,16417,1,H0,1,100,11.471
1576770722.746394,96903.000,16435,1,H0,1,100,11.441
1576770722.879304,97015.000,16452,1,H0,1,100,11.391
1576770723.016961,97131.000,16470,1,H0,1,100,11.361
1576770723.153431,97246.000,16504,1,H0,1,100,11.315
1576770723.281001,97353.500,16526,2,H0,1,100,11.292
1576770723.408571,97461.000,16526,2,H0,1,100,11.246
1576770723.542667,97574.000,16545,1,H0,1,100,11.204
1576770723.681511,97691.000,16563,1,H0,1,100,11.166
1576770723.819168,97807.000,16581,1,H0,1,100,11.117
1576770723.944957,97913.000,16615,1,H0,1,100,11.090
1576770724.074307,98022.000,16633,1,H0,1,100,11.052
1576770724.207217,98134.000,16652,1,H0,1,100,11.029
1576770724.344874,98250.000,16670,1,H0,1,100,10.975
1576770724.480157,98364.000,16688,1,H0,1,100,10.926
1576770724.617814,98480.000,16706,1,H0,1,100,10.888
1576770724.756658,98597.000,16723,1,H0,1,100,10.872
1576770724.891941,98711.000,16741,1,H0,1,100,10.819
1576770725.016544,98816.000,16759,1,H0,1,100,10.785
1576770725.149454,98928.000,16793,1,H0,1,100,10.739
1576770725.288297,99045.000,16812,1,H0,1,100,10.705
1576770725.421207,99157.000,16830,1,H0,1,100,10.674
1576770725.560051,99274.000,16848,1,H0,1,100,10.624
1576770725.700081,99392.000,16866,1,H0,1,100,10.602
1576770725.824684,99497.000,16883,1,H0,1,100,10.548
1576770725.954034,99606.000,16901,1,H0,1,100,10.506
1576770726.088131,99719.000,16919,1,H0,1,100,10.476
1576770726.221041,99831.000,16954,1,H0,1,100,10.438
1576770726.359884,99948.000,16972,1,H0,1,100,10.407
1576770726.486861,100055.000,16990,1,H0,1,100,10.357
1576770726.616210,100164.000,17008,1,H0,1,100,10.312
1576770726.751494,100278.000,17026,1,H0,1,100,10.266
1576770726.891524,100396.000,17044,1,H0,1,100,10.232
1576770727.022061,100506.000,17062,1,H0,1,100,10.182
1576770727.147850,100612.000,17079,1,H0,1,100,10.155
1576770727.281947,100725.000,17098,1,H0,1,100,10.109
1576770727.419604,100841.000,17132,1,H0,1,100,10.056
1576770727.557261,100957.000,17150,1,H0,1,100,10.029
1576770727.685424,101065.000,17168,1,H0,1,100,9.995
1576770727.808840,101169.000,17186,1,H0,1,100,9.965
1576770727.947684,101286.000,17204,1,H0,1,100,9.926
1576770728.082967,101400.000,17222,1,H0,1,100,9.888
1576770728.217064,101513.000,17240,1,H0,1,100,9.842
1576770728.352347,101627.000,17258,1,H0,1,100,9.797
1576770728.482883,101737.000,17276,1,H0,1,100,9.755
1576770728.618167,101851.000,17310,1,H0,1,100,9.717
1576770728.745143,101958.000,17328,1,H0,1,100,9.686
1576770728.875680,102068.000,17346,1,H0,1,100,9.636
1576770729.008590,102180.000,17364,1,H0,1,100,9.602
1576770729.149807,102299.000,17382,1,H0,1,100,9.537
1576770729.286277,102414.000,17401,1,H0,1,100,9.507
1576770729.425120,102531.000,17422,1,H0,1,100,9.453
1576770729.553283,102639.000,17442,1,H0,1,100,9.419
1576770729.680260,102746.000,17460,1,H0,1,100,9.396
1576770729.810796,102856.000,17478,1,H0,1,100,9.347
1576770729.947267,102971.000,17496,1,H0,1,100,9.301
1576770730.083737,103086.000,17514,1,H0,1,100,9.270
1576770730.207153,103190.000,17531,1,H0,1,100,9.232
1576770730.338876,103301.000,17550,1,H0,1,100,9.190
1576770730.477720,103418.000,17568,1,H0,1,100,9.141
1576770730.614190,103533.000,17602,1,H0,1,100,9.106
1576770730.745913,103644.000,17620,1,H0,1,100,9.064
1576770730.874076,103752.000,17638,1,H0,1,100,9.038
1576770731.004613,103862.000,17656,1,H0,1,100,9.011
1576770731.143456,103979.000,17674,1,H0,1,100,8.961
1576770731.281113,104095.000,17693,1,H0,1,100,8.935
1576770731.406903,104201.000,17711,1,H0,1,100,8.881
1576770731.535066,104309.000,17728,1,H0,1,100,8.851
1576770731.667976,104421.000,17746,1,H0,1,100,8.820
1576770731.804446,104536.000,17780,1,H0,1,100,8.782
1576770731.946850,104656.000,17798,1,H0,1,100,8.732
1576770732.080946,104769.000,17816,1,H0,1,100,8.698
1576770732.211483,104879.000,17834,1,H0,1,100,8.683
1576770732.346766,104993.000,17853,1,H0,1,100,8.629
1576770732.473743,105100.000,17871,1,H0,1,100,8.603
1576770732.599532,105206.000,17889,1,H0,1,100,8.553
1576770732.738376,105323.000,17906,1,H0,1,100,8.542
1576770732.877219,105440.000,17924,1,H0,1,100,8.500
1576770733.013689,105555.000,17958,1,H0,1,100,8.465
1576770733.154906,105674.000,17976,1,H0,1,100,8.420
1576770733.284256,105783.000,17995,1,H0,1,100,8.389
1576770733.408859,105888.000,18013,1,H0,1,100,8.366
1576770733.545329,106003.000,18031,1,H0,1,100,8.328
1576770733.682986,106119.000,18049,1,H0,1,100,8.286
1576770733.818269,106233.000,18066,1,H0,1,100,8.252
1576770733.945246,106340.000,18084,1,H0,1,100,8.233
1576770734.076969,106451.000,18118,1,H0,1,100,8.194
1576770734.214626,106567.000,18137,1,H0,1,100,8.149
1576770734.349909,106681.000,18155,1,H0,1,100,8.122
1576770734.484006,106794.000,18173,1,H0,1,100,8.080
1576770734.608609,106899.000,18191,1,H0,1,100,8.061
1576770734.740332,107010.000,18209,1,H0,1,100,8.023
1576770734.877989,107126.000,18227,1,H0,1,100,7.988
1576770735.016833,107243.000,18244,1,H0,1,100,7.962
1576770735.144996,107351.000,18262,1,H0,1,100,7.924
1576770735.273159,107459.000,18280,1,H0,1,100,7.901
1576770735.408442,107573.000,18318,2,H0,1,100,7.855
1576770735.543725,107687.000,18318,2,H0,1,100,7.821
1576770735.681382,107803.000,18337,1,H0,1,100,7.794
1576770735.819039,107919.000,18355,1,H0,1,100,7.779
1576770735.960256,108038.000,18389,1,H0,1,100,7.752
1576770736.094352,108151.000,18407,1,H0,1,100,7.718
1576770736.221329,108258.000,18426,1,H0,1,100,7.699
1576770736.351866,108368.000,18444,1,H0,1,100,7.668
1576770736.488336,108483.000,18462,1,H0,1,100,7.638
1576770736.618872,108593.000,18480,1,H0,1,100,7.599
1576770736.757716,108710.000,18497,1,H0,1,100,7.569
1576770736.897746,108828.000,18515,1,H0,1,100,7.535
1576770737.024722,108935.000,18549,1,H0,1,100,7.512
1576770737.154072,109044.000,18567,1,H0,1,100,7.481
1576770737.286982,109156.000,18586,1,H0,1,100,7.454
1576770737.421079,109269.000,18604,1,H0,1,100,7.405
1576770737.561109,109387.000,18622,1,H0,1,100,7.382
1576770737.688086,109494.000,18640,1,H0,1,100,7.336
1576770737.812689,109599.000,18658,1,H0,1,100,7.313
1576770737.950345,109715.000,18675,1,H0,1,100,7.271
1576770738.090375,109833.000,18693,1,H0,1,100,7.252
1576770738.223285,109945.000,18728,1,H0,1,100,7.218
1576770738.349075,110051.000,18746,1,H0,1,100,7.187
1576770738.483172,110164.000,18764,1,H0,1,100,7.149
1576770738.620829,110280.000,18782,1,H0,1,100,7.123
1576770738.758486,110396.000,18800,1,H0,1,100,7.073
1576770738.887835,110505.000,18818,1,H0,1,100,7.042
1576770739.011252,110609.000,18836,1,H0,1,100,6.997
1576770739.150095,110726.000,18853,1,H0,1,100,6.970
1576770739.285378,110840.000,18872,1,H0,1,100,6.936
1576770739.420662,110954.000,18906,1,H0,1,100,6.913
1576770739.554759,111067.000,18924,1,H0,1,100,6.863
1576770739.686482,111178.000,18942,1,H0,1,100,6.810
1576770739.824139,111294.000,18960,1,H0,1,100,6.787
1576770739.951115,111401.000,18978,1,H0,1,100,6.764
1576770740.081652,111511.000,18996,1,H0,1,100,6.745
1576770740.215748,111624.000,19014,1,H0,1,100,6.703
1576770740.356965,111743.000,19032,1,H0,1,100,6.680
1576770740.493435,111858.000,19050,1,H0,1,100,6.646
1576770740.628719,111972.000,19084,1,H0,1,100,6.611
1576770740.759255,112082.000,19102,1,H0,1,100,6.581
1576770740.887418,112190.000,19120,1,H0,1,100,6.554
1576770741.017955,112300.000,19138,1,H0,1,100,6.508
1576770741.155612,112416.000,19156,1,H0,1,100,6.508
1576770741.293268,112532.000,19175,1,H0,1,100,6.466
1576770741.416685,112636.000,19193,1,H0,1,100,6.436
1576770741.547221,112746.000,19214,1,H0,1,100,6.398
1576770741.686065,112863.000,19234,1,H0,1,100,6.352
1576770741.822535,112978.000,19252,1,H0,1,100,6.333
1576770741.955445,113090.000,19270,1,H0,1,100,6.283
1576770742.082421,113197.000,19288,1,H0,1,100,6.253
1576770742.211771,113306.000,19305,1,H0,1,100,6.222
1576770742.350615,113423.000,19324,1,H0,1,100,6.184
1576770742.488271,113539.000,19358,1,H0,1,100,6.154
1576770742.616435,113647.000,19376,1,H0,1,100,6.119
1576770742.744598,113755.000,19394,1,H0,1,100,6.070
1576770742.876321,113866.000,19412,1,H0,1,100,6.035
1576770743.011605,113980.000,19430,1,H0,1,100,6.024
1576770743.154008,114100.000,19448,1,H0,1,100,5.951
1576770743.288105,114213.000,19466,1,H0,1,100,5.909
1576770743.419828,114324.000,19484,1,H0,1,100,5.906
1576770743.556298,114439.000,19502,1,H0,1,100,5.868
1576770743.683275,114546.000,19536,1,H0,1,100,5.829
1576770743.809064,114652.000,19554,1,H0,1,100,5.780
1576770743.947908,114769.000,19572,1,H0,1,100,5.753
1576770744.079631,114880.000,19590,1,H0,1,100,5.719
1576770744.213728,114993.000,19608,1,H0,1,100,5.677
1576770744.354944,115112.000,19627,1,H0,1,100,5.654
1576770744.485481,115222.000,19645,1,H0,1,100,5.623
1576770744.608897,115326.000,19662,1,H0,1,100,5.600
1576770744.744181,115440.000,19680,1,H0,1,100,5.555
1576770744.880651,115555.000,19714,1,H0,1,100,5.513
1576770745.017121,115670.000,19732,1,H0,1,100,5.478
1576770745.144097,115777.000,19750,1,H0,1,100,5.452
1576770745.274634,115887.000,19769,1,H0,1,100,5.414
1576770745.409917,116001.000,19787,1,H0,1,100,5.383
1576770745.544014,116114.000,19805,1,H0,1,100,5.341
1576770745.680484,116229.000,19823,1,H0,1,100,5.318
1576770745.805087,116334.000,19841,1,H0,1,100,5.307
1576770745.936810,116445.000,19858,1,H0,1,100,5.257
1576770746.075654,116562.000,19876,1,H0,1,100,5.219
1576770746.213311,116678.000,19911,1,H0,1,100,5.169
1576770746.343847,116788.000,19929,1,H0,1,100,5.147
1576770746.470824,116895.000,19947,1,H0,1,100,5.112
1576770746.602547,117006.000,19965,1,H0,1,100,5.074
1576770746.741390,117123.000,19983,1,H0,1,100,5.074
1576770746.881421,117241.000,20001,1,H0,1,100,5.021
1576770747.019077,117357.000,20018,1,H0,1,100,4.986
1576770747.161481,117477.000,20052,1,H0,1,100,4.944
1576770747.295578,117590.000,20071,1,H0,1,100,4.914
1576770747.423741,117698.000,20089,1,H0,1,100,4.895
1576770747.557837,117811.000,20110,2,H0,1,100,4.860
1576770747.691934,117924.000,20110,2,H0,1,100,4.822
1576770747.821284,118033.000,20130,1,H0,1,100,4.826
1576770747.960127,118150.000,20164,1,H0,1,100,4.826
1576770748.097784,118266.000,20182,1,H0,1,100,4.811
1576770748.227134,118375.000,20201,1,H0,1,100,4.796
1576770748.355297,118483.000,20219,1,H0,1,100,4.757
1576770748.488207,118595.000,20237,1,H0,1,100,4.780
1576770748.621117,118707.000,20255,1,H0,1,100,4.826
1576770748.762334,118826.000,20272,1,H0,1,100,4.956
1576770748.889310,118933.000,20290,1,H0,1,100,5.112
1576770749.012727,119037.000,20308,1,H0,1,100,5.257
1576770749.150384,119153.000,20342,1,H0,1,100,5.292
1576770749.290414,119271.000,20361,1,H0,1,100,5.299
1576770749.424510,119384.000,20379,1,H0,1,100,5.269
1576770749.549114,119489.000,20397,1,H0,1,100,5.204
1576770749.682024,119601.000,20415,1,H0,1,100,5.120
1576770749.818494,119716.000,20433,1,H0,1,100,5.009
1576770749.956150,119832.000,20450,1,H0,1,100,4.899
1576770750.087873,119943.000,20468,1,H0,1,100,4.818
1576770750.210103,120046.000,20486,1,H0,1,100,4.754
1576770750.347760,120162.000,20521,1,H0,1,100,4.696
1576770750.481857,120275.000,20539,1,H0,1,100,4.643
1576770750.618327,120390.000,20557,1,H0,1,100,4.601
1576770750.753610,120504.000,20575,1,H0,1,100,4.559
1576770750.887707,120617.000,20593,1,H0,1,100,4.506
1576770751.025363,120733.000,20611,1,H0,1,100,4.468
1576770751.153527,120841.000,20628,1,H0,1,100,4.429
1576770751.285250,120952.000,20647,1,H0,1,100,4.406
1576770751.412226,121059.000,20665,1,H0,1,100,4.395
1576770751.546323,121172.000,20699,1,H0,1,100,4.372
1576770751.682793,121287.000,20717,1,H0,1,100,4.338
1576770751.818077,121401.000,20735,1,H0,1,100,4.315
1576770751.950987,121513.000,20753,1,H0,1,100,4.307
1576770752.077963,121620.000,20771,1,H0,1,100,4.288
1576770752.207313,121729.000,20789,1,H0,1,100,4.273
1576770752.344970,121845.000,20807,1,H0,1,100,4.246
1576770752.486187,121964.000,20825,1,H0,1,100,4.216
1576770752.609603,122068.000,20843,1,H0,1,100,4.223
1576770752.738953,122177.000,20861,1,H0,1,100,4.204
1576770752.875423,122292.000,20895,1,H0,1,100,4.201
1576770753.011893,122407.000,20913,1,H0,1,100,4.170
1576770753.147176,122521.000,20931,1,H0,1,100,4.174
1576770753.274153,122628.000,20950,1,H0,1,100,4.139
1576770753.403503,122737.000,20968,1,H0,1,100,4.147
1576770753.541159,122853.000,20986,1,H0,1,100,4.120
1576770753.677629,122968.000,21007,1,H0,1,100,4.105
1576770753.808166,123078.000,21025,1,H0,1,100,4.105
1576770753.932769,123183.000,21045,1,H0,1,100,4.090
1576770754.064492,123294.000,21063,1,H0,1,100,4.067
1576770754.200962,123409.000,21081,1,H0,1,100,4.059
1576770754.343366,123529.000,21099,1,H0,1,100,4.040
1576770754.477463,123642.000,21117,1,H0,1,100,4.040
1576770754.611559,123755.000,21151,1,H0,1,100,4.014
1576770754.746843,123869.000,21169,1,H0,1,100,3.998
1576770754.876193,123978.000,21187,1,H0,1,100,3.995
1576770755.010289,124091.000,21205,1,H0,1,100,3.960
1576770755.137266,124198.000,21223,1,H0,1,100,3.960
1576770755.268989,124309.000,21242,1,H0,1,100,3.956
1576770755.401899,124421.000,21260,1,H0,1,100,3.941
1576770755.540742,124538.000,21277,1,H0,1,100,3.930
1576770755.673652,124650.000,21295,1,H0,1,100,3.922
1576770755.797069,124754.000,21313,1,H0,1,100,3.911
1576770755.931165,124867.000,21347,1,H0,1,100,3.914
1576770756.066449,124981.000,21365,1,H0,1,100,3.895
1576770756.202919,125096.000,21384,1,H0,1,100,3.872
1576770756.332269,125205.000,21402,1,H0,1,100,3.861
1576770756.461619,125314.000,21420,1,H0,1,100,3.861
1576770756.595715,125427.000,21438,1,H0,1,100,3.846
1576770756.730999,125541.000,21455,1,H0,1,100,3.823
1576770756.869842,125658.000,21473,1,H0,1,100,3.800
1576770756.994445,125763.000,21491,1,H0,1,100,3.789
1576770757.122608,125871.000,21509,1,H0,1,100,3.769
1576770757.261452,125988.000,21544,1,H0,1,100,3.758
1576770757.397922,126103.000,21562,1,H0,1,100,3.724
1576770757.530832,126215.000,21580,1,H0,1,100,3.720
1576770757.657808,126322.000,21598,1,H0,1,100,3.712
1576770757.787158,126431.000,21616,1,H0,1,100,3.693
1576770757.926002,126548.000,21634,1,H0,1,100,3.670
1576770758.066032,126666.000,21651,1,H0,1,100,3.644
1576770758.202502,126781.000,21669,1,H0,1,100,3.624
1576770758.344905,126901.000,21704,1,H0,1,100,3.617
1576770758.480189,127015.000,21722,1,H0,1,100,3.602
1576770758.610725,127125.000,21740,1,H0,1,100,3.575
1576770758.744822,127238.000,21758,1,H0,1,100,3.571
1576770758.871799,127345.000,21776,1,H0,1,100,3.548
1576770758.998775,127452.000,21794,1,H0,1,100,3.541
1576770759.136432,127568.000,21811,1,H0,1,100,3.502
1576770759.274088,127684.000,21830,1,H0,1,100,3.483
1576770759.405812,127795.000,21864,1,H0,1,100,3.468
1576770759.533975,127903.000,21882,1,H0,1,100,3.457
1576770759.666291,128014.500,21903,2,H0,1,100,3.434
1576770759.798608,128126.000,21903,2,H0,1,100,3.415
1576770759.938638,128244.000,21923,1,H0,1,100,3.388
1576770760.067988,128353.000,21940,1,H0,1,100,3.377
1576770760.194965,128460.000,21976,1,H0,1,100,3.342
1576770760.330248,128574.000,21994,1,H0,1,100,3.346
1576770760.469091,128691.000,22012,1,H0,1,100,3.312
1576770760.604375,128805.000,22030,1,H0,1,100,3.304
1576770760.728978,128910.000,22048,1,H0,1,100,3.274
1576770760.859514,129020.000,22066,1,H0,1,100,3.243
1576770760.995985,129135.000,22083,1,H0,1,100,3.216
1576770761.133641,129251.000,22101,1,H0,1,100,3.186
1576770761.266551,129363.000,22119,1,H0,1,100,3.167
1576770761.389968,129467.000,22154,1,H0,1,100,3.132
1576770761.526438,129582.000,22172,1,H0,1,100,3.113
1576770761.660534,129695.000,22190,1,H0,1,100,3.087
1576770761.797004,129810.000,22208,1,H0,1,100,3.060
1576770761.934661,129926.000,22226,1,H0,1,100,3.045
1576770762.071131,130041.000,22244,1,H0,1,100,3.014
1576770762.208788,130157.000,22261,1,H0,1,100,2.984
1576770762.347631,130274.000,22296,1,H0,1,100,2.961
1576770762.485288,130390.000,22314,1,H0,1,100,2.930
1576770762.609891,130495.000,22332,1,H0,1,100,2.904
1576770762.742801,130607.000,22350,1,H0,1,100,2.873
1576770762.879271,130722.000,22368,1,H0,1,100,2.850
1576770763.013368,130835.000,22386,1,H0,1,100,2.812
1576770763.148651,130949.000,22404,1,H0,1,100,2.793
1576770763.275628,131056.000,22422,1,H0,1,100,2.762
1576770763.402604,131163.000,22440,1,H0,1,100,2.736
1576770763.531954,131272.000,22458,1,H0,1,100,2.713
1576770763.666051,131385.000,22492,1,H0,1,100,2.671
1576770763.800148,131498.000,22510,1,H0,1,100,2.667
1576770763.938991,131615.000,22528,1,H0,1,100,2.633
1576770764.064781,131721.000,22546,1,H0,1,100,2.617
1576770764.197691,131833.000,22564,1,H0,1,100,2.583
1576770764.331787,131946.000,22583,1,H0,1,100,2.556
1576770764.471817,132064.000,22600,1,H0,1,100,2.514
1576770764.603541,132175.000,22618,1,H0,1,100,2.511
1576770764.729331,132281.000,22636,1,H0,1,100,2.484
1576770764.864614,132395.000,22670,1,H0,1,100,2.453
1576770765.001084,132510.000,22688,1,H0,1,100,2.423
1576770765.138741,132626.000,22706,1,H0,1,100,2.385
1576770765.266904,132734.000,22725,1,H0,1,100,2.373
1576770765.390320,132838.000,22743,1,H0,1,100,2.335
1576770765.529164,132955.000,22761,1,H0,1,100,2.305
1576770765.668007,133072.000,22779,1,H0,1,100,2.282
1576770765.804477,133187.000,22798,1,H0,1,100,2.251
1576770765.946881,133307.000,22820,1,H0,1,100,2.232
1576770766.080977,133420.000,22838,1,H0,1,100,2.202
1576770766.221008,133538.000,22855,1,H0,1,100,2.160
1576770766.347984,133645.000,22874,1,H0,1,100,2.144
1576770766.478521,133755.000,22892,1,H0,1,100,2.102
1576770766.611431,133867.000,22909,1,H0,1,100,2.080
1576770766.752648,133986.000,22944,1,H0,1,100,2.053
1576770766.889118,134101.000,22962,1,H0,1,100,2.015
1576770767.026774,134217.000,22980,1,H0,1,100,1.992
1576770767.156124,134326.000,22998,1,H0,1,100,1.950
1576770767.283101,134433.000,23017,1,H0,1,100,1.904
1576770767.413637,134543.000,23034,1,H0,1,100,1.885
1576770767.551294,134659.000,23052,1,H0,1,100,1.851
1576770767.688951,134775.000,23086,1,H0,1,100,1.820
1576770767.811181,134878.000,23104,1,H0,1,100,1.790
1576770767.941717,134988.000,23122,1,H0,1,100,1.748
1576770768.080560,135105.000,23140,1,H0,1,100,1.729
1576770768.217031,135220.000,23158,1,H0,1,100,1.694
1576770768.349941,135332.000,23177,1,H0,1,100,1.645
1576770768.478104,135440.000,23195,1,H0,1,100,1.618
1576770768.608640,135550.000,23213,1,H0,1,100,1.584
1576770768.747484,135667.000,23230,1,H0,1,100,1.565
1576770768.885140,135783.000,23248,1,H0,1,100,1.515
1576770769.010930,135889.000,23282,1,H0,1,100,1.481
1576770769.140280,135998.000,23300,1,H0,1,100,1.454
1576770769.273190,136110.000,23319,1,H0,1,100,1.404
1576770769.409660,136225.000,23337,1,H0,1,100,1.389
1576770769.552064,136345.000,23355,1,H0,1,100,1.351
1576770769.690907,136462.000,23373,1,H0,1,100,1.313
1576770769.826190,136576.000,23390,1,H0,1,100,1.259
1576770769.966221,136694.000,23408,1,H0,1,100,1.233
1576770770.093197,136801.000,23442,1,H0,1,100,1.187
1576770770.227294,136914.000,23461,1,H0,1,100,1.156
1576770770.355457,137022.000,23479,1,H0,1,100,1.118
1576770770.488367,137134.000,23497,1,H0,1,100,1.065
1576770770.622464,137247.000,23515,1,H0,1,100,1.038
1576770770.763680,137366.000,23533,1,H0,1,100,1.000
1576770770.891844,137474.000,23551,1,H0,1,100,0.962
1576770771.016447,137579.000,23568,1,H0,1,100,0.912
1576770771.154104,137695.000,23586,1,H0,1,100,0.882
1576770771.292947,137812.000,23621,1,H0,1,100,0.836
1576770771.427044,137925.000,23639,1,H0,1,100,0.794
1576770771.554020,138032.000,23657,1,H0,1,100,0.752
1576770771.684557,138142.000,23675,1,H0,1,100,0.706
1576770771.819840,138256.000,23694,2,H0,1,100,0.664
1576770771.955123,138370.000,23694,2,H0,1,100,0.634
1576770772.090407,138484.000,23732,1,H0,1,100,0.599
1576770772.215010,138589.000,23751,1,H0,1,100,0.542
1576770772.351480,138704.000,23769,1,H0,1,100,0.512
1576770772.485577,138817.000,23787,1,H0,1,100,0.481
1576770772.623233,138933.000,23805,1,H0,1,100,0.439
1576770772.751397,139041.000,23823,1,H0,1,100,0.386
1576770772.878373,139148.000,23841,1,H0,1,100,0.351
1576770773.010096,139259.000,23858,1,H0,1,100,0.306
1576770773.152500,139379.000,23875,1,H0,1,100,0.252
1576770773.290157,139495.000,23911,1,H0,1,100,0.226
1576770773.424253,139608.000,23929,1,H0,1,100,0.176
1576770773.566657,139728.000,23947,1,H0,1,100,0.138
1576770773.700753,139841.000,23965,1,H0,1,100,0.092
1576770773.838410,139957.000,23982,1,H0,1,100,0.050
1576770773.973694,140071.000,24000,1,H0,1,100,0.008
1576770774.100670,140178.000,24018,1,H0,1,100,-0.034
1576770774.227647,140285.000,24036,1,H0,1,100,-0.076
1576770774.366490,140402.000,24071,1,H0,1,100,-0.114
1576770774.506520,140520.000,24089,1,H0,1,100,-0.160
1576770774.644177,140636.000,24107,1,H0,1,100,-0.209
1576770774.781834,140752.000,24125,1,H0,1,100,-0.247
1576770774.907624,140858.000,24143,1,H0,1,100,-0.278
1576770775.035787,140966.000,24160,1,H0,1,100,-0.339
1576770775.172257,141081.000,24178,1,H0,1,100,-0.373
1576770775.309913,141197.000,24213,1,H0,1,100,-0.423
1576770775.440450,141307.000,24231,1,H0,1,100,-0.453
1576770775.568613,141415.000,24249,1,H0,1,100,-0.492
1576770775.703897,141529.000,24267,1,H0,1,100,-0.541
1576770775.841553,141645.000,24285,1,H0,1,100,-0.572
1576770775.979210,141761.000,24303,1,H0,1,100,-0.625
1576770776.108560,141870.000,24321,1,H0,1,100,-0.663
1576770776.234350,141976.000,24339,1,H0,1,100,-0.686
1576770776.374380,142094.000,24357,1,H0,1,100,-0.724
1576770776.508476,142207.000,24391,1,H0,1,100,-0.762
1576770776.644947,142322.000,24409,1,H0,1,100,-0.816
1576770776.769550,142427.000,24427,1,H0,1,100,-0.846
1576770776.900086,142537.000,24445,1,H0,1,100,-0.896
1576770777.036556,142652.000,24463,1,H0,1,100,-0.938
1576770777.178960,142772.000,24481,1,H0,1,100,-0.976
1576770777.316617,142888.000,24499,1,H0,1,100,-1.010
1576770777.451900,143002.000,24517,1,H0,1,100,-1.052
1576770777.590744,143119.000,24551,1,H0,1,100,-1.083
1576770777.726027,143233.000,24569,1,H0,1,100,-1.136
1576770777.856563,143343.000,24588,2,H0,1,100,-1.155
1576770777.987100,143453.000,24588,2,H0,1,100,-1.205
1576770778.117636,143563.000,24610,1,H0,1,100,-1.247
1576770778.248173,143673.000,24628,1,H0,1,100,-1.285
1576770778.388203,143791.000,24663,1,H0,1,100,-1.327
1576770778.524673,143906.000,24681,1,H0,1,100,-1.361
1576770778.648090,144010.000,24699,1,H0,1,100,-1.403
1576770778.779813,144121.000,24717,1,H0,1,100,-1.441
1576770778.916283,144236.000,24735,1,H0,1,100,-1.487
1576770779.049193,144348.000,24753,1,H0,1,100,-1.525
1576770779.184476,144462.000,24770,1,H0,1,100,-1.552
1576770779.312639,144570.000,24789,1,H0,1,100,-1.586
1576770779.443176,144680.000,24807,1,H0,1,100,-1.625
1576770779.578460,144794.000,24841,1,H0,1,100,-1.667
1576770779.719676,144913.000,24859,1,H0,1,100,-1.705
1576770779.846653,145020.000,24877,1,H0,1,100,-1.758
1576770779.976003,145129.000,24895,1,H0,1,100,-1.773
1576770780.108913,145241.000,24913,1,H0,1,100,-1.819
1576770780.244196,145355.000,24931,1,H0,1,100,-1.869
1576770780.381853,145471.000,24949,1,H0,1,100,-1.895
1576770780.507643,145577.000,24967,1,H0,1,100,-1.945
1576770780.633432,145683.000,24985,1,H0,1,100,-1.987
1576770780.769902,145798.000,25003,1,H0,1,100,-2.014
1576770780.906373,145913.000,25037,1,H0,1,100,-2.056
1576770781.034536,146021.000,25055,1,H0,1,100,-2.090
1576770781.171006,146136.000,25073,1,H0,1,100,-2.147
1576770781.303916,146248.000,25092,1,H0,1,100,-2.185
1576770781.441572,146364.000,25110,1,H0,1,100,-2.223
1576770781.582789,146483.000,25127,1,H0,1,100,-2.262
1576770781.712139,146592.000,25145,1,H0,1,100,-2.292
1576770781.836742,146697.000,25163,1,H0,1,100,-2.353
1576770781.974399,146813.000,25197,1,H0,1,100,-2.368
1576770782.112056,146929.000,25215,1,H0,1,100,-2.414
1576770782.248526,147044.000,25234,1,H0,1,100,-2.475
1576770782.375502,147151.000,25252,1,H0,1,100,-2.506
1576770782.507226,147262.000,25270,1,H0,1,100,-2.548
1576770782.638949,147373.000,25288,1,H0,1,100,-2.593
1576770782.776606,147489.000,25305,1,H0,1,100,-2.628
1576770782.913076,147604.000,25323,1,H0,1,100,-2.674
1576770783.037679,147709.000,25341,1,H0,1,100,-2.716
1576770783.170589,147821.000,25375,1,H0,1,100,-2.746
1576770783.309432,147938.000,25394,1,H0,1,100,-2.777
1576770783.445902,148053.000,25412,1,H0,1,100,-2.822
1576770783.576439,148163.000,25430,1,H0,1,100,-2.861
1576770783.702229,148269.000,25448,1,H0,1,100,-2.906
1576770783.833952,148380.000,25466,1,H0,1,100,-2.952
1576770783.972795,148497.000,25487,1,H0,1,100,-2.975
1576770784.110452,148613.000,25507,1,H0,1,100,-3.013
1576770784.233869,148717.000,25526,1,H0,1,100,-3.063
1576770784.363218,148826.000,25544,1,H0,1,100,-3.112
1576770784.490195,148933.000,25562,1,H0,1,100,-3.150
1576770784.623105,149045.000,25580,1,H0,1,100,-3.181
1576770784.764322,149164.000,25597,1,H0,1,100,-3.238
1576770784.903165,149281.000,25615,1,H0,1,100,-3.269
1576770785.034889,149392.000,25632,1,H0,1,100,-3.322
1576770785.173732,149509.000,25667,1,H0,1,100,-3.345
1576770785.311388,149625.000,25686,1,H0,1,100,-3.402
1576770785.439552,149733.000,25704,1,H0,1,100,-3.437
1576770785.574835,149847.000,25722,1,H0,1,100,-3.475
1576770785.701812,149954.000,25740,1,H0,1,100,-3.524
1576770785.828788,150061.000,25758,1,H0,1,100,-3.574
1576770785.966445,150177.000,25775,1,H0,1,100,-3.620
1576770786.104102,150293.000,25793,1,H0,1,100,-3.654
1576770786.234638,150403.000,25828,1,H0,1,100,-3.692
1576770786.363988,150512.000,25846,1,H0,1,100,-3.742
1576770786.496898,150624.000,25864,1,H0,1,100,-3.780
1576770786.630995,150737.000,25882,1,H0,1,100,-3.822
1576770786.771025,150855.000,25900,1,H0,1,100,-3.868
1576770786.899188,150963.000,25918,1,H0,1,100,-3.913
1576770787.026165,151070.000,25936,1,H0,1,100,-3.952
1576770787.161448,151184.000,25953,1,H0,1,100,-3.997
1576770787.301478,151302.000,25972,1,H0,1,100,-4.032
1576770787.437948,151417.000,26006,1,H0,1,100,-4.066
1576770787.562551,151522.000,26024,1,H0,1,100,-4.119
1576770787.693088,151632.000,26042,1,H0,1,100,-4.154
1576770787.828371,151746.000,26060,1,H0,1,100,-4.203
1576770787.966028,151862.000,26078,1,H0,1,100,-4.245
1576770788.098938,151974.000,26096,1,H0,1,100,-4.283
1576770788.222354,152078.000,26114,1,H0,1,100,-4.333
1576770788.356451,152191.000,26133,1,H0,1,100,-4.371
1576770788.489361,152303.000,26150,1,H0,1,100,-4.421
1576770788.613964,152408.000,26168,1,H0,1,100,-4.455
1576770788.749247,152522.000,26186,1,H0,1,100,-4.508
1576770788.886904,152638.000,26220,1,H0,1,100,-4.558
1576770789.019814,152750.000,26238,1,H0,1,100,-4.589
1576770789.159844,152868.000,26256,1,H0,1,100,-4.646
1576770789.297501,152984.000,26275,1,H0,1,100,-4.688
1576770789.422104,153089.000,26293,1,H0,1,100,-4.749
1576770789.555014,153201.000,26311,1,H0,1,100,-4.783
1576770789.691484,153316.000,26328,1,H0,1,100,-4.837
1576770789.825581,153429.000,26346,1,H0,1,100,-4.875
1576770789.956711,153539.500,26383,2,H0,1,100,-4.924
1576770790.087841,153650.000,26383,2,H0,1,100,-4.947
1576770790.214817,153757.000,26403,1,H0,1,100,-4.989
1576770790.352474,153873.000,26421,1,H0,1,100,-5.043
1576770790.493691,153992.000,26439,1,H0,1,100,-5.084
1576770790.620667,154099.000,26473,1,H0,1,100,-5.119
1576770790.747644,154206.000,26491,1,H0,1,100,-5.157
1576770790.885300,154322.000,26509,1,H0,1,100,-5.187
1576770791.021770,154437.000,26527,1,H0,1,100,-5.249
1576770791.160614,154554.000,26545,1,H0,1,100,-5.283
1576770791.285217,154659.000,26564,1,H0,1,100,-5.317
1576770791.409820,154764.000,26582,1,H0,1,100,-5.367
1576770791.548664,154881.000,26599,1,H0,1,100,-5.420
1576770791.683947,154995.000,26617,1,H0,1,100,-5.451
1576770791.815670,155106.000,26634,1,H0,1,100,-5.496
1576770791.950953,155220.000,26669,1,H0,1,100,-5.538
1576770792.079117,155328.000,26687,1,H0,1,100,-5.577
1576770792.206093,155435.000,26706,1,H0,1,100,-5.641
1576770792.342563,155550.000,26724,1,H0,1,100,-5.660
1576770792.479033,155665.000,26742,1,H0,1,100,-5.718
1576770792.603637,155770.000,26760,1,H0,1,100,-5.760
1576770792.741293,155886.000,26777,1,H0,1,100,-5.805
1576770792.878950,156002.000,26795,1,H0,1,100,-5.844
1576770793.015420,156117.000,26829,1,H0,1,100,-5.882
1576770793.151890,156232.000,26847,1,H0,1,100,-5.931
1576770793.284800,156344.000,26866,1,H0,1,100,56.508
1576770793.408216,156448.000,26884,1,H0,1,100,118.969
1576770793.544687,156563.000,26902,1,H0,1,100,118.939
1576770793.679970,156677.000,26920,1,H0,1,100,118.882
1576770793.816440,156792.000,26938,1,H0,1,100,118.851
1576770793.944603,156900.000,26955,1,H0,1,100,118.794
1576770794.071579,157007.000,26973,1,H0,1,100,118.767
1576770794.202116,157117.000,26991,1,H0,1,100,118.722
1576770794.338586,157232.000,27026,1,H0,1,100,118.676
1576770794.477430,157349.000,27044,1,H0,1,100,118.634
1576770794.602033,157454.000,27062,1,H0,1,100,118.584
1576770794.732569,157564.000,27080,1,H0,1,100,118.546
1576770794.871413,157681.000,27098,1,H0,1,100,118.508
1576770795.007883,157796.000,27116,1,H0,1,100,118.474
1576770795.139606,157907.000,27134,1,H0,1,100,118.424
1576770795.266582,158014.000,27152,1,H0,1,100,118.416
1576770795.395932,158123.000,27170,1,H0,1,100,118.371
1576770795.534776,158240.000,27204,1,H0,1,100,118.344
1576770795.672433,158356.000,27222,1,H0,1,100,118.317
1576770795.798223,158462.000,27240,1,H0,1,100,118.290
1576770795.929946,158573.000,27258,1,H0,1,100,118.241
1576770796.057516,158680.500,27279,2,H0,1,100,118.199
1576770796.185085,158788.000,27279,2,H0,1,100,56.092
1576770796.316809,158899.000,27300,1,H0,1,100,56.496
1576770796.450905,159012.000,27334,1,H0,1,100,118.958
1576770796.583815,159124.000,27352,1,H0,1,100,118.901
1576770796.725032,159243.000,27370,1,H0,1,100,118.863
1576770796.862689,159359.000,27388,1,H0,1,100,118.836
1576770796.994412,159470.000,27406,1,H0,1,100,118.786
1576770797.122575,159578.000,27424,1,H0,1,100,118.725
1576770797.256672,159691.000,27442,1,H0,1,100,118.695
1576770797.390769,159804.000,27460,1,H0,1,100,118.645
1576770797.530799,159922.000,27494,1,H0,1,100,118.611
1576770797.660149,160031.000,27512,1,H0,1,100,118.561
1576770797.783565,160135.000,27530,1,H0,1,100,118.542
1576770797.921222,160251.000,27548,1,H0,1,100,118.489
1576770798.058879,160367.000,27566,1,H0,1,100,118.435
1576770798.195349,160482.000,27584,1,H0,1,100,118.409
1576770798.319952,160587.000,27603,1,H0,1,100,118.340
1576770798.451675,160698.000,27620,1,H0,1,100,118.321
1576770798.589332,160814.000,27638,1,H0,1,100,118.268
1576770798.724615,160928.000,27672,1,H0,1,100,118.237
1576770798.858712,161041.000,27690,1,H0,1,100,118.184
1576770798.982128,161145.000,27708,1,H0,1,100,118.157
1576770799.118598,161260.000,27726,1,H0,1,100,118.111
1576770799.252695,161373.000,27745,1,H0,1,100,118.096
1576770799.390352,161489.000,27763,1,H0,1,100,118.046
1576770799.518515,161597.000,27781,1,H0,1,100,117.993
1576770799.650238,161708.000,27798,1,H0,1,100,117.959
1576770799.774841,161813.000,27816,1,H0,1,100,117.917
1576770799.906564,161924.000,27834,1,H0,1,100,117.875
1576770800.037101,162034.000,27868,1,H0,1,100,117.840
1576770800.161704,162139.000,27887,1,H0,1,100,117.798
1576770800.294614,162251.000,27905,1,H0,1,100,117.741
1576770800.431084,162366.000,27923,1,H0,1,100,117.711
1576770800.565181,162479.000,27941,1,H0,1,100,117.680
1576770800.700464,162593.000,27959,1,H0,1,100,117.646
1576770800.828627,162701.000,27977,1,H0,1,100,117.589
1576770800.956791,162809.000,27995,1,H0,1,100,117.550
1576770801.095634,162926.000,28012,1,H0,1,100,117.516
1576770801.230917,163040.000,28031,1,H0,1,100,117.474
1576770801.365014,163153.000,28065,1,H0,1,100,117.451
1576770801.503858,163270.000,28083,1,H0,1,100,117.409
1576770801.629647,163376.000,28101,1,H0,1,100,117.363
1576770801.757811,163484.000,28119,1,H0,1,100,117.333
1576770801.894281,163599.000,28137,1,H0,1,100,117.299
1576770802.031937,163715.000,28155,1,H0,1,100,117.249
1576770802.163661,163826.000,28176,1,H0,1,100,117.226
1576770802.289450,163932.000,28197,1,H0,1,100,117.188
1576770802.424734,164046.000,28215,1,H0,1,100,117.146
1576770802.562391,164162.000,28233,1,H0,1,100,117.123
1576770802.702421,164280.000,28251,1,H0,1,100,117.085
1576770802.825837,164384.000,28269,1,H0,1,100,117.047
1576770802.950440,164489.000,28286,1,H0,1,100,117.013
1576770803.089284,164606.000,28304,1,H0,1,100,116.959
1576770803.224567,164720.000,28339,1,H0,1,100,116.932
1576770803.359850,164834.000,28357,1,H0,1,100,116.890
1576770803.495134,164948.000,28375,1,H0,1,100,116.852
1576770803.620924,165054.000,28393,1,H0,1,100,116.822
1576770803.745527,165159.000,28411,1,H0,1,100,116.776
1576770803.881997,165274.000,28429,1,H0,1,100,116.746
1576770804.012533,165384.000,28447,1,H0,1,100,116.700
1576770804.145443,165496.000,28464,1,H0,1,100,116.665
1576770804.285473,165614.000,28483,1,H0,1,100,116.627
1576770804.421943,165729.000,28517,1,H0,1,100,116.597
1576770804.561974,165847.000,28535,1,H0,1,100,116.551
1576770804.690137,165955.000,28553,1,H0,1,100,116.524
1576770804.820673,166065.000,28571,1,H0,1,100,116.467
1576770804.951210,166175.000,28589,1,H0,1,100,116.437
1576770805.088867,166291.000,28607,1,H0,1,100,116.383
1576770805.225337,166406.000,28626,1,H0,1,100,116.356
1576770805.348753,166510.000,28643,1,H0,1,100,116.326
1576770805.480476,166621.000,28661,1,H0,1,100,116.265
1576770805.616946,166736.000,28695,1,H0,1,100,116.238
1576770805.753417,166851.000,28713,1,H0,1,100,116.208
1576770805.885140,166962.000,28731,1,H0,1,100,116.169
1576770806.012116,167069.000,28749,1,H0,1,100,116.120
1576770806.142653,167179.000,28767,1,H0,1,100,116.078
1576770806.277936,167293.000,28786,1,H0,1,100,116.044
1576770806.419153,167412.000,28804,1,H0,1,100,116.013
1576770806.544943,167518.000,28821,1,H0,1,100,115.971
1576770806.674293,167627.000,28839,1,H0,1,100,115.922
1576770806.807203,167739.000,28857,1,H0,1,100,115.899
1576770806.943673,167854.000,28891,1,H0,1,100,115.849
1576770807.080143,167969.000,28909,1,H0,1,100,115.815
1576770807.208306,168077.000,28928,1,H0,1,100,115.773
1576770807.337656,168186.000,28946,1,H0,1,100,115.723
1576770807.472939,168300.000,28964,1,H0,1,100,115.700
1576770807.598729,168406.000,28982,1,H0,1,100,115.647
1576770807.724519,168512.000,29000,1,H0,1,100,115.613
1576770807.862175,168628.000,29017,1,H0,1,100,115.574
1576770807.996272,168741.000,29035,1,H0,1,100,115.529
1576770808.130369,168854.000,29053,1,H0,1,100,115.498
1576770808.271586,168973.000,29075,1,H0,1,100,115.452
1576770808.400936,169082.000,29095,1,H0,1,100,115.422
1576770808.525539,169187.000,29113,1,H0,1,100,115.387
1576770808.663195,169303.000,29130,1,H0,1,100,115.342
1576770808.800852,169419.000,29148,1,H0,1,100,115.307
1576770808.936136,169533.000,29182,1,H0,1,100,115.265
1576770809.063112,169640.000,29200,1,H0,1,100,115.227
1576770809.194835,169751.000,29219,1,H0,1,100,115.170
1576770809.330119,169865.000,29237,1,H0,1,100,115.140
1576770809.464215,169978.000,29255,1,H0,1,100,115.109
1576770809.598312,170091.000,29273,1,H0,1,100,115.059
1576770809.722915,170196.000,29291,1,H0,1,100,115.010
1576770809.855825,170308.000,29308,1,H0,1,100,114.983
1576770809.994668,170425.000,29326,1,H0,1,100,114.941
1576770810.131139,170540.000,29361,1,H0,1,100,114.903
1576770810.259302,170648.000,29379,1,H0,1,100,114.857
1576770810.387465,170756.000,29397,1,H0,1,100,114.808
1576770810.519188,170867.000,29415,1,H0,1,100,114.785
1576770810.658032,170984.000,29433,1,H0,1,100,114.735
1576770810.794502,171099.000,29451,1,H0,1,100,114.701
1576770810.920291,171205.000,29469,1,H0,1,100,114.655
1576770811.049641,171314.000,29486,1,H0,1,100,114.605
1576770811.178991,171423.000,29505,1,H0,1,100,114.567
1576770811.303594,171528.000,29523,1,H0,1,100,114.510
1576770811.432944,171637.000,29541,1,H0,1,100,114.483
1576770811.561107,171745.000,29575,1,H0,1,100,114.438
1576770811.689270,171853.000,29593,1,H0,1,100,114.403
1576770811.828114,171970.000,29611,1,H0,1,100,114.369
1576770811.968144,172088.000,29629,1,H0,1,100,114.323
1576770812.095121,172195.000,29647,1,H0,1,100,114.285
1576770812.225657,172305.000,29666,1,H0,1,100,114.235
1576770812.360941,172419.000,29684,1,H0,1,100,114.205
1576770812.491477,172529.000,29701,1,H0,1,100,114.159
1576770812.627947,172644.000,29719,1,H0,1,100,114.125
1576770812.765604,172760.000,29753,1,H0,1,100,114.075
1576770812.894954,172869.000,29771,1,H0,1,100,114.033
1576770813.024304,172978.000,29789,1,H0,1,100,114.018
1576770813.157214,173090.000,29808,1,H0,1,100,113.976
1576770813.296057,173207.000,29826,1,H0,1,100,113.930
1576770813.433714,173323.000,29844,1,H0,1,100,113.900
1576770813.563064,173432.000,29862,1,H0,1,100,113.858
1576770813.690040,173539.000,29879,1,H0,1,100,113.820
1576770813.825324,173653.000,29897,1,H0,1,100,113.781
1576770813.965354,173771.000,29931,1,H0,1,100,113.747
1576770814.098264,173883.000,29950,1,H0,1,100,113.705
1576770814.225834,173990.500,29971,2,H0,1,100,113.667
1576770814.353403,174098.000,29971,2,H0,1,100,113.637
1576770814.489873,174213.000,29990,1,H0,1,100,113.606
1576770814.627530,174329.000,30024,1,H0,1,100,113.545
1576770814.761627,174442.000,30042,1,H0,1,100,113.507
1576770814.899284,174558.000,30060,1,H0,1,100,113.484
1576770815.033380,174671.000,30078,1,H0,1,100,113.453
1576770815.162730,174780.000,30097,1,H0,1,100,113.408
1576770815.289707,174887.000,30115,1,H0,1,100,113.370
1576770815.424990,175001.000,30133,1,H0,1,100,113.320
1576770815.562647,175117.000,30150,1,H0,1,100,113.293
1576770815.695557,175229.000,30168,1,H0,1,100,113.255
1576770815.834400,175346.000,30202,1,H0,1,100,113.217
1576770815.972057,175462.000,30220,1,H0,1,100,113.179
1576770816.096660,175567.000,30239,1,H0,1,100,113.133
1576770816.229570,175679.000,30257,1,H0,1,100,113.110
1576770816.364853,175793.000,30275,1,H0,1,100,113.072
1576770816.498950,175906.000,30293,1,H0,1,100,113.026
1576770816.633047,176019.000,30310,1,H0,1,100,112.988
1576770816.760023,176126.000,30328,1,H0,1,100,112.958
1576770816.887000,176233.000,30346,1,H0,1,100,112.931
1576770817.024657,176349.000,30380,1,H0,1,100,112.889
1576770817.165873,176468.000,30399,1,H0,1,100,112.839
1576770817.292850,176575.000,30417,1,H0,1,100,112.813
1576770817.418640,176681.000,30435,1,H0,1,100,112.778
1576770817.556296,176797.000,30453,1,H0,1,100,112.729
1576770817.692766,176912.000,30471,1,H0,1,100,112.706
1576770817.829237,177027.000,30488,1,H0,1,100,112.671
1576770817.955026,177133.000,30506,1,H0,1,100,112.622
1576770818.079629,177238.000,30524,1,H0,1,100,112.610
1576770818.217286,177354.000,30543,1,H0,1,100,112.557
1576770818.352569,177468.000,30577,1,H0,1,100,112.515
1576770818.483106,177578.000,30595,1,H0,1,100,112.481
1576770818.619576,177693.000,30613,1,H0,1,100,112.450
1576770818.747739,177801.000,30631,1,H0,1,100,112.420
1576770818.879462,177912.000,30649,1,H0,1,100,112.378
1576770819.014746,178026.000,30667,1,H0,1,100,112.336
1576770819.141722,178133.000,30686,1,H0,1,100,112.301
1576770819.266325,178238.000,30703,1,H0,1,100,112.267
1576770819.403982,178354.000,30721,1,H0,1,100,112.237
1576770819.541639,178470.000,30755,1,H0,1,100,112.195
1576770819.678109,178585.000,30773,1,H0,1,100,112.168
1576770819.805085,178692.000,30791,1,H0,1,100,112.126
1576770819.934435,178801.000,30809,1,H0,1,100,112.092
1576770820.067345,178913.000,30827,1,H0,1,100,112.065
1576770820.205002,179029.000,30846,1,H0,1,100,112.042
1576770820.339099,179142.000,30867,1,H0,1,100,111.989
1576770820.461329,179245.000,30887,1,H0,1,100,111.943
1576770820.594239,179357.000,30905,1,H0,1,100,111.905
1576770820.733082,179474.000,30923,1,H0,1,100,111.882
1576770820.869552,179589.000,30941,1,H0,1,100,111.847
1576770820.997715,179697.000,30959,1,H0,1,100,111.809
1576770821.127065,179806.000,30978,1,H0,1,100,111.779
1576770821.259975,179918.000,30995,1,H0,1,100,111.741
1576770821.398818,180035.000,31013,1,H0,1,100,111.714
1576770821.535289,180150.000,31047,1,H0,1,100,111.683
1576770821.658705,180254.000,31065,1,H0,1,100,111.641
1576770821.791615,180366.000,31083,1,H0,1,100,111.619
1576770821.925712,180479.000,31101,1,H0,1,100,111.588
1576770822.060995,180593.000,31119,1,H0,1,100,111.535
1576770822.203398,180713.000,31138,1,H0,1,100,111.512
1576770822.344615,180832.000,31155,1,H0,1,100,111.470
1576770822.482272,180948.000,31173,1,H0,1,100,111.439
1576770822.616369,181061.000,31207,1,H0,1,100,111.393
1576770822.744532,181169.000,31225,1,H0,1,100,111.374
1576770822.871508,181276.000,31243,1,H0,1,100,111.325
1576770823.002045,181386.000,31261,1,H0,1,100,111.290
1576770823.136142,181499.000,31280,1,H0,1,100,111.275
1576770823.270238,181612.000,31298,1,H0,1,100,111.245
1576770823.410268,181730.000,31315,1,H0,1,100,111.203
1576770823.538432,181838.000,31333,1,H0,1,100,111.165
1576770823.671342,181950.000,31351,1,H0,1,100,111.138
1576770823.798318,182057.000,31369,1,H0,1,100,111.115
1576770823.931228,182169.000,31403,1,H0,1,100,111.077
1576770824.065325,182282.000,31422,1,H0,1,100,111.043
1576770824.205355,182400.000,31440,1,H0,1,100,111.012
1576770824.333518,182508.000,31458,1,H0,1,100,110.966
1576770824.458121,182613.000,31476,1,H0,1,100,110.940
1576770824.594591,182728.000,31494,1,H0,1,100,110.920
1576770824.734621,182846.000,31511,1,H0,1,100,110.882
1576770824.869905,182960.000,31529,1,H0,1,100,110.848
1576770824.994508,183065.000,31547,1,H0,1,100,110.810
1576770825.126231,183176.000,31582,1,H0,1,100,110.779
1576770825.262701,183291.000,31600,1,H0,1,100,110.753
1576770825.400358,183407.000,31618,1,H0,1,100,110.711
1576770825.533268,183519.000,31636,1,H0,1,100,110.680
1576770825.656684,183623.000,31654,1,H0,1,100,110.650
1576770825.793154,183738.000,31672,1,H0,1,100,110.619
1576770825.927251,183851.000,31689,1,H0,1,100,110.577
1576770826.063721,183966.000,31707,1,H0,1,100,110.562
1576770826.200191,184081.000,31725,1,H0,1,100,110.524
1576770826.336661,184196.000,31763,2,H0,1,100,110.505
1576770826.473131,184311.000,31763,2,H0,1,100,110.463
1576770826.603668,184421.000,31782,1,H0,1,100,110.428
1576770826.731831,184529.000,31800,1,H0,1,100,110.405
1576770826.864741,184641.000,31818,1,H0,1,100,110.371
1576770827.007144,184761.000,31852,1,H0,1,100,110.329
1576770827.143615,184876.000,31871,1,H0,1,100,110.302
1576770827.277711,184989.000,31889,1,H0,1,100,110.272
1576770827.411808,185102.000,31907,1,H0,1,100,110.245
1576770827.537598,185208.000,31925,1,H0,1,100,110.211
1576770827.665761,185316.000,31943,1,H0,1,100,110.177
1576770827.803417,185432.000,31960,1,H0,1,100,110.142
1576770827.944634,185551.000,31994,1,H0,1,100,110.119
1576770828.069237,185656.000,32013,1,H0,1,100,110.089
1576770828.197401,185764.000,32031,1,H0,1,100,110.058
1576770828.335057,185880.000,32049,1,H0,1,100,110.020
1576770828.471528,185995.000,32067,1,H0,1,100,109.978
1576770828.607998,186110.000,32085,1,H0,1,100,109.959
1576770828.734974,186217.000,32103,1,H0,1,100,109.921
1576770828.864324,186326.000,32121,1,H0,1,100,109.898
1576770829.001981,186442.000,32138,1,H0,1,100,109.860
1576770829.137264,186556.000,32156,1,H0,1,100,109.822
1576770829.268987,186667.000,32191,1,H0,1,100,109.784
1576770829.394777,186773.000,32209,1,H0,1,100,109.749
1576770829.526500,186884.000,32227,1,H0,1,100,109.730
1576770829.662970,186999.000,32245,1,H0,1,100,109.685
1576770829.805374,187119.000,32263,1,H0,1,100,109.650
1576770829.944217,187236.000,32281,1,H0,1,100,109.616
1576770830.080688,187351.000,32298,1,H0,1,100,109.578
1576770830.219531,187468.000,32317,1,H0,1,100,109.547
1576770830.348881,187577.000,32351,1,H0,1,100,109.517
1576770830.486537,187693.000,32369,1,H0,1,100,109.479
1576770830.613514,187800.000,32387,1,H0,1,100,109.448
1576770830.745237,187911.000,32405,1,H0,1,100,109.402
1576770830.878147,188023.000,32423,1,H0,1,100,109.376
1576770831.018178,188141.000,32441,1,H0,1,100,109.345
1576770831.152274,188254.000,32459,1,H0,1,100,109.314
1576770831.275691,188358.000,32477,1,H0,1,100,109.280
1576770831.409787,188471.000,32495,1,H0,1,100,109.238
1576770831.546257,188586.000,32529,1,H0,1,100,109.215
1576770831.679167,188698.000,32547,1,H0,1,100,109.166
1576770831.809704,188808.000,32565,1,H0,1,100,109.143
1576770831.940240,188918.000,32583,1,H0,1,100,109.101
1576770832.073150,189030.000,32601,1,H0,1,100,109.067
1576770832.208434,189144.000,32620,1,H0,1,100,109.028
1576770832.348464,189262.000,32638,1,H0,1,100,109.002
1576770832.473067,189367.000,32659,1,H0,1,100,108.967
1576770832.605977,189479.000,32679,1,H0,1,100,108.933
1576770832.741260,189593.000,32697,1,H0,1,100,108.902
1576770832.877730,189708.000,32715,1,H0,1,100,108.868
1576770833.011827,189821.000,32733,1,H0,1,100,108.834
1576770833.138803,189928.000,32751,1,H0,1,100,108.796
1576770833.266967,190036.000,32769,1,H0,1,100,108.765
1576770833.405810,190153.000,32787,1,H0,1,100,108.719
1576770833.545840,190271.000,32821,1,H0,1,100,108.708
1576770833.682310,190386.000,32839,1,H0,1,100,108.674
1576770833.824714,190506.000,32857,1,H0,1,100,108.624
1576770833.963557,190623.000,32875,1,H0,1,100,108.594
1576770834.100027,190738.000,32892,1,H0,1,100,108.552
1576770834.240057,190856.000,32911,1,H0,1,100,108.521
1576770834.367034,190963.000,32929,1,H0,1,100,108.494
1576770834.492824,191069.000,32963,1,H0,1,100,108.456
1576770834.630481,191185.000,32981,1,H0,1,100,108.426
1576770834.764577,191298.000,32999,1,H0,1,100,108.388
1576770834.898674,191411.000,33017,1,H0,1,100,108.361
1576770835.039891,191530.000,33035,1,H0,1,100,108.330
1576770835.168054,191638.000,33054,1,H0,1,100,108.292
1576770835.292657,191743.000,33071,1,H0,1,100,108.243
1576770835.429127,191858.000,33089,1,H0,1,100,108.216
1576770835.566784,191974.000,33123,1,H0,1,100,108.197
1576770835.700881,192087.000,33141,1,H0,1,100,108.143
1576770835.827857,192194.000,33159,1,H0,1,100,108.117
1576770835.959580,192305.000,33177,1,H0,1,100,108.079
1576770836.097237,192421.000,33195,1,H0,1,100,108.044
1576770836.232520,192535.000,33214,1,H0,1,100,108.021
1576770836.366617,192648.000,33232,1,H0,1,100,107.983
1576770836.491220,192753.000,33249,1,H0,1,100,107.960
1576770836.627690,192868.000,33267,1,H0,1,100,107.934
1576770836.761787,192981.000,33285,1,H0,1,100,107.895
1576770836.899444,193097.000,33319,1,H0,1,100,107.865
1576770837.026420,193204.000,33337,1,H0,1,100,107.834
1576770837.154583,193312.000,33356,1,H0,1,100,107.785
1576770837.286306,193423.000,33374,1,H0,1,100,107.762
1576770837.428710,193543.000,33392,1,H0,1,100,107.731
1576770837.566367,193659.000,33410,1,H0,1,100,107.705
1576770837.700464,193772.000,33427,1,H0,1,100,107.670
1576770837.842867,193892.000,33445,1,H0,1,100,107.640
1576770837.976964,194005.000,33479,1,H0,1,100,107.609
1576770838.113434,194120.000,33498,1,H0,1,100,107.583
1576770838.247530,194233.000,33516,1,H0,1,100,107.544
1576770838.375694,194341.000,33534,1,H0,1,100,107.518
1576770838.503857,194449.000,33555,1,H0,1,100,107.476
1576770838.642700,194566.000,33573,1,H0,1,100,107.457
1576770838.783917,194685.000,33591,1,H0,1,100,107.422
1576770838.921574,194801.000,33611,1,H0,1,100,107.396
1576770839.059231,194917.000,33629,1,H0,1,100,107.369
1576770839.185020,195023.000,33648,1,H0,1,100,107.335
1576770839.313184,195131.000,33666,1,H0,1,100,107.308
1576770839.449654,195246.000,33683,1,H0,1,100,107.277
1576770839.587310,195362.000,33701,1,H0,1,100,107.251
1576770839.720220,195474.000,33735,1,H0,1,100,107.205
1576770839.846010,195580.000,33753,1,H0,1,100,107.186
1576770839.982480,195695.000,33771,1,H0,1,100,107.159
1576770840.120137,195811.000,33789,1,H0,1,100,107.121
1576770840.257794,195927.000,33808,1,H0,1,100,107.094
1576770840.385957,196035.000,33826,1,H0,1,100,107.079
1576770840.512933,196142.000,33844,1,H0,1,100,107.049
1576770840.652963,196260.000,33861,1,H0,1,100,107.007
1576770840.788247,196374.000,33879,1,H0,1,100,106.988
1576770840.923530,196488.000,33913,1,H0,1,100,106.957
1576770841.048133,196593.000,33931,1,H0,1,100,106.926
1576770841.182230,196706.000,33950,1,H0,1,100,106.896
1576770841.306833,196811.000,33968,1,H0,1,100,106.862
1576770841.446863,196929.000,33986,1,H0,1,100,106.827
1576770841.585707,197046.000,34004,1,H0,1,100,106.808
1576770841.722177,197161.000,34021,1,H0,1,100,106.782
1576770841.862207,197279.000,34039,1,H0,1,100,106.755
1576770841.996304,197392.000,34073,1,H0,1,100,106.724
1576770842.137520,197511.000,34092,1,H0,1,100,106.686
1576770842.265683,197619.000,34110,1,H0,1,100,106.663
1576770842.396220,197729.000,34128,1,H0,1,100,106.633
1576770842.527943,197840.000,34146,1,H0,1,100,106.598
1576770842.665600,197956.000,34164,1,H0,1,100,106.579
1576770842.800884,198070.000,34181,1,H0,1,100,106.537
1576770842.924300,198174.000,34199,1,H0,1,100,106.511
1576770843.056023,198285.000,34217,1,H0,1,100,106.488
1576770843.192493,198400.000,34252,1,H0,1,100,106.461
1576770843.325403,198512.000,34270,1,H0,1,100,106.431
1576770843.459500,198625.000,34288,1,H0,1,100,106.404
1576770843.587663,198733.000,34306,1,H0,1,100,106.370
1576770843.720573,198845.000,34324,1,H0,1,100,106.350
1576770843.855856,198959.000,34342,1,H0,1,100,106.324
1576770843.997073,199078.000,34359,1,H0,1,100,106.293
1576770844.122863,199184.000,34377,1,H0,1,100,106.267
1576770844.252213,199293.000,34396,1,H0,1,100,106.228
1576770844.385123,199405.000,34414,1,H0,1,100,106.213
1576770844.521593,199520.000,34451,2,H0,1,100,106.171
1576770844.658063,199635.000,34451,2,H0,1,100,106.156
1576770844.783853,199741.000,34468,1,H0,1,100,106.122
1576770844.914389,199851.000,34488,1,H0,1,100,106.103
1576770845.050859,199966.000,34506,1,H0,1,100,106.072
1576770845.189703,200083.000,34541,1,H0,1,100,106.038
1576770845.317866,200191.000,34559,1,H0,1,100,106.019
1576770845.454336,200306.000,34577,1,H0,1,100,105.992
1576770845.590806,200421.000,34595,1,H0,1,100,105.969
1576770845.724903,200534.000,34613,1,H0,1,100,105.946
1576770845.866120,200653.000,34630,1,H0,1,100,105.908
1576770845.995470,200762.000,34648,1,H0,1,100,105.877
1576770846.121259,200868.000,34666,1,H0,1,100,105.870
1576770846.260103,200985.000,34701,1,H0,1,100,105.843
1576770846.391826,201096.000,34719,1,H0,1,100,105.813
1576770846.525923,201209.000,34737,1,H0,1,100,105.782
1576770846.665953,201327.000,34755,1,H0,1,100,105.759
1576770846.796489,201437.000,34773,1,H0,1,100,105.748
1576770846.919906,201541.000,34791,1,H0,1,100,105.721
1576770847.055189,201655.000,34808,1,H0,1,100,105.687
1576770847.192846,201771.000,34827,1,H0,1,100,105.671
1576770847.330503,201887.000,34845,1,H0,1,100,105.649
1576770847.455106,201992.000,34879,1,H0,1,100,105.626
1576770847.585642,202102.000,34897,1,H0,1,100,105.595
1576770847.720926,202216.000,34915,1,H0,1,100,105.580
1576770847.856209,202330.000,34933,1,H0,1,100,105.561
1576770847.993866,202446.000,34951,1,H0,1,100,105.534
1576770848.117282,202550.000,34969,1,H0,1,100,105.492
1576770848.252566,202664.000,34988,1,H0,1,100,105.469
1576770848.386662,202777.000,35005,1,H0,1,100,105.454
1576770848.523132,202892.000,35023,1,H0,1,100,105.416
1576770848.653669,203002.000,35057,1,H0,1,100,105.397
1576770848.783019,203111.000,35075,1,H0,1,100,105.385
1576770848.907622,203216.000,35093,1,H0,1,100,105.355
1576770849.036972,203325.000,35111,1,H0,1,100,105.340
1576770849.165135,203433.000,35130,1,H0,1,100,105.317
1576770849.296858,203544.000,35148,1,H0,1,100,105.290
1576770849.438075,203663.000,35166,1,H0,1,100,105.275
1576770849.573358,203777.000,35184,1,H0,1,100,105.252
1576770849.707455,203890.000,35201,1,H0,1,100,105.229
1576770849.845112,204006.000,35219,1,H0,1,100,105.206
1576770849.972088,204113.000,35253,1,H0,1,100,105.176
1576770850.100251,204221.000,35272,1,H0,1,100,105.153
1576770850.237908,204337.000,35290,1,H0,1,100,105.126
1576770850.376752,204454.000,35308,1,H0,1,100,105.118
1576770850.504915,204562.000,35326,1,H0,1,100,105.092
1576770850.633078,204670.000,35347,1,H0,1,100,105.053
1576770850.767175,204783.000,35365,1,H0,1,100,105.031
1576770850.904831,204899.000,35385,1,H0,1,100,105.004
1576770851.042488,205015.000,35403,1,H0,1,100,104.989
1576770851.170651,205123.000,35422,1,H0,1,100,104.981
1576770851.297628,205230.000,35440,1,H0,1,100,104.958
1576770851.432911,205344.000,35458,1,H0,1,100,104.931
1576770851.572941,205462.000,35475,1,H0,1,100,104.901
1576770851.707038,205575.000,35493,1,H0,1,100,104.882
1576770851.831641,205680.000,35511,1,H0,1,100,104.863
1576770851.962178,205790.000,35545,1,H0,1,100,104.844
1576770852.098648,205905.000,35564,1,H0,1,100,104.817
1576770852.236305,206021.000,35582,1,H0,1,100,104.794
1576770852.369215,206133.000,35600,1,H0,1,100,104.783
1576770852.509245,206251.000,35618,1,H0,1,100,104.764
1576770852.644528,206365.000,35635,1,H0,1,100,104.725
1576770852.772691,206473.000,35653,1,H0,1,100,104.710
1576770852.899668,206580.000,35671,1,H0,1,100,104.691
1576770853.033764,206693.000,35705,1,H0,1,100,104.664
1576770853.164301,206803.000,35724,1,H0,1,100,104.638
1576770853.296024,206914.000,35742,1,H0,1,100,104.626
1576770853.437241,207033.000,35760,1,H0,1,100,104.596
1576770853.572524,207147.000,35778,1,H0,1,100,104.577
1576770853.707808,207261.000,35796,1,H0,1,100,104.542
1576770853.839531,207372.000,35813,1,H0,1,100,104.535
1576770853.967694,207480.000,35831,1,H0,1,100,104.516
1576770854.098231,207590.000,35849,1,H0,1,100,104.500
1576770854.235888,207706.000,35884,1,H0,1,100,104.474
1576770854.375918,207824.000,35902,1,H0,1,100,104.443
1576770854.498147,207927.000,35920,1,H0,1,100,104.420
1576770854.628684,208037.000,35938,1,H0,1,100,104.405
1576770854.763967,208151.000,35956,1,H0,1,100,104.390
1576770854.900437,208266.000,35974,1,H0,1,100,104.359
1576770855.034534,208379.000,35992,1,H0,1,100,104.344
1576770855.161510,208486.000,36010,1,H0,1,100,104.329
1576770855.290860,208595.000,36028,1,H0,1,100,104.294
1576770855.426144,208709.000,36046,1,H0,1,100,104.283
1576770855.567361,208828.000,36080,1,H0,1,100,104.256
1576770855.695524,208936.000,36098,1,H0,1,100,104.249
1576770855.820127,209041.000,36116,1,H0,1,100,104.214
1576770855.951850,209152.000,36134,1,H0,1,100,104.195
1576770856.087134,209266.000,36152,1,H0,1,100,104.168
1576770856.225977,209383.000,36171,1,H0,1,100,104.149
1576770856.354140,209491.000,36188,1,H0,1,100,104.126
1576770856.485863,209602.000,36206,1,H0,1,100,104.111
1576770856.622334,209717.000,36224,1,H0,1,100,104.092
1576770856.749310,209824.000,36245,1,H0,1,100,104.073
1576770856.881033,209935.000,36265,1,H0,1,100,104.035
1576770857.008010,210042.000,36283,1,H0,1,100,104.031
1576770857.139733,210153.000,36302,1,H0,1,100,104.004
1576770857.273830,210266.000,36319,1,H0,1,100,103.974
1576770857.413860,210384.000,36337,1,H0,1,100,103.951
1576770857.546770,210496.000,36371,1,H0,1,100,103.936
1576770857.685613,210613.000,36389,1,H0,1,100,103.924
1576770857.812590,210720.000,36407,1,H0,1,100,103.909
1576770857.941940,210829.000,36425,1,H0,1,100,103.882
1576770858.074850,210941.000,36443,1,H0,1,100,103.867
1576770858.212506,211057.000,36462,1,H0,1,100,103.844
1576770858.346603,211170.000,36480,1,H0,1,100,103.825
1576770858.470019,211274.000,36497,1,H0,1,100,103.795
1576770858.604116,211387.000,36515,1,H0,1,100,103.779
1576770858.742959,211504.000,36549,1,H0,1,100,103.768
1576770858.879430,211619.000,36567,1,H0,1,100,103.734
1576770859.007593,211727.000,36585,1,H0,1,100,103.703
1576770859.136943,211836.000,36604,1,H0,1,100,103.695
1576770859.269853,211948.000,36622,1,H0,1,100,103.673
1576770859.408696,212065.000,36640,1,H0,1,100,103.650
1576770859.546353,212181.000,36657,1,H0,1,100,103.634
1576770859.669769,212285.000,36675,1,H0,1,100,103.612
1576770859.801492,212396.000,36693,1,H0,1,100,103.596
1576770859.935589,212509.000,36710,1,H0,1,100,103.577
1576770860.070873,212623.000,36746,1,H0,1,100,103.562
1576770860.213276,212743.000,36764,1,H0,1,100,103.524
1576770860.353306,212861.000,36782,1,H0,1,100,103.528
1576770860.490963,212977.000,36800,1,H0,1,100,103.501
1576770860.627433,213092.000,36817,1,H0,1,100,103.482
1576770860.755596,213200.000,36835,1,H0,1,100,103.467
1576770860.886133,213310.000,36853,1,H0,1,100,103.451
1576770861.016669,213420.000,36887,1,H0,1,100,103.417
1576770861.150766,213533.000,36906,1,H0,1,100,103.409
1576770861.283676,213645.000,36924,1,H0,1,100,103.375
1576770861.423706,213763.000,36942,1,H0,1,100,103.375
1576770861.550683,213870.000,36960,1,H0,1,100,103.348
1576770861.676472,213976.000,36978,1,H0,1,100,103.341
1576770861.814129,214092.000,36996,1,H0,1,100,103.314
1576770861.951786,214208.000,37013,1,H0,1,100,103.295
1576770862.082322,214318.000,37031,1,H0,1,100,103.276
1576770862.209299,214425.000,37050,1,H0,1,100,103.257
1576770862.343396,214538.000,37084,1,H0,1,100,103.230
1576770862.481052,214654.000,37102,1,H0,1,100,103.215
1576770862.617522,214769.000,37120,1,H0,1,100,103.211
1576770862.745686,214877.000,37141,2,H0,1,100,103.188
1576770862.873849,214985.000,37141,2,H0,1,100,103.173
1576770863.012692,215102.000,37177,1,H0,1,100,103.161
1576770863.149162,215217.000,37196,1,H0,1,100,103.142
1576770863.288006,215334.000,37214,1,H0,1,100,103.131
1576770863.412609,215439.000,37232,1,H0,1,100,103.104
1576770863.541959,215548.000,37250,1,H0,1,100,103.093
1576770863.676055,215661.000,37268,1,H0,1,100,103.066
1576770863.817272,215780.000,37285,1,H0,1,100,103.055
1576770863.954929,215896.000,37303,1,H0,1,100,103.035
1576770864.089026,216009.000,37338,1,H0,1,100,103.016
1576770864.226682,216125.000,37356,1,H0,1,100,103.005
1576770864.361966,216239.000,37374,1,H0,1,100,102.997
1576770864.500809,216356.000,37392,1,H0,1,100,102.963
1576770864.632533,216467.000,37410,1,H0,1,100,102.963
1576770864.760696,216575.000,37428,1,H0,1,100,102.932
1576770864.891232,216685.000,37445,1,H0,1,100,102.917
1576770865.033636,216805.000,37463,1,H0,1,100,102.910
1576770865.170106,216920.000,37498,1,H0,1,100,102.879
1576770865.304203,217033.000,37516,1,H0,1,100,102.871
1576770865.439486,217147.000,37534,1,H0,1,100,102.856
1576770865.565276,217253.000,37552,1,H0,1,100,102.841
1576770865.694626,217362.000,37570,1,H0,1,100,102.829
1576770865.832282,217478.000,37588,1,H0,1,100,102.814
1576770865.973499,217597.000,37605,1,H0,1,100,102.799
1576770866.098102,217702.000,37623,1,H0,1,100,102.780
1576770866.227452,217811.000,37642,1,H0,1,100,102.768
1576770866.365109,217927.000,37676,1,H0,1,100,102.749
1576770866.501579,218042.000,37694,1,H0,1,100,102.742
1576770866.638049,218157.000,37712,1,H0,1,100,102.723
1576770866.763839,218263.000,37730,1,H0,1,100,102.704
1576770866.893189,218372.000,37748,1,H0,1,100,102.700
1576770867.032032,218489.000,37766,1,H0,1,100,102.685
1576770867.167315,218603.000,37784,1,H0,1,100,102.658
1576770867.299039,218714.000,37802,1,H0,1,100,102.654
1576770867.424829,218820.000,37820,1,H0,1,100,102.631
1576770867.555365,218930.000,37854,1,H0,1,100,102.620
1576770867.691835,219045.000,37872,1,H0,1,100,102.612
1576770867.834239,219165.000,37890,1,H0,1,100,102.578
1576770867.973082,219282.000,37908,1,H0,1,100,102.570
1576770868.109552,219397.000,37926,1,H0,1,100,102.551
1576770868.251956,219517.000,37944,1,H0,1,100,102.543
1576770868.388426,219632.000,37962,1,H0,1,100,102.521
1576770868.523709,219746.000,37996,1,H0,1,100,102.501
1576770868.650686,219853.000,38014,1,H0,1,100,102.490
1576770868.782409,219964.000,38035,2,H0,1,100,102.479
1576770868.914132,220075.000,38035,2,H0,1,100,102.456
1576770869.054162,220193.000,38055,1,H0,1,100,102.437
1576770869.189446,220307.000,38090,1,H0,1,100,102.425
1576770869.329476,220425.000,38108,1,H0,1,100,102.421
1576770869.457639,220533.000,38126,1,H0,1,100,102.406
1576770869.584615,220640.000,38144,1,H0,1,100,102.383
1576770869.715152,220750.000,38162,1,H0,1,100,102.376
1576770869.851622,220865.000,38180,1,H0,1,100,102.356
1576770869.988092,220980.000,38198,1,H0,1,100,102.345
1576770870.113882,221086.000,38215,1,H0,1,100,102.330
1576770870.244419,221196.000,38234,1,H0,1,100,102.315
1576770870.383262,221313.000,38268,1,H0,1,100,102.295
1576770870.519732,221428.000,38286,1,H0,1,100,102.288
1576770870.651455,221539.000,38304,1,H0,1,100,102.269
1576770870.778432,221646.000,38322,1,H0,1,100,102.257
1576770870.912529,221759.000,38340,1,H0,1,100,102.246
1576770871.051372,221876.000,38358,1,H0,1,100,102.238
1576770871.187842,221991.000,38376,1,H0,1,100,102.219
1576770871.313632,222097.000,38394,1,H0,1,100,102.208
1576770871.441795,222205.000,38412,1,H0,1,100,102.189
1576770871.579452,222321.000,38446,1,H0,1,100,102.173
1576770871.709988,222431.000,38464,1,H0,1,100,102.170
1576770871.848832,222548.000,38482,1,H0,1,100,102.154
1576770871.986489,222664.000,38500,1,H0,1,100,102.139
1576770872.119399,222776.000,38518,1,H0,1,100,102.124
1576770872.261802,222896.000,38536,1,H0,1,100,102.109
1576770872.399459,223012.000,38554,1,H0,1,100,102.093
1576770872.531182,223123.000,38572,1,H0,1,100,102.078
1576770872.659345,223231.000,38606,1,H0,1,100,102.074
1576770872.793442,223344.000,38624,1,H0,1,100,102.067
1576770872.927539,223457.000,38642,1,H0,1,100,102.051
1576770873.068755,223576.000,38660,1,H0,1,100,102.028
1576770873.196918,223684.000,38679,1,H0,1,100,102.017
1576770873.321522,223789.000,38697,1,H0,1,100,102.009
1576770873.459178,223905.000,38714,1,H0,1,100,101.998
1576770873.598022,224022.000,38732,1,H0,1,100,101.979
1576770873.734492,224137.000,38766,1,H0,1,100,101.971
1576770873.859095,224242.000,38784,1,H0,1,100,101.971
1576770873.990818,224353.000,38802,1,H0,1,100,101.956
1576770874.128475,224469.000,38821,1,H0,1,100,101.937
1576770874.263758,224583.000,38839,1,H0,1,100,101.918
1576770874.397855,224696.000,38857,1,H0,1,100,101.914
1576770874.520085,224799.000,38875,1,H0,1,100,101.899
1576770874.655368,224913.000,38893,1,H0,1,100,101.887
1576770874.789465,225026.000,38910,1,H0,1,100,101.872
1576770874.927122,225142.000,38931,1,H0,1,100,101.864
1576770875.055285,225250.000,38951,1,H0,1,100,101.849
1576770875.187008,225361.000,38970,1,H0,1,100,101.849
1576770875.311611,225466.000,38988,1,H0,1,100,101.830
1576770875.443334,225577.000,39006,1,H0,1,100,101.819
1576770875.569124,225683.000,39023,1,H0,1,100,101.819
1576770875.705594,225798.000,39041,1,H0,1,100,101.788
1576770875.847998,225918.000,39075,1,H0,1,100,101.792
1576770875.984468,226033.000,39093,1,H0,1,100,101.773
1576770876.117378,226145.000,39112,1,H0,1,100,101.761
1576770876.260968,226266.000,39130,1,H0,1,100,101.765
1576770876.400998,226384.000,39148,1,H0,1,100,101.750
1576770876.525601,226489.000,39166,1,H0,1,100,101.742
1576770876.654951,226598.000,39183,1,H0,1,100,101.712
1576770876.790235,226712.000,39201,1,H0,1,100,101.716
1576770876.924331,226825.000,39235,1,H0,1,100,101.697
1576770877.063175,226942.000,39253,1,H0,1,100,101.677
1576770877.190151,227049.000,39272,1,H0,1,100,101.674
1576770877.315941,227155.000,39290,1,H0,1,100,101.666
1576770877.453598,227271.000,39308,1,H0,1,100,101.666
1576770877.592441,227388.000,39326,1,H0,1,100,101.651
1576770877.722978,227498.000,39344,1,H0,1,100,101.639
1576770877.847581,227603.000,39361,1,H0,1,100,101.628
1576770877.982864,227717.000,39379,1,H0,1,100,101.620
1576770878.120521,227833.000,39414,1,H0,1,100,101.597
1576770878.260551,227951.000,39432,1,H0,1,100,101.597
1576770878.387527,228058.000,39450,1,H0,1,100,101.578
1576770878.510944,228162.000,39468,1,H0,1,100,101.563
1576770878.649787,228279.000,39486,1,H0,1,100,101.563
1576770878.785071,228393.000,39504,1,H0,1,100,101.544
1576770878.920354,228507.000,39522,1,H0,1,100,101.533
1576770879.055637,228621.000,39539,1,H0,1,100,101.529
1576770879.186174,228731.000,39557,1,H0,1,100,101.529
1576770879.311964,228837.000,39576,1,H0,1,100,101.513
1576770879.448434,228952.000,39610,1,H0,1,100,101.517
1576770879.582530,229065.000,39628,1,H0,1,100,101.502
1576770879.705947,229169.000,39646,1,H0,1,100,101.483
1576770879.842417,229284.000,39664,1,H0,1,100,101.479
1576770879.978887,229399.000,39682,1,H0,1,100,101.468
1576770880.117731,229516.000,39700,1,H0,1,100,101.464
1576770880.255387,229632.000,39718,1,H0,1,100,101.452
1576770880.390671,229746.000,39736,1,H0,1,100,101.433
1576770880.515274,229851.000,39753,1,H0,1,100,101.437
1576770880.650557,229965.000,39788,1,H0,1,100,101.418
1576770880.785841,230079.000,39806,1,H0,1,100,101.418
1576770880.918751,230191.000,39825,2,H0,1,100,101.407
1576770881.051660,230303.000,39825,2,H0,1,100,101.391
1576770881.177450,230409.000,39846,1,H0,1,100,101.391
1576770881.307987,230519.000,39880,1,H0,1,100,101.380
1576770881.445643,230635.000,39898,1,H0,1,100,101.372
1576770881.588047,230755.000,39916,1,H0,1,100,101.365
1576770881.712650,230860.000,39934,1,H0,1,100,101.349
1576770881.839627,230967.000,39952,1,H0,1,100,101.334
1576770881.977283,231083.000,39970,1,H0,1,100,101.334
1576770882.113754,231198.000,39987,1,H0,1,100,101.330
1576770882.247850,231311.000,40006,1,H0,1,100,101.330
1576770882.373640,231417.000,40024,1,H0,1,100,101.315
1576770882.500616,231524.000,40042,1,H0,1,100,101.311
1576770882.639460,231641.000,40076,1,H0,1,100,101.300
1576770882.775930,231756.000,40094,1,H0,1,100,101.296
1576770882.904093,231864.000,40112,1,H0,1,100,101.288
1576770883.039376,231978.000,40130,1,H0,1,100,101.269
1576770883.167540,232086.000,40149,1,H0,1,100,101.273
1576770883.298076,232196.000,40167,1,H0,1,100,101.262
1576770883.434546,232311.000,40184,1,H0,1,100,101.254
1576770883.560336,232417.000,40202,1,H0,1,100,101.239
1576770883.686126,232523.000,40220,1,H0,1,100,101.235
1576770883.823783,232639.000,40254,1,H0,1,100,101.227
1576770883.961439,232755.000,40272,1,H0,1,100,101.220
1576770884.096723,232869.000,40291,1,H0,1,100,101.216
1576770884.234380,232985.000,40309,1,H0,1,100,101.208
1576770884.363729,233094.000,40327,1,H0,1,100,101.197
1576770884.488333,233199.000,40345,1,H0,1,100,101.189
1576770884.625989,233315.000,40362,1,H0,1,100,101.178
1576770884.762459,233430.000,40380,1,H0,1,100,101.170
1576770884.897743,233544.000,40398,1,H0,1,100,101.166
1576770885.024719,233651.000,40432,1,H0,1,100,101.159
1576770885.154069,233760.000,40451,1,H0,1,100,101.147
1576770885.290539,233875.000,40469,1,H0,1,100,101.136
1576770885.424636,233988.000,40487,1,H0,1,100,101.128
1576770885.559919,234102.000,40505,1,H0,1,100,101.124
1576770885.684522,234207.000,40523,1,H0,1,100,101.117
1576770885.817432,234319.000,40541,1,H0,1,100,101.105
1576770885.956275,234436.000,40558,1,H0,1,100,101.086
1576770886.093932,234552.000,40576,1,H0,1,100,101.090
1576770886.223282,234661.000,40611,1,H0,1,100,101.090
1576770886.350259,234768.000,40629,1,H0,1,100,101.079
1576770886.481982,234879.000,40647,1,H0,1,100,101.075
1576770886.620826,234996.000,40665,1,H0,1,100,101.059
1576770886.759669,235113.000,40683,1,H0,1,100,101.044
1576770886.897326,235229.000,40701,1,H0,1,100,101.048
1576770887.040916,235350.000,40722,1,H0,1,100,101.033
1576770887.175013,235463.000,40743,1,H0,1,100,101.033
1576770887.300802,235569.000,40761,1,H0,1,100,101.033
1576770887.431339,235679.000,40779,1,H0,1,100,101.021
1576770887.559502,235787.000,40797,1,H0,1,100,101.002
1576770887.686479,235894.000,40815,1,H0,1,100,101.014
1576770887.825322,236011.000,40832,1,H0,1,100,100.995
1576770887.964165,236128.000,40866,1,H0,1,100,100.987
1576770888.092329,236236.000,40885,1,H0,1,100,100.983
1576770888.228799,236351.000,40903,1,H0,1,100,100.972
1576770888.355775,236458.000,40921,1,H0,1,100,100.972
1576770888.482752,236565.000,40939,1,H0,1,100,100.960
1576770888.619222,236680.000,40957,1,H0,1,100,100.953
1576770888.756878,236796.000,40975,1,H0,1,100,100.949
1576770888.887415,236906.000,40993,1,H0,1,100,100.941
1576770889.016765,237015.000,41010,1,H0,1,100,100.930
1576770889.150862,237128.000,41029,1,H0,1,100,100.926
1576770889.288518,237244.000,41063,1,H0,1,100,100.926
1576770889.424989,237359.000,41081,1,H0,1,100,100.915
1576770889.554338,237468.000,41099,1,H0,1,100,100.899
1576770889.681315,237575.000,41117,1,H0,1,100,100.895
1576770889.820158,237692.000,41135,1,H0,1,100,100.899
1576770889.956628,237807.000,41153,1,H0,1,100,100.888
1576770890.093098,237922.000,41170,1,H0,1,100,100.884
1576770890.217701,238027.000,41189,1,H0,1,100,100.876
1576770890.347051,238136.000,41207,1,H0,1,100,100.869
1576770890.482335,238250.000,41241,1,H0,1,100,100.865
1576770890.624738,238370.000,41259,1,H0,1,100,100.861
1576770890.757648,238482.000,41277,1,H0,1,100,100.853
1576770890.896492,238599.000,41295,1,H0,1,100,100.838
1576770891.031775,238713.000,41313,1,H0,1,100,100.831
1576770891.168245,238828.000,41331,1,H0,1,100,100.823
1576770891.307089,238945.000,41349,1,H0,1,100,100.819
1576770891.436438,239054.000,41367,1,H0,1,100,100.812
1576770891.565788,239163.000,41401,1,H0,1,100,100.819
1576770891.696325,239273.000,41419,1,H0,1,100,100.796
1576770891.836355,239391.000,41437,1,H0,1,100,100.800
1576770891.975199,239508.000,41455,1,H0,1,100,100.789
1576770892.098615,239612.000,41473,1,H0,1,100,100.789
1576770892.229151,239722.000,41492,1,H0,1,100,100.777
1576770892.365622,239837.000,41510,1,H0,1,100,100.773
1576770892.498531,239949.000,41527,1,H0,1,100,100.766
1576770892.633815,240063.000,41545,1,H0,1,100,100.754
1576770892.760791,240170.000,41579,1,H0,1,100,100.754
1576770892.891328,240280.000,41597,1,H0,1,100,100.743
1576770893.029578,240396.500,41618,2,H0,1,100,100.747
1576770893.167828,240513.000,41618,2,H0,1,100,100.735
1576770893.295991,240621.000,41639,1,H0,1,100,100.720
1576770893.426528,240731.000,41657,1,H0,1,100,100.724
1576770893.560625,240844.000,41691,1,H0,1,100,100.716
1576770893.695908,240958.000,41709,1,H0,1,100,100.701
1576770893.833565,241074.000,41727,1,H0,1,100,100.701
1576770893.959354,241180.000,41745,1,H0,1,100,100.689
1576770894.083957,241285.000,41763,1,H0,1,100,100.686
1576770894.219241,241399.000,41782,1,H0,1,100,100.686
1576770894.350964,241510.000,41799,1,H0,1,100,100.682
1576770894.487434,241625.000,41817,1,H0,1,100,100.670
1576770894.629838,241745.000,41851,1,H0,1,100,100.667
1576770894.768681,241862.000,41869,1,H0,1,100,100.651
1576770894.905151,241977.000,41887,1,H0,1,100,100.651
1576770895.046368,242096.000,41905,1,H0,1,100,100.647
1576770895.175718,242205.000,41924,1,H0,1,100,100.640
1576770895.314561,242322.000,41941,1,H0,1,100,100.632
1576770895.441538,242429.000,41959,1,H0,1,100,100.632
1576770895.573261,242540.000,41977,1,H0,1,100,100.625
1576770895.707358,242653.000,42011,1,H0,1,100,100.617
1576770895.847388,242771.000,42029,1,H0,1,100,100.609
1576770895.979111,242882.000,42047,1,H0,1,100,100.594
1576770896.102528,242986.000,42066,1,H0,1,100,100.598
1576770896.237811,243100.000,42084,1,H0,1,100,100.598
1576770896.374281,243215.000,42102,1,H0,1,100,100.583
1576770896.508378,243328.000,42119,1,H0,1,100,100.579
1576770896.637727,243437.000,42137,1,H0,1,100,100.560
1576770896.768264,243547.000,42155,1,H0,1,100,100.560
1576770896.902361,243660.000,42173,1,H0,1,100,100.556
1576770897.037644,243774.000,42207,1,H0,1,100,100.544
1576770897.176488,243891.000,42226,1,H0,1,100,100.552
1576770897.301091,243996.000,42244,1,H0,1,100,100.537
1576770897.434001,244108.000,42262,1,H0,1,100,100.525
1576770897.568097,244221.000,42280,1,H0,1,100,100.541
1576770897.704567,244336.000,42298,1,H0,1,100,100.525
1576770897.837477,244448.000,42315,1,H0,1,100,100.529
1576770897.963267,244554.000,42333,1,H0,1,100,100.506
1576770898.094990,244665.000,42351,1,H0,1,100,100.499
1576770898.235021,244783.000,42386,1,H0,1,100,100.499
1576770898.372677,244899.000,42404,1,H0,1,100,100.495
1576770898.504401,245010.000,42422,1,H0,1,100,100.491
1576770898.644431,245128.000,42440,1,H0,1,100,100.476
1576770898.782088,245244.000,42458,1,H0,1,100,100.472
1576770898.916184,245357.000,42475,1,H0,1,100,100.472
1576770899.053841,245473.000,42493,1,H0,1,100,100.468
1576770899.180817,245580.000,42514,1,H0,1,100,100.457
1576770899.312541,245691.000,42535,1,H0,1,100,100.461
1576770899.440704,245799.000,42553,1,H0,1,100,100.457
1576770899.574800,245912.000,42571,1,H0,1,100,100.441
1576770899.707711,246024.000,42588,1,H0,1,100,100.445
1576770899.848927,246143.000,42622,1,H0,1,100,100.438
1576770899.975904,246250.000,42640,1,H0,1,100,100.426
1576770900.101694,246356.000,42659,1,H0,1,100,100.426
1576770900.239350,246472.000,42677,1,H0,1,100,100.415
1576770900.378194,246589.000,42695,1,H0,1,100,100.422
1576770900.512290,246702.000,42713,1,H0,1,100,100.411
1576770900.636894,246807.000,42731,1,H0,1,100,100.407
1576770900.769804,246919.000,42749,1,H0,1,100,100.400
1576770900.907460,247035.000,42766,1,H0,1,100,100.380
1576770901.043930,247150.000,42784,1,H0,1,100,100.377
1576770901.176840,247262.000,42819,1,H0,1,100,100.384
1576770901.299070,247365.000,42837,1,H0,1,100,100.377
1576770901.436727,247481.000,42855,1,H0,1,100,100.361
1576770901.570823,247594.000,42873,1,H0,1,100,100.377
1576770901.708480,247710.000,42891,1,H0,1,100,100.350
1576770901.834270,247816.000,42909,1,H0,1,100,100.350
1576770901.967180,247928.000,42927,1,H0,1,100,100.350
1576770902.091783,248033.000,42945,1,H0,1,100,100.342
1576770902.225880,248146.000,42963,1,H0,1,100,100.327
1576770902.357603,248257.000,42981,1,H0,1,100,100.331
1576770902.482206,248362.000,42999,1,H0,1,100,100.323
1576770902.617490,248476.000,43033,1,H0,1,100,100.319
1576770902.753959,248591.000,43051,1,H0,1,100,100.308
1576770902.889243,248705.000,43069,1,H0,1,100,100.308
1576770903.029273,248823.000,43087,1,H0,1,100,100.300
1576770903.166930,248939.000,43106,1,H0,1,100,100.289
1576770903.291533,249044.000,43124,1,H0,1,100,100.289
1576770903.423256,249155.000,43141,1,H0,1,100,100.285
1576770903.558540,249269.000,43159,1,H0,1,100,100.274
1576770903.692636,249382.000,43193,1,H0,1,100,100.262
1576770903.829106,249497.000,43211,1,H0,1,100,100.262
1576770903.956083,249604.000,43229,1,H0,1,100,100.247
1576770904.080686,249709.000,43248,1,H0,1,100,100.262
1576770904.218343,249825.000,43266,1,H0,1,100,100.239
1576770904.359560,249944.000,43284,1,H0,1,100,100.236
1576770904.488909,250053.000,43302,1,H0,1,100,100.236
1576770904.614699,250159.000,43319,1,H0,1,100,100.236
1576770904.751169,250274.000,43337,1,H0,1,100,100.224
1576770904.887639,250389.000,43371,1,H0,1,100,100.213
1576770905.025296,250505.000,43389,1,H0,1,100,100.205
1576770905.149899,250610.000,43411,2,H0,1,100,100.205
1576770905.274502,250715.000,43411,2,H0,1,100,100.201
1576770905.413346,250832.000,43430,1,H0,1,100,100.194
1576770905.548629,250946.000,43448,1,H0,1,100,100.190
1576770905.682726,251059.000,43482,1,H0,1,100,100.190
1576770905.818009,251173.000,43500,1,H0,1,100,100.174
1576770905.948545,251283.000,43518,1,H0,1,100,100.171
1576770906.082642,251396.000,43536,1,H0,1,100,100.174
1576770906.210805,251504.000,43555,1,H0,1,100,100.163
1576770906.346089,251618.000,43573,1,H0,1,100,100.171
1576770906.470692,251723.000,43591,1,H0,1,100,100.159
1576770906.607162,251838.000,43608,1,H0,1,100,100.155
1576770906.744819,251954.000,43626,1,H0,1,100,100.148
1576770906.881289,252069.000,43660,1,H0,1,100,100.144
1576770907.016572,252183.000,43678,1,H0,1,100,100.133
1576770907.150669,252296.000,43697,1,H0,1,100,100.129
1576770907.275272,252401.000,43715,1,H0,1,100,100.117
1576770907.410555,252515.000,43733,1,H0,1,100,100.129
1576770907.545839,252629.000,43751,1,H0,1,100,100.117
1576770907.679935,252742.000,43768,1,H0,1,100,100.117
1576770907.810472,252852.000,43786,1,H0,1,100,100.106
1576770907.939822,252961.000,43804,1,H0,1,100,100.110
1576770908.067985,253069.000,43821,1,H0,1,100,100.110
1576770908.205642,253185.000,43857,1,H0,1,100,100.102
1576770908.345672,253303.000,43875,1,H0,1,100,100.094
1576770908.470275,253408.000,43893,1,H0,1,100,100.087
1576770908.599625,253517.000,43911,1,H0,1,100,100.083
1576770908.738468,253634.000,43929,1,H0,1,100,100.094
1576770908.874938,253749.000,43946,1,H0,1,100,100.087
1576770909.009035,253862.000,43964,1,H0,1,100,100.079
1576770909.136011,253969.000,43982,1,H0,1,100,100.083
1576770909.264175,254077.000,44001,1,H0,1,100,100.064
1576770909.403018,254194.000,44035,1,H0,1,100,100.071
1576770909.543048,254312.000,44053,1,H0,1,100,100.056
1576770909.679518,254427.000,44071,1,H0,1,100,100.056
1576770909.817175,254543.000,44089,1,H0,1,100,100.056
1576770909.944151,254650.000,44107,1,H0,1,100,100.045
1576770910.072315,254758.000,44124,1,H0,1,100,100.045
1576770910.207598,254872.000,44143,1,H0,1,100,100.037
1576770910.333388,254978.000,44161,1,H0,1,100,100.033
1576770910.459178,255084.000,44179,1,H0,1,100,100.033
1576770910.598021,255201.000,44213,1,H0,1,100,100.033
1576770910.736865,255318.000,44231,1,H0,1,100,100.026
1576770910.873335,255433.000,44249,1,H0,1,100,100.026
1576770911.014551,255552.000,44267,1,H0,1,100,100.022
1576770911.143901,255661.000,44286,1,H0,1,100,100.010
1576770911.268504,255766.000,44307,1,H0,1,100,100.018
1576770911.404974,255881.000,44327,1,H0,1,100,100.007
1576770911.542631,255997.000,44345,1,H0,1,100,100.007
1576770911.676728,256110.000,44363,1,H0,1,100,100.010
1576770911.803704,256217.000,44381,1,H0,1,100,99.995
1576770911.935428,256328.000,44399,1,H0,1,100,99.991
1576770912.073084,256444.000,44416,1,H0,1,100,99.995
1576770912.208368,256558.000,44435,1,H0,1,100,99.984
1576770912.342464,256671.000,44469,1,H0,1,100,99.988
1576770912.467067,256776.000,44487,1,H0,1,100,99.976
1576770912.599977,256888.000,44505,1,H0,1,100,99.980
1576770912.738821,257005.000,44523,1,H0,1,100,99.968
1576770912.876478,257121.000,44541,1,H0,1,100,99.972
1576770913.003454,257228.000,44559,1,H0,1,100,99.961
1576770913.131617,257336.000,44578,1,H0,1,100,99.949
1576770913.263341,257447.000,44595,1,H0,1,100,99.957
1576770913.402184,257564.000,44613,1,H0,1,100,99.953
1576770913.539841,257680.000,44647,1,H0,1,100,99.953
1576770913.677498,257796.000,44665,1,H0,1,100,99.946
1576770913.817528,257914.000,44683,1,H0,1,100,99.938
1576770913.956371,258031.000,44701,1,H0,1,100,99.934
1576770914.092841,258146.000,44719,1,H0,1,100,99.927
1576770914.226938,258259.000,44737,1,H0,1,100,99.930
1576770914.355101,258367.000,44755,1,H0,1,100,99.923
1576770914.483264,258475.000,44773,1,H0,1,100,99.923
1576770914.624481,258594.000,44807,1,H0,1,100,99.919
1576770914.759764,258708.000,44825,1,H0,1,100,99.907
1576770914.893861,258821.000,44843,1,H0,1,100,99.907
1576770915.031518,258937.000,44861,1,H0,1,100,99.900
1576770915.157308,259043.000,44880,1,H0,1,100,99.896
1576770915.285471,259151.000,44898,1,H0,1,100,99.892
1576770915.421941,259266.000,44915,1,H0,1,100,99.885
1576770915.560784,259383.000,44933,1,H0,1,100,99.877
1576770915.688947,259491.000,44967,1,H0,1,100,99.877
1576770915.815924,259598.000,44985,1,H0,1,100,99.881
1576770915.952394,259713.000,45003,1,H0,1,100,99.881
1576770916.090051,259829.000,45021,1,H0,1,100,99.881
1576770916.227708,259945.000,45040,1,H0,1,100,99.862
1576770916.355871,260053.000,45058,1,H0,1,100,99.854
1576770916.482847,260160.000,45076,1,H0,1,100,99.862
1576770916.621691,260277.000,45093,1,H0,1,100,99.858
1576770916.756974,260391.000,45111,1,H0,1,100,99.843
1576770916.892257,260505.000,45145,1,H0,1,100,99.850
1576770917.016860,260610.000,45163,1,H0,1,100,99.843
1576770917.147397,260720.000,45182,1,H0,1,100,99.846
1576770917.286241,260837.000,45203,2,H0,1,100,99.831
1576770917.425084,260954.000,45203,2,H0,1,100,99.835
1576770917.563927,261071.000,45239,1,H0,1,100,99.831
1576770917.700397,261186.000,45257,1,H0,1,100,99.831
1576770917.842801,261306.000,45275,1,H0,1,100,99.816
1576770917.979271,261421.000,45293,1,H0,1,100,99.816
1576770918.118114,261538.000,45311,1,H0,1,100,99.812
1576770918.246278,261646.000,45329,1,H0,1,100,99.804
1576770918.376814,261756.000,45347,1,H0,1,100,99.812
1576770918.509724,261868.000,45365,1,H0,1,100,99.812
1576770918.650941,261987.000,45399,1,H0,1,100,99.804
1576770918.786225,262101.000,45417,1,H0,1,100,99.808
1576770918.920321,262214.000,45435,1,H0,1,100,99.797
1576770919.052044,262325.000,45453,1,H0,1,100,99.789
1576770919.177834,262431.000,45472,1,H0,1,100,99.793
1576770919.308371,262541.000,45490,1,H0,1,100,99.785
1576770919.446028,262657.000,45507,1,H0,1,100,99.782
1576770919.586058,262775.000,45525,1,H0,1,100,99.782
1576770919.710661,262880.000,45543,1,H0,1,100,99.770
1576770919.837637,262987.000,45577,1,H0,1,100,99.762
1576770919.975294,263103.000,45595,1,H0,1,100,99.770
1576770920.111764,263218.000,45614,1,H0,1,100,99.759
1576770920.245861,263331.000,45632,1,H0,1,100,99.747
1576770920.372837,263438.000,45650,1,H0,1,100,99.755
1576770920.499814,263545.000,45668,1,H0,1,100,99.755
1576770920.638657,263662.000,45685,1,H0,1,100,99.751
1576770920.775127,263777.000,45703,1,H0,1,100,99.740
1576770920.903291,263885.000,45721,1,H0,1,100,99.724
1576770921.030267,263992.000,45755,1,H0,1,100,99.740
1576770921.169110,264109.000,45774,1,H0,1,100,99.721
1576770921.296087,264216.000,45792,1,H0,1,100,99.717
1576770921.432557,264331.000,45810,1,H0,1,100,99.721
1576770921.571400,264448.000,45828,1,H0,1,100,99.717
1576770921.699564,264556.000,45846,1,H0,1,100,99.721
1576770921.839594,264674.000,45863,1,H0,1,100,99.713
1576770921.977250,264790.000,45881,1,H0,1,100,99.709
1576770922.111347,264903.000,45916,1,H0,1,100,99.698
1576770922.238324,265010.000,45934,1,H0,1,100,99.690
1576770922.374794,265125.000,45952,1,H0,1,100,99.698
1576770922.501770,265232.000,45970,1,H0,1,100,99.679
1576770922.639427,265348.000,45988,1,H0,1,100,99.690
1576770922.777084,265464.000,46006,1,H0,1,100,99.686
1576770922.913554,265579.000,46023,1,H0,1,100,99.679
1576770923.040530,265686.000,46041,1,H0,1,100,99.675
1576770923.172253,265797.000,46060,1,H0,1,100,99.675
1576770923.302790,265907.000,46078,1,H0,1,100,99.667
1576770923.439260,266022.000,46099,1,H0,1,100,99.663
1576770923.574543,266136.000,46119,1,H0,1,100,99.659
1576770923.699147,266241.000,46137,1,H0,1,100,99.652
1576770923.832057,266353.000,46154,1,H0,1,100,99.652
1576770923.970900,266470.000,46172,1,H0,1,100,99.648
1576770924.107370,266585.000,46207,1,H0,1,100,99.644
1576770924.235533,266693.000,46225,1,H0,1,100,99.621
1576770924.362510,266800.000,46243,1,H0,1,100,99.629
1576770924.494233,266911.000,46261,1,H0,1,100,99.621
1576770924.633076,267028.000,46279,1,H0,1,100,99.629
1576770924.770733,267144.000,46297,1,H0,1,100,99.629
1576770924.894150,267248.000,46315,1,H0,1,100,99.618
1576770925.023499,267357.000,46332,1,H0,1,100,99.618
1576770925.152849,267466.000,46351,1,H0,1,100,99.606
1576770925.277452,267571.000,46369,1,H0,1,100,99.606
1576770925.406802,267680.000,46387,1,H0,1,100,99.598
1576770925.532592,267786.000,46405,1,H0,1,100,99.598
1576770925.663129,267896.000,46439,1,H0,1,100,99.598
1576770925.801972,268013.000,46457,1,H0,1,100,99.579
1576770925.940815,268130.000,46475,1,H0,1,100,99.591
1576770926.068979,268238.000,46493,1,H0,1,100,99.579
1576770926.204262,268352.000,46512,1,H0,1,100,99.576
1576770926.331239,268459.000,46530,1,H0,1,100,99.568
1576770926.458215,268566.000,46547,1,H0,1,100,99.560
1576770926.595872,268682.000,46565,1,H0,1,100,99.564
1576770926.733529,268798.000,46599,1,H0,1,100,99.553
1576770926.864065,268908.000,46617,1,H0,1,100,99.553
1576770926.993415,269017.000,46635,1,H0,1,100,99.560
1576770927.126325,269129.000,46654,1,H0,1,100,99.553
1576770927.263982,269245.000,46672,1,H0,1,100,99.541
1576770927.401639,269361.000,46690,1,H0,1,100,99.549
1576770927.530988,269470.000,46708,1,H0,1,100,99.534
1576770927.657965,269577.000,46725,1,H0,1,100,99.530
1576770927.793248,269691.000,46743,1,H0,1,100,99.534
1576770927.933278,269809.000,46777,1,H0,1,100,99.526
1576770928.069748,269924.000,46796,1,H0,1,100,99.518
1576770928.194351,270029.000,46814,1,H0,1,100,99.515
1576770928.324888,270139.000,46832,1,H0,1,100,99.507
1576770928.461358,270254.000,46850,1,H0,1,100,99.530
1576770928.599015,270370.000,46868,1,H0,1,100,99.518
1576770928.731925,270482.000,46886,1,H0,1,100,99.515
1576770928.870768,270599.000,46903,1,H0,1,100,99.507
1576770929.006052,270713.000,46921,1,H0,1,100,99.499
1576770929.138962,270825.000,46956,1,H0,1,100,99.492
1576770929.276618,270941.000,46974,1,H0,1,100,99.488
1576770929.405375,271049.500,46995,2,H0,1,100,99.492
1576770929.534132,271158.000,46995,2,H0,1,100,99.488
1576770929.664668,271268.000,47015,1,H0,1,100,99.488
1576770929.804698,271386.000,47049,1,H0,1,100,99.484
1576770929.941168,271501.000,47067,1,H0,1,100,99.484
1576770930.080012,271618.000,47086,1,H0,1,100,99.476
1576770930.212922,271730.000,47104,1,H0,1,100,99.473
1576770930.341085,271838.000,47122,1,H0,1,100,99.473
1576770930.471622,271948.000,47140,1,H0,1,100,99.465
1576770930.609278,272064.000,47157,1,H0,1,100,99.461
1576770930.749308,272182.000,47175,1,H0,1,100,99.461
1576770930.872725,272286.000,47193,1,H0,1,100,99.453
1576770931.002075,272395.000,47227,1,H0,1,100,99.453
1576770931.138545,272510.000,47246,1,H0,1,100,99.442
1576770931.275015,272625.000,47264,1,H0,1,100,99.438
1576770931.410298,272739.000,47282,1,H0,1,100,99.438
1576770931.537275,272846.000,47300,1,H0,1,100,99.423
1576770931.667811,272956.000,47318,1,H0,1,100,99.431
1576770931.806655,273073.000,47335,1,H0,1,100,99.423
1576770931.944311,273189.000,47353,1,H0,1,100,99.427
1576770932.073661,273298.000,47370,1,H0,1,100,99.412
1576770932.199451,273404.000,47406,1,H0,1,100,99.412
1576770932.331174,273515.000,47424,1,H0,1,100,99.415
1576770932.467644,273630.000,47442,1,H0,1,100,99.412
1576770932.610048,273750.000,47460,1,H0,1,100,99.415
1576770932.748891,273867.000,47478,1,H0,1,100,99.412
1576770932.885361,273982.000,47495,1,H0,1,100,99.396
1576770933.024205,274099.000,47513,1,H0,1,100,99.392
1576770933.152368,274207.000,47548,1,H0,1,100,99.392
1576770933.287651,274321.000,47566,1,H0,1,100,99.389
1576770933.414628,274428.000,47584,1,H0,1,100,99.389
1576770933.546351,274539.000,47602,1,H0,1,100,99.392
1576770933.680448,274652.000,47620,1,H0,1,100,99.381
1576770933.822851,274772.000,47638,1,H0,1,100,99.385
1576770933.960508,274888.000,47655,1,H0,1,100,99.381
1576770934.098165,275004.000,47673,1,H0,1,100,99.381
1576770934.225141,275111.000,47692,1,H0,1,100,99.373
1576770934.353305,275219.000,47726,1,H0,1,100,99.370
1576770934.486214,275331.000,47744,1,H0,1,100,99.377
1576770934.623871,275447.000,47762,1,H0,1,100,99.362
1576770934.760341,275562.000,47780,1,H0,1,100,99.362
1576770934.886131,275668.000,47798,1,H0,1,100,99.358
1576770935.017854,275779.000,47816,1,H0,1,100,99.354
1576770935.157885,275897.000,47834,1,H0,1,100,99.362
1576770935.294355,276012.000,47852,1,H0,1,100,99.350
1576770935.423704,276121.000,47870,1,H0,1,100,99.347
1576770935.551868,276229.000,47891,1,H0,1,100,99.347
1576770935.684778,276341.000,47911,1,H0,1,100,99.343
1576770935.823621,276458.000,47928,1,H0,1,100,99.331
1576770935.962465,276575.000,47946,1,H0,1,100,99.324
1576770936.085881,276679.000,47964,1,H0,1,100,99.339
1576770936.216418,276789.000,47983,1,H0,1,100,99.320
1576770936.352888,276904.000,48017,1,H0,1,100,99.324
1576770936.481051,277012.000,48035,1,H0,1,100,99.335
1576770936.621081,277130.000,48053,1,H0,1,100,99.316
1576770936.755177,277243.000,48071,1,H0,1,100,99.328
1576770936.892834,277359.000,48089,1,H0,1,100,99.328
1576770937.035238,277479.000,48106,1,H0,1,100,99.320
1576770937.172894,277595.000,48124,1,H0,1,100,99.309
1576770937.302244,277704.000,48159,1,H0,1,100,99.309
1576770937.438715,277819.000,48177,1,H0,1,100,99.309
1576770937.565691,277926.000,48195,1,H0,1,100,99.312
1576770937.691481,278032.000,48213,1,H0,1,100,99.312
1576770937.829138,278148.000,48231,1,H0,1,100,99.309
1576770937.966794,278264.000,48249,1,H0,1,100,99.312
1576770938.098518,278375.000,48267,1,H0,1,100,99.301
1576770938.227867,278484.000,48285,1,H0,1,100,99.301
1576770938.360777,278596.000,48303,1,H0,1,100,99.301
1576770938.493687,278708.000,48321,1,H0,1,100,99.297
1576770938.632531,278825.000,48355,1,H0,1,100,99.297
1576770938.763067,278935.000,48373,1,H0,1,100,99.297
1576770938.888857,279041.000,48391,1,H0,1,100,99.293
1576770939.024141,279155.000,48409,1,H0,1,100,99.286
1576770939.164171,279273.000,48428,1,H0,1,100,99.286
1576770939.301827,279389.000,48445,1,H0,1,100,99.274
1576770939.428804,279496.000,48463,1,H0,1,100,99.286
1576770939.556967,279604.000,48481,1,H0,1,100,99.282
1576770939.691064,279717.000,48499,1,H0,1,100,99.274
1576770939.828721,279833.000,48533,1,H0,1,100,99.286
1576770939.961631,279945.000,48551,1,H0,1,100,99.274
1576770940.085047,280049.000,48570,1,H0,1,100,99.278
1576770940.219144,280162.000,48588,1,H0,1,100,99.274
1576770940.348494,280271.000,48606,1,H0,1,100,99.270
1576770940.482590,280384.000,48624,1,H0,1,100,99.263
1576770940.626180,280505.000,48641,1,H0,1,100,99.259
1576770940.765024,280622.000,48659,1,H0,1,100,99.267
1576770940.897934,280734.000,48693,1,H0,1,100,99.255
1576770941.037964,280852.000,48711,1,H0,1,100,99.255
1576770941.175621,280968.000,48730,1,H0,1,100,99.247
1576770941.313277,281084.000,48748,1,H0,1,100,99.247
1576770941.447374,281197.000,48766,1,H0,1,100,99.247
1576770941.575537,281305.000,48787,1,H0,1,100,99.247
1576770941.704887,281414.000,48805,1,H0,1,100,99.244
1576770941.843731,281531.000,48825,1,H0,1,100,99.240
1576770941.983761,281649.000,48843,1,H0,1,100,99.251
1576770942.108364,281754.000,48861,1,H0,1,100,99.236
1576770942.236527,281862.000,48880,1,H0,1,100,99.232
1576770942.371810,281976.000,48897,1,H0,1,100,99.240
1576770942.508281,282091.000,48915,1,H0,1,100,99.240
1576770942.644751,282206.000,48949,1,H0,1,100,99.228
1576770942.771727,282313.000,48967,1,H0,1,100,99.228
1576770942.901077,282422.000,48985,1,H0,1,100,99.225
1576770943.035174,282535.000,49003,1,H0,1,100,99.225
1576770943.175204,282653.000,49022,1,H0,1,100,99.225
1576770943.306927,282764.000,49040,1,H0,1,100,99.221
1576770943.432717,282870.000,49058,1,H0,1,100,99.225
1576770943.564440,282981.000,49075,1,H0,1,100,99.217
1576770943.700910,283096.000,49093,1,H0,1,100,99.206
1576770943.838567,283212.000,49127,1,H0,1,100,99.209
1576770943.969103,283322.000,49145,1,H0,1,100,99.217
1576770944.104387,283436.000,49164,1,H0,1,100,99.209
1576770944.231363,283543.000,49182,1,H0,1,100,99.213
1576770944.366647,283657.000,49200,1,H0,1,100,99.206
1576770944.493623,283764.000,49218,1,H0,1,100,99.202
1576770944.630093,283879.000,49236,1,H0,1,100,99.194
1576770944.761817,283990.000,49254,1,H0,1,100,99.198
1576770944.895913,284103.000,49271,1,H0,1,100,99.194
1576770945.037130,284222.000,49288,1,H0,1,100,99.190
1576770945.174787,284338.000,49324,1,H0,1,100,99.186
1576770945.313630,284455.000,49342,1,H0,1,100,99.186
1576770945.440607,284562.000,49360,1,H0,1,100,99.190
1576770945.571143,284672.000,49378,1,H0,1,100,99.190
1576770945.704053,284784.000,49396,1,H0,1,100,99.186
1576770945.841710,284900.000,49413,1,H0,1,100,99.179
1576770945.978180,285015.000,49431,1,H0,1,100,99.186
1576770946.100410,285118.000,49449,1,H0,1,100,99.179
1576770946.234506,285231.000,49468,1,H0,1,100,99.175
1576770946.372163,285347.000,49502,1,H0,1,100,99.183
1576770946.508633,285462.000,49520,1,H0,1,100,99.175
1576770946.639170,285572.000,49538,1,H0,1,100,99.175
1576770946.767333,285680.000,49556,1,H0,1,100,99.179
1576770946.900243,285792.000,49574,1,H0,1,100,99.171
1576770947.039086,285909.000,49591,1,H0,1,100,99.171
1576770947.177930,286026.000,49610,1,H0,1,100,99.167
1576770947.302533,286131.000,49628,1,H0,1,100,99.164
1576770947.430696,286239.000,49646,1,H0,1,100,99.156
1576770947.565386,286352.500,49683,2,H0,1,100,99.171
1576770947.700076,286466.000,49683,2,H0,1,100,99.156
1576770947.842480,286586.000,49700,1,H0,1,100,99.156
1576770947.980136,286702.000,49720,1,H0,1,100,99.156
1576770948.108299,286810.000,49755,1,H0,1,100,99.148
1576770948.243583,286924.000,49773,1,H0,1,100,99.160
1576770948.370559,287031.000,49791,1,H0,1,100,99.152
1576770948.501096,287141.000,49809,1,H0,1,100,99.156
1576770948.636379,287255.000,49827,1,H0,1,100,99.156
1576770948.760983,287360.000,49845,1,H0,1,100,99.148
1576770948.886772,287466.000,49863,1,H0,1,100,99.152
1576770949.025616,287583.000,49880,1,H0,1,100,99.152
1576770949.163272,287699.000,49899,1,H0,1,100,99.148
1576770949.297369,287812.000,49917,1,H0,1,100,99.141
1576770949.424346,287919.000,49951,1,H0,1,100,99.137
1576770949.557256,288031.000,49969,1,H0,1,100,99.145
1576770949.690166,288143.000,49987,1,H0,1,100,99.152
1576770949.829009,288260.000,50005,1,H0,1,100,99.133
1576770949.959546,288370.000,50023,1,H0,1,100,99.148
1576770950.081775,288473.000,50041,1,H0,1,100,99.133
1576770950.219432,288589.000,50060,1,H0,1,100,99.129
1576770950.358275,288706.000,50077,1,H0,1,100,99.129
1576770950.494745,288821.000,50095,1,H0,1,100,99.129
1576770950.619349,288926.000,50129,1,H0,1,100,99.129
1576770950.751072,289037.000,50147,1,H0,1,100,99.122
1576770950.887542,289152.000,50165,1,H0,1,100,99.122
1576770951.025199,289268.000,50183,1,H0,1,100,99.125
1576770951.159295,289381.000,50202,1,H0,1,100,99.118
1576770951.282712,289485.000,50220,1,H0,1,100,99.114
1576770951.417995,289599.000,50238,1,H0,1,100,99.118
1576770951.555652,289715.000,50255,1,H0,1,100,99.118
1576770951.688562,289827.000,50273,1,H0,1,100,99.106
1576770951.827405,289944.000,50307,1,H0,1,100,99.110
1576770951.965062,290060.000,50325,1,H0,1,100,99.091
1576770952.102719,290176.000,50343,1,H0,1,100,99.106
1576770952.243936,290295.000,50362,1,H0,1,100,99.103
1576770952.382779,290412.000,50379,1,H0,1,100,99.091
