EpochTimestamp,EmotiBitTimestamp,PacketNumber,DataLength,TypeTag,ProtocolVersion,DataReliability,MY
1576771341.588123,618487.000,42330,9,MY,1,100,-1
1576771341.588123,618487.000,42330,9,MY,1,100, 0
1576771341.588123,618487.000,42330,9,MY,1,100,-1
1576771341.588123,618487.000,42330,9,MY,1,100,-0
1576771341.588123,618487.000,42330,9,MY,1,100,-1
1576771341.588123,618487.000,42330,9,MY,1,100,-1
1576771341.588123,618487.000,42330,9,MY,1,100, 0
1576771341.588123,618487.000,42330,9,MY,1,100,-0
1576771341.588123,618487.000,42330,9,MY,1,100,-2
1576771341.629637,618522.000,42349,2,MY,1,100, 0
1576771341.671152,618557.000,42349,2,MY,1,100,-0
1576771341.708317,618588.333,42367,3,MY,1,100, 1
1576771341.745482,618619.667,42367,3,MY,1,100,-1
1576771341.782647,618651.000,42367,3,MY,1,100, 0
1576771341.820208,618682.667,42383,3,MY,1,100,-0
1576771341.857769,618714.333,42383,3,MY,1,100, 0
1576771341.895329,618746.000,42383,3,MY,1,100, 0
1576771341.940402,618784.000,42401,3,MY,1,100, 0
1576771341.985475,618822.000,42401,3,MY,1,100, 2
1576771342.030547,618860.000,42401,3,MY,1,100, 1
1576771342.071666,618894.667,42419,3,MY,1,100, 2
1576771342.112785,618929.333,42419,3,MY,1,100, 4
1576771342.153904,618964.000,42419,3,MY,1,100, 3
1576771342.195023,618998.667,42437,3,MY,1,100, 4
1576771342.236142,619033.333,42437,3,MY,1,100, 3
1576771342.277261,619068.000,42437,3,MY,1,100, 1
1576771342.315612,619100.333,42455,3,MY,1,100, 1
1576771342.353963,619132.667,42455,3,MY,1,100, 1
1576771342.392315,619165.000,42455,3,MY,1,100, 7
1576771342.430271,619197.000,42473,3,MY,1,100,-0
1576771342.468227,619229.000,42473,3,MY,1,100, 4
1576771342.506183,619261.000,42473,3,MY,1,100, 2
1576771342.546906,619295.333,42492,3,MY,1,100, 1
1576771342.587630,619329.667,42492,3,MY,1,100, 3
1576771342.628353,619364.000,42492,3,MY,1,100, 2
1576771342.673031,619401.667,42509,3,MY,1,100, 3
1576771342.717708,619439.333,42509,3,MY,1,100, 1
1576771342.762385,619477.000,42509,3,MY,1,100, 0
1576771342.803109,619511.333,42527,3,MY,1,100, 0
1576771342.843832,619545.667,42527,3,MY,1,100,-1
1576771342.884556,619580.000,42527,3,MY,1,100, 0
1576771342.923303,619612.667,42545,3,MY,1,100, 0
1576771342.962049,619645.333,42545,3,MY,1,100,-1
1576771343.000796,619678.000,42545,3,MY,1,100,-1
1576771343.039543,619710.667,42561,3,MY,1,100, 2
1576771343.078289,619743.333,42561,3,MY,1,100,-1
1576771343.117036,619776.000,42561,3,MY,1,100, 1
1576771343.156178,619809.000,42579,3,MY,1,100,-1
1576771343.195320,619842.000,42579,3,MY,1,100,-0
1576771343.234462,619875.000,42579,3,MY,1,100, 0
1576771343.275976,619910.000,42597,3,MY,1,100, 1
1576771343.317491,619945.000,42597,3,MY,1,100,-0
1576771343.359005,619980.000,42597,3,MY,1,100,-3
1576771343.405264,620019.000,42615,2,MY,1,100,-1
1576771343.451523,620058.000,42615,2,MY,1,100,-2
1576771343.492642,620092.667,42634,3,MY,1,100,-4
1576771343.533761,620127.333,42634,3,MY,1,100,-2
1576771343.574879,620162.000,42634,3,MY,1,100,-4
1576771343.613132,620194.250,42652,4,MY,1,100,-3
1576771343.651384,620226.500,42652,4,MY,1,100,-2
1576771343.689637,620258.750,42652,4,MY,1,100, 8
1576771343.727889,620291.000,42652,4,MY,1,100,-8
1576771343.766636,620323.667,42670,3,MY,1,100, 0
1576771343.805383,620356.333,42670,3,MY,1,100,-3
1576771343.844130,620389.000,42670,3,MY,1,100,-2
1576771343.885644,620424.000,42687,2,MY,1,100,-2
1576771343.927158,620459.000,42687,2,MY,1,100,-2
1576771343.967486,620493.000,42705,3,MY,1,100,-0
1576771344.007814,620527.000,42705,3,MY,1,100,-2
1576771344.048143,620561.000,42705,3,MY,1,100,-2
1576771344.093611,620599.333,42721,3,MY,1,100,-1
1576771344.139079,620637.667,42721,3,MY,1,100,-3
1576771344.184547,620676.000,42721,3,MY,1,100,-3
1576771344.222107,620707.667,42739,3,MY,1,100,-4
1576771344.259668,620739.333,42739,3,MY,1,100,-3
1576771344.297229,620771.000,42739,3,MY,1,100,-3
1576771344.335975,620803.667,42757,3,MY,1,100,-3
1576771344.374722,620836.333,42757,3,MY,1,100,-3
1576771344.413469,620869.000,42757,3,MY,1,100,-3
1576771344.453006,620902.333,42776,3,MY,1,100,-2
1576771344.492543,620935.667,42776,3,MY,1,100,-4
1576771344.532081,620969.000,42776,3,MY,1,100,-3
1576771344.573595,621004.000,42794,3,MY,1,100,-4
1576771344.615109,621039.000,42794,3,MY,1,100,-3
1576771344.656624,621074.000,42794,3,MY,1,100,-4
1576771344.697743,621108.667,42812,3,MY,1,100,-4
1576771344.738862,621143.333,42812,3,MY,1,100,-4
1576771344.779981,621178.000,42812,3,MY,1,100,-2
1576771344.821890,621213.333,42830,3,MY,1,100,-3
1576771344.863800,621248.667,42830,3,MY,1,100,-3
1576771344.905710,621284.000,42830,3,MY,1,100,-3
1576771344.943666,621316.000,42848,3,MY,1,100,-3
1576771344.981622,621348.000,42848,3,MY,1,100,-2
1576771345.019578,621380.000,42848,3,MY,1,100,-2
1576771345.059510,621413.667,42866,3,MY,1,100,-3
1576771345.099443,621447.333,42866,3,MY,1,100,-1
1576771345.139376,621481.000,42866,3,MY,1,100,-2
1576771345.180890,621516.000,42883,3,MY,1,100,-2
1576771345.222404,621551.000,42883,3,MY,1,100,-5
1576771345.263919,621586.000,42883,3,MY,1,100,-3
1576771345.305433,621621.000,42901,3,MY,1,100,-4
1576771345.346947,621656.000,42901,3,MY,1,100,-4
1576771345.388462,621691.000,42901,3,MY,1,100,-4
1576771345.430767,621726.667,42917,3,MY,1,100,-2
1576771345.473072,621762.333,42917,3,MY,1,100,-2
1576771345.515377,621798.000,42917,3,MY,1,100,-3
1576771345.552147,621829.000,42936,3,MY,1,100,-3
1576771345.588917,621860.000,42936,3,MY,1,100,-1
1576771345.625686,621891.000,42936,3,MY,1,100,-2
1576771345.666805,621925.667,42954,3,MY,1,100,-2
1576771345.707924,621960.333,42954,3,MY,1,100,-1
1576771345.749043,621995.000,42954,3,MY,1,100,-0
1576771345.789767,622029.333,42972,3,MY,1,100,-0
1576771345.830490,622063.667,42972,3,MY,1,100, 1
1576771345.871214,622098.000,42972,3,MY,1,100, 6
1576771345.911937,622132.333,42990,3,MY,1,100, 1
1576771345.952661,622166.667,42990,3,MY,1,100, 1
1576771345.993385,622201.000,42990,3,MY,1,100, 3
1576771346.032527,622234.000,43008,3,MY,1,100, 1
1576771346.071669,622267.000,43008,3,MY,1,100, 0
1576771346.110811,622300.000,43008,3,MY,1,100,-1
1576771346.150743,622333.667,43026,3,MY,1,100, 0
1576771346.190676,622367.333,43026,3,MY,1,100,-1
1576771346.230609,622401.000,43026,3,MY,1,100,-3
1576771346.268170,622432.667,43044,3,MY,1,100,-1
1576771346.305730,622464.333,43044,3,MY,1,100,-2
1576771346.343291,622496.000,43044,3,MY,1,100,-1
1576771346.384014,622530.333,43062,3,MY,1,100,-1
1576771346.424738,622564.667,43062,3,MY,1,100,-3
1576771346.465461,622599.000,43062,3,MY,1,100, 2
1576771346.505790,622633.000,43080,3,MY,1,100,-1
1576771346.546118,622667.000,43080,3,MY,1,100,-1
1576771346.586446,622701.000,43080,3,MY,1,100,-1
1576771346.627565,622735.667,43098,3,MY,1,100,-0
1576771346.668684,622770.333,43098,3,MY,1,100, 0
1576771346.709803,622805.000,43098,3,MY,1,100, 0
1576771346.750526,622839.333,43114,3,MY,1,100, 0
1576771346.791250,622873.667,43114,3,MY,1,100,-1
1576771346.831974,622908.000,43114,3,MY,1,100,-3
1576771346.871116,622941.000,43132,3,MY,1,100,-1
1576771346.910258,622974.000,43132,3,MY,1,100,-5
1576771346.949400,623007.000,43132,3,MY,1,100,-4
1576771346.991309,623042.333,43150,3,MY,1,100,-4
1576771347.033219,623077.667,43150,3,MY,1,100,-3
1576771347.075129,623113.000,43150,3,MY,1,100,-3
1576771347.111108,623143.333,43168,3,MY,1,100,-1
1576771347.147087,623173.667,43168,3,MY,1,100,-1
1576771347.183066,623204.000,43168,3,MY,1,100, 3
1576771347.221417,623236.333,43186,3,MY,1,100,-3
1576771347.259769,623268.667,43186,3,MY,1,100,-0
1576771347.298120,623301.000,43186,3,MY,1,100, 0
1576771347.341611,623337.667,43204,3,MY,1,100,-2
1576771347.385103,623374.333,43204,3,MY,1,100,-2
1576771347.428594,623411.000,43204,3,MY,1,100,-1
1576771347.469633,623445.600,43226,5,MY,1,100,-1
1576771347.510673,623480.200,43226,5,MY,1,100, 1
1576771347.551713,623514.800,43226,5,MY,1,100, 1
1576771347.592753,623549.400,43226,5,MY,1,100,-1
1576771347.633793,623584.000,43226,5,MY,1,100,-3
1576771347.673330,623617.333,43246,3,MY,1,100,-2
1576771347.712868,623650.667,43246,3,MY,1,100,-4
1576771347.752405,623684.000,43246,3,MY,1,100,-3
1576771347.789966,623715.667,43264,3,MY,1,100,-6
1576771347.827526,623747.333,43264,3,MY,1,100,-6
1576771347.865087,623779.000,43264,3,MY,1,100,-6
1576771347.903636,623811.500,43282,2,MY,1,100,-5
1576771347.942185,623844.000,43282,2,MY,1,100,-5
1576771347.987257,623882.000,43300,3,MY,1,100,-4
1576771348.032330,623920.000,43300,3,MY,1,100,-4
1576771348.077403,623958.000,43300,3,MY,1,100,-3
1576771348.118522,623992.667,43318,3,MY,1,100,-3
1576771348.159641,624027.333,43318,3,MY,1,100,-3
1576771348.200760,624062.000,43318,3,MY,1,100,-4
1576771348.241483,624096.333,43336,3,MY,1,100,-4
1576771348.282207,624130.667,43336,3,MY,1,100,-3
1576771348.322930,624165.000,43336,3,MY,1,100,-3
1576771348.360491,624196.667,43353,3,MY,1,100,-2
1576771348.398052,624228.333,43353,3,MY,1,100,-1
1576771348.435612,624260.000,43353,3,MY,1,100,-3
1576771348.474458,624292.750,43372,4,MY,1,100,-2
1576771348.513303,624325.500,43372,4,MY,1,100,-1
1576771348.552149,624358.250,43372,4,MY,1,100,-0
1576771348.590994,624391.000,43372,4,MY,1,100, 0
1576771348.637846,624430.500,43390,2,MY,1,100, 0
1576771348.684698,624470.000,43390,2,MY,1,100, 1
1576771348.725421,624504.333,43406,3,MY,1,100, 0
1576771348.766145,624538.667,43406,3,MY,1,100, 0
1576771348.806869,624573.000,43406,3,MY,1,100,-1
1576771348.848383,624608.000,43424,3,MY,1,100,-1
1576771348.889897,624643.000,43424,3,MY,1,100, 0
1576771348.931412,624678.000,43424,3,MY,1,100, 0
1576771348.968972,624709.667,43442,3,MY,1,100, 1
1576771349.006533,624741.333,43442,3,MY,1,100, 0
1576771349.044093,624773.000,43442,3,MY,1,100, 0
1576771349.081259,624804.333,43460,3,MY,1,100,-0
1576771349.118424,624835.667,43460,3,MY,1,100,-1
1576771349.155589,624867.000,43460,3,MY,1,100, 0
1576771349.195917,624901.000,43478,3,MY,1,100,-1
1576771349.236245,624935.000,43478,3,MY,1,100, 0
1576771349.276573,624969.000,43478,3,MY,1,100, 1
1576771349.320855,625006.333,43496,3,MY,1,100, 1
1576771349.365137,625043.667,43496,3,MY,1,100, 0
1576771349.409419,625081.000,43496,3,MY,1,100, 0
1576771349.447771,625113.333,43515,3,MY,1,100,-1
1576771349.486122,625145.667,43515,3,MY,1,100,-1
1576771349.524473,625178.000,43515,3,MY,1,100, 1
1576771349.569150,625215.667,43532,3,MY,1,100,-0
1576771349.613828,625253.333,43532,3,MY,1,100,-4
1576771349.658505,625291.000,43532,3,MY,1,100,-8
1576771349.697252,625323.667,43550,3,MY,1,100,-11
1576771349.735998,625356.333,43550,3,MY,1,100,-13
1576771349.774745,625389.000,43550,3,MY,1,100,-12
1576771349.821597,625428.500,43566,2,MY,1,100,-12
1576771349.868449,625468.000,43566,2,MY,1,100,-15
1576771349.907295,625500.750,43584,4,MY,1,100,-16
1576771349.946140,625533.500,43584,4,MY,1,100,-17
1576771349.984986,625566.250,43584,4,MY,1,100,-17
1576771350.023831,625599.000,43584,4,MY,1,100,-18
1576771350.070683,625638.500,43602,2,MY,1,100,-19
1576771350.117535,625678.000,43602,2,MY,1,100,-19
1576771350.158258,625712.333,43620,3,MY,1,100,-21
1576771350.198982,625746.667,43620,3,MY,1,100,-20
1576771350.239705,625781.000,43620,3,MY,1,100,-19
1576771350.280429,625815.333,43638,3,MY,1,100,-17
1576771350.321152,625849.667,43638,3,MY,1,100,-18
1576771350.361876,625884.000,43638,3,MY,1,100,-19
1576771350.401413,625917.333,43656,3,MY,1,100,-18
1576771350.440951,625950.667,43656,3,MY,1,100,-17
1576771350.480488,625984.000,43656,3,MY,1,100,-18
1576771350.518049,626015.667,43675,3,MY,1,100,-21
1576771350.555609,626047.333,43675,3,MY,1,100,-24
1576771350.593170,626079.000,43675,3,MY,1,100,-26
1576771350.633103,626112.667,43692,3,MY,1,100,-31
1576771350.673036,626146.333,43692,3,MY,1,100,-30
1576771350.712969,626180.000,43692,3,MY,1,100,-30
1576771350.753692,626214.333,43710,3,MY,1,100,-34
1576771350.794416,626248.667,43710,3,MY,1,100,-34
1576771350.835139,626283.000,43710,3,MY,1,100,-35
1576771350.876653,626318.000,43726,3,MY,1,100,-35
1576771350.918168,626353.000,43726,3,MY,1,100,-34
1576771350.959682,626388.000,43726,3,MY,1,100,-35
1576771351.002778,626424.333,43744,3,MY,1,100,-37
1576771351.045874,626460.667,43744,3,MY,1,100,-37
1576771351.088969,626497.000,43744,3,MY,1,100,-37
1576771351.126925,626529.000,43762,3,MY,1,100,-36
1576771351.164881,626561.000,43762,3,MY,1,100,-33
1576771351.202837,626593.000,43762,3,MY,1,100,-33
1576771351.241979,626626.000,43780,3,MY,1,100,-34
1576771351.281121,626659.000,43780,3,MY,1,100,-33
1576771351.320264,626692.000,43780,3,MY,1,100,-32
1576771351.361382,626726.667,43798,3,MY,1,100,-32
1576771351.402501,626761.333,43798,3,MY,1,100,-31
1576771351.443620,626796.000,43798,3,MY,1,100,-31
1576771351.484344,626830.333,43817,3,MY,1,100,-30
1576771351.525068,626864.667,43817,3,MY,1,100,-29
1576771351.565791,626899.000,43817,3,MY,1,100,-30
1576771351.609282,626935.667,43835,3,MY,1,100,-29
1576771351.652773,626972.333,43835,3,MY,1,100,-29
1576771351.696265,627009.000,43835,3,MY,1,100,-28
1576771351.734221,627041.000,43853,3,MY,1,100,-29
1576771351.772177,627073.000,43853,3,MY,1,100,-28
1576771351.810133,627105.000,43853,3,MY,1,100,-31
1576771351.848879,627137.667,43870,3,MY,1,100,-29
1576771351.887626,627170.333,43870,3,MY,1,100,-29
1576771351.926373,627203.000,43870,3,MY,1,100,-29
1576771351.967096,627237.333,43888,3,MY,1,100,-30
1576771352.007820,627271.667,43888,3,MY,1,100,-31
1576771352.048543,627306.000,43888,3,MY,1,100,-31
1576771352.090058,627341.000,43904,3,MY,1,100,-32
1576771352.131572,627376.000,43904,3,MY,1,100,-32
1576771352.173086,627411.000,43904,3,MY,1,100,-32
1576771352.213810,627445.333,43922,3,MY,1,100,-31
1576771352.254533,627479.667,43922,3,MY,1,100,-30
1576771352.295257,627514.000,43922,3,MY,1,100,-32
1576771352.333213,627546.000,43940,3,MY,1,100,-32
1576771352.371169,627578.000,43940,3,MY,1,100,-31
1576771352.409125,627610.000,43940,3,MY,1,100,-32
1576771352.451034,627645.333,43959,3,MY,1,100,-33
1576771352.492944,627680.667,43959,3,MY,1,100,-31
1576771352.534854,627716.000,43959,3,MY,1,100,-32
1576771352.574786,627749.667,43977,3,MY,1,100,-32
1576771352.614719,627783.333,43977,3,MY,1,100,-32
1576771352.654652,627817.000,43977,3,MY,1,100,-31
1576771352.695771,627851.667,43995,3,MY,1,100,-31
1576771352.736890,627886.333,43995,3,MY,1,100,-31
1576771352.778009,627921.000,43995,3,MY,1,100,-32
1576771352.819523,627956.000,44013,2,MY,1,100,-30
1576771352.861037,627991.000,44013,2,MY,1,100,-32
1576771352.898993,628023.000,44031,4,MY,1,100,-32
1576771352.936949,628055.000,44031,4,MY,1,100,-30
1576771352.974905,628087.000,44031,4,MY,1,100,-30
1576771353.012861,628119.000,44031,4,MY,1,100,-30
1576771353.052399,628152.333,44048,3,MY,1,100,-29
1576771353.091936,628185.667,44048,3,MY,1,100,-29
1576771353.131474,628219.000,44048,3,MY,1,100,-31
1576771353.168639,628250.333,44066,3,MY,1,100,-29
1576771353.205804,628281.667,44066,3,MY,1,100,-30
1576771353.242969,628313.000,44066,3,MY,1,100,-30
1576771353.281321,628345.333,44084,3,MY,1,100,-31
1576771353.319672,628377.667,44084,3,MY,1,100,-30
1576771353.358023,628410.000,44084,3,MY,1,100,-31
1576771353.400328,628445.667,44102,3,MY,1,100,-31
1576771353.442633,628481.333,44102,3,MY,1,100,-30
1576771353.484938,628517.000,44102,3,MY,1,100,-28
1576771353.520997,628547.400,44124,5,MY,1,100,-30
1576771353.557055,628577.800,44124,5,MY,1,100,-31
1576771353.593113,628608.200,44124,5,MY,1,100,-32
1576771353.629171,628638.600,44124,5,MY,1,100,-29
1576771353.665229,628669.000,44124,5,MY,1,100,-31
1576771353.708720,628705.667,44144,3,MY,1,100,-31
1576771353.752211,628742.333,44144,3,MY,1,100,-30
1576771353.795702,628779.000,44144,3,MY,1,100,-30
1576771353.833658,628811.000,44162,3,MY,1,100,-32
1576771353.871614,628843.000,44162,3,MY,1,100,-31
1576771353.909570,628875.000,44162,3,MY,1,100,-29
1576771353.952666,628911.333,44179,3,MY,1,100,-30
1576771353.995762,628947.667,44179,3,MY,1,100,-28
1576771354.038858,628984.000,44179,3,MY,1,100,-30
1576771354.079977,629018.667,44197,3,MY,1,100,-27
1576771354.121096,629053.333,44197,3,MY,1,100,-29
1576771354.162215,629088.000,44197,3,MY,1,100,-28
1576771354.204322,629123.500,44213,2,MY,1,100,-29
1576771354.246429,629159.000,44213,2,MY,1,100,-28
1576771354.287944,629194.000,44231,4,MY,1,100,-28
1576771354.329458,629229.000,44231,4,MY,1,100,-28
1576771354.370972,629264.000,44231,4,MY,1,100,-29
1576771354.412487,629299.000,44231,4,MY,1,100,-29
1576771354.454001,629334.000,44250,2,MY,1,100,-28
1576771354.495515,629369.000,44250,2,MY,1,100,-28
1576771354.534064,629401.500,44268,4,MY,1,100,-27
1576771354.572613,629434.000,44268,4,MY,1,100,-29
1576771354.611162,629466.500,44268,4,MY,1,100,-29
1576771354.649711,629499.000,44268,4,MY,1,100,-28
1576771354.688063,629531.333,44286,3,MY,1,100,-29
1576771354.726414,629563.667,44286,3,MY,1,100,-29
1576771354.764765,629596.000,44286,3,MY,1,100,-29
1576771354.805489,629630.333,44304,3,MY,1,100,-30
1576771354.846212,629664.667,44304,3,MY,1,100,-30
1576771354.886936,629699.000,44304,3,MY,1,100,-28
1576771354.933195,629738.000,44322,2,MY,1,100,-29
1576771354.979454,629777.000,44322,2,MY,1,100,-29
1576771355.019782,629811.000,44339,3,MY,1,100,-29
1576771355.060110,629845.000,44339,3,MY,1,100,-30
1576771355.100438,629879.000,44339,3,MY,1,100,-30
1576771355.140766,629913.000,44357,3,MY,1,100,-28
1576771355.181094,629947.000,44357,3,MY,1,100,-31
1576771355.221423,629981.000,44357,3,MY,1,100,-29
1576771355.258983,630012.667,44375,3,MY,1,100,-29
1576771355.296544,630044.333,44375,3,MY,1,100,-30
1576771355.334104,630076.000,44375,3,MY,1,100,-29
1576771355.372851,630108.667,44391,3,MY,1,100,-28
1576771355.411598,630141.333,44391,3,MY,1,100,-29
1576771355.450344,630174.000,44391,3,MY,1,100,-29
1576771355.495812,630212.333,44410,3,MY,1,100,-29
1576771355.541281,630250.667,44410,3,MY,1,100,-29
1576771355.586749,630289.000,44410,3,MY,1,100,-30
1576771355.627472,630323.333,44428,3,MY,1,100,-28
1576771355.668196,630357.667,44428,3,MY,1,100,-31
1576771355.708919,630392.000,44428,3,MY,1,100,-29
1576771355.748852,630425.667,44446,3,MY,1,100,-29
1576771355.788785,630459.333,44446,3,MY,1,100,-30
1576771355.828718,630493.000,44446,3,MY,1,100,-31
1576771355.867069,630525.333,44464,3,MY,1,100,-29
1576771355.905420,630557.667,44464,3,MY,1,100,-29
1576771355.943772,630590.000,44464,3,MY,1,100,-30
1576771355.983309,630623.333,44482,3,MY,1,100,-29
1576771356.022846,630656.667,44482,3,MY,1,100,-29
1576771356.062384,630690.000,44482,3,MY,1,100,-28
1576771356.103898,630725.000,44500,3,MY,1,100,-30
1576771356.145412,630760.000,44500,3,MY,1,100,-30
1576771356.186927,630795.000,44500,3,MY,1,100,-29
1576771356.231604,630832.667,44517,3,MY,1,100,-29
1576771356.276281,630870.333,44517,3,MY,1,100,-29
1576771356.320959,630908.000,44517,3,MY,1,100,-31
1576771356.361287,630942.000,44535,3,MY,1,100,-31
1576771356.401615,630976.000,44535,3,MY,1,100,-30
1576771356.441943,631010.000,44535,3,MY,1,100,-30
1576771356.478713,631041.000,44554,3,MY,1,100,-31
1576771356.515483,631072.000,44554,3,MY,1,100,-29
1576771356.552253,631103.000,44554,3,MY,1,100,-29
1576771356.591790,631136.333,44570,3,MY,1,100,-30
1576771356.631328,631169.667,44570,3,MY,1,100,-31
1576771356.670865,631203.000,44570,3,MY,1,100,-32
1576771356.711589,631237.333,44588,3,MY,1,100,-30
1576771356.752312,631271.667,44588,3,MY,1,100,-29
1576771356.793036,631306.000,44588,3,MY,1,100,-31
1576771356.834155,631340.667,44606,3,MY,1,100,-30
1576771356.875274,631375.333,44606,3,MY,1,100,-30
1576771356.916393,631410.000,44606,3,MY,1,100,-29
1576771356.963244,631449.500,44624,2,MY,1,100,-31
1576771357.010096,631489.000,44624,2,MY,1,100,-30
1576771357.050128,631522.750,44642,4,MY,1,100,-29
1576771357.090160,631556.500,44642,4,MY,1,100,-31
1576771357.130191,631590.250,44642,4,MY,1,100,-29
1576771357.170223,631624.000,44642,4,MY,1,100,-30
1576771357.210551,631658.000,44660,2,MY,1,100,-29
1576771357.250879,631692.000,44660,2,MY,1,100,-28
1576771357.287649,631723.000,44678,3,MY,1,100,-29
1576771357.324419,631754.000,44678,3,MY,1,100,-31
1576771357.361189,631785.000,44678,3,MY,1,100,-33
1576771357.401814,631819.250,44696,4,MY,1,100,-33
1576771357.442438,631853.500,44696,4,MY,1,100,-33
1576771357.483063,631887.750,44696,4,MY,1,100,-33
1576771357.523688,631922.000,44696,4,MY,1,100,-33
1576771357.564609,631956.500,44714,2,MY,1,100,-33
1576771357.605530,631991.000,44714,2,MY,1,100,-32
1576771357.646254,632025.333,44730,3,MY,1,100,-30
1576771357.686977,632059.667,44730,3,MY,1,100,-30
1576771357.727701,632094.000,44730,3,MY,1,100,-32
1576771357.771983,632131.333,44748,3,MY,1,100,-32
1576771357.816265,632168.667,44748,3,MY,1,100,-32
1576771357.860547,632206.000,44748,3,MY,1,100,-32
1576771357.898107,632237.667,44766,3,MY,1,100,-30
1576771357.935668,632269.333,44766,3,MY,1,100,-31
1576771357.973228,632301.000,44766,3,MY,1,100,-31
1576771358.012370,632334.000,44784,3,MY,1,100,-31
1576771358.051512,632367.000,44784,3,MY,1,100,-31
1576771358.090654,632400.000,44784,3,MY,1,100,-35
1576771358.130192,632433.333,44802,3,MY,1,100,-33
1576771358.169729,632466.667,44802,3,MY,1,100,-34
1576771358.209267,632500.000,44802,3,MY,1,100,-35
1576771358.251176,632535.333,44820,3,MY,1,100,-35
1576771358.293086,632570.667,44820,3,MY,1,100,-34
1576771358.334996,632606.000,44820,3,MY,1,100,-36
1576771358.375719,632640.333,44838,3,MY,1,100,-36
1576771358.416443,632674.667,44838,3,MY,1,100,-38
1576771358.457166,632709.000,44838,3,MY,1,100,-37
1576771358.498286,632743.667,44856,3,MY,1,100,-40
1576771358.539404,632778.333,44856,3,MY,1,100,-39
1576771358.580523,632813.000,44856,3,MY,1,100,-40
1576771358.622038,632848.000,44874,3,MY,1,100,-43
1576771358.663552,632883.000,44874,3,MY,1,100,-40
1576771358.705066,632918.000,44874,3,MY,1,100,-42
1576771358.746185,632952.667,44892,3,MY,1,100,-39
1576771358.787304,632987.333,44892,3,MY,1,100,-41
1576771358.828423,633022.000,44892,3,MY,1,100,-41
1576771358.866774,633054.333,44908,3,MY,1,100,-40
1576771358.905126,633086.667,44908,3,MY,1,100,-39
1576771358.943477,633119.000,44908,3,MY,1,100,-42
1576771358.983410,633152.667,44926,3,MY,1,100,-39
1576771359.023343,633186.333,44926,3,MY,1,100,-38
1576771359.063275,633220.000,44926,3,MY,1,100,-38
1576771359.104394,633254.667,44944,3,MY,1,100,-36
1576771359.145513,633289.333,44944,3,MY,1,100,-36
1576771359.186632,633324.000,44944,3,MY,1,100,-36
1576771359.227751,633358.667,44962,3,MY,1,100,-35
1576771359.268870,633393.333,44962,3,MY,1,100,-36
1576771359.309989,633428.000,44962,3,MY,1,100,-36
1576771359.348340,633460.333,44980,3,MY,1,100,-35
1576771359.386692,633492.667,44980,3,MY,1,100,-37
1576771359.425043,633525.000,44980,3,MY,1,100,-36
1576771359.466162,633559.667,44999,3,MY,1,100,-37
1576771359.507281,633594.333,44999,3,MY,1,100,-37
1576771359.548400,633629.000,44999,3,MY,1,100,-36
1576771359.589202,633663.400,45020,5,MY,1,100,-38
1576771359.630005,633697.800,45020,5,MY,1,100,-38
1576771359.670808,633732.200,45020,5,MY,1,100,-38
1576771359.711610,633766.600,45020,5,MY,1,100,-39
1576771359.752413,633801.000,45020,5,MY,1,100,-38
1576771359.793334,633835.500,45040,2,MY,1,100,-38
1576771359.834255,633870.000,45040,2,MY,1,100,-39
1576771359.875374,633904.667,45058,3,MY,1,100,-39
1576771359.916493,633939.333,45058,3,MY,1,100,-39
1576771359.957612,633974.000,45058,3,MY,1,100,-39
1576771359.994975,634005.500,45076,4,MY,1,100,-39
1576771360.032338,634037.000,45076,4,MY,1,100,-39
1576771360.069701,634068.500,45076,4,MY,1,100,-40
1576771360.107064,634100.000,45076,4,MY,1,100,-40
1576771360.146799,634133.500,45094,2,MY,1,100,-39
1576771360.186534,634167.000,45094,2,MY,1,100,-41
1576771360.230816,634204.333,45112,3,MY,1,100,-39
1576771360.275098,634241.667,45112,3,MY,1,100,-40
1576771360.319380,634279.000,45112,3,MY,1,100,-39
1576771360.360103,634313.333,45130,3,MY,1,100,-38
1576771360.400827,634347.667,45130,3,MY,1,100,-41
1576771360.441550,634382.000,45130,3,MY,1,100,-38
1576771360.481879,634416.000,45148,3,MY,1,100,-39
1576771360.522207,634450.000,45148,3,MY,1,100,-40
1576771360.562535,634484.000,45148,3,MY,1,100,-39
1576771360.600886,634516.333,45166,3,MY,1,100,-40
1576771360.639238,634548.667,45166,3,MY,1,100,-40
1576771360.677589,634581.000,45166,3,MY,1,100,-40
1576771360.715545,634613.000,45184,4,MY,1,100,-41
1576771360.753501,634645.000,45184,4,MY,1,100,-40
1576771360.791457,634677.000,45184,4,MY,1,100,-39
1576771360.829413,634709.000,45184,4,MY,1,100,-40
1576771360.870927,634744.000,45200,2,MY,1,100,-40
1576771360.912441,634779.000,45200,2,MY,1,100,-39
1576771360.950793,634811.333,45218,3,MY,1,100,-39
1576771360.989144,634843.667,45218,3,MY,1,100,-40
1576771361.027495,634876.000,45218,3,MY,1,100,-40
1576771361.066638,634909.000,45236,4,MY,1,100,-41
1576771361.105779,634942.000,45236,4,MY,1,100,-39
1576771361.144922,634975.000,45236,4,MY,1,100,-40
1576771361.184064,635008.000,45236,4,MY,1,100,-41
1576771361.225578,635043.000,45254,2,MY,1,100,-39
1576771361.267092,635078.000,45254,2,MY,1,100,-40
1576771361.311769,635115.667,45272,3,MY,1,100,-40
1576771361.356447,635153.333,45272,3,MY,1,100,-41
1576771361.401124,635191.000,45272,3,MY,1,100,-41
1576771361.439476,635223.333,45291,3,MY,1,100,-39
1576771361.477827,635255.667,45291,3,MY,1,100,-40
1576771361.516178,635288.000,45291,3,MY,1,100,-40
1576771361.561251,635326.000,45309,3,MY,1,100,-39
1576771361.606323,635364.000,45309,3,MY,1,100,-40
1576771361.651396,635402.000,45309,3,MY,1,100,-41
1576771361.693306,635437.333,45326,3,MY,1,100,-41
1576771361.735215,635472.667,45326,3,MY,1,100,-40
1576771361.777125,635508.000,45326,3,MY,1,100,-39
1576771361.818244,635542.667,45342,3,MY,1,100,-40
1576771361.859363,635577.333,45342,3,MY,1,100,-39
1576771361.900482,635612.000,45342,3,MY,1,100,-37
1576771361.941996,635647.000,45360,3,MY,1,100,-38
1576771361.983510,635682.000,45360,3,MY,1,100,-39
1576771362.025025,635717.000,45360,3,MY,1,100,-40
1576771362.062585,635748.667,45378,3,MY,1,100,-40
1576771362.100146,635780.333,45378,3,MY,1,100,-40
1576771362.137707,635812.000,45378,3,MY,1,100,-39
1576771362.177244,635845.333,45396,3,MY,1,100,-40
1576771362.216781,635878.667,45396,3,MY,1,100,-41
1576771362.256319,635912.000,45396,3,MY,1,100,-39
1576771362.296252,635945.667,45414,3,MY,1,100,-39
1576771362.336185,635979.333,45414,3,MY,1,100,-39
1576771362.376117,636013.000,45414,3,MY,1,100,-39
1576771362.415655,636046.333,45432,3,MY,1,100,-39
1576771362.455192,636079.667,45432,3,MY,1,100,-39
1576771362.494730,636113.000,45432,3,MY,1,100,-39
1576771362.534662,636146.667,45451,3,MY,1,100,-39
1576771362.574595,636180.333,45451,3,MY,1,100,-39
1576771362.614528,636214.000,45451,3,MY,1,100,-40
1576771362.656042,636249.000,45469,2,MY,1,100,-39
1576771362.697557,636284.000,45469,2,MY,1,100,-39
1576771362.743025,636322.333,45486,3,MY,1,100,-39
1576771362.788493,636360.667,45486,3,MY,1,100,-39
1576771362.833961,636399.000,45486,3,MY,1,100,-39
1576771362.871324,636430.500,45504,4,MY,1,100,-38
1576771362.908687,636462.000,45504,4,MY,1,100,-40
1576771362.946049,636493.500,45504,4,MY,1,100,-39
1576771362.983413,636525.000,45504,4,MY,1,100,-39
1576771363.021368,636557.000,45522,3,MY,1,100,-40
1576771363.059324,636589.000,45522,3,MY,1,100,-40
1576771363.097280,636621.000,45522,3,MY,1,100,-40
1576771363.138004,636655.333,45538,3,MY,1,100,-40
1576771363.178727,636689.667,45538,3,MY,1,100,-40
1576771363.219451,636724.000,45538,3,MY,1,100,-39
1576771363.260175,636758.333,45556,3,MY,1,100,-38
1576771363.300898,636792.667,45556,3,MY,1,100,-39
1576771363.341622,636827.000,45556,3,MY,1,100,-40
1576771363.388474,636866.500,45574,2,MY,1,100,-39
1576771363.435325,636906.000,45574,2,MY,1,100,-40
1576771363.474072,636938.667,45593,3,MY,1,100,-40
1576771363.512819,636971.333,45593,3,MY,1,100,-40
1576771363.551565,637004.000,45593,3,MY,1,100,-39
1576771363.589521,637036.000,45611,3,MY,1,100,-41
1576771363.627477,637068.000,45611,3,MY,1,100,-39
1576771363.665433,637100.000,45611,3,MY,1,100,-40
1576771363.705465,637133.750,45629,4,MY,1,100,-39
1576771363.745497,637167.500,45629,4,MY,1,100,-39
1576771363.785528,637201.250,45629,4,MY,1,100,-39
1576771363.825560,637235.000,45629,4,MY,1,100,-40
1576771363.867074,637270.000,45647,2,MY,1,100,-38
1576771363.908588,637305.000,45647,2,MY,1,100,-40
1576771363.949707,637339.667,45664,3,MY,1,100,-39
1576771363.990826,637374.333,45664,3,MY,1,100,-40
1576771364.031945,637409.000,45664,3,MY,1,100,-39
1576771364.073855,637444.333,45682,3,MY,1,100,-38
1576771364.115765,637479.667,45682,3,MY,1,100,-40
1576771364.157674,637515.000,45682,3,MY,1,100,-39
1576771364.196026,637547.333,45700,3,MY,1,100,-39
1576771364.234377,637579.667,45700,3,MY,1,100,-39
1576771364.272728,637612.000,45700,3,MY,1,100,-39
1576771364.311870,637645.000,45716,3,MY,1,100,-40
1576771364.351012,637678.000,45716,3,MY,1,100,-39
1576771364.390154,637711.000,45716,3,MY,1,100,-39
1576771364.431669,637746.000,45735,3,MY,1,100,-40
1576771364.473183,637781.000,45735,3,MY,1,100,-39
1576771364.514697,637816.000,45735,3,MY,1,100,-39
1576771364.555816,637850.667,45753,3,MY,1,100,-39
1576771364.596935,637885.333,45753,3,MY,1,100,-37
1576771364.638054,637920.000,45753,3,MY,1,100,-39
1576771364.680755,637956.000,45771,3,MY,1,100,-38
1576771364.723455,637992.000,45771,3,MY,1,100,-40
1576771364.766155,638028.000,45771,3,MY,1,100,-39
1576771364.804507,638060.333,45789,3,MY,1,100,-40
1576771364.842858,638092.667,45789,3,MY,1,100,-40
1576771364.881209,638125.000,45789,3,MY,1,100,-40
1576771364.919561,638157.333,45807,3,MY,1,100,-39
1576771364.957912,638189.667,45807,3,MY,1,100,-40
1576771364.996263,638222.000,45807,3,MY,1,100,-40
1576771365.032638,638252.667,45825,3,MY,1,100,-41
1576771365.069012,638283.333,45825,3,MY,1,100,-41
1576771365.105387,638314.000,45825,3,MY,1,100,-43
1576771365.146110,638348.333,45843,3,MY,1,100,-40
1576771365.186834,638382.667,45843,3,MY,1,100,-42
1576771365.227557,638417.000,45843,3,MY,1,100,-42
1576771365.263734,638447.500,45861,4,MY,1,100,-41
1576771365.299911,638478.000,45861,4,MY,1,100,-40
1576771365.336088,638508.500,45861,4,MY,1,100,-42
1576771365.372264,638539.000,45861,4,MY,1,100,-42
1576771365.412593,638573.000,45879,3,MY,1,100,-41
1576771365.452921,638607.000,45879,3,MY,1,100,-41
1576771365.493249,638641.000,45879,3,MY,1,100,-42
1576771365.530019,638672.000,45897,3,MY,1,100,-41
1576771365.566789,638703.000,45897,3,MY,1,100,-43
1576771365.603558,638734.000,45897,3,MY,1,100,-42
1576771365.644361,638768.400,45918,5,MY,1,100,-42
1576771365.685164,638802.800,45918,5,MY,1,100,-42
1576771365.725966,638837.200,45918,5,MY,1,100,-40
1576771365.766769,638871.600,45918,5,MY,1,100,-43
1576771365.807572,638906.000,45918,5,MY,1,100,-42
1576771365.848493,638940.500,45936,2,MY,1,100,-42
1576771365.889414,638975.000,45936,2,MY,1,100,-41
1576771365.930533,639009.667,45956,3,MY,1,100,-43
1576771365.971652,639044.333,45956,3,MY,1,100,-41
1576771366.012771,639079.000,45956,3,MY,1,100,-43
1576771366.053494,639113.333,45974,3,MY,1,100,-42
1576771366.094218,639147.667,45974,3,MY,1,100,-40
1576771366.134942,639182.000,45974,3,MY,1,100,-42
1576771366.173688,639214.667,45991,3,MY,1,100,-42
1576771366.212435,639247.333,45991,3,MY,1,100,-40
1576771366.251182,639280.000,45991,3,MY,1,100,-42
1576771366.291905,639314.333,46009,3,MY,1,100,-40
1576771366.332629,639348.667,46009,3,MY,1,100,-41
1576771366.373352,639383.000,46009,3,MY,1,100,-43
1576771366.411308,639415.000,46028,4,MY,1,100,-41
1576771366.449264,639447.000,46028,4,MY,1,100,-42
1576771366.487220,639479.000,46028,4,MY,1,100,-43
1576771366.525176,639511.000,46028,4,MY,1,100,-41
1576771366.570249,639549.000,46044,2,MY,1,100,-40
1576771366.615321,639587.000,46044,2,MY,1,100,-43
1576771366.656836,639622.000,46062,3,MY,1,100,-42
1576771366.698350,639657.000,46062,3,MY,1,100,-40
1576771366.739864,639692.000,46062,3,MY,1,100,-42
1576771366.780193,639726.000,46080,3,MY,1,100,-40
1576771366.820521,639760.000,46080,3,MY,1,100,-42
1576771366.860849,639794.000,46080,3,MY,1,100,-41
1576771366.901572,639828.333,46098,3,MY,1,100,-41
1576771366.942296,639862.667,46098,3,MY,1,100,-42
1576771366.983020,639897.000,46098,3,MY,1,100,-42
1576771367.020185,639928.333,46116,3,MY,1,100,-42
1576771367.057350,639959.667,46116,3,MY,1,100,-40
1576771367.094515,639991.000,46116,3,MY,1,100,-42
1576771367.133262,640023.667,46134,3,MY,1,100,-43
1576771367.172009,640056.333,46134,3,MY,1,100,-41
1576771367.210755,640089.000,46134,3,MY,1,100,-42
1576771367.256223,640127.333,46152,3,MY,1,100,-42
1576771367.301691,640165.667,46152,3,MY,1,100,-42
1576771367.347159,640204.000,46152,3,MY,1,100,-43
1576771367.387883,640238.333,46170,3,MY,1,100,-40
1576771367.428607,640272.667,46170,3,MY,1,100,-42
1576771367.469330,640307.000,46170,3,MY,1,100,-41
1576771367.510054,640341.333,46188,3,MY,1,100,-42
1576771367.550777,640375.667,46188,3,MY,1,100,-42
1576771367.591501,640410.000,46188,3,MY,1,100,-42
1576771367.629457,640442.000,46206,3,MY,1,100,-43
1576771367.667413,640474.000,46206,3,MY,1,100,-41
1576771367.705369,640506.000,46206,3,MY,1,100,-41
1576771367.743720,640538.333,46222,3,MY,1,100,-42
1576771367.782071,640570.667,46222,3,MY,1,100,-42
1576771367.820423,640603.000,46222,3,MY,1,100,-40
1576771367.861542,640637.667,46240,3,MY,1,100,-41
1576771367.902660,640672.333,46240,3,MY,1,100,-39
1576771367.943779,640707.000,46240,3,MY,1,100,-40
1576771367.988457,640744.667,46258,3,MY,1,100,-42
1576771368.033134,640782.333,46258,3,MY,1,100,-41
1576771368.077811,640820.000,46258,3,MY,1,100,-40
1576771368.118930,640854.667,46276,3,MY,1,100,-40
1576771368.160049,640889.333,46276,3,MY,1,100,-40
1576771368.201168,640924.000,46276,3,MY,1,100,-39
1576771368.237938,640955.000,46294,3,MY,1,100,-38
1576771368.274708,640986.000,46294,3,MY,1,100,-39
1576771368.311477,641017.000,46294,3,MY,1,100,-39
1576771368.351015,641050.333,46312,3,MY,1,100,-39
1576771368.390552,641083.667,46312,3,MY,1,100,-40
1576771368.430090,641117.000,46312,3,MY,1,100,-40
1576771368.470023,641150.667,46331,3,MY,1,100,-40
1576771368.509955,641184.333,46331,3,MY,1,100,-40
1576771368.549888,641218.000,46331,3,MY,1,100,-41
1576771368.592193,641253.667,46348,3,MY,1,100,-42
1576771368.634498,641289.333,46348,3,MY,1,100,-40
1576771368.676803,641325.000,46348,3,MY,1,100,-40
1576771368.717132,641359.000,46366,3,MY,1,100,-40
1576771368.757460,641393.000,46366,3,MY,1,100,-40
1576771368.797788,641427.000,46366,3,MY,1,100,-40
1576771368.844047,641466.000,46382,2,MY,1,100,-41
1576771368.890306,641505.000,46382,2,MY,1,100,-41
1576771368.931820,641540.000,46400,3,MY,1,100,-42
1576771368.973334,641575.000,46400,3,MY,1,100,-39
1576771369.014848,641610.000,46400,3,MY,1,100,-40
1576771369.055572,641644.333,46418,3,MY,1,100,-39
1576771369.096296,641678.667,46418,3,MY,1,100,-39
1576771369.137019,641713.000,46418,3,MY,1,100,-40
1576771369.177347,641747.000,46436,3,MY,1,100,-37
1576771369.217676,641781.000,46436,3,MY,1,100,-37
1576771369.258004,641815.000,46436,3,MY,1,100,-35
1576771369.300309,641850.667,46454,3,MY,1,100,-35
1576771369.342614,641886.333,46454,3,MY,1,100,-36
1576771369.384919,641922.000,46454,3,MY,1,100,-36
1576771369.422480,641953.667,46473,3,MY,1,100,-35
1576771369.460040,641985.333,46473,3,MY,1,100,-35
1576771369.497601,642017.000,46473,3,MY,1,100,-35
1576771369.542673,642055.000,46490,3,MY,1,100,-35
1576771369.587746,642093.000,46490,3,MY,1,100,-35
1576771369.632819,642131.000,46490,3,MY,1,100,-36
1576771369.671170,642163.333,46508,3,MY,1,100,-36
1576771369.709521,642195.667,46508,3,MY,1,100,-36
1576771369.747873,642228.000,46508,3,MY,1,100,-36
1576771369.786619,642260.667,46526,3,MY,1,100,-36
1576771369.825366,642293.333,46526,3,MY,1,100,-35
1576771369.864113,642326.000,46526,3,MY,1,100,-36
1576771369.903650,642359.333,46542,3,MY,1,100,-36
1576771369.943187,642392.667,46542,3,MY,1,100,-36
1576771369.982725,642426.000,46542,3,MY,1,100,-36
1576771370.023844,642460.667,46560,3,MY,1,100,-37
1576771370.064963,642495.333,46560,3,MY,1,100,-37
1576771370.106082,642530.000,46560,3,MY,1,100,-34
1576771370.148189,642565.500,46578,2,MY,1,100,-38
1576771370.190297,642601.000,46578,2,MY,1,100,-36
1576771370.232404,642636.500,46596,4,MY,1,100,-36
1576771370.274511,642672.000,46596,4,MY,1,100,-36
1576771370.316619,642707.500,46596,4,MY,1,100,-36
1576771370.358726,642743.000,46596,4,MY,1,100,-36
1576771370.399647,642777.500,46614,2,MY,1,100,-36
1576771370.440568,642812.000,46614,2,MY,1,100,-36
1576771370.483664,642848.333,46633,3,MY,1,100,-36
1576771370.526760,642884.667,46633,3,MY,1,100,-36
1576771370.569856,642921.000,46633,3,MY,1,100,-36
1576771370.607812,642953.000,46651,4,MY,1,100,-36
1576771370.645768,642985.000,46651,4,MY,1,100,-36
1576771370.683724,643017.000,46651,4,MY,1,100,-36
1576771370.721680,643049.000,46651,4,MY,1,100,-36
1576771370.761415,643082.500,46668,2,MY,1,100,-36
1576771370.801150,643116.000,46668,2,MY,1,100,-35
1576771370.841874,643150.333,46686,3,MY,1,100,-38
1576771370.882597,643184.667,46686,3,MY,1,100,-34
1576771370.923321,643219.000,46686,3,MY,1,100,-35
1576771370.964440,643253.667,46702,3,MY,1,100,-37
1576771371.005558,643288.333,46702,3,MY,1,100,-35
1576771371.046677,643323.000,46702,3,MY,1,100,-36
1576771371.090564,643360.000,46720,3,MY,1,100,-36
1576771371.134451,643397.000,46720,3,MY,1,100,-36
1576771371.178337,643434.000,46720,3,MY,1,100,-37
1576771371.215502,643465.333,46738,3,MY,1,100,-36
1576771371.252667,643496.667,46738,3,MY,1,100,-35
1576771371.289833,643528.000,46738,3,MY,1,100,-34
1576771371.329370,643561.333,46756,3,MY,1,100,-36
1576771371.368908,643594.667,46756,3,MY,1,100,-35
1576771371.408445,643628.000,46756,3,MY,1,100,-35
1576771371.449564,643662.667,46775,3,MY,1,100,-36
1576771371.490683,643697.333,46775,3,MY,1,100,-36
1576771371.531802,643732.000,46775,3,MY,1,100,-35
1576771371.572921,643766.667,46793,3,MY,1,100,-35
1576771371.614040,643801.333,46793,3,MY,1,100,-35
1576771371.655159,643836.000,46793,3,MY,1,100,-35
1576771371.696673,643871.000,46814,5,MY,1,100,-35
1576771371.738187,643906.000,46814,5,MY,1,100,-36
1576771371.779701,643941.000,46814,5,MY,1,100,-36
1576771371.821216,643976.000,46814,5,MY,1,100,-35
1576771371.862730,644011.000,46814,5,MY,1,100,-36
1576771371.899895,644042.333,46832,3,MY,1,100,-36
1576771371.937061,644073.667,46832,3,MY,1,100,-37
1576771371.974226,644105.000,46832,3,MY,1,100,-37
1576771372.014949,644139.333,46852,3,MY,1,100,-38
1576771372.055673,644173.667,46852,3,MY,1,100,-36
1576771372.096396,644208.000,46852,3,MY,1,100,-37
1576771372.137515,644242.667,46870,3,MY,1,100,-37
1576771372.178634,644277.333,46870,3,MY,1,100,-37
1576771372.219753,644312.000,46870,3,MY,1,100,-37
1576771372.260477,644346.333,46888,3,MY,1,100,-37
1576771372.301200,644380.667,46888,3,MY,1,100,-37
1576771372.341924,644415.000,46888,3,MY,1,100,-38
1576771372.380275,644447.333,46906,3,MY,1,100,-36
1576771372.418627,644479.667,46906,3,MY,1,100,-37
1576771372.456978,644512.000,46906,3,MY,1,100,-37
1576771372.498492,644547.000,46925,3,MY,1,100,-38
1576771372.540006,644582.000,46925,3,MY,1,100,-36
1576771372.581521,644617.000,46925,3,MY,1,100,-36
1576771372.623628,644652.500,46942,2,MY,1,100,-37
1576771372.665735,644688.000,46942,2,MY,1,100,-37
1576771372.705174,644721.250,46960,4,MY,1,100,-37
1576771372.744613,644754.500,46960,4,MY,1,100,-37
1576771372.784051,644787.750,46960,4,MY,1,100,-38
1576771372.823490,644821.000,46960,4,MY,1,100,-36
1576771372.863027,644854.333,46978,3,MY,1,100,-36
1576771372.902565,644887.667,46978,3,MY,1,100,-37
1576771372.942102,644921.000,46978,3,MY,1,100,-38
1576771372.982826,644955.333,46994,3,MY,1,100,-36
1576771373.023549,644989.667,46994,3,MY,1,100,-36
1576771373.064273,645024.000,46994,3,MY,1,100,-37
1576771373.102229,645056.000,47012,3,MY,1,100,-38
1576771373.140185,645088.000,47012,3,MY,1,100,-38
1576771373.178141,645120.000,47012,3,MY,1,100,-37
1576771373.216097,645152.000,47030,3,MY,1,100,-37
1576771373.254053,645184.000,47030,3,MY,1,100,-37
1576771373.292009,645216.000,47030,3,MY,1,100,-36
1576771373.333127,645250.667,47048,3,MY,1,100,-37
1576771373.374246,645285.333,47048,3,MY,1,100,-37
1576771373.415365,645320.000,47048,3,MY,1,100,-36
1576771373.455693,645354.000,47067,3,MY,1,100,-37
1576771373.496022,645388.000,47067,3,MY,1,100,-36
1576771373.536350,645422.000,47067,3,MY,1,100,-37
1576771373.577469,645456.667,47085,3,MY,1,100,-37
1576771373.618588,645491.333,47085,3,MY,1,100,-37
1576771373.659707,645526.000,47085,3,MY,1,100,-37
1576771373.701221,645561.000,47103,3,MY,1,100,-37
1576771373.742735,645596.000,47103,3,MY,1,100,-37
1576771373.784250,645631.000,47103,3,MY,1,100,-38
1576771373.824578,645665.000,47120,3,MY,1,100,-37
1576771373.864906,645699.000,47120,3,MY,1,100,-37
1576771373.905234,645733.000,47120,3,MY,1,100,-37
1576771373.947342,645768.500,47138,2,MY,1,100,-36
1576771373.989449,645804.000,47138,2,MY,1,100,-37
1576771374.027405,645836.000,47156,4,MY,1,100,-36
1576771374.065361,645868.000,47156,4,MY,1,100,-35
1576771374.103317,645900.000,47156,4,MY,1,100,-36
1576771374.141273,645932.000,47156,4,MY,1,100,-36
1576771374.180810,645965.333,47172,3,MY,1,100,-37
1576771374.220348,645998.667,47172,3,MY,1,100,-37
1576771374.259885,646032.000,47172,3,MY,1,100,-36
1576771374.305551,646070.500,47190,2,MY,1,100,-36
1576771374.351217,646109.000,47190,2,MY,1,100,-36
1576771374.391149,646142.667,47209,3,MY,1,100,-36
1576771374.431082,646176.333,47209,3,MY,1,100,-36
1576771374.471015,646210.000,47209,3,MY,1,100,-36
1576771374.512925,646245.333,47227,3,MY,1,100,-35
1576771374.554834,646280.667,47227,3,MY,1,100,-36
1576771374.596744,646316.000,47227,3,MY,1,100,-35
1576771374.635095,646348.333,47245,3,MY,1,100,-35
1576771374.673447,646380.667,47245,3,MY,1,100,-36
1576771374.711798,646413.000,47245,3,MY,1,100,-37
1576771374.749457,646444.750,47263,4,MY,1,100,-36
1576771374.787117,646476.500,47263,4,MY,1,100,-36
1576771374.824776,646508.250,47263,4,MY,1,100,-35
1576771374.862436,646540.000,47263,4,MY,1,100,-36
1576771374.908695,646579.000,47281,2,MY,1,100,-37
1576771374.954953,646618.000,47281,2,MY,1,100,-37
1576771374.996072,646652.667,47299,3,MY,1,100,-38
1576771375.037191,646687.333,47299,3,MY,1,100,-37
1576771375.078310,646722.000,47299,3,MY,1,100,-37
1576771375.119429,646756.667,47316,3,MY,1,100,-36
1576771375.160548,646791.333,47316,3,MY,1,100,-37
1576771375.201667,646826.000,47316,3,MY,1,100,-34
1576771375.241204,646859.333,47334,3,MY,1,100,-34
1576771375.280742,646892.667,47334,3,MY,1,100,-33
1576771375.320279,646926.000,47334,3,MY,1,100,-30
1576771375.358235,646958.000,47350,3,MY,1,100,-31
1576771375.396191,646990.000,47350,3,MY,1,100,-31
1576771375.434147,647022.000,47350,3,MY,1,100,-30
1576771375.473684,647055.333,47369,3,MY,1,100,-31
1576771375.513222,647088.667,47369,3,MY,1,100,-31
1576771375.552759,647122.000,47369,3,MY,1,100,-33
1576771375.597832,647160.000,47387,3,MY,1,100,-34
1576771375.642905,647198.000,47387,3,MY,1,100,-33
1576771375.687977,647236.000,47387,3,MY,1,100,-35
1576771375.729096,647270.667,47405,3,MY,1,100,-34
1576771375.770215,647305.333,47405,3,MY,1,100,-33
1576771375.811334,647340.000,47405,3,MY,1,100,-31
1576771375.850476,647373.000,47423,3,MY,1,100,-30
1576771375.889618,647406.000,47423,3,MY,1,100,-31
1576771375.928760,647439.000,47423,3,MY,1,100,-29
1576771375.967112,647471.333,47441,3,MY,1,100,-25
1576771376.005463,647503.667,47441,3,MY,1,100,-24
1576771376.043814,647536.000,47441,3,MY,1,100,-24
1576771376.082165,647568.333,47459,3,MY,1,100,-24
1576771376.120517,647600.667,47459,3,MY,1,100,-25
1576771376.158868,647633.000,47459,3,MY,1,100,-28
1576771376.203546,647670.667,47477,3,MY,1,100,-31
1576771376.248223,647708.333,47477,3,MY,1,100,-32
1576771376.292900,647746.000,47477,3,MY,1,100,-33
1576771376.334019,647780.667,47494,3,MY,1,100,-31
1576771376.375138,647815.333,47494,3,MY,1,100,-32
1576771376.416257,647850.000,47494,3,MY,1,100,-30
1576771376.458562,647885.667,47513,3,MY,1,100,-33
1576771376.500867,647921.333,47513,3,MY,1,100,-34
1576771376.543172,647957.000,47513,3,MY,1,100,-32
1576771376.584686,647992.000,47529,2,MY,1,100,-33
1576771376.626201,648027.000,47529,2,MY,1,100,-34
1576771376.668506,648062.667,47547,3,MY,1,100,-34
1576771376.710811,648098.333,47547,3,MY,1,100,-34
1576771376.753116,648134.000,47547,3,MY,1,100,-35
1576771376.794630,648169.000,47565,3,MY,1,100,-34
1576771376.836144,648204.000,47565,3,MY,1,100,-33
1576771376.877659,648239.000,47565,3,MY,1,100,-34
1576771376.919173,648274.000,47583,3,MY,1,100,-33
1576771376.960687,648309.000,47583,3,MY,1,100,-35
1576771377.002202,648344.000,47583,3,MY,1,100,-35
1576771377.040948,648376.667,47601,3,MY,1,100,-33
1576771377.079695,648409.333,47601,3,MY,1,100,-35
1576771377.118442,648442.000,47601,3,MY,1,100,-34
1576771377.162724,648479.333,47618,3,MY,1,100,-35
1576771377.207006,648516.667,47618,3,MY,1,100,-34
1576771377.251288,648554.000,47618,3,MY,1,100,-33
1576771377.292011,648588.333,47636,3,MY,1,100,-35
1576771377.332735,648622.667,47636,3,MY,1,100,-35
1576771377.373458,648657.000,47636,3,MY,1,100,-33
1576771377.411810,648689.333,47654,3,MY,1,100,-33
1576771377.450161,648721.667,47654,3,MY,1,100,-35
1576771377.488512,648754.000,47654,3,MY,1,100,-34
1576771377.527259,648786.667,47671,3,MY,1,100,-33
1576771377.566006,648819.333,47671,3,MY,1,100,-32
1576771377.604752,648852.000,47671,3,MY,1,100,-33
1576771377.645871,648886.667,47689,3,MY,1,100,-34
1576771377.686990,648921.333,47689,3,MY,1,100,-34
1576771377.728109,648956.000,47689,3,MY,1,100,-33
1576771377.767963,648989.600,47710,5,MY,1,100,-33
1576771377.807817,649023.200,47710,5,MY,1,100,-34
1576771377.847670,649056.800,47710,5,MY,1,100,-35
1576771377.887524,649090.400,47710,5,MY,1,100,-33
1576771377.927378,649124.000,47710,5,MY,1,100,-33
1576771377.968892,649159.000,47730,2,MY,1,100,-33
1576771378.010406,649194.000,47730,2,MY,1,100,-34
1576771378.055874,649232.333,47746,3,MY,1,100,-33
1576771378.101342,649270.667,47746,3,MY,1,100,-33
1576771378.146811,649309.000,47746,3,MY,1,100,-33
1576771378.185557,649341.667,47764,3,MY,1,100,-34
1576771378.224304,649374.333,47764,3,MY,1,100,-33
1576771378.263051,649407.000,47764,3,MY,1,100,-33
1576771378.301007,649439.000,47782,3,MY,1,100,-35
1576771378.338963,649471.000,47782,3,MY,1,100,-33
1576771378.376919,649503.000,47782,3,MY,1,100,-34
1576771378.416456,649536.333,47801,3,MY,1,100,-33
1576771378.455993,649569.667,47801,3,MY,1,100,-34
1576771378.495531,649603.000,47801,3,MY,1,100,-35
1576771378.536650,649637.667,47819,3,MY,1,100,-34
1576771378.577769,649672.333,47819,3,MY,1,100,-35
1576771378.618888,649707.000,47819,3,MY,1,100,-34
1576771378.660007,649741.667,47837,3,MY,1,100,-33
1576771378.701125,649776.333,47837,3,MY,1,100,-33
1576771378.742244,649811.000,47837,3,MY,1,100,-34
1576771378.785340,649847.333,47855,3,MY,1,100,-33
1576771378.828436,649883.667,47855,3,MY,1,100,-33
1576771378.871532,649920.000,47855,3,MY,1,100,-34
1576771378.909488,649952.000,47873,3,MY,1,100,-33
1576771378.947444,649984.000,47873,3,MY,1,100,-34
1576771378.985400,650016.000,47873,3,MY,1,100,-33
1576771379.024542,650049.000,47890,3,MY,1,100,-33
1576771379.063684,650082.000,47890,3,MY,1,100,-34
1576771379.102826,650115.000,47890,3,MY,1,100,-34
1576771379.144340,650150.000,47908,3,MY,1,100,-34
1576771379.185854,650185.000,47908,3,MY,1,100,-33
1576771379.227369,650220.000,47908,3,MY,1,100,-34
1576771379.268883,650255.000,47924,3,MY,1,100,-35
1576771379.310397,650290.000,47924,3,MY,1,100,-36
1576771379.351912,650325.000,47924,3,MY,1,100,-34
1576771379.392240,650359.000,47942,2,MY,1,100,-33
1576771379.432568,650393.000,47942,2,MY,1,100,-34
1576771379.472303,650426.500,47961,4,MY,1,100,-35
1576771379.512038,650460.000,47961,4,MY,1,100,-35
1576771379.551773,650493.500,47961,4,MY,1,100,-34
1576771379.591509,650527.000,47961,4,MY,1,100,-34
1576771379.631837,650561.000,47979,3,MY,1,100,-33
1576771379.672165,650595.000,47979,3,MY,1,100,-35
1576771379.712493,650629.000,47979,3,MY,1,100,-35
1576771379.752821,650663.000,47997,3,MY,1,100,-35
1576771379.793149,650697.000,47997,3,MY,1,100,-33
1576771379.833478,650731.000,47997,3,MY,1,100,-36
1576771379.874201,650765.333,48015,3,MY,1,100,-34
1576771379.914925,650799.667,48015,3,MY,1,100,-35
1576771379.955648,650834.000,48015,3,MY,1,100,-34
1576771379.996767,650868.667,48033,3,MY,1,100,-32
1576771380.037886,650903.333,48033,3,MY,1,100,-33
1576771380.079005,650938.000,48033,3,MY,1,100,-35
1576771380.119333,650972.000,48051,3,MY,1,100,-33
1576771380.159662,651006.000,48051,3,MY,1,100,-34
1576771380.199990,651040.000,48051,3,MY,1,100,-33
1576771380.236364,651070.667,48069,3,MY,1,100,-32
1576771380.272739,651101.333,48069,3,MY,1,100,-31
1576771380.309113,651132.000,48069,3,MY,1,100,-31
1576771380.350232,651166.667,48086,3,MY,1,100,-31
1576771380.391351,651201.333,48086,3,MY,1,100,-32
1576771380.432470,651236.000,48086,3,MY,1,100,-33
1576771380.467658,651265.667,48105,3,MY,1,100,-35
1576771380.502846,651295.333,48105,3,MY,1,100,-37
1576771380.538035,651325.000,48105,3,MY,1,100,-42
1576771380.580340,651360.667,48123,3,MY,1,100,-40
1576771380.622645,651396.333,48123,3,MY,1,100,-42
1576771380.664950,651432.000,48123,3,MY,1,100,-43
1576771380.699347,651461.000,48141,3,MY,1,100,-44
1576771380.733745,651490.000,48141,3,MY,1,100,-42
1576771380.768143,651519.000,48141,3,MY,1,100,-44
1576771380.807680,651552.333,48157,3,MY,1,100,-44
1576771380.847218,651585.667,48157,3,MY,1,100,-43
1576771380.886755,651619.000,48157,3,MY,1,100,-45
1576771380.927479,651653.333,48175,3,MY,1,100,-43
1576771380.968202,651687.667,48175,3,MY,1,100,-44
1576771381.008926,651722.000,48175,3,MY,1,100,-43
1576771381.048068,651755.000,48193,3,MY,1,100,-43
1576771381.087210,651788.000,48193,3,MY,1,100,-44
1576771381.126352,651821.000,48193,3,MY,1,100,-46
1576771381.167866,651856.000,48211,3,MY,1,100,-44
1576771381.209380,651891.000,48211,3,MY,1,100,-44
1576771381.250895,651926.000,48211,3,MY,1,100,-45
1576771381.291618,651960.333,48229,3,MY,1,100,-42
1576771381.332342,651994.667,48229,3,MY,1,100,-44
1576771381.373065,652029.000,48229,3,MY,1,100,-42
1576771381.414975,652064.333,48248,3,MY,1,100,-44
1576771381.456885,652099.667,48248,3,MY,1,100,-43
1576771381.498795,652135.000,48248,3,MY,1,100,-43
1576771381.540309,652170.000,48266,3,MY,1,100,-43
1576771381.581823,652205.000,48266,3,MY,1,100,-44
1576771381.623338,652240.000,48266,3,MY,1,100,-44
1576771381.662875,652273.333,48283,3,MY,1,100,-44
1576771381.702412,652306.667,48283,3,MY,1,100,-43
1576771381.741950,652340.000,48283,3,MY,1,100,-42
1576771381.780301,652372.333,48301,3,MY,1,100,-44
1576771381.818652,652404.667,48301,3,MY,1,100,-42
1576771381.857004,652437.000,48301,3,MY,1,100,-42
1576771381.899309,652472.667,48319,3,MY,1,100,-43
1576771381.941614,652508.333,48319,3,MY,1,100,-42
1576771381.983919,652544.000,48319,3,MY,1,100,-41
1576771382.024642,652578.333,48335,3,MY,1,100,-42
1576771382.065366,652612.667,48335,3,MY,1,100,-42
1576771382.106090,652647.000,48335,3,MY,1,100,-42
1576771382.147208,652681.667,48353,3,MY,1,100,-42
1576771382.188328,652716.333,48353,3,MY,1,100,-43
1576771382.229446,652751.000,48353,3,MY,1,100,-42
1576771382.269775,652785.000,48371,3,MY,1,100,-42
1576771382.310103,652819.000,48371,3,MY,1,100,-42
1576771382.350431,652853.000,48371,3,MY,1,100,-42
1576771382.387596,652884.333,48390,3,MY,1,100,-42
1576771382.424761,652915.667,48390,3,MY,1,100,-41
1576771382.461926,652947.000,48390,3,MY,1,100,-41
1576771382.501464,652980.333,48408,3,MY,1,100,-42
1576771382.541001,653013.667,48408,3,MY,1,100,-41
1576771382.580539,653047.000,48408,3,MY,1,100,-42
1576771382.624821,653084.333,48426,3,MY,1,100,-42
1576771382.669103,653121.667,48426,3,MY,1,100,-41
1576771382.713385,653159.000,48426,3,MY,1,100,-42
1576771382.754503,653193.667,48444,3,MY,1,100,-41
1576771382.795623,653228.333,48444,3,MY,1,100,-42
1576771382.836741,653263.000,48444,3,MY,1,100,-43
1576771382.878849,653298.500,48461,2,MY,1,100,-42
1576771382.920956,653334.000,48461,2,MY,1,100,-42
1576771382.958023,653365.250,48479,4,MY,1,100,-42
1576771382.995089,653396.500,48479,4,MY,1,100,-42
1576771383.032155,653427.750,48479,4,MY,1,100,-42
1576771383.069221,653459.000,48479,4,MY,1,100,-45
1576771383.108364,653492.000,48497,3,MY,1,100,-43
1576771383.147506,653525.000,48497,3,MY,1,100,-40
1576771383.186648,653558.000,48497,3,MY,1,100,-42
1576771383.233500,653597.500,48513,2,MY,1,100,-43
1576771383.280351,653637.000,48513,2,MY,1,100,-41
1576771383.321866,653672.000,48531,3,MY,1,100,-40
1576771383.363380,653707.000,48531,3,MY,1,100,-42
1576771383.404894,653742.000,48531,3,MY,1,100,-42
1576771383.445618,653776.333,48550,3,MY,1,100,-43
1576771383.486341,653810.667,48550,3,MY,1,100,-42
1576771383.527065,653845.000,48550,3,MY,1,100,-41
1576771383.565416,653877.333,48568,3,MY,1,100,-41
1576771383.603768,653909.667,48568,3,MY,1,100,-42
1576771383.642119,653942.000,48568,3,MY,1,100,-42
1576771383.679778,653973.750,48586,4,MY,1,100,-42
1576771383.717438,654005.500,48586,4,MY,1,100,-43
1576771383.755097,654037.250,48586,4,MY,1,100,-41
1576771383.792757,654069.000,48586,4,MY,1,100,-42
1576771383.836643,654106.000,48605,4,MY,1,100,-40
1576771383.880530,654143.000,48605,4,MY,1,100,-43
1576771383.924416,654180.000,48605,4,MY,1,100,-41
1576771383.968303,654217.000,48605,4,MY,1,100,-42
1576771384.006654,654249.333,48626,3,MY,1,100,-42
1576771384.045006,654281.667,48626,3,MY,1,100,-41
1576771384.083357,654314.000,48626,3,MY,1,100,-40
1576771384.128429,654352.000,48644,3,MY,1,100,-40
1576771384.173502,654390.000,48644,3,MY,1,100,-41
1576771384.218575,654428.000,48644,3,MY,1,100,-41
1576771384.256926,654460.333,48662,3,MY,1,100,-41
1576771384.295278,654492.667,48662,3,MY,1,100,-41
1576771384.333629,654525.000,48662,3,MY,1,100,-42
1576771384.374550,654559.500,48680,2,MY,1,100,-41
1576771384.415471,654594.000,48680,2,MY,1,100,-42
1576771384.456986,654629.000,48698,4,MY,1,100,-40
1576771384.498500,654664.000,48698,4,MY,1,100,-40
1576771384.540014,654699.000,48698,4,MY,1,100,-43
1576771384.581529,654734.000,48698,4,MY,1,100,-41
1576771384.628973,654774.000,48716,2,MY,1,100,-40
1576771384.676418,654814.000,48716,2,MY,1,100,-42
1576771384.713979,654845.667,48734,3,MY,1,100,-40
1576771384.751539,654877.333,48734,3,MY,1,100,-42
1576771384.789100,654909.000,48734,3,MY,1,100,-42
1576771384.833777,654946.667,48750,3,MY,1,100,-41
1576771384.878455,654984.333,48750,3,MY,1,100,-42
1576771384.923132,655022.000,48750,3,MY,1,100,-42
1576771384.964251,655056.667,48768,3,MY,1,100,-42
1576771385.005370,655091.333,48768,3,MY,1,100,-41
1576771385.046489,655126.000,48768,3,MY,1,100,-41
1576771385.084445,655158.000,48786,3,MY,1,100,-43
1576771385.122401,655190.000,48786,3,MY,1,100,-41
1576771385.160357,655222.000,48786,3,MY,1,100,-41
1576771385.200289,655255.667,48804,3,MY,1,100,-41
1576771385.240222,655289.333,48804,3,MY,1,100,-42
1576771385.280155,655323.000,48804,3,MY,1,100,-41
1576771385.318506,655355.333,48822,3,MY,1,100,-41
1576771385.356858,655387.667,48822,3,MY,1,100,-42
1576771385.395209,655420.000,48822,3,MY,1,100,-42
1576771385.434747,655453.333,48841,3,MY,1,100,-41
1576771385.474284,655486.667,48841,3,MY,1,100,-41
1576771385.513821,655520.000,48841,3,MY,1,100,-41
1576771385.554940,655554.667,48859,3,MY,1,100,-42
1576771385.596059,655589.333,48859,3,MY,1,100,-42
1576771385.637178,655624.000,48859,3,MY,1,100,-41
1576771385.678297,655658.667,48876,3,MY,1,100,-41
1576771385.719416,655693.333,48876,3,MY,1,100,-42
1576771385.760535,655728.000,48876,3,MY,1,100,-41
1576771385.801259,655762.333,48894,3,MY,1,100,-43
1576771385.841982,655796.667,48894,3,MY,1,100,-41
1576771385.882706,655831.000,48894,3,MY,1,100,-42
1576771385.924615,655866.333,48910,3,MY,1,100,-41
1576771385.966525,655901.667,48910,3,MY,1,100,-40
1576771386.008435,655937.000,48910,3,MY,1,100,-40
1576771386.051135,655973.000,48928,3,MY,1,100,-41
1576771386.093836,656009.000,48928,3,MY,1,100,-41
1576771386.136536,656045.000,48928,3,MY,1,100,-39
1576771386.174097,656076.667,48946,3,MY,1,100,-40
1576771386.211657,656108.333,48946,3,MY,1,100,-41
1576771386.249218,656140.000,48946,3,MY,1,100,-42
1576771386.288755,656173.333,48964,3,MY,1,100,-41
1576771386.328293,656206.667,48964,3,MY,1,100,-41
1576771386.367830,656240.000,48964,3,MY,1,100,-42
1576771386.408158,656274.000,48983,3,MY,1,100,-41
1576771386.448486,656308.000,48983,3,MY,1,100,-42
1576771386.488815,656342.000,48983,3,MY,1,100,-42
1576771386.530329,656377.000,49001,3,MY,1,100,-42
1576771386.571843,656412.000,49001,3,MY,1,100,-40
1576771386.613358,656447.000,49001,3,MY,1,100,-41
1576771386.653093,656480.500,49019,2,MY,1,100,-41
1576771386.692828,656514.000,49019,2,MY,1,100,-40
1576771386.733453,656548.250,49037,4,MY,1,100,-43
1576771386.774077,656582.500,49037,4,MY,1,100,-41
1576771386.814702,656616.750,49037,4,MY,1,100,-42
1576771386.855327,656651.000,49037,4,MY,1,100,-42
1576771386.894469,656684.000,49054,3,MY,1,100,-40
1576771386.933611,656717.000,49054,3,MY,1,100,-40
1576771386.972753,656750.000,49054,3,MY,1,100,-40
1576771387.013872,656784.667,49072,3,MY,1,100,-42
1576771387.054991,656819.333,49072,3,MY,1,100,-43
1576771387.096110,656854.000,49072,3,MY,1,100,-41
1576771387.137624,656889.000,49088,2,MY,1,100,-41
1576771387.179138,656924.000,49088,2,MY,1,100,-42
1576771387.219862,656958.333,49106,3,MY,1,100,-42
1576771387.260585,656992.667,49106,3,MY,1,100,-41
1576771387.301309,657027.000,49106,3,MY,1,100,-40
1576771387.342428,657061.667,49124,3,MY,1,100,-42
1576771387.383547,657096.333,49124,3,MY,1,100,-42
1576771387.424666,657131.000,49124,3,MY,1,100,-41
1576771387.463017,657163.333,49143,3,MY,1,100,-42
1576771387.501368,657195.667,49143,3,MY,1,100,-43
1576771387.539720,657228.000,49143,3,MY,1,100,-42
1576771387.580443,657262.333,49161,3,MY,1,100,-42
1576771387.621167,657296.667,49161,3,MY,1,100,-41
1576771387.661890,657331.000,49161,3,MY,1,100,-42
1576771387.702614,657365.333,49179,3,MY,1,100,-41
1576771387.743337,657399.667,49179,3,MY,1,100,-40
1576771387.784061,657434.000,49179,3,MY,1,100,-41
1576771387.825575,657469.000,49197,3,MY,1,100,-42
1576771387.867090,657504.000,49197,3,MY,1,100,-42
1576771387.908604,657539.000,49197,3,MY,1,100,-41
1576771387.946165,657570.667,49215,3,MY,1,100,-42
1576771387.983725,657602.333,49215,3,MY,1,100,-40
1576771388.021286,657634.000,49215,3,MY,1,100,-41
1576771388.062800,657669.000,49233,3,MY,1,100,-41
1576771388.104314,657704.000,49233,3,MY,1,100,-42
1576771388.145828,657739.000,49233,3,MY,1,100,-42
1576771388.187343,657774.000,49250,3,MY,1,100,-41
1576771388.228857,657809.000,49250,3,MY,1,100,-42
1576771388.270371,657844.000,49250,3,MY,1,100,-42
1576771388.309514,657877.000,49268,3,MY,1,100,-40
1576771388.348656,657910.000,49268,3,MY,1,100,-41
1576771388.387798,657943.000,49268,3,MY,1,100,-42
1576771388.425754,657975.000,49285,3,MY,1,100,-42
1576771388.463710,658007.000,49285,3,MY,1,100,-42
1576771388.501666,658039.000,49285,3,MY,1,100,-42
1576771388.544366,658075.000,49303,3,MY,1,100,-41
1576771388.587066,658111.000,49303,3,MY,1,100,-41
1576771388.629767,658147.000,49303,3,MY,1,100,-42
1576771388.665746,658177.333,49321,3,MY,1,100,-42
1576771388.701725,658207.667,49321,3,MY,1,100,-40
1576771388.737704,658238.000,49321,3,MY,1,100,-42
1576771388.781986,658275.333,49339,3,MY,1,100,-41
1576771388.826268,658312.667,49339,3,MY,1,100,-40
1576771388.870550,658350.000,49339,3,MY,1,100,-40
1576771388.911273,658384.333,49357,3,MY,1,100,-41
1576771388.951997,658418.667,49357,3,MY,1,100,-43
1576771388.992721,658453.000,49357,3,MY,1,100,-42
1576771389.034630,658488.333,49375,3,MY,1,100,-41
1576771389.076540,658523.667,49375,3,MY,1,100,-40
1576771389.118449,658559.000,49375,3,MY,1,100,-42
1576771389.159964,658594.000,49392,3,MY,1,100,-40
1576771389.201478,658629.000,49392,3,MY,1,100,-40
1576771389.242992,658664.000,49392,3,MY,1,100,-40
1576771389.284902,658699.333,49410,3,MY,1,100,-40
1576771389.326812,658734.667,49410,3,MY,1,100,-40
1576771389.368721,658770.000,49410,3,MY,1,100,-41
1576771389.407073,658802.333,49428,3,MY,1,100,-41
1576771389.445424,658834.667,49428,3,MY,1,100,-40
1576771389.483775,658867.000,49428,3,MY,1,100,-42
1576771389.521336,658898.667,49445,3,MY,1,100,-41
1576771389.558897,658930.333,49445,3,MY,1,100,-38
1576771389.596457,658962.000,49445,3,MY,1,100,-41
1576771389.640739,658999.333,49463,3,MY,1,100,-41
1576771389.685021,659036.667,49463,3,MY,1,100,-40
1576771389.729303,659074.000,49463,3,MY,1,100,-42
1576771389.770422,659108.667,49481,3,MY,1,100,-40
1576771389.811541,659143.333,49481,3,MY,1,100,-41
1576771389.852660,659178.000,49481,3,MY,1,100,-41
1576771389.894174,659213.000,49500,4,MY,1,100,-41
1576771389.935688,659248.000,49500,4,MY,1,100,-40
1576771389.977203,659283.000,49500,4,MY,1,100,-41
1576771390.018717,659318.000,49500,4,MY,1,100,-41
1576771390.055882,659349.333,49522,3,MY,1,100,-41
1576771390.093047,659380.667,49522,3,MY,1,100,-40
1576771390.130213,659412.000,49522,3,MY,1,100,-40
1576771390.168564,659444.333,49538,3,MY,1,100,-42
1576771390.206915,659476.667,49538,3,MY,1,100,-40
1576771390.245266,659509.000,49538,3,MY,1,100,-42
1576771390.286781,659544.000,49556,3,MY,1,100,-42
1576771390.328295,659579.000,49556,3,MY,1,100,-42
1576771390.369809,659614.000,49556,3,MY,1,100,-41
1576771390.414091,659651.333,49575,3,MY,1,100,-41
1576771390.458373,659688.667,49575,3,MY,1,100,-42
1576771390.502655,659726.000,49575,3,MY,1,100,-39
1576771390.543774,659760.667,49593,3,MY,1,100,-41
1576771390.584893,659795.333,49593,3,MY,1,100,-40
1576771390.626012,659830.000,49593,3,MY,1,100,-41
1576771390.663968,659862.000,49611,3,MY,1,100,-43
1576771390.701924,659894.000,49611,3,MY,1,100,-40
1576771390.739880,659926.000,49611,3,MY,1,100,-42
1576771390.778231,659958.333,49629,3,MY,1,100,-40
1576771390.816582,659990.667,49629,3,MY,1,100,-43
1576771390.854934,660023.000,49629,3,MY,1,100,-40
1576771390.895262,660057.000,49647,3,MY,1,100,-41
1576771390.935590,660091.000,49647,3,MY,1,100,-41
1576771390.975918,660125.000,49647,3,MY,1,100,-40
1576771391.020596,660162.667,49664,3,MY,1,100,-41
1576771391.065273,660200.333,49664,3,MY,1,100,-40
1576771391.109950,660238.000,49664,3,MY,1,100,-42
1576771391.151465,660273.000,49682,3,MY,1,100,-41
1576771391.192979,660308.000,49682,3,MY,1,100,-41
1576771391.234493,660343.000,49682,3,MY,1,100,-40
1576771391.271658,660374.333,49700,3,MY,1,100,-40
1576771391.308824,660405.667,49700,3,MY,1,100,-41
1576771391.345989,660437.000,49700,3,MY,1,100,-41
1576771391.384736,660469.667,49717,3,MY,1,100,-41
1576771391.423482,660502.333,49717,3,MY,1,100,-40
1576771391.462229,660535.000,49717,3,MY,1,100,-41
1576771391.501371,660568.000,49735,3,MY,1,100,-41
1576771391.540513,660601.000,49735,3,MY,1,100,-40
1576771391.579655,660634.000,49735,3,MY,1,100,-41
1576771391.621169,660669.000,49753,3,MY,1,100,-41
1576771391.662684,660704.000,49753,3,MY,1,100,-42
1576771391.704198,660739.000,49753,3,MY,1,100,-42
1576771391.751050,660778.500,49771,2,MY,1,100,-43
1576771391.797902,660818.000,49771,2,MY,1,100,-40
1576771391.836451,660850.500,49789,4,MY,1,100,-42
1576771391.875000,660883.000,49789,4,MY,1,100,-41
1576771391.913549,660915.500,49789,4,MY,1,100,-40
1576771391.952098,660948.000,49789,4,MY,1,100,-42
1576771391.999543,660988.000,49807,2,MY,1,100,-41
1576771392.046988,661028.000,49807,2,MY,1,100,-41
1576771392.084944,661060.000,49824,3,MY,1,100,-40
1576771392.122900,661092.000,49824,3,MY,1,100,-40
1576771392.160855,661124.000,49824,3,MY,1,100,-41
1576771392.206323,661162.333,49842,3,MY,1,100,-42
1576771392.251791,661200.667,49842,3,MY,1,100,-41
1576771392.297260,661239.000,49842,3,MY,1,100,-42
1576771392.335216,661271.000,49858,3,MY,1,100,-43
1576771392.373171,661303.000,49858,3,MY,1,100,-41
1576771392.411127,661335.000,49858,3,MY,1,100,-42
1576771392.453828,661371.000,49877,3,MY,1,100,-43
1576771392.496528,661407.000,49877,3,MY,1,100,-41
1576771392.539229,661443.000,49877,3,MY,1,100,-41
1576771392.580348,661477.667,49895,3,MY,1,100,-42
1576771392.621467,661512.333,49895,3,MY,1,100,-41
1576771392.662585,661547.000,49895,3,MY,1,100,-41
1576771392.704495,661582.333,49913,3,MY,1,100,-41
1576771392.746405,661617.667,49913,3,MY,1,100,-42
1576771392.788315,661653.000,49913,3,MY,1,100,-42
1576771392.826666,661685.333,49931,3,MY,1,100,-41
1576771392.865017,661717.667,49931,3,MY,1,100,-41
1576771392.903368,661750.000,49931,3,MY,1,100,-41
1576771392.941720,661782.333,49949,3,MY,1,100,-41
1576771392.980071,661814.667,49949,3,MY,1,100,-40
1576771393.018422,661847.000,49949,3,MY,1,100,-41
1576771393.059937,661882.000,49967,3,MY,1,100,-41
1576771393.101451,661917.000,49967,3,MY,1,100,-41
1576771393.142965,661952.000,49967,3,MY,1,100,-41
1576771393.184480,661987.000,49984,3,MY,1,100,-40
1576771393.225994,662022.000,49984,3,MY,1,100,-42
1576771393.267508,662057.000,49984,3,MY,1,100,-41
1576771393.309418,662092.333,50002,3,MY,1,100,-41
1576771393.351328,662127.667,50002,3,MY,1,100,-42
1576771393.393237,662163.000,50002,3,MY,1,100,-39
1576771393.434159,662197.500,50018,2,MY,1,100,-40
1576771393.475080,662232.000,50018,2,MY,1,100,-42
1576771393.514518,662265.250,50037,4,MY,1,100,-39
1576771393.553957,662298.500,50037,4,MY,1,100,-40
1576771393.593396,662331.750,50037,4,MY,1,100,-40
1576771393.632834,662365.000,50037,4,MY,1,100,-41
1576771393.674349,662400.000,50055,3,MY,1,100,-42
1576771393.715863,662435.000,50055,3,MY,1,100,-42
1576771393.757377,662470.000,50055,3,MY,1,100,-41
1576771393.796915,662503.333,50073,3,MY,1,100,-40
1576771393.836452,662536.667,50073,3,MY,1,100,-40
1576771393.875989,662570.000,50073,3,MY,1,100,-42
1576771393.916911,662604.500,50091,2,MY,1,100,-40
1576771393.957832,662639.000,50091,2,MY,1,100,-42
1576771393.998555,662673.333,50109,3,MY,1,100,-42
1576771394.039279,662707.667,50109,3,MY,1,100,-41
1576771394.080003,662742.000,50109,3,MY,1,100,-40
1576771394.121122,662776.667,50127,3,MY,1,100,-41
1576771394.162241,662811.333,50127,3,MY,1,100,-42
1576771394.203359,662846.000,50127,3,MY,1,100,-42
1576771394.240525,662877.333,50145,3,MY,1,100,-41
1576771394.277690,662908.667,50145,3,MY,1,100,-40
1576771394.314855,662940.000,50145,3,MY,1,100,-39
1576771394.357160,662975.667,50162,3,MY,1,100,-39
1576771394.399465,663011.333,50162,3,MY,1,100,-40
1576771394.441770,663047.000,50162,3,MY,1,100,-38
1576771394.482889,663081.667,50181,3,MY,1,100,-39
1576771394.524008,663116.333,50181,3,MY,1,100,-39
1576771394.565127,663151.000,50181,3,MY,1,100,-38
1576771394.606641,663186.000,50197,3,MY,1,100,-38
1576771394.648156,663221.000,50197,3,MY,1,100,-38
1576771394.689670,663256.000,50197,3,MY,1,100,-37
1576771394.731184,663291.000,50215,3,MY,1,100,-38
1576771394.772699,663326.000,50215,3,MY,1,100,-39
1576771394.814213,663361.000,50215,3,MY,1,100,-37
1576771394.850983,663392.000,50233,3,MY,1,100,-39
1576771394.887753,663423.000,50233,3,MY,1,100,-37
1576771394.924522,663454.000,50233,3,MY,1,100,-37
1576771394.967223,663490.000,50251,3,MY,1,100,-37
1576771395.009923,663526.000,50251,3,MY,1,100,-37
1576771395.052624,663562.000,50251,3,MY,1,100,-39
1576771395.093743,663596.667,50269,3,MY,1,100,-38
1576771395.134861,663631.333,50269,3,MY,1,100,-38
1576771395.175980,663666.000,50269,3,MY,1,100,-37
1576771395.217099,663700.667,50287,3,MY,1,100,-38
1576771395.258218,663735.333,50287,3,MY,1,100,-38
1576771395.299337,663770.000,50287,3,MY,1,100,-37
1576771395.340456,663804.667,50305,3,MY,1,100,-38
1576771395.381575,663839.333,50305,3,MY,1,100,-38
1576771395.422694,663874.000,50305,3,MY,1,100,-38
1576771395.460255,663905.667,50324,3,MY,1,100,-40
1576771395.497815,663937.333,50324,3,MY,1,100,-37
1576771395.535376,663969.000,50324,3,MY,1,100,-37
1576771395.572936,664000.667,50342,3,MY,1,100,-36
1576771395.610497,664032.333,50342,3,MY,1,100,-37
1576771395.648057,664064.000,50342,3,MY,1,100,-37
1576771395.692735,664101.667,50359,3,MY,1,100,-37
1576771395.737412,664139.333,50359,3,MY,1,100,-38
1576771395.782089,664177.000,50359,3,MY,1,100,-37
1576771395.823208,664211.667,50375,3,MY,1,100,-37
1576771395.864327,664246.333,50375,3,MY,1,100,-38
1576771395.905446,664281.000,50375,3,MY,1,100,-39
1576771395.946960,664316.000,50394,4,MY,1,100,-38
1576771395.988475,664351.000,50394,4,MY,1,100,-37
1576771396.029989,664386.000,50394,4,MY,1,100,-37
1576771396.071503,664421.000,50394,4,MY,1,100,-37
1576771396.109064,664452.667,50415,3,MY,1,100,-38
1576771396.146625,664484.333,50415,3,MY,1,100,-36
1576771396.184185,664516.000,50415,3,MY,1,100,-38
1576771396.229258,664554.000,50433,3,MY,1,100,-37
1576771396.274330,664592.000,50433,3,MY,1,100,-38
1576771396.319403,664630.000,50433,3,MY,1,100,-37
1576771396.361313,664665.333,50449,3,MY,1,100,-38
1576771396.403223,664700.667,50449,3,MY,1,100,-37
1576771396.445132,664736.000,50449,3,MY,1,100,-38
1576771396.483484,664768.333,50468,3,MY,1,100,-39
1576771396.521835,664800.667,50468,3,MY,1,100,-37
1576771396.560186,664833.000,50468,3,MY,1,100,-39
1576771396.604468,664870.333,50486,3,MY,1,100,-37
1576771396.648750,664907.667,50486,3,MY,1,100,-37
1576771396.693032,664945.000,50486,3,MY,1,100,-38
1576771396.734151,664979.667,50504,3,MY,1,100,-37
1576771396.775270,665014.333,50504,3,MY,1,100,-38
1576771396.816389,665049.000,50504,3,MY,1,100,-39
1576771396.856717,665083.000,50522,3,MY,1,100,-36
1576771396.897045,665117.000,50522,3,MY,1,100,-37
1576771396.937373,665151.000,50522,3,MY,1,100,-38
1576771396.974934,665182.667,50540,3,MY,1,100,-37
1576771397.012494,665214.333,50540,3,MY,1,100,-37
1576771397.050055,665246.000,50540,3,MY,1,100,-39
1576771397.089988,665279.667,50558,3,MY,1,100,-37
1576771397.129920,665313.333,50558,3,MY,1,100,-38
1576771397.169853,665347.000,50558,3,MY,1,100,-38
1576771397.210972,665381.667,50575,3,MY,1,100,-37
1576771397.252091,665416.333,50575,3,MY,1,100,-39
1576771397.293210,665451.000,50575,3,MY,1,100,-38
1576771397.334329,665485.667,50593,3,MY,1,100,-37
1576771397.375448,665520.333,50593,3,MY,1,100,-38
1576771397.416567,665555.000,50593,3,MY,1,100,-38
1576771397.457488,665589.500,50609,2,MY,1,100,-39
1576771397.498410,665624.000,50609,2,MY,1,100,-37
1576771397.543482,665662.000,50628,3,MY,1,100,-36
1576771397.588555,665700.000,50628,3,MY,1,100,-37
1576771397.633628,665738.000,50628,3,MY,1,100,-38
1576771397.673560,665771.667,50646,3,MY,1,100,-37
1576771397.713493,665805.333,50646,3,MY,1,100,-37
1576771397.753426,665839.000,50646,3,MY,1,100,-37
1576771397.791777,665871.333,50664,3,MY,1,100,-37
1576771397.830129,665903.667,50664,3,MY,1,100,-37
1576771397.868480,665936.000,50664,3,MY,1,100,-36
1576771397.906436,665968.000,50682,3,MY,1,100,-38
1576771397.944392,666000.000,50682,3,MY,1,100,-37
1576771397.982348,666032.000,50682,3,MY,1,100,-37
1576771398.022676,666066.000,50700,3,MY,1,100,-38
1576771398.063004,666100.000,50700,3,MY,1,100,-38
1576771398.103332,666134.000,50700,3,MY,1,100,-39
1576771398.144451,666168.667,50718,3,MY,1,100,-37
1576771398.185570,666203.333,50718,3,MY,1,100,-38
1576771398.226689,666238.000,50718,3,MY,1,100,-38
1576771398.271366,666275.667,50735,3,MY,1,100,-37
1576771398.316044,666313.333,50735,3,MY,1,100,-39
1576771398.360721,666351.000,50735,3,MY,1,100,-37
1576771398.398282,666382.667,50753,3,MY,1,100,-37
1576771398.435842,666414.333,50753,3,MY,1,100,-37
1576771398.473403,666446.000,50753,3,MY,1,100,-39
1576771398.511754,666478.333,50772,3,MY,1,100,-38
1576771398.550105,666510.667,50772,3,MY,1,100,-37
1576771398.588457,666543.000,50772,3,MY,1,100,-38
1576771398.629180,666577.333,50788,3,MY,1,100,-38
1576771398.669904,666611.667,50788,3,MY,1,100,-38
1576771398.710627,666646.000,50788,3,MY,1,100,-36
1576771398.751746,666680.667,50806,3,MY,1,100,-37
1576771398.792865,666715.333,50806,3,MY,1,100,-36
1576771398.833984,666750.000,50806,3,MY,1,100,-38
1576771398.879057,666788.000,50824,3,MY,1,100,-38
1576771398.924129,666826.000,50824,3,MY,1,100,-38
1576771398.969202,666864.000,50824,3,MY,1,100,-37
1576771399.005972,666895.000,50842,3,MY,1,100,-37
1576771399.042742,666926.000,50842,3,MY,1,100,-37
1576771399.079512,666957.000,50842,3,MY,1,100,-36
1576771399.117468,666989.000,50860,3,MY,1,100,-39
1576771399.155424,667021.000,50860,3,MY,1,100,-37
1576771399.193379,667053.000,50860,3,MY,1,100,-39
1576771399.233708,667087.000,50878,3,MY,1,100,-38
1576771399.274036,667121.000,50878,3,MY,1,100,-38
1576771399.314364,667155.000,50878,3,MY,1,100,-37
1576771399.354692,667189.000,50896,3,MY,1,100,-36
1576771399.395020,667223.000,50896,3,MY,1,100,-38
1576771399.435349,667257.000,50896,3,MY,1,100,-38
1576771399.476468,667291.667,50915,3,MY,1,100,-37
1576771399.517586,667326.333,50915,3,MY,1,100,-37
1576771399.558705,667361.000,50915,3,MY,1,100,-37
1576771399.600615,667396.333,50932,3,MY,1,100,-39
1576771399.642525,667431.667,50932,3,MY,1,100,-38
1576771399.684434,667467.000,50932,3,MY,1,100,-39
1576771399.721600,667498.333,50950,3,MY,1,100,-37
1576771399.758765,667529.667,50950,3,MY,1,100,-38
1576771399.795930,667561.000,50950,3,MY,1,100,-39
1576771399.837840,667596.333,50968,3,MY,1,100,-37
1576771399.879749,667631.667,50968,3,MY,1,100,-39
1576771399.921659,667667.000,50968,3,MY,1,100,-39
1576771399.958429,667698.000,50984,3,MY,1,100,-36
1576771399.995199,667729.000,50984,3,MY,1,100,-38
1576771400.031969,667760.000,50984,3,MY,1,100,-39
1576771400.071901,667793.667,51002,3,MY,1,100,-38
1576771400.111834,667827.333,51002,3,MY,1,100,-38
1576771400.151767,667861.000,51002,3,MY,1,100,-39
1576771400.189723,667893.000,51020,3,MY,1,100,-40
1576771400.227679,667925.000,51020,3,MY,1,100,-38
1576771400.265635,667957.000,51020,3,MY,1,100,-38
1576771400.306754,667991.667,51038,3,MY,1,100,-38
1576771400.347873,668026.333,51038,3,MY,1,100,-37
1576771400.388992,668061.000,51038,3,MY,1,100,-37
1576771400.426552,668092.667,51056,3,MY,1,100,-39
1576771400.464113,668124.333,51056,3,MY,1,100,-38
1576771400.501673,668156.000,51056,3,MY,1,100,-37
1576771400.542792,668190.667,51075,3,MY,1,100,-37
1576771400.583911,668225.333,51075,3,MY,1,100,-37
1576771400.625030,668260.000,51075,3,MY,1,100,-39
1576771400.665358,668294.000,51093,3,MY,1,100,-38
1576771400.705687,668328.000,51093,3,MY,1,100,-39
1576771400.746015,668362.000,51093,3,MY,1,100,-38
1576771400.787529,668397.000,51111,3,MY,1,100,-38
1576771400.829043,668432.000,51111,3,MY,1,100,-37
1576771400.870558,668467.000,51111,3,MY,1,100,-38
1576771400.912863,668502.667,51128,3,MY,1,100,-37
1576771400.955168,668538.333,51128,3,MY,1,100,-36
1576771400.997473,668574.000,51128,3,MY,1,100,-38
1576771401.035429,668606.000,51146,3,MY,1,100,-37
1576771401.073385,668638.000,51146,3,MY,1,100,-38
1576771401.111341,668670.000,51146,3,MY,1,100,-39
1576771401.153646,668705.667,51162,3,MY,1,100,-38
1576771401.195951,668741.333,51162,3,MY,1,100,-35
1576771401.238256,668777.000,51162,3,MY,1,100,-39
1576771401.275816,668808.667,51180,3,MY,1,100,-36
1576771401.313377,668840.333,51180,3,MY,1,100,-38
1576771401.350937,668872.000,51180,3,MY,1,100,-38
1576771401.392847,668907.333,51198,3,MY,1,100,-37
1576771401.434757,668942.667,51198,3,MY,1,100,-37
1576771401.476666,668978.000,51198,3,MY,1,100,-37
1576771401.516995,669012.000,51217,3,MY,1,100,-39
1576771401.557323,669046.000,51217,3,MY,1,100,-38
1576771401.597651,669080.000,51217,3,MY,1,100,-38
1576771401.637584,669113.667,51235,3,MY,1,100,-39
1576771401.677517,669147.333,51235,3,MY,1,100,-37
1576771401.717449,669181.000,51235,3,MY,1,100,-39
1576771401.759359,669216.333,51253,3,MY,1,100,-37
1576771401.801269,669251.667,51253,3,MY,1,100,-38
1576771401.843179,669287.000,51253,3,MY,1,100,-37
1576771401.880344,669318.333,51271,3,MY,1,100,-37
1576771401.917509,669349.667,51271,3,MY,1,100,-39
1576771401.954674,669381.000,51271,3,MY,1,100,-37
1576771401.995714,669415.600,51292,5,MY,1,100,-38
1576771402.036754,669450.200,51292,5,MY,1,100,-38
1576771402.077794,669484.800,51292,5,MY,1,100,-40
1576771402.118834,669519.400,51292,5,MY,1,100,-38
1576771402.159873,669554.000,51292,5,MY,1,100,-37
1576771402.200795,669588.500,51312,2,MY,1,100,-37
1576771402.241716,669623.000,51312,2,MY,1,100,-37
1576771402.282835,669657.667,51330,3,MY,1,100,-38
1576771402.323954,669692.333,51330,3,MY,1,100,-39
1576771402.365073,669727.000,51330,3,MY,1,100,-39
1576771402.405796,669761.333,51348,3,MY,1,100,-38
1576771402.446520,669795.667,51348,3,MY,1,100,-38
1576771402.487243,669830.000,51348,3,MY,1,100,-39
1576771402.524903,669861.750,51367,4,MY,1,100,-38
1576771402.562562,669893.500,51367,4,MY,1,100,-39
1576771402.600222,669925.250,51367,4,MY,1,100,-37
1576771402.637881,669957.000,51367,4,MY,1,100,-37
1576771402.677418,669990.333,51385,3,MY,1,100,-37
1576771402.716956,670023.667,51385,3,MY,1,100,-38
1576771402.756493,670057.000,51385,3,MY,1,100,-38
1576771402.802752,670096.000,51403,2,MY,1,100,-38
1576771402.849011,670135.000,51403,2,MY,1,100,-38
1576771402.890130,670169.667,51420,3,MY,1,100,-37
1576771402.931249,670204.333,51420,3,MY,1,100,-37
1576771402.972368,670239.000,51420,3,MY,1,100,-37
1576771403.013882,670274.000,51438,3,MY,1,100,-39
1576771403.055396,670309.000,51438,3,MY,1,100,-39
1576771403.096911,670344.000,51438,3,MY,1,100,-37
1576771403.133681,670375.000,51456,3,MY,1,100,-38
1576771403.170450,670406.000,51456,3,MY,1,100,-35
1576771403.207220,670437.000,51456,3,MY,1,100,-38
1576771403.245967,670469.667,51472,3,MY,1,100,-39
1576771403.284714,670502.333,51472,3,MY,1,100,-38
1576771403.323460,670535.000,51472,3,MY,1,100,-37
1576771403.363393,670568.667,51490,3,MY,1,100,-36
1576771403.403326,670602.333,51490,3,MY,1,100,-37
1576771403.443259,670636.000,51490,3,MY,1,100,-39
1576771403.484773,670671.000,51509,3,MY,1,100,-38
1576771403.526287,670706.000,51509,3,MY,1,100,-38
1576771403.567802,670741.000,51509,3,MY,1,100,-38
1576771403.612874,670779.000,51527,3,MY,1,100,-37
1576771403.657947,670817.000,51527,3,MY,1,100,-38
1576771403.703020,670855.000,51527,3,MY,1,100,-39
1576771403.739789,670886.000,51545,3,MY,1,100,-39
1576771403.776559,670917.000,51545,3,MY,1,100,-38
1576771403.813329,670948.000,51545,3,MY,1,100,-38
1576771403.858402,670986.000,51563,3,MY,1,100,-38
1576771403.903474,671024.000,51563,3,MY,1,100,-39
1576771403.948547,671062.000,51563,3,MY,1,100,-37
1576771403.990062,671097.000,51580,3,MY,1,100,-38
1576771404.031576,671132.000,51580,3,MY,1,100,-39
1576771404.073090,671167.000,51580,3,MY,1,100,-38
1576771404.110453,671198.500,51598,2,MY,1,100,-39
1576771404.147816,671230.000,51598,2,MY,1,100,-38
1576771404.192888,671268.000,51614,3,MY,1,100,-37
1576771404.237961,671306.000,51614,3,MY,1,100,-38
1576771404.283034,671344.000,51614,3,MY,1,100,-37
1576771404.324944,671379.333,51632,3,MY,1,100,-38
1576771404.366853,671414.667,51632,3,MY,1,100,-39
1576771404.408763,671450.000,51632,3,MY,1,100,-36
1576771404.449882,671484.667,51651,3,MY,1,100,-38
1576771404.491001,671519.333,51651,3,MY,1,100,-37
1576771404.532120,671554.000,51651,3,MY,1,100,-38
1576771404.570866,671586.667,51669,3,MY,1,100,-37
1576771404.609613,671619.333,51669,3,MY,1,100,-37
1576771404.648360,671652.000,51669,3,MY,1,100,-37
1576771404.686316,671684.000,51687,3,MY,1,100,-38
1576771404.724272,671716.000,51687,3,MY,1,100,-38
1576771404.762228,671748.000,51687,3,MY,1,100,-38
1576771404.802951,671782.333,51705,3,MY,1,100,-38
1576771404.843675,671816.667,51705,3,MY,1,100,-38
1576771404.884398,671851.000,51705,3,MY,1,100,-39
1576771404.924726,671885.000,51722,3,MY,1,100,-38
1576771404.965055,671919.000,51722,3,MY,1,100,-38
1576771405.005383,671953.000,51722,3,MY,1,100,-38
1576771405.046106,671987.333,51740,3,MY,1,100,-38
1576771405.086830,672021.667,51740,3,MY,1,100,-37
1576771405.127553,672056.000,51740,3,MY,1,100,-38
1576771405.167882,672090.000,51758,3,MY,1,100,-37
1576771405.208210,672124.000,51758,3,MY,1,100,-37
1576771405.248538,672158.000,51758,3,MY,1,100,-37
1576771405.294006,672196.333,51774,3,MY,1,100,-39
1576771405.339474,672234.667,51774,3,MY,1,100,-38
1576771405.384942,672273.000,51774,3,MY,1,100,-38
1576771405.422898,672305.000,51792,3,MY,1,100,-39
1576771405.460854,672337.000,51792,3,MY,1,100,-37
1576771405.498810,672369.000,51792,3,MY,1,100,-39
1576771405.537161,672401.333,51811,3,MY,1,100,-38
1576771405.575513,672433.667,51811,3,MY,1,100,-38
1576771405.613864,672466.000,51811,3,MY,1,100,-38
1576771405.653401,672499.333,51829,3,MY,1,100,-37
1576771405.692939,672532.667,51829,3,MY,1,100,-37
1576771405.732476,672566.000,51829,3,MY,1,100,-37
1576771405.773991,672601.000,51847,3,MY,1,100,-37
1576771405.815505,672636.000,51847,3,MY,1,100,-38
1576771405.857019,672671.000,51847,3,MY,1,100,-38
1576771405.898138,672705.667,51865,3,MY,1,100,-37
1576771405.939257,672740.333,51865,3,MY,1,100,-38
1576771405.980376,672775.000,51865,3,MY,1,100,-37
1576771406.022286,672810.333,51883,3,MY,1,100,-38
1576771406.064195,672845.667,51883,3,MY,1,100,-38
1576771406.106105,672881.000,51883,3,MY,1,100,-37
1576771406.144061,672913.000,51901,3,MY,1,100,-37
1576771406.182017,672945.000,51901,3,MY,1,100,-37
1576771406.219973,672977.000,51901,3,MY,1,100,-39
1576771406.260301,673011.000,51918,3,MY,1,100,-38
1576771406.300629,673045.000,51918,3,MY,1,100,-37
1576771406.340957,673079.000,51918,3,MY,1,100,-38
1576771406.382472,673114.000,51936,3,MY,1,100,-38
1576771406.423986,673149.000,51936,3,MY,1,100,-38
1576771406.465500,673184.000,51936,3,MY,1,100,-37
1576771406.507015,673219.000,51953,3,MY,1,100,-39
1576771406.548529,673254.000,51953,3,MY,1,100,-37
1576771406.590043,673289.000,51953,3,MY,1,100,-38
1576771406.635116,673327.000,51971,2,MY,1,100,-37
1576771406.680189,673365.000,51971,2,MY,1,100,-37
1576771406.717255,673396.250,51989,4,MY,1,100,-37
1576771406.754321,673427.500,51989,4,MY,1,100,-37
1576771406.791388,673458.750,51989,4,MY,1,100,-37
1576771406.828454,673490.000,51989,4,MY,1,100,-37
1576771406.868782,673524.000,52007,3,MY,1,100,-37
1576771406.909111,673558.000,52007,3,MY,1,100,-38
1576771406.949439,673592.000,52007,3,MY,1,100,-37
1576771406.990162,673626.333,52025,3,MY,1,100,-37
1576771407.030886,673660.667,52025,3,MY,1,100,-39
1576771407.071609,673695.000,52025,3,MY,1,100,-39
1576771407.112333,673729.333,52043,3,MY,1,100,-37
1576771407.153056,673763.667,52043,3,MY,1,100,-39
1576771407.193780,673798.000,52043,3,MY,1,100,-37
1576771407.235294,673833.000,52061,2,MY,1,100,-37
1576771407.276809,673868.000,52061,2,MY,1,100,-38
1576771407.317928,673902.667,52079,3,MY,1,100,-38
1576771407.359046,673937.333,52079,3,MY,1,100,-38
1576771407.400166,673972.000,52079,3,MY,1,100,-39
1576771407.437528,674003.500,52097,4,MY,1,100,-37
1576771407.474891,674035.000,52097,4,MY,1,100,-37
1576771407.512254,674066.500,52097,4,MY,1,100,-39
1576771407.549617,674098.000,52097,4,MY,1,100,-38
1576771407.591724,674133.500,52115,2,MY,1,100,-38
1576771407.633832,674169.000,52115,2,MY,1,100,-38
1576771407.670602,674200.000,52133,4,MY,1,100,-38
1576771407.707371,674231.000,52133,4,MY,1,100,-37
1576771407.744141,674262.000,52133,4,MY,1,100,-37
1576771407.780911,674293.000,52133,4,MY,1,100,-37
1576771407.824798,674330.000,52149,2,MY,1,100,-38
1576771407.868684,674367.000,52149,2,MY,1,100,-38
1576771407.907826,674400.000,52167,4,MY,1,100,-37
1576771407.946968,674433.000,52167,4,MY,1,100,-39
1576771407.986110,674466.000,52167,4,MY,1,100,-37
1576771408.025252,674499.000,52167,4,MY,1,100,-38
1576771408.062022,674530.000,52188,5,MY,1,100,-38
1576771408.098792,674561.000,52188,5,MY,1,100,-39
1576771408.135562,674592.000,52188,5,MY,1,100,-39
1576771408.172332,674623.000,52188,5,MY,1,100,-38
1576771408.209101,674654.000,52188,5,MY,1,100,-37
1576771408.253581,674691.500,52207,2,MY,1,100,-37
1576771408.298061,674729.000,52207,2,MY,1,100,-38
1576771408.338092,674762.750,52225,4,MY,1,100,-38
1576771408.378124,674796.500,52225,4,MY,1,100,-38
1576771408.418156,674830.250,52225,4,MY,1,100,-38
1576771408.458187,674864.000,52225,4,MY,1,100,-37
1576771408.499701,674899.000,52244,2,MY,1,100,-38
1576771408.541216,674934.000,52244,2,MY,1,100,-37
1576771408.583521,674969.667,52260,3,MY,1,100,-38
1576771408.625826,675005.333,52260,3,MY,1,100,-37
1576771408.668131,675041.000,52260,3,MY,1,100,-37
1576771408.709250,675075.667,52278,3,MY,1,100,-37
1576771408.750369,675110.333,52278,3,MY,1,100,-37
1576771408.791488,675145.000,52278,3,MY,1,100,-35
1576771408.833002,675180.000,52296,3,MY,1,100,-36
1576771408.874516,675215.000,52296,3,MY,1,100,-39
1576771408.916031,675250.000,52296,3,MY,1,100,-36
1576771408.953591,675281.667,52314,3,MY,1,100,-38
1576771408.991152,675313.333,52314,3,MY,1,100,-37
1576771409.028713,675345.000,52314,3,MY,1,100,-38
1576771409.071413,675381.000,52332,3,MY,1,100,-38
1576771409.114113,675417.000,52332,3,MY,1,100,-38
1576771409.156814,675453.000,52332,3,MY,1,100,-38
1576771409.196747,675486.667,52350,3,MY,1,100,-37
1576771409.236680,675520.333,52350,3,MY,1,100,-38
1576771409.276612,675554.000,52350,3,MY,1,100,-36
1576771409.317731,675588.667,52367,3,MY,1,100,-38
1576771409.358850,675623.333,52367,3,MY,1,100,-38
1576771409.399969,675658.000,52367,3,MY,1,100,-38
1576771409.440693,675692.333,52386,3,MY,1,100,-37
1576771409.481416,675726.667,52386,3,MY,1,100,-37
1576771409.522140,675761.000,52386,3,MY,1,100,-36
1576771409.560491,675793.333,52404,3,MY,1,100,-37
1576771409.598842,675825.667,52404,3,MY,1,100,-38
1576771409.637194,675858.000,52404,3,MY,1,100,-37
1576771409.674359,675889.333,52422,3,MY,1,100,-38
1576771409.711524,675920.667,52422,3,MY,1,100,-36
1576771409.748689,675952.000,52422,3,MY,1,100,-36
1576771409.792971,675989.333,52438,3,MY,1,100,-38
1576771409.837253,676026.667,52438,3,MY,1,100,-37
1576771409.881535,676064.000,52438,3,MY,1,100,-36
1576771409.922654,676098.667,52456,3,MY,1,100,-38
1576771409.963773,676133.333,52456,3,MY,1,100,-38
1576771410.004892,676168.000,52456,3,MY,1,100,-38
1576771410.046011,676202.667,52474,3,MY,1,100,-39
1576771410.087130,676237.333,52474,3,MY,1,100,-37
1576771410.128249,676272.000,52474,3,MY,1,100,-37
1576771410.166205,676304.000,52492,3,MY,1,100,-38
1576771410.204160,676336.000,52492,3,MY,1,100,-38
1576771410.242116,676368.000,52492,3,MY,1,100,-40
1576771410.280468,676400.333,52510,3,MY,1,100,-39
1576771410.318819,676432.667,52510,3,MY,1,100,-38
1576771410.357170,676465.000,52510,3,MY,1,100,-38
1576771410.397499,676499.000,52528,3,MY,1,100,-39
1576771410.437827,676533.000,52528,3,MY,1,100,-39
1576771410.478155,676567.000,52528,3,MY,1,100,-37
1576771410.522437,676604.333,52547,3,MY,1,100,-37
1576771410.566719,676641.667,52547,3,MY,1,100,-37
1576771410.611001,676679.000,52547,3,MY,1,100,-38
1576771410.652515,676714.000,52564,2,MY,1,100,-38
1576771410.694029,676749.000,52564,2,MY,1,100,-37
1576771410.732875,676781.750,52582,4,MY,1,100,-39
1576771410.771720,676814.500,52582,4,MY,1,100,-38
1576771410.810566,676847.250,52582,4,MY,1,100,-37
1576771410.849411,676880.000,52582,4,MY,1,100,-37
1576771410.886577,676911.333,52600,3,MY,1,100,-37
1576771410.923742,676942.667,52600,3,MY,1,100,-38
1576771410.960907,676974.000,52600,3,MY,1,100,-38
1576771411.001235,677008.000,52616,3,MY,1,100,-38
1576771411.041564,677042.000,52616,3,MY,1,100,-37
1576771411.081892,677076.000,52616,3,MY,1,100,-36
1576771411.122813,677110.500,52634,2,MY,1,100,-36
1576771411.163734,677145.000,52634,2,MY,1,100,-38
1576771411.205545,677180.250,52652,4,MY,1,100,-38
1576771411.247356,677215.500,52652,4,MY,1,100,-37
1576771411.289167,677250.750,52652,4,MY,1,100,-38
1576771411.330977,677286.000,52652,4,MY,1,100,-37
1576771411.377829,677325.500,52670,2,MY,1,100,-38
1576771411.424681,677365.000,52670,2,MY,1,100,-36
1576771411.463032,677397.333,52689,3,MY,1,100,-37
1576771411.501384,677429.667,52689,3,MY,1,100,-38
1576771411.539735,677462.000,52689,3,MY,1,100,-38
1576771411.584808,677500.000,52707,3,MY,1,100,-36
1576771411.629881,677538.000,52707,3,MY,1,100,-39
1576771411.674953,677576.000,52707,3,MY,1,100,-37
1576771411.713305,677608.333,52724,3,MY,1,100,-38
1576771411.751656,677640.667,52724,3,MY,1,100,-38
1576771411.790007,677673.000,52724,3,MY,1,100,-38
1576771411.835080,677711.000,52740,3,MY,1,100,-39
1576771411.880152,677749.000,52740,3,MY,1,100,-39
1576771411.925225,677787.000,52740,3,MY,1,100,-38
1576771411.963181,677819.000,52758,3,MY,1,100,-38
1576771412.001137,677851.000,52758,3,MY,1,100,-39
1576771412.039093,677883.000,52758,3,MY,1,100,-39
1576771412.085945,677922.500,52776,2,MY,1,100,-39
1576771412.132797,677962.000,52776,2,MY,1,100,-40
1576771412.174311,677997.000,52794,3,MY,1,100,-39
1576771412.215825,678032.000,52794,3,MY,1,100,-38
1576771412.257340,678067.000,52794,3,MY,1,100,-40
1576771412.294999,678098.750,52812,4,MY,1,100,-39
1576771412.332659,678130.500,52812,4,MY,1,100,-39
1576771412.370318,678162.250,52812,4,MY,1,100,-38
1576771412.407977,678194.000,52812,4,MY,1,100,-39
1576771412.447910,678227.667,52830,3,MY,1,100,-38
1576771412.487843,678261.333,52830,3,MY,1,100,-40
1576771412.527776,678295.000,52830,3,MY,1,100,-39
1576771412.568499,678329.333,52849,3,MY,1,100,-39
1576771412.609223,678363.667,52849,3,MY,1,100,-39
1576771412.649946,678398.000,52849,3,MY,1,100,-39
1576771412.691461,678433.000,52866,2,MY,1,100,-37
1576771412.732975,678468.000,52866,2,MY,1,100,-40
1576771412.774094,678502.667,52884,3,MY,1,100,-39
1576771412.815213,678537.333,52884,3,MY,1,100,-38
1576771412.856332,678572.000,52884,3,MY,1,100,-38
1576771412.897846,678607.000,52900,3,MY,1,100,-40
1576771412.939360,678642.000,52900,3,MY,1,100,-39
1576771412.980875,678677.000,52900,3,MY,1,100,-38
1576771413.024761,678714.000,52918,3,MY,1,100,-39
1576771413.068648,678751.000,52918,3,MY,1,100,-37
1576771413.112535,678788.000,52918,3,MY,1,100,-39
1576771413.150491,678820.000,52936,3,MY,1,100,-37
1576771413.188446,678852.000,52936,3,MY,1,100,-39
1576771413.226402,678884.000,52936,3,MY,1,100,-40
1576771413.264754,678916.333,52954,3,MY,1,100,-37
1576771413.303105,678948.667,52954,3,MY,1,100,-39
1576771413.341456,678981.000,52954,3,MY,1,100,-39
1576771413.382180,679015.333,52972,3,MY,1,100,-39
1576771413.422903,679049.667,52972,3,MY,1,100,-39
1576771413.463627,679084.000,52972,3,MY,1,100,-40
1576771413.503955,679118.000,52991,3,MY,1,100,-39
1576771413.544283,679152.000,52991,3,MY,1,100,-37
1576771413.584611,679186.000,52991,3,MY,1,100,-39
1576771413.625335,679220.333,53009,3,MY,1,100,-37
1576771413.666059,679254.667,53009,3,MY,1,100,-38
1576771413.706782,679289.000,53009,3,MY,1,100,-38
1576771413.748296,679324.000,53027,3,MY,1,100,-40
1576771413.789811,679359.000,53027,3,MY,1,100,-39
1576771413.831325,679394.000,53027,3,MY,1,100,-39
1576771413.869676,679426.333,53045,3,MY,1,100,-41
1576771413.908028,679458.667,53045,3,MY,1,100,-40
1576771413.946379,679491.000,53045,3,MY,1,100,-39
1576771413.986707,679525.000,53062,3,MY,1,100,-40
1576771414.027035,679559.000,53062,3,MY,1,100,-39
1576771414.067364,679593.000,53062,3,MY,1,100,-40
1576771414.108641,679627.800,53083,5,MY,1,100,-40
1576771414.149918,679662.600,53083,5,MY,1,100,-41
1576771414.191195,679697.400,53083,5,MY,1,100,-39
1576771414.232472,679732.200,53083,5,MY,1,100,-40
1576771414.273749,679767.000,53083,5,MY,1,100,-40
1576771414.313287,679800.333,53103,3,MY,1,100,-40
1576771414.352824,679833.667,53103,3,MY,1,100,-39
1576771414.392361,679867.000,53103,3,MY,1,100,-39
1576771414.433480,679901.667,53121,3,MY,1,100,-40
1576771414.474599,679936.333,53121,3,MY,1,100,-41
1576771414.515718,679971.000,53121,3,MY,1,100,-41
1576771414.554860,680004.000,53140,3,MY,1,100,-40
1576771414.594002,680037.000,53140,3,MY,1,100,-41
1576771414.633144,680070.000,53140,3,MY,1,100,-40
1576771414.675252,680105.500,53157,2,MY,1,100,-40
1576771414.717359,680141.000,53157,2,MY,1,100,-40
1576771414.758280,680175.500,53175,4,MY,1,100,-39
1576771414.799201,680210.000,53175,4,MY,1,100,-39
1576771414.840123,680244.500,53175,4,MY,1,100,-39
1576771414.881044,680279.000,53175,4,MY,1,100,-39
1576771414.921965,680313.500,53191,2,MY,1,100,-38
1576771414.962887,680348.000,53191,2,MY,1,100,-39
1576771415.000052,680379.333,53209,3,MY,1,100,-39
1576771415.037217,680410.667,53209,3,MY,1,100,-39
1576771415.074382,680442.000,53209,3,MY,1,100,-40
1576771415.112931,680474.500,53227,4,MY,1,100,-38
1576771415.151480,680507.000,53227,4,MY,1,100,-40
1576771415.190029,680539.500,53227,4,MY,1,100,-40
1576771415.228578,680572.000,53227,4,MY,1,100,-40
1576771415.269697,680606.667,53245,3,MY,1,100,-39
1576771415.310816,680641.333,53245,3,MY,1,100,-39
1576771415.351935,680676.000,53245,3,MY,1,100,-40
1576771415.393054,680710.667,53263,3,MY,1,100,-39
1576771415.434173,680745.333,53263,3,MY,1,100,-39
1576771415.475292,680780.000,53263,3,MY,1,100,-39
1576771415.516213,680814.500,53282,2,MY,1,100,-39
1576771415.557134,680849.000,53282,2,MY,1,100,-40
1576771415.598253,680883.667,53300,3,MY,1,100,-40
1576771415.639372,680918.333,53300,3,MY,1,100,-40
1576771415.680491,680953.000,53300,3,MY,1,100,-40
1576771415.721215,680987.333,53318,3,MY,1,100,-39
1576771415.761938,681021.667,53318,3,MY,1,100,-41
1576771415.802662,681056.000,53318,3,MY,1,100,-39
1576771415.844176,681091.000,53335,3,MY,1,100,-40
1576771415.885690,681126.000,53335,3,MY,1,100,-40
1576771415.927205,681161.000,53335,3,MY,1,100,-40
1576771415.965951,681193.667,53353,3,MY,1,100,-39
1576771416.004698,681226.333,53353,3,MY,1,100,-40
1576771416.043445,681259.000,53353,3,MY,1,100,-40
1576771416.084168,681293.333,53369,3,MY,1,100,-41
1576771416.124892,681327.667,53369,3,MY,1,100,-40
1576771416.165615,681362.000,53369,3,MY,1,100,-41
1576771416.206734,681396.667,53387,3,MY,1,100,-41
1576771416.247853,681431.333,53387,3,MY,1,100,-40
1576771416.288972,681466.000,53387,3,MY,1,100,-40
1576771416.329696,681500.333,53405,3,MY,1,100,-42
1576771416.370419,681534.667,53405,3,MY,1,100,-40
1576771416.411143,681569.000,53405,3,MY,1,100,-39
1576771416.449890,681601.667,53424,3,MY,1,100,-40
1576771416.488636,681634.333,53424,3,MY,1,100,-42
1576771416.527383,681667.000,53424,3,MY,1,100,-40
1576771416.568107,681701.333,53442,3,MY,1,100,-41
1576771416.608830,681735.667,53442,3,MY,1,100,-41
1576771416.649554,681770.000,53442,3,MY,1,100,-39
1576771416.687510,681802.000,53460,3,MY,1,100,-40
1576771416.725466,681834.000,53460,3,MY,1,100,-40
1576771416.763422,681866.000,53460,3,MY,1,100,-42
1576771416.802563,681899.000,53478,3,MY,1,100,-42
1576771416.841706,681932.000,53478,3,MY,1,100,-41
1576771416.880848,681965.000,53478,3,MY,1,100,-42
1576771416.926316,682003.333,53495,3,MY,1,100,-41
1576771416.971784,682041.667,53495,3,MY,1,100,-41
1576771417.017252,682080.000,53495,3,MY,1,100,-41
1576771417.057580,682114.000,53513,3,MY,1,100,-40
1576771417.097908,682148.000,53513,3,MY,1,100,-41
1576771417.138236,682182.000,53513,3,MY,1,100,-42
1576771417.178960,682216.333,53531,3,MY,1,100,-40
1576771417.219683,682250.667,53531,3,MY,1,100,-42
1576771417.260407,682285.000,53531,3,MY,1,100,-41
1576771417.297572,682316.333,53547,3,MY,1,100,-42
1576771417.334738,682347.667,53547,3,MY,1,100,-40
1576771417.371903,682379.000,53547,3,MY,1,100,-41
1576771417.410649,682411.667,53565,3,MY,1,100,-40
1576771417.449396,682444.333,53565,3,MY,1,100,-41
1576771417.488143,682477.000,53565,3,MY,1,100,-40
1576771417.533611,682515.333,53584,3,MY,1,100,-40
1576771417.579079,682553.667,53584,3,MY,1,100,-40
1576771417.624547,682592.000,53584,3,MY,1,100,-41
1576771417.665270,682626.333,53602,3,MY,1,100,-43
1576771417.705994,682660.667,53602,3,MY,1,100,-41
1576771417.746717,682695.000,53602,3,MY,1,100,-41
1576771417.787441,682729.333,53620,3,MY,1,100,-41
1576771417.828165,682763.667,53620,3,MY,1,100,-40
1576771417.868888,682798.000,53620,3,MY,1,100,-40
1576771417.906844,682830.000,53638,3,MY,1,100,-41
1576771417.944800,682862.000,53638,3,MY,1,100,-41
1576771417.982756,682894.000,53638,3,MY,1,100,-41
1576771418.021503,682926.667,53656,3,MY,1,100,-42
1576771418.060249,682959.333,53656,3,MY,1,100,-40
1576771418.098996,682992.000,53656,3,MY,1,100,-42
1576771418.140115,683026.667,53673,3,MY,1,100,-41
1576771418.181234,683061.333,53673,3,MY,1,100,-42
1576771418.222353,683096.000,53673,3,MY,1,100,-41
1576771418.269205,683135.500,53691,2,MY,1,100,-41
1576771418.316057,683175.000,53691,2,MY,1,100,-41
1576771418.357176,683209.667,53707,3,MY,1,100,-41
1576771418.398294,683244.333,53707,3,MY,1,100,-42
1576771418.439414,683279.000,53707,3,MY,1,100,-41
1576771418.477073,683310.750,53726,4,MY,1,100,-41
1576771418.514732,683342.500,53726,4,MY,1,100,-39
1576771418.552392,683374.250,53726,4,MY,1,100,-40
1576771418.590051,683406.000,53726,4,MY,1,100,-40
1576771418.629589,683439.333,53744,3,MY,1,100,-40
1576771418.669126,683472.667,53744,3,MY,1,100,-40
1576771418.708663,683506.000,53744,3,MY,1,100,-40
1576771418.748201,683539.333,53762,3,MY,1,100,-40
1576771418.787738,683572.667,53762,3,MY,1,100,-41
1576771418.827276,683606.000,53762,3,MY,1,100,-40
1576771418.868395,683640.667,53780,3,MY,1,100,-40
1576771418.909514,683675.333,53780,3,MY,1,100,-39
1576771418.950633,683710.000,53780,3,MY,1,100,-41
1576771418.997484,683749.500,53798,2,MY,1,100,-41
1576771419.044336,683789.000,53798,2,MY,1,100,-39
1576771419.081501,683820.333,53816,3,MY,1,100,-40
1576771419.118667,683851.667,53816,3,MY,1,100,-39
1576771419.155832,683883.000,53816,3,MY,1,100,-40
1576771419.200905,683921.000,53834,3,MY,1,100,-42
1576771419.245977,683959.000,53834,3,MY,1,100,-40
1576771419.291050,683997.000,53834,3,MY,1,100,-40
1576771419.327820,684028.000,53851,3,MY,1,100,-40
1576771419.364589,684059.000,53851,3,MY,1,100,-40
1576771419.401359,684090.000,53851,3,MY,1,100,-40
1576771419.445641,684127.333,53870,3,MY,1,100,-40
1576771419.489923,684164.667,53870,3,MY,1,100,-41
1576771419.534205,684202.000,53870,3,MY,1,100,-40
1576771419.572556,684234.333,53886,3,MY,1,100,-39
1576771419.610908,684266.667,53886,3,MY,1,100,-39
1576771419.649259,684299.000,53886,3,MY,1,100,-41
1576771419.690773,684334.000,53904,3,MY,1,100,-40
1576771419.732288,684369.000,53904,3,MY,1,100,-40
1576771419.773802,684404.000,53904,3,MY,1,100,-39
1576771419.814723,684438.500,53922,2,MY,1,100,-40
1576771419.855644,684473.000,53922,2,MY,1,100,-40
1576771419.897455,684508.250,53940,4,MY,1,100,-40
1576771419.939266,684543.500,53940,4,MY,1,100,-40
1576771419.981077,684578.750,53940,4,MY,1,100,-39
1576771420.022888,684614.000,53940,4,MY,1,100,-41
1576771420.061635,684646.667,53958,3,MY,1,100,-41
1576771420.100381,684679.333,53958,3,MY,1,100,-42
1576771420.139128,684712.000,53958,3,MY,1,100,-41
1576771420.179693,684746.200,53979,5,MY,1,100,-42
1576771420.220259,684780.400,53979,5,MY,1,100,-42
1576771420.260824,684814.600,53979,5,MY,1,100,-42
1576771420.301389,684848.800,53979,5,MY,1,100,-41
1576771420.341955,684883.000,53979,5,MY,1,100,-40
1576771420.382876,684917.500,53999,2,MY,1,100,-40
1576771420.423797,684952.000,53999,2,MY,1,100,-40
1576771420.464916,684986.667,54018,3,MY,1,100,-40
1576771420.506035,685021.333,54018,3,MY,1,100,-40
1576771420.547154,685056.000,54018,3,MY,1,100,-40
1576771420.589064,685091.333,54036,3,MY,1,100,-40
1576771420.630974,685126.667,54036,3,MY,1,100,-42
1576771420.672883,685162.000,54036,3,MY,1,100,-42
1576771420.713607,685196.333,54054,3,MY,1,100,-40
1576771420.754330,685230.667,54054,3,MY,1,100,-40
1576771420.795054,685265.000,54054,3,MY,1,100,-40
1576771420.836173,685299.667,54072,3,MY,1,100,-41
1576771420.877292,685334.333,54072,3,MY,1,100,-40
1576771420.918411,685369.000,54072,3,MY,1,100,-42
1576771420.957553,685402.000,54090,3,MY,1,100,-40
1576771420.996695,685435.000,54090,3,MY,1,100,-42
1576771421.035837,685468.000,54090,3,MY,1,100,-41
1576771421.075770,685501.667,54107,3,MY,1,100,-39
1576771421.115703,685535.333,54107,3,MY,1,100,-41
1576771421.155635,685569.000,54107,3,MY,1,100,-41
1576771421.197150,685604.000,54125,3,MY,1,100,-40
1576771421.238664,685639.000,54125,3,MY,1,100,-40
1576771421.280178,685674.000,54125,3,MY,1,100,-40
1576771421.321297,685708.667,54141,3,MY,1,100,-40
1576771421.362416,685743.333,54141,3,MY,1,100,-39
1576771421.403535,685778.000,54141,3,MY,1,100,-40
1576771421.444654,685812.667,54159,3,MY,1,100,-39
1576771421.485773,685847.333,54159,3,MY,1,100,-40
1576771421.526892,685882.000,54159,3,MY,1,100,-40
1576771421.565639,685914.667,54178,3,MY,1,100,-39
1576771421.604385,685947.333,54178,3,MY,1,100,-38
1576771421.643132,685980.000,54178,3,MY,1,100,-39
1576771421.683460,686014.000,54196,3,MY,1,100,-39
1576771421.723788,686048.000,54196,3,MY,1,100,-39
1576771421.764117,686082.000,54196,3,MY,1,100,-40
1576771421.805236,686116.667,54214,3,MY,1,100,-38
1576771421.846354,686151.333,54214,3,MY,1,100,-39
1576771421.887473,686186.000,54214,3,MY,1,100,-40
1576771421.929383,686221.333,54232,3,MY,1,100,-39
1576771421.971293,686256.667,54232,3,MY,1,100,-38
1576771422.013202,686292.000,54232,3,MY,1,100,-39
1576771422.050368,686323.333,54250,3,MY,1,100,-40
1576771422.087533,686354.667,54250,3,MY,1,100,-41
1576771422.124698,686386.000,54250,3,MY,1,100,-39
1576771422.163049,686418.333,54268,3,MY,1,100,-40
1576771422.201401,686450.667,54268,3,MY,1,100,-39
1576771422.239752,686483.000,54268,3,MY,1,100,-39
1576771422.286011,686522.000,54285,2,MY,1,100,-39
1576771422.332270,686561.000,54285,2,MY,1,100,-39
1576771422.373191,686595.500,54303,4,MY,1,100,-39
1576771422.414112,686630.000,54303,4,MY,1,100,-39
1576771422.455033,686664.500,54303,4,MY,1,100,-40
1576771422.495955,686699.000,54303,4,MY,1,100,-39
1576771422.536876,686733.500,54320,2,MY,1,100,-38
1576771422.577797,686768.000,54320,2,MY,1,100,-40
1576771422.616939,686801.000,54338,3,MY,1,100,-39
1576771422.656081,686834.000,54338,3,MY,1,100,-40
1576771422.695223,686867.000,54338,3,MY,1,100,-39
1576771422.732388,686898.333,54356,3,MY,1,100,-38
1576771422.769554,686929.667,54356,3,MY,1,100,-38
1576771422.806719,686961.000,54356,3,MY,1,100,-36
1576771422.847640,686995.500,54374,4,MY,1,100,-36
1576771422.888561,687030.000,54374,4,MY,1,100,-35
1576771422.929483,687064.500,54374,4,MY,1,100,-33
1576771422.970404,687099.000,54374,4,MY,1,100,-33
1576771423.007174,687130.000,54392,2,MY,1,100,-30
1576771423.043943,687161.000,54392,2,MY,1,100,-31
1576771423.083975,687194.750,54410,4,MY,1,100,-32
1576771423.124007,687228.500,54410,4,MY,1,100,-32
1576771423.164038,687262.250,54410,4,MY,1,100,-32
1576771423.204070,687296.000,54410,4,MY,1,100,-33
1576771423.243212,687329.000,54428,2,MY,1,100,-34
1576771423.282354,687362.000,54428,2,MY,1,100,-33
1576771423.321496,687395.000,54446,4,MY,1,100,-34
1576771423.360638,687428.000,54446,4,MY,1,100,-33
1576771423.399781,687461.000,54446,4,MY,1,100,-32
1576771423.438922,687494.000,54446,4,MY,1,100,-33
1576771423.480437,687529.000,54464,3,MY,1,100,-33
1576771423.521951,687564.000,54464,3,MY,1,100,-33
1576771423.563465,687599.000,54464,3,MY,1,100,-34
1576771423.601421,687631.000,54482,3,MY,1,100,-33
1576771423.639377,687663.000,54482,3,MY,1,100,-32
1576771423.677333,687695.000,54482,3,MY,1,100,-32
1576771423.722011,687732.667,54500,3,MY,1,100,-33
1576771423.766688,687770.333,54500,3,MY,1,100,-33
1576771423.811365,687808.000,54500,3,MY,1,100,-33
1576771423.852286,687842.500,54516,2,MY,1,100,-34
1576771423.893208,687877.000,54516,2,MY,1,100,-33
1576771423.934327,687911.667,54534,3,MY,1,100,-34
1576771423.975446,687946.333,54534,3,MY,1,100,-33
1576771424.016564,687981.000,54534,3,MY,1,100,-35
1576771424.056497,688014.667,54552,3,MY,1,100,-35
1576771424.096430,688048.333,54552,3,MY,1,100,-34
1576771424.136363,688082.000,54552,3,MY,1,100,-35
1576771424.174615,688114.250,54570,4,MY,1,100,-35
1576771424.212868,688146.500,54570,4,MY,1,100,-33
1576771424.251120,688178.750,54570,4,MY,1,100,-34
1576771424.289373,688211.000,54570,4,MY,1,100,-34
1576771424.329306,688244.667,54588,3,MY,1,100,-32
1576771424.369238,688278.333,54588,3,MY,1,100,-33
1576771424.409171,688312.000,54588,3,MY,1,100,-34
1576771424.448709,688345.333,54606,3,MY,1,100,-33
1576771424.488246,688378.667,54606,3,MY,1,100,-35
1576771424.527784,688412.000,54606,3,MY,1,100,-35
1576771424.567716,688445.667,54625,3,MY,1,100,-34
1576771424.607649,688479.333,54625,3,MY,1,100,-34
1576771424.647582,688513.000,54625,3,MY,1,100,-35
1576771424.689096,688548.000,54642,2,MY,1,100,-34
1576771424.730611,688583.000,54642,2,MY,1,100,-33
1576771424.775288,688620.667,54660,3,MY,1,100,-34
1576771424.819965,688658.333,54660,3,MY,1,100,-33
1576771424.864642,688696.000,54660,3,MY,1,100,-33
1576771424.902994,688728.333,54678,3,MY,1,100,-33
1576771424.941345,688760.667,54678,3,MY,1,100,-33
1576771424.979697,688793.000,54678,3,MY,1,100,-32
1576771425.017257,688824.667,54694,3,MY,1,100,-34
1576771425.054818,688856.333,54694,3,MY,1,100,-33
1576771425.092378,688888.000,54694,3,MY,1,100,-35
1576771425.131916,688921.333,54712,3,MY,1,100,-35
1576771425.171453,688954.667,54712,3,MY,1,100,-36
1576771425.210990,688988.000,54712,3,MY,1,100,-34
1576771425.251319,689022.000,54730,3,MY,1,100,-35
1576771425.291647,689056.000,54730,3,MY,1,100,-33
1576771425.331975,689090.000,54730,3,MY,1,100,-35
1576771425.377048,689128.000,54748,3,MY,1,100,-35
1576771425.422120,689166.000,54748,3,MY,1,100,-34
1576771425.467193,689204.000,54748,3,MY,1,100,-32
1576771425.506731,689237.333,54767,3,MY,1,100,-33
1576771425.546268,689270.667,54767,3,MY,1,100,-33
1576771425.585805,689304.000,54767,3,MY,1,100,-35
1576771425.623366,689335.667,54785,3,MY,1,100,-34
1576771425.660927,689367.333,54785,3,MY,1,100,-35
1576771425.698487,689399.000,54785,3,MY,1,100,-35
1576771425.738024,689432.333,54803,3,MY,1,100,-35
1576771425.777562,689465.667,54803,3,MY,1,100,-34
1576771425.817099,689499.000,54803,3,MY,1,100,-35
1576771425.858218,689533.667,54821,3,MY,1,100,-34
1576771425.899337,689568.333,54821,3,MY,1,100,-33
1576771425.940456,689603.000,54821,3,MY,1,100,-34
1576771425.985529,689641.000,54838,3,MY,1,100,-35
1576771426.030602,689679.000,54838,3,MY,1,100,-35
1576771426.075674,689717.000,54838,3,MY,1,100,-33
1576771426.114816,689750.000,54856,3,MY,1,100,-33
1576771426.153958,689783.000,54856,3,MY,1,100,-34
1576771426.193100,689816.000,54856,3,MY,1,100,-33
1576771426.231294,689848.200,54877,5,MY,1,100,-34
1576771426.269487,689880.400,54877,5,MY,1,100,-33
1576771426.307680,689912.600,54877,5,MY,1,100,-35
1576771426.345873,689944.800,54877,5,MY,1,100,-34
1576771426.384066,689977.000,54877,5,MY,1,100,-34
1576771426.424790,690011.333,54897,3,MY,1,100,-35
1576771426.465513,690045.667,54897,3,MY,1,100,-33
1576771426.506237,690080.000,54897,3,MY,1,100,-35
1576771426.546961,690114.333,54916,3,MY,1,100,-35
1576771426.587684,690148.667,54916,3,MY,1,100,-32
1576771426.628408,690183.000,54916,3,MY,1,100,-34
1576771426.675853,690223.000,54933,2,MY,1,100,-33
1576771426.723297,690263.000,54933,2,MY,1,100,-34
1576771426.761649,690295.333,54951,3,MY,1,100,-34
1576771426.800000,690327.667,54951,3,MY,1,100,-35
1576771426.838351,690360.000,54951,3,MY,1,100,-34
1576771426.883819,690398.333,54967,3,MY,1,100,-34
1576771426.929287,690436.667,54967,3,MY,1,100,-34
1576771426.974756,690475.000,54967,3,MY,1,100,-33
1576771427.011921,690506.333,54985,3,MY,1,100,-35
1576771427.049086,690537.667,54985,3,MY,1,100,-35
1576771427.086251,690569.000,54985,3,MY,1,100,-34
1576771427.126184,690602.667,55003,3,MY,1,100,-35
1576771427.166117,690636.333,55003,3,MY,1,100,-35
1576771427.206050,690670.000,55003,3,MY,1,100,-33
1576771427.242819,690701.000,55021,4,MY,1,100,-35
1576771427.279589,690732.000,55021,4,MY,1,100,-34
1576771427.316359,690763.000,55021,4,MY,1,100,-33
1576771427.353129,690794.000,55021,4,MY,1,100,-35
1576771427.395829,690830.000,55039,2,MY,1,100,-35
1576771427.438530,690866.000,55039,2,MY,1,100,-34
1576771427.475596,690897.250,55058,4,MY,1,100,-34
1576771427.512662,690928.500,55058,4,MY,1,100,-35
1576771427.549729,690959.750,55058,4,MY,1,100,-35
1576771427.586795,690991.000,55058,4,MY,1,100,-34
1576771427.627914,691025.667,55076,3,MY,1,100,-35
1576771427.669033,691060.333,55076,3,MY,1,100,-33
1576771427.710152,691095.000,55076,3,MY,1,100,-33
1576771427.748108,691127.000,55094,3,MY,1,100,-35
1576771427.786064,691159.000,55094,3,MY,1,100,-34
1576771427.824020,691191.000,55094,3,MY,1,100,-35
1576771427.864743,691225.333,55112,3,MY,1,100,-35
1576771427.905467,691259.667,55112,3,MY,1,100,-35
1576771427.946190,691294.000,55112,3,MY,1,100,-35
1576771427.988298,691329.500,55129,2,MY,1,100,-35
1576771428.030405,691365.000,55129,2,MY,1,100,-35
1576771428.071919,691400.000,55146,3,MY,1,100,-35
1576771428.113434,691435.000,55146,3,MY,1,100,-33
1576771428.154948,691470.000,55146,3,MY,1,100,-31
1576771428.196462,691505.000,55163,3,MY,1,100,-33
1576771428.237977,691540.000,55163,3,MY,1,100,-30
1576771428.279491,691575.000,55163,3,MY,1,100,-30
1576771428.321401,691610.333,55181,3,MY,1,100,-28
1576771428.363310,691645.667,55181,3,MY,1,100,-25
1576771428.405220,691681.000,55181,3,MY,1,100,-26
1576771428.443176,691713.000,55200,3,MY,1,100,-25
1576771428.481132,691745.000,55200,3,MY,1,100,-25
1576771428.519088,691777.000,55200,3,MY,1,100,-24
1576771428.560602,691812.000,55218,3,MY,1,100,-22
1576771428.602117,691847.000,55218,3,MY,1,100,-23
1576771428.643631,691882.000,55218,3,MY,1,100,-23
1576771428.683564,691915.667,55236,3,MY,1,100,-22
1576771428.723496,691949.333,55236,3,MY,1,100,-24
1576771428.763429,691983.000,55236,3,MY,1,100,-25
1576771428.804153,692017.333,55254,3,MY,1,100,-25
1576771428.844876,692051.667,55254,3,MY,1,100,-25
1576771428.885600,692086.000,55254,3,MY,1,100,-26
1576771428.927510,692121.333,55271,3,MY,1,100,-28
1576771428.969419,692156.667,55271,3,MY,1,100,-28
1576771429.011329,692192.000,55271,3,MY,1,100,-28
1576771429.048890,692223.667,55289,3,MY,1,100,-29
1576771429.086450,692255.333,55289,3,MY,1,100,-29
1576771429.124011,692287.000,55289,3,MY,1,100,-29
1576771429.165525,692322.000,55307,3,MY,1,100,-28
1576771429.207039,692357.000,55307,3,MY,1,100,-28
1576771429.248554,692392.000,55307,3,MY,1,100,-29
1576771429.289673,692426.667,55325,3,MY,1,100,-29
1576771429.330791,692461.333,55325,3,MY,1,100,-30
1576771429.371910,692496.000,55325,3,MY,1,100,-31
1576771429.413029,692530.667,55341,3,MY,1,100,-29
1576771429.454148,692565.333,55341,3,MY,1,100,-29
1576771429.495267,692600.000,55341,3,MY,1,100,-29
1576771429.536782,692635.000,55360,3,MY,1,100,-27
1576771429.578296,692670.000,55360,3,MY,1,100,-27
1576771429.619810,692705.000,55360,3,MY,1,100,-26
1576771429.657766,692737.000,55378,3,MY,1,100,-26
1576771429.695722,692769.000,55378,3,MY,1,100,-28
1576771429.733678,692801.000,55378,3,MY,1,100,-26
1576771429.771634,692833.000,55396,3,MY,1,100,-27
1576771429.809590,692865.000,55396,3,MY,1,100,-26
1576771429.847546,692897.000,55396,3,MY,1,100,-28
1576771429.891037,692933.667,55414,3,MY,1,100,-28
1576771429.934528,692970.333,55414,3,MY,1,100,-29
1576771429.978019,693007.000,55414,3,MY,1,100,-28
1576771430.019138,693041.667,55432,3,MY,1,100,-29
1576771430.060257,693076.333,55432,3,MY,1,100,-28
1576771430.101376,693111.000,55432,3,MY,1,100,-28
1576771430.142100,693145.333,55450,3,MY,1,100,-29
1576771430.182823,693179.667,55450,3,MY,1,100,-28
1576771430.223547,693214.000,55450,3,MY,1,100,-29
1576771430.263084,693247.333,55467,3,MY,1,100,-30
1576771430.302622,693280.667,55467,3,MY,1,100,-29
1576771430.342159,693314.000,55467,3,MY,1,100,-29
1576771430.379720,693345.667,55485,3,MY,1,100,-29
1576771430.417280,693377.333,55485,3,MY,1,100,-31
1576771430.454841,693409.000,55485,3,MY,1,100,-30
1576771430.497937,693445.333,55504,3,MY,1,100,-29
1576771430.541033,693481.667,55504,3,MY,1,100,-29
1576771430.584128,693518.000,55504,3,MY,1,100,-29
1576771430.625050,693552.500,55520,2,MY,1,100,-29
1576771430.665971,693587.000,55520,2,MY,1,100,-30
1576771430.703927,693619.000,55538,3,MY,1,100,-30
1576771430.741883,693651.000,55538,3,MY,1,100,-30
1576771430.779839,693683.000,55538,3,MY,1,100,-31
1576771430.821649,693718.250,55556,4,MY,1,100,-29
1576771430.863460,693753.500,55556,4,MY,1,100,-31
1576771430.905271,693788.750,55556,4,MY,1,100,-31
1576771430.947082,693824.000,55556,4,MY,1,100,-29
1576771430.992155,693862.000,55574,2,MY,1,100,-30
1576771431.037227,693900.000,55574,2,MY,1,100,-30
1576771431.075974,693932.667,55592,3,MY,1,100,-31
1576771431.114721,693965.333,55592,3,MY,1,100,-29
1576771431.153467,693998.000,55592,3,MY,1,100,-30
1576771431.197749,694035.333,55610,3,MY,1,100,-31
1576771431.242031,694072.667,55610,3,MY,1,100,-31
1576771431.286313,694110.000,55610,3,MY,1,100,-30
1576771431.324269,694142.000,55627,3,MY,1,100,-31
1576771431.362225,694174.000,55627,3,MY,1,100,-31
1576771431.400181,694206.000,55627,3,MY,1,100,-31
1576771431.445254,694244.000,55645,3,MY,1,100,-31
1576771431.490326,694282.000,55645,3,MY,1,100,-31
1576771431.535399,694320.000,55645,3,MY,1,100,-31
1576771431.576123,694354.333,55662,3,MY,1,100,-31
1576771431.616846,694388.667,55662,3,MY,1,100,-31
1576771431.657570,694423.000,55662,3,MY,1,100,-30
1576771431.697898,694457.000,55680,3,MY,1,100,-30
1576771431.738226,694491.000,55680,3,MY,1,100,-31
1576771431.778554,694525.000,55680,3,MY,1,100,-32
1576771431.817301,694557.667,55698,3,MY,1,100,-31
1576771431.856048,694590.333,55698,3,MY,1,100,-31
1576771431.894794,694623.000,55698,3,MY,1,100,-31
1576771431.933936,694656.000,55716,3,MY,1,100,-33
1576771431.973078,694689.000,55716,3,MY,1,100,-31
1576771432.012221,694722.000,55716,3,MY,1,100,-31
1576771432.050572,694754.333,55734,3,MY,1,100,-31
1576771432.088923,694786.667,55734,3,MY,1,100,-30
1576771432.127275,694819.000,55734,3,MY,1,100,-31
1576771432.165626,694851.333,55752,3,MY,1,100,-31
1576771432.203977,694883.667,55752,3,MY,1,100,-32
1576771432.242328,694916.000,55752,3,MY,1,100,-31
1576771432.285741,694952.600,55773,5,MY,1,100,-31
1576771432.329153,694989.200,55773,5,MY,1,100,-32
1576771432.372565,695025.800,55773,5,MY,1,100,-30
1576771432.415977,695062.400,55773,5,MY,1,100,-32
1576771432.459389,695099.000,55773,5,MY,1,100,-31
1576771432.500310,695133.500,55794,2,MY,1,100,-31
1576771432.541231,695168.000,55794,2,MY,1,100,-31
1576771432.580374,695201.000,55812,3,MY,1,100,-32
1576771432.619516,695234.000,55812,3,MY,1,100,-31
1576771432.658658,695267.000,55812,3,MY,1,100,-31
1576771432.696910,695299.250,55830,4,MY,1,100,-32
1576771432.735162,695331.500,55830,4,MY,1,100,-31
1576771432.773415,695363.750,55830,4,MY,1,100,-31
1576771432.811667,695396.000,55830,4,MY,1,100,-31
1576771432.851205,695429.333,55848,3,MY,1,100,-32
1576771432.890742,695462.667,55848,3,MY,1,100,-32
1576771432.930280,695496.000,55848,3,MY,1,100,-33
1576771432.971794,695531.000,55866,2,MY,1,100,-31
1576771433.013309,695566.000,55866,2,MY,1,100,-31
1576771433.057590,695603.333,55884,3,MY,1,100,-31
1576771433.101872,695640.667,55884,3,MY,1,100,-32
1576771433.146154,695678.000,55884,3,MY,1,100,-31
1576771433.185296,695711.000,55901,3,MY,1,100,-32
1576771433.224438,695744.000,55901,3,MY,1,100,-32
1576771433.263580,695777.000,55901,3,MY,1,100,-32
1576771433.301932,695809.333,55919,3,MY,1,100,-31
1576771433.340283,695841.667,55919,3,MY,1,100,-30
1576771433.378634,695874.000,55919,3,MY,1,100,-32
1576771433.418172,695907.333,55937,3,MY,1,100,-33
1576771433.457709,695940.667,55937,3,MY,1,100,-32
1576771433.497247,695974.000,55937,3,MY,1,100,-32
1576771433.538761,696009.000,55954,3,MY,1,100,-32
1576771433.580275,696044.000,55954,3,MY,1,100,-31
1576771433.621790,696079.000,55954,3,MY,1,100,-32
1576771433.662513,696113.333,55972,3,MY,1,100,-32
1576771433.703237,696147.667,55972,3,MY,1,100,-31
1576771433.743960,696182.000,55972,3,MY,1,100,-31
1576771433.787452,696218.667,55990,3,MY,1,100,-32
1576771433.830943,696255.333,55990,3,MY,1,100,-31
1576771433.874434,696292.000,55990,3,MY,1,100,-33
1576771433.911599,696323.333,56008,3,MY,1,100,-31
1576771433.948764,696354.667,56008,3,MY,1,100,-32
1576771433.985929,696386.000,56008,3,MY,1,100,-31
1576771434.025862,696419.667,56026,3,MY,1,100,-32
1576771434.065795,696453.333,56026,3,MY,1,100,-33
1576771434.105728,696487.000,56026,3,MY,1,100,-33
1576771434.146451,696521.333,56044,3,MY,1,100,-32
1576771434.187175,696555.667,56044,3,MY,1,100,-34
1576771434.227899,696590.000,56044,3,MY,1,100,-31
1576771434.269017,696624.667,56062,3,MY,1,100,-33
1576771434.310136,696659.333,56062,3,MY,1,100,-32
1576771434.351255,696694.000,56062,3,MY,1,100,-32
1576771434.394747,696730.667,56079,3,MY,1,100,-32
1576771434.438238,696767.333,56079,3,MY,1,100,-32
1576771434.481729,696804.000,56079,3,MY,1,100,-32
1576771434.518894,696835.333,56098,3,MY,1,100,-32
1576771434.556059,696866.667,56098,3,MY,1,100,-32
1576771434.593225,696898.000,56098,3,MY,1,100,-32
1576771434.636320,696934.333,56114,3,MY,1,100,-32
1576771434.679416,696970.667,56114,3,MY,1,100,-33
1576771434.722512,697007.000,56114,3,MY,1,100,-32
1576771434.761259,697039.667,56132,3,MY,1,100,-32
1576771434.800005,697072.333,56132,3,MY,1,100,-32
1576771434.838752,697105.000,56132,3,MY,1,100,-31
1576771434.879080,697139.000,56150,3,MY,1,100,-33
1576771434.919408,697173.000,56150,3,MY,1,100,-34
1576771434.959737,697207.000,56150,3,MY,1,100,-32
1576771434.999669,697240.667,56168,3,MY,1,100,-32
1576771435.039602,697274.333,56168,3,MY,1,100,-33
1576771435.079535,697308.000,56168,3,MY,1,100,-32
1576771435.119863,697342.000,56186,3,MY,1,100,-32
1576771435.160191,697376.000,56186,3,MY,1,100,-33
1576771435.200520,697410.000,56186,3,MY,1,100,-33
1576771435.239661,697443.000,56204,3,MY,1,100,-32
1576771435.278804,697476.000,56204,3,MY,1,100,-33
1576771435.317946,697509.000,56204,3,MY,1,100,-34
1576771435.358669,697543.333,56222,3,MY,1,100,-32
1576771435.399393,697577.667,56222,3,MY,1,100,-33
1576771435.440116,697612.000,56222,3,MY,1,100,-33
1576771435.479654,697645.333,56241,3,MY,1,100,-36
1576771435.519191,697678.667,56241,3,MY,1,100,-33
1576771435.558729,697712.000,56241,3,MY,1,100,-33
1576771435.600243,697747.000,56258,3,MY,1,100,-32
1576771435.641757,697782.000,56258,3,MY,1,100,-33
1576771435.683272,697817.000,56258,3,MY,1,100,-32
1576771435.724391,697851.667,56276,3,MY,1,100,-33
1576771435.765510,697886.333,56276,3,MY,1,100,-33
1576771435.806628,697921.000,56276,3,MY,1,100,-34
1576771435.847550,697955.500,56292,2,MY,1,100,-34
1576771435.888471,697990.000,56292,2,MY,1,100,-32
1576771435.929194,698024.333,56310,3,MY,1,100,-34
1576771435.969918,698058.667,56310,3,MY,1,100,-33
1576771436.010642,698093.000,56310,3,MY,1,100,-34
1576771436.051365,698127.333,56328,3,MY,1,100,-33
1576771436.092089,698161.667,56328,3,MY,1,100,-35
1576771436.132812,698196.000,56328,3,MY,1,100,-33
1576771436.170373,698227.667,56346,3,MY,1,100,-34
1576771436.207933,698259.333,56346,3,MY,1,100,-34
1576771436.245494,698291.000,56346,3,MY,1,100,-33
1576771436.288194,698327.000,56364,3,MY,1,100,-35
1576771436.330895,698363.000,56364,3,MY,1,100,-33
1576771436.373595,698399.000,56364,3,MY,1,100,-32
1576771436.413924,698433.000,56382,3,MY,1,100,-33
1576771436.454252,698467.000,56382,3,MY,1,100,-34
1576771436.494580,698501.000,56382,3,MY,1,100,-35
1576771436.535699,698535.667,56401,3,MY,1,100,-35
1576771436.576818,698570.333,56401,3,MY,1,100,-33
1576771436.617937,698605.000,56401,3,MY,1,100,-34
1576771436.657870,698638.667,56418,3,MY,1,100,-33
1576771436.697802,698672.333,56418,3,MY,1,100,-35
1576771436.737735,698706.000,56418,3,MY,1,100,-34
1576771436.776086,698738.333,56436,3,MY,1,100,-35
1576771436.814438,698770.667,56436,3,MY,1,100,-35
1576771436.852789,698803.000,56436,3,MY,1,100,-34
1576771436.894699,698838.333,56454,3,MY,1,100,-34
1576771436.936608,698873.667,56454,3,MY,1,100,-34
1576771436.978518,698909.000,56454,3,MY,1,100,-35
1576771437.019637,698943.667,56470,3,MY,1,100,-35
1576771437.060756,698978.333,56470,3,MY,1,100,-35
1576771437.101875,699013.000,56470,3,MY,1,100,-35
1576771437.142994,699047.667,56488,3,MY,1,100,-35
1576771437.184113,699082.333,56488,3,MY,1,100,-34
1576771437.225232,699117.000,56488,3,MY,1,100,-34
1576771437.265955,699151.333,56506,3,MY,1,100,-34
1576771437.306679,699185.667,56506,3,MY,1,100,-32
1576771437.347402,699220.000,56506,3,MY,1,100,-35
1576771437.384963,699251.667,56524,3,MY,1,100,-34
1576771437.422523,699283.333,56524,3,MY,1,100,-35
1576771437.460084,699315.000,56524,3,MY,1,100,-33
1576771437.498435,699347.333,56543,3,MY,1,100,-34
1576771437.536787,699379.667,56543,3,MY,1,100,-33
1576771437.575138,699412.000,56543,3,MY,1,100,-34
1576771437.619815,699449.667,56561,3,MY,1,100,-34
1576771437.664493,699487.333,56561,3,MY,1,100,-33
1576771437.709170,699525.000,56561,3,MY,1,100,-34
1576771437.749893,699559.333,56579,3,MY,1,100,-34
1576771437.790617,699593.667,56579,3,MY,1,100,-33
1576771437.831341,699628.000,56579,3,MY,1,100,-34
1576771437.872855,699663.000,56596,3,MY,1,100,-34
1576771437.914369,699698.000,56596,3,MY,1,100,-34
1576771437.955884,699733.000,56596,3,MY,1,100,-33
1576771437.993049,699764.333,56614,3,MY,1,100,-35
1576771438.030214,699795.667,56614,3,MY,1,100,-34
1576771438.067379,699827.000,56614,3,MY,1,100,-34
1576771438.105335,699859.000,56632,3,MY,1,100,-34
1576771438.143291,699891.000,56632,3,MY,1,100,-33
1576771438.181247,699923.000,56632,3,MY,1,100,-36
1576771438.221575,699957.000,56650,3,MY,1,100,-33
1576771438.261903,699991.000,56650,3,MY,1,100,-34
1576771438.302232,700025.000,56650,3,MY,1,100,-33
