EpochTimestamp,EmotiBitTimestamp,PacketNumber,DataLength,TypeTag,ProtocolVersion,DataReliability,PR
1576770650.677150,36172.000,5801,6,PR,1,100,174296
1576770650.677150,36172.000,5801,6,PR,1,100,174389
1576770650.677150,36172.000,5801,6,PR,1,100,174422
1576770650.677150,36172.000,5801,6,PR,1,100,174458
1576770650.677150,36172.000,5801,6,PR,1,100,174470
1576770650.677150,36172.000,5801,6,PR,1,100,174531
1576770650.718289,36206.667,5819,3,PR,1,100,174551
1576770650.759428,36241.333,5819,3,PR,1,100,174605
1576770650.800567,36276.000,5819,3,PR,1,100,174628
1576770650.845266,36313.667,5837,3,PR,1,100,174651
1576770650.889965,36351.333,5837,3,PR,1,100,174616
1576770650.934664,36389.000,5837,3,PR,1,100,174573
1576770650.971847,36420.333,5855,3,PR,1,100,174555
1576770651.009030,36451.667,5855,3,PR,1,100,174593
1576770651.046213,36483.000,5855,3,PR,1,100,174615
1576770651.087748,36518.000,5873,3,PR,1,100,174641
1576770651.129282,36553.000,5873,3,PR,1,100,174652
1576770651.170816,36588.000,5873,3,PR,1,100,174672
1576770651.209186,36620.333,5891,3,PR,1,100,174689
1576770651.247556,36652.667,5891,3,PR,1,100,174728
1576770651.285926,36685.000,5891,3,PR,1,100,174741
1576770651.324691,36717.667,5910,3,PR,1,100,174783
1576770651.363456,36750.333,5910,3,PR,1,100,174811
1576770651.402222,36783.000,5910,3,PR,1,100,174842
1576770651.441383,36816.000,5927,3,PR,1,100,174862
1576770651.480544,36849.000,5927,3,PR,1,100,174896
1576770651.519705,36882.000,5927,3,PR,1,100,174942
1576770651.560844,36916.667,5945,3,PR,1,100,174987
1576770651.601982,36951.333,5945,3,PR,1,100,175015
1576770651.643121,36986.000,5945,3,PR,1,100,174951
1576770651.684260,37020.667,5961,3,PR,1,100,174873
1576770651.725399,37055.333,5961,3,PR,1,100,174898
1576770651.766538,37090.000,5961,3,PR,1,100,174899
1576770651.805699,37123.000,5979,3,PR,1,100,174885
1576770651.844860,37156.000,5979,3,PR,1,100,174894
1576770651.884021,37189.000,5979,3,PR,1,100,174906
1576770651.921995,37221.000,5997,3,PR,1,100,174907
1576770651.959969,37253.000,5997,3,PR,1,100,174907
1576770651.997943,37285.000,5997,3,PR,1,100,174921
1576770652.037104,37318.000,6015,3,PR,1,100,174920
1576770652.076265,37351.000,6015,3,PR,1,100,174932
1576770652.115426,37384.000,6015,3,PR,1,100,174984
1576770652.156170,37418.333,6033,3,PR,1,100,175036
1576770652.196913,37452.667,6033,3,PR,1,100,175077
1576770652.237656,37487.000,6033,3,PR,1,100,175050
1576770652.278795,37521.667,6051,3,PR,1,100,175048
1576770652.319934,37556.333,6051,3,PR,1,100,175040
1576770652.361073,37591.000,6051,3,PR,1,100,175125
1576770652.401420,37625.000,6070,3,PR,1,100,175108
1576770652.441768,37659.000,6070,3,PR,1,100,175013
1576770652.482116,37693.000,6070,3,PR,1,100,174947
1576770652.520090,37725.000,6088,3,PR,1,100,174948
1576770652.558064,37757.000,6088,3,PR,1,100,174955
1576770652.596038,37789.000,6088,3,PR,1,100,174978
1576770652.635199,37822.000,6106,3,PR,1,100,174989
1576770652.674360,37855.000,6106,3,PR,1,100,175013
1576770652.713521,37888.000,6106,3,PR,1,100,175024
1576770652.758220,37925.667,6123,3,PR,1,100,175039
1576770652.802919,37963.333,6123,3,PR,1,100,175048
1576770652.847618,38001.000,6123,3,PR,1,100,175052
1576770652.889152,38036.000,6141,3,PR,1,100,175091
1576770652.930686,38071.000,6141,3,PR,1,100,175116
1576770652.972221,38106.000,6141,3,PR,1,100,175173
1576770653.009008,38137.000,6157,3,PR,1,100,175177
1576770653.045796,38168.000,6157,3,PR,1,100,175188
1576770653.082584,38199.000,6157,3,PR,1,100,175191
1576770653.120558,38231.000,6175,3,PR,1,100,175194
1576770653.158532,38263.000,6175,3,PR,1,100,175146
1576770653.196507,38295.000,6175,3,PR,1,100,175077
1576770653.234481,38327.000,6193,3,PR,1,100,175064
1576770653.272455,38359.000,6193,3,PR,1,100,175042
1576770653.310429,38391.000,6193,3,PR,1,100,175042
1576770653.351964,38426.000,6212,3,PR,1,100,175061
1576770653.393498,38461.000,6212,3,PR,1,100,175050
1576770653.435032,38496.000,6212,3,PR,1,100,175035
1576770653.475776,38530.333,6230,3,PR,1,100,175112
1576770653.516519,38564.667,6230,3,PR,1,100,175141
1576770653.557262,38599.000,6230,3,PR,1,100,175173
1576770653.598005,38633.333,6248,3,PR,1,100,175116
1576770653.638749,38667.667,6248,3,PR,1,100,175107
1576770653.679492,38702.000,6248,3,PR,1,100,175195
1576770653.720631,38736.667,6266,3,PR,1,100,175252
1576770653.761770,38771.333,6266,3,PR,1,100,175281
1576770653.802908,38806.000,6266,3,PR,1,100,175259
1576770653.839696,38837.000,6283,3,PR,1,100,175221
1576770653.876483,38868.000,6283,3,PR,1,100,175146
1576770653.913271,38899.000,6283,3,PR,1,100,175134
1576770653.950948,38930.750,6301,4,PR,1,100,175149
1576770653.988626,38962.500,6301,4,PR,1,100,175149
1576770654.026304,38994.250,6301,4,PR,1,100,175078
1576770654.063981,39026.000,6301,4,PR,1,100,175069
1576770654.103934,39059.667,6319,3,PR,1,100,175129
1576770654.143886,39093.333,6319,3,PR,1,100,175155
1576770654.183838,39127.000,6319,3,PR,1,100,175171
1576770654.224185,39161.000,6336,3,PR,1,100,175167
1576770654.264533,39195.000,6336,3,PR,1,100,175172
1576770654.304881,39229.000,6336,3,PR,1,100,175184
1576770654.346415,39264.000,6354,2,PR,1,100,175194
1576770654.387949,39299.000,6354,2,PR,1,100,175240
1576770654.433439,39337.333,6372,3,PR,1,100,175276
1576770654.478930,39375.667,6372,3,PR,1,100,175309
1576770654.524420,39414.000,6372,3,PR,1,100,175379
1576770654.560416,39444.333,6390,3,PR,1,100,175332
1576770654.596412,39474.667,6390,3,PR,1,100,175262
1576770654.632409,39505.000,6390,3,PR,1,100,175245
1576770654.673152,39539.333,6408,3,PR,1,100,175265
1576770654.713895,39573.667,6408,3,PR,1,100,175263
1576770654.754639,39608.000,6408,3,PR,1,100,175247
1576770654.792316,39639.750,6426,4,PR,1,100,175261
1576770654.829994,39671.500,6426,4,PR,1,100,175275
1576770654.867671,39703.250,6426,4,PR,1,100,175281
1576770654.905349,39735.000,6426,4,PR,1,100,175288
1576770654.946290,39769.500,6444,2,PR,1,100,175297
1576770654.987231,39804.000,6444,2,PR,1,100,175337
1576770655.027183,39837.667,6462,3,PR,1,100,175342
1576770655.067135,39871.333,6462,3,PR,1,100,175348
1576770655.107087,39905.000,6462,3,PR,1,100,175376
1576770655.148226,39939.667,6479,3,PR,1,100,175424
1576770655.189365,39974.333,6479,3,PR,1,100,175442
1576770655.230504,40009.000,6479,3,PR,1,100,175436
1576770655.271642,40043.667,6497,3,PR,1,100,175342
1576770655.312781,40078.333,6497,3,PR,1,100,175291
1576770655.353920,40113.000,6497,3,PR,1,100,175285
1576770655.391598,40144.750,6514,4,PR,1,100,175279
1576770655.429275,40176.500,6514,4,PR,1,100,175279
1576770655.466953,40208.250,6514,4,PR,1,100,175280
1576770655.504631,40240.000,6514,4,PR,1,100,175285
1576770655.543792,40273.000,6532,3,PR,1,100,175268
1576770655.582952,40306.000,6532,3,PR,1,100,175259
1576770655.622113,40339.000,6532,3,PR,1,100,175251
1576770655.662066,40372.667,6550,3,PR,1,100,175261
1576770655.702018,40406.333,6550,3,PR,1,100,175286
1576770655.741970,40440.000,6550,3,PR,1,100,175334
1576770655.782713,40474.333,6568,3,PR,1,100,175365
1576770655.823456,40508.667,6568,3,PR,1,100,175419
1576770655.864199,40543.000,6568,3,PR,1,100,175355
1576770655.906327,40578.500,6586,2,PR,1,100,175264
1576770655.948455,40614.000,6586,2,PR,1,100,175220
1576770655.985836,40645.500,6604,4,PR,1,100,175258
1576770656.023217,40677.000,6604,4,PR,1,100,175252
1576770656.060598,40708.500,6604,4,PR,1,100,175213
1576770656.097979,40740.000,6604,4,PR,1,100,175179
1576770656.137140,40773.000,6622,3,PR,1,100,175145
1576770656.176301,40806.000,6622,3,PR,1,100,175111
1576770656.215461,40839.000,6622,3,PR,1,100,175119
1576770656.255216,40872.500,6640,2,PR,1,100,175089
1576770656.294970,40906.000,6640,2,PR,1,100,175089
1576770656.340065,40944.000,6658,3,PR,1,100,175149
1576770656.385159,40982.000,6658,3,PR,1,100,175144
1576770656.430254,41020.000,6658,3,PR,1,100,175101
1576770656.472183,41055.333,6676,3,PR,1,100,175030
1576770656.514113,41090.667,6676,3,PR,1,100,174852
1576770656.556043,41126.000,6676,3,PR,1,100,174752
1576770656.592593,41156.800,6695,5,PR,1,100,174527
1576770656.629144,41187.600,6695,5,PR,1,100,174203
1576770656.665694,41218.400,6695,5,PR,1,100,173986
1576770656.702244,41249.200,6695,5,PR,1,100,173843
1576770656.738795,41280.000,6695,5,PR,1,100,173665
1576770656.778351,41313.333,6713,3,PR,1,100,173460
1576770656.817908,41346.667,6713,3,PR,1,100,173233
1576770656.857464,41380.000,6713,3,PR,1,100,172749
1576770656.898998,41415.000,6733,3,PR,1,100,172488
1576770656.940533,41450.000,6733,3,PR,1,100,172171
1576770656.982067,41485.000,6733,3,PR,1,100,171921
1576770657.022810,41519.333,6750,3,PR,1,100,171692
1576770657.063554,41553.667,6750,3,PR,1,100,171539
1576770657.104297,41588.000,6750,3,PR,1,100,171386
1576770657.144249,41621.667,6768,3,PR,1,100,171326
1576770657.184201,41655.333,6768,3,PR,1,100,171156
1576770657.224153,41689.000,6768,3,PR,1,100,170962
1576770657.261732,41720.667,6786,3,PR,1,100,170696
1576770657.299311,41752.333,6786,3,PR,1,100,170450
1576770657.336889,41784.000,6786,3,PR,1,100,169499
1576770657.375655,41816.667,6803,3,PR,1,100,168721
1576770657.414420,41849.333,6803,3,PR,1,100,168528
1576770657.453186,41882.000,6803,3,PR,1,100,168634
1576770657.498676,41920.333,6821,3,PR,1,100,168572
1576770657.544166,41958.667,6821,3,PR,1,100,168475
1576770657.589656,41997.000,6821,3,PR,1,100,168404
1576770657.626048,42027.667,6839,3,PR,1,100,168361
1576770657.662440,42058.333,6839,3,PR,1,100,168275
1576770657.698832,42089.000,6839,3,PR,1,100,168067
1576770657.740366,42124.000,6857,3,PR,1,100,167871
1576770657.781900,42159.000,6857,3,PR,1,100,167622
1576770657.823435,42194.000,6857,3,PR,1,100,167614
1576770657.864573,42228.667,6875,3,PR,1,100,167637
1576770657.905712,42263.333,6875,3,PR,1,100,167729
1576770657.946851,42298.000,6875,3,PR,1,100,167647
1576770657.987199,42332.000,6893,3,PR,1,100,167559
1576770658.027547,42366.000,6893,3,PR,1,100,167530
1576770658.067894,42400.000,6893,3,PR,1,100,167469
1576770658.109824,42435.333,6911,3,PR,1,100,167381
1576770658.151754,42470.667,6911,3,PR,1,100,167235
1576770658.193684,42506.000,6911,3,PR,1,100,167180
1576770658.230472,42537.000,6928,3,PR,1,100,166925
1576770658.267259,42568.000,6928,3,PR,1,100,167261
1576770658.304047,42599.000,6928,3,PR,1,100,167289
1576770658.342021,42631.000,6947,3,PR,1,100,167317
1576770658.379995,42663.000,6947,3,PR,1,100,167324
1576770658.417969,42695.000,6947,3,PR,1,100,167538
1576770658.457526,42728.333,6965,3,PR,1,100,167764
1576770658.497083,42761.667,6965,3,PR,1,100,168060
1576770658.536639,42795.000,6965,3,PR,1,100,168279
1576770658.577382,42829.333,6981,3,PR,1,100,168481
1576770658.618126,42863.667,6981,3,PR,1,100,168705
1576770658.658869,42898.000,6981,3,PR,1,100,168728
1576770658.700008,42932.667,6999,3,PR,1,100,168906
1576770658.741147,42967.333,6999,3,PR,1,100,169121
1576770658.782285,43002.000,6999,3,PR,1,100,169339
1576770658.822633,43036.000,7017,3,PR,1,100,169558
1576770658.862981,43070.000,7017,3,PR,1,100,169707
1576770658.903328,43104.000,7017,3,PR,1,100,169822
1576770658.940907,43135.667,7035,3,PR,1,100,169948
1576770658.978486,43167.333,7035,3,PR,1,100,170022
1576770659.016064,43199.000,7035,3,PR,1,100,170179
1576770659.054434,43231.333,7053,3,PR,1,100,170404
1576770659.092804,43263.667,7053,3,PR,1,100,170634
1576770659.131174,43296.000,7053,3,PR,1,100,170958
1576770659.171917,43330.333,7071,3,PR,1,100,171235
1576770659.212660,43364.667,7071,3,PR,1,100,171534
1576770659.253404,43399.000,7071,3,PR,1,100,171883
1576770659.294543,43433.667,7090,3,PR,1,100,172071
1576770659.335681,43468.333,7090,3,PR,1,100,172167
1576770659.376820,43503.000,7090,3,PR,1,100,172347
1576770659.417959,43537.667,7107,3,PR,1,100,172458
1576770659.459098,43572.333,7107,3,PR,1,100,172540
1576770659.500237,43607.000,7107,3,PR,1,100,172747
1576770659.537815,43638.667,7125,3,PR,1,100,172834
1576770659.575394,43670.333,7125,3,PR,1,100,172960
1576770659.612972,43702.000,7125,3,PR,1,100,173001
1576770659.651738,43734.667,7143,3,PR,1,100,173081
1576770659.690503,43767.333,7143,3,PR,1,100,173127
1576770659.729269,43800.000,7143,3,PR,1,100,173229
1576770659.770012,43834.333,7159,3,PR,1,100,173255
1576770659.810755,43868.667,7159,3,PR,1,100,173227
1576770659.851499,43903.000,7159,3,PR,1,100,173203
1576770659.896989,43941.333,7177,3,PR,1,100,173164
1576770659.942479,43979.667,7177,3,PR,1,100,173126
1576770659.987969,44018.000,7177,3,PR,1,100,173113
1576770660.029107,44052.667,7195,3,PR,1,100,173130
1576770660.070246,44087.333,7195,3,PR,1,100,173112
1576770660.111385,44122.000,7195,3,PR,1,100,173024
1576770660.148964,44153.667,7213,3,PR,1,100,172930
1576770660.186542,44185.333,7213,3,PR,1,100,172885
1576770660.224121,44217.000,7213,3,PR,1,100,172846
1576770660.262095,44249.000,7231,3,PR,1,100,172785
1576770660.300070,44281.000,7231,3,PR,1,100,172784
1576770660.338044,44313.000,7231,3,PR,1,100,172790
1576770660.376018,44345.000,7250,3,PR,1,100,172777
1576770660.413992,44377.000,7250,3,PR,1,100,172753
1576770660.451967,44409.000,7250,3,PR,1,100,172741
1576770660.493106,44443.667,7268,3,PR,1,100,172723
1576770660.534244,44478.333,7268,3,PR,1,100,172720
1576770660.575383,44513.000,7268,3,PR,1,100,172749
1576770660.616126,44547.333,7285,3,PR,1,100,172765
1576770660.656870,44581.667,7285,3,PR,1,100,172836
1576770660.697613,44616.000,7285,3,PR,1,100,172908
1576770660.734994,44647.500,7303,4,PR,1,100,172924
1576770660.772375,44679.000,7303,4,PR,1,100,172919
1576770660.809756,44710.500,7303,4,PR,1,100,172913
1576770660.847136,44742.000,7303,4,PR,1,100,172932
1576770660.887089,44775.667,7321,3,PR,1,100,172915
1576770660.927041,44809.333,7321,3,PR,1,100,172891
1576770660.966993,44843.000,7321,3,PR,1,100,172870
1576770661.006945,44876.667,7339,3,PR,1,100,172837
1576770661.046897,44910.333,7339,3,PR,1,100,172820
1576770661.086849,44944.000,7339,3,PR,1,100,172846
1576770661.134317,44984.000,7355,2,PR,1,100,172859
1576770661.181785,45024.000,7355,2,PR,1,100,172857
1576770661.218968,45055.333,7373,3,PR,1,100,172844
1576770661.256151,45086.667,7373,3,PR,1,100,172835
1576770661.293334,45118.000,7373,3,PR,1,100,172896
1576770661.334473,45152.667,7392,3,PR,1,100,172925
1576770661.375612,45187.333,7392,3,PR,1,100,172933
1576770661.416751,45222.000,7392,3,PR,1,100,172888
1576770661.458285,45257.000,7410,3,PR,1,100,172871
1576770661.499820,45292.000,7410,3,PR,1,100,172869
1576770661.541354,45327.000,7410,3,PR,1,100,172871
1576770661.579724,45359.333,7428,3,PR,1,100,172881
1576770661.618093,45391.667,7428,3,PR,1,100,172866
1576770661.656463,45424.000,7428,3,PR,1,100,172820
1576770661.699184,45460.000,7446,3,PR,1,100,172809
1576770661.741905,45496.000,7446,3,PR,1,100,172822
1576770661.784626,45532.000,7446,3,PR,1,100,172876
1576770661.819832,45561.667,7463,3,PR,1,100,172899
1576770661.855037,45591.333,7463,3,PR,1,100,172935
1576770661.890243,45621.000,7463,3,PR,1,100,172953
1576770661.929404,45654.000,7481,4,PR,1,100,172961
1576770661.968565,45687.000,7481,4,PR,1,100,172986
1576770662.007725,45720.000,7481,4,PR,1,100,173012
1576770662.046886,45753.000,7481,4,PR,1,100,173018
1576770662.087234,45787.000,7499,2,PR,1,100,173024
1576770662.127582,45821.000,7499,2,PR,1,100,173046
1576770662.168720,45855.667,7515,3,PR,1,100,173067
1576770662.209859,45890.333,7515,3,PR,1,100,173069
1576770662.250998,45925.000,7515,3,PR,1,100,173050
1576770662.292532,45960.000,7534,3,PR,1,100,173042
1576770662.334067,45995.000,7534,3,PR,1,100,173079
1576770662.375601,46030.000,7534,3,PR,1,100,173059
1576770662.413279,46061.750,7552,4,PR,1,100,172987
1576770662.450956,46093.500,7552,4,PR,1,100,172950
1576770662.488634,46125.250,7552,4,PR,1,100,172959
1576770662.526312,46157.000,7552,4,PR,1,100,172987
1576770662.565077,46189.667,7570,3,PR,1,100,172985
1576770662.603842,46222.333,7570,3,PR,1,100,173004
1576770662.642608,46255.000,7570,3,PR,1,100,172994
1576770662.682956,46289.000,7591,4,PR,1,100,173002
1576770662.723303,46323.000,7591,4,PR,1,100,173002
1576770662.763651,46357.000,7591,4,PR,1,100,173004
1576770662.803998,46391.000,7591,4,PR,1,100,173007
1576770662.845137,46425.667,7609,3,PR,1,100,173065
1576770662.886276,46460.333,7609,3,PR,1,100,173099
1576770662.927415,46495.000,7609,3,PR,1,100,173104
1576770662.967763,46529.000,7627,3,PR,1,100,173066
1576770663.008110,46563.000,7627,3,PR,1,100,173049
1576770663.048458,46597.000,7627,3,PR,1,100,173089
1576770663.086432,46629.000,7645,3,PR,1,100,173080
1576770663.124407,46661.000,7645,3,PR,1,100,173021
1576770663.162381,46693.000,7645,3,PR,1,100,173049
1576770663.201542,46726.000,7663,3,PR,1,100,173020
1576770663.240703,46759.000,7663,3,PR,1,100,173032
1576770663.279864,46792.000,7663,3,PR,1,100,173042
1576770663.320607,46826.333,7682,3,PR,1,100,173065
1576770663.361350,46860.667,7682,3,PR,1,100,173068
1576770663.402093,46895.000,7682,3,PR,1,100,173079
1576770663.447188,46933.000,7700,3,PR,1,100,173101
1576770663.492282,46971.000,7700,3,PR,1,100,173108
1576770663.537377,47009.000,7700,3,PR,1,100,173096
1576770663.578120,47043.333,7718,3,PR,1,100,173131
1576770663.618863,47077.667,7718,3,PR,1,100,173170
1576770663.659606,47112.000,7718,3,PR,1,100,173182
1576770663.697581,47144.000,7735,3,PR,1,100,173206
1576770663.735555,47176.000,7735,3,PR,1,100,173206
1576770663.773529,47208.000,7735,3,PR,1,100,173214
1576770663.812295,47240.667,7753,3,PR,1,100,173152
1576770663.851060,47273.333,7753,3,PR,1,100,173118
1576770663.889826,47306.000,7753,3,PR,1,100,173133
1576770663.930173,47340.000,7771,3,PR,1,100,173174
1576770663.970521,47374.000,7771,3,PR,1,100,173173
1576770664.010869,47408.000,7771,3,PR,1,100,173176
1576770664.050030,47441.000,7789,3,PR,1,100,173180
1576770664.089190,47474.000,7789,3,PR,1,100,173162
1576770664.128351,47507.000,7789,3,PR,1,100,173142
1576770664.169095,47541.333,7805,3,PR,1,100,173140
1576770664.209838,47575.667,7805,3,PR,1,100,173183
1576770664.250581,47610.000,7805,3,PR,1,100,173219
1576770664.288160,47641.667,7824,3,PR,1,100,173253
1576770664.325738,47673.333,7824,3,PR,1,100,173211
1576770664.363317,47705.000,7824,3,PR,1,100,173178
1576770664.400500,47736.333,7842,3,PR,1,100,173240
1576770664.437684,47767.667,7842,3,PR,1,100,173276
1576770664.474867,47799.000,7842,3,PR,1,100,173269
1576770664.516401,47834.000,7860,3,PR,1,100,173164
1576770664.557935,47869.000,7860,3,PR,1,100,173118
1576770664.599470,47904.000,7860,3,PR,1,100,173107
1576770664.640609,47938.667,7878,3,PR,1,100,173131
1576770664.681747,47973.333,7878,3,PR,1,100,173146
1576770664.722886,48008.000,7878,3,PR,1,100,173158
1576770664.767585,48045.667,7896,3,PR,1,100,173151
1576770664.812284,48083.333,7896,3,PR,1,100,173151
1576770664.856983,48121.000,7896,3,PR,1,100,173159
1576770664.894957,48153.000,7914,3,PR,1,100,173153
1576770664.932931,48185.000,7914,3,PR,1,100,173159
1576770664.970906,48217.000,7914,3,PR,1,100,173182
1576770665.008880,48249.000,7931,3,PR,1,100,173176
1576770665.046854,48281.000,7931,3,PR,1,100,173141
1576770665.084829,48313.000,7931,3,PR,1,100,173150
1576770665.122012,48344.333,7949,3,PR,1,100,173130
1576770665.159195,48375.667,7949,3,PR,1,100,173062
1576770665.196378,48407.000,7949,3,PR,1,100,173002
1576770665.239099,48443.000,7967,3,PR,1,100,173001
1576770665.281820,48479.000,7967,3,PR,1,100,173009
1576770665.324541,48515.000,7967,3,PR,1,100,172992
1576770665.361329,48546.000,7984,3,PR,1,100,173001
1576770665.398116,48577.000,7984,3,PR,1,100,173006
1576770665.434904,48608.000,7984,3,PR,1,100,172992
1576770665.474856,48641.667,8002,3,PR,1,100,172966
1576770665.514808,48675.333,8002,3,PR,1,100,172968
1576770665.554760,48709.000,8002,3,PR,1,100,172970
1576770665.594317,48742.333,8020,3,PR,1,100,172988
1576770665.633873,48775.667,8020,3,PR,1,100,172975
1576770665.673430,48809.000,8020,3,PR,1,100,172977
1576770665.714569,48843.667,8038,3,PR,1,100,172984
1576770665.755708,48878.333,8038,3,PR,1,100,172973
1576770665.796846,48913.000,8038,3,PR,1,100,172927
1576770665.838381,48948.000,8056,3,PR,1,100,172865
1576770665.879915,48983.000,8056,3,PR,1,100,172851
1576770665.921449,49018.000,8056,3,PR,1,100,172860
1576770665.959028,49049.667,8074,3,PR,1,100,172862
1576770665.996607,49081.333,8074,3,PR,1,100,172847
1576770666.034185,49113.000,8074,3,PR,1,100,172813
1576770666.073742,49146.333,8092,3,PR,1,100,172811
1576770666.113298,49179.667,8092,3,PR,1,100,172816
1576770666.152855,49213.000,8092,3,PR,1,100,172791
1576770666.192807,49246.667,8110,3,PR,1,100,172783
1576770666.232759,49280.333,8110,3,PR,1,100,172757
1576770666.272711,49314.000,8110,3,PR,1,100,172755
1576770666.313455,49348.333,8128,3,PR,1,100,172745
1576770666.354198,49382.667,8128,3,PR,1,100,172695
1576770666.394941,49417.000,8128,3,PR,1,100,172765
1576770666.436476,49452.000,8146,3,PR,1,100,172809
1576770666.478010,49487.000,8146,3,PR,1,100,172771
1576770666.519544,49522.000,8146,3,PR,1,100,172644
1576770666.557518,49554.000,8162,3,PR,1,100,172572
1576770666.595493,49586.000,8162,3,PR,1,100,172620
1576770666.633467,49618.000,8162,3,PR,1,100,172669
1576770666.672035,49650.500,8180,4,PR,1,100,172694
1576770666.710602,49683.000,8180,4,PR,1,100,172636
1576770666.749170,49715.500,8180,4,PR,1,100,172603
1576770666.787738,49748.000,8180,4,PR,1,100,172571
1576770666.827294,49781.333,8198,3,PR,1,100,172555
1576770666.866851,49814.667,8198,3,PR,1,100,172556
1576770666.906407,49848.000,8198,3,PR,1,100,172549
1576770666.953282,49887.500,8216,2,PR,1,100,172560
1576770667.000156,49927.000,8216,2,PR,1,100,172562
1576770667.042086,49962.333,8234,3,PR,1,100,172542
1576770667.084016,49997.667,8234,3,PR,1,100,172540
1576770667.125946,50033.000,8234,3,PR,1,100,172534
1576770667.164316,50065.333,8252,3,PR,1,100,172464
1576770667.202686,50097.667,8252,3,PR,1,100,172388
1576770667.241055,50130.000,8252,3,PR,1,100,172334
1576770667.279425,50162.333,8271,3,PR,1,100,172325
1576770667.317795,50194.667,8271,3,PR,1,100,172304
1576770667.356165,50227.000,8271,3,PR,1,100,172302
1576770667.395721,50260.333,8289,3,PR,1,100,172284
1576770667.435278,50293.667,8289,3,PR,1,100,172283
1576770667.474834,50327.000,8289,3,PR,1,100,172246
1576770667.515973,50361.667,8306,3,PR,1,100,172221
1576770667.557112,50396.333,8306,3,PR,1,100,172240
1576770667.598251,50431.000,8306,3,PR,1,100,172216
1576770667.639785,50466.000,8324,3,PR,1,100,172218
1576770667.681320,50501.000,8324,3,PR,1,100,172283
1576770667.722854,50536.000,8324,3,PR,1,100,172300
1576770667.759048,50566.500,8340,4,PR,1,100,172304
1576770667.795243,50597.000,8340,4,PR,1,100,172257
1576770667.831437,50627.500,8340,4,PR,1,100,172135
1576770667.867631,50658.000,8340,4,PR,1,100,172043
1576770667.906001,50690.333,8358,3,PR,1,100,172008
1576770667.944371,50722.667,8358,3,PR,1,100,172023
1576770667.982740,50755.000,8358,3,PR,1,100,171931
1576770668.023088,50789.000,8376,3,PR,1,100,171893
1576770668.063436,50823.000,8376,3,PR,1,100,171882
1576770668.103784,50857.000,8376,3,PR,1,100,171874
1576770668.145318,50892.000,8394,2,PR,1,100,171842
1576770668.186852,50927.000,8394,2,PR,1,100,171833
1576770668.230364,50963.667,8412,3,PR,1,100,171830
1576770668.273877,51000.333,8412,3,PR,1,100,171815
1576770668.317389,51037.000,8412,3,PR,1,100,171807
1576770668.356945,51070.333,8431,3,PR,1,100,171792
1576770668.396502,51103.667,8431,3,PR,1,100,171802
1576770668.436059,51137.000,8431,3,PR,1,100,171797
1576770668.473736,51168.750,8449,4,PR,1,100,171803
1576770668.511414,51200.500,8449,4,PR,1,100,171702
1576770668.549091,51232.250,8449,4,PR,1,100,171607
1576770668.586769,51264.000,8449,4,PR,1,100,171576
1576770668.623952,51295.333,8467,3,PR,1,100,171567
1576770668.661135,51326.667,8467,3,PR,1,100,171574
1576770668.698318,51358.000,8467,3,PR,1,100,171598
1576770668.740446,51393.500,8486,4,PR,1,100,171646
1576770668.782574,51429.000,8486,4,PR,1,100,171649
1576770668.824701,51464.500,8486,4,PR,1,100,171650
1576770668.866829,51500.000,8486,4,PR,1,100,171673
1576770668.904210,51531.500,8508,4,PR,1,100,171715
1576770668.941591,51563.000,8508,4,PR,1,100,171716
1576770668.978972,51594.500,8508,4,PR,1,100,171723
1576770669.016353,51626.000,8508,4,PR,1,100,171716
1576770669.056107,51659.500,8526,2,PR,1,100,171735
1576770669.095861,51693.000,8526,2,PR,1,100,171750
1576770669.136605,51727.333,8544,3,PR,1,100,171807
1576770669.177348,51761.667,8544,3,PR,1,100,171908
1576770669.218091,51796.000,8544,3,PR,1,100,171969
1576770669.259230,51830.667,8563,3,PR,1,100,171954
1576770669.300369,51865.333,8563,3,PR,1,100,171875
1576770669.341508,51900.000,8563,3,PR,1,100,171848
1576770669.382251,51934.333,8580,3,PR,1,100,171834
1576770669.422994,51968.667,8580,3,PR,1,100,171811
1576770669.463737,52003.000,8580,3,PR,1,100,171824
1576770669.501712,52035.000,8598,4,PR,1,100,171887
1576770669.539686,52067.000,8598,4,PR,1,100,171934
1576770669.577660,52099.000,8598,4,PR,1,100,171986
1576770669.615634,52131.000,8598,4,PR,1,100,172035
1576770669.655389,52164.500,8616,2,PR,1,100,172055
1576770669.695143,52198.000,8616,2,PR,1,100,172071
1576770669.735886,52232.333,8632,3,PR,1,100,172055
1576770669.776629,52266.667,8632,3,PR,1,100,171992
1576770669.817373,52301.000,8632,3,PR,1,100,171931
1576770669.858116,52335.333,8650,3,PR,1,100,171981
1576770669.898859,52369.667,8650,3,PR,1,100,172106
1576770669.939602,52404.000,8650,3,PR,1,100,172144
1576770669.980741,52438.667,8668,3,PR,1,100,172178
1576770670.021880,52473.333,8668,3,PR,1,100,172195
1576770670.063019,52508.000,8668,3,PR,1,100,172273
1576770670.100400,52539.500,8686,4,PR,1,100,172315
1576770670.137781,52571.000,8686,4,PR,1,100,172264
1576770670.175162,52602.500,8686,4,PR,1,100,172177
1576770670.212543,52634.000,8686,4,PR,1,100,172143
1576770670.252099,52667.333,8704,3,PR,1,100,172122
1576770670.291656,52700.667,8704,3,PR,1,100,172132
1576770670.331212,52734.000,8704,3,PR,1,100,172123
1576770670.376900,52772.500,8723,2,PR,1,100,172091
1576770670.422588,52811.000,8723,2,PR,1,100,172122
1576770670.463331,52845.333,8741,3,PR,1,100,172162
1576770670.504074,52879.667,8741,3,PR,1,100,172214
1576770670.544817,52914.000,8741,3,PR,1,100,172397
1576770670.585956,52948.667,8759,3,PR,1,100,172593
1576770670.627095,52983.333,8759,3,PR,1,100,172650
1576770670.668234,53018.000,8759,3,PR,1,100,172689
1576770670.705813,53049.667,8776,3,PR,1,100,172662
1576770670.743391,53081.333,8776,3,PR,1,100,172687
1576770670.780970,53113.000,8776,3,PR,1,100,172669
1576770670.818944,53145.000,8794,3,PR,1,100,172631
1576770670.856919,53177.000,8794,3,PR,1,100,172619
1576770670.894893,53209.000,8794,3,PR,1,100,172588
1576770670.935636,53243.333,8812,3,PR,1,100,172477
1576770670.976379,53277.667,8812,3,PR,1,100,172403
1576770671.017123,53312.000,8812,3,PR,1,100,172400
1576770671.058657,53347.000,8828,3,PR,1,100,172396
1576770671.100191,53382.000,8828,3,PR,1,100,172407
1576770671.141726,53417.000,8828,3,PR,1,100,172434
1576770671.182864,53451.667,8846,3,PR,1,100,172416
1576770671.224003,53486.333,8846,3,PR,1,100,172322
1576770671.265142,53521.000,8846,3,PR,1,100,172306
1576770671.301336,53551.500,8865,4,PR,1,100,172349
1576770671.337531,53582.000,8865,4,PR,1,100,172420
1576770671.373725,53612.500,8865,4,PR,1,100,172410
1576770671.409919,53643.000,8865,4,PR,1,100,172374
1576770671.449080,53676.000,8883,3,PR,1,100,172399
1576770671.488241,53709.000,8883,3,PR,1,100,172429
1576770671.527402,53742.000,8883,3,PR,1,100,172454
1576770671.567156,53775.500,8901,2,PR,1,100,172465
1576770671.606910,53809.000,8901,2,PR,1,100,172469
1576770671.650818,53846.000,8919,3,PR,1,100,172451
1576770671.694726,53883.000,8919,3,PR,1,100,172356
1576770671.738634,53920.000,8919,3,PR,1,100,172300
1576770671.779773,53954.667,8937,3,PR,1,100,172314
1576770671.820911,53989.333,8937,3,PR,1,100,172320
1576770671.862050,54024.000,8937,3,PR,1,100,172328
1576770671.900816,54056.667,8954,3,PR,1,100,172337
1576770671.939581,54089.333,8954,3,PR,1,100,172279
1576770671.978346,54122.000,8954,3,PR,1,100,172307
1576770672.016914,54154.500,8972,4,PR,1,100,172373
1576770672.055482,54187.000,8972,4,PR,1,100,172309
1576770672.094049,54219.500,8972,4,PR,1,100,172281
1576770672.132617,54252.000,8972,4,PR,1,100,172362
1576770672.174151,54287.000,8990,2,PR,1,100,172342
1576770672.215686,54322.000,8990,2,PR,1,100,172324
1576770672.254847,54355.000,9007,4,PR,1,100,172312
1576770672.294008,54388.000,9007,4,PR,1,100,172321
1576770672.333169,54421.000,9007,4,PR,1,100,172355
1576770672.372329,54454.000,9007,4,PR,1,100,172344
1576770672.418017,54492.500,9025,2,PR,1,100,172297
1576770672.463705,54531.000,9025,2,PR,1,100,172307
1576770672.502470,54563.667,9043,3,PR,1,100,172320
1576770672.541236,54596.333,9043,3,PR,1,100,172309
1576770672.580001,54629.000,9043,3,PR,1,100,172294
1576770672.620349,54663.000,9061,3,PR,1,100,172276
1576770672.660697,54697.000,9061,3,PR,1,100,172286
1576770672.701044,54731.000,9061,3,PR,1,100,172305
1576770672.742183,54765.667,9079,3,PR,1,100,172298
1576770672.783322,54800.333,9079,3,PR,1,100,172332
1576770672.824461,54835.000,9079,3,PR,1,100,172350
1576770672.866391,54870.333,9097,3,PR,1,100,172361
1576770672.908321,54905.667,9097,3,PR,1,100,172401
1576770672.950251,54941.000,9097,3,PR,1,100,172388
1576770672.988225,54973.000,9114,3,PR,1,100,172392
1576770673.026199,55005.000,9114,3,PR,1,100,172371
1576770673.064173,55037.000,9114,3,PR,1,100,172339
1576770673.102148,55069.000,9132,3,PR,1,100,172269
1576770673.140122,55101.000,9132,3,PR,1,100,172212
1576770673.178096,55133.000,9132,3,PR,1,100,172258
1576770673.217653,55166.333,9150,3,PR,1,100,172309
1576770673.257209,55199.667,9150,3,PR,1,100,172331
1576770673.296766,55233.000,9150,3,PR,1,100,172279
1576770673.337905,55267.667,9167,3,PR,1,100,172247
1576770673.379043,55302.333,9167,3,PR,1,100,172265
1576770673.420182,55337.000,9167,3,PR,1,100,172325
1576770673.460926,55371.333,9185,9,PR,1,100,172355
1576770673.501669,55405.667,9185,9,PR,1,100,172329
1576770673.542412,55440.000,9185,9,PR,1,100,172358
1576770673.583155,55474.333,9185,9,PR,1,100,172387
1576770673.623899,55508.667,9185,9,PR,1,100,172404
1576770673.664642,55543.000,9185,9,PR,1,100,172415
1576770673.705385,55577.333,9185,9,PR,1,100,172362
1576770673.746128,55611.667,9185,9,PR,1,100,172291
1576770673.786871,55646.000,9185,9,PR,1,100,172210
1576770673.826428,55679.333,9203,3,PR,1,100,172206
1576770673.865984,55712.667,9203,3,PR,1,100,172183
1576770673.905541,55746.000,9203,3,PR,1,100,172209
1576770673.946680,55780.667,9221,3,PR,1,100,172235
1576770673.987818,55815.333,9221,3,PR,1,100,172271
1576770674.028957,55850.000,9221,3,PR,1,100,172233
1576770674.070096,55884.667,9238,3,PR,1,100,172267
1576770674.111235,55919.333,9238,3,PR,1,100,172256
1576770674.152374,55954.000,9238,3,PR,1,100,172262
1576770674.191930,55987.333,9256,3,PR,1,100,172255
1576770674.231487,56020.667,9256,3,PR,1,100,172245
1576770674.271043,56054.000,9256,3,PR,1,100,172245
1576770674.309018,56086.000,9273,3,PR,1,100,172269
1576770674.346992,56118.000,9273,3,PR,1,100,172256
1576770674.384966,56150.000,9273,3,PR,1,100,172225
1576770674.424523,56183.333,9291,3,PR,1,100,172215
1576770674.464079,56216.667,9291,3,PR,1,100,172199
1576770674.503636,56250.000,9291,3,PR,1,100,172155
1576770674.544775,56284.667,9309,3,PR,1,100,172093
1576770674.585913,56319.333,9309,3,PR,1,100,172084
1576770674.627052,56354.000,9309,3,PR,1,100,172129
1576770674.668586,56389.000,9327,3,PR,1,100,172160
1576770674.710121,56424.000,9327,3,PR,1,100,172089
1576770674.751655,56459.000,9327,3,PR,1,100,172061
1576770674.791054,56492.200,9348,5,PR,1,100,172037
1576770674.830452,56525.400,9348,5,PR,1,100,172088
1576770674.869850,56558.600,9348,5,PR,1,100,172060
1576770674.909249,56591.800,9348,5,PR,1,100,172065
1576770674.948647,56625.000,9348,5,PR,1,100,172090
1576770674.986621,56657.000,9368,3,PR,1,100,172100
1576770675.024595,56689.000,9368,3,PR,1,100,172127
1576770675.062570,56721.000,9368,3,PR,1,100,172111
1576770675.102917,56755.000,9386,3,PR,1,100,172057
1576770675.143265,56789.000,9386,3,PR,1,100,172002
1576770675.183613,56823.000,9386,3,PR,1,100,172010
1576770675.225147,56858.000,9402,3,PR,1,100,171984
1576770675.266681,56893.000,9402,3,PR,1,100,171979
1576770675.308216,56928.000,9402,3,PR,1,100,171992
1576770675.349355,56962.667,9421,3,PR,1,100,171989
1576770675.390493,56997.333,9421,3,PR,1,100,171979
1576770675.431632,57032.000,9421,3,PR,1,100,171971
1576770675.470398,57064.667,9439,3,PR,1,100,171982
1576770675.509163,57097.333,9439,3,PR,1,100,171995
1576770675.547928,57130.000,9439,3,PR,1,100,171980
1576770675.584716,57161.000,9457,3,PR,1,100,172005
1576770675.621504,57192.000,9457,3,PR,1,100,172049
1576770675.658291,57223.000,9457,3,PR,1,100,172106
1576770675.698243,57256.667,9475,3,PR,1,100,172085
1576770675.738195,57290.333,9475,3,PR,1,100,172045
1576770675.778147,57324.000,9475,3,PR,1,100,172022
1576770675.820868,57360.000,9493,3,PR,1,100,171995
1576770675.863590,57396.000,9493,3,PR,1,100,172012
1576770675.906311,57432.000,9493,3,PR,1,100,172003
1576770675.944285,57464.000,9511,3,PR,1,100,171998
1576770675.982259,57496.000,9511,3,PR,1,100,171984
1576770676.020234,57528.000,9511,3,PR,1,100,172034
1576770676.065328,57566.000,9528,3,PR,1,100,172032
1576770676.110422,57604.000,9528,3,PR,1,100,172034
1576770676.155517,57642.000,9528,3,PR,1,100,171969
1576770676.193491,57674.000,9546,3,PR,1,100,171966
1576770676.231465,57706.000,9546,3,PR,1,100,171994
1576770676.269440,57738.000,9546,3,PR,1,100,172025
1576770676.310579,57772.667,9563,3,PR,1,100,172031
1576770676.351717,57807.333,9563,3,PR,1,100,172049
1576770676.392856,57842.000,9563,3,PR,1,100,172054
1576770676.434984,57877.500,9581,2,PR,1,100,172034
1576770676.477112,57913.000,9581,2,PR,1,100,172035
1576770676.515679,57945.500,9599,4,PR,1,100,172013
1576770676.554247,57978.000,9599,4,PR,1,100,172015
1576770676.592814,58010.500,9599,4,PR,1,100,171961
1576770676.631382,58043.000,9599,4,PR,1,100,171948
1576770676.670938,58076.333,9617,3,PR,1,100,172006
1576770676.710495,58109.667,9617,3,PR,1,100,172012
1576770676.750052,58143.000,9617,3,PR,1,100,172031
1576770676.789608,58176.333,9635,3,PR,1,100,171981
1576770676.829165,58209.667,9635,3,PR,1,100,171974
1576770676.868721,58243.000,9635,3,PR,1,100,171972
1576770676.909860,58277.667,9653,3,PR,1,100,171994
1576770676.950999,58312.333,9653,3,PR,1,100,172026
1576770676.992138,58347.000,9653,3,PR,1,100,172025
1576770677.039012,58386.500,9671,2,PR,1,100,172039
1576770677.085887,58426.000,9671,2,PR,1,100,172017
1576770677.123070,58457.333,9688,3,PR,1,100,171925
1576770677.160253,58488.667,9688,3,PR,1,100,171904
1576770677.197436,58520.000,9688,3,PR,1,100,171932
1576770677.238971,58555.000,9706,3,PR,1,100,171912
1576770677.280505,58590.000,9706,3,PR,1,100,171893
1576770677.322039,58625.000,9706,3,PR,1,100,171914
1576770677.360310,58657.250,9723,4,PR,1,100,171921
1576770677.398581,58689.500,9723,4,PR,1,100,171920
1576770677.436852,58721.750,9723,4,PR,1,100,171923
1576770677.475123,58754.000,9723,4,PR,1,100,171932
1576770677.513493,58786.333,9741,3,PR,1,100,171953
1576770677.551863,58818.667,9741,3,PR,1,100,171953
1576770677.590233,58851.000,9741,3,PR,1,100,171969
1576770677.629789,58884.333,9759,3,PR,1,100,172003
1576770677.669346,58917.667,9759,3,PR,1,100,172056
1576770677.708902,58951.000,9759,3,PR,1,100,172022
1576770677.750041,58985.667,9777,3,PR,1,100,171934
1576770677.791180,59020.333,9777,3,PR,1,100,171899
1576770677.832319,59055.000,9777,3,PR,1,100,171908
1576770677.873853,59090.000,9795,2,PR,1,100,171887
1576770677.915387,59125.000,9795,2,PR,1,100,171847
1576770677.954252,59157.750,9813,4,PR,1,100,171858
1576770677.993116,59190.500,9813,4,PR,1,100,171863
1576770678.031980,59223.250,9813,4,PR,1,100,171876
1576770678.070844,59256.000,9813,4,PR,1,100,171830
1576770678.109214,59288.333,9831,3,PR,1,100,171864
1576770678.147584,59320.667,9831,3,PR,1,100,171927
1576770678.185954,59353.000,9831,3,PR,1,100,171959
1576770678.225906,59386.667,9849,3,PR,1,100,171915
1576770678.265858,59420.333,9849,3,PR,1,100,171881
1576770678.305810,59454.000,9849,3,PR,1,100,171961
1576770678.346949,59488.667,9867,3,PR,1,100,172027
1576770678.388088,59523.333,9867,3,PR,1,100,172014
1576770678.429227,59558.000,9867,3,PR,1,100,171912
1576770678.470761,59593.000,9885,2,PR,1,100,171838
1576770678.512295,59628.000,9885,2,PR,1,100,171841
1576770678.556203,59665.000,9901,3,PR,1,100,171846
1576770678.600111,59702.000,9901,3,PR,1,100,171824
1576770678.644019,59739.000,9901,3,PR,1,100,171820
1576770678.681400,59770.500,9919,4,PR,1,100,171840
1576770678.718781,59802.000,9919,4,PR,1,100,171821
1576770678.756161,59833.500,9919,4,PR,1,100,171836
1576770678.793542,59865.000,9919,4,PR,1,100,171837
1576770678.833890,59899.000,9937,2,PR,1,100,171856
1576770678.874238,59933.000,9937,2,PR,1,100,171881
1576770678.913102,59965.750,9955,4,PR,1,100,171864
1576770678.951966,59998.500,9955,4,PR,1,100,171882
1576770678.990831,60031.250,9955,4,PR,1,100,171901
1576770679.029695,60064.000,9955,4,PR,1,100,171924
1576770679.071229,60099.000,9973,2,PR,1,100,171926
1576770679.112764,60134.000,9973,2,PR,1,100,171917
1576770679.151628,60166.750,9991,4,PR,1,100,171851
1576770679.190492,60199.500,9991,4,PR,1,100,171755
1576770679.229357,60232.250,9991,4,PR,1,100,171747
1576770679.268221,60265.000,9991,4,PR,1,100,171807
1576770679.306591,60297.333,10010,3,PR,1,100,171804
1576770679.344960,60329.667,10010,3,PR,1,100,171811
1576770679.383330,60362.000,10010,3,PR,1,100,171778
1576770679.422491,60395.000,10028,3,PR,1,100,171803
1576770679.461652,60428.000,10028,3,PR,1,100,171841
1576770679.500813,60461.000,10028,3,PR,1,100,171853
1576770679.541952,60495.667,10046,3,PR,1,100,171819
1576770679.583091,60530.333,10046,3,PR,1,100,171812
1576770679.624230,60565.000,10046,3,PR,1,100,171818
1576770679.665171,60599.500,10063,2,PR,1,100,171841
1576770679.706112,60634.000,10063,2,PR,1,100,171863
1576770679.747943,60669.250,10079,4,PR,1,100,171876
1576770679.789774,60704.500,10079,4,PR,1,100,171876
1576770679.831605,60739.750,10079,4,PR,1,100,171841
1576770679.873436,60775.000,10079,4,PR,1,100,171818
1576770679.914970,60810.000,10097,2,PR,1,100,171821
1576770679.956505,60845.000,10097,2,PR,1,100,171806
1576770679.996061,60878.333,10115,3,PR,1,100,171795
1576770680.035618,60911.667,10115,3,PR,1,100,171817
1576770680.075174,60945.000,10115,3,PR,1,100,171827
1576770680.115522,60979.000,10133,3,PR,1,100,171822
1576770680.155869,61013.000,10133,3,PR,1,100,171817
1576770680.196217,61047.000,10133,3,PR,1,100,171847
1576770680.234785,61079.500,10151,4,PR,1,100,171879
1576770680.273353,61112.000,10151,4,PR,1,100,171933
1576770680.311920,61144.500,10151,4,PR,1,100,171891
1576770680.350488,61177.000,10151,4,PR,1,100,171895
1576770680.388067,61208.667,10170,3,PR,1,100,171889
1576770680.425645,61240.333,10170,3,PR,1,100,171925
1576770680.463224,61272.000,10170,3,PR,1,100,171952
1576770680.503572,61306.000,10188,3,PR,1,100,171923
1576770680.543919,61340.000,10188,3,PR,1,100,171863
1576770680.584267,61374.000,10188,3,PR,1,100,171825
1576770680.625406,61408.667,10206,3,PR,1,100,171826
1576770680.666544,61443.333,10206,3,PR,1,100,171849
1576770680.707683,61478.000,10206,3,PR,1,100,171882
1576770680.749218,61513.000,10223,2,PR,1,100,171882
1576770680.790752,61548.000,10223,2,PR,1,100,171891
1576770680.830150,61581.200,10244,5,PR,1,100,171884
1576770680.869549,61614.400,10244,5,PR,1,100,171901
1576770680.908947,61647.600,10244,5,PR,1,100,171931
1576770680.948345,61680.800,10244,5,PR,1,100,171937
1576770680.987744,61714.000,10244,5,PR,1,100,171945
1576770681.025718,61746.000,10264,3,PR,1,100,171934
1576770681.063692,61778.000,10264,3,PR,1,100,171941
1576770681.101666,61810.000,10264,3,PR,1,100,171940
1576770681.142014,61844.000,10282,3,PR,1,100,171952
1576770681.182362,61878.000,10282,3,PR,1,100,172024
1576770681.222709,61912.000,10282,3,PR,1,100,172056
1576770681.263453,61946.333,10301,3,PR,1,100,171965
1576770681.304196,61980.667,10301,3,PR,1,100,171885
1576770681.344939,62015.000,10301,3,PR,1,100,171915
1576770681.386473,62050.000,10318,3,PR,1,100,171985
1576770681.428008,62085.000,10318,3,PR,1,100,171973
1576770681.469542,62120.000,10318,3,PR,1,100,171939
1576770681.507516,62152.000,10336,3,PR,1,100,171936
1576770681.545491,62184.000,10336,3,PR,1,100,171957
1576770681.583465,62216.000,10336,3,PR,1,100,171966
1576770681.625000,62251.000,10354,3,PR,1,100,171965
1576770681.666534,62286.000,10354,3,PR,1,100,171969
1576770681.708068,62321.000,10354,3,PR,1,100,171988
1576770681.748416,62355.000,10370,3,PR,1,100,172007
1576770681.788764,62389.000,10370,3,PR,1,100,172021
1576770681.829111,62423.000,10370,3,PR,1,100,172049
1576770681.870646,62458.000,10388,3,PR,1,100,172086
1576770681.912180,62493.000,10388,3,PR,1,100,172095
1576770681.953714,62528.000,10388,3,PR,1,100,172117
1576770681.994853,62562.667,10406,3,PR,1,100,172091
1576770682.035992,62597.333,10406,3,PR,1,100,172035
1576770682.077131,62632.000,10406,3,PR,1,100,171998
1576770682.115896,62664.667,10424,3,PR,1,100,172006
1576770682.154661,62697.333,10424,3,PR,1,100,172003
1576770682.193427,62730.000,10424,3,PR,1,100,171989
1576770682.231401,62762.000,10442,3,PR,1,100,172012
1576770682.269375,62794.000,10442,3,PR,1,100,171986
1576770682.307350,62826.000,10442,3,PR,1,100,172011
1576770682.347302,62859.667,10461,3,PR,1,100,172046
1576770682.387254,62893.333,10461,3,PR,1,100,172081
1576770682.427206,62927.000,10461,3,PR,1,100,172024
1576770682.468740,62962.000,10479,3,PR,1,100,172039
1576770682.510275,62997.000,10479,3,PR,1,100,172078
1576770682.551809,63032.000,10479,3,PR,1,100,172137
1576770682.592552,63066.333,10497,3,PR,1,100,172180
1576770682.633296,63100.667,10497,3,PR,1,100,172153
1576770682.674039,63135.000,10497,3,PR,1,100,172159
1576770682.710431,63165.667,10514,3,PR,1,100,172173
1576770682.746823,63196.333,10514,3,PR,1,100,172147
1576770682.783215,63227.000,10514,3,PR,1,100,172076
1576770682.823563,63261.000,10532,3,PR,1,100,172062
1576770682.863910,63295.000,10532,3,PR,1,100,172068
1576770682.904258,63329.000,10532,3,PR,1,100,172082
1576770682.943419,63362.000,10550,3,PR,1,100,172099
1576770682.982580,63395.000,10550,3,PR,1,100,172095
1576770683.021741,63428.000,10550,3,PR,1,100,172101
1576770683.062880,63462.667,10566,3,PR,1,100,172100
1576770683.104018,63497.333,10566,3,PR,1,100,172137
1576770683.145157,63532.000,10566,3,PR,1,100,172129
1576770683.185505,63566.000,10584,3,PR,1,100,172127
1576770683.225852,63600.000,10584,3,PR,1,100,172108
1576770683.266200,63634.000,10584,3,PR,1,100,172140
1576770683.307734,63669.000,10603,3,PR,1,100,172174
1576770683.349269,63704.000,10603,3,PR,1,100,172168
1576770683.390803,63739.000,10603,3,PR,1,100,172184
1576770683.428382,63770.667,10621,3,PR,1,100,172188
1576770683.465961,63802.333,10621,3,PR,1,100,172180
1576770683.503539,63834.000,10621,3,PR,1,100,172119
1576770683.538745,63863.667,10639,3,PR,1,100,172041
1576770683.573950,63893.333,10639,3,PR,1,100,172085
1576770683.609155,63923.000,10639,3,PR,1,100,172075
1576770683.648613,63956.250,10657,4,PR,1,100,172102
1576770683.688071,63989.500,10657,4,PR,1,100,172130
1576770683.727528,64022.750,10657,4,PR,1,100,172133
1576770683.766986,64056.000,10657,4,PR,1,100,172107
1576770683.804169,64087.333,10675,3,PR,1,100,172109
1576770683.841352,64118.667,10675,3,PR,1,100,172125
1576770683.878536,64150.000,10675,3,PR,1,100,172142
1576770683.916905,64182.333,10693,3,PR,1,100,172149
1576770683.955275,64214.667,10693,3,PR,1,100,172167
1576770683.993645,64247.000,10693,3,PR,1,100,172168
1576770684.034388,64281.333,10710,3,PR,1,100,172174
1576770684.075131,64315.667,10710,3,PR,1,100,172191
1576770684.115875,64350.000,10710,3,PR,1,100,172202
1576770684.156222,64384.000,10728,3,PR,1,100,172180
1576770684.196570,64418.000,10728,3,PR,1,100,172080
1576770684.236918,64452.000,10728,3,PR,1,100,172033
1576770684.278452,64487.000,10747,3,PR,1,100,172044
1576770684.319986,64522.000,10747,3,PR,1,100,172022
1576770684.361521,64557.000,10747,3,PR,1,100,172002
1576770684.399891,64589.333,10763,3,PR,1,100,172031
1576770684.438260,64621.667,10763,3,PR,1,100,172073
1576770684.476630,64654.000,10763,3,PR,1,100,172067
1576770684.515000,64686.333,10781,3,PR,1,100,172003
1576770684.553370,64718.667,10781,3,PR,1,100,171978
1576770684.591740,64751.000,10781,3,PR,1,100,172045
1576770684.632087,64785.000,10799,3,PR,1,100,172090
1576770684.672435,64819.000,10799,3,PR,1,100,172112
1576770684.712783,64853.000,10799,3,PR,1,100,172077
1576770684.753130,64887.000,10817,3,PR,1,100,172065
1576770684.793478,64921.000,10817,3,PR,1,100,172074
1576770684.833826,64955.000,10817,3,PR,1,100,172077
1576770684.879316,64993.333,10835,3,PR,1,100,172045
1576770684.924806,65031.667,10835,3,PR,1,100,171957
1576770684.970296,65070.000,10835,3,PR,1,100,171923
1576770685.008666,65102.333,10853,3,PR,1,100,171934
1576770685.047035,65134.667,10853,3,PR,1,100,171925
1576770685.085405,65167.000,10853,3,PR,1,100,171940
1576770685.123380,65199.000,10871,3,PR,1,100,171953
1576770685.161354,65231.000,10871,3,PR,1,100,171946
1576770685.199328,65263.000,10871,3,PR,1,100,171905
1576770685.239280,65296.667,10890,3,PR,1,100,171924
1576770685.279233,65330.333,10890,3,PR,1,100,171918
1576770685.319185,65364.000,10890,3,PR,1,100,171923
1576770685.359928,65398.333,10907,3,PR,1,100,171929
1576770685.400671,65432.667,10907,3,PR,1,100,171945
1576770685.441414,65467.000,10907,3,PR,1,100,171931
1576770685.482553,65501.667,10925,3,PR,1,100,171928
1576770685.523692,65536.333,10925,3,PR,1,100,171932
1576770685.564831,65571.000,10925,3,PR,1,100,171893
1576770685.604387,65604.333,10941,3,PR,1,100,171853
1576770685.643944,65637.667,10941,3,PR,1,100,171835
1576770685.683500,65671.000,10941,3,PR,1,100,171855
1576770685.721079,65702.667,10959,3,PR,1,100,171812
1576770685.758658,65734.333,10959,3,PR,1,100,171775
1576770685.796236,65766.000,10959,3,PR,1,100,171830
1576770685.836584,65800.000,10977,3,PR,1,100,171858
1576770685.876932,65834.000,10977,3,PR,1,100,171862
1576770685.917279,65868.000,10977,3,PR,1,100,171838
1576770685.958418,65902.667,10995,3,PR,1,100,171818
1576770685.999557,65937.333,10995,3,PR,1,100,171831
1576770686.040696,65972.000,10995,3,PR,1,100,171837
1576770686.081835,66006.667,11013,3,PR,1,100,171863
1576770686.122973,66041.333,11013,3,PR,1,100,171864
1576770686.164112,66076.000,11013,3,PR,1,100,171860
1576770686.204460,66110.000,11031,3,PR,1,100,171879
1576770686.244807,66144.000,11031,3,PR,1,100,171833
1576770686.285155,66178.000,11031,3,PR,1,100,171755
1576770686.321943,66209.000,11050,3,PR,1,100,171740
1576770686.358730,66240.000,11050,3,PR,1,100,171734
1576770686.395518,66271.000,11050,3,PR,1,100,171734
1576770686.435075,66304.333,11068,3,PR,1,100,171758
1576770686.474631,66337.667,11068,3,PR,1,100,171724
1576770686.514188,66371.000,11068,3,PR,1,100,171729
1576770686.554535,66405.000,11085,3,PR,1,100,171706
1576770686.594883,66439.000,11085,3,PR,1,100,171707
1576770686.635231,66473.000,11085,3,PR,1,100,171695
1576770686.675974,66507.333,11103,3,PR,1,100,171695
1576770686.716717,66541.667,11103,3,PR,1,100,171696
1576770686.757460,66576.000,11103,3,PR,1,100,171702
1576770686.798995,66611.000,11119,3,PR,1,100,171709
1576770686.840529,66646.000,11119,3,PR,1,100,171702
1576770686.882063,66681.000,11119,3,PR,1,100,171758
1576770686.920038,66713.000,11140,5,PR,1,100,171704
1576770686.958012,66745.000,11140,5,PR,1,100,171601
1576770686.995986,66777.000,11140,5,PR,1,100,171523
1576770687.033960,66809.000,11140,5,PR,1,100,171516
1576770687.071935,66841.000,11140,5,PR,1,100,171547
1576770687.107931,66871.333,11160,3,PR,1,100,171559
1576770687.143928,66901.667,11160,3,PR,1,100,171520
1576770687.179924,66932.000,11160,3,PR,1,100,171443
1576770687.223436,66968.667,11178,3,PR,1,100,171385
1576770687.266948,67005.333,11178,3,PR,1,100,171408
1576770687.310461,67042.000,11178,3,PR,1,100,171451
1576770687.344875,67071.000,11196,3,PR,1,100,171470
1576770687.379289,67100.000,11196,3,PR,1,100,171443
1576770687.413703,67129.000,11196,3,PR,1,100,171452
1576770687.454051,67163.000,11214,3,PR,1,100,171480
1576770687.494399,67197.000,11214,3,PR,1,100,171479
1576770687.534746,67231.000,11214,3,PR,1,100,171418
1576770687.574698,67264.667,11230,3,PR,1,100,171325
1576770687.614650,67298.333,11230,3,PR,1,100,171247
1576770687.654603,67332.000,11230,3,PR,1,100,171267
1576770687.695741,67366.667,11248,3,PR,1,100,171278
1576770687.736880,67401.333,11248,3,PR,1,100,171295
1576770687.778019,67436.000,11248,3,PR,1,100,171210
1576770687.819553,67471.000,11266,3,PR,1,100,171143
1576770687.861088,67506.000,11266,3,PR,1,100,171185
1576770687.902622,67541.000,11266,3,PR,1,100,171246
1576770687.940201,67572.667,11284,3,PR,1,100,171270
1576770687.977779,67604.333,11284,3,PR,1,100,171223
1576770688.015358,67636.000,11284,3,PR,1,100,171224
1576770688.054124,67668.667,11302,3,PR,1,100,171236
1576770688.092889,67701.333,11302,3,PR,1,100,171259
1576770688.131655,67734.000,11302,3,PR,1,100,171284
1576770688.175562,67771.000,11320,3,PR,1,100,171297
1576770688.219470,67808.000,11320,3,PR,1,100,171287
1576770688.263378,67845.000,11320,3,PR,1,100,171196
1576770688.301352,67877.000,11339,3,PR,1,100,171110
1576770688.339326,67909.000,11339,3,PR,1,100,171080
1576770688.377301,67941.000,11339,3,PR,1,100,171098
1576770688.418439,67975.667,11356,3,PR,1,100,171055
1576770688.459578,68010.333,11356,3,PR,1,100,171042
1576770688.500717,68045.000,11356,3,PR,1,100,171042
1576770688.541460,68079.333,11374,3,PR,1,100,171040
1576770688.582203,68113.667,11374,3,PR,1,100,171033
1576770688.622947,68148.000,11374,3,PR,1,100,171052
1576770688.663690,68182.333,11392,3,PR,1,100,171078
1576770688.704433,68216.667,11392,3,PR,1,100,171098
1576770688.745176,68251.000,11392,3,PR,1,100,171099
1576770688.782755,68282.667,11408,3,PR,1,100,171111
1576770688.820334,68314.333,11408,3,PR,1,100,171127
1576770688.857913,68346.000,11408,3,PR,1,100,171159
1576770688.896678,68378.667,11426,3,PR,1,100,171179
1576770688.935443,68411.333,11426,3,PR,1,100,171181
1576770688.974209,68444.000,11426,3,PR,1,100,171107
1576770689.014556,68478.000,11444,3,PR,1,100,171019
1576770689.054904,68512.000,11444,3,PR,1,100,171007
1576770689.095252,68546.000,11444,3,PR,1,100,171019
1576770689.135599,68580.000,11462,3,PR,1,100,171004
1576770689.175947,68614.000,11462,3,PR,1,100,171001
1576770689.216295,68648.000,11462,3,PR,1,100,170979
1576770689.258224,68683.333,11481,3,PR,1,100,170969
1576770689.300154,68718.667,11481,3,PR,1,100,170977
1576770689.342084,68754.000,11481,3,PR,1,100,171022
1576770689.379663,68785.667,11499,3,PR,1,100,171042
1576770689.417242,68817.333,11499,3,PR,1,100,171013
1576770689.454821,68849.000,11499,3,PR,1,100,171001
1576770689.493586,68881.667,11517,3,PR,1,100,170996
1576770689.532351,68914.333,11517,3,PR,1,100,171090
1576770689.571117,68947.000,11517,3,PR,1,100,171150
1576770689.611860,68981.333,11535,3,PR,1,100,171178
1576770689.652603,69015.667,11535,3,PR,1,100,171178
1576770689.693347,69050.000,11535,3,PR,1,100,171143
1576770689.734090,69084.333,11552,3,PR,1,100,171047
1576770689.774833,69118.667,11552,3,PR,1,100,170981
1576770689.815576,69153.000,11552,3,PR,1,100,170976
1576770689.861066,69191.333,11570,3,PR,1,100,170972
1576770689.906556,69229.667,11570,3,PR,1,100,170980
1576770689.952046,69268.000,11570,3,PR,1,100,171018
1576770689.990021,69300.000,11586,3,PR,1,100,171058
1576770690.027995,69332.000,11586,3,PR,1,100,171033
1576770690.065969,69364.000,11586,3,PR,1,100,171030
1576770690.101174,69393.667,11604,3,PR,1,100,171049
1576770690.136380,69423.333,11604,3,PR,1,100,171055
1576770690.171585,69453.000,11604,3,PR,1,100,171051
1576770690.212724,69487.667,11623,3,PR,1,100,171086
1576770690.253863,69522.333,11623,3,PR,1,100,171094
1576770690.295002,69557.000,11623,3,PR,1,100,171116
1576770690.335745,69591.333,11641,3,PR,1,100,171151
1576770690.376488,69625.667,11641,3,PR,1,100,171159
1576770690.417231,69660.000,11641,3,PR,1,100,171197
1576770690.458370,69694.667,11659,3,PR,1,100,171158
1576770690.499509,69729.333,11659,3,PR,1,100,171077
1576770690.540648,69764.000,11659,3,PR,1,100,171039
1576770690.579017,69796.333,11677,3,PR,1,100,171066
1576770690.617387,69828.667,11677,3,PR,1,100,171098
1576770690.655757,69861.000,11677,3,PR,1,100,171098
1576770690.692545,69892.000,11695,3,PR,1,100,171114
1576770690.729332,69923.000,11695,3,PR,1,100,171059
1576770690.766120,69954.000,11695,3,PR,1,100,171062
1576770690.806863,69988.333,11713,3,PR,1,100,171137
1576770690.847606,70022.667,11713,3,PR,1,100,171196
1576770690.888350,70057.000,11713,3,PR,1,100,171251
1576770690.933048,70094.667,11730,3,PR,1,100,171245
1576770690.977747,70132.333,11730,3,PR,1,100,171236
1576770691.022446,70170.000,11730,3,PR,1,100,171243
1576770691.060816,70202.333,11748,3,PR,1,100,171273
1576770691.099186,70234.667,11748,3,PR,1,100,171293
1576770691.137556,70267.000,11748,3,PR,1,100,171326
1576770691.178694,70301.667,11764,3,PR,1,100,171323
1576770691.219833,70336.333,11764,3,PR,1,100,171243
1576770691.260972,70371.000,11764,3,PR,1,100,171229
1576770691.302506,70406.000,11783,3,PR,1,100,171280
1576770691.344041,70441.000,11783,3,PR,1,100,171280
1576770691.385575,70476.000,11783,3,PR,1,100,171248
1576770691.425132,70509.333,11801,3,PR,1,100,171249
1576770691.464688,70542.667,11801,3,PR,1,100,171264
1576770691.504245,70576.000,11801,3,PR,1,100,171276
1576770691.545384,70610.667,11819,3,PR,1,100,171297
1576770691.586522,70645.333,11819,3,PR,1,100,171330
1576770691.627661,70680.000,11819,3,PR,1,100,171352
1576770691.665636,70712.000,11837,3,PR,1,100,171392
1576770691.703610,70744.000,11837,3,PR,1,100,171417
1576770691.741584,70776.000,11837,3,PR,1,100,171444
1576770691.779954,70808.333,11855,3,PR,1,100,171498
1576770691.818324,70840.667,11855,3,PR,1,100,171520
1576770691.856694,70873.000,11855,3,PR,1,100,171527
1576770691.896646,70906.667,11873,3,PR,1,100,171547
1576770691.936598,70940.333,11873,3,PR,1,100,171484
1576770691.976550,70974.000,11873,3,PR,1,100,171400
1576770692.017689,71008.667,11890,3,PR,1,100,171386
1576770692.058827,71043.333,11890,3,PR,1,100,171396
1576770692.099966,71078.000,11890,3,PR,1,100,171406
1576770692.141896,71113.333,11908,3,PR,1,100,171411
1576770692.183826,71148.667,11908,3,PR,1,100,171432
1576770692.225756,71184.000,11908,3,PR,1,100,171437
1576770692.264522,71216.667,11925,3,PR,1,100,171452
1576770692.303287,71249.333,11925,3,PR,1,100,171461
1576770692.342052,71282.000,11925,3,PR,1,100,171470
1576770692.379631,71313.667,11943,3,PR,1,100,171470
1576770692.417210,71345.333,11943,3,PR,1,100,171497
1576770692.454788,71377.000,11943,3,PR,1,100,171553
1576770692.494740,71410.667,11961,3,PR,1,100,171556
1576770692.534693,71444.333,11961,3,PR,1,100,171554
1576770692.574645,71478.000,11961,3,PR,1,100,171539
1576770692.615388,71512.333,11979,3,PR,1,100,171482
1576770692.656131,71546.667,11979,3,PR,1,100,171416
1576770692.696874,71581.000,11979,3,PR,1,100,171388
1576770692.737618,71615.333,11997,3,PR,1,100,171437
1576770692.778361,71649.667,11997,3,PR,1,100,171475
1576770692.819104,71684.000,11997,3,PR,1,100,171479
1576770692.858265,71717.000,12015,3,PR,1,100,171464
1576770692.897426,71750.000,12015,3,PR,1,100,171414
1576770692.936587,71783.000,12015,3,PR,1,100,171466
1576770692.974799,71815.200,12036,5,PR,1,100,171533
1576770693.013010,71847.400,12036,5,PR,1,100,171591
1576770693.051222,71879.600,12036,5,PR,1,100,171566
1576770693.089434,71911.800,12036,5,PR,1,100,171564
1576770693.127645,71944.000,12036,5,PR,1,100,171582
1576770693.167993,71978.000,12056,3,PR,1,100,171618
1576770693.208340,72012.000,12056,3,PR,1,100,171639
1576770693.248688,72046.000,12056,3,PR,1,100,171651
1576770693.295563,72085.500,12075,2,PR,1,100,171591
1576770693.342437,72125.000,12075,2,PR,1,100,171543
1576770693.384367,72160.333,12093,3,PR,1,100,171527
1576770693.426297,72195.667,12093,3,PR,1,100,171516
1576770693.468227,72231.000,12093,3,PR,1,100,171515
1576770693.506498,72263.250,12111,4,PR,1,100,171516
1576770693.544769,72295.500,12111,4,PR,1,100,171501
1576770693.583040,72327.750,12111,4,PR,1,100,171474
1576770693.621311,72360.000,12111,4,PR,1,100,171506
1576770693.660076,72392.667,12129,3,PR,1,100,171521
1576770693.698842,72425.333,12129,3,PR,1,100,171536
1576770693.737607,72458.000,12129,3,PR,1,100,171566
1576770693.775581,72490.000,12147,3,PR,1,100,171563
1576770693.813555,72522.000,12147,3,PR,1,100,171567
1576770693.851530,72554.000,12147,3,PR,1,100,171573
1576770693.892669,72588.667,12165,3,PR,1,100,171578
1576770693.933807,72623.333,12165,3,PR,1,100,171538
1576770693.974946,72658.000,12165,3,PR,1,100,171487
1576770694.016481,72693.000,12182,3,PR,1,100,171491
1576770694.058015,72728.000,12182,3,PR,1,100,171504
1576770694.099549,72763.000,12182,3,PR,1,100,171457
1576770694.136733,72794.333,12200,3,PR,1,100,171419
1576770694.173916,72825.667,12200,3,PR,1,100,171494
1576770694.211099,72857.000,12200,3,PR,1,100,171573
1576770694.249469,72889.333,12217,3,PR,1,100,171585
1576770694.287838,72921.667,12217,3,PR,1,100,171550
1576770694.326208,72954.000,12217,3,PR,1,100,171551
1576770694.366556,72988.000,12235,3,PR,1,100,171561
1576770694.406904,73022.000,12235,3,PR,1,100,171578
1576770694.447251,73056.000,12235,3,PR,1,100,171603
1576770694.491159,73093.000,12253,3,PR,1,100,171615
1576770694.535067,73130.000,12253,3,PR,1,100,171632
1576770694.578974,73167.000,12253,3,PR,1,100,171666
1576770694.622289,73203.500,12271,2,PR,1,100,171634
1576770694.665603,73240.000,12271,2,PR,1,100,171558
1576770694.704171,73272.500,12289,4,PR,1,100,171517
1576770694.742739,73305.000,12289,4,PR,1,100,171541
1576770694.781306,73337.500,12289,4,PR,1,100,171524
1576770694.819874,73370.000,12289,4,PR,1,100,171519
1576770694.861408,73405.000,12307,2,PR,1,100,171564
1576770694.902943,73440.000,12307,2,PR,1,100,171553
1576770694.945268,73475.667,12324,3,PR,1,100,171571
1576770694.987594,73511.333,12324,3,PR,1,100,171585
1576770695.029919,73547.000,12324,3,PR,1,100,171596
1576770695.067597,73578.750,12342,4,PR,1,100,171640
1576770695.105274,73610.500,12342,4,PR,1,100,171683
1576770695.142952,73642.250,12342,4,PR,1,100,171720
1576770695.180629,73674.000,12342,4,PR,1,100,171730
1576770695.218999,73706.333,12360,3,PR,1,100,171756
1576770695.257369,73738.667,12360,3,PR,1,100,171784
1576770695.295739,73771.000,12360,3,PR,1,100,171774
1576770695.333713,73803.000,12379,3,PR,1,100,171697
1576770695.371688,73835.000,12379,3,PR,1,100,171634
1576770695.409662,73867.000,12379,3,PR,1,100,171636
1576770695.450405,73901.333,12395,3,PR,1,100,171626
1576770695.491148,73935.667,12395,3,PR,1,100,171625
1576770695.531892,73970.000,12395,3,PR,1,100,171641
1576770695.573030,74004.667,12413,3,PR,1,100,171627
1576770695.614169,74039.333,12413,3,PR,1,100,171630
1576770695.655308,74074.000,12413,3,PR,1,100,171619
1576770695.696842,74109.000,12431,2,PR,1,100,171628
1576770695.738377,74144.000,12431,2,PR,1,100,171634
1576770695.777538,74177.000,12449,4,PR,1,100,171634
1576770695.816699,74210.000,12449,4,PR,1,100,171635
1576770695.855860,74243.000,12449,4,PR,1,100,171652
1576770695.895020,74276.000,12449,4,PR,1,100,171663
1576770695.932599,74307.667,12467,3,PR,1,100,171652
1576770695.970178,74339.333,12467,3,PR,1,100,171709
1576770696.007757,74371.000,12467,3,PR,1,100,171652
1576770696.047709,74404.667,12485,3,PR,1,100,171602
1576770696.087661,74438.333,12485,3,PR,1,100,171535
1576770696.127613,74472.000,12485,3,PR,1,100,171483
1576770696.168356,74506.333,12503,3,PR,1,100,171522
1576770696.209100,74540.667,12503,3,PR,1,100,171568
1576770696.249843,74575.000,12503,3,PR,1,100,171561
1576770696.291377,74610.000,12521,3,PR,1,100,171527
1576770696.332911,74645.000,12521,3,PR,1,100,171524
1576770696.374446,74680.000,12521,3,PR,1,100,171539
1576770696.413607,74713.000,12539,2,PR,1,100,171594
1576770696.452768,74746.000,12539,2,PR,1,100,171593
1576770696.493115,74780.000,12557,4,PR,1,100,171590
1576770696.533463,74814.000,12557,4,PR,1,100,171661
1576770696.573811,74848.000,12557,4,PR,1,100,171694
1576770696.614158,74882.000,12557,4,PR,1,100,171756
1576770696.654111,74915.667,12575,3,PR,1,100,171802
1576770696.694063,74949.333,12575,3,PR,1,100,171848
1576770696.734015,74983.000,12575,3,PR,1,100,171807
1576770696.776143,75018.500,12591,2,PR,1,100,171706
1576770696.818270,75054.000,12591,2,PR,1,100,171698
1576770696.859409,75088.667,12609,3,PR,1,100,171732
1576770696.900548,75123.333,12609,3,PR,1,100,171730
1576770696.941687,75158.000,12609,3,PR,1,100,171736
1576770696.982430,75192.333,12627,3,PR,1,100,171728
1576770697.023173,75226.667,12627,3,PR,1,100,171742
1576770697.063916,75261.000,12627,3,PR,1,100,171732
1576770697.101297,75292.500,12645,4,PR,1,100,171708
1576770697.138678,75324.000,12645,4,PR,1,100,171786
1576770697.176059,75355.500,12645,4,PR,1,100,171811
1576770697.213440,75387.000,12645,4,PR,1,100,171807
1576770697.253788,75421.000,12664,3,PR,1,100,171780
1576770697.294135,75455.000,12664,3,PR,1,100,171821
1576770697.334483,75489.000,12664,3,PR,1,100,171869
1576770697.375622,75523.667,12682,3,PR,1,100,171864
1576770697.416761,75558.333,12682,3,PR,1,100,171785
1576770697.457899,75593.000,12682,3,PR,1,100,171675
1576770697.495874,75625.000,12700,3,PR,1,100,171626
1576770697.533848,75657.000,12700,3,PR,1,100,171632
1576770697.571822,75689.000,12700,3,PR,1,100,171628
1576770697.617510,75727.500,12717,2,PR,1,100,171621
1576770697.663198,75766.000,12717,2,PR,1,100,171650
1576770697.700282,75797.250,12735,4,PR,1,100,171653
1576770697.737366,75828.500,12735,4,PR,1,100,171633
1576770697.774451,75859.750,12735,4,PR,1,100,171649
1576770697.811535,75891.000,12735,4,PR,1,100,171668
1576770697.851487,75924.667,12753,3,PR,1,100,171710
1576770697.891439,75958.333,12753,3,PR,1,100,171719
1576770697.931391,75992.000,12753,3,PR,1,100,171729
1576770697.972134,76026.333,12769,3,PR,1,100,171802
1576770698.012878,76060.667,12769,3,PR,1,100,171942
1576770698.053621,76095.000,12769,3,PR,1,100,172103
1576770698.094760,76129.667,12787,3,PR,1,100,172181
1576770698.135899,76164.333,12787,3,PR,1,100,172150
1576770698.177037,76199.000,12787,3,PR,1,100,172060
1576770698.219758,76235.000,12805,2,PR,1,100,171968
1576770698.262479,76271.000,12805,2,PR,1,100,171988
1576770698.300849,76303.333,12824,3,PR,1,100,172023
1576770698.339219,76335.667,12824,3,PR,1,100,172046
1576770698.377589,76368.000,12824,3,PR,1,100,171989
1576770698.418728,76402.667,12842,3,PR,1,100,172042
1576770698.459867,76437.333,12842,3,PR,1,100,172095
1576770698.501005,76472.000,12842,3,PR,1,100,172167
1576770698.541749,76506.333,12860,3,PR,1,100,172177
1576770698.582492,76540.667,12860,3,PR,1,100,172184
1576770698.623235,76575.000,12860,3,PR,1,100,172138
1576770698.659132,76605.250,12877,4,PR,1,100,172129
1576770698.695030,76635.500,12877,4,PR,1,100,172041
1576770698.730928,76665.750,12877,4,PR,1,100,171756
1576770698.766825,76696.000,12877,4,PR,1,100,171524
1576770698.805591,76728.667,12895,3,PR,1,100,171354
1576770698.844356,76761.333,12895,3,PR,1,100,171257
1576770698.883121,76794.000,12895,3,PR,1,100,171175
1576770698.922282,76827.000,12913,3,PR,1,100,171103
1576770698.961443,76860.000,12913,3,PR,1,100,171014
1576770699.000604,76893.000,12913,3,PR,1,100,170915
1576770699.041427,76927.400,12934,5,PR,1,100,170962
1576770699.082249,76961.800,12934,5,PR,1,100,170953
1576770699.123071,76996.200,12934,5,PR,1,100,170876
1576770699.163894,77030.600,12934,5,PR,1,100,170830
1576770699.204716,77065.000,12934,5,PR,1,100,170831
1576770699.246844,77100.500,12955,2,PR,1,100,170791
1576770699.288972,77136.000,12955,2,PR,1,100,170800
1576770699.327243,77168.250,12973,4,PR,1,100,170712
1576770699.365514,77200.500,12973,4,PR,1,100,170706
1576770699.403785,77232.750,12973,4,PR,1,100,170704
1576770699.442055,77265.000,12973,4,PR,1,100,170709
1576770699.480030,77297.000,12990,2,PR,1,100,170696
1576770699.518004,77329.000,12990,2,PR,1,100,170680
1576770699.561121,77365.333,13008,3,PR,1,100,170681
1576770699.604237,77401.667,13008,3,PR,1,100,170680
1576770699.647354,77438.000,13008,3,PR,1,100,170649
1576770699.688493,77472.667,13026,3,PR,1,100,170660
1576770699.729631,77507.333,13026,3,PR,1,100,170562
1576770699.770770,77542.000,13026,3,PR,1,100,170431
1576770699.812700,77577.333,13042,3,PR,1,100,170366
1576770699.854630,77612.667,13042,3,PR,1,100,170310
1576770699.896560,77648.000,13042,3,PR,1,100,170273
1576770699.935325,77680.667,13060,3,PR,1,100,170248
1576770699.974091,77713.333,13060,3,PR,1,100,170232
1576770700.012856,77746.000,13060,3,PR,1,100,170225
1576770700.050435,77777.667,13078,3,PR,1,100,170192
1576770700.088014,77809.333,13078,3,PR,1,100,170201
1576770700.125592,77841.000,13078,3,PR,1,100,170217
1576770700.165149,77874.333,13097,3,PR,1,100,170267
1576770700.204705,77907.667,13097,3,PR,1,100,170366
1576770700.244262,77941.000,13097,3,PR,1,100,170345
1576770700.285005,77975.333,13115,3,PR,1,100,170287
1576770700.325748,78009.667,13115,3,PR,1,100,170338
1576770700.366492,78044.000,13115,3,PR,1,100,170350
1576770700.408026,78079.000,13133,3,PR,1,100,170373
1576770700.449560,78114.000,13133,3,PR,1,100,170334
1576770700.491095,78149.000,13133,3,PR,1,100,170270
1576770700.530651,78182.333,13151,3,PR,1,100,170182
1576770700.570208,78215.667,13151,3,PR,1,100,170139
1576770700.609764,78249.000,13151,3,PR,1,100,170093
1576770700.647739,78281.000,13168,4,PR,1,100,170122
1576770700.685713,78313.000,13168,4,PR,1,100,170156
1576770700.723687,78345.000,13168,4,PR,1,100,170166
1576770700.761662,78377.000,13168,4,PR,1,100,170200
1576770700.802405,78411.333,13186,3,PR,1,100,170215
1576770700.843148,78445.667,13186,3,PR,1,100,170223
1576770700.883891,78480.000,13186,3,PR,1,100,170242
1576770700.924832,78514.500,13204,2,PR,1,100,170271
1576770700.965773,78549.000,13204,2,PR,1,100,170274
1576770701.007308,78584.000,13220,3,PR,1,100,170328
1576770701.048842,78619.000,13220,3,PR,1,100,170376
1576770701.090376,78654.000,13220,3,PR,1,100,170398
1576770701.129933,78687.333,13238,3,PR,1,100,170435
1576770701.169489,78720.667,13238,3,PR,1,100,170448
1576770701.209046,78754.000,13238,3,PR,1,100,170465
1576770701.246427,78785.500,13257,4,PR,1,100,170470
1576770701.283808,78817.000,13257,4,PR,1,100,170407
1576770701.321189,78848.500,13257,4,PR,1,100,170377
1576770701.358570,78880.000,13257,4,PR,1,100,170368
1576770701.398522,78913.667,13275,3,PR,1,100,170394
1576770701.438474,78947.333,13275,3,PR,1,100,170346
1576770701.478426,78981.000,13275,3,PR,1,100,170333
1576770701.519169,79015.333,13293,3,PR,1,100,170433
1576770701.559912,79049.667,13293,3,PR,1,100,170468
1576770701.600656,79084.000,13293,3,PR,1,100,170456
1576770701.641399,79118.333,13311,3,PR,1,100,170441
1576770701.682142,79152.667,13311,3,PR,1,100,170443
1576770701.722885,79187.000,13311,3,PR,1,100,170479
1576770701.765013,79222.500,13329,2,PR,1,100,170522
1576770701.807141,79258.000,13329,2,PR,1,100,170519
1576770701.845412,79290.250,13346,4,PR,1,100,170544
1576770701.883683,79322.500,13346,4,PR,1,100,170572
1576770701.921954,79354.750,13346,4,PR,1,100,170585
1576770701.960225,79387.000,13346,4,PR,1,100,170622
1576770702.000968,79421.333,13364,3,PR,1,100,170621
1576770702.041711,79455.667,13364,3,PR,1,100,170602
1576770702.082454,79490.000,13364,3,PR,1,100,170554
1576770702.120429,79522.000,13382,3,PR,1,100,170556
1576770702.158403,79554.000,13382,3,PR,1,100,170535
1576770702.196377,79586.000,13382,3,PR,1,100,170576
1576770702.233956,79617.667,13401,3,PR,1,100,170610
1576770702.271534,79649.333,13401,3,PR,1,100,170615
1576770702.309113,79681.000,13401,3,PR,1,100,170603
1576770702.346692,79712.667,13417,3,PR,1,100,170646
1576770702.384271,79744.333,13417,3,PR,1,100,170627
1576770702.421849,79776.000,13417,3,PR,1,100,170631
1576770702.462197,79810.000,13435,3,PR,1,100,170639
1576770702.502545,79844.000,13435,3,PR,1,100,170678
1576770702.542892,79878.000,13435,3,PR,1,100,170725
1576770702.587987,79916.000,13453,3,PR,1,100,170703
1576770702.633081,79954.000,13453,3,PR,1,100,170718
1576770702.678176,79992.000,13453,3,PR,1,100,170742
1576770702.715359,80023.333,13471,3,PR,1,100,170690
1576770702.752542,80054.667,13471,3,PR,1,100,170650
1576770702.789725,80086.000,13471,3,PR,1,100,170605
1576770702.831259,80121.000,13489,3,PR,1,100,170663
1576770702.872794,80156.000,13489,3,PR,1,100,170782
1576770702.914328,80191.000,13489,3,PR,1,100,170840
1576770702.956258,80226.333,13507,3,PR,1,100,170861
1576770702.998188,80261.667,13507,3,PR,1,100,170887
1576770703.040118,80297.000,13507,3,PR,1,100,170881
1576770703.077697,80328.667,13524,3,PR,1,100,170893
1576770703.115276,80360.333,13524,3,PR,1,100,170915
1576770703.152854,80392.000,13524,3,PR,1,100,170987
1576770703.192411,80425.333,13543,3,PR,1,100,171088
1576770703.231967,80458.667,13543,3,PR,1,100,171128
1576770703.271524,80492.000,13543,3,PR,1,100,171159
1576770703.310685,80525.000,13561,3,PR,1,100,171189
1576770703.349846,80558.000,13561,3,PR,1,100,171193
1576770703.389007,80591.000,13561,3,PR,1,100,171169
1576770703.430937,80626.333,13579,3,PR,1,100,171098
1576770703.472867,80661.667,13579,3,PR,1,100,171041
1576770703.514796,80697.000,13579,3,PR,1,100,171029
1576770703.555935,80731.667,13595,3,PR,1,100,171054
1576770703.597074,80766.333,13595,3,PR,1,100,171022
1576770703.638213,80801.000,13595,3,PR,1,100,171093
1576770703.676583,80833.333,13613,3,PR,1,100,171113
1576770703.714953,80865.667,13613,3,PR,1,100,171133
1576770703.753322,80898.000,13613,3,PR,1,100,171063
1576770703.791297,80930.000,13631,3,PR,1,100,171057
1576770703.829271,80962.000,13631,3,PR,1,100,171146
1576770703.867245,80994.000,13631,3,PR,1,100,171206
1576770703.906406,81027.000,13649,3,PR,1,100,171162
1576770703.945567,81060.000,13649,3,PR,1,100,171160
1576770703.984728,81093.000,13649,3,PR,1,100,171161
1576770704.025867,81127.667,13667,3,PR,1,100,171168
1576770704.067006,81162.333,13667,3,PR,1,100,171122
1576770704.108145,81197.000,13667,3,PR,1,100,171055
1576770704.153239,81235.000,13685,3,PR,1,100,171038
1576770704.198334,81273.000,13685,3,PR,1,100,171067
1576770704.243428,81311.000,13685,3,PR,1,100,171040
1576770704.282589,81344.000,13704,3,PR,1,100,171077
1576770704.321750,81377.000,13704,3,PR,1,100,171113
1576770704.360911,81410.000,13704,3,PR,1,100,171100
1576770704.399281,81442.333,13721,3,PR,1,100,171109
1576770704.437651,81474.667,13721,3,PR,1,100,171090
1576770704.476020,81507.000,13721,3,PR,1,100,171112
1576770704.515181,81540.000,13739,3,PR,1,100,171131
1576770704.554342,81573.000,13739,3,PR,1,100,171163
1576770704.593503,81606.000,13739,3,PR,1,100,171158
1576770704.634247,81640.333,13757,3,PR,1,100,171177
1576770704.674990,81674.667,13757,3,PR,1,100,171175
1576770704.715733,81709.000,13757,3,PR,1,100,171117
1576770704.757267,81744.000,13773,3,PR,1,100,171057
1576770704.798802,81779.000,13773,3,PR,1,100,171100
1576770704.840336,81814.000,13773,3,PR,1,100,171102
1576770704.880288,81847.667,13791,3,PR,1,100,171079
1576770704.920240,81881.333,13791,3,PR,1,100,171055
1576770704.960192,81915.000,13791,3,PR,1,100,171099
1576770704.995398,81944.667,13809,3,PR,1,100,171132
1576770705.030603,81974.333,13809,3,PR,1,100,171117
1576770705.065809,82004.000,13809,3,PR,1,100,171089
1576770705.105919,82037.800,13830,5,PR,1,100,171086
1576770705.146029,82071.600,13830,5,PR,1,100,171090
1576770705.186139,82105.400,13830,5,PR,1,100,171111
1576770705.226250,82139.200,13830,5,PR,1,100,171153
1576770705.266360,82173.000,13830,5,PR,1,100,171171
1576770705.310861,82210.500,13851,2,PR,1,100,171183
1576770705.355362,82248.000,13851,2,PR,1,100,171096
1576770705.397292,82283.333,13867,3,PR,1,100,171064
1576770705.439222,82318.667,13867,3,PR,1,100,171082
1576770705.481152,82354.000,13867,3,PR,1,100,171096
1576770705.519917,82386.667,13885,3,PR,1,100,171109
1576770705.558683,82419.333,13885,3,PR,1,100,171082
1576770705.597448,82452.000,13885,3,PR,1,100,171113
1576770705.634631,82483.333,13903,3,PR,1,100,171102
1576770705.671815,82514.667,13903,3,PR,1,100,171094
1576770705.708998,82546.000,13903,3,PR,1,100,171092
1576770705.749741,82580.333,13921,3,PR,1,100,171093
1576770705.790484,82614.667,13921,3,PR,1,100,171096
1576770705.831228,82649.000,13921,3,PR,1,100,171070
1576770705.868312,82680.250,13939,4,PR,1,100,171055
1576770705.905396,82711.500,13939,4,PR,1,100,171136
1576770705.942480,82742.750,13939,4,PR,1,100,171050
1576770705.979564,82774.000,13939,4,PR,1,100,170994
1576770706.021494,82809.333,13957,3,PR,1,100,170967
1576770706.063424,82844.667,13957,3,PR,1,100,170940
1576770706.105354,82880.000,13957,3,PR,1,100,170924
1576770706.144515,82913.000,13975,3,PR,1,100,170910
1576770706.183676,82946.000,13975,3,PR,1,100,170924
1576770706.222837,82979.000,13975,3,PR,1,100,170914
1576770706.264372,83014.000,13993,2,PR,1,100,170897
1576770706.305906,83049.000,13993,2,PR,1,100,170887
1576770706.347045,83083.667,14011,3,PR,1,100,170870
1576770706.388184,83118.333,14011,3,PR,1,100,170869
1576770706.429322,83153.000,14011,3,PR,1,100,170863
1576770706.471252,83188.333,14027,3,PR,1,100,170861
1576770706.513182,83223.667,14027,3,PR,1,100,170869
1576770706.555112,83259.000,14027,3,PR,1,100,170860
1576770706.593482,83291.333,14045,3,PR,1,100,170736
1576770706.631852,83323.667,14045,3,PR,1,100,170701
1576770706.670222,83356.000,14045,3,PR,1,100,170703
1576770706.708493,83388.250,14063,4,PR,1,100,170698
1576770706.746763,83420.500,14063,4,PR,1,100,170652
1576770706.785034,83452.750,14063,4,PR,1,100,170626
1576770706.823305,83485.000,14063,4,PR,1,100,170671
1576770706.863653,83519.000,14081,2,PR,1,100,170688
1576770706.904001,83553.000,14081,2,PR,1,100,170681
1576770706.945140,83587.667,14099,3,PR,1,100,170637
1576770706.986278,83622.333,14099,3,PR,1,100,170601
1576770707.027417,83657.000,14099,3,PR,1,100,170617
1576770707.073303,83695.667,14117,3,PR,1,100,170701
1576770707.119188,83734.333,14117,3,PR,1,100,170785
1576770707.165074,83773.000,14117,3,PR,1,100,170801
1576770707.203839,83805.667,14136,3,PR,1,100,170832
1576770707.242605,83838.333,14136,3,PR,1,100,170843
1576770707.281370,83871.000,14136,3,PR,1,100,170924
1576770707.318949,83902.667,14154,3,PR,1,100,171041
1576770707.356528,83934.333,14154,3,PR,1,100,171016
1576770707.394106,83966.000,14154,3,PR,1,100,171110
1576770707.434058,83999.667,14171,3,PR,1,100,171149
1576770707.474010,84033.333,14171,3,PR,1,100,171254
1576770707.513963,84067.000,14171,3,PR,1,100,171080
1576770707.555101,84101.667,14189,3,PR,1,100,170868
1576770707.596240,84136.333,14189,3,PR,1,100,170761
1576770707.637379,84171.000,14189,3,PR,1,100,170714
1576770707.678518,84205.667,14205,3,PR,1,100,170692
1576770707.719656,84240.333,14205,3,PR,1,100,170671
1576770707.760795,84275.000,14205,3,PR,1,100,170623
1576770707.800352,84308.333,14223,3,PR,1,100,170775
1576770707.839908,84341.667,14223,3,PR,1,100,171024
1576770707.879465,84375.000,14223,3,PR,1,100,171101
1576770707.916648,84406.333,14241,3,PR,1,100,171024
1576770707.953831,84437.667,14241,3,PR,1,100,170938
1576770707.991014,84469.000,14241,3,PR,1,100,170890
1576770708.030571,84502.333,14259,3,PR,1,100,170806
1576770708.070127,84535.667,14259,3,PR,1,100,170720
1576770708.109684,84569.000,14259,3,PR,1,100,170682
1576770708.151218,84604.000,14277,3,PR,1,100,170673
1576770708.192753,84639.000,14277,3,PR,1,100,170666
1576770708.234287,84674.000,14277,3,PR,1,100,170668
1576770708.275426,84708.667,14296,3,PR,1,100,170623
1576770708.316565,84743.333,14296,3,PR,1,100,170614
1576770708.357703,84778.000,14296,3,PR,1,100,170596
1576770708.398447,84812.333,14314,3,PR,1,100,170589
1576770708.439190,84846.667,14314,3,PR,1,100,170582
1576770708.479933,84881.000,14314,3,PR,1,100,170606
1576770708.517116,84912.333,14331,3,PR,1,100,170603
1576770708.554300,84943.667,14331,3,PR,1,100,170578
1576770708.591483,84975.000,14331,3,PR,1,100,170578
1576770708.630644,85008.000,14349,3,PR,1,100,170504
1576770708.669805,85041.000,14349,3,PR,1,100,170413
1576770708.708966,85074.000,14349,3,PR,1,100,170383
1576770708.749313,85108.000,14367,3,PR,1,100,170358
1576770708.789661,85142.000,14367,3,PR,1,100,170334
1576770708.830009,85176.000,14367,3,PR,1,100,170332
1576770708.871147,85210.667,14383,3,PR,1,100,170283
1576770708.912286,85245.333,14383,3,PR,1,100,170288
1576770708.953425,85280.000,14383,3,PR,1,100,170320
1576770708.994959,85315.000,14401,3,PR,1,100,170347
1576770709.036494,85350.000,14401,3,PR,1,100,170299
1576770709.078028,85385.000,14401,3,PR,1,100,170268
1576770709.114816,85416.000,14419,3,PR,1,100,170320
1576770709.151603,85447.000,14419,3,PR,1,100,170348
1576770709.188391,85478.000,14419,3,PR,1,100,170339
1576770709.227156,85510.667,14438,3,PR,1,100,170290
1576770709.265922,85543.333,14438,3,PR,1,100,170294
1576770709.304687,85576.000,14438,3,PR,1,100,170243
1576770709.346221,85611.000,14456,3,PR,1,100,170197
1576770709.387756,85646.000,14456,3,PR,1,100,170123
1576770709.429290,85681.000,14456,3,PR,1,100,170096
1576770709.467264,85713.000,14474,3,PR,1,100,170092
1576770709.505239,85745.000,14474,3,PR,1,100,170090
1576770709.543213,85777.000,14474,3,PR,1,100,170132
1576770709.588703,85815.333,14492,3,PR,1,100,170138
1576770709.634193,85853.667,14492,3,PR,1,100,170084
1576770709.679683,85892.000,14492,3,PR,1,100,170071
1576770709.716471,85923.000,14509,3,PR,1,100,170085
1576770709.753258,85954.000,14509,3,PR,1,100,170128
1576770709.790046,85985.000,14509,3,PR,1,100,170102
1576770709.831580,86020.000,14527,3,PR,1,100,170068
1576770709.873115,86055.000,14527,3,PR,1,100,170059
1576770709.914649,86090.000,14527,3,PR,1,100,170126
1576770709.955788,86124.667,14543,3,PR,1,100,170147
1576770709.996927,86159.333,14543,3,PR,1,100,170148
1576770710.038065,86194.000,14543,3,PR,1,100,170136
1576770710.078413,86228.000,14561,3,PR,1,100,170041
1576770710.118761,86262.000,14561,3,PR,1,100,169996
1576770710.159108,86296.000,14561,3,PR,1,100,169996
1576770710.201038,86331.333,14580,3,PR,1,100,169992
1576770710.242968,86366.667,14580,3,PR,1,100,169991
1576770710.284898,86402.000,14580,3,PR,1,100,169995
1576770710.320894,86432.333,14598,3,PR,1,100,169994
1576770710.356891,86462.667,14598,3,PR,1,100,170007
1576770710.392887,86493.000,14598,3,PR,1,100,169995
1576770710.430862,86525.000,14616,3,PR,1,100,169981
1576770710.468836,86557.000,14616,3,PR,1,100,170022
1576770710.506810,86589.000,14616,3,PR,1,100,170037
1576770710.546762,86622.667,14634,3,PR,1,100,170074
1576770710.586715,86656.333,14634,3,PR,1,100,170102
1576770710.626667,86690.000,14634,3,PR,1,100,170106
1576770710.667410,86724.333,14652,3,PR,1,100,170070
1576770710.708153,86758.667,14652,3,PR,1,100,169983
1576770710.748896,86793.000,14652,3,PR,1,100,169949
1576770710.790035,86827.667,14670,3,PR,1,100,169978
1576770710.831174,86862.333,14670,3,PR,1,100,169926
1576770710.872313,86897.000,14670,3,PR,1,100,169839
1576770710.912265,86930.667,14687,3,PR,1,100,169711
1576770710.952217,86964.333,14687,3,PR,1,100,169452
1576770710.992169,86998.000,14687,3,PR,1,100,169204
1576770711.030143,87030.000,14705,3,PR,1,100,169073
1576770711.068118,87062.000,14705,3,PR,1,100,169133
1576770711.106092,87094.000,14705,3,PR,1,100,169426
1576770711.145727,87127.400,14726,5,PR,1,100,169892
1576770711.185363,87160.800,14726,5,PR,1,100,170139
1576770711.224999,87194.200,14726,5,PR,1,100,170387
1576770711.264634,87227.600,14726,5,PR,1,100,170594
1576770711.304270,87261.000,14726,5,PR,1,100,170691
1576770711.345409,87295.667,14747,3,PR,1,100,170758
1576770711.386548,87330.333,14747,3,PR,1,100,170809
1576770711.427686,87365.000,14747,3,PR,1,100,170951
1576770711.469616,87400.333,14765,3,PR,1,100,171089
1576770711.511546,87435.667,14765,3,PR,1,100,171142
1576770711.553476,87471.000,14765,3,PR,1,100,171158
1576770711.591450,87503.000,14782,3,PR,1,100,171215
1576770711.629425,87535.000,14782,3,PR,1,100,171309
1576770711.667399,87567.000,14782,3,PR,1,100,171367
1576770711.708933,87602.000,14800,3,PR,1,100,171385
1576770711.750468,87637.000,14800,3,PR,1,100,171409
1576770711.792002,87672.000,14800,3,PR,1,100,171484
1576770711.832350,87706.000,14818,3,PR,1,100,171526
1576770711.872698,87740.000,14818,3,PR,1,100,171586
1576770711.913045,87774.000,14818,3,PR,1,100,171622
1576770711.954975,87809.333,14834,3,PR,1,100,171647
1576770711.996905,87844.667,14834,3,PR,1,100,171696
1576770712.038835,87880.000,14834,3,PR,1,100,171697
1576770712.080369,87915.000,14852,3,PR,1,100,171751
1576770712.121904,87950.000,14852,3,PR,1,100,171770
1576770712.163438,87985.000,14852,3,PR,1,100,171807
1576770712.201808,88017.333,14870,3,PR,1,100,171809
1576770712.240178,88049.667,14870,3,PR,1,100,171825
1576770712.278548,88082.000,14870,3,PR,1,100,171806
1576770712.316126,88113.667,14889,3,PR,1,100,171778
1576770712.353705,88145.333,14889,3,PR,1,100,171814
1576770712.391284,88177.000,14889,3,PR,1,100,171869
1576770712.429258,88209.000,14907,3,PR,1,100,171877
1576770712.467232,88241.000,14907,3,PR,1,100,171800
1576770712.505207,88273.000,14907,3,PR,1,100,171706
1576770712.545950,88307.333,14925,3,PR,1,100,171719
1576770712.586693,88341.667,14925,3,PR,1,100,171749
1576770712.627436,88376.000,14925,3,PR,1,100,171737
1576770712.668180,88410.333,14943,3,PR,1,100,171716
1576770712.708923,88444.667,14943,3,PR,1,100,171700
1576770712.749666,88479.000,14943,3,PR,1,100,171704
1576770712.791200,88514.000,14960,3,PR,1,100,171702
1576770712.832735,88549.000,14960,3,PR,1,100,171670
1576770712.874269,88584.000,14960,3,PR,1,100,171681
1576770712.911057,88615.000,14978,3,PR,1,100,171698
1576770712.947844,88646.000,14978,3,PR,1,100,171689
1576770712.984632,88677.000,14978,3,PR,1,100,171685
1576770713.024584,88710.667,14996,3,PR,1,100,171709
1576770713.064536,88744.333,14996,3,PR,1,100,171699
1576770713.104488,88778.000,14996,3,PR,1,100,171714
1576770713.145231,88812.333,15014,3,PR,1,100,171675
1576770713.185975,88846.667,15014,3,PR,1,100,171668
1576770713.226718,88881.000,15014,3,PR,1,100,171619
1576770713.265483,88913.667,15031,3,PR,1,100,171556
1576770713.304249,88946.333,15031,3,PR,1,100,171526
1576770713.343014,88979.000,15031,3,PR,1,100,171529
1576770713.384153,89013.667,15049,3,PR,1,100,171526
1576770713.425292,89048.333,15049,3,PR,1,100,171525
1576770713.466430,89083.000,15049,3,PR,1,100,171525
1576770713.511129,89120.667,15067,3,PR,1,100,171506
1576770713.555828,89158.333,15067,3,PR,1,100,171500
1576770713.600527,89196.000,15067,3,PR,1,100,171482
1576770713.637315,89227.000,15085,3,PR,1,100,171478
1576770713.674102,89258.000,15085,3,PR,1,100,171473
1576770713.710890,89289.000,15085,3,PR,1,100,171463
1576770713.752424,89324.000,15103,3,PR,1,100,171512
1576770713.793959,89359.000,15103,3,PR,1,100,171519
1576770713.835493,89394.000,15103,3,PR,1,100,171532
1576770713.873467,89426.000,15121,3,PR,1,100,171534
1576770713.911442,89458.000,15121,3,PR,1,100,171553
1576770713.949416,89490.000,15121,3,PR,1,100,171530
1576770713.988577,89523.000,15138,3,PR,1,100,171469
1576770714.027738,89556.000,15138,3,PR,1,100,171433
1576770714.066899,89589.000,15138,3,PR,1,100,171422
1576770714.106060,89622.000,15156,3,PR,1,100,171392
1576770714.145221,89655.000,15156,3,PR,1,100,171423
1576770714.184382,89688.000,15156,3,PR,1,100,171435
1576770714.226311,89723.333,15175,3,PR,1,100,171345
1576770714.268241,89758.667,15175,3,PR,1,100,171276
1576770714.310171,89794.000,15175,3,PR,1,100,171345
1576770714.351706,89829.000,15191,3,PR,1,100,171379
1576770714.393240,89864.000,15191,3,PR,1,100,171383
1576770714.434774,89899.000,15191,3,PR,1,100,171387
1576770714.473540,89931.667,15209,3,PR,1,100,171396
1576770714.512305,89964.333,15209,3,PR,1,100,171400
1576770714.551071,89997.000,15209,3,PR,1,100,171406
1576770714.592605,90032.000,15227,3,PR,1,100,171416
1576770714.634140,90067.000,15227,3,PR,1,100,171412
1576770714.675674,90102.000,15227,3,PR,1,100,171420
1576770714.714835,90135.000,15245,3,PR,1,100,171365
1576770714.753996,90168.000,15245,3,PR,1,100,171293
1576770714.793157,90201.000,15245,3,PR,1,100,171293
1576770714.833900,90235.333,15263,3,PR,1,100,171274
1576770714.874643,90269.667,15263,3,PR,1,100,171256
1576770714.915386,90304.000,15263,3,PR,1,100,171267
1576770714.956921,90339.000,15281,3,PR,1,100,171279
1576770714.998455,90374.000,15281,3,PR,1,100,171258
1576770715.039989,90409.000,15281,3,PR,1,100,171227
1576770715.079546,90442.333,15299,3,PR,1,100,171206
1576770715.119103,90475.667,15299,3,PR,1,100,171245
1576770715.158659,90509.000,15299,3,PR,1,100,171292
1576770715.196633,90541.000,15317,3,PR,1,100,171324
1576770715.234608,90573.000,15317,3,PR,1,100,171267
1576770715.272582,90605.000,15317,3,PR,1,100,171221
1576770715.311743,90638.000,15335,3,PR,1,100,171285
1576770715.350904,90671.000,15335,3,PR,1,100,171310
1576770715.390065,90704.000,15335,3,PR,1,100,171265
1576770715.430808,90738.333,15353,3,PR,1,100,171162
1576770715.471551,90772.667,15353,3,PR,1,100,171122
1576770715.512295,90807.000,15353,3,PR,1,100,171148
1576770715.553829,90842.000,15369,3,PR,1,100,171181
1576770715.595363,90877.000,15369,3,PR,1,100,171168
1576770715.636898,90912.000,15369,3,PR,1,100,171171
1576770715.677245,90946.000,15387,3,PR,1,100,171156
1576770715.717593,90980.000,15387,3,PR,1,100,171150
1576770715.757941,91014.000,15387,3,PR,1,100,171139
1576770715.795915,91046.000,15405,3,PR,1,100,171159
1576770715.833889,91078.000,15405,3,PR,1,100,171140
1576770715.871864,91110.000,15405,3,PR,1,100,171148
1576770715.910629,91142.667,15423,3,PR,1,100,171150
1576770715.949394,91175.333,15423,3,PR,1,100,171186
1576770715.988160,91208.000,15423,3,PR,1,100,171173
1576770716.028507,91242.000,15441,3,PR,1,100,171179
1576770716.068855,91276.000,15441,3,PR,1,100,171168
1576770716.109203,91310.000,15441,3,PR,1,100,171100
1576770716.150342,91344.667,15459,3,PR,1,100,171076
1576770716.191480,91379.333,15459,3,PR,1,100,171096
1576770716.232619,91414.000,15459,3,PR,1,100,171088
1576770716.272967,91448.000,15478,3,PR,1,100,171021
1576770716.313314,91482.000,15478,3,PR,1,100,171009
1576770716.353662,91516.000,15478,3,PR,1,100,171066
1576770716.392032,91548.333,15495,3,PR,1,100,171084
1576770716.430402,91580.667,15495,3,PR,1,100,171035
1576770716.468772,91613.000,15495,3,PR,1,100,171026
1576770716.505955,91644.333,15513,3,PR,1,100,171053
1576770716.543138,91675.667,15513,3,PR,1,100,171120
1576770716.580321,91707.000,15513,3,PR,1,100,171135
1576770716.620669,91741.000,15531,3,PR,1,100,171155
1576770716.661016,91775.000,15531,3,PR,1,100,171178
1576770716.701364,91809.000,15531,3,PR,1,100,171204
1576770716.744085,91845.000,15547,3,PR,1,100,171220
1576770716.786806,91881.000,15547,3,PR,1,100,171200
1576770716.829527,91917.000,15547,3,PR,1,100,171165
1576770716.867897,91949.333,15565,3,PR,1,100,171128
1576770716.906267,91981.667,15565,3,PR,1,100,171124
1576770716.944637,92014.000,15565,3,PR,1,100,171127
1576770716.989731,92052.000,15583,3,PR,1,100,171125
1576770717.034826,92090.000,15583,3,PR,1,100,171109
1576770717.079920,92128.000,15583,3,PR,1,100,171111
1576770717.117894,92160.000,15601,3,PR,1,100,171118
1576770717.155869,92192.000,15601,3,PR,1,100,171104
1576770717.193843,92224.000,15601,3,PR,1,100,171104
1576770717.238047,92261.250,15623,4,PR,1,100,171123
1576770717.282252,92298.500,15623,4,PR,1,100,171144
1576770717.326456,92335.750,15623,4,PR,1,100,171177
1576770717.370661,92373.000,15623,4,PR,1,100,171190
1576770717.408240,92404.667,15643,3,PR,1,100,171188
1576770717.445818,92436.333,15643,3,PR,1,100,171211
1576770717.483397,92468.000,15643,3,PR,1,100,171210
1576770717.521767,92500.333,15661,3,PR,1,100,171166
1576770717.560137,92532.667,15661,3,PR,1,100,171134
1576770717.598506,92565.000,15661,3,PR,1,100,171171
1576770717.636184,92596.750,15679,4,PR,1,100,171151
1576770717.673862,92628.500,15679,4,PR,1,100,171166
1576770717.711539,92660.250,15679,4,PR,1,100,171132
1576770717.749217,92692.000,15679,4,PR,1,100,171115
1576770717.789169,92725.667,15697,3,PR,1,100,171107
1576770717.829121,92759.333,15697,3,PR,1,100,171092
1576770717.869073,92793.000,15697,3,PR,1,100,171082
1576770717.909421,92827.000,15715,2,PR,1,100,171081
1576770717.949769,92861.000,15715,2,PR,1,100,171080
1576770717.990907,92895.667,15733,3,PR,1,100,171061
1576770718.032046,92930.333,15733,3,PR,1,100,171045
1576770718.073185,92965.000,15733,3,PR,1,100,171023
1576770718.115115,93000.333,15750,3,PR,1,100,171003
1576770718.157045,93035.667,15750,3,PR,1,100,170913
1576770718.198975,93071.000,15750,3,PR,1,100,170874
1576770718.236949,93103.000,15769,3,PR,1,100,170924
1576770718.274923,93135.000,15769,3,PR,1,100,170925
1576770718.312897,93167.000,15769,3,PR,1,100,170862
1576770718.351465,93199.500,15787,4,PR,1,100,170891
1576770718.390033,93232.000,15787,4,PR,1,100,170916
1576770718.428600,93264.500,15787,4,PR,1,100,170941
1576770718.467168,93297.000,15787,4,PR,1,100,170871
1576770718.507120,93330.667,15804,3,PR,1,100,170860
1576770718.547072,93364.333,15804,3,PR,1,100,170868
1576770718.587024,93398.000,15804,3,PR,1,100,170877
1576770718.633899,93437.500,15821,2,PR,1,100,170880
1576770718.680773,93477.000,15821,2,PR,1,100,170896
1576770718.722308,93512.000,15839,3,PR,1,100,170902
1576770718.763842,93547.000,15839,3,PR,1,100,170905
1576770718.805377,93582.000,15839,3,PR,1,100,170877
1576770718.843746,93614.333,15857,3,PR,1,100,170840
1576770718.882116,93646.667,15857,3,PR,1,100,170791
1576770718.920486,93679.000,15857,3,PR,1,100,170784
1576770718.958065,93710.667,15875,3,PR,1,100,170779
1576770718.995643,93742.333,15875,3,PR,1,100,170779
1576770719.033222,93774.000,15875,3,PR,1,100,170775
1576770719.073570,93808.000,15893,3,PR,1,100,170765
1576770719.113917,93842.000,15893,3,PR,1,100,170748
1576770719.154265,93876.000,15893,3,PR,1,100,170711
1576770719.196195,93911.333,15912,3,PR,1,100,170732
1576770719.238125,93946.667,15912,3,PR,1,100,170767
1576770719.280055,93982.000,15912,3,PR,1,100,170756
1576770719.320798,94016.333,15930,3,PR,1,100,170727
1576770719.361541,94050.667,15930,3,PR,1,100,170787
1576770719.402285,94085.000,15930,3,PR,1,100,170824
1576770719.441841,94118.333,15947,3,PR,1,100,170797
1576770719.481398,94151.667,15947,3,PR,1,100,170781
1576770719.520954,94185.000,15947,3,PR,1,100,170769
1576770719.558928,94217.000,15965,3,PR,1,100,170752
1576770719.596903,94249.000,15965,3,PR,1,100,170688
1576770719.634877,94281.000,15965,3,PR,1,100,170691
1576770719.674038,94314.000,15982,3,PR,1,100,170706
1576770719.713199,94347.000,15982,3,PR,1,100,170699
1576770719.752360,94380.000,15982,3,PR,1,100,170714
1576770719.793894,94415.000,15999,3,PR,1,100,170722
1576770719.835429,94450.000,15999,3,PR,1,100,170711
1576770719.876963,94485.000,15999,3,PR,1,100,170720
1576770719.917706,94519.333,16017,3,PR,1,100,170715
1576770719.958450,94553.667,16017,3,PR,1,100,170696
1576770719.999193,94588.000,16017,3,PR,1,100,170694
1576770720.039145,94621.667,16035,3,PR,1,100,170697
1576770720.079097,94655.333,16035,3,PR,1,100,170701
1576770720.119049,94689.000,16035,3,PR,1,100,170682
1576770720.157023,94721.000,16053,3,PR,1,100,170676
1576770720.194998,94753.000,16053,3,PR,1,100,170718
1576770720.232972,94785.000,16053,3,PR,1,100,170730
1576770720.271737,94817.667,16072,3,PR,1,100,170719
1576770720.310503,94850.333,16072,3,PR,1,100,170703
1576770720.349268,94883.000,16072,3,PR,1,100,170730
1576770720.390011,94917.333,16090,3,PR,1,100,170791
1576770720.430755,94951.667,16090,3,PR,1,100,170751
1576770720.471498,94986.000,16090,3,PR,1,100,170728
1576770720.513428,95021.333,16108,3,PR,1,100,170722
1576770720.555358,95056.667,16108,3,PR,1,100,170724
1576770720.597288,95092.000,16108,3,PR,1,100,170652
1576770720.636053,95124.667,16125,3,PR,1,100,170624
1576770720.674819,95157.333,16125,3,PR,1,100,170602
1576770720.713584,95190.000,16125,3,PR,1,100,170599
1576770720.758678,95228.000,16143,3,PR,1,100,170608
1576770720.803773,95266.000,16143,3,PR,1,100,170578
1576770720.848867,95304.000,16143,3,PR,1,100,170575
1576770720.887237,95336.333,16159,3,PR,1,100,170564
1576770720.925607,95368.667,16159,3,PR,1,100,170559
1576770720.963977,95401.000,16159,3,PR,1,100,170561
1576770721.005511,95436.000,16177,3,PR,1,100,170577
1576770721.047045,95471.000,16177,3,PR,1,100,170546
1576770721.088580,95506.000,16177,3,PR,1,100,170453
1576770721.127741,95539.000,16195,3,PR,1,100,170449
1576770721.166902,95572.000,16195,3,PR,1,100,170468
1576770721.206063,95605.000,16195,3,PR,1,100,170493
1576770721.246410,95639.000,16214,3,PR,1,100,170483
1576770721.286758,95673.000,16214,3,PR,1,100,170495
1576770721.327106,95707.000,16214,3,PR,1,100,170500
1576770721.364684,95738.667,16232,3,PR,1,100,170524
1576770721.402263,95770.333,16232,3,PR,1,100,170498
1576770721.439842,95802.000,16232,3,PR,1,100,170500
1576770721.478212,95834.333,16250,3,PR,1,100,170516
1576770721.516582,95866.667,16250,3,PR,1,100,170517
1576770721.554951,95899.000,16250,3,PR,1,100,170516
1576770721.595299,95933.000,16268,3,PR,1,100,170533
1576770721.635647,95967.000,16268,3,PR,1,100,170503
1576770721.675994,96001.000,16268,3,PR,1,100,170521
1576770721.716342,96035.000,16285,3,PR,1,100,170480
1576770721.756690,96069.000,16285,3,PR,1,100,170464
1576770721.797037,96103.000,16285,3,PR,1,100,170446
1576770721.838572,96138.000,16303,3,PR,1,100,170463
1576770721.880106,96173.000,16303,3,PR,1,100,170477
1576770721.921640,96208.000,16303,3,PR,1,100,170483
1576770721.960801,96241.000,16319,3,PR,1,100,170471
1576770721.999962,96274.000,16319,3,PR,1,100,170476
1576770722.039124,96307.000,16319,3,PR,1,100,170471
1576770722.077098,96339.000,16337,3,PR,1,100,170456
1576770722.115072,96371.000,16337,3,PR,1,100,170511
1576770722.153046,96403.000,16337,3,PR,1,100,170525
1576770722.192603,96436.333,16356,3,PR,1,100,170477
1576770722.232159,96469.667,16356,3,PR,1,100,170481
1576770722.271716,96503.000,16356,3,PR,1,100,170538
1576770722.312063,96537.000,16374,3,PR,1,100,170568
1576770722.352411,96571.000,16374,3,PR,1,100,170513
1576770722.392759,96605.000,16374,3,PR,1,100,170456
1576770722.437853,96643.000,16392,3,PR,1,100,170378
1576770722.482948,96681.000,16392,3,PR,1,100,170362
1576770722.528042,96719.000,16392,3,PR,1,100,170358
1576770722.567599,96752.333,16410,3,PR,1,100,170344
1576770722.607155,96785.667,16410,3,PR,1,100,170344
1576770722.646712,96819.000,16410,3,PR,1,100,170346
1576770722.684291,96850.667,16428,3,PR,1,100,170359
1576770722.721869,96882.333,16428,3,PR,1,100,170357
1576770722.759448,96914.000,16428,3,PR,1,100,170323
1576770722.799400,96947.667,16446,3,PR,1,100,170333
1576770722.839352,96981.333,16446,3,PR,1,100,170342
1576770722.879304,97015.000,16446,3,PR,1,100,170344
1576770722.920443,97049.667,16463,3,PR,1,100,170356
1576770722.961582,97084.333,16463,3,PR,1,100,170351
1576770723.002721,97119.000,16463,3,PR,1,100,170357
1576770723.043859,97153.667,16481,3,PR,1,100,170355
1576770723.084998,97188.333,16481,3,PR,1,100,170363
1576770723.126137,97223.000,16481,3,PR,1,100,170324
1576770723.166485,97257.000,16497,3,PR,1,100,170216
1576770723.206832,97291.000,16497,3,PR,1,100,170210
1576770723.247180,97325.000,16497,3,PR,1,100,170259
1576770723.284917,97356.800,16519,5,PR,1,100,170307
1576770723.322654,97388.600,16519,5,PR,1,100,170271
1576770723.360391,97420.400,16519,5,PR,1,100,170260
1576770723.398128,97452.200,16519,5,PR,1,100,170242
1576770723.435865,97484.000,16519,5,PR,1,100,170242
1576770723.476213,97518.000,16539,3,PR,1,100,170251
1576770723.516560,97552.000,16539,3,PR,1,100,170256
1576770723.556908,97586.000,16539,3,PR,1,100,170272
1576770723.598442,97621.000,16556,3,PR,1,100,170265
1576770723.639977,97656.000,16556,3,PR,1,100,170275
1576770723.681511,97691.000,16556,3,PR,1,100,170297
1576770723.722650,97725.667,16574,3,PR,1,100,170298
1576770723.763788,97760.333,16574,3,PR,1,100,170259
1576770723.804927,97795.000,16574,3,PR,1,100,170215
1576770723.842506,97826.667,16592,3,PR,1,100,170167
1576770723.880085,97858.333,16592,3,PR,1,100,170134
1576770723.917663,97890.000,16592,3,PR,1,100,170115
1576770723.956033,97922.333,16608,3,PR,1,100,170119
1576770723.994403,97954.667,16608,3,PR,1,100,170075
1576770724.032773,97987.000,16608,3,PR,1,100,170100
1576770724.072725,98020.667,16626,3,PR,1,100,170133
1576770724.112677,98054.333,16626,3,PR,1,100,170084
1576770724.152629,98088.000,16626,3,PR,1,100,170042
1576770724.193768,98122.667,16645,3,PR,1,100,170060
1576770724.234907,98157.333,16645,3,PR,1,100,170115
1576770724.276046,98192.000,16645,3,PR,1,100,170096
1576770724.317976,98227.333,16663,3,PR,1,100,170064
1576770724.359905,98262.667,16663,3,PR,1,100,170071
1576770724.401835,98298.000,16663,3,PR,1,100,170044
1576770724.439018,98329.333,16681,3,PR,1,100,170056
1576770724.476202,98360.667,16681,3,PR,1,100,170003
1576770724.513385,98392.000,16681,3,PR,1,100,169912
1576770724.558479,98430.000,16699,3,PR,1,100,169885
1576770724.603574,98468.000,16699,3,PR,1,100,169882
1576770724.648668,98506.000,16699,3,PR,1,100,169864
1576770724.685851,98537.333,16717,3,PR,1,100,169860
1576770724.723035,98568.667,16717,3,PR,1,100,169863
1576770724.760218,98600.000,16717,3,PR,1,100,169841
1576770724.800961,98634.333,16734,3,PR,1,100,169761
1576770724.841704,98668.667,16734,3,PR,1,100,169749
1576770724.882447,98703.000,16734,3,PR,1,100,169853
1576770724.920026,98734.667,16752,3,PR,1,100,169849
1576770724.957605,98766.333,16752,3,PR,1,100,169858
1576770724.995183,98798.000,16752,3,PR,1,100,169866
1576770725.037509,98833.667,16770,3,PR,1,100,169894
1576770725.079834,98869.333,16770,3,PR,1,100,169901
1576770725.122160,98905.000,16770,3,PR,1,100,169883
1576770725.163299,98939.667,16786,3,PR,1,100,169822
1576770725.204437,98974.333,16786,3,PR,1,100,169729
1576770725.245576,99009.000,16786,3,PR,1,100,169722
1576770725.283551,99041.000,16805,3,PR,1,100,169715
1576770725.321525,99073.000,16805,3,PR,1,100,169723
1576770725.359499,99105.000,16805,3,PR,1,100,169677
1576770725.400638,99139.667,16823,3,PR,1,100,169669
1576770725.441777,99174.333,16823,3,PR,1,100,169642
1576770725.482916,99209.000,16823,3,PR,1,100,169631
1576770725.523659,99243.333,16841,3,PR,1,100,169598
1576770725.564402,99277.667,16841,3,PR,1,100,169625
1576770725.605145,99312.000,16841,3,PR,1,100,169619
1576770725.645889,99346.333,16859,3,PR,1,100,169599
1576770725.686632,99380.667,16859,3,PR,1,100,169614
1576770725.727375,99415.000,16859,3,PR,1,100,169630
1576770725.765349,99447.000,16877,3,PR,1,100,169661
1576770725.803324,99479.000,16877,3,PR,1,100,169699
1576770725.841298,99511.000,16877,3,PR,1,100,169754
1576770725.879668,99543.333,16894,3,PR,1,100,169773
1576770725.918038,99575.667,16894,3,PR,1,100,169767
1576770725.956407,99608.000,16894,3,PR,1,100,169769
1576770725.996755,99642.000,16912,3,PR,1,100,169850
1576770726.037103,99676.000,16912,3,PR,1,100,169866
1576770726.077451,99710.000,16912,3,PR,1,100,169786
1576770726.117798,99744.000,16930,3,PR,1,100,169747
1576770726.158146,99778.000,16930,3,PR,1,100,169833
1576770726.198493,99812.000,16930,3,PR,1,100,169876
1576770726.240423,99847.333,16947,3,PR,1,100,169923
1576770726.282353,99882.667,16947,3,PR,1,100,169985
1576770726.324283,99918.000,16947,3,PR,1,100,170069
1576770726.365422,99952.667,16965,3,PR,1,100,170113
1576770726.406561,99987.333,16965,3,PR,1,100,170126
1576770726.447700,100022.000,16965,3,PR,1,100,170168
1576770726.486465,100054.667,16983,3,PR,1,100,170144
1576770726.525230,100087.333,16983,3,PR,1,100,170177
1576770726.563996,100120.000,16983,3,PR,1,100,170211
1576770726.604739,100154.333,17001,3,PR,1,100,170218
1576770726.645482,100188.667,17001,3,PR,1,100,170141
1576770726.686225,100223.000,17001,3,PR,1,100,170061
1576770726.726573,100257.000,17019,2,PR,1,100,170041
1576770726.766921,100291.000,17019,2,PR,1,100,170048
1576770726.808455,100326.000,17037,3,PR,1,100,170036
1576770726.849990,100361.000,17037,3,PR,1,100,169986
1576770726.891524,100396.000,17037,3,PR,1,100,169933
1576770726.930388,100428.750,17055,4,PR,1,100,169935
1576770726.969253,100461.500,17055,4,PR,1,100,170003
1576770727.008117,100494.250,17055,4,PR,1,100,170018
1576770727.046981,100527.000,17055,4,PR,1,100,169933
1576770727.084955,100559.000,17073,3,PR,1,100,169892
1576770727.122930,100591.000,17073,3,PR,1,100,169981
1576770727.160904,100623.000,17073,3,PR,1,100,169993
1576770727.201252,100657.000,17091,3,PR,1,100,170009
1576770727.241599,100691.000,17091,3,PR,1,100,170000
1576770727.281947,100725.000,17091,3,PR,1,100,170003
1576770727.323086,100759.667,17109,3,PR,1,100,170002
1576770727.364225,100794.333,17109,3,PR,1,100,170002
1576770727.405363,100829.000,17109,3,PR,1,100,170008
1576770727.446898,100864.000,17125,2,PR,1,100,169952
1576770727.488432,100899.000,17125,2,PR,1,100,169938
1576770727.527890,100932.250,17143,4,PR,1,100,169926
1576770727.567348,100965.500,17143,4,PR,1,100,169894
1576770727.606805,100998.750,17143,4,PR,1,100,169891
1576770727.646263,101032.000,17143,4,PR,1,100,169911
1576770727.683446,101063.333,17161,3,PR,1,100,170001
1576770727.720629,101094.667,17161,3,PR,1,100,170061
1576770727.757812,101126.000,17161,3,PR,1,100,170104
1576770727.797764,101159.667,17179,3,PR,1,100,170125
1576770727.837716,101193.333,17179,3,PR,1,100,170113
1576770727.877668,101227.000,17179,3,PR,1,100,170117
1576770727.918412,101261.333,17197,3,PR,1,100,170169
1576770727.959155,101295.667,17197,3,PR,1,100,170125
1576770727.999898,101330.000,17197,3,PR,1,100,170089
1576770728.041433,101365.000,17215,2,PR,1,100,170144
1576770728.082967,101400.000,17215,2,PR,1,100,170288
1576770728.123315,101434.000,17233,4,PR,1,100,170306
1576770728.163662,101468.000,17233,4,PR,1,100,170284
1576770728.204010,101502.000,17233,4,PR,1,100,170341
1576770728.244358,101536.000,17233,4,PR,1,100,170353
1576770728.279958,101566.000,17252,2,PR,1,100,170302
1576770728.315559,101596.000,17252,2,PR,1,100,170343
1576770728.357390,101631.250,17269,4,PR,1,100,170372
1576770728.399221,101666.500,17269,4,PR,1,100,170458
1576770728.441052,101701.750,17269,4,PR,1,100,170426
1576770728.482883,101737.000,17269,4,PR,1,100,170392
1576770728.521253,101769.333,17287,3,PR,1,100,170390
1576770728.559623,101801.667,17287,3,PR,1,100,170480
1576770728.597993,101834.000,17287,3,PR,1,100,170529
1576770728.635176,101865.333,17303,3,PR,1,100,170580
1576770728.672359,101896.667,17303,3,PR,1,100,170650
1576770728.709543,101928.000,17303,3,PR,1,100,170776
1576770728.747912,101960.333,17321,3,PR,1,100,170805
1576770728.786282,101992.667,17321,3,PR,1,100,170787
1576770728.824652,102025.000,17321,3,PR,1,100,170778
1576770728.868955,102062.333,17339,3,PR,1,100,170867
1576770728.913259,102099.667,17339,3,PR,1,100,170886
1576770728.957562,102137.000,17339,3,PR,1,100,170822
1576770728.998701,102171.667,17357,3,PR,1,100,170824
1576770729.039840,102206.333,17357,3,PR,1,100,170830
1576770729.080978,102241.000,17357,3,PR,1,100,170871
1576770729.118161,102272.333,17375,3,PR,1,100,170911
1576770729.155345,102303.667,17375,3,PR,1,100,170941
1576770729.192528,102335.000,17375,3,PR,1,100,170990
1576770729.234062,102370.000,17394,3,PR,1,100,171038
1576770729.275597,102405.000,17394,3,PR,1,100,171060
1576770729.317131,102440.000,17394,3,PR,1,100,171063
1576770729.358072,102474.500,17415,4,PR,1,100,171077
1576770729.399013,102509.000,17415,4,PR,1,100,171108
1576770729.439954,102543.500,17415,4,PR,1,100,171153
1576770729.480895,102578.000,17415,4,PR,1,100,171217
1576770729.518276,102609.500,17435,4,PR,1,100,171233
1576770729.555657,102641.000,17435,4,PR,1,100,171231
1576770729.593038,102672.500,17435,4,PR,1,100,171203
1576770729.630419,102704.000,17435,4,PR,1,100,171175
1576770729.669975,102737.333,17453,3,PR,1,100,171132
1576770729.709532,102770.667,17453,3,PR,1,100,171090
1576770729.749088,102804.000,17453,3,PR,1,100,171175
1576770729.789436,102838.000,17471,3,PR,1,100,171251
1576770729.829784,102872.000,17471,3,PR,1,100,171291
1576770729.870131,102906.000,17471,3,PR,1,100,171282
1576770729.910875,102940.333,17489,3,PR,1,100,171314
1576770729.951618,102974.667,17489,3,PR,1,100,171381
1576770729.992361,103009.000,17489,3,PR,1,100,171404
1576770730.031918,103042.333,17507,3,PR,1,100,171348
1576770730.071474,103075.667,17507,3,PR,1,100,171360
1576770730.111031,103109.000,17507,3,PR,1,100,171388
1576770730.154345,103145.500,17525,2,PR,1,100,171425
1576770730.197659,103182.000,17525,2,PR,1,100,171411
1576770730.236524,103214.750,17543,4,PR,1,100,171451
1576770730.275388,103247.500,17543,4,PR,1,100,171466
1576770730.314252,103280.250,17543,4,PR,1,100,171485
1576770730.353117,103313.000,17543,4,PR,1,100,171442
1576770730.394058,103347.500,17561,2,PR,1,100,171432
1576770730.434999,103382.000,17561,2,PR,1,100,171432
1576770730.476137,103416.667,17579,3,PR,1,100,171442
1576770730.517276,103451.333,17579,3,PR,1,100,171447
1576770730.558415,103486.000,17579,3,PR,1,100,171448
1576770730.600345,103521.333,17595,3,PR,1,100,171438
1576770730.642275,103556.667,17595,3,PR,1,100,171445
1576770730.684205,103592.000,17595,3,PR,1,100,171396
1576770730.721388,103623.333,17613,3,PR,1,100,171472
1576770730.758571,103654.667,17613,3,PR,1,100,171495
1576770730.795754,103686.000,17613,3,PR,1,100,171496
1576770730.834619,103718.750,17631,4,PR,1,100,171487
1576770730.873483,103751.500,17631,4,PR,1,100,171557
1576770730.912347,103784.250,17631,4,PR,1,100,171597
1576770730.951211,103817.000,17631,4,PR,1,100,171548
1576770730.991559,103851.000,17649,2,PR,1,100,171493
1576770731.031907,103885.000,17649,2,PR,1,100,171438
1576770731.073046,103919.667,17667,3,PR,1,100,171454
1576770731.114184,103954.333,17667,3,PR,1,100,171459
1576770731.155323,103989.000,17667,3,PR,1,100,171485
1576770731.197253,104024.333,17686,3,PR,1,100,171496
1576770731.239183,104059.667,17686,3,PR,1,100,171498
1576770731.281113,104095.000,17686,3,PR,1,100,171540
1576770731.318791,104126.750,17704,4,PR,1,100,171532
1576770731.356468,104158.500,17704,4,PR,1,100,171519
1576770731.394146,104190.250,17704,4,PR,1,100,171547
1576770731.431823,104222.000,17704,4,PR,1,100,171562
1576770731.469798,104254.000,17722,3,PR,1,100,171558
1576770731.507772,104286.000,17722,3,PR,1,100,171566
1576770731.545746,104318.000,17722,3,PR,1,100,171556
1576770731.586489,104352.333,17739,3,PR,1,100,171556
1576770731.627233,104386.667,17739,3,PR,1,100,171498
1576770731.667976,104421.000,17739,3,PR,1,100,171487
1576770731.708719,104455.333,17757,3,PR,1,100,171486
1576770731.749462,104489.667,17757,3,PR,1,100,171445
1576770731.790206,104524.000,17757,3,PR,1,100,171427
1576770731.830158,104557.667,17773,3,PR,1,100,171477
1576770731.870110,104591.333,17773,3,PR,1,100,171504
1576770731.910062,104625.000,17773,3,PR,1,100,171448
1576770731.950410,104659.000,17791,2,PR,1,100,171444
1576770731.990757,104693.000,17791,2,PR,1,100,171451
1576770732.035852,104731.000,17809,3,PR,1,100,171456
1576770732.080946,104769.000,17809,3,PR,1,100,171389
1576770732.126041,104807.000,17809,3,PR,1,100,171406
1576770732.163619,104838.667,17827,3,PR,1,100,171457
1576770732.201198,104870.333,17827,3,PR,1,100,171445
1576770732.238777,104902.000,17827,3,PR,1,100,171410
1576770732.275861,104933.250,17846,4,PR,1,100,171366
1576770732.312945,104964.500,17846,4,PR,1,100,171308
1576770732.350029,104995.750,17846,4,PR,1,100,171286
1576770732.387114,105027.000,17846,4,PR,1,100,171247
1576770732.425088,105059.000,17864,3,PR,1,100,171291
1576770732.463062,105091.000,17864,3,PR,1,100,171306
1576770732.501037,105123.000,17864,3,PR,1,100,171289
1576770732.540198,105156.000,17882,3,PR,1,100,171245
1576770732.579359,105189.000,17882,3,PR,1,100,171222
1576770732.618520,105222.000,17882,3,PR,1,100,171226
1576770732.664801,105261.000,17900,2,PR,1,100,171225
1576770732.711082,105300.000,17900,2,PR,1,100,171237
1576770732.752616,105335.000,17917,3,PR,1,100,171238
1576770732.794151,105370.000,17917,3,PR,1,100,171216
1576770732.835685,105405.000,17917,3,PR,1,100,171237
1576770732.874549,105437.750,17935,4,PR,1,100,171244
1576770732.913414,105470.500,17935,4,PR,1,100,171224
1576770732.952278,105503.250,17935,4,PR,1,100,171130
1576770732.991142,105536.000,17935,4,PR,1,100,171066
1576770733.032676,105571.000,17951,2,PR,1,100,171058
1576770733.074211,105606.000,17951,2,PR,1,100,171075
1576770733.115350,105640.667,17969,3,PR,1,100,171052
1576770733.156488,105675.333,17969,3,PR,1,100,171066
1576770733.197627,105710.000,17969,3,PR,1,100,171069
1576770733.235602,105742.000,17988,4,PR,1,100,171044
1576770733.273576,105774.000,17988,4,PR,1,100,171038
1576770733.311550,105806.000,17988,4,PR,1,100,171032
1576770733.349524,105838.000,17988,4,PR,1,100,171039
1576770733.389081,105871.333,18006,3,PR,1,100,171029
1576770733.428638,105904.667,18006,3,PR,1,100,171028
1576770733.468194,105938.000,18006,3,PR,1,100,171002
1576770733.508542,105972.000,18024,3,PR,1,100,170992
1576770733.548889,106006.000,18024,3,PR,1,100,171058
1576770733.589237,106040.000,18024,3,PR,1,100,171057
1576770733.630771,106075.000,18042,2,PR,1,100,170981
1576770733.672306,106110.000,18042,2,PR,1,100,170917
1576770733.714236,106145.333,18060,3,PR,1,100,170947
1576770733.756166,106180.667,18060,3,PR,1,100,170916
1576770733.798095,106216.000,18060,3,PR,1,100,170890
1576770733.835279,106247.333,18077,3,PR,1,100,170879
1576770733.872462,106278.667,18077,3,PR,1,100,170901
1576770733.909645,106310.000,18077,3,PR,1,100,170909
1576770733.951575,106345.333,18095,3,PR,1,100,170879
1576770733.993505,106380.667,18095,3,PR,1,100,170870
1576770734.035435,106416.000,18095,3,PR,1,100,170847
1576770734.076574,106450.667,18111,3,PR,1,100,170864
1576770734.117712,106485.333,18111,3,PR,1,100,170900
1576770734.158851,106520.000,18111,3,PR,1,100,170889
1576770734.200386,106555.000,18130,3,PR,1,100,170900
1576770734.241920,106590.000,18130,3,PR,1,100,170904
1576770734.283454,106625.000,18130,3,PR,1,100,170894
1576770734.324593,106659.667,18148,3,PR,1,100,170835
1576770734.365732,106694.333,18148,3,PR,1,100,170756
1576770734.406871,106729.000,18148,3,PR,1,100,170743
1576770734.444845,106761.000,18166,3,PR,1,100,170719
1576770734.482819,106793.000,18166,3,PR,1,100,170717
1576770734.520793,106825.000,18166,3,PR,1,100,170791
1576770734.558768,106857.000,18184,3,PR,1,100,170731
1576770734.596742,106889.000,18184,3,PR,1,100,170704
1576770734.634716,106921.000,18184,3,PR,1,100,170749
1576770734.674668,106954.667,18202,3,PR,1,100,170796
1576770734.714621,106988.333,18202,3,PR,1,100,170751
1576770734.754573,107022.000,18202,3,PR,1,100,170745
1576770734.793338,107054.667,18220,3,PR,1,100,170744
1576770734.832103,107087.333,18220,3,PR,1,100,170760
1576770734.870869,107120.000,18220,3,PR,1,100,170755
1576770734.914777,107157.000,18238,3,PR,1,100,170761
1576770734.958684,107194.000,18238,3,PR,1,100,170771
1576770735.002592,107231.000,18238,3,PR,1,100,170762
1576770735.040962,107263.333,18255,3,PR,1,100,170725
1576770735.079332,107295.667,18255,3,PR,1,100,170676
1576770735.117702,107328.000,18255,3,PR,1,100,170667
1576770735.156071,107360.333,18273,3,PR,1,100,170652
1576770735.194441,107392.667,18273,3,PR,1,100,170681
1576770735.232811,107425.000,18273,3,PR,1,100,170689
1576770735.272368,107458.333,18292,3,PR,1,100,170693
1576770735.311924,107491.667,18292,3,PR,1,100,170674
1576770735.351481,107525.000,18292,3,PR,1,100,170652
1576770735.392303,107559.400,18311,5,PR,1,100,170616
1576770735.433125,107593.800,18311,5,PR,1,100,170701
1576770735.473948,107628.200,18311,5,PR,1,100,170719
1576770735.514770,107662.600,18311,5,PR,1,100,170653
1576770735.555593,107697.000,18311,5,PR,1,100,170676
1576770735.597522,107732.333,18331,3,PR,1,100,170755
1576770735.639452,107767.667,18331,3,PR,1,100,170725
1576770735.681382,107803.000,18331,3,PR,1,100,170701
1576770735.719752,107835.333,18348,3,PR,1,100,170700
1576770735.758122,107867.667,18348,3,PR,1,100,170702
1576770735.796492,107900.000,18348,3,PR,1,100,170630
1576770735.838817,107935.667,18366,3,PR,1,100,170577
1576770735.881143,107971.333,18366,3,PR,1,100,170624
1576770735.923468,108007.000,18366,3,PR,1,100,170692
1576770735.964607,108041.667,18382,3,PR,1,100,170608
1576770736.005746,108076.333,18382,3,PR,1,100,170603
1576770736.046885,108111.000,18382,3,PR,1,100,170658
1576770736.085255,108143.333,18400,3,PR,1,100,170681
1576770736.123624,108175.667,18400,3,PR,1,100,170624
1576770736.161994,108208.000,18400,3,PR,1,100,170648
1576770736.200364,108240.333,18419,3,PR,1,100,170704
1576770736.238734,108272.667,18419,3,PR,1,100,170707
1576770736.277104,108305.000,18419,3,PR,1,100,170690
1576770736.315869,108337.667,18437,3,PR,1,100,170685
1576770736.354635,108370.333,18437,3,PR,1,100,170704
1576770736.393400,108403.000,18437,3,PR,1,100,170695
1576770736.435330,108438.333,18455,3,PR,1,100,170681
1576770736.477260,108473.667,18455,3,PR,1,100,170638
1576770736.519190,108509.000,18455,3,PR,1,100,170600
1576770736.558746,108542.333,18473,3,PR,1,100,170621
1576770736.598303,108575.667,18473,3,PR,1,100,170626
1576770736.637859,108609.000,18473,3,PR,1,100,170622
1576770736.678998,108643.667,18491,3,PR,1,100,170639
1576770736.720137,108678.333,18491,3,PR,1,100,170647
1576770736.761276,108713.000,18491,3,PR,1,100,170647
1576770736.803206,108748.333,18508,3,PR,1,100,170637
1576770736.845136,108783.667,18508,3,PR,1,100,170628
1576770736.887066,108819.000,18508,3,PR,1,100,170675
1576770736.925831,108851.667,18526,3,PR,1,100,170697
1576770736.964597,108884.333,18526,3,PR,1,100,170695
1576770737.003362,108917.000,18526,3,PR,1,100,170700
1576770737.041336,108949.000,18542,3,PR,1,100,170728
1576770737.079310,108981.000,18542,3,PR,1,100,170705
1576770737.117285,109013.000,18542,3,PR,1,100,170685
1576770737.156446,109046.000,18560,3,PR,1,100,170637
1576770737.195607,109079.000,18560,3,PR,1,100,170595
1576770737.234768,109112.000,18560,3,PR,1,100,170623
1576770737.275511,109146.333,18579,3,PR,1,100,170686
1576770737.316254,109180.667,18579,3,PR,1,100,170688
1576770737.356997,109215.000,18579,3,PR,1,100,170646
1576770737.398532,109250.000,18597,3,PR,1,100,170699
1576770737.440066,109285.000,18597,3,PR,1,100,170711
1576770737.481600,109320.000,18597,3,PR,1,100,170699
1576770737.521553,109353.667,18615,3,PR,1,100,170694
1576770737.561505,109387.333,18615,3,PR,1,100,170700
1576770737.601457,109421.000,18615,3,PR,1,100,170731
1576770737.642596,109455.667,18633,3,PR,1,100,170742
1576770737.683734,109490.333,18633,3,PR,1,100,170771
1576770737.724873,109525.000,18633,3,PR,1,100,170770
1576770737.764034,109558.000,18651,3,PR,1,100,170770
1576770737.803195,109591.000,18651,3,PR,1,100,170753
1576770737.842356,109624.000,18651,3,PR,1,100,170751
1576770737.883495,109658.667,18669,3,PR,1,100,170778
1576770737.924634,109693.333,18669,3,PR,1,100,170794
1576770737.965772,109728.000,18669,3,PR,1,100,170818
1576770738.007307,109763.000,18686,3,PR,1,100,170860
1576770738.048841,109798.000,18686,3,PR,1,100,170869
1576770738.090375,109833.000,18686,3,PR,1,100,170867
1576770738.130328,109866.667,18704,3,PR,1,100,170852
1576770738.170280,109900.333,18704,3,PR,1,100,170877
1576770738.210232,109934.000,18704,3,PR,1,100,170934
1576770738.248206,109966.000,18721,3,PR,1,100,170968
1576770738.286180,109998.000,18721,3,PR,1,100,170917
1576770738.324155,110030.000,18721,3,PR,1,100,170974
1576770738.363316,110063.000,18739,3,PR,1,100,171059
1576770738.402477,110096.000,18739,3,PR,1,100,171038
1576770738.441638,110129.000,18739,3,PR,1,100,170974
1576770738.482776,110163.667,18757,3,PR,1,100,170965
1576770738.523915,110198.333,18757,3,PR,1,100,171042
1576770738.565054,110233.000,18757,3,PR,1,100,171074
1576770738.606588,110268.000,18775,3,PR,1,100,171052
1576770738.648123,110303.000,18775,3,PR,1,100,171077
1576770738.689657,110338.000,18775,3,PR,1,100,171079
1576770738.730598,110372.500,18793,2,PR,1,100,171099
1576770738.771539,110407.000,18793,2,PR,1,100,171110
1576770738.809217,110438.750,18811,4,PR,1,100,171138
1576770738.846894,110470.500,18811,4,PR,1,100,171127
1576770738.884572,110502.250,18811,4,PR,1,100,171144
1576770738.922250,110534.000,18811,4,PR,1,100,171132
1576770738.961015,110566.667,18829,3,PR,1,100,171130
1576770738.999780,110599.333,18829,3,PR,1,100,171128
1576770739.038546,110632.000,18829,3,PR,1,100,171049
1576770739.079684,110666.667,18847,3,PR,1,100,170945
1576770739.120823,110701.333,18847,3,PR,1,100,170995
1576770739.161962,110736.000,18847,3,PR,1,100,170959
1576770739.203101,110770.667,18865,3,PR,1,100,170892
1576770739.244240,110805.333,18865,3,PR,1,100,170881
1576770739.285378,110840.000,18865,3,PR,1,100,170937
1576770739.327506,110875.500,18883,2,PR,1,100,170894
1576770739.369634,110911.000,18883,2,PR,1,100,170809
1576770739.406718,110942.250,18899,4,PR,1,100,170782
1576770739.443802,110973.500,18899,4,PR,1,100,170771
1576770739.480887,111004.750,18899,4,PR,1,100,170781
1576770739.517971,111036.000,18899,4,PR,1,100,170779
1576770739.564846,111075.500,18917,2,PR,1,100,170781
1576770739.611720,111115.000,18917,2,PR,1,100,170821
1576770739.648804,111146.250,18935,4,PR,1,100,170755
1576770739.685889,111177.500,18935,4,PR,1,100,170640
1576770739.722973,111208.750,18935,4,PR,1,100,170579
1576770739.760057,111240.000,18935,4,PR,1,100,170594
1576770739.799613,111273.333,18953,3,PR,1,100,170502
1576770739.839170,111306.667,18953,3,PR,1,100,170465
1576770739.878727,111340.000,18953,3,PR,1,100,170509
1576770739.916305,111371.667,18971,3,PR,1,100,170521
1576770739.953884,111403.333,18971,3,PR,1,100,170445
1576770739.991463,111435.000,18971,3,PR,1,100,170402
1576770740.034975,111471.667,18989,3,PR,1,100,170385
1576770740.078487,111508.333,18989,3,PR,1,100,170377
1576770740.121999,111545.000,18989,3,PR,1,100,170350
1576770740.163534,111580.000,19007,3,PR,1,100,170351
1576770740.205068,111615.000,19007,3,PR,1,100,170332
1576770740.246602,111650.000,19007,3,PR,1,100,170341
1576770740.284181,111681.667,19026,3,PR,1,100,170363
1576770740.321760,111713.333,19026,3,PR,1,100,170360
1576770740.359339,111745.000,19026,3,PR,1,100,170282
1576770740.400477,111779.667,19043,3,PR,1,100,170220
1576770740.441616,111814.333,19043,3,PR,1,100,170205
1576770740.482755,111849.000,19043,3,PR,1,100,170189
1576770740.523498,111883.333,19061,3,PR,1,100,170177
1576770740.564241,111917.667,19061,3,PR,1,100,170202
1576770740.604985,111952.000,19061,3,PR,1,100,170214
1576770740.644541,111985.333,19077,3,PR,1,100,170179
1576770740.684098,112018.667,19077,3,PR,1,100,170159
1576770740.723654,112052.000,19077,3,PR,1,100,170175
1576770740.762024,112084.333,19095,3,PR,1,100,170163
1576770740.800394,112116.667,19095,3,PR,1,100,170166
1576770740.838764,112149.000,19095,3,PR,1,100,170173
1576770740.877925,112182.000,19113,3,PR,1,100,170147
1576770740.917086,112215.000,19113,3,PR,1,100,170095
1576770740.956247,112248.000,19113,3,PR,1,100,170176
1576770740.996990,112282.333,19131,3,PR,1,100,170171
1576770741.037733,112316.667,19131,3,PR,1,100,170121
1576770741.078476,112351.000,19131,3,PR,1,100,170137
1576770741.118824,112385.000,19149,3,PR,1,100,170150
1576770741.159172,112419.000,19149,3,PR,1,100,170097
1576770741.199519,112453.000,19149,3,PR,1,100,170096
1576770741.241647,112488.500,19168,2,PR,1,100,170112
1576770741.283775,112524.000,19168,2,PR,1,100,170124
1576770741.323826,112557.750,19186,4,PR,1,100,170203
1576770741.363877,112591.500,19186,4,PR,1,100,170283
1576770741.403928,112625.250,19186,4,PR,1,100,170297
1576770741.443979,112659.000,19186,4,PR,1,100,170344
1576770741.483437,112692.250,19207,4,PR,1,100,170451
1576770741.522894,112725.500,19207,4,PR,1,100,170506
1576770741.562352,112758.750,19207,4,PR,1,100,170512
1576770741.601810,112792.000,19207,4,PR,1,100,170546
1576770741.642948,112826.667,19227,3,PR,1,100,170556
1576770741.684087,112861.333,19227,3,PR,1,100,170612
1576770741.725226,112896.000,19227,3,PR,1,100,170694
1576770741.766760,112931.000,19245,3,PR,1,100,170708
1576770741.808295,112966.000,19245,3,PR,1,100,170712
1576770741.849829,113001.000,19245,3,PR,1,100,170732
1576770741.889385,113034.333,19263,3,PR,1,100,170762
1576770741.928942,113067.667,19263,3,PR,1,100,170736
1576770741.968498,113101.000,19263,3,PR,1,100,170708
1576770742.006473,113133.000,19281,3,PR,1,100,170795
1576770742.044447,113165.000,19281,3,PR,1,100,170810
1576770742.082421,113197.000,19281,3,PR,1,100,170749
1576770742.121187,113229.667,19299,3,PR,1,100,170724
1576770742.159952,113262.333,19299,3,PR,1,100,170746
1576770742.198718,113295.000,19299,3,PR,1,100,170752
1576770742.239461,113329.333,19317,3,PR,1,100,170753
1576770742.280204,113363.667,19317,3,PR,1,100,170781
1576770742.320947,113398.000,19317,3,PR,1,100,170768
1576770742.362482,113433.000,19335,3,PR,1,100,170750
1576770742.404016,113468.000,19335,3,PR,1,100,170756
1576770742.445550,113503.000,19335,3,PR,1,100,170769
1576770742.485502,113536.667,19351,3,PR,1,100,170753
1576770742.525455,113570.333,19351,3,PR,1,100,170738
1576770742.565407,113604.000,19351,3,PR,1,100,170711
1576770742.603776,113636.333,19369,3,PR,1,100,170651
1576770742.642146,113668.667,19369,3,PR,1,100,170616
1576770742.680516,113701.000,19369,3,PR,1,100,170584
1576770742.719084,113733.500,19387,4,PR,1,100,170591
1576770742.757652,113766.000,19387,4,PR,1,100,170571
