EpochTimestamp,EmotiBitTimestamp,PacketNumber,DataLength,TypeTag,ProtocolVersion,DataReliability,GY
1576860792.447354,587213.000,36281,9,GY,1,100,3.296
1576860792.447354,587213.000,36281,9,GY,1,100,2.289
1576860792.447354,587213.000,36281,9,GY,1,100,0.702
1576860792.447354,587213.000,36281,9,GY,1,100,-0.275
1576860792.447354,587213.000,36281,9,GY,1,100,-0.824
1576860792.447354,587213.000,36281,9,GY,1,100,-0.061
1576860792.447354,587213.000,36281,9,GY,1,100,0.366
1576860792.447354,587213.000,36281,9,GY,1,100,0.427
1576860792.447354,587213.000,36281,9,GY,1,100,-0.580
1576860792.487649,587247.000,36299,3,GY,1,100,-0.214
1576860792.527944,587281.000,36299,3,GY,1,100,-0.366
1576860792.568239,587315.000,36299,3,GY,1,100,-0.671
1576860792.605768,587346.667,36317,3,GY,1,100,0.580
1576860792.643298,587378.333,36317,3,GY,1,100,1.343
1576860792.680828,587410.000,36317,3,GY,1,100,0.580
1576860792.721123,587444.000,36335,3,GY,1,100,-0.305
1576860792.761418,587478.000,36335,3,GY,1,100,-0.549
1576860792.801713,587512.000,36335,3,GY,1,100,0.427
1576860792.840033,587544.333,36353,3,GY,1,100,0.793
1576860792.878352,587576.667,36353,3,GY,1,100,0.336
1576860792.916672,587609.000,36353,3,GY,1,100,-0.305
1576860792.954597,587641.000,36371,3,GY,1,100,-0.244
1576860792.992522,587673.000,36371,3,GY,1,100,0.305
1576860793.030446,587705.000,36371,3,GY,1,100,0.214
1576860793.071532,587739.667,36390,3,GY,1,100,0.488
1576860793.112617,587774.333,36390,3,GY,1,100,0.366
1576860793.153702,587809.000,36390,3,GY,1,100,-0.092
1576860793.194787,587843.667,36408,3,GY,1,100,0.061
1576860793.235872,587878.333,36408,3,GY,1,100,0.458
1576860793.276957,587913.000,36408,3,GY,1,100,0.061
1576860793.318832,587948.333,36425,3,GY,1,100,-0.153
1576860793.360708,587983.667,36425,3,GY,1,100,0.092
1576860793.402583,588019.000,36425,3,GY,1,100,-0.153
1576860793.443668,588053.667,36441,3,GY,1,100,0.732
1576860793.484753,588088.333,36441,3,GY,1,100,0.732
1576860793.525838,588123.000,36441,3,GY,1,100,0.641
1576860793.572651,588162.500,36459,2,GY,1,100,0.946
1576860793.619465,588202.000,36459,2,GY,1,100,0.122
1576860793.657093,588233.750,36477,4,GY,1,100,-0.397
1576860793.694721,588265.500,36477,4,GY,1,100,-0.061
1576860793.732350,588297.250,36477,4,GY,1,100,0.275
1576860793.769979,588329.000,36477,4,GY,1,100,0.519
1576860793.808693,588361.667,36495,3,GY,1,100,0.427
1576860793.847408,588394.333,36495,3,GY,1,100,0.488
1576860793.886123,588427.000,36495,3,GY,1,100,0.793
1576860793.927011,588461.500,36513,2,GY,1,100,0.305
1576860793.967898,588496.000,36513,2,GY,1,100,0.061
1576860794.008489,588530.250,36531,4,GY,1,100,-0.488
1576860794.049081,588564.500,36531,4,GY,1,100,-0.549
1576860794.089672,588598.750,36531,4,GY,1,100,0.122
1576860794.130263,588633.000,36531,4,GY,1,100,0.244
1576860794.172929,588669.000,36550,2,GY,1,100,0.183
1576860794.215594,588705.000,36550,2,GY,1,100,0.366
1576860794.256284,588739.333,36568,3,GY,1,100,-0.183
1576860794.296974,588773.667,36568,3,GY,1,100,0.122
1576860794.337664,588808.000,36568,3,GY,1,100,0.885
1576860794.375984,588840.333,36586,3,GY,1,100,0.702
1576860794.414304,588872.667,36586,3,GY,1,100,0.305
1576860794.452623,588905.000,36586,3,GY,1,100,0.153
1576860794.493709,588939.667,36603,3,GY,1,100,0.427
1576860794.534794,588974.333,36603,3,GY,1,100,-0.305
1576860794.575879,589009.000,36603,3,GY,1,100,0.336
1576860794.617359,589044.000,36621,3,GY,1,100,0.427
1576860794.658839,589079.000,36621,3,GY,1,100,0.092
1576860794.700319,589114.000,36621,3,GY,1,100,0.275
1576860794.742194,589149.333,36637,3,GY,1,100,-0.122
1576860794.784070,589184.667,36637,3,GY,1,100,0.092
1576860794.825945,589220.000,36637,3,GY,1,100,0.488
1576860794.867030,589254.667,36655,3,GY,1,100,-0.183
1576860794.908115,589289.333,36655,3,GY,1,100,0.031
1576860794.949200,589324.000,36655,3,GY,1,100,-0.275
1576860794.986335,589355.333,36673,3,GY,1,100,-0.793
1576860795.023469,589386.667,36673,3,GY,1,100,-0.214
1576860795.060604,589418.000,36673,3,GY,1,100,0.366
1576860795.100899,589452.000,36692,3,GY,1,100,0.580
1576860795.141194,589486.000,36692,3,GY,1,100,0.580
1576860795.181489,589520.000,36692,3,GY,1,100,0.397
1576860795.222574,589554.667,36710,3,GY,1,100,-0.092
1576860795.263659,589589.333,36710,3,GY,1,100,-0.824
1576860795.304744,589624.000,36710,3,GY,1,100,0.122
1576860795.345435,589658.333,36728,3,GY,1,100,0.061
1576860795.386125,589692.667,36728,3,GY,1,100,-0.092
1576860795.426815,589727.000,36728,3,GY,1,100,0.061
1576860795.469085,589762.667,36746,3,GY,1,100,0.153
1576860795.511355,589798.333,36746,3,GY,1,100,-0.031
1576860795.553626,589834.000,36746,3,GY,1,100,0.092
1576860795.591945,589866.333,36764,3,GY,1,100,0.183
1576860795.630265,589898.667,36764,3,GY,1,100,0.397
1576860795.668585,589931.000,36764,3,GY,1,100,0.702
1576860795.708880,589965.000,36781,3,GY,1,100,0.397
1576860795.749175,589999.000,36781,3,GY,1,100,-0.366
1576860795.789470,590033.000,36781,3,GY,1,100,-0.458
1576860795.828975,590066.333,36799,3,GY,1,100,0.610
1576860795.868480,590099.667,36799,3,GY,1,100,0.183
1576860795.907985,590133.000,36799,3,GY,1,100,0.092
1576860795.946699,590165.667,36817,3,GY,1,100,0.549
1576860795.985414,590198.333,36817,3,GY,1,100,0.183
1576860796.024129,590231.000,36817,3,GY,1,100,-0.244
1576860796.060869,590262.000,36834,3,GY,1,100,0.031
1576860796.097608,590293.000,36834,3,GY,1,100,-0.244
1576860796.134348,590324.000,36834,3,GY,1,100,0.397
1576860796.175433,590358.667,36852,3,GY,1,100,-0.122
1576860796.216518,590393.333,36852,3,GY,1,100,-0.671
1576860796.257603,590428.000,36852,3,GY,1,100,-0.397
1576860796.296318,590460.667,36870,3,GY,1,100,0.031
1576860796.335033,590493.333,36870,3,GY,1,100,0.183
1576860796.373748,590526.000,36870,3,GY,1,100,-0.092
1576860796.410487,590557.000,36888,4,GY,1,100,-0.183
1576860796.447227,590588.000,36888,4,GY,1,100,-0.092
1576860796.483966,590619.000,36888,4,GY,1,100,0.031
1576860796.520706,590650.000,36888,4,GY,1,100,0.275
1576860796.561396,590684.333,36906,3,GY,1,100,-0.061
1576860796.602086,590718.667,36906,3,GY,1,100,0.061
1576860796.642776,590753.000,36906,3,GY,1,100,0.580
1576860796.681886,590786.000,36924,3,GY,1,100,0.122
1576860796.720996,590819.000,36924,3,GY,1,100,-0.092
1576860796.760106,590852.000,36924,3,GY,1,100,-0.031
1576860796.801586,590887.000,36942,2,GY,1,100,-0.153
1576860796.843066,590922.000,36942,2,GY,1,100,-0.336
1576860796.884151,590956.667,36960,3,GY,1,100,0.061
1576860796.925236,590991.333,36960,3,GY,1,100,-0.061
1576860796.966321,591026.000,36960,3,GY,1,100,-0.793
1576860797.007802,591061.000,36978,3,GY,1,100,-0.580
1576860797.049282,591096.000,36978,3,GY,1,100,7.782
1576860797.090762,591131.000,36978,3,GY,1,100,18.616
1576860797.131452,591165.333,36996,3,GY,1,100,22.125
1576860797.172142,591199.667,36996,3,GY,1,100,27.954
1576860797.212832,591234.000,36996,3,GY,1,100,25.391
1576860797.253127,591268.000,37012,3,GY,1,100,12.421
1576860797.293422,591302.000,37012,3,GY,1,100,14.740
1576860797.333717,591336.000,37012,3,GY,1,100,16.785
1576860797.374802,591370.667,37030,3,GY,1,100,9.064
1576860797.415887,591405.333,37030,3,GY,1,100,-8.453
1576860797.456973,591440.000,37030,3,GY,1,100,-16.022
1576860797.493119,591470.500,37048,4,GY,1,100,-15.259
1576860797.529267,591501.000,37048,4,GY,1,100,-20.447
1576860797.565413,591531.500,37048,4,GY,1,100,-32.349
1576860797.601561,591562.000,37048,4,GY,1,100,-29.419
1576860797.640078,591594.500,37066,2,GY,1,100,-24.811
1576860797.678595,591627.000,37066,2,GY,1,100,-18.524
1576860797.720865,591662.667,37084,3,GY,1,100,-1.251
1576860797.763136,591698.333,37084,3,GY,1,100,7.965
1576860797.805406,591734.000,37084,3,GY,1,100,15.350
1576860797.846096,591768.333,37102,3,GY,1,100,11.871
1576860797.886786,591802.667,37102,3,GY,1,100,1.801
1576860797.927476,591837.000,37102,3,GY,1,100,4.089
1576860797.968166,591871.333,37120,3,GY,1,100,18.829
1576860798.008856,591905.667,37120,3,GY,1,100,24.933
1576860798.049546,591940.000,37120,3,GY,1,100,26.672
1576860798.089841,591974.000,37139,3,GY,1,100,15.350
1576860798.130136,592008.000,37139,3,GY,1,100,-6.012
1576860798.170431,592042.000,37139,3,GY,1,100,-14.435
1576860798.211122,592076.333,37157,3,GY,1,100,-12.329
1576860798.251812,592110.667,37157,3,GY,1,100,41.626
1576860798.292502,592145.000,37157,3,GY,1,100,180.084
1576860798.332797,592179.000,37178,5,GY,1,100,64.484
1576860798.373092,592213.000,37178,5,GY,1,100,24.933
1576860798.413387,592247.000,37178,5,GY,1,100,-42.786
1576860798.453682,592281.000,37178,5,GY,1,100,-69.702
1576860798.493977,592315.000,37178,5,GY,1,100,-63.629
1576860798.535062,592349.667,37198,3,GY,1,100,-48.309
1576860798.576147,592384.333,37198,3,GY,1,100,-25.269
1576860798.617232,592419.000,37198,3,GY,1,100,49.225
1576860798.658712,592454.000,37216,3,GY,1,100,121.124
1576860798.700192,592489.000,37216,3,GY,1,100,26.062
1576860798.741673,592524.000,37216,3,GY,1,100,10.040
1576860798.779202,592555.667,37234,3,GY,1,100,-42.847
1576860798.816732,592587.333,37234,3,GY,1,100,-28.900
1576860798.854262,592619.000,37234,3,GY,1,100,-36.652
1576860798.892581,592651.333,37252,3,GY,1,100,-41.931
1576860798.930901,592683.667,37252,3,GY,1,100,-24.719
1576860798.969221,592716.000,37252,3,GY,1,100,13.947
1576860799.013071,592753.000,37270,3,GY,1,100,80.750
1576860799.056922,592790.000,37270,3,GY,1,100,80.933
1576860799.100772,592827.000,37270,3,GY,1,100,6.195
1576860799.141857,592861.667,37288,3,GY,1,100,-19.226
1576860799.182942,592896.333,37288,3,GY,1,100,-49.255
1576860799.224028,592931.000,37288,3,GY,1,100,-34.729
1576860799.264718,592965.333,37304,3,GY,1,100,-12.482
1576860799.305408,592999.667,37304,3,GY,1,100,-9.155
1576860799.346098,593034.000,37304,3,GY,1,100,-10.559
1576860799.384813,593066.667,37322,3,GY,1,100,-17.639
1576860799.423527,593099.333,37322,3,GY,1,100,-43.793
1576860799.462242,593132.000,37322,3,GY,1,100,-62.103
1576860799.502932,593166.333,37340,3,GY,1,100,-50.232
1576860799.543622,593200.667,37340,3,GY,1,100,-22.614
1576860799.584312,593235.000,37340,3,GY,1,100,13.062
1576860799.622237,593267.000,37358,3,GY,1,100,18.341
1576860799.660162,593299.000,37358,3,GY,1,100,-11.993
1576860799.698087,593331.000,37358,3,GY,1,100,-25.635
1576860799.740357,593366.667,37376,3,GY,1,100,-15.869
1576860799.782627,593402.333,37376,3,GY,1,100,1.984
1576860799.824897,593438.000,37376,3,GY,1,100,10.590
1576860799.860847,593468.333,37394,3,GY,1,100,-6.134
1576860799.896796,593498.667,37394,3,GY,1,100,13.214
1576860799.932746,593529.000,37394,3,GY,1,100,-2.930
1576860799.976991,593566.333,37412,3,GY,1,100,-14.923
1576860800.021237,593603.667,37412,3,GY,1,100,-0.702
1576860800.065482,593641.000,37412,3,GY,1,100,-1.526
1576860800.103407,593673.000,37431,3,GY,1,100,7.172
1576860800.141332,593705.000,37431,3,GY,1,100,1.526
1576860800.179256,593737.000,37431,3,GY,1,100,-7.141
1576860800.217181,593769.000,37449,3,GY,1,100,7.202
1576860800.255106,593801.000,37449,3,GY,1,100,12.482
1576860800.293031,593833.000,37449,3,GY,1,100,13.367
1576860800.334116,593867.667,37466,3,GY,1,100,9.796
1576860800.375201,593902.333,37466,3,GY,1,100,4.791
1576860800.416286,593937.000,37466,3,GY,1,100,1.160
1576860800.457766,593972.000,37484,3,GY,1,100,-0.458
1576860800.499246,594007.000,37484,3,GY,1,100,-1.038
1576860800.540726,594042.000,37484,3,GY,1,100,-6.134
1576860800.581812,594076.667,37500,3,GY,1,100,-4.120
1576860800.622897,594111.333,37500,3,GY,1,100,-0.061
1576860800.663982,594146.000,37500,3,GY,1,100,0.610
1576860800.705462,594181.000,37518,2,GY,1,100,-0.671
1576860800.746942,594216.000,37518,2,GY,1,100,0.671
1576860800.788027,594250.667,37536,3,GY,1,100,1.678
1576860800.829113,594285.333,37536,3,GY,1,100,1.312
1576860800.870198,594320.000,37536,3,GY,1,100,2.136
1576860800.912073,594355.333,37554,3,GY,1,100,2.258
1576860800.953948,594390.667,37554,3,GY,1,100,2.411
1576860800.995823,594426.000,37554,3,GY,1,100,0.458
1576860801.033748,594458.000,37573,3,GY,1,100,0.092
1576860801.071673,594490.000,37573,3,GY,1,100,1.068
1576860801.109597,594522.000,37573,3,GY,1,100,1.678
1576860801.148312,594554.667,37591,3,GY,1,100,0.427
1576860801.187027,594587.333,37591,3,GY,1,100,-0.946
1576860801.225742,594620.000,37591,3,GY,1,100,0.305
1576860801.265642,594653.667,37609,3,GY,1,100,2.350
1576860801.305542,594687.333,37609,3,GY,1,100,2.502
1576860801.345442,594721.000,37609,3,GY,1,100,2.106
1576860801.384947,594754.333,37626,3,GY,1,100,0.610
1576860801.424452,594787.667,37626,3,GY,1,100,-0.580
1576860801.463957,594821.000,37626,3,GY,1,100,-0.580
1576860801.507807,594858.000,37644,3,GY,1,100,-0.610
1576860801.551657,594895.000,37644,3,GY,1,100,0.610
1576860801.595508,594932.000,37644,3,GY,1,100,1.587
1576860801.636198,594966.333,37662,3,GY,1,100,1.465
1576860801.676888,595000.667,37662,3,GY,1,100,-0.885
1576860801.717578,595035.000,37662,3,GY,1,100,-0.732
1576860801.758268,595069.333,37678,3,GY,1,100,1.312
1576860801.798958,595103.667,37678,3,GY,1,100,0.427
1576860801.839648,595138.000,37678,3,GY,1,100,-0.031
1576860801.877573,595170.000,37696,3,GY,1,100,0.702
1576860801.915498,595202.000,37696,3,GY,1,100,1.129
1576860801.953423,595234.000,37696,3,GY,1,100,0.793
1576860801.990952,595265.667,37715,3,GY,1,100,-0.183
1576860802.028482,595297.333,37715,3,GY,1,100,-1.923
1576860802.066011,595329.000,37715,3,GY,1,100,-0.977
1576860802.110257,595366.333,37733,3,GY,1,100,0.122
1576860802.154502,595403.667,37733,3,GY,1,100,0.275
1576860802.198748,595441.000,37733,3,GY,1,100,-2.533
1576860802.240228,595476.000,37751,3,GY,1,100,-2.197
1576860802.281708,595511.000,37751,3,GY,1,100,0.183
1576860802.323189,595546.000,37751,3,GY,1,100,0.610
1576860802.364669,595581.000,37769,3,GY,1,100,-3.357
1576860802.406149,595616.000,37769,3,GY,1,100,-4.883
1576860802.447629,595651.000,37769,3,GY,1,100,-1.465
1576860802.485554,595683.000,37787,3,GY,1,100,0.275
1576860802.523479,595715.000,37787,3,GY,1,100,0.977
1576860802.561403,595747.000,37787,3,GY,1,100,0.977
1576860802.599328,595779.000,37805,3,GY,1,100,1.038
1576860802.637253,595811.000,37805,3,GY,1,100,0.580
1576860802.675177,595843.000,37805,3,GY,1,100,1.099
1576860802.719423,595880.333,37822,3,GY,1,100,2.167
1576860802.763668,595917.667,37822,3,GY,1,100,1.312
1576860802.807914,595955.000,37822,3,GY,1,100,0.702
1576860802.848999,595989.667,37840,3,GY,1,100,-0.092
1576860802.890084,596024.333,37840,3,GY,1,100,-0.397
1576860802.931169,596059.000,37840,3,GY,1,100,0.061
1576860802.972649,596094.000,37856,3,GY,1,100,0.092
1576860803.014130,596129.000,37856,3,GY,1,100,0.214
1576860803.055610,596164.000,37856,3,GY,1,100,1.678
1576860803.093139,596195.667,37875,3,GY,1,100,0.732
1576860803.130669,596227.333,37875,3,GY,1,100,-0.519
1576860803.168199,596259.000,37875,3,GY,1,100,0.305
1576860803.206123,596291.000,37893,3,GY,1,100,0.061
1576860803.244048,596323.000,37893,3,GY,1,100,0.214
1576860803.281973,596355.000,37893,3,GY,1,100,0.641
1576860803.325033,596391.333,37911,3,GY,1,100,-0.122
1576860803.368094,596427.667,37911,3,GY,1,100,-0.061
1576860803.411154,596464.000,37911,3,GY,1,100,0.549
1576860803.448289,596495.333,37929,3,GY,1,100,1.617
1576860803.485423,596526.667,37929,3,GY,1,100,0.702
1576860803.522558,596558.000,37929,3,GY,1,100,-0.519
1576860803.567199,596595.667,37947,3,GY,1,100,0.488
1576860803.611839,596633.333,37947,3,GY,1,100,1.587
1576860803.656480,596671.000,37947,3,GY,1,100,-0.122
1576860803.692429,596701.333,37965,3,GY,1,100,0.427
1576860803.728379,596731.667,37965,3,GY,1,100,0.977
1576860803.764328,596762.000,37965,3,GY,1,100,-0.916
1576860803.805808,596797.000,37982,3,GY,1,100,-0.305
1576860803.847288,596832.000,37982,3,GY,1,100,1.007
1576860803.888768,596867.000,37982,3,GY,1,100,1.678
1576860803.928668,596900.667,38000,3,GY,1,100,0.702
1576860803.968568,596934.333,38000,3,GY,1,100,0.549
1576860804.008468,596968.000,38000,3,GY,1,100,0.854
1576860804.048763,597002.000,38019,3,GY,1,100,-0.336
1576860804.089058,597036.000,38019,3,GY,1,100,0.183
1576860804.129354,597070.000,38019,3,GY,1,100,-0.031
1576860804.170241,597104.500,38035,2,GY,1,100,0.397
1576860804.211129,597139.000,38035,2,GY,1,100,0.488
1576860804.251424,597173.000,38053,4,GY,1,100,-0.427
1576860804.291719,597207.000,38053,4,GY,1,100,0.366
1576860804.332014,597241.000,38053,4,GY,1,100,1.038
1576860804.372309,597275.000,38053,4,GY,1,100,0.397
1576860804.416159,597312.000,38074,4,GY,1,100,1.038
1576860804.460010,597349.000,38074,4,GY,1,100,1.038
1576860804.503860,597386.000,38074,4,GY,1,100,0.397
1576860804.547710,597423.000,38074,4,GY,1,100,0.763
1576860804.588796,597457.667,38094,3,GY,1,100,-0.031
1576860804.629881,597492.333,38094,3,GY,1,100,0.305
1576860804.670966,597527.000,38094,3,GY,1,100,-1.007
1576860804.710866,597560.667,38110,3,GY,1,100,-0.275
1576860804.750766,597594.333,38110,3,GY,1,100,-0.214
1576860804.790666,597628.000,38110,3,GY,1,100,-0.031
1576860804.828985,597660.333,38128,3,GY,1,100,0.977
1576860804.867305,597692.667,38128,3,GY,1,100,-0.122
1576860804.905625,597725.000,38128,3,GY,1,100,0.061
1576860804.945525,597758.667,38146,3,GY,1,100,1.556
1576860804.985425,597792.333,38146,3,GY,1,100,0.793
1576860805.025325,597826.000,38146,3,GY,1,100,0.549
1576860805.065225,597859.667,38165,3,GY,1,100,-0.763
1576860805.105125,597893.333,38165,3,GY,1,100,-1.648
1576860805.145025,597927.000,38165,3,GY,1,100,0.427
1576860805.185320,597961.000,38183,3,GY,1,100,0.427
1576860805.225615,597995.000,38183,3,GY,1,100,-0.916
1576860805.265910,598029.000,38183,3,GY,1,100,0.275
1576860805.310550,598066.667,38201,3,GY,1,100,-0.183
1576860805.355191,598104.333,38201,3,GY,1,100,0.153
1576860805.399832,598142.000,38201,3,GY,1,100,1.160
1576860805.440127,598176.000,38219,2,GY,1,100,0.366
1576860805.480422,598210.000,38219,2,GY,1,100,-0.214
1576860805.520124,598243.500,38236,4,GY,1,100,-0.031
1576860805.559827,598277.000,38236,4,GY,1,100,0.671
1576860805.599529,598310.500,38236,4,GY,1,100,0.732
1576860805.639231,598344.000,38236,4,GY,1,100,0.854
1576860805.677156,598376.000,38254,3,GY,1,100,0.122
1576860805.715081,598408.000,38254,3,GY,1,100,0.153
1576860805.753006,598440.000,38254,3,GY,1,100,0.824
1576860805.792115,598473.000,38272,3,GY,1,100,-0.336
1576860805.831225,598506.000,38272,3,GY,1,100,-0.244
1576860805.870335,598539.000,38272,3,GY,1,100,0.458
1576860805.918334,598579.500,38288,2,GY,1,100,0.641
1576860805.966332,598620.000,38288,2,GY,1,100,0.946
1576860806.007022,598654.333,38307,3,GY,1,100,-0.031
1576860806.047712,598688.667,38307,3,GY,1,100,0.000
1576860806.088402,598723.000,38307,3,GY,1,100,0.610
1576860806.129092,598757.333,38325,3,GY,1,100,0.580
1576860806.169782,598791.667,38325,3,GY,1,100,0.214
1576860806.210473,598826.000,38325,3,GY,1,100,-0.061
1576860806.248397,598858.000,38343,3,GY,1,100,0.000
1576860806.286322,598890.000,38343,3,GY,1,100,-0.061
1576860806.324247,598922.000,38343,3,GY,1,100,0.336
1576860806.363060,598954.750,38361,4,GY,1,100,0.702
1576860806.401874,598987.500,38361,4,GY,1,100,0.092
1576860806.440687,599020.250,38361,4,GY,1,100,0.061
1576860806.479501,599053.000,38361,4,GY,1,100,0.000
1576860806.520389,599087.500,38379,2,GY,1,100,-0.122
1576860806.561276,599122.000,38379,2,GY,1,100,0.336
1576860806.605917,599159.667,38397,3,GY,1,100,0.244
1576860806.650557,599197.333,38397,3,GY,1,100,0.214
1576860806.695198,599235.000,38397,3,GY,1,100,0.366
1576860806.736283,599269.667,38414,3,GY,1,100,0.275
1576860806.777368,599304.333,38414,3,GY,1,100,0.305
1576860806.818453,599339.000,38414,3,GY,1,100,0.061
1576860806.855193,599370.000,38432,3,GY,1,100,0.061
1576860806.891932,599401.000,38432,3,GY,1,100,0.122
1576860806.928672,599432.000,38432,3,GY,1,100,-0.305
1576860806.968177,599465.333,38451,3,GY,1,100,-0.275
1576860807.007682,599498.667,38451,3,GY,1,100,0.000
1576860807.047187,599532.000,38451,3,GY,1,100,0.275
1576860807.086692,599565.333,38469,3,GY,1,100,0.580
1576860807.126197,599598.667,38469,3,GY,1,100,-0.122
1576860807.165701,599632.000,38469,3,GY,1,100,-0.122
1576860807.207972,599667.667,38485,3,GY,1,100,0.336
1576860807.250242,599703.333,38485,3,GY,1,100,-0.427
1576860807.292512,599739.000,38485,3,GY,1,100,-0.641
1576860807.332807,599773.000,38503,3,GY,1,100,0.397
1576860807.373102,599807.000,38503,3,GY,1,100,0.610
1576860807.413397,599841.000,38503,3,GY,1,100,-0.183
1576860807.458038,599878.667,38521,3,GY,1,100,-0.214
1576860807.502678,599916.333,38521,3,GY,1,100,0.275
1576860807.547319,599954.000,38521,3,GY,1,100,0.610
1576860807.587614,599988.000,38539,3,GY,1,100,0.885
1576860807.627909,600022.000,38539,3,GY,1,100,-0.122
1576860807.668204,600056.000,38539,3,GY,1,100,-0.946
1576860807.710474,600091.667,38557,3,GY,1,100,0.214
1576860807.752745,600127.333,38557,3,GY,1,100,-0.336
1576860807.795015,600163.000,38557,3,GY,1,100,-0.031
1576860807.834717,600196.500,38574,2,GY,1,100,0.580
1576860807.874420,600230.000,38574,2,GY,1,100,0.183
1576860807.916690,600265.667,38592,3,GY,1,100,-0.183
1576860807.958960,600301.333,38592,3,GY,1,100,0.305
1576860808.001230,600337.000,38592,3,GY,1,100,0.061
1576860808.042711,600372.000,38609,3,GY,1,100,0.610
1576860808.084191,600407.000,38609,3,GY,1,100,0.061
1576860808.125671,600442.000,38609,3,GY,1,100,0.214
1576860808.167151,600477.000,38627,3,GY,1,100,0.153
1576860808.208631,600512.000,38627,3,GY,1,100,0.244
1576860808.250112,600547.000,38627,3,GY,1,100,0.427
1576860808.291197,600581.667,38645,3,GY,1,100,0.061
1576860808.332282,600616.333,38645,3,GY,1,100,0.336
1576860808.373367,600651.000,38645,3,GY,1,100,-0.031
1576860808.414847,600686.000,38663,3,GY,1,100,-0.305
1576860808.456327,600721.000,38663,3,GY,1,100,0.244
1576860808.497808,600756.000,38663,3,GY,1,100,-0.305
1576860808.535337,600787.667,38681,3,GY,1,100,-0.488
1576860808.572867,600819.333,38681,3,GY,1,100,-0.214
1576860808.610396,600851.000,38681,3,GY,1,100,0.610
1576860808.649901,600884.333,38699,3,GY,1,100,0.305
1576860808.689406,600917.667,38699,3,GY,1,100,0.183
1576860808.728911,600951.000,38699,3,GY,1,100,0.305
1576860808.766836,600983.000,38717,3,GY,1,100,-0.183
1576860808.804761,601015.000,38717,3,GY,1,100,0.031
1576860808.842685,601047.000,38717,3,GY,1,100,0.641
1576860808.881400,601079.667,38735,3,GY,1,100,-0.061
1576860808.920115,601112.333,38735,3,GY,1,100,0.092
1576860808.958830,601145.000,38735,3,GY,1,100,1.007
1576860808.999915,601179.667,38753,3,GY,1,100,0.061
1576860809.041000,601214.333,38753,3,GY,1,100,-0.427
1576860809.082085,601249.000,38753,3,GY,1,100,0.214
1576860809.126726,601286.667,38771,3,GY,1,100,-0.336
1576860809.171366,601324.333,38771,3,GY,1,100,0.305
1576860809.216007,601362.000,38771,3,GY,1,100,0.061
1576860809.254722,601394.667,38787,3,GY,1,100,0.000
1576860809.293437,601427.333,38787,3,GY,1,100,0.336
1576860809.332151,601460.000,38787,3,GY,1,100,0.244
1576860809.377187,601498.000,38805,3,GY,1,100,0.580
1576860809.422223,601536.000,38805,3,GY,1,100,0.275
1576860809.467258,601574.000,38805,3,GY,1,100,0.885
1576860809.507158,601607.667,38823,3,GY,1,100,-0.061
1576860809.547058,601641.333,38823,3,GY,1,100,-0.214
1576860809.586958,601675.000,38823,3,GY,1,100,-0.763
1576860809.624488,601706.667,38841,3,GY,1,100,-0.702
1576860809.662017,601738.333,38841,3,GY,1,100,0.061
1576860809.699547,601770.000,38841,3,GY,1,100,0.854
1576860809.739052,601803.333,38859,3,GY,1,100,0.366
1576860809.778557,601836.667,38859,3,GY,1,100,1.678
1576860809.818062,601870.000,38859,3,GY,1,100,2.106
1576860809.858357,601904.000,38877,3,GY,1,100,-0.916
1576860809.898652,601938.000,38877,3,GY,1,100,-2.228
1576860809.938947,601972.000,38877,3,GY,1,100,-2.319
1576860809.979834,602006.500,38895,2,GY,1,100,-1.221
1576860810.020722,602041.000,38895,2,GY,1,100,-0.244
1576860810.065758,602079.000,38913,3,GY,1,100,-0.183
1576860810.110793,602117.000,38913,3,GY,1,100,0.366
1576860810.155829,602155.000,38913,3,GY,1,100,1.068
1576860810.193161,602186.500,38931,4,GY,1,100,1.648
1576860810.230493,602218.000,38931,4,GY,1,100,1.587
1576860810.267825,602249.500,38931,4,GY,1,100,1.007
1576860810.305157,602281.000,38931,4,GY,1,100,0.427
1576860810.344267,602314.000,38949,3,GY,1,100,-0.580
1576860810.383377,602347.000,38949,3,GY,1,100,-1.465
1576860810.422487,602380.000,38949,3,GY,1,100,-1.038
1576860810.463967,602415.000,38970,4,GY,1,100,-5.981
1576860810.505447,602450.000,38970,4,GY,1,100,-19.623
1576860810.546927,602485.000,38970,4,GY,1,100,-26.184
1576860810.588408,602520.000,38970,4,GY,1,100,-38.727
1576860810.633048,602557.667,38990,3,GY,1,100,-43.793
1576860810.677689,602595.333,38990,3,GY,1,100,-38.330
1576860810.722329,602633.000,38990,3,GY,1,100,-35.461
1576860810.760649,602665.333,39007,3,GY,1,100,-27.679
1576860810.798969,602697.667,39007,3,GY,1,100,-16.663
1576860810.837289,602730.000,39007,3,GY,1,100,-0.061
1576860810.874423,602761.333,39025,3,GY,1,100,15.442
1576860810.911558,602792.667,39025,3,GY,1,100,26.855
1576860810.948693,602824.000,39025,3,GY,1,100,36.621
1576860810.988593,602857.667,39044,3,GY,1,100,41.870
1576860811.028492,602891.333,39044,3,GY,1,100,44.922
1576860811.068393,602925.000,39044,3,GY,1,100,32.440
1576860811.109082,602959.333,39060,3,GY,1,100,6.561
1576860811.149773,602993.667,39060,3,GY,1,100,3.540
1576860811.190463,603028.000,39060,3,GY,1,100,-4.211
1576860811.231548,603062.667,39078,3,GY,1,100,0.702
1576860811.272633,603097.333,39078,3,GY,1,100,4.425
1576860811.313718,603132.000,39078,3,GY,1,100,3.174
1576860811.356778,603168.333,39096,3,GY,1,100,1.434
1576860811.399839,603204.667,39096,3,GY,1,100,1.160
1576860811.442899,603241.000,39096,3,GY,1,100,1.373
1576860811.480034,603272.333,39114,3,GY,1,100,0.153
1576860811.517168,603303.667,39114,3,GY,1,100,0.122
1576860811.554303,603335.000,39114,3,GY,1,100,1.312
1576860811.596573,603370.667,39132,3,GY,1,100,1.129
1576860811.638844,603406.333,39132,3,GY,1,100,1.068
1576860811.681114,603442.000,39132,3,GY,1,100,1.251
1576860811.723384,603477.667,39150,3,GY,1,100,1.770
1576860811.765654,603513.333,39150,3,GY,1,100,1.648
1576860811.807925,603549.000,39150,3,GY,1,100,0.580
1576860811.843874,603579.333,39168,3,GY,1,100,-1.923
1576860811.879823,603609.667,39168,3,GY,1,100,0.549
1576860811.915773,603640.000,39168,3,GY,1,100,1.556
1576860811.958833,603676.333,39185,3,GY,1,100,0.763
1576860812.001894,603712.667,39185,3,GY,1,100,1.770
1576860812.044954,603749.000,39185,3,GY,1,100,0.092
1576860812.082089,603780.333,39204,3,GY,1,100,-0.488
1576860812.119223,603811.667,39204,3,GY,1,100,-0.427
1576860812.156358,603843.000,39204,3,GY,1,100,-0.519
1576860812.198628,603878.667,39222,3,GY,1,100,1.282
1576860812.240899,603914.333,39222,3,GY,1,100,0.610
1576860812.283169,603950.000,39222,3,GY,1,100,-0.244
1576860812.320698,603981.667,39238,3,GY,1,100,-1.038
1576860812.358228,604013.333,39238,3,GY,1,100,0.580
1576860812.395758,604045.000,39238,3,GY,1,100,3.113
1576860812.435658,604078.667,39256,3,GY,1,100,0.702
1576860812.475558,604112.333,39256,3,GY,1,100,-1.129
1576860812.515458,604146.000,39256,3,GY,1,100,-0.183
1576860812.556543,604180.667,39274,3,GY,1,100,1.099
1576860812.597628,604215.333,39274,3,GY,1,100,1.526
1576860812.638713,604250.000,39274,3,GY,1,100,0.488
1576860812.680193,604285.000,39292,3,GY,1,100,0.427
1576860812.721673,604320.000,39292,3,GY,1,100,0.275
1576860812.763154,604355.000,39292,3,GY,1,100,0.793
1576860812.804239,604389.667,39310,3,GY,1,100,2.106
1576860812.845324,604424.333,39310,3,GY,1,100,2.502
1576860812.886409,604459.000,39310,3,GY,1,100,0.244
1576860812.927889,604494.000,39328,2,GY,1,100,-2.319
1576860812.969369,604529.000,39328,2,GY,1,100,0.397
1576860813.009664,604563.000,39347,3,GY,1,100,1.434
1576860813.049959,604597.000,39347,3,GY,1,100,0.122
1576860813.090254,604631.000,39347,3,GY,1,100,0.549
1576860813.131339,604665.667,39364,3,GY,1,100,0.763
1576860813.172425,604700.333,39364,3,GY,1,100,-0.763
1576860813.213510,604735.000,39364,3,GY,1,100,-0.641
1576860813.252620,604768.000,39382,3,GY,1,100,-0.275
1576860813.291729,604801.000,39382,3,GY,1,100,0.275
1576860813.330839,604834.000,39382,3,GY,1,100,1.099
1576860813.371529,604868.333,39398,3,GY,1,100,1.068
1576860813.412219,604902.667,39398,3,GY,1,100,-0.397
1576860813.452909,604937.000,39398,3,GY,1,100,-0.092
1576860813.493994,604971.667,39416,3,GY,1,100,0.549
1576860813.535080,605006.333,39416,3,GY,1,100,0.275
1576860813.576165,605041.000,39416,3,GY,1,100,0.519
1576860813.615670,605074.333,39434,3,GY,1,100,0.000
1576860813.655174,605107.667,39434,3,GY,1,100,-0.488
1576860813.694679,605141.000,39434,3,GY,1,100,0.549
1576860813.735765,605175.667,39452,3,GY,1,100,0.519
1576860813.776850,605210.333,39452,3,GY,1,100,0.671
1576860813.817935,605245.000,39452,3,GY,1,100,0.427
1576860813.857045,605278.000,39470,3,GY,1,100,0.122
1576860813.896155,605311.000,39470,3,GY,1,100,0.427
1576860813.935265,605344.000,39470,3,GY,1,100,0.610
1576860813.976350,605378.667,39489,3,GY,1,100,0.519
1576860814.017435,605413.333,39489,3,GY,1,100,-0.336
1576860814.058520,605448.000,39489,3,GY,1,100,-0.427
1576860814.099605,605482.667,39507,3,GY,1,100,0.061
1576860814.140690,605517.333,39507,3,GY,1,100,-0.244
1576860814.181775,605552.000,39507,3,GY,1,100,0.061
1576860814.222465,605586.333,39525,3,GY,1,100,0.397
1576860814.263155,605620.667,39525,3,GY,1,100,0.275
1576860814.303845,605655.000,39525,3,GY,1,100,-0.488
1576860814.344930,605689.667,39542,3,GY,1,100,-0.153
1576860814.386016,605724.333,39542,3,GY,1,100,0.031
1576860814.427101,605759.000,39542,3,GY,1,100,-0.641
1576860814.465420,605791.333,39560,3,GY,1,100,0.488
1576860814.503740,605823.667,39560,3,GY,1,100,1.129
1576860814.542060,605856.000,39560,3,GY,1,100,0.671
1576860814.582750,605890.333,39578,3,GY,1,100,0.122
1576860814.623440,605924.667,39578,3,GY,1,100,0.732
1576860814.664130,605959.000,39578,3,GY,1,100,0.580
1576860814.704820,605993.333,39594,3,GY,1,100,0.458
1576860814.745510,606027.667,39594,3,GY,1,100,0.519
1576860814.786201,606062.000,39594,3,GY,1,100,0.275
1576860814.827286,606096.667,39612,3,GY,1,100,0.214
1576860814.868371,606131.333,39612,3,GY,1,100,0.031
1576860814.909456,606166.000,39612,3,GY,1,100,-0.580
1576860814.946590,606197.333,39630,3,GY,1,100,0.061
1576860814.983725,606228.667,39630,3,GY,1,100,-0.031
1576860815.020860,606260.000,39630,3,GY,1,100,0.153
1576860815.060364,606293.333,39649,3,GY,1,100,-0.031
1576860815.099869,606326.667,39649,3,GY,1,100,0.031
1576860815.139374,606360.000,39649,3,GY,1,100,-0.275
1576860815.181250,606395.333,39667,3,GY,1,100,0.122
1576860815.223125,606430.667,39667,3,GY,1,100,0.427
1576860815.265000,606466.000,39667,3,GY,1,100,0.305
1576860815.300555,606496.000,39685,3,GY,1,100,0.458
1576860815.336109,606526.000,39685,3,GY,1,100,0.610
1576860815.371663,606556.000,39685,3,GY,1,100,0.641
1576860815.411958,606590.000,39703,3,GY,1,100,0.458
1576860815.452253,606624.000,39703,3,GY,1,100,0.244
1576860815.492548,606658.000,39703,3,GY,1,100,0.031
1576860815.530177,606689.750,39721,4,GY,1,100,-0.183
1576860815.567805,606721.500,39721,4,GY,1,100,0.366
1576860815.605434,606753.250,39721,4,GY,1,100,0.519
1576860815.643062,606785.000,39721,4,GY,1,100,-0.214
1576860815.686320,606821.500,39739,2,GY,1,100,0.366
1576860815.729578,606858.000,39739,2,GY,1,100,0.122
1576860815.771058,606893.000,39756,3,GY,1,100,0.214
1576860815.812538,606928.000,39756,3,GY,1,100,-0.488
1576860815.854018,606963.000,39756,3,GY,1,100,0.061
1576860815.893918,606996.667,39774,3,GY,1,100,0.519
1576860815.933818,607030.333,39774,3,GY,1,100,0.061
1576860815.973718,607064.000,39774,3,GY,1,100,-0.183
1576860816.014803,607098.667,39791,3,GY,1,100,-0.214
1576860816.055889,607133.333,39791,3,GY,1,100,0.000
1576860816.096974,607168.000,39791,3,GY,1,100,-0.244
1576860816.136084,607201.000,39809,3,GY,1,100,0.031
1576860816.175193,607234.000,39809,3,GY,1,100,0.427
1576860816.214303,607267.000,39809,3,GY,1,100,0.122
1576860816.256178,607302.333,39827,3,GY,1,100,-0.061
1576860816.298054,607337.667,39827,3,GY,1,100,0.610
1576860816.339929,607373.000,39827,3,GY,1,100,-0.061
1576860816.381014,607407.667,39845,3,GY,1,100,0.000
1576860816.422099,607442.333,39845,3,GY,1,100,-0.092
1576860816.463184,607477.000,39845,3,GY,1,100,-1.251
1576860816.504664,607512.000,39866,5,GY,1,100,-1.007
1576860816.546144,607547.000,39866,5,GY,1,100,0.336
1576860816.587625,607582.000,39866,5,GY,1,100,1.190
1576860816.629105,607617.000,39866,5,GY,1,100,0.763
1576860816.670585,607652.000,39866,5,GY,1,100,-0.885
1576860816.712658,607687.500,39886,2,GY,1,100,-1.343
1576860816.754730,607723.000,39886,2,GY,1,100,-0.366
1576860816.792359,607754.750,39904,4,GY,1,100,0.488
1576860816.829988,607786.500,39904,4,GY,1,100,0.031
1576860816.867616,607818.250,39904,4,GY,1,100,-0.946
1576860816.905244,607850.000,39904,4,GY,1,100,-0.702
1576860816.949095,607887.000,39922,2,GY,1,100,-0.366
1576860816.992945,607924.000,39922,2,GY,1,100,0.061
1576860817.033240,607958.000,39941,3,GY,1,100,2.136
1576860817.073535,607992.000,39941,3,GY,1,100,2.258
1576860817.113830,608026.000,39941,3,GY,1,100,1.801
1576860817.154520,608060.333,39959,3,GY,1,100,0.732
1576860817.195210,608094.667,39959,3,GY,1,100,-1.221
1576860817.235900,608129.000,39959,3,GY,1,100,-1.099
1576860817.277776,608164.333,39977,3,GY,1,100,0.854
1576860817.319651,608199.667,39977,3,GY,1,100,0.458
1576860817.361526,608235.000,39977,3,GY,1,100,-0.763
1576860817.398661,608266.333,39995,3,GY,1,100,-0.671
1576860817.435795,608297.667,39995,3,GY,1,100,0.793
1576860817.472930,608329.000,39995,3,GY,1,100,1.434
1576860817.511250,608361.333,40012,3,GY,1,100,0.824
1576860817.549570,608393.667,40012,3,GY,1,100,-1.038
1576860817.587889,608426.000,40012,3,GY,1,100,0.244
1576860817.632135,608463.333,40030,3,GY,1,100,1.038
1576860817.676380,608500.667,40030,3,GY,1,100,0.153
1576860817.720626,608538.000,40030,3,GY,1,100,0.458
1576860817.762106,608573.000,40046,3,GY,1,100,0.305
1576860817.803586,608608.000,40046,3,GY,1,100,-0.061
1576860817.845066,608643.000,40046,3,GY,1,100,-0.275
1576860817.886547,608678.000,40064,3,GY,1,100,-0.397
1576860817.928027,608713.000,40064,3,GY,1,100,-0.122
1576860817.969507,608748.000,40064,3,GY,1,100,0.977
1576860818.007432,608780.000,40083,3,GY,1,100,0.763
1576860818.045356,608812.000,40083,3,GY,1,100,-0.305
1576860818.083281,608844.000,40083,3,GY,1,100,-0.214
1576860818.121206,608876.000,40101,3,GY,1,100,0.122
1576860818.159131,608908.000,40101,3,GY,1,100,0.641
1576860818.197055,608940.000,40101,3,GY,1,100,0.427
1576860818.241301,608977.333,40119,3,GY,1,100,0.061
1576860818.285546,609014.667,40119,3,GY,1,100,-0.366
1576860818.329792,609052.000,40119,3,GY,1,100,-0.671
1576860818.370877,609086.667,40137,3,GY,1,100,0.275
1576860818.411962,609121.333,40137,3,GY,1,100,0.641
1576860818.453047,609156.000,40137,3,GY,1,100,0.610
1576860818.493737,609190.333,40155,3,GY,1,100,1.068
1576860818.534427,609224.667,40155,3,GY,1,100,0.549
1576860818.575117,609259.000,40155,3,GY,1,100,-0.214
1576860818.614227,609292.000,40173,3,GY,1,100,-0.244
1576860818.653337,609325.000,40173,3,GY,1,100,-0.824
1576860818.692447,609358.000,40173,3,GY,1,100,-1.282
1576860818.729582,609389.333,40191,3,GY,1,100,-1.495
1576860818.766716,609420.667,40191,3,GY,1,100,-0.854
1576860818.803851,609452.000,40191,3,GY,1,100,-0.763
1576860818.847701,609489.000,40208,3,GY,1,100,-0.854
1576860818.891552,609526.000,40208,3,GY,1,100,0.977
1576860818.935402,609563.000,40208,3,GY,1,100,1.770
1576860818.976882,609598.000,40224,3,GY,1,100,0.336
1576860819.018363,609633.000,40224,3,GY,1,100,-0.305
1576860819.059843,609668.000,40224,3,GY,1,100,-1.068
1576860819.100928,609702.667,40243,3,GY,1,100,-1.190
1576860819.142013,609737.333,40243,3,GY,1,100,-0.183
1576860819.183098,609772.000,40243,3,GY,1,100,0.305
1576860819.221813,609804.667,40261,3,GY,1,100,-1.007
1576860819.260528,609837.333,40261,3,GY,1,100,-0.885
1576860819.299242,609870.000,40261,3,GY,1,100,-0.183
1576860819.344871,609908.500,40279,2,GY,1,100,0.061
1576860819.390499,609947.000,40279,2,GY,1,100,0.946
1576860819.429214,609979.667,40297,3,GY,1,100,0.366
1576860819.467928,610012.333,40297,3,GY,1,100,-1.038
1576860819.506643,610045.000,40297,3,GY,1,100,0.732
1576860819.550494,610082.000,40315,3,GY,1,100,1.709
1576860819.594344,610119.000,40315,3,GY,1,100,-0.153
1576860819.638195,610156.000,40315,3,GY,1,100,-0.061
1576860819.676119,610188.000,40332,3,GY,1,100,0.519
1576860819.714044,610220.000,40332,3,GY,1,100,2.472
1576860819.751969,610252.000,40332,3,GY,1,100,5.249
1576860819.797400,610290.333,40350,3,GY,1,100,3.021
1576860819.842830,610328.667,40350,3,GY,1,100,-0.275
1576860819.888261,610367.000,40350,3,GY,1,100,-1.160
1576860819.928951,610401.333,40366,3,GY,1,100,-1.129
1576860819.969641,610435.667,40366,3,GY,1,100,-1.892
1576860820.010331,610470.000,40366,3,GY,1,100,-1.404
1576860820.051416,610504.667,40385,3,GY,1,100,-1.984
1576860820.092501,610539.333,40385,3,GY,1,100,-4.364
1576860820.133586,610574.000,40385,3,GY,1,100,-2.594
1576860820.175462,610609.333,40403,3,GY,1,100,0.305
1576860820.217337,610644.667,40403,3,GY,1,100,0.366
1576860820.259212,610680.000,40403,3,GY,1,100,0.153
1576860820.301285,610715.500,40421,2,GY,1,100,0.183
1576860820.343357,610751.000,40421,2,GY,1,100,0.610
1576860820.384838,610786.000,40439,3,GY,1,100,0.275
1576860820.426318,610821.000,40439,3,GY,1,100,0.580
1576860820.467798,610856.000,40439,3,GY,1,100,1.251
1576860820.507303,610889.333,40457,3,GY,1,100,0.519
1576860820.546808,610922.667,40457,3,GY,1,100,-0.549
1576860820.586313,610956.000,40457,3,GY,1,100,-0.244
1576860820.623941,610987.750,40475,4,GY,1,100,0.214
1576860820.661570,611019.500,40475,4,GY,1,100,0.183
1576860820.699198,611051.250,40475,4,GY,1,100,0.427
1576860820.736826,611083.000,40475,4,GY,1,100,-0.488
1576860820.776529,611116.500,40492,2,GY,1,100,-0.824
1576860820.816231,611150.000,40492,2,GY,1,100,-0.641
1576860820.857119,611184.500,40510,4,GY,1,100,-5.341
1576860820.898006,611219.000,40510,4,GY,1,100,-2.197
1576860820.938894,611253.500,40510,4,GY,1,100,2.228
1576860820.979782,611288.000,40510,4,GY,1,100,0.244
1576860821.020077,611322.000,40526,2,GY,1,100,-0.885
1576860821.060372,611356.000,40526,2,GY,1,100,-0.854
1576860821.105407,611394.000,40545,3,GY,1,100,0.427
1576860821.150443,611432.000,40545,3,GY,1,100,2.258
1576860821.195478,611470.000,40545,3,GY,1,100,0.977
1576860821.236169,611504.333,40563,3,GY,1,100,-0.763
1576860821.276859,611538.667,40563,3,GY,1,100,0.732
1576860821.317549,611573.000,40563,3,GY,1,100,1.038
1576860821.357054,611606.333,40581,3,GY,1,100,-0.031
1576860821.396559,611639.667,40581,3,GY,1,100,-0.488
1576860821.436064,611673.000,40581,3,GY,1,100,0.244
1576860821.473593,611704.667,40599,3,GY,1,100,-0.427
1576860821.511123,611736.333,40599,3,GY,1,100,-0.031
1576860821.548653,611768.000,40599,3,GY,1,100,1.770
1576860821.587762,611801.000,40617,3,GY,1,100,0.793
1576860821.626872,611834.000,40617,3,GY,1,100,-0.854
1576860821.665982,611867.000,40617,3,GY,1,100,0.336
1576860821.711018,611905.000,40635,3,GY,1,100,1.984
1576860821.756053,611943.000,40635,3,GY,1,100,-0.153
1576860821.801089,611981.000,40635,3,GY,1,100,-1.160
1576860821.841779,612015.333,40652,3,GY,1,100,1.495
1576860821.882469,612049.667,40652,3,GY,1,100,0.763
1576860821.923159,612084.000,40652,3,GY,1,100,-1.068
1576860821.962269,612117.000,40670,3,GY,1,100,-0.214
1576860822.001379,612150.000,40670,3,GY,1,100,-0.305
1576860822.040489,612183.000,40670,3,GY,1,100,-0.610
1576860822.078809,612215.333,40689,3,GY,1,100,0.397
1576860822.117128,612247.667,40689,3,GY,1,100,0.275
1576860822.155448,612280.000,40689,3,GY,1,100,0.336
1576860822.195348,612313.667,40705,3,GY,1,100,0.702
1576860822.235248,612347.333,40705,3,GY,1,100,0.244
1576860822.275148,612381.000,40705,3,GY,1,100,0.092
1576860822.316628,612416.000,40723,3,GY,1,100,0.031
1576860822.358108,612451.000,40723,3,GY,1,100,0.061
1576860822.399589,612486.000,40723,3,GY,1,100,-0.427
1576860822.444229,612523.667,40741,3,GY,1,100,0.031
1576860822.488870,612561.333,40741,3,GY,1,100,-0.031
1576860822.533510,612599.000,40741,3,GY,1,100,-0.183
1576860822.572146,612631.600,40762,5,GY,1,100,0.610
1576860822.610782,612664.200,40762,5,GY,1,100,1.068
1576860822.649418,612696.800,40762,5,GY,1,100,0.153
1576860822.688053,612729.400,40762,5,GY,1,100,-0.214
1576860822.726689,612762.000,40762,5,GY,1,100,0.458
1576860822.764614,612794.000,40782,3,GY,1,100,0.000
1576860822.802539,612826.000,40782,3,GY,1,100,-0.488
1576860822.840463,612858.000,40782,3,GY,1,100,-0.122
1576860822.881548,612892.667,40798,3,GY,1,100,0.000
1576860822.922634,612927.333,40798,3,GY,1,100,-0.427
1576860822.963719,612962.000,40798,3,GY,1,100,-0.732
1576860823.010532,613001.500,40816,2,GY,1,100,-0.427
1576860823.057345,613041.000,40816,2,GY,1,100,0.549
1576860823.095270,613073.000,40835,3,GY,1,100,0.488
1576860823.133195,613105.000,40835,3,GY,1,100,-0.336
1576860823.171119,613137.000,40835,3,GY,1,100,0.610
1576860823.216155,613175.000,40853,3,GY,1,100,1.190
1576860823.261191,613213.000,40853,3,GY,1,100,-0.061
1576860823.306226,613251.000,40853,3,GY,1,100,-0.610
1576860823.344151,613283.000,40871,3,GY,1,100,0.305
1576860823.382076,613315.000,40871,3,GY,1,100,0.610
1576860823.420001,613347.000,40871,3,GY,1,100,0.458
1576860823.462271,613382.667,40889,3,GY,1,100,-0.305
1576860823.504541,613418.333,40889,3,GY,1,100,-0.610
1576860823.546811,613454.000,40889,3,GY,1,100,0.671
1576860823.587897,613488.667,40906,3,GY,1,100,1.099
1576860823.628982,613523.333,40906,3,GY,1,100,0.122
1576860823.670067,613558.000,40906,3,GY,1,100,-0.641
1576860823.711942,613593.333,40924,3,GY,1,100,-0.732
1576860823.753817,613628.667,40924,3,GY,1,100,-0.153
1576860823.795692,613664.000,40924,3,GY,1,100,1.068
1576860823.836580,613698.500,40940,2,GY,1,100,1.129
1576860823.877468,613733.000,40940,2,GY,1,100,0.153
1576860823.922503,613771.000,40958,3,GY,1,100,0.153
1576860823.967539,613809.000,40958,3,GY,1,100,-0.305
1576860824.012574,613847.000,40958,3,GY,1,100,-1.404
1576860824.052079,613880.333,40977,3,GY,1,100,-1.709
1576860824.091584,613913.667,40977,3,GY,1,100,0.092
1576860824.131089,613947.000,40977,3,GY,1,100,0.885
1576860824.173754,613983.000,40995,3,GY,1,100,2.350
1576860824.216420,614019.000,40995,3,GY,1,100,1.495
1576860824.259085,614055.000,40995,3,GY,1,100,-2.289
1576860824.297405,614087.333,41013,3,GY,1,100,-2.899
1576860824.335725,614119.667,41013,3,GY,1,100,-0.336
1576860824.374044,614152.000,41013,3,GY,1,100,1.617
1576860824.412364,614184.333,41031,3,GY,1,100,1.587
1576860824.450684,614216.667,41031,3,GY,1,100,0.275
1576860824.489004,614249.000,41031,3,GY,1,100,-1.099
1576860824.529299,614283.000,41049,3,GY,1,100,-0.092
1576860824.569594,614317.000,41049,3,GY,1,100,0.519
1576860824.609889,614351.000,41049,3,GY,1,100,-0.061
1576860824.651369,614386.000,41066,3,GY,1,100,0.458
1576860824.692849,614421.000,41066,3,GY,1,100,-0.061
1576860824.734329,614456.000,41066,3,GY,1,100,-0.488
1576860824.774624,614490.000,41084,3,GY,1,100,1.556
1576860824.814919,614524.000,41084,3,GY,1,100,1.740
1576860824.855214,614558.000,41084,3,GY,1,100,-3.235
1576860824.896299,614592.667,41100,3,GY,1,100,-5.432
1576860824.937385,614627.333,41100,3,GY,1,100,-1.312
1576860824.978470,614662.000,41100,3,GY,1,100,1.984
1576860825.023505,614700.000,41118,3,GY,1,100,3.296
1576860825.068541,614738.000,41118,3,GY,1,100,2.167
1576860825.113576,614776.000,41118,3,GY,1,100,-1.007
1576860825.151501,614808.000,41137,3,GY,1,100,-1.373
1576860825.189426,614840.000,41137,3,GY,1,100,-0.183
1576860825.227351,614872.000,41137,3,GY,1,100,0.977
1576860825.264485,614903.333,41155,3,GY,1,100,0.153
1576860825.301620,614934.667,41155,3,GY,1,100,-0.580
1576860825.338754,614966.000,41155,3,GY,1,100,-0.610
1576860825.379050,615000.000,41173,3,GY,1,100,0.061
1576860825.419344,615034.000,41173,3,GY,1,100,1.617
1576860825.459640,615068.000,41173,3,GY,1,100,1.251
1576860825.500329,615102.333,41191,3,GY,1,100,-1.587
1576860825.541020,615136.667,41191,3,GY,1,100,-2.106
1576860825.581710,615171.000,41191,3,GY,1,100,-0.885
1576860825.628523,615210.500,41209,2,GY,1,100,1.984
1576860825.675336,615250.000,41209,2,GY,1,100,3.174
1576860825.714743,615283.250,41226,4,GY,1,100,2.106
1576860825.754149,615316.500,41226,4,GY,1,100,-0.519
1576860825.793555,615349.750,41226,4,GY,1,100,-1.221
1576860825.832961,615383.000,41226,4,GY,1,100,-1.373
1576860825.870096,615414.333,41244,3,GY,1,100,2.594
1576860825.907230,615445.667,41244,3,GY,1,100,3.845
1576860825.944365,615477.000,41244,3,GY,1,100,-0.061
1576860825.984265,615510.667,41262,3,GY,1,100,-1.190
1576860826.024165,615544.333,41262,3,GY,1,100,0.183
1576860826.064065,615578.000,41262,3,GY,1,100,-0.793
1576860826.105545,615613.000,41279,3,GY,1,100,-0.061
1576860826.147025,615648.000,41279,3,GY,1,100,2.197
1576860826.188505,615683.000,41279,3,GY,1,100,0.000
1576860826.229393,615717.500,41297,2,GY,1,100,-1.740
1576860826.270281,615752.000,41297,2,GY,1,100,-4.120
1576860826.313341,615788.333,41315,3,GY,1,100,-2.319
1576860826.356401,615824.667,41315,3,GY,1,100,1.831
1576860826.399462,615861.000,41315,3,GY,1,100,0.549
1576860826.437386,615893.000,41333,4,GY,1,100,-1.221
1576860826.475311,615925.000,41333,4,GY,1,100,-1.312
1576860826.513236,615957.000,41333,4,GY,1,100,0.793
1576860826.551161,615989.000,41333,4,GY,1,100,2.319
1576860826.590665,616022.333,41351,3,GY,1,100,1.923
1576860826.630170,616055.667,41351,3,GY,1,100,1.068
1576860826.669675,616089.000,41351,3,GY,1,100,0.427
1576860826.710760,616123.667,41369,3,GY,1,100,0.763
1576860826.751845,616158.333,41369,3,GY,1,100,-0.183
1576860826.792931,616193.000,41369,3,GY,1,100,-0.061
1576860826.834411,616228.000,41387,2,GY,1,100,2.136
1576860826.875891,616263.000,41387,2,GY,1,100,0.580
1576860826.919741,616300.000,41405,3,GY,1,100,-1.160
1576860826.963592,616337.000,41405,3,GY,1,100,-1.160
1576860827.007442,616374.000,41405,3,GY,1,100,-0.732
1576860827.045367,616406.000,41423,3,GY,1,100,-1.251
1576860827.083292,616438.000,41423,3,GY,1,100,-1.923
1576860827.121217,616470.000,41423,3,GY,1,100,3.510
1576860827.161116,616503.667,41441,3,GY,1,100,5.432
1576860827.201016,616537.333,41441,3,GY,1,100,-2.106
1576860827.240916,616571.000,41441,3,GY,1,100,-4.333
1576860827.281606,616605.333,41457,3,GY,1,100,-0.671
1576860827.322296,616639.667,41457,3,GY,1,100,0.885
1576860827.362987,616674.000,41457,3,GY,1,100,2.075
1576860827.400516,616705.667,41475,3,GY,1,100,2.899
1576860827.438046,616737.333,41475,3,GY,1,100,0.366
1576860827.475576,616769.000,41475,3,GY,1,100,-0.305
1576860827.516266,616803.333,41493,3,GY,1,100,0.275
1576860827.556956,616837.667,41493,3,GY,1,100,1.068
1576860827.597646,616872.000,41493,3,GY,1,100,-0.488
1576860827.634089,616902.750,41511,4,GY,1,100,-0.336
1576860827.670532,616933.500,41511,4,GY,1,100,-1.099
1576860827.706976,616964.250,41511,4,GY,1,100,-0.549
1576860827.743419,616995.000,41511,4,GY,1,100,1.831
1576860827.784899,617030.000,41529,3,GY,1,100,0.977
1576860827.826379,617065.000,41529,3,GY,1,100,-0.824
1576860827.867859,617100.000,41529,3,GY,1,100,-0.732
1576860827.908550,617134.333,41547,3,GY,1,100,-0.488
1576860827.949239,617168.667,41547,3,GY,1,100,1.160
1576860827.989930,617203.000,41547,3,GY,1,100,1.434
1576860828.028250,617235.333,41565,3,GY,1,100,2.075
1576860828.066569,617267.667,41565,3,GY,1,100,0.580
1576860828.104889,617300.000,41565,3,GY,1,100,-0.305
1576860828.142419,617331.667,41584,3,GY,1,100,-1.343
1576860828.179948,617363.333,41584,3,GY,1,100,-1.495
1576860828.217478,617395.000,41584,3,GY,1,100,0.031
1576860828.257773,617429.000,41602,3,GY,1,100,1.678
1576860828.298068,617463.000,41602,3,GY,1,100,1.617
1576860828.338363,617497.000,41602,3,GY,1,100,0.153
1576860828.380238,617532.333,41619,3,GY,1,100,-1.190
1576860828.422113,617567.667,41619,3,GY,1,100,-0.916
1576860828.463989,617603.000,41619,3,GY,1,100,0.305
1576860828.505864,617638.333,41637,3,GY,1,100,1.831
1576860828.547739,617673.667,41637,3,GY,1,100,0.793
1576860828.589614,617709.000,41637,3,GY,1,100,-0.092
1576860828.630798,617743.750,41658,4,GY,1,100,-0.488
1576860828.671982,617778.500,41658,4,GY,1,100,-1.068
1576860828.713166,617813.250,41658,4,GY,1,100,-0.519
1576860828.754350,617848.000,41658,4,GY,1,100,0.458
1576860828.797805,617884.667,41678,3,GY,1,100,0.671
1576860828.841261,617921.333,41678,3,GY,1,100,0.488
1576860828.884716,617958.000,41678,3,GY,1,100,0.458
1576860828.922641,617990.000,41696,3,GY,1,100,-0.122
1576860828.960566,618022.000,41696,3,GY,1,100,-0.580
1576860828.998490,618054.000,41696,3,GY,1,100,0.061
1576860829.037600,618087.000,41714,3,GY,1,100,0.336
1576860829.076710,618120.000,41714,3,GY,1,100,0.549
1576860829.115820,618153.000,41714,3,GY,1,100,-0.122
1576860829.156905,618187.667,41732,3,GY,1,100,0.061
1576860829.197990,618222.333,41732,3,GY,1,100,0.702
1576860829.239075,618257.000,41732,3,GY,1,100,1.007
1576860829.279370,618291.000,41748,3,GY,1,100,2.441
1576860829.319665,618325.000,41748,3,GY,1,100,3.235
1576860829.359960,618359.000,41748,3,GY,1,100,3.082
1576860829.399465,618392.333,41766,3,GY,1,100,2.472
1576860829.438970,618425.667,41766,3,GY,1,100,0.549
1576860829.478475,618459.000,41766,3,GY,1,100,-0.275
1576860829.519955,618494.000,41784,3,GY,1,100,-0.458
1576860829.561435,618529.000,41784,3,GY,1,100,-0.641
1576860829.602916,618564.000,41784,3,GY,1,100,0.153
1576860829.642420,618597.333,41802,3,GY,1,100,1.190
1576860829.681925,618630.667,41802,3,GY,1,100,0.488
1576860829.721430,618664.000,41802,3,GY,1,100,1.495
1576860829.762120,618698.333,41820,3,GY,1,100,1.068
1576860829.802810,618732.667,41820,3,GY,1,100,-2.167
1576860829.843500,618767.000,41820,3,GY,1,100,-0.763
1576860829.884981,618802.000,41838,3,GY,1,100,0.305
1576860829.926461,618837.000,41838,3,GY,1,100,0.336
1576860829.967941,618872.000,41838,3,GY,1,100,0.580
1576860830.008236,618906.000,41856,3,GY,1,100,0.641
1576860830.048531,618940.000,41856,3,GY,1,100,1.465
1576860830.088826,618974.000,41856,3,GY,1,100,0.671
1576860830.126751,619006.000,41875,3,GY,1,100,1.465
1576860830.164675,619038.000,41875,3,GY,1,100,1.587
1576860830.202600,619070.000,41875,3,GY,1,100,-0.793
1576860830.244870,619105.667,41892,3,GY,1,100,-0.916
1576860830.287141,619141.333,41892,3,GY,1,100,-0.610
1576860830.329411,619177.000,41892,3,GY,1,100,0.610
1576860830.369706,619211.000,41910,3,GY,1,100,1.648
1576860830.410001,619245.000,41910,3,GY,1,100,0.275
1576860830.450296,619279.000,41910,3,GY,1,100,-0.458
1576860830.491381,619313.667,41926,3,GY,1,100,0.244
1576860830.532466,619348.333,41926,3,GY,1,100,0.244
1576860830.573551,619383.000,41926,3,GY,1,100,0.488
1576860830.615624,619418.500,41944,2,GY,1,100,0.031
1576860830.657697,619454.000,41944,2,GY,1,100,-0.092
1576860830.695226,619485.667,41962,3,GY,1,100,0.153
1576860830.732756,619517.333,41962,3,GY,1,100,-0.153
1576860830.770286,619549.000,41962,3,GY,1,100,0.153
1576860830.809099,619581.750,41980,4,GY,1,100,0.092
1576860830.847913,619614.500,41980,4,GY,1,100,-0.458
1576860830.886727,619647.250,41980,4,GY,1,100,-0.519
1576860830.925540,619680.000,41980,4,GY,1,100,-0.671
1576860830.966625,619714.667,41998,3,GY,1,100,-0.702
1576860831.007710,619749.333,41998,3,GY,1,100,-0.122
1576860831.048795,619784.000,41998,3,GY,1,100,0.366
1576860831.083560,619813.333,42017,3,GY,1,100,0.153
1576860831.118324,619842.667,42017,3,GY,1,100,-0.275
1576860831.153089,619872.000,42017,3,GY,1,100,-0.641
1576860831.194964,619907.333,42035,3,GY,1,100,-0.641
1576860831.236839,619942.667,42035,3,GY,1,100,0.214
1576860831.278714,619978.000,42035,3,GY,1,100,-0.244
1576860831.313083,620007.000,42053,3,GY,1,100,-1.343
1576860831.347453,620036.000,42053,3,GY,1,100,-0.336
1576860831.381822,620065.000,42053,3,GY,1,100,0.061
1576860831.421327,620098.333,42071,3,GY,1,100,-0.916
1576860831.460832,620131.667,42071,3,GY,1,100,-1.587
1576860831.500337,620165.000,42071,3,GY,1,100,-0.427
1576860831.541027,620199.333,42089,3,GY,1,100,1.740
1576860831.581717,620233.667,42089,3,GY,1,100,-0.458
1576860831.622407,620268.000,42089,3,GY,1,100,-0.641
1576860831.657961,620298.000,42107,4,GY,1,100,0.244
1576860831.693516,620328.000,42107,4,GY,1,100,1.129
1576860831.729070,620358.000,42107,4,GY,1,100,0.763
1576860831.764625,620388.000,42107,4,GY,1,100,0.122
1576860831.805315,620422.333,42125,3,GY,1,100,0.000
1576860831.846005,620456.667,42125,3,GY,1,100,0.122
1576860831.886695,620491.000,42125,3,GY,1,100,-0.458
1576860831.926990,620525.000,42142,3,GY,1,100,0.275
1576860831.967285,620559.000,42142,3,GY,1,100,0.122
1576860832.007580,620593.000,42142,3,GY,1,100,-0.336
1576860832.048467,620627.500,42161,2,GY,1,100,-0.183
1576860832.089355,620662.000,42161,2,GY,1,100,-0.214
1576860832.131230,620697.333,42177,3,GY,1,100,-0.885
1576860832.173105,620732.667,42177,3,GY,1,100,-1.007
1576860832.214981,620768.000,42177,3,GY,1,100,0.122
1576860832.256856,620803.333,42195,3,GY,1,100,0.427
1576860832.298731,620838.667,42195,3,GY,1,100,0.549
1576860832.340606,620874.000,42195,3,GY,1,100,0.732
1576860832.382087,620909.000,42213,3,GY,1,100,0.031
1576860832.423567,620944.000,42213,3,GY,1,100,-0.122
1576860832.465047,620979.000,42213,3,GY,1,100,0.275
1576860832.503762,621011.667,42231,3,GY,1,100,-0.366
1576860832.542476,621044.333,42231,3,GY,1,100,-0.519
1576860832.581191,621077.000,42231,3,GY,1,100,0.183
1576860832.622672,621112.000,42249,3,GY,1,100,-0.153
1576860832.664152,621147.000,42249,3,GY,1,100,-0.244
1576860832.705632,621182.000,42249,3,GY,1,100,0.061
1576860832.745532,621215.667,42267,3,GY,1,100,-0.336
1576860832.785432,621249.333,42267,3,GY,1,100,-0.580
1576860832.825332,621283.000,42267,3,GY,1,100,-1.740
1576860832.866417,621317.667,42285,3,GY,1,100,-1.526
1576860832.907502,621352.333,42285,3,GY,1,100,-1.495
1576860832.948587,621387.000,42285,3,GY,1,100,-2.136
1576860832.988882,621421.000,42303,3,GY,1,100,-2.289
1576860833.029177,621455.000,42303,3,GY,1,100,-0.549
1576860833.069472,621489.000,42303,3,GY,1,100,1.221
1576860833.109372,621522.667,42321,3,GY,1,100,0.946
1576860833.149272,621556.333,42321,3,GY,1,100,0.305
1576860833.189172,621590.000,42321,3,GY,1,100,-0.336
1576860833.226702,621621.667,42339,3,GY,1,100,-0.397
1576860833.264231,621653.333,42339,3,GY,1,100,1.190
1576860833.301761,621685.000,42339,3,GY,1,100,0.671
1576860833.345217,621721.667,42355,3,GY,1,100,0.488
1576860833.388672,621758.333,42355,3,GY,1,100,1.251
1576860833.432127,621795.000,42355,3,GY,1,100,0.397
1576860833.473608,621830.000,42373,3,GY,1,100,-1.129
1576860833.515088,621865.000,42373,3,GY,1,100,-3.540
1576860833.556568,621900.000,42373,3,GY,1,100,-4.913
1576860833.597258,621934.333,42391,3,GY,1,100,-0.732
1576860833.637948,621968.667,42391,3,GY,1,100,-0.763
1576860833.678638,622003.000,42391,3,GY,1,100,-1.770
1576860833.718538,622036.667,42409,3,GY,1,100,2.533
1576860833.758438,622070.333,42409,3,GY,1,100,3.815
1576860833.798338,622104.000,42409,3,GY,1,100,1.587
1576860833.836658,622136.333,42427,3,GY,1,100,0.854
1576860833.874977,622168.667,42427,3,GY,1,100,1.526
1576860833.913297,622201.000,42427,3,GY,1,100,-2.319
1576860833.956357,622237.333,42445,3,GY,1,100,-1.801
1576860833.999418,622273.667,42445,3,GY,1,100,2.136
1576860834.042478,622310.000,42445,3,GY,1,100,2.563
1576860834.082773,622344.000,42464,3,GY,1,100,-1.587
1576860834.123068,622378.000,42464,3,GY,1,100,-1.282
1576860834.163363,622412.000,42464,3,GY,1,100,-0.183
1576860834.204844,622447.000,42481,2,GY,1,100,-0.793
1576860834.246324,622482.000,42481,2,GY,1,100,0.854
1576860834.287014,622516.333,42499,3,GY,1,100,1.587
1576860834.327704,622550.667,42499,3,GY,1,100,0.580
1576860834.368394,622585.000,42499,3,GY,1,100,1.648
1576860834.405430,622616.250,42517,4,GY,1,100,1.862
1576860834.442466,622647.500,42517,4,GY,1,100,1.038
1576860834.479501,622678.750,42517,4,GY,1,100,0.458
1576860834.516537,622710.000,42517,4,GY,1,100,0.000
1576860834.555647,622743.000,42533,2,GY,1,100,0.153
1576860834.594757,622776.000,42533,2,GY,1,100,0.397
1576860834.633867,622809.000,42554,5,GY,1,100,0.610
1576860834.672977,622842.000,42554,5,GY,1,100,0.763
1576860834.712087,622875.000,42554,5,GY,1,100,2.380
1576860834.751197,622908.000,42554,5,GY,1,100,0.427
1576860834.790306,622941.000,42554,5,GY,1,100,-2.197
1576860834.829416,622974.000,42574,4,GY,1,100,-0.763
1576860834.868526,623007.000,42574,4,GY,1,100,1.465
1576860834.907636,623040.000,42574,4,GY,1,100,1.312
1576860834.946746,623073.000,42574,4,GY,1,100,0.488
1576860834.987041,623107.000,42592,2,GY,1,100,0.122
1576860835.027336,623141.000,42592,2,GY,1,100,-0.916
1576860835.071581,623178.333,42610,3,GY,1,100,0.366
1576860835.115827,623215.667,42610,3,GY,1,100,1.038
1576860835.160073,623253.000,42610,3,GY,1,100,0.000
1576860835.201948,623288.333,42626,3,GY,1,100,0.122
1576860835.243823,623323.667,42626,3,GY,1,100,-0.336
1576860835.285698,623359.000,42626,3,GY,1,100,-1.038
1576860835.326783,623393.667,42644,3,GY,1,100,-1.404
1576860835.367868,623428.333,42644,3,GY,1,100,-1.404
1576860835.408953,623463.000,42644,3,GY,1,100,1.770
1576860835.451224,623498.667,42662,3,GY,1,100,2.777
1576860835.493494,623534.333,42662,3,GY,1,100,0.092
1576860835.535764,623570.000,42662,3,GY,1,100,-3.143
1576860835.576849,623604.667,42680,3,GY,1,100,-3.235
1576860835.617934,623639.333,42680,3,GY,1,100,-2.258
1576860835.659020,623674.000,42680,3,GY,1,100,-0.671
1576860835.700105,623708.667,42698,3,GY,1,100,3.510
1576860835.741190,623743.333,42698,3,GY,1,100,1.740
1576860835.782275,623778.000,42698,3,GY,1,100,-0.031
1576860835.823360,623812.667,42716,3,GY,1,100,-0.671
1576860835.864445,623847.333,42716,3,GY,1,100,-0.275
1576860835.905530,623882.000,42716,3,GY,1,100,-0.031
1576860835.947603,623917.500,42733,2,GY,1,100,-0.885
1576860835.989676,623953.000,42733,2,GY,1,100,0.519
1576860836.029971,623987.000,42752,3,GY,1,100,1.282
1576860836.070266,624021.000,42752,3,GY,1,100,1.801
1576860836.110561,624055.000,42752,3,GY,1,100,0.275
1576860836.152436,624090.333,42768,3,GY,1,100,-1.678
1576860836.194311,624125.667,42768,3,GY,1,100,-1.343
1576860836.236187,624161.000,42768,3,GY,1,100,0.183
1576860836.273815,624192.750,42786,4,GY,1,100,0.275
1576860836.311443,624224.500,42786,4,GY,1,100,1.312
1576860836.349072,624256.250,42786,4,GY,1,100,0.916
1576860836.386700,624288.000,42786,4,GY,1,100,-0.305
1576860836.425415,624320.667,42804,3,GY,1,100,-0.732
1576860836.464130,624353.333,42804,3,GY,1,100,-0.214
1576860836.502845,624386.000,42804,3,GY,1,100,1.312
1576860836.549065,624425.000,42822,2,GY,1,100,1.556
1576860836.595286,624464.000,42822,2,GY,1,100,0.549
1576860836.633507,624496.250,42840,4,GY,1,100,0.000
1576860836.671728,624528.500,42840,4,GY,1,100,0.397
1576860836.709949,624560.750,42840,4,GY,1,100,-0.427
1576860836.748170,624593.000,42840,4,GY,1,100,-1.190
1576860836.794391,624632.000,42858,2,GY,1,100,-0.061
1576860836.840612,624671.000,42858,2,GY,1,100,1.373
1576860836.881697,624705.667,42876,3,GY,1,100,0.641
1576860836.922782,624740.333,42876,3,GY,1,100,0.824
1576860836.963867,624775.000,42876,3,GY,1,100,-0.488
1576860837.003767,624808.667,42894,3,GY,1,100,-0.214
1576860837.043667,624842.333,42894,3,GY,1,100,0.092
1576860837.083567,624876.000,42894,3,GY,1,100,-0.153
1576860837.121887,624908.333,42912,3,GY,1,100,0.336
1576860837.160207,624940.667,42912,3,GY,1,100,0.641
1576860837.198526,624973.000,42912,3,GY,1,100,-0.031
1576860837.236451,625005.000,42930,3,GY,1,100,0.153
1576860837.274376,625037.000,42930,3,GY,1,100,0.793
1576860837.312300,625069.000,42930,3,GY,1,100,0.244
1576860837.356546,625106.333,42946,3,GY,1,100,-0.366
1576860837.400791,625143.667,42946,3,GY,1,100,0.366
1576860837.445037,625181.000,42946,3,GY,1,100,0.763
1576860837.486122,625215.667,42964,3,GY,1,100,0.580
1576860837.527207,625250.333,42964,3,GY,1,100,0.244
1576860837.568292,625285.000,42964,3,GY,1,100,0.275
1576860837.608982,625319.333,42982,3,GY,1,100,0.885
1576860837.649673,625353.667,42982,3,GY,1,100,0.916
1576860837.690362,625388.000,42982,3,GY,1,100,0.244
1576860837.727892,625419.667,43000,3,GY,1,100,-0.336
1576860837.765422,625451.333,43000,3,GY,1,100,-0.336
1576860837.802952,625483.000,43000,3,GY,1,100,-0.519
1576860837.841271,625515.333,43018,3,GY,1,100,0.000
1576860837.879591,625547.667,43018,3,GY,1,100,0.397
1576860837.917911,625580.000,43018,3,GY,1,100,-0.031
1576860837.958601,625614.333,43036,3,GY,1,100,0.336
1576860837.999291,625648.667,43036,3,GY,1,100,0.702
1576860838.039981,625683.000,43036,3,GY,1,100,0.275
1576860838.081066,625717.667,43055,3,GY,1,100,-0.519
1576860838.122151,625752.333,43055,3,GY,1,100,-0.214
1576860838.163236,625787.000,43055,3,GY,1,100,-0.092
1576860838.208272,625825.000,43072,3,GY,1,100,0.183
1576860838.253308,625863.000,43072,3,GY,1,100,0.610
1576860838.298343,625901.000,43072,3,GY,1,100,1.038
1576860838.335873,625932.667,43090,3,GY,1,100,1.160
1576860838.373403,625964.333,43090,3,GY,1,100,0.244
1576860838.410932,625996.000,43090,3,GY,1,100,-0.153
1576860838.448462,626027.667,43108,3,GY,1,100,-0.275
1576860838.485992,626059.333,43108,3,GY,1,100,-0.397
1576860838.523521,626091.000,43108,3,GY,1,100,-0.946
1576860838.563816,626125.000,43126,3,GY,1,100,0.061
1576860838.604111,626159.000,43126,3,GY,1,100,0.641
1576860838.644406,626193.000,43126,3,GY,1,100,-0.183
1576860838.688652,626230.333,43142,3,GY,1,100,0.397
1576860838.732897,626267.667,43142,3,GY,1,100,0.336
1576860838.777143,626305.000,43142,3,GY,1,100,-0.397
1576860838.815858,626337.667,43160,3,GY,1,100,-0.336
1576860838.854573,626370.333,43160,3,GY,1,100,-0.397
1576860838.893287,626403.000,43160,3,GY,1,100,-0.427
1576860838.939508,626442.000,43178,2,GY,1,100,0.214
1576860838.985729,626481.000,43178,2,GY,1,100,-0.244
1576860839.024839,626514.000,43197,4,GY,1,100,0.061
1576860839.063949,626547.000,43197,4,GY,1,100,0.671
1576860839.103059,626580.000,43197,4,GY,1,100,0.122
1576860839.142168,626613.000,43197,4,GY,1,100,-0.275
1576860839.188982,626652.500,43215,2,GY,1,100,0.366
1576860839.235795,626692.000,43215,2,GY,1,100,0.153
1576860839.274510,626724.667,43232,3,GY,1,100,-0.854
1576860839.313225,626757.333,43232,3,GY,1,100,0.061
1576860839.351939,626790.000,43232,3,GY,1,100,0.092
1576860839.396975,626828.000,43250,3,GY,1,100,-0.336
1576860839.442011,626866.000,43250,3,GY,1,100,0.671
1576860839.487046,626904.000,43250,3,GY,1,100,0.732
1576860839.524971,626936.000,43266,3,GY,1,100,-0.153
1576860839.562896,626968.000,43266,3,GY,1,100,-0.214
1576860839.600821,627000.000,43266,3,GY,1,100,0.031
1576860839.645856,627038.000,43284,3,GY,1,100,-0.122
1576860839.690892,627076.000,43284,3,GY,1,100,0.366
1576860839.735927,627114.000,43284,3,GY,1,100,0.580
1576860839.775432,627147.333,43302,3,GY,1,100,0.366
1576860839.814937,627180.667,43302,3,GY,1,100,0.488
1576860839.854442,627214.000,43302,3,GY,1,100,0.153
1576860839.896317,627249.333,43320,3,GY,1,100,-0.519
1576860839.938192,627284.667,43320,3,GY,1,100,0.153
1576860839.980068,627320.000,43320,3,GY,1,100,0.366
1576860840.018388,627352.333,43338,3,GY,1,100,-0.549
1576860840.056707,627384.667,43338,3,GY,1,100,0.214
1576860840.095027,627417.000,43338,3,GY,1,100,1.007
1576860840.132557,627448.667,43357,3,GY,1,100,1.038
1576860840.170086,627480.333,43357,3,GY,1,100,0.610
1576860840.207616,627512.000,43357,3,GY,1,100,0.122
1576860840.247911,627546.000,43375,3,GY,1,100,-0.458
1576860840.288206,627580.000,43375,3,GY,1,100,0.031
1576860840.328501,627614.000,43375,3,GY,1,100,-0.458
1576860840.369981,627649.000,43392,2,GY,1,100,0.092
1576860840.411461,627684.000,43392,2,GY,1,100,0.732
1576860840.453534,627719.500,43410,4,GY,1,100,-0.336
1576860840.495607,627755.000,43410,4,GY,1,100,0.031
1576860840.537680,627790.500,43410,4,GY,1,100,0.519
1576860840.579752,627826.000,43410,4,GY,1,100,-0.031
1576860840.620640,627860.500,43426,2,GY,1,100,0.000
1576860840.661528,627895.000,43426,2,GY,1,100,-0.122
1576860840.704193,627931.000,43447,5,GY,1,100,-0.214
1576860840.746858,627967.000,43447,5,GY,1,100,-0.122
1576860840.789524,628003.000,43447,5,GY,1,100,-0.488
1576860840.832189,628039.000,43447,5,GY,1,100,-0.580
1576860840.874854,628075.000,43447,5,GY,1,100,0.366
1576860840.912779,628107.000,43467,3,GY,1,100,0.092
1576860840.950704,628139.000,43467,3,GY,1,100,-0.092
1576860840.988628,628171.000,43467,3,GY,1,100,0.305
1576860841.027343,628203.667,43485,3,GY,1,100,0.427
1576860841.066058,628236.333,43485,3,GY,1,100,-0.336
1576860841.104773,628269.000,43485,3,GY,1,100,0.519
1576860841.145463,628303.333,43503,3,GY,1,100,0.183
1576860841.186153,628337.667,43503,3,GY,1,100,-0.275
1576860841.226843,628372.000,43503,3,GY,1,100,-0.854
1576860841.267138,628406.000,43519,3,GY,1,100,-1.038
1576860841.307433,628440.000,43519,3,GY,1,100,-0.610
1576860841.347728,628474.000,43519,3,GY,1,100,-0.458
1576860841.391578,628511.000,43537,3,GY,1,100,-0.671
1576860841.435429,628548.000,43537,3,GY,1,100,-0.244
1576860841.479279,628585.000,43537,3,GY,1,100,-0.519
1576860841.517204,628617.000,43555,3,GY,1,100,-0.610
1576860841.555129,628649.000,43555,3,GY,1,100,0.671
1576860841.593054,628681.000,43555,3,GY,1,100,0.366
1576860841.632164,628714.000,43573,3,GY,1,100,-1.038
1576860841.671273,628747.000,43573,3,GY,1,100,-0.397
1576860841.710383,628780.000,43573,3,GY,1,100,0.031
1576860841.751073,628814.333,43591,3,GY,1,100,0.427
1576860841.791763,628848.667,43591,3,GY,1,100,-0.183
1576860841.832453,628883.000,43591,3,GY,1,100,-0.854
1576860841.873538,628917.667,43609,3,GY,1,100,-0.763
1576860841.914623,628952.333,43609,3,GY,1,100,-2.075
1576860841.955709,628987.000,43609,3,GY,1,100,-0.824
1576860842.002522,629026.500,43627,2,GY,1,100,2.625
1576860842.049335,629066.000,43627,2,GY,1,100,2.533
1576860842.086964,629097.750,43646,4,GY,1,100,0.641
1576860842.124592,629129.500,43646,4,GY,1,100,-1.038
1576860842.162221,629161.250,43646,4,GY,1,100,-0.519
1576860842.199849,629193.000,43646,4,GY,1,100,-0.122
1576860842.238959,629226.000,43663,3,GY,1,100,-0.610
1576860842.278069,629259.000,43663,3,GY,1,100,0.458
1576860842.317179,629292.000,43663,3,GY,1,100,0.763
1576860842.357079,629325.667,43681,3,GY,1,100,0.122
1576860842.396979,629359.333,43681,3,GY,1,100,0.641
1576860842.436879,629393.000,43681,3,GY,1,100,-0.458
1576860842.477964,629427.667,43697,3,GY,1,100,-0.214
1576860842.519049,629462.333,43697,3,GY,1,100,1.740
1576860842.560134,629497.000,43697,3,GY,1,100,1.434
1576860842.601614,629532.000,43715,2,GY,1,100,-0.946
1576860842.643094,629567.000,43715,2,GY,1,100,-1.404
1576860842.685364,629602.667,43733,3,GY,1,100,-1.251
1576860842.727635,629638.333,43733,3,GY,1,100,-0.610
1576860842.769905,629674.000,43733,3,GY,1,100,1.099
1576860842.815731,629712.667,43751,3,GY,1,100,2.014
1576860842.861557,629751.333,43751,3,GY,1,100,-0.336
1576860842.907382,629790.000,43751,3,GY,1,100,-0.244
1576860842.945307,629822.000,43769,3,GY,1,100,-0.885
1576860842.983232,629854.000,43769,3,GY,1,100,-1.465
1576860843.021156,629886.000,43769,3,GY,1,100,0.397
1576860843.064217,629922.333,43788,3,GY,1,100,1.678
1576860843.107277,629958.667,43788,3,GY,1,100,0.977
1576860843.150337,629995.000,43788,3,GY,1,100,-0.488
1576860843.191422,630029.667,43805,3,GY,1,100,-0.793
1576860843.232508,630064.333,43805,3,GY,1,100,0.275
1576860843.273593,630099.000,43805,3,GY,1,100,-0.641
1576860843.318628,630137.000,43823,2,GY,1,100,0.702
1576860843.363664,630175.000,43823,2,GY,1,100,1.617
1576860843.401589,630207.000,43839,4,GY,1,100,-0.092
1576860843.439513,630239.000,43839,4,GY,1,100,-0.580
1576860843.477438,630271.000,43839,4,GY,1,100,0.214
1576860843.515363,630303.000,43839,4,GY,1,100,0.397
1576860843.554473,630336.000,43857,3,GY,1,100,-0.702
1576860843.593583,630369.000,43857,3,GY,1,100,-0.031
1576860843.632693,630402.000,43857,3,GY,1,100,0.854
1576860843.672197,630435.333,43875,3,GY,1,100,-0.122
1576860843.711702,630468.667,43875,3,GY,1,100,-0.183
1576860843.751207,630502.000,43875,3,GY,1,100,-0.702
1576860843.789132,630534.000,43893,3,GY,1,100,-1.099
1576860843.827057,630566.000,43893,3,GY,1,100,0.122
1576860843.864981,630598.000,43893,3,GY,1,100,1.282
1576860843.903301,630630.333,43911,3,GY,1,100,1.038
1576860843.941621,630662.667,43911,3,GY,1,100,0.183
1576860843.979941,630695.000,43911,3,GY,1,100,-0.366
1576860844.021026,630729.667,43930,3,GY,1,100,-0.916
1576860844.062111,630764.333,43930,3,GY,1,100,-0.824
1576860844.103196,630799.000,43930,3,GY,1,100,-0.732
1576860844.143886,630833.333,43948,3,GY,1,100,0.244
1576860844.184576,630867.667,43948,3,GY,1,100,0.488
1576860844.225266,630902.000,43948,3,GY,1,100,0.610
1576860844.267142,630937.333,43966,3,GY,1,100,-0.031
1576860844.309017,630972.667,43966,3,GY,1,100,-1.221
1576860844.350892,631008.000,43966,3,GY,1,100,-1.251
1576860844.391977,631042.667,43983,3,GY,1,100,-1.495
1576860844.433062,631077.333,43983,3,GY,1,100,-1.251
1576860844.474147,631112.000,43983,3,GY,1,100,1.495
1576860844.515627,631147.000,44001,2,GY,1,100,2.045
1576860844.557108,631182.000,44001,2,GY,1,100,0.702
1576860844.598193,631216.667,44019,3,GY,1,100,-0.824
1576860844.639278,631251.333,44019,3,GY,1,100,-2.106
1576860844.680363,631286.000,44019,3,GY,1,100,-2.747
1576860844.719078,631318.667,44035,3,GY,1,100,0.214
1576860844.757793,631351.333,44035,3,GY,1,100,1.740
1576860844.796507,631384.000,44035,3,GY,1,100,2.045
1576860844.836506,631417.750,44053,4,GY,1,100,1.617
1576860844.876505,631451.500,44053,4,GY,1,100,0.397
1576860844.916504,631485.250,44053,4,GY,1,100,-0.946
1576860844.956502,631519.000,44053,4,GY,1,100,-1.648
1576860844.997983,631554.000,44071,2,GY,1,100,-2.411
1576860845.039463,631589.000,44071,2,GY,1,100,0.275
1576860845.080943,631624.000,44090,3,GY,1,100,2.075
1576860845.122423,631659.000,44090,3,GY,1,100,0.732
1576860845.163903,631694.000,44090,3,GY,1,100,0.610
1576860845.206173,631729.667,44108,3,GY,1,100,-0.824
1576860845.248444,631765.333,44108,3,GY,1,100,-1.373
1576860845.290714,631801.000,44108,3,GY,1,100,-0.122
1576860845.328639,631833.000,44126,3,GY,1,100,-0.122
1576860845.366563,631865.000,44126,3,GY,1,100,0.549
1576860845.404488,631897.000,44126,3,GY,1,100,1.862
1576860845.444783,631931.000,44144,3,GY,1,100,0.610
1576860845.485078,631965.000,44144,3,GY,1,100,0.702
1576860845.525373,631999.000,44144,3,GY,1,100,-0.458
1576860845.566853,632034.000,44161,3,GY,1,100,-1.404
1576860845.608334,632069.000,44161,3,GY,1,100,-1.892
1576860845.649814,632104.000,44161,3,GY,1,100,-0.580
1576860845.691294,632139.000,44179,3,GY,1,100,2.014
1576860845.732774,632174.000,44179,3,GY,1,100,2.502
1576860845.774254,632209.000,44179,3,GY,1,100,0.641
1576860845.816525,632244.667,44195,3,GY,1,100,-1.160
1576860845.858795,632280.333,44195,3,GY,1,100,-1.648
1576860845.901065,632316.000,44195,3,GY,1,100,-1.221
1576860845.937804,632347.000,44213,3,GY,1,100,0.214
1576860845.974544,632378.000,44213,3,GY,1,100,1.007
1576860846.011284,632409.000,44213,3,GY,1,100,1.038
1576860846.051974,632443.333,44232,3,GY,1,100,0.397
1576860846.092664,632477.667,44232,3,GY,1,100,-0.122
1576860846.133354,632512.000,44232,3,GY,1,100,-0.244
1576860846.174044,632546.333,44250,3,GY,1,100,-1.190
1576860846.214734,632580.667,44250,3,GY,1,100,-2.502
1576860846.255424,632615.000,44250,3,GY,1,100,-0.977
1576860846.296114,632649.333,44268,3,GY,1,100,-0.427
1576860846.336804,632683.667,44268,3,GY,1,100,-0.488
1576860846.377494,632718.000,44268,3,GY,1,100,-0.977
1576860846.417394,632751.667,44286,3,GY,1,100,-1.678
1576860846.457294,632785.333,44286,3,GY,1,100,0.183
1576860846.497194,632819.000,44286,3,GY,1,100,0.397
1576860846.538279,632853.667,44304,3,GY,1,100,-0.519
1576860846.579365,632888.333,44304,3,GY,1,100,-0.641
1576860846.620450,632923.000,44304,3,GY,1,100,-0.702
1576860846.661535,632957.667,44322,3,GY,1,100,-0.824
1576860846.702620,632992.333,44322,3,GY,1,100,-0.427
1576860846.743705,633027.000,44322,3,GY,1,100,1.923
1576860846.783289,633060.400,44343,5,GY,1,100,0.214
1576860846.822873,633093.800,44343,5,GY,1,100,-2.899
1576860846.862457,633127.200,44343,5,GY,1,100,-2.808
1576860846.902041,633160.600,44343,5,GY,1,100,-1.434
1576860846.941625,633194.000,44343,5,GY,1,100,1.617
1576860846.979944,633226.333,44363,3,GY,1,100,3.204
1576860847.018264,633258.667,44363,3,GY,1,100,0.610
1576860847.056584,633291.000,44363,3,GY,1,100,-3.143
1576860847.096089,633324.333,44382,3,GY,1,100,-0.854
1576860847.135594,633357.667,44382,3,GY,1,100,1.465
1576860847.175099,633391.000,44382,3,GY,1,100,0.092
1576860847.214999,633424.667,44400,3,GY,1,100,-1.129
1576860847.254899,633458.333,44400,3,GY,1,100,0.580
1576860847.294799,633492.000,44400,3,GY,1,100,-1.282
1576860847.332723,633524.000,44418,3,GY,1,100,-0.061
1576860847.370648,633556.000,44418,3,GY,1,100,0.000
1576860847.408573,633588.000,44418,3,GY,1,100,0.916
1576860847.445707,633619.333,44436,3,GY,1,100,1.434
1576860847.482842,633650.667,44436,3,GY,1,100,0.854
1576860847.519977,633682.000,44436,3,GY,1,100,-0.214
1576860847.560667,633716.333,44454,3,GY,1,100,2.411
1576860847.601357,633750.667,44454,3,GY,1,100,3.754
1576860847.642047,633785.000,44454,3,GY,1,100,-0.580
1576860847.681552,633818.333,44471,3,GY,1,100,-3.723
1576860847.721057,633851.667,44471,3,GY,1,100,-3.143
1576860847.760561,633885.000,44471,3,GY,1,100,0.214
1576860847.802437,633920.333,44489,3,GY,1,100,1.129
1576860847.844312,633955.667,44489,3,GY,1,100,0.092
1576860847.886187,633991.000,44489,3,GY,1,100,-0.854
1576860847.926482,634025.000,44505,3,GY,1,100,-0.977
1576860847.966777,634059.000,44505,3,GY,1,100,0.458
1576860848.007072,634093.000,44505,3,GY,1,100,1.801
1576860848.048553,634128.000,44524,3,GY,1,100,1.587
1576860848.090033,634163.000,44524,3,GY,1,100,1.038
1576860848.131513,634198.000,44524,3,GY,1,100,-0.732
1576860848.172993,634233.000,44542,2,GY,1,100,-1.862
1576860848.214473,634268.000,44542,2,GY,1,100,-0.580
1576860848.253879,634301.250,44560,4,GY,1,100,0.458
1576860848.293285,634334.500,44560,4,GY,1,100,0.977
1576860848.332691,634367.750,44560,4,GY,1,100,0.885
1576860848.372098,634401.000,44560,4,GY,1,100,0.153
1576860848.410418,634433.333,44578,3,GY,1,100,0.122
1576860848.448737,634465.667,44578,3,GY,1,100,0.580
1576860848.487057,634498.000,44578,3,GY,1,100,0.031
1576860848.528932,634533.333,44596,3,GY,1,100,0.031
1576860848.570807,634568.667,44596,3,GY,1,100,0.305
1576860848.612683,634604.000,44596,3,GY,1,100,0.336
1576860848.651002,634636.333,44614,3,GY,1,100,0.488
1576860848.689322,634668.667,44614,3,GY,1,100,0.183
1576860848.727642,634701.000,44614,3,GY,1,100,-0.275
1576860848.767542,634734.667,44632,3,GY,1,100,-0.519
1576860848.807442,634768.333,44632,3,GY,1,100,-1.495
1576860848.847342,634802.000,44632,3,GY,1,100,-0.214
1576860848.888427,634836.667,44649,3,GY,1,100,-0.793
1576860848.929512,634871.333,44649,3,GY,1,100,-1.495
1576860848.970597,634906.000,44649,3,GY,1,100,-0.549
1576860849.011287,634940.333,44668,3,GY,1,100,0.702
1576860849.051977,634974.667,44668,3,GY,1,100,0.916
1576860849.092667,635009.000,44668,3,GY,1,100,0.854
1576860849.130987,635041.333,44686,3,GY,1,100,-0.183
1576860849.169307,635073.667,44686,3,GY,1,100,-1.434
1576860849.207627,635106.000,44686,3,GY,1,100,-0.702
1576860849.248712,635140.667,44702,3,GY,1,100,0.214
1576860849.289797,635175.333,44702,3,GY,1,100,0.336
1576860849.330882,635210.000,44702,3,GY,1,100,-0.214
1576860849.371572,635244.333,44720,3,GY,1,100,0.549
1576860849.412262,635278.667,44720,3,GY,1,100,1.038
1576860849.452952,635313.000,44720,3,GY,1,100,0.580
1576860849.493840,635347.500,44738,2,GY,1,100,0.549
1576860849.534728,635382.000,44738,2,GY,1,100,0.092
1576860849.575813,635416.667,44756,3,GY,1,100,-0.305
1576860849.616898,635451.333,44756,3,GY,1,100,0.488
1576860849.657983,635486.000,44756,3,GY,1,100,-0.183
1576860849.696796,635518.750,44774,4,GY,1,100,-0.610
1576860849.735610,635551.500,44774,4,GY,1,100,0.549
1576860849.774424,635584.250,44774,4,GY,1,100,0.092
1576860849.813237,635617.000,44774,4,GY,1,100,-0.763
1576860849.856495,635653.500,44792,2,GY,1,100,-0.488
1576860849.899753,635690.000,44792,2,GY,1,100,-0.336
1576860849.938863,635723.000,44810,3,GY,1,100,0.122
1576860849.977973,635756.000,44810,3,GY,1,100,0.641
1576860850.017082,635789.000,44810,3,GY,1,100,-0.244
1576860850.057773,635823.333,44828,3,GY,1,100,0.122
1576860850.098463,635857.667,44828,3,GY,1,100,-0.214
1576860850.139153,635892.000,44828,3,GY,1,100,-0.763
1576860850.180238,635926.667,44846,3,GY,1,100,-0.488
1576860850.221323,635961.333,44846,3,GY,1,100,0.549
1576860850.262408,635996.000,44846,3,GY,1,100,0.549
1576860850.301518,636029.000,44864,3,GY,1,100,0.580
1576860850.340628,636062.000,44864,3,GY,1,100,0.244
1576860850.379738,636095.000,44864,3,GY,1,100,-0.885
1576860850.417662,636127.000,44880,3,GY,1,100,-0.214
1576860850.455587,636159.000,44880,3,GY,1,100,0.183
1576860850.493512,636191.000,44880,3,GY,1,100,-0.610
1576860850.536177,636227.000,44898,3,GY,1,100,-0.061
1576860850.578842,636263.000,44898,3,GY,1,100,0.183
1576860850.621508,636299.000,44898,3,GY,1,100,-0.366
1576860850.661013,636332.333,44916,3,GY,1,100,0.519
1576860850.700518,636365.667,44916,3,GY,1,100,0.763
1576860850.740023,636399.000,44916,3,GY,1,100,-0.305
1576860850.781503,636434.000,44934,3,GY,1,100,-0.244
1576860850.822983,636469.000,44934,3,GY,1,100,0.519
1576860850.864463,636504.000,44934,3,GY,1,100,0.397
1576860850.902783,636536.333,44952,3,GY,1,100,0.031
1576860850.941103,636568.667,44952,3,GY,1,100,-0.549
1576860850.979422,636601.000,44952,3,GY,1,100,-0.854
1576860851.016755,636632.500,44971,4,GY,1,100,-1.709
1576860851.054087,636664.000,44971,4,GY,1,100,-2.899
1576860851.091419,636695.500,44971,4,GY,1,100,-3.082
1576860851.128751,636727.000,44971,4,GY,1,100,-2.747
1576860851.174379,636765.500,44989,2,GY,1,100,-1.831
1576860851.220007,636804.000,44989,2,GY,1,100,-2.289
1576860851.255957,636834.333,45007,3,GY,1,100,-2.472
1576860851.291906,636864.667,45007,3,GY,1,100,-0.336
1576860851.327856,636895.000,45007,3,GY,1,100,0.305
1576860851.371706,636932.000,45024,3,GY,1,100,0.122
1576860851.415557,636969.000,45024,3,GY,1,100,0.519
1576860851.459407,637006.000,45024,3,GY,1,100,0.000
1576860851.496937,637037.667,45042,3,GY,1,100,0.793
1576860851.534467,637069.333,45042,3,GY,1,100,0.488
1576860851.571996,637101.000,45042,3,GY,1,100,1.495
1576860851.612291,637135.000,45060,3,GY,1,100,1.312
1576860851.652586,637169.000,45060,3,GY,1,100,0.092
1576860851.692881,637203.000,45060,3,GY,1,100,0.580
1576860851.734361,637238.000,45076,3,GY,1,100,1.343
1576860851.775841,637273.000,45076,3,GY,1,100,0.397
1576860851.817322,637308.000,45076,3,GY,1,100,1.251
1576860851.858802,637343.000,45094,3,GY,1,100,0.824
1576860851.900282,637378.000,45094,3,GY,1,100,-0.336
1576860851.941762,637413.000,45094,3,GY,1,100,-0.122
1576860851.980872,637446.000,45113,3,GY,1,100,-0.977
1576860852.019982,637479.000,45113,3,GY,1,100,-0.031
1576860852.059092,637512.000,45113,3,GY,1,100,0.366
1576860852.097017,637544.000,45131,3,GY,1,100,0.366
1576860852.134941,637576.000,45131,3,GY,1,100,0.977
1576860852.172866,637608.000,45131,3,GY,1,100,0.427
1576860852.213161,637642.000,45149,3,GY,1,100,0.763
1576860852.253456,637676.000,45149,3,GY,1,100,0.671
1576860852.293751,637710.000,45149,3,GY,1,100,0.366
1576860852.336021,637745.667,45167,3,GY,1,100,0.885
1576860852.378292,637781.333,45167,3,GY,1,100,0.305
1576860852.420562,637817.000,45167,3,GY,1,100,0.793
1576860852.460857,637851.000,45185,3,GY,1,100,1.648
1576860852.501152,637885.000,45185,3,GY,1,100,1.099
1576860852.541447,637919.000,45185,3,GY,1,100,0.183
1576860852.581347,637952.667,45202,3,GY,1,100,-0.092
1576860852.621247,637986.333,45202,3,GY,1,100,0.092
1576860852.661147,638020.000,45202,3,GY,1,100,0.214
1576860852.703417,638055.667,45220,3,GY,1,100,0.122
1576860852.745687,638091.333,45220,3,GY,1,100,-0.702
1576860852.787958,638127.000,45220,3,GY,1,100,-1.007
1576860852.825645,638158.800,45241,5,GY,1,100,-0.977
1576860852.863333,638190.600,45241,5,GY,1,100,-1.526
1576860852.901021,638222.400,45241,5,GY,1,100,-0.793
1576860852.938708,638254.200,45241,5,GY,1,100,0.275
1576860852.976396,638286.000,45241,5,GY,1,100,0.153
1576860853.019061,638322.000,45262,3,GY,1,100,-0.031
1576860853.061727,638358.000,45262,3,GY,1,100,0.854
1576860853.104392,638394.000,45262,3,GY,1,100,1.495
1576860853.145477,638428.667,45280,3,GY,1,100,2.228
1576860853.186562,638463.333,45280,3,GY,1,100,1.404
1576860853.227647,638498.000,45280,3,GY,1,100,0.458
1576860853.268733,638532.667,45297,3,GY,1,100,0.366
1576860853.309818,638567.333,45297,3,GY,1,100,-1.465
1576860853.350903,638602.000,45297,3,GY,1,100,-0.977
1576860853.390013,638635.000,45315,3,GY,1,100,-0.183
1576860853.429122,638668.000,45315,3,GY,1,100,0.366
1576860853.468232,638701.000,45315,3,GY,1,100,1.129
1576860853.506157,638733.000,45333,3,GY,1,100,-0.610
1576860853.544082,638765.000,45333,3,GY,1,100,-2.350
1576860853.582006,638797.000,45333,3,GY,1,100,-1.007
1576860853.621116,638830.000,45349,2,GY,1,100,0.122
1576860853.660226,638863.000,45349,2,GY,1,100,1.282
1576860853.704472,638900.333,45367,3,GY,1,100,0.824
1576860853.748717,638937.667,45367,3,GY,1,100,-0.336
1576860853.792963,638975.000,45367,3,GY,1,100,-0.244
1576860853.834048,639009.667,45385,3,GY,1,100,-0.305
1576860853.875133,639044.333,45385,3,GY,1,100,-0.488
1576860853.916218,639079.000,45385,3,GY,1,100,0.031
1576860853.958093,639114.333,45404,3,GY,1,100,-0.336
1576860853.999969,639149.667,45404,3,GY,1,100,-0.549
1576860854.041844,639185.000,45404,3,GY,1,100,-0.336
1576860854.078583,639216.000,45422,3,GY,1,100,-0.641
1576860854.115323,639247.000,45422,3,GY,1,100,0.061
1576860854.152062,639278.000,45422,3,GY,1,100,0.549
1576860854.190876,639310.750,45440,4,GY,1,100,0.153
1576860854.229690,639343.500,45440,4,GY,1,100,-0.305
1576860854.268503,639376.250,45440,4,GY,1,100,0.000
1576860854.307317,639409.000,45440,4,GY,1,100,0.183
1576860854.353538,639448.000,45458,2,GY,1,100,0.061
1576860854.399758,639487.000,45458,2,GY,1,100,0.610
1576860854.437288,639518.667,45475,3,GY,1,100,0.519
1576860854.474818,639550.333,45475,3,GY,1,100,0.244
1576860854.512347,639582.000,45475,3,GY,1,100,0.153
1576860854.557383,639620.000,45493,3,GY,1,100,0.275
1576860854.602418,639658.000,45493,3,GY,1,100,0.641
1576860854.647454,639696.000,45493,3,GY,1,100,1.373
1576860854.687354,639729.667,45511,3,GY,1,100,1.434
1576860854.727254,639763.333,45511,3,GY,1,100,-0.427
1576860854.767154,639797.000,45511,3,GY,1,100,-0.122
1576860854.805079,639829.000,45527,3,GY,1,100,0.244
1576860854.843004,639861.000,45527,3,GY,1,100,0.061
1576860854.880928,639893.000,45527,3,GY,1,100,0.336
1576860854.925174,639930.333,45545,3,GY,1,100,0.519
1576860854.969419,639967.667,45545,3,GY,1,100,0.824
1576860855.013665,640005.000,45545,3,GY,1,100,0.519
1576860855.050799,640036.333,45564,3,GY,1,100,0.366
1576860855.087934,640067.667,45564,3,GY,1,100,0.305
1576860855.125069,640099.000,45564,3,GY,1,100,0.275
1576860855.170499,640137.333,45582,3,GY,1,100,0.000
1576860855.215930,640175.667,45582,3,GY,1,100,-0.366
1576860855.261361,640214.000,45582,3,GY,1,100,-0.214
1576860855.297705,640244.667,45600,3,GY,1,100,0.153
1576860855.334050,640275.333,45600,3,GY,1,100,-0.092
1576860855.370394,640306.000,45600,3,GY,1,100,-0.275
1576860855.415035,640343.667,45618,3,GY,1,100,-0.153
1576860855.459675,640381.333,45618,3,GY,1,100,-0.366
1576860855.504316,640419.000,45618,3,GY,1,100,-0.610
1576860855.545796,640454.000,45635,2,GY,1,100,-0.366
1576860855.587276,640489.000,45635,2,GY,1,100,-0.153
1576860855.628756,640524.000,45653,3,GY,1,100,-0.397
1576860855.670237,640559.000,45653,3,GY,1,100,-0.458
1576860855.711717,640594.000,45653,3,GY,1,100,-0.610
1576860855.749641,640626.000,45669,3,GY,1,100,-0.031
1576860855.787566,640658.000,45669,3,GY,1,100,0.031
1576860855.825491,640690.000,45669,3,GY,1,100,0.183
1576860855.865193,640723.500,45687,4,GY,1,100,0.153
1576860855.904896,640757.000,45687,4,GY,1,100,-0.031
1576860855.944598,640790.500,45687,4,GY,1,100,-0.366
1576860855.984301,640824.000,45687,4,GY,1,100,-0.732
1576860856.022225,640856.000,45706,3,GY,1,100,-0.519
1576860856.060150,640888.000,45706,3,GY,1,100,-1.526
1576860856.098075,640920.000,45706,3,GY,1,100,-0.946
1576860856.137185,640953.000,45724,3,GY,1,100,-0.061
1576860856.176295,640986.000,45724,3,GY,1,100,-0.702
1576860856.215404,641019.000,45724,3,GY,1,100,-0.977
1576860856.262218,641058.500,45742,2,GY,1,100,0.092
1576860856.309031,641098.000,45742,2,GY,1,100,0.336
1576860856.349721,641132.333,45760,3,GY,1,100,0.916
1576860856.390411,641166.667,45760,3,GY,1,100,0.214
1576860856.431101,641201.000,45760,3,GY,1,100,-0.793
1576860856.472581,641236.000,45778,3,GY,1,100,-0.397
1576860856.514061,641271.000,45778,3,GY,1,100,0.031
1576860856.555542,641306.000,45778,3,GY,1,100,-0.488
1576860856.592281,641337.000,45796,3,GY,1,100,-1.190
1576860856.629021,641368.000,45796,3,GY,1,100,-0.427
1576860856.665761,641399.000,45796,3,GY,1,100,-0.977
1576860856.704574,641431.750,45813,4,GY,1,100,-1.526
1576860856.743388,641464.500,45813,4,GY,1,100,-1.007
1576860856.782201,641497.250,45813,4,GY,1,100,-0.732
1576860856.821015,641530.000,45813,4,GY,1,100,1.862
1576860856.867828,641569.500,45831,2,GY,1,100,2.045
1576860856.914641,641609.000,45831,2,GY,1,100,-0.519
1576860856.956122,641644.000,45847,3,GY,1,100,0.366
1576860856.997602,641679.000,45847,3,GY,1,100,0.275
1576860857.039082,641714.000,45847,3,GY,1,100,-0.458
1576860857.080562,641749.000,45866,3,GY,1,100,-0.061
1576860857.122042,641784.000,45866,3,GY,1,100,0.549
1576860857.163522,641819.000,45866,3,GY,1,100,0.153
1576860857.200262,641850.000,45884,3,GY,1,100,0.610
1576860857.237002,641881.000,45884,3,GY,1,100,0.458
1576860857.273741,641912.000,45884,3,GY,1,100,0.092
1576860857.312061,641944.333,45902,3,GY,1,100,-0.092
1576860857.350381,641976.667,45902,3,GY,1,100,0.641
1576860857.388700,642009.000,45902,3,GY,1,100,1.190
1576860857.429390,642043.333,45920,3,GY,1,100,0.397
1576860857.470081,642077.667,45920,3,GY,1,100,-0.275
1576860857.510771,642112.000,45920,3,GY,1,100,0.122
1576860857.556201,642150.333,45938,3,GY,1,100,-0.183
1576860857.601632,642188.667,45938,3,GY,1,100,0.092
1576860857.647063,642227.000,45938,3,GY,1,100,0.092
1576860857.688148,642261.667,45956,3,GY,1,100,0.549
1576860857.729233,642296.333,45956,3,GY,1,100,0.610
1576860857.770318,642331.000,45956,3,GY,1,100,0.183
1576860857.808243,642363.000,45974,3,GY,1,100,-0.580
1576860857.846168,642395.000,45974,3,GY,1,100,-0.610
1576860857.884092,642427.000,45974,3,GY,1,100,-0.275
1576860857.921227,642458.333,45992,3,GY,1,100,0.366
1576860857.958361,642489.667,45992,3,GY,1,100,0.244
1576860857.995496,642521.000,45992,3,GY,1,100,0.671
1576860858.035791,642555.000,46010,3,GY,1,100,-0.244
1576860858.076086,642589.000,46010,3,GY,1,100,-0.244
1576860858.116381,642623.000,46010,3,GY,1,100,-0.793
1576860858.161417,642661.000,46028,3,GY,1,100,0.946
1576860858.206452,642699.000,46028,3,GY,1,100,1.923
1576860858.251488,642737.000,46028,3,GY,1,100,-0.397
1576860858.289018,642768.667,46044,3,GY,1,100,-0.580
1576860858.326547,642800.333,46044,3,GY,1,100,0.641
1576860858.364077,642832.000,46044,3,GY,1,100,-1.678
1576860858.406347,642867.667,46062,3,GY,1,100,-1.343
1576860858.448617,642903.333,46062,3,GY,1,100,-0.153
1576860858.490888,642939.000,46062,3,GY,1,100,0.519
1576860858.530590,642972.500,46080,2,GY,1,100,0.824
1576860858.570293,643006.000,46080,2,GY,1,100,-0.702
1576860858.611773,643041.000,46098,4,GY,1,100,-1.526
1576860858.653253,643076.000,46098,4,GY,1,100,-0.641
1576860858.694733,643111.000,46098,4,GY,1,100,-0.458
1576860858.736213,643146.000,46098,4,GY,1,100,1.038
1576860858.783027,643185.500,46116,2,GY,1,100,0.061
1576860858.829840,643225.000,46116,2,GY,1,100,-1.709
1576860858.868713,643257.800,46137,5,GY,1,100,-0.916
1576860858.907586,643290.600,46137,5,GY,1,100,1.617
1576860858.946459,643323.400,46137,5,GY,1,100,2.197
1576860858.985331,643356.200,46137,5,GY,1,100,-0.305
1576860859.024204,643389.000,46137,5,GY,1,100,-0.549
1576860859.065684,643424.000,46156,3,GY,1,100,0.519
1576860859.107164,643459.000,46156,3,GY,1,100,0.732
1576860859.148645,643494.000,46156,3,GY,1,100,0.122
1576860859.193285,643531.667,46174,3,GY,1,100,-0.336
1576860859.237926,643569.333,46174,3,GY,1,100,-0.549
1576860859.282566,643607.000,46174,3,GY,1,100,0.854
1576860859.323454,643641.500,46194,2,GY,1,100,0.732
1576860859.364341,643676.000,46194,2,GY,1,100,-0.153
1576860859.405032,643710.333,46211,3,GY,1,100,0.763
1576860859.445722,643744.667,46211,3,GY,1,100,0.885
1576860859.486412,643779.000,46211,3,GY,1,100,0.580
1576860859.528287,643814.333,46229,3,GY,1,100,0.092
1576860859.570162,643849.667,46229,3,GY,1,100,0.366
1576860859.612037,643885.000,46229,3,GY,1,100,0.427
1576860859.651542,643918.333,46247,3,GY,1,100,0.122
1576860859.691047,643951.667,46247,3,GY,1,100,0.275
1576860859.730552,643985.000,46247,3,GY,1,100,0.427
1576860859.768773,644017.250,46263,4,GY,1,100,0.549
1576860859.806994,644049.500,46263,4,GY,1,100,0.061
1576860859.845215,644081.750,46263,4,GY,1,100,-0.214
1576860859.883436,644114.000,46263,4,GY,1,100,0.214
1576860859.923336,644147.667,46281,3,GY,1,100,-0.336
1576860859.963236,644181.333,46281,3,GY,1,100,-1.007
1576860860.003136,644215.000,46281,3,GY,1,100,-0.519
1576860860.045209,644250.500,46300,2,GY,1,100,-0.366
1576860860.087281,644286.000,46300,2,GY,1,100,-1.587
1576860860.127577,644320.000,46318,3,GY,1,100,-0.580
1576860860.167871,644354.000,46318,3,GY,1,100,-0.183
1576860860.208167,644388.000,46318,3,GY,1,100,-0.702
1576860860.253202,644426.000,46336,3,GY,1,100,-0.336
1576860860.298238,644464.000,46336,3,GY,1,100,0.214
1576860860.343273,644502.000,46336,3,GY,1,100,-0.580
1576860860.384358,644536.667,46354,3,GY,1,100,-0.031
1576860860.425444,644571.333,46354,3,GY,1,100,1.373
1576860860.466529,644606.000,46354,3,GY,1,100,0.946
1576860860.505639,644639.000,46372,3,GY,1,100,0.946
1576860860.544749,644672.000,46372,3,GY,1,100,1.617
1576860860.583858,644705.000,46372,3,GY,1,100,0.885
1576860860.620993,644736.333,46389,3,GY,1,100,0.885
1576860860.658128,644767.667,46389,3,GY,1,100,0.824
1576860860.695262,644799.000,46389,3,GY,1,100,0.519
1576860860.734767,644832.333,46407,3,GY,1,100,0.793
1576860860.774272,644865.667,46407,3,GY,1,100,0.458
1576860860.813777,644899.000,46407,3,GY,1,100,-0.031
1576860860.854467,644933.333,46425,3,GY,1,100,-0.397
1576860860.895157,644967.667,46425,3,GY,1,100,0.061
1576860860.935847,645002.000,46425,3,GY,1,100,-0.275
1576860860.980883,645040.000,46441,3,GY,1,100,-0.641
1576860861.025918,645078.000,46441,3,GY,1,100,-0.916
1576860861.070954,645116.000,46441,3,GY,1,100,-1.312
1576860861.110854,645149.667,46460,3,GY,1,100,-2.289
1576860861.150754,645183.333,46460,3,GY,1,100,-3.632
1576860861.190654,645217.000,46460,3,GY,1,100,-3.906
1576860861.227788,645248.333,46478,3,GY,1,100,-2.136
1576860861.264923,645279.667,46478,3,GY,1,100,-0.183
1576860861.302058,645311.000,46478,3,GY,1,100,1.160
1576860861.341563,645344.333,46496,3,GY,1,100,-1.556
1576860861.381068,645377.667,46496,3,GY,1,100,-1.465
1576860861.420573,645411.000,46496,3,GY,1,100,-1.343
1576860861.462053,645446.000,46514,3,GY,1,100,-1.526
1576860861.503533,645481.000,46514,3,GY,1,100,0.092
1576860861.545013,645516.000,46514,3,GY,1,100,-0.610
1576860861.590049,645554.000,46532,3,GY,1,100,0.916
1576860861.635084,645592.000,46532,3,GY,1,100,0.793
1576860861.680120,645630.000,46532,3,GY,1,100,0.549
1576860861.719230,645663.000,46550,3,GY,1,100,1.404
1576860861.758340,645696.000,46550,3,GY,1,100,3.265
1576860861.797450,645729.000,46550,3,GY,1,100,2.686
1576860861.835374,645761.000,46568,3,GY,1,100,1.282
1576860861.873299,645793.000,46568,3,GY,1,100,0.427
1576860861.911224,645825.000,46568,3,GY,1,100,1.129
1576860861.949543,645857.333,46585,3,GY,1,100,1.678
1576860861.987863,645889.667,46585,3,GY,1,100,1.312
1576860862.026183,645922.000,46585,3,GY,1,100,0.488
1576860862.067268,645956.667,46604,3,GY,1,100,-0.977
1576860862.108353,645991.333,46604,3,GY,1,100,-1.648
1576860862.149438,646026.000,46604,3,GY,1,100,-1.099
1576860862.190326,646060.500,46620,2,GY,1,100,0.824
1576860862.231214,646095.000,46620,2,GY,1,100,1.709
1576860862.272990,646130.250,46638,4,GY,1,100,0.580
1576860862.314766,646165.500,46638,4,GY,1,100,1.099
1576860862.356543,646200.750,46638,4,GY,1,100,0.427
1576860862.398319,646236.000,46638,4,GY,1,100,-1.068
1576860862.445725,646276.000,46656,2,GY,1,100,-0.031
1576860862.493131,646316.000,46656,2,GY,1,100,-0.549
1576860862.531056,646348.000,46674,3,GY,1,100,-0.549
1576860862.568980,646380.000,46674,3,GY,1,100,-0.244
1576860862.606905,646412.000,46674,3,GY,1,100,-1.587
1576860862.649176,646447.667,46692,3,GY,1,100,-1.312
1576860862.691446,646483.333,46692,3,GY,1,100,0.519
1576860862.733716,646519.000,46692,3,GY,1,100,0.397
1576860862.774801,646553.667,46709,3,GY,1,100,0.244
1576860862.815886,646588.333,46709,3,GY,1,100,0.610
1576860862.856972,646623.000,46709,3,GY,1,100,1.221
1576860862.899242,646658.667,46727,3,GY,1,100,0.610
1576860862.941512,646694.333,46727,3,GY,1,100,0.793
1576860862.983782,646730.000,46727,3,GY,1,100,0.763
1576860863.024867,646764.667,46743,3,GY,1,100,0.336
1576860863.065953,646799.333,46743,3,GY,1,100,-0.061
1576860863.107038,646834.000,46743,3,GY,1,100,-1.038
1576860863.153851,646873.500,46762,2,GY,1,100,-4.150
1576860863.200664,646913.000,46762,2,GY,1,100,-3.479
1576860863.240070,646946.250,46780,4,GY,1,100,-0.244
1576860863.279477,646979.500,46780,4,GY,1,100,-0.031
1576860863.318883,647012.750,46780,4,GY,1,100,0.702
1576860863.358289,647046.000,46780,4,GY,1,100,0.977
1576860863.399769,647081.000,46798,2,GY,1,100,-1.190
1576860863.441249,647116.000,46798,2,GY,1,100,-0.641
1576860863.478878,647147.750,46816,4,GY,1,100,1.251
1576860863.516506,647179.500,46816,4,GY,1,100,1.068
1576860863.554134,647211.250,46816,4,GY,1,100,1.709
1576860863.591763,647243.000,46816,4,GY,1,100,0.946
1576860863.632058,647277.000,46834,2,GY,1,100,-0.458
1576860863.672353,647311.000,46834,2,GY,1,100,-0.854
1576860863.711759,647344.250,46852,4,GY,1,100,-1.282
1576860863.751165,647377.500,46852,4,GY,1,100,-0.153
1576860863.790571,647410.750,46852,4,GY,1,100,1.343
1576860863.829978,647444.000,46852,4,GY,1,100,1.343
1576860863.869483,647477.333,46870,3,GY,1,100,0.305
1576860863.908988,647510.667,46870,3,GY,1,100,0.916
1576860863.948492,647544.000,46870,3,GY,1,100,-0.305
1576860863.989973,647579.000,46887,2,GY,1,100,-0.214
1576860864.031453,647614.000,46887,2,GY,1,100,0.977
1576860864.072933,647649.000,46906,3,GY,1,100,-1.526
1576860864.114413,647684.000,46906,3,GY,1,100,-2.014
1576860864.155893,647719.000,46906,3,GY,1,100,-0.610
1576860864.199744,647756.000,46922,3,GY,1,100,-1.648
1576860864.243594,647793.000,46922,3,GY,1,100,-1.953
1576860864.287445,647830.000,46922,3,GY,1,100,-2.258
1576860864.325369,647862.000,46940,3,GY,1,100,-2.075
1576860864.363294,647894.000,46940,3,GY,1,100,-1.068
1576860864.401219,647926.000,46940,3,GY,1,100,-0.732
1576860864.439143,647958.000,46958,3,GY,1,100,-1.007
1576860864.477068,647990.000,46958,3,GY,1,100,-2.106
1576860864.514993,648022.000,46958,3,GY,1,100,-2.838
1576860864.555683,648056.333,46976,3,GY,1,100,-2.411
1576860864.596373,648090.667,46976,3,GY,1,100,-2.563
1576860864.637063,648125.000,46976,3,GY,1,100,-0.305
1576860864.677358,648159.000,46994,3,GY,1,100,0.458
1576860864.717653,648193.000,46994,3,GY,1,100,-0.824
1576860864.757948,648227.000,46994,3,GY,1,100,-0.519
1576860864.802589,648264.667,47012,3,GY,1,100,0.275
1576860864.847229,648302.333,47012,3,GY,1,100,1.190
1576860864.891870,648340.000,47012,3,GY,1,100,2.930
1576860864.929795,648372.000,47033,5,GY,1,100,3.174
1576860864.967719,648404.000,47033,5,GY,1,100,2.563
1576860865.005644,648436.000,47033,5,GY,1,100,1.770
1576860865.043569,648468.000,47033,5,GY,1,100,-0.336
1576860865.081493,648500.000,47033,5,GY,1,100,-1.678
1576860865.121393,648533.667,47054,3,GY,1,100,-1.617
1576860865.161293,648567.333,47054,3,GY,1,100,-0.275
1576860865.201193,648601.000,47054,3,GY,1,100,0.702
1576860865.242278,648635.667,47072,3,GY,1,100,0.977
1576860865.283364,648670.333,47072,3,GY,1,100,1.526
1576860865.324449,648705.000,47072,3,GY,1,100,1.434
1576860865.369484,648743.000,47090,3,GY,1,100,1.007
1576860865.414520,648781.000,47090,3,GY,1,100,-0.641
1576860865.459555,648819.000,47090,3,GY,1,100,-1.556
1576860865.497480,648851.000,47108,3,GY,1,100,-0.671
1576860865.535405,648883.000,47108,3,GY,1,100,1.221
1576860865.573330,648915.000,47108,3,GY,1,100,1.434
1576860865.611650,648947.333,47126,3,GY,1,100,1.862
1576860865.649969,648979.667,47126,3,GY,1,100,0.305
1576860865.688289,649012.000,47126,3,GY,1,100,0.305
1576860865.727399,649045.000,47144,3,GY,1,100,-0.305
1576860865.766509,649078.000,47144,3,GY,1,100,-2.075
1576860865.805619,649111.000,47144,3,GY,1,100,-1.648
1576860865.847099,649146.000,47162,3,GY,1,100,0.397
1576860865.888579,649181.000,47162,3,GY,1,100,-0.061
1576860865.930059,649216.000,47162,3,GY,1,100,-0.854
1576860865.970749,649250.333,47179,3,GY,1,100,0.397
1576860866.011439,649284.667,47179,3,GY,1,100,0.366
1576860866.052129,649319.000,47179,3,GY,1,100,-0.427
1576860866.095980,649356.000,47196,2,GY,1,100,-0.031
1576860866.139830,649393.000,47196,2,GY,1,100,-0.336
1576860866.180915,649427.667,47214,3,GY,1,100,0.488
1576860866.222000,649462.333,47214,3,GY,1,100,1.038
1576860866.263086,649497.000,47214,3,GY,1,100,-0.092
1576860866.305751,649533.000,47232,3,GY,1,100,0.824
1576860866.348416,649569.000,47232,3,GY,1,100,0.610
1576860866.391082,649605.000,47232,3,GY,1,100,0.153
1576860866.432562,649640.000,47250,3,GY,1,100,0.122
1576860866.474042,649675.000,47250,3,GY,1,100,0.275
1576860866.515522,649710.000,47250,3,GY,1,100,0.580
1576860866.557397,649745.333,47268,3,GY,1,100,0.244
1576860866.599272,649780.667,47268,3,GY,1,100,0.061
1576860866.641148,649816.000,47268,3,GY,1,100,0.244
1576860866.681048,649849.667,47286,3,GY,1,100,1.160
1576860866.720948,649883.333,47286,3,GY,1,100,1.221
1576860866.760848,649917.000,47286,3,GY,1,100,0.153
1576860866.798377,649948.667,47304,3,GY,1,100,1.068
1576860866.835907,649980.333,47304,3,GY,1,100,1.160
1576860866.873436,650012.000,47304,3,GY,1,100,0.763
1576860866.913337,650045.667,47321,3,GY,1,100,0.641
1576860866.953237,650079.333,47321,3,GY,1,100,0.488
1576860866.993136,650113.000,47321,3,GY,1,100,0.732
1576860867.031456,650145.333,47340,3,GY,1,100,0.153
1576860867.069776,650177.667,47340,3,GY,1,100,0.031
1576860867.108096,650210.000,47340,3,GY,1,100,0.427
1576860867.146811,650242.667,47358,3,GY,1,100,0.519
1576860867.185525,650275.333,47358,3,GY,1,100,0.275
1576860867.224240,650308.000,47358,3,GY,1,100,0.275
1576860867.261375,650339.333,47374,3,GY,1,100,0.671
1576860867.298510,650370.667,47374,3,GY,1,100,0.549
1576860867.335644,650402.000,47374,3,GY,1,100,0.488
1576860867.376334,650436.333,47392,3,GY,1,100,0.671
1576860867.417024,650470.667,47392,3,GY,1,100,0.153
1576860867.457714,650505.000,47392,3,GY,1,100,0.092
1576860867.495935,650537.250,47410,4,GY,1,100,0.000
1576860867.534156,650569.500,47410,4,GY,1,100,-0.031
1576860867.572377,650601.750,47410,4,GY,1,100,0.366
1576860867.610598,650634.000,47410,4,GY,1,100,0.336
1576860867.651289,650668.333,47428,3,GY,1,100,0.092
1576860867.691978,650702.667,47428,3,GY,1,100,-0.488
1576860867.732669,650737.000,47428,3,GY,1,100,0.061
1576860867.773556,650771.500,47446,2,GY,1,100,0.214
1576860867.814444,650806.000,47446,2,GY,1,100,-0.031
1576860867.856319,650841.333,47464,3,GY,1,100,0.244
1576860867.898194,650876.667,47464,3,GY,1,100,0.244
1576860867.940069,650912.000,47464,3,GY,1,100,-0.122
1576860867.981154,650946.667,47482,3,GY,1,100,0.092
1576860868.022240,650981.333,47482,3,GY,1,100,0.549
1576860868.063325,651016.000,47482,3,GY,1,100,-0.305
1576860868.104805,651051.000,47500,3,GY,1,100,-0.458
1576860868.146285,651086.000,47500,3,GY,1,100,0.061
1576860868.187765,651121.000,47500,3,GY,1,100,-0.366
1576860868.225690,651153.000,47518,3,GY,1,100,0.488
1576860868.263615,651185.000,47518,3,GY,1,100,0.214
1576860868.301539,651217.000,47518,3,GY,1,100,-0.244
1576860868.343019,651252.000,47536,3,GY,1,100,0.244
1576860868.384500,651287.000,47536,3,GY,1,100,-0.305
1576860868.425980,651322.000,47536,3,GY,1,100,-0.488
1576860868.465880,651355.667,47554,3,GY,1,100,0.244
1576860868.505780,651389.333,47554,3,GY,1,100,-0.031
1576860868.545680,651423.000,47554,3,GY,1,100,0.000
1576860868.586765,651457.667,47570,3,GY,1,100,-0.031
1576860868.627850,651492.333,47570,3,GY,1,100,-0.366
1576860868.668935,651527.000,47570,3,GY,1,100,0.214
1576860868.710810,651562.333,47588,3,GY,1,100,-0.122
1576860868.752686,651597.667,47588,3,GY,1,100,-0.397
1576860868.794561,651633.000,47588,3,GY,1,100,-0.122
1576860868.834856,651667.000,47606,3,GY,1,100,-0.366
1576860868.875151,651701.000,47606,3,GY,1,100,0.183
1576860868.915446,651735.000,47606,3,GY,1,100,0.000
1576860868.953371,651767.000,47624,3,GY,1,100,-0.275
1576860868.991295,651799.000,47624,3,GY,1,100,0.275
1576860869.029220,651831.000,47624,3,GY,1,100,0.214
1576860869.070305,651865.667,47643,3,GY,1,100,-0.458
1576860869.111390,651900.333,47643,3,GY,1,100,-0.122
1576860869.152475,651935.000,47643,3,GY,1,100,-0.458
1576860869.193955,651970.000,47661,3,GY,1,100,-0.458
1576860869.235436,652005.000,47661,3,GY,1,100,0.122
1576860869.276916,652040.000,47661,3,GY,1,100,0.336
1576860869.318791,652075.333,47678,3,GY,1,100,0.275
1576860869.360666,652110.667,47678,3,GY,1,100,0.519
1576860869.402541,652146.000,47678,3,GY,1,100,0.122
1576860869.443627,652180.667,47696,3,GY,1,100,0.061
1576860869.484712,652215.333,47696,3,GY,1,100,-0.244
1576860869.525797,652250.000,47696,3,GY,1,100,0.122
1576860869.562932,652281.333,47714,3,GY,1,100,0.519
1576860869.600066,652312.667,47714,3,GY,1,100,-0.092
1576860869.637201,652344.000,47714,3,GY,1,100,-0.488
1576860869.677496,652378.000,47732,3,GY,1,100,-1.007
1576860869.717791,652412.000,47732,3,GY,1,100,-0.763
1576860869.758086,652446.000,47732,3,GY,1,100,0.000
1576860869.799171,652480.667,47748,3,GY,1,100,-0.031
1576860869.840256,652515.333,47748,3,GY,1,100,-0.061
1576860869.881341,652550.000,47748,3,GY,1,100,0.305
1576860869.922031,652584.333,47766,3,GY,1,100,-0.092
1576860869.962721,652618.667,47766,3,GY,1,100,-0.366
1576860870.003411,652653.000,47766,3,GY,1,100,0.092
1576860870.043114,652686.500,47785,2,GY,1,100,-0.122
1576860870.082816,652720.000,47785,2,GY,1,100,-0.153
1576860870.123408,652754.250,47803,4,GY,1,100,0.519
1576860870.163999,652788.500,47803,4,GY,1,100,0.000
1576860870.204590,652822.750,47803,4,GY,1,100,0.000
1576860870.245181,652857.000,47803,4,GY,1,100,0.427
1576860870.284686,652890.333,47821,3,GY,1,100,0.183
1576860870.324191,652923.667,47821,3,GY,1,100,0.031
1576860870.363696,652957.000,47821,3,GY,1,100,0.000
1576860870.403201,652990.333,47839,3,GY,1,100,-0.366
1576860870.442706,653023.667,47839,3,GY,1,100,0.000
1576860870.482211,653057.000,47839,3,GY,1,100,0.366
1576860870.520136,653089.000,47857,3,GY,1,100,0.031
1576860870.558060,653121.000,47857,3,GY,1,100,-0.092
1576860870.595985,653153.000,47857,3,GY,1,100,-0.336
1576860870.632725,653184.000,47875,3,GY,1,100,-0.244
1576860870.669464,653215.000,47875,3,GY,1,100,-0.061
1576860870.706204,653246.000,47875,3,GY,1,100,0.061
1576860870.746894,653280.333,47893,3,GY,1,100,0.397
1576860870.787584,653314.667,47893,3,GY,1,100,0.458
1576860870.828274,653349.000,47893,3,GY,1,100,0.000
1576860870.866989,653381.667,47910,3,GY,1,100,-0.519
1576860870.905704,653414.333,47910,3,GY,1,100,0.000
1576860870.944418,653447.000,47910,3,GY,1,100,0.336
1576860870.982817,653479.400,47932,5,GY,1,100,0.458
1576860871.021216,653511.800,47932,5,GY,1,100,0.763
1576860871.059615,653544.200,47932,5,GY,1,100,0.183
1576860871.098014,653576.600,47932,5,GY,1,100,-0.092
1576860871.136412,653609.000,47932,5,GY,1,100,-0.458
1576860871.175127,653641.667,47952,3,GY,1,100,-0.305
1576860871.213842,653674.333,47952,3,GY,1,100,0.183
1576860871.252557,653707.000,47952,3,GY,1,100,0.031
1576860871.292062,653740.333,47970,3,GY,1,100,0.214
1576860871.331567,653773.667,47970,3,GY,1,100,-0.061
1576860871.371072,653807.000,47970,3,GY,1,100,-0.854
1576860871.412157,653841.667,47988,3,GY,1,100,-0.244
1576860871.453242,653876.333,47988,3,GY,1,100,0.031
1576860871.494327,653911.000,47988,3,GY,1,100,0.061
1576860871.536202,653946.333,48006,3,GY,1,100,0.397
1576860871.578077,653981.667,48006,3,GY,1,100,0.702
1576860871.619953,654017.000,48006,3,GY,1,100,0.122
1576860871.661433,654052.000,48023,3,GY,1,100,0.519
1576860871.702913,654087.000,48023,3,GY,1,100,0.061
1576860871.744393,654122.000,48023,3,GY,1,100,-0.427
1576860871.786268,654157.333,48039,3,GY,1,100,-0.153
1576860871.828144,654192.667,48039,3,GY,1,100,-0.031
1576860871.870019,654228.000,48039,3,GY,1,100,0.427
1576860871.907351,654259.500,48057,2,GY,1,100,0.183
1576860871.944683,654291.000,48057,2,GY,1,100,-0.244
1576860871.984978,654325.000,48076,4,GY,1,100,0.244
1576860872.025273,654359.000,48076,4,GY,1,100,0.427
1576860872.065568,654393.000,48076,4,GY,1,100,-0.183
1576860872.105863,654427.000,48076,4,GY,1,100,-0.061
1576860872.145763,654460.667,48094,3,GY,1,100,-0.244
1576860872.185663,654494.333,48094,3,GY,1,100,-0.854
1576860872.225563,654528.000,48094,3,GY,1,100,-0.153
1576860872.266648,654562.667,48112,3,GY,1,100,0.336
1576860872.307733,654597.333,48112,3,GY,1,100,0.122
1576860872.348818,654632.000,48112,3,GY,1,100,-0.366
1576860872.389904,654666.667,48130,3,GY,1,100,0.061
1576860872.430989,654701.333,48130,3,GY,1,100,-0.183
1576860872.472074,654736.000,48130,3,GY,1,100,0.031
1576860872.510788,654768.667,48148,3,GY,1,100,0.519
1576860872.549503,654801.333,48148,3,GY,1,100,0.000
1576860872.588218,654834.000,48148,3,GY,1,100,-0.092
1576860872.630291,654869.500,48166,2,GY,1,100,-0.214
1576860872.672364,654905.000,48166,2,GY,1,100,-0.549
1576860872.712264,654938.667,48184,3,GY,1,100,0.031
1576860872.752164,654972.333,48184,3,GY,1,100,0.275
1576860872.792063,655006.000,48184,3,GY,1,100,0.153
1576860872.833544,655041.000,48201,3,GY,1,100,-0.275
1576860872.875024,655076.000,48201,3,GY,1,100,0.092
1576860872.916504,655111.000,48201,3,GY,1,100,0.122
1576860872.957589,655145.667,48219,3,GY,1,100,0.061
1576860872.998674,655180.333,48219,3,GY,1,100,0.214
1576860873.039759,655215.000,48219,3,GY,1,100,-0.244
1576860873.080055,655249.000,48236,3,GY,1,100,-0.519
1576860873.120349,655283.000,48236,3,GY,1,100,-0.305
1576860873.160645,655317.000,48236,3,GY,1,100,-0.366
1576860873.201334,655351.333,48254,3,GY,1,100,-0.366
1576860873.242025,655385.667,48254,3,GY,1,100,-0.244
1576860873.282715,655420.000,48254,3,GY,1,100,-0.214
1576860873.321034,655452.333,48272,3,GY,1,100,-0.214
1576860873.359354,655484.667,48272,3,GY,1,100,0.244
1576860873.397674,655517.000,48272,3,GY,1,100,-0.031
1576860873.438759,655551.667,48290,3,GY,1,100,-0.153
1576860873.479844,655586.333,48290,3,GY,1,100,-0.214
1576860873.520929,655621.000,48290,3,GY,1,100,0.000
1576860873.562014,655655.667,48308,3,GY,1,100,0.031
1576860873.603100,655690.333,48308,3,GY,1,100,0.214
1576860873.644185,655725.000,48308,3,GY,1,100,0.092
1576860873.683690,655758.333,48326,3,GY,1,100,0.214
1576860873.723195,655791.667,48326,3,GY,1,100,-0.275
1576860873.762699,655825.000,48326,3,GY,1,100,-0.153
1576860873.800624,655857.000,48344,3,GY,1,100,-0.244
1576860873.838549,655889.000,48344,3,GY,1,100,-0.031
1576860873.876474,655921.000,48344,3,GY,1,100,-0.549
1576860873.918744,655956.667,48362,3,GY,1,100,-0.427
1576860873.961014,655992.333,48362,3,GY,1,100,-0.214
1576860874.003284,656028.000,48362,3,GY,1,100,-0.153
1576860874.042789,656061.333,48380,3,GY,1,100,-0.061
1576860874.082294,656094.667,48380,3,GY,1,100,0.092
1576860874.121799,656128.000,48380,3,GY,1,100,-0.122
1576860874.162884,656162.667,48398,3,GY,1,100,0.580
1576860874.203969,656197.333,48398,3,GY,1,100,0.671
1576860874.245054,656232.000,48398,3,GY,1,100,-0.366
1576860874.283374,656264.333,48416,3,GY,1,100,-0.305
1576860874.321694,656296.667,48416,3,GY,1,100,0.153
1576860874.360014,656329.000,48416,3,GY,1,100,0.488
1576860874.397938,656361.000,48432,3,GY,1,100,-0.031
1576860874.435863,656393.000,48432,3,GY,1,100,-0.061
1576860874.473788,656425.000,48432,3,GY,1,100,0.122
1576860874.515663,656460.333,48450,3,GY,1,100,-0.549
1576860874.557539,656495.667,48450,3,GY,1,100,-1.221
1576860874.599414,656531.000,48450,3,GY,1,100,-1.221
1576860874.635363,656561.333,48468,3,GY,1,100,0.000
1576860874.671313,656591.667,48468,3,GY,1,100,1.678
1576860874.707262,656622.000,48468,3,GY,1,100,0.610
1576860874.751508,656659.333,48486,3,GY,1,100,-3.204
1576860874.795753,656696.667,48486,3,GY,1,100,-1.312
1576860874.839998,656734.000,48486,3,GY,1,100,0.183
1576860874.877528,656765.667,48504,3,GY,1,100,-0.977
1576860874.915058,656797.333,48504,3,GY,1,100,-0.336
1576860874.952588,656829.000,48504,3,GY,1,100,-0.549
1576860874.992883,656863.000,48523,3,GY,1,100,-0.153
1576860875.033178,656897.000,48523,3,GY,1,100,0.732
1576860875.073473,656931.000,48523,3,GY,1,100,1.617
1576860875.114953,656966.000,48541,3,GY,1,100,2.045
1576860875.156433,657001.000,48541,3,GY,1,100,1.526
1576860875.197913,657036.000,48541,3,GY,1,100,0.793
1576860875.239393,657071.000,48558,3,GY,1,100,-0.305
1576860875.280874,657106.000,48558,3,GY,1,100,-0.671
1576860875.322354,657141.000,48558,3,GY,1,100,-0.824
1576860875.363439,657175.667,48576,3,GY,1,100,-0.854
1576860875.404524,657210.333,48576,3,GY,1,100,-0.183
1576860875.445609,657245.000,48576,3,GY,1,100,-0.336
1576860875.487089,657280.000,48592,3,GY,1,100,0.000
1576860875.528569,657315.000,48592,3,GY,1,100,0.244
1576860875.570050,657350.000,48592,3,GY,1,100,0.671
1576860875.607974,657382.000,48610,3,GY,1,100,0.916
1576860875.645899,657414.000,48610,3,GY,1,100,0.305
1576860875.683824,657446.000,48610,3,GY,1,100,-0.366
1576860875.725699,657481.333,48628,3,GY,1,100,-1.007
1576860875.767574,657516.667,48628,3,GY,1,100,0.214
1576860875.809449,657552.000,48628,3,GY,1,100,0.549
1576860875.845794,657582.667,48646,3,GY,1,100,0.458
1576860875.882138,657613.333,48646,3,GY,1,100,1.129
1576860875.918483,657644.000,48646,3,GY,1,100,0.885
1576860875.957988,657677.333,48665,3,GY,1,100,0.397
1576860875.997493,657710.667,48665,3,GY,1,100,-0.397
1576860876.036998,657744.000,48665,3,GY,1,100,-0.549
1576860876.080848,657781.000,48683,3,GY,1,100,0.031
1576860876.124699,657818.000,48683,3,GY,1,100,0.214
1576860876.168549,657855.000,48683,3,GY,1,100,0.092
1576860876.208844,657889.000,48701,3,GY,1,100,0.427
1576860876.249139,657923.000,48701,3,GY,1,100,0.702
1576860876.289434,657957.000,48701,3,GY,1,100,0.305
1576860876.330124,657991.333,48719,3,GY,1,100,0.183
1576860876.370814,658025.667,48719,3,GY,1,100,0.153
1576860876.411504,658060.000,48719,3,GY,1,100,0.061
1576860876.449429,658092.000,48736,3,GY,1,100,0.519
1576860876.487354,658124.000,48736,3,GY,1,100,0.244
1576860876.525278,658156.000,48736,3,GY,1,100,-0.488
1576860876.566759,658191.000,48754,3,GY,1,100,0.458
1576860876.608239,658226.000,48754,3,GY,1,100,-0.061
1576860876.649719,658261.000,48754,3,GY,1,100,-0.916
1576860876.690014,658295.000,48772,3,GY,1,100,-0.916
1576860876.730309,658329.000,48772,3,GY,1,100,-0.305
1576860876.770604,658363.000,48772,3,GY,1,100,-0.458
1576860876.812084,658398.000,48788,3,GY,1,100,-0.336
1576860876.853564,658433.000,48788,3,GY,1,100,0.275
1576860876.895045,658468.000,48788,3,GY,1,100,0.366
1576860876.936525,658503.000,48806,3,GY,1,100,0.916
1576860876.978005,658538.000,48806,3,GY,1,100,1.251
1576860877.019485,658573.000,48806,3,GY,1,100,1.282
1576860877.057173,658604.800,48828,5,GY,1,100,0.244
1576860877.094860,658636.600,48828,5,GY,1,100,-0.977
1576860877.132548,658668.400,48828,5,GY,1,100,-0.824
1576860877.170236,658700.200,48828,5,GY,1,100,-0.031
1576860877.207923,658732.000,48828,5,GY,1,100,-0.214
1576860877.252367,658769.500,48847,2,GY,1,100,0.000
1576860877.296809,658807.000,48847,2,GY,1,100,0.244
1576860877.338290,658842.000,48865,3,GY,1,100,1.068
1576860877.379770,658877.000,48865,3,GY,1,100,1.099
1576860877.421250,658912.000,48865,3,GY,1,100,0.977
1576860877.461940,658946.333,48881,3,GY,1,100,0.702
1576860877.502630,658980.667,48881,3,GY,1,100,-0.275
1576860877.543320,659015.000,48881,3,GY,1,100,-0.763
1576860877.584405,659049.667,48899,3,GY,1,100,-0.824
1576860877.625490,659084.333,48899,3,GY,1,100,-0.427
1576860877.666576,659119.000,48899,3,GY,1,100,0.214
1576860877.703710,659150.333,48917,3,GY,1,100,0.031
1576860877.740845,659181.667,48917,3,GY,1,100,0.275
1576860877.777979,659213.000,48917,3,GY,1,100,0.549
1576860877.820250,659248.667,48935,3,GY,1,100,0.061
1576860877.862520,659284.333,48935,3,GY,1,100,0.122
1576860877.904790,659320.000,48935,3,GY,1,100,0.519
1576860877.946270,659355.000,48954,3,GY,1,100,0.488
1576860877.987751,659390.000,48954,3,GY,1,100,-0.061
1576860878.029231,659425.000,48954,3,GY,1,100,-0.458
1576860878.069131,659458.667,48972,3,GY,1,100,-0.671
1576860878.109031,659492.333,48972,3,GY,1,100,-0.916
1576860878.148931,659526.000,48972,3,GY,1,100,-0.153
1576860878.186855,659558.000,48990,3,GY,1,100,0.031
1576860878.224780,659590.000,48990,3,GY,1,100,-0.092
1576860878.262705,659622.000,48990,3,GY,1,100,0.305
1576860878.306160,659658.667,49008,3,GY,1,100,0.610
1576860878.349616,659695.333,49008,3,GY,1,100,0.641
1576860878.393071,659732.000,49008,3,GY,1,100,0.183
1576860878.429811,659763.000,49025,3,GY,1,100,0.366
1576860878.466550,659794.000,49025,3,GY,1,100,-0.153
1576860878.503290,659825.000,49025,3,GY,1,100,-0.488
1576860878.548720,659863.333,49041,3,GY,1,100,0.061
1576860878.594151,659901.667,49041,3,GY,1,100,-0.183
1576860878.639582,659940.000,49041,3,GY,1,100,-0.366
1576860878.679087,659973.333,49059,3,GY,1,100,-0.305
1576860878.718591,660006.667,49059,3,GY,1,100,0.275
1576860878.758096,660040.000,49059,3,GY,1,100,0.519
1576860878.796021,660072.000,49077,3,GY,1,100,0.092
1576860878.833946,660104.000,49077,3,GY,1,100,0.336
1576860878.871871,660136.000,49077,3,GY,1,100,0.092
1576860878.914536,660172.000,49095,3,GY,1,100,0.000
1576860878.957201,660208.000,49095,3,GY,1,100,0.031
1576860878.999866,660244.000,49095,3,GY,1,100,0.122
1576860879.040952,660278.667,49114,3,GY,1,100,0.244
1576860879.082037,660313.333,49114,3,GY,1,100,-0.641
1576860879.123122,660348.000,49114,3,GY,1,100,-0.458
1576860879.164010,660382.500,49132,2,GY,1,100,-0.061
1576860879.204897,660417.000,49132,2,GY,1,100,-0.977
1576860879.246377,660452.000,49150,3,GY,1,100,-0.488
1576860879.287858,660487.000,49150,3,GY,1,100,0.763
1576860879.329338,660522.000,49150,3,GY,1,100,1.038
1576860879.367262,660554.000,49167,3,GY,1,100,0.702
1576860879.405187,660586.000,49167,3,GY,1,100,0.977
1576860879.443112,660618.000,49167,3,GY,1,100,0.946
1576860879.483802,660652.333,49185,3,GY,1,100,0.854
1576860879.524492,660686.667,49185,3,GY,1,100,0.366
1576860879.565182,660721.000,49185,3,GY,1,100,-1.068
1576860879.602810,660752.750,49203,4,GY,1,100,-2.594
1576860879.640439,660784.500,49203,4,GY,1,100,-1.770
1576860879.678067,660816.250,49203,4,GY,1,100,-1.160
1576860879.715696,660848.000,49203,4,GY,1,100,-1.495
1576860879.755991,660882.000,49219,3,GY,1,100,0.397
1576860879.796286,660916.000,49219,3,GY,1,100,1.862
1576860879.836581,660950.000,49219,3,GY,1,100,1.862
1576860879.883394,660989.500,49237,2,GY,1,100,0.000
1576860879.930207,661029.000,49237,2,GY,1,100,-0.854
1576860879.970502,661063.000,49256,3,GY,1,100,-0.244
1576860880.010798,661097.000,49256,3,GY,1,100,-0.580
1576860880.051092,661131.000,49256,3,GY,1,100,-0.946
1576860880.092178,661165.667,49274,3,GY,1,100,-1.007
1576860880.133263,661200.333,49274,3,GY,1,100,0.305
1576860880.174348,661235.000,49274,3,GY,1,100,1.312
1576860880.211483,661266.333,49292,3,GY,1,100,1.740
1576860880.248617,661297.667,49292,3,GY,1,100,2.106
1576860880.285752,661329.000,49292,3,GY,1,100,0.916
1576860880.324071,661361.333,49310,3,GY,1,100,-0.519
1576860880.362391,661393.667,49310,3,GY,1,100,-1.068
1576860880.400711,661426.000,49310,3,GY,1,100,-0.977
1576860880.446142,661464.333,49328,3,GY,1,100,-0.275
1576860880.491572,661502.667,49328,3,GY,1,100,-0.427
1576860880.537003,661541.000,49328,3,GY,1,100,-0.092
1576860880.577693,661575.333,49346,3,GY,1,100,0.916
1576860880.618383,661609.667,49346,3,GY,1,100,0.824
1576860880.659073,661644.000,49346,3,GY,1,100,-0.488
1576860880.699763,661678.333,49363,3,GY,1,100,-0.305
1576860880.740453,661712.667,49363,3,GY,1,100,0.519
1576860880.781143,661747.000,49363,3,GY,1,100,0.549
1576860880.819068,661779.000,49381,3,GY,1,100,-0.458
1576860880.856993,661811.000,49381,3,GY,1,100,0.183
1576860880.894917,661843.000,49381,3,GY,1,100,0.549
1576860880.933237,661875.333,49399,3,GY,1,100,-0.336
1576860880.971557,661907.667,49399,3,GY,1,100,0.000
1576860881.009877,661940.000,49399,3,GY,1,100,0.458
1576860881.050567,661974.333,49416,3,GY,1,100,0.122
1576860881.091257,662008.667,49416,3,GY,1,100,0.061
1576860881.131947,662043.000,49416,3,GY,1,100,-0.092
1576860881.176588,662080.667,49434,3,GY,1,100,0.397
1576860881.221228,662118.333,49434,3,GY,1,100,0.519
1576860881.265869,662156.000,49434,3,GY,1,100,-0.031
1576860881.306954,662190.667,49452,3,GY,1,100,0.092
1576860881.348039,662225.333,49452,3,GY,1,100,-0.305
1576860881.389124,662260.000,49452,3,GY,1,100,-0.702
1576860881.425864,662291.000,49470,3,GY,1,100,0.793
1576860881.462603,662322.000,49470,3,GY,1,100,0.305
1576860881.499343,662353.000,49470,3,GY,1,100,-1.160
1576860881.538848,662386.333,49488,3,GY,1,100,0.763
1576860881.578353,662419.667,49488,3,GY,1,100,0.885
1576860881.617858,662453.000,49488,3,GY,1,100,-0.397
1576860881.661708,662490.000,49506,3,GY,1,100,-0.153
1576860881.705559,662527.000,49506,3,GY,1,100,-0.610
1576860881.749409,662564.000,49506,3,GY,1,100,-0.092
1576860881.787729,662596.333,49524,3,GY,1,100,0.793
1576860881.826049,662628.667,49524,3,GY,1,100,0.336
1576860881.864368,662661.000,49524,3,GY,1,100,-0.214
1576860881.909997,662699.500,49541,2,GY,1,100,0.183
1576860881.955625,662738.000,49541,2,GY,1,100,-0.305
1576860881.994142,662770.500,49560,4,GY,1,100,0.031
1576860882.032659,662803.000,49560,4,GY,1,100,0.183
1576860882.071177,662835.500,49560,4,GY,1,100,-0.427
1576860882.109694,662868.000,49560,4,GY,1,100,-0.244
1576860882.156507,662907.500,49576,2,GY,1,100,0.183
1576860882.203321,662947.000,49576,2,GY,1,100,0.519
1576860882.241245,662979.000,49594,3,GY,1,100,0.854
1576860882.279170,663011.000,49594,3,GY,1,100,-0.092
1576860882.317095,663043.000,49594,3,GY,1,100,-0.183
1576860882.362130,663081.000,49612,3,GY,1,100,-0.092
1576860882.407166,663119.000,49612,3,GY,1,100,-0.305
1576860882.452202,663157.000,49612,3,GY,1,100,-0.092
1576860882.489336,663188.333,49630,3,GY,1,100,-0.183
1576860882.526471,663219.667,49630,3,GY,1,100,0.244
1576860882.563605,663251.000,49630,3,GY,1,100,0.305
1576860882.606271,663287.000,49648,3,GY,1,100,0.122
1576860882.648936,663323.000,49648,3,GY,1,100,-0.244
1576860882.691601,663359.000,49648,3,GY,1,100,-0.214
1576860882.735452,663396.000,49665,3,GY,1,100,-0.092
1576860882.779302,663433.000,49665,3,GY,1,100,0.427
1576860882.823153,663470.000,49665,3,GY,1,100,0.031
1576860882.864238,663504.667,49683,3,GY,1,100,-0.031
1576860882.905323,663539.333,49683,3,GY,1,100,-0.549
1576860882.946408,663574.000,49683,3,GY,1,100,-0.153
1576860882.987493,663608.667,49699,3,GY,1,100,0.610
1576860883.028578,663643.333,49699,3,GY,1,100,0.122
1576860883.069663,663678.000,49699,3,GY,1,100,-0.092
1576860883.111440,663713.250,49721,4,GY,1,100,0.244
1576860883.153216,663748.500,49721,4,GY,1,100,-0.366
1576860883.194993,663783.750,49721,4,GY,1,100,-0.427
1576860883.236769,663819.000,49721,4,GY,1,100,-0.244
1576860883.275484,663851.667,49741,3,GY,1,100,0.244
1576860883.314199,663884.333,49741,3,GY,1,100,0.671
1576860883.352914,663917.000,49741,3,GY,1,100,0.153
1576860883.391629,663949.667,49758,3,GY,1,100,0.122
1576860883.430343,663982.333,49758,3,GY,1,100,0.153
1576860883.469058,664015.000,49758,3,GY,1,100,0.366
1576860883.508563,664048.333,49776,3,GY,1,100,0.488
1576860883.548068,664081.667,49776,3,GY,1,100,-0.122
1576860883.587573,664115.000,49776,3,GY,1,100,-0.122
1576860883.628263,664149.333,49792,3,GY,1,100,-0.275
1576860883.668953,664183.667,49792,3,GY,1,100,-0.305
1576860883.709643,664218.000,49792,3,GY,1,100,0.092
1576860883.749938,664252.000,49810,3,GY,1,100,-0.183
1576860883.790233,664286.000,49810,3,GY,1,100,0.427
1576860883.830528,664320.000,49810,3,GY,1,100,0.458
1576860883.875564,664358.000,49828,3,GY,1,100,0.305
1576860883.920599,664396.000,49828,3,GY,1,100,0.244
1576860883.965635,664434.000,49828,3,GY,1,100,-0.275
1576860884.006325,664468.333,49847,3,GY,1,100,-0.275
1576860884.047015,664502.667,49847,3,GY,1,100,-0.092
1576860884.087705,664537.000,49847,3,GY,1,100,0.092
1576860884.126420,664569.667,49865,3,GY,1,100,0.275
1576860884.165135,664602.333,49865,3,GY,1,100,0.305
1576860884.203850,664635.000,49865,3,GY,1,100,0.397
1576860884.241379,664666.667,49883,3,GY,1,100,0.000
1576860884.278909,664698.333,49883,3,GY,1,100,-0.153
1576860884.316439,664730.000,49883,3,GY,1,100,-0.244
1576860884.356339,664763.667,49901,3,GY,1,100,-1.099
