EpochTimestamp,EmotiBitTimestamp,PacketNumber,DataLength,TypeTag,ProtocolVersion,DataReliability,GZ
1576860792.447354,587213.000,36282,9,GZ,1,100,-1.556
1576860792.447354,587213.000,36282,9,GZ,1,100,-0.610
1576860792.447354,587213.000,36282,9,GZ,1,100,0.519
1576860792.447354,587213.000,36282,9,GZ,1,100,0.519
1576860792.447354,587213.000,36282,9,GZ,1,100,1.373
1576860792.447354,587213.000,36282,9,GZ,1,100,0.397
1576860792.447354,587213.000,36282,9,GZ,1,100,-0.397
1576860792.447354,587213.000,36282,9,GZ,1,100,0.336
1576860792.447354,587213.000,36282,9,GZ,1,100,0.427
1576860792.487649,587247.000,36300,3,GZ,1,100,0.183
1576860792.527944,587281.000,36300,3,GZ,1,100,0.854
1576860792.568239,587315.000,36300,3,GZ,1,100,0.793
1576860792.605768,587346.667,36318,3,GZ,1,100,0.275
1576860792.643298,587378.333,36318,3,GZ,1,100,-0.031
1576860792.680828,587410.000,36318,3,GZ,1,100,-0.519
1576860792.721123,587444.000,36336,3,GZ,1,100,0.336
1576860792.761418,587478.000,36336,3,GZ,1,100,-0.153
1576860792.801713,587512.000,36336,3,GZ,1,100,0.549
1576860792.840033,587544.333,36354,3,GZ,1,100,0.488
1576860792.878352,587576.667,36354,3,GZ,1,100,0.061
1576860792.916672,587609.000,36354,3,GZ,1,100,0.458
1576860792.954597,587641.000,36372,3,GZ,1,100,0.214
1576860792.992522,587673.000,36372,3,GZ,1,100,0.275
1576860793.030446,587705.000,36372,3,GZ,1,100,0.366
1576860793.071532,587739.667,36391,3,GZ,1,100,0.275
1576860793.112617,587774.333,36391,3,GZ,1,100,0.885
1576860793.153702,587809.000,36391,3,GZ,1,100,0.366
1576860793.194787,587843.667,36409,3,GZ,1,100,-0.061
1576860793.235872,587878.333,36409,3,GZ,1,100,0.336
1576860793.276957,587913.000,36409,3,GZ,1,100,-0.092
1576860793.318832,587948.333,36426,3,GZ,1,100,0.305
1576860793.360708,587983.667,36426,3,GZ,1,100,0.153
1576860793.402583,588019.000,36426,3,GZ,1,100,-0.275
1576860793.443668,588053.667,36442,3,GZ,1,100,0.122
1576860793.484753,588088.333,36442,3,GZ,1,100,0.732
1576860793.525838,588123.000,36442,3,GZ,1,100,0.183
1576860793.572651,588162.500,36460,2,GZ,1,100,0.305
1576860793.619465,588202.000,36460,2,GZ,1,100,0.366
1576860793.657093,588233.750,36478,4,GZ,1,100,-0.122
1576860793.694721,588265.500,36478,4,GZ,1,100,-0.214
1576860793.732350,588297.250,36478,4,GZ,1,100,0.549
1576860793.769979,588329.000,36478,4,GZ,1,100,0.061
1576860793.808693,588361.667,36496,3,GZ,1,100,0.427
1576860793.847408,588394.333,36496,3,GZ,1,100,1.160
1576860793.886123,588427.000,36496,3,GZ,1,100,0.854
1576860793.927011,588461.500,36514,2,GZ,1,100,-0.153
1576860793.967898,588496.000,36514,2,GZ,1,100,0.824
1576860794.008489,588530.250,36532,4,GZ,1,100,0.854
1576860794.049081,588564.500,36532,4,GZ,1,100,0.153
1576860794.089672,588598.750,36532,4,GZ,1,100,0.488
1576860794.130263,588633.000,36532,4,GZ,1,100,0.580
1576860794.172929,588669.000,36551,2,GZ,1,100,0.458
1576860794.215594,588705.000,36551,2,GZ,1,100,0.427
1576860794.256284,588739.333,36569,3,GZ,1,100,0.122
1576860794.296974,588773.667,36569,3,GZ,1,100,0.183
1576860794.337664,588808.000,36569,3,GZ,1,100,0.824
1576860794.376774,588841.000,36587,4,GZ,1,100,0.153
1576860794.415884,588874.000,36587,4,GZ,1,100,0.702
1576860794.454994,588907.000,36587,4,GZ,1,100,1.129
1576860794.494104,588940.000,36587,4,GZ,1,100,1.068
1576860794.534991,588974.500,36604,2,GZ,1,100,0.549
1576860794.575879,589009.000,36604,2,GZ,1,100,0.092
1576860794.617359,589044.000,36622,3,GZ,1,100,0.153
1576860794.658839,589079.000,36622,3,GZ,1,100,0.397
1576860794.700319,589114.000,36622,3,GZ,1,100,0.336
1576860794.742194,589149.333,36638,3,GZ,1,100,0.702
1576860794.784070,589184.667,36638,3,GZ,1,100,0.153
1576860794.825945,589220.000,36638,3,GZ,1,100,0.153
1576860794.867030,589254.667,36656,3,GZ,1,100,0.061
1576860794.908115,589289.333,36656,3,GZ,1,100,-0.244
1576860794.949200,589324.000,36656,3,GZ,1,100,0.275
1576860794.986335,589355.333,36674,3,GZ,1,100,-0.183
1576860795.023469,589386.667,36674,3,GZ,1,100,0.122
1576860795.060604,589418.000,36674,3,GZ,1,100,-0.183
1576860795.100899,589452.000,36693,3,GZ,1,100,-0.336
1576860795.141194,589486.000,36693,3,GZ,1,100,0.488
1576860795.181489,589520.000,36693,3,GZ,1,100,0.000
1576860795.222574,589554.667,36711,3,GZ,1,100,0.427
1576860795.263659,589589.333,36711,3,GZ,1,100,-0.183
1576860795.304744,589624.000,36711,3,GZ,1,100,0.092
1576860795.345435,589658.333,36729,3,GZ,1,100,-0.031
1576860795.386125,589692.667,36729,3,GZ,1,100,0.122
1576860795.426815,589727.000,36729,3,GZ,1,100,0.488
1576860795.469085,589762.667,36747,3,GZ,1,100,0.397
1576860795.511355,589798.333,36747,3,GZ,1,100,-0.031
1576860795.553626,589834.000,36747,3,GZ,1,100,0.092
1576860795.591945,589866.333,36765,3,GZ,1,100,0.122
1576860795.630265,589898.667,36765,3,GZ,1,100,0.549
1576860795.668585,589931.000,36765,3,GZ,1,100,0.580
1576860795.708880,589965.000,36782,3,GZ,1,100,0.305
1576860795.749175,589999.000,36782,3,GZ,1,100,0.153
1576860795.789470,590033.000,36782,3,GZ,1,100,0.183
1576860795.828975,590066.333,36800,3,GZ,1,100,0.000
1576860795.868480,590099.667,36800,3,GZ,1,100,0.061
1576860795.907985,590133.000,36800,3,GZ,1,100,-0.031
1576860795.946699,590165.667,36818,3,GZ,1,100,0.092
1576860795.985414,590198.333,36818,3,GZ,1,100,0.519
1576860796.024129,590231.000,36818,3,GZ,1,100,0.519
1576860796.060869,590262.000,36835,3,GZ,1,100,0.458
1576860796.097608,590293.000,36835,3,GZ,1,100,-0.214
1576860796.134348,590324.000,36835,3,GZ,1,100,0.244
1576860796.175433,590358.667,36853,3,GZ,1,100,0.092
1576860796.216518,590393.333,36853,3,GZ,1,100,-0.885
1576860796.257603,590428.000,36853,3,GZ,1,100,-0.336
1576860796.296318,590460.667,36871,3,GZ,1,100,-0.153
1576860796.335033,590493.333,36871,3,GZ,1,100,-0.031
1576860796.373748,590526.000,36871,3,GZ,1,100,0.580
1576860796.410487,590557.000,36889,4,GZ,1,100,0.031
1576860796.447227,590588.000,36889,4,GZ,1,100,0.427
1576860796.483966,590619.000,36889,4,GZ,1,100,0.458
1576860796.520706,590650.000,36889,4,GZ,1,100,0.275
1576860796.561396,590684.333,36907,3,GZ,1,100,0.580
1576860796.602086,590718.667,36907,3,GZ,1,100,0.031
1576860796.642776,590753.000,36907,3,GZ,1,100,0.061
1576860796.681886,590786.000,36925,3,GZ,1,100,0.061
1576860796.720996,590819.000,36925,3,GZ,1,100,0.488
1576860796.760106,590852.000,36925,3,GZ,1,100,0.183
1576860796.801586,590887.000,36943,2,GZ,1,100,0.427
1576860796.843066,590922.000,36943,2,GZ,1,100,0.000
1576860796.884151,590956.667,36961,3,GZ,1,100,-0.458
1576860796.925236,590991.333,36961,3,GZ,1,100,-0.122
1576860796.966321,591026.000,36961,3,GZ,1,100,-0.275
1576860797.007802,591061.000,36979,3,GZ,1,100,-4.913
1576860797.049282,591096.000,36979,3,GZ,1,100,-16.815
1576860797.090762,591131.000,36979,3,GZ,1,100,-36.163
1576860797.131452,591165.333,36997,3,GZ,1,100,-61.768
1576860797.172142,591199.667,36997,3,GZ,1,100,-87.036
1576860797.212832,591234.000,36997,3,GZ,1,100,-91.492
1576860797.253127,591268.000,37013,3,GZ,1,100,-70.831
1576860797.293422,591302.000,37013,3,GZ,1,100,-64.423
1576860797.333717,591336.000,37013,3,GZ,1,100,-66.589
1576860797.374802,591370.667,37031,3,GZ,1,100,-62.927
1576860797.415887,591405.333,37031,3,GZ,1,100,-50.476
1576860797.456973,591440.000,37031,3,GZ,1,100,-45.135
1576860797.493119,591470.500,37049,4,GZ,1,100,-47.272
1576860797.529267,591501.000,37049,4,GZ,1,100,-40.466
1576860797.565413,591531.500,37049,4,GZ,1,100,-23.834
1576860797.601561,591562.000,37049,4,GZ,1,100,-27.069
1576860797.640078,591594.500,37067,2,GZ,1,100,-30.518
1576860797.678595,591627.000,37067,2,GZ,1,100,-37.018
1576860797.720865,591662.667,37085,3,GZ,1,100,-48.645
1576860797.763136,591698.333,37085,3,GZ,1,100,-46.021
1576860797.805406,591734.000,37085,3,GZ,1,100,-50.018
1576860797.846096,591768.333,37103,3,GZ,1,100,-50.476
1576860797.886786,591802.667,37103,3,GZ,1,100,-42.206
1576860797.927476,591837.000,37103,3,GZ,1,100,-44.586
1576860797.968166,591871.333,37121,3,GZ,1,100,-58.441
1576860798.008856,591905.667,37121,3,GZ,1,100,-67.688
1576860798.049546,591940.000,37121,3,GZ,1,100,-72.662
1576860798.089841,591974.000,37140,3,GZ,1,100,-54.810
1576860798.130136,592008.000,37140,3,GZ,1,100,-20.447
1576860798.170431,592042.000,37140,3,GZ,1,100,-1.862
1576860798.211122,592076.333,37158,3,GZ,1,100,17.822
1576860798.251812,592110.667,37158,3,GZ,1,100,27.405
1576860798.292502,592145.000,37158,3,GZ,1,100,-233.551
1576860798.332797,592179.000,37179,5,GZ,1,100,21.790
1576860798.373092,592213.000,37179,5,GZ,1,100,38.330
1576860798.413387,592247.000,37179,5,GZ,1,100,5.920
1576860798.453682,592281.000,37179,5,GZ,1,100,26.184
1576860798.493977,592315.000,37179,5,GZ,1,100,42.023
1576860798.535062,592349.667,37199,3,GZ,1,100,25.726
1576860798.576147,592384.333,37199,3,GZ,1,100,20.996
1576860798.617232,592419.000,37199,3,GZ,1,100,-18.372
1576860798.658712,592454.000,37217,3,GZ,1,100,-148.163
1576860798.700192,592489.000,37217,3,GZ,1,100,92.896
1576860798.741673,592524.000,37217,3,GZ,1,100,-23.621
1576860798.779202,592555.667,37235,3,GZ,1,100,3.479
1576860798.816732,592587.333,37235,3,GZ,1,100,-3.174
1576860798.854262,592619.000,37235,3,GZ,1,100,14.771
1576860798.892581,592651.333,37253,3,GZ,1,100,16.998
1576860798.930901,592683.667,37253,3,GZ,1,100,17.365
1576860798.969221,592716.000,37253,3,GZ,1,100,9.827
1576860799.013071,592753.000,37271,3,GZ,1,100,-26.550
1576860799.056922,592790.000,37271,3,GZ,1,100,-81.940
1576860799.100772,592827.000,37271,3,GZ,1,100,88.501
1576860799.141857,592861.667,37289,3,GZ,1,100,-39.062
1576860799.182942,592896.333,37289,3,GZ,1,100,24.475
1576860799.224028,592931.000,37289,3,GZ,1,100,21.881
1576860799.264718,592965.333,37305,3,GZ,1,100,4.242
1576860799.305408,592999.667,37305,3,GZ,1,100,34.302
1576860799.346098,593034.000,37305,3,GZ,1,100,74.554
1576860799.384813,593066.667,37323,3,GZ,1,100,103.149
1576860799.423527,593099.333,37323,3,GZ,1,100,133.514
1576860799.462242,593132.000,37323,3,GZ,1,100,168.060
1576860799.502932,593166.333,37341,3,GZ,1,100,178.955
1576860799.543622,593200.667,37341,3,GZ,1,100,144.196
1576860799.584312,593235.000,37341,3,GZ,1,100,78.766
1576860799.622237,593267.000,37359,3,GZ,1,100,24.445
1576860799.660162,593299.000,37359,3,GZ,1,100,45.197
1576860799.698087,593331.000,37359,3,GZ,1,100,44.586
1576860799.740357,593366.667,37377,3,GZ,1,100,33.630
1576860799.782627,593402.333,37377,3,GZ,1,100,48.828
1576860799.824897,593438.000,37377,3,GZ,1,100,50.110
1576860799.860847,593468.333,37395,3,GZ,1,100,63.782
1576860799.896796,593498.667,37395,3,GZ,1,100,39.764
1576860799.932746,593529.000,37395,3,GZ,1,100,36.072
1576860799.976991,593566.333,37413,3,GZ,1,100,60.974
1576860800.021237,593603.667,37413,3,GZ,1,100,37.567
1576860800.065482,593641.000,37413,3,GZ,1,100,36.957
1576860800.103407,593673.000,37432,3,GZ,1,100,27.191
1576860800.141332,593705.000,37432,3,GZ,1,100,17.395
1576860800.179256,593737.000,37432,3,GZ,1,100,22.827
1576860800.217181,593769.000,37450,3,GZ,1,100,10.956
1576860800.255106,593801.000,37450,3,GZ,1,100,9.857
1576860800.293031,593833.000,37450,3,GZ,1,100,7.172
1576860800.334116,593867.667,37467,3,GZ,1,100,-0.977
1576860800.375201,593902.333,37467,3,GZ,1,100,2.808
1576860800.416286,593937.000,37467,3,GZ,1,100,7.294
1576860800.457766,593972.000,37485,3,GZ,1,100,6.866
1576860800.499246,594007.000,37485,3,GZ,1,100,0.488
1576860800.540726,594042.000,37485,3,GZ,1,100,0.214
1576860800.581812,594076.667,37501,3,GZ,1,100,3.204
1576860800.622897,594111.333,37501,3,GZ,1,100,4.517
1576860800.663982,594146.000,37501,3,GZ,1,100,3.326
1576860800.705462,594181.000,37519,2,GZ,1,100,-3.204
1576860800.746942,594216.000,37519,2,GZ,1,100,0.977
1576860800.788027,594250.667,37537,3,GZ,1,100,0.244
1576860800.829113,594285.333,37537,3,GZ,1,100,-2.747
1576860800.870198,594320.000,37537,3,GZ,1,100,-0.427
1576860800.912073,594355.333,37555,3,GZ,1,100,0.031
1576860800.953948,594390.667,37555,3,GZ,1,100,-1.099
1576860800.995823,594426.000,37555,3,GZ,1,100,0.519
1576860801.033748,594458.000,37574,3,GZ,1,100,1.312
1576860801.071673,594490.000,37574,3,GZ,1,100,0.214
1576860801.109597,594522.000,37574,3,GZ,1,100,-0.702
1576860801.148312,594554.667,37592,3,GZ,1,100,-0.549
1576860801.187027,594587.333,37592,3,GZ,1,100,-0.580
1576860801.225742,594620.000,37592,3,GZ,1,100,0.031
1576860801.265148,594653.250,37610,4,GZ,1,100,0.122
1576860801.304554,594686.500,37610,4,GZ,1,100,-0.275
1576860801.343960,594719.750,37610,4,GZ,1,100,-0.854
1576860801.383367,594753.000,37610,4,GZ,1,100,-0.519
1576860801.423661,594787.000,37627,2,GZ,1,100,1.160
1576860801.463957,594821.000,37627,2,GZ,1,100,1.038
1576860801.507807,594858.000,37645,3,GZ,1,100,-0.122
1576860801.551657,594895.000,37645,3,GZ,1,100,-1.251
1576860801.595508,594932.000,37645,3,GZ,1,100,-0.885
1576860801.636198,594966.333,37663,3,GZ,1,100,0.000
1576860801.676888,595000.667,37663,3,GZ,1,100,-0.183
1576860801.717578,595035.000,37663,3,GZ,1,100,-0.397
1576860801.758268,595069.333,37679,3,GZ,1,100,-0.671
1576860801.798958,595103.667,37679,3,GZ,1,100,-0.946
1576860801.839648,595138.000,37679,3,GZ,1,100,-0.519
1576860801.877573,595170.000,37697,3,GZ,1,100,0.671
1576860801.915498,595202.000,37697,3,GZ,1,100,-0.763
1576860801.953423,595234.000,37697,3,GZ,1,100,0.183
1576860801.990952,595265.667,37716,3,GZ,1,100,-0.458
1576860802.028482,595297.333,37716,3,GZ,1,100,1.892
1576860802.066011,595329.000,37716,3,GZ,1,100,0.732
1576860802.110257,595366.333,37734,3,GZ,1,100,-1.007
1576860802.154502,595403.667,37734,3,GZ,1,100,1.404
1576860802.198748,595441.000,37734,3,GZ,1,100,4.059
1576860802.240228,595476.000,37752,3,GZ,1,100,1.648
1576860802.281708,595511.000,37752,3,GZ,1,100,-0.275
1576860802.323189,595546.000,37752,3,GZ,1,100,-2.930
1576860802.364669,595581.000,37770,3,GZ,1,100,-1.862
1576860802.406149,595616.000,37770,3,GZ,1,100,1.099
1576860802.447629,595651.000,37770,3,GZ,1,100,-0.092
1576860802.485554,595683.000,37788,3,GZ,1,100,1.617
1576860802.523479,595715.000,37788,3,GZ,1,100,-0.488
1576860802.561403,595747.000,37788,3,GZ,1,100,-0.183
1576860802.599328,595779.000,37806,3,GZ,1,100,0.214
1576860802.637253,595811.000,37806,3,GZ,1,100,-0.244
1576860802.675177,595843.000,37806,3,GZ,1,100,-1.312
1576860802.719423,595880.333,37823,3,GZ,1,100,-2.136
1576860802.763668,595917.667,37823,3,GZ,1,100,1.495
1576860802.807914,595955.000,37823,3,GZ,1,100,0.671
1576860802.848999,595989.667,37841,3,GZ,1,100,-0.488
1576860802.890084,596024.333,37841,3,GZ,1,100,1.831
1576860802.931169,596059.000,37841,3,GZ,1,100,0.305
1576860802.972649,596094.000,37857,3,GZ,1,100,-0.244
1576860803.014130,596129.000,37857,3,GZ,1,100,0.977
1576860803.055610,596164.000,37857,3,GZ,1,100,0.031
1576860803.093139,596195.667,37876,3,GZ,1,100,0.610
1576860803.130669,596227.333,37876,3,GZ,1,100,1.129
1576860803.168199,596259.000,37876,3,GZ,1,100,0.275
1576860803.206123,596291.000,37894,3,GZ,1,100,0.977
1576860803.244048,596323.000,37894,3,GZ,1,100,-0.092
1576860803.281973,596355.000,37894,3,GZ,1,100,0.305
1576860803.325033,596391.333,37912,3,GZ,1,100,0.763
1576860803.368094,596427.667,37912,3,GZ,1,100,0.641
1576860803.411154,596464.000,37912,3,GZ,1,100,0.122
1576860803.448289,596495.333,37930,3,GZ,1,100,0.336
1576860803.485423,596526.667,37930,3,GZ,1,100,0.580
1576860803.522558,596558.000,37930,3,GZ,1,100,0.244
1576860803.567199,596595.667,37948,3,GZ,1,100,0.641
1576860803.611839,596633.333,37948,3,GZ,1,100,-0.092
1576860803.656480,596671.000,37948,3,GZ,1,100,1.068
1576860803.692429,596701.333,37966,3,GZ,1,100,1.343
1576860803.728379,596731.667,37966,3,GZ,1,100,1.038
1576860803.764328,596762.000,37966,3,GZ,1,100,0.549
1576860803.805808,596797.000,37983,3,GZ,1,100,-0.214
1576860803.847288,596832.000,37983,3,GZ,1,100,0.702
1576860803.888768,596867.000,37983,3,GZ,1,100,0.061
1576860803.928668,596900.667,38001,3,GZ,1,100,-0.214
1576860803.968568,596934.333,38001,3,GZ,1,100,0.519
1576860804.008468,596968.000,38001,3,GZ,1,100,0.275
1576860804.048763,597002.000,38020,3,GZ,1,100,-0.427
1576860804.089058,597036.000,38020,3,GZ,1,100,0.122
1576860804.129354,597070.000,38020,3,GZ,1,100,-0.061
1576860804.170241,597104.500,38036,2,GZ,1,100,-0.397
1576860804.211129,597139.000,38036,2,GZ,1,100,0.031
1576860804.251424,597173.000,38054,4,GZ,1,100,-0.153
1576860804.291719,597207.000,38054,4,GZ,1,100,0.031
1576860804.332014,597241.000,38054,4,GZ,1,100,0.061
1576860804.372309,597275.000,38054,4,GZ,1,100,0.519
1576860804.416159,597312.000,38075,4,GZ,1,100,0.275
1576860804.460010,597349.000,38075,4,GZ,1,100,-0.427
1576860804.503860,597386.000,38075,4,GZ,1,100,0.244
1576860804.547710,597423.000,38075,4,GZ,1,100,0.427
1576860804.588796,597457.667,38095,3,GZ,1,100,0.671
1576860804.629881,597492.333,38095,3,GZ,1,100,0.885
1576860804.670966,597527.000,38095,3,GZ,1,100,-0.305
1576860804.710866,597560.667,38111,3,GZ,1,100,-0.122
1576860804.750766,597594.333,38111,3,GZ,1,100,-0.122
1576860804.790666,597628.000,38111,3,GZ,1,100,-0.519
1576860804.828985,597660.333,38129,3,GZ,1,100,0.183
1576860804.867305,597692.667,38129,3,GZ,1,100,0.275
1576860804.905625,597725.000,38129,3,GZ,1,100,0.214
1576860804.945525,597758.667,38147,3,GZ,1,100,0.214
1576860804.985425,597792.333,38147,3,GZ,1,100,0.366
1576860805.025325,597826.000,38147,3,GZ,1,100,0.702
1576860805.065225,597859.667,38166,3,GZ,1,100,0.610
1576860805.105125,597893.333,38166,3,GZ,1,100,0.824
1576860805.145025,597927.000,38166,3,GZ,1,100,-0.122
1576860805.185320,597961.000,38184,3,GZ,1,100,0.214
1576860805.225615,597995.000,38184,3,GZ,1,100,0.336
1576860805.265910,598029.000,38184,3,GZ,1,100,0.671
1576860805.310550,598066.667,38202,3,GZ,1,100,0.061
1576860805.355191,598104.333,38202,3,GZ,1,100,-0.092
1576860805.399832,598142.000,38202,3,GZ,1,100,0.336
1576860805.440127,598176.000,38220,2,GZ,1,100,0.153
1576860805.480422,598210.000,38220,2,GZ,1,100,0.153
1576860805.520124,598243.500,38237,4,GZ,1,100,0.366
1576860805.559827,598277.000,38237,4,GZ,1,100,0.610
1576860805.599529,598310.500,38237,4,GZ,1,100,0.549
1576860805.639231,598344.000,38237,4,GZ,1,100,0.214
1576860805.677156,598376.000,38255,3,GZ,1,100,-0.122
1576860805.715081,598408.000,38255,3,GZ,1,100,-0.031
1576860805.753006,598440.000,38255,3,GZ,1,100,0.061
1576860805.792115,598473.000,38273,3,GZ,1,100,0.092
1576860805.831225,598506.000,38273,3,GZ,1,100,0.488
1576860805.870335,598539.000,38273,3,GZ,1,100,0.336
1576860805.918334,598579.500,38289,2,GZ,1,100,0.763
1576860805.966332,598620.000,38289,2,GZ,1,100,0.641
1576860806.007022,598654.333,38308,3,GZ,1,100,0.244
1576860806.047712,598688.667,38308,3,GZ,1,100,0.336
1576860806.088402,598723.000,38308,3,GZ,1,100,0.549
1576860806.129092,598757.333,38326,3,GZ,1,100,0.488
1576860806.169782,598791.667,38326,3,GZ,1,100,-0.092
1576860806.210473,598826.000,38326,3,GZ,1,100,-0.061
1576860806.248397,598858.000,38344,3,GZ,1,100,0.427
1576860806.286322,598890.000,38344,3,GZ,1,100,1.129
1576860806.324247,598922.000,38344,3,GZ,1,100,0.763
1576860806.363060,598954.750,38362,4,GZ,1,100,0.641
1576860806.401874,598987.500,38362,4,GZ,1,100,0.519
1576860806.440687,599020.250,38362,4,GZ,1,100,0.183
1576860806.479501,599053.000,38362,4,GZ,1,100,0.183
1576860806.520389,599087.500,38380,2,GZ,1,100,0.458
1576860806.561276,599122.000,38380,2,GZ,1,100,0.519
1576860806.605917,599159.667,38398,3,GZ,1,100,0.580
1576860806.650557,599197.333,38398,3,GZ,1,100,0.061
1576860806.695198,599235.000,38398,3,GZ,1,100,0.671
1576860806.736283,599269.667,38415,3,GZ,1,100,0.916
1576860806.777368,599304.333,38415,3,GZ,1,100,0.305
1576860806.818453,599339.000,38415,3,GZ,1,100,0.031
1576860806.855193,599370.000,38433,3,GZ,1,100,0.214
1576860806.891932,599401.000,38433,3,GZ,1,100,0.092
1576860806.928672,599432.000,38433,3,GZ,1,100,0.214
1576860806.968177,599465.333,38452,3,GZ,1,100,0.092
1576860807.007682,599498.667,38452,3,GZ,1,100,0.610
1576860807.047187,599532.000,38452,3,GZ,1,100,0.977
1576860807.086692,599565.333,38470,3,GZ,1,100,-0.427
1576860807.126197,599598.667,38470,3,GZ,1,100,0.092
1576860807.165701,599632.000,38470,3,GZ,1,100,0.275
1576860807.207972,599667.667,38486,3,GZ,1,100,-0.214
1576860807.250242,599703.333,38486,3,GZ,1,100,0.153
1576860807.292512,599739.000,38486,3,GZ,1,100,0.305
1576860807.332807,599773.000,38504,3,GZ,1,100,0.275
1576860807.373102,599807.000,38504,3,GZ,1,100,0.183
1576860807.413397,599841.000,38504,3,GZ,1,100,-0.183
1576860807.458038,599878.667,38522,3,GZ,1,100,0.214
1576860807.502678,599916.333,38522,3,GZ,1,100,0.580
1576860807.547319,599954.000,38522,3,GZ,1,100,0.061
1576860807.587614,599988.000,38540,3,GZ,1,100,0.122
1576860807.627909,600022.000,38540,3,GZ,1,100,0.397
1576860807.668204,600056.000,38540,3,GZ,1,100,0.061
1576860807.710474,600091.667,38558,3,GZ,1,100,0.153
1576860807.752745,600127.333,38558,3,GZ,1,100,-0.031
1576860807.795015,600163.000,38558,3,GZ,1,100,0.000
1576860807.834717,600196.500,38575,2,GZ,1,100,0.488
1576860807.874420,600230.000,38575,2,GZ,1,100,0.366
1576860807.916690,600265.667,38593,3,GZ,1,100,-0.183
1576860807.958960,600301.333,38593,3,GZ,1,100,0.153
1576860808.001230,600337.000,38593,3,GZ,1,100,-0.305
1576860808.042711,600372.000,38610,3,GZ,1,100,-0.366
1576860808.084191,600407.000,38610,3,GZ,1,100,0.153
1576860808.125671,600442.000,38610,3,GZ,1,100,-0.397
1576860808.167151,600477.000,38628,3,GZ,1,100,-0.122
1576860808.208631,600512.000,38628,3,GZ,1,100,0.488
1576860808.250112,600547.000,38628,3,GZ,1,100,-0.153
1576860808.291197,600581.667,38646,3,GZ,1,100,0.000
1576860808.332282,600616.333,38646,3,GZ,1,100,0.244
1576860808.373367,600651.000,38646,3,GZ,1,100,0.214
1576860808.414847,600686.000,38664,3,GZ,1,100,-0.153
1576860808.456327,600721.000,38664,3,GZ,1,100,0.153
1576860808.497808,600756.000,38664,3,GZ,1,100,-0.092
1576860808.535337,600787.667,38682,3,GZ,1,100,0.244
1576860808.572867,600819.333,38682,3,GZ,1,100,-0.275
1576860808.610396,600851.000,38682,3,GZ,1,100,0.031
1576860808.649901,600884.333,38700,3,GZ,1,100,-0.031
1576860808.689406,600917.667,38700,3,GZ,1,100,0.061
1576860808.728911,600951.000,38700,3,GZ,1,100,0.336
1576860808.766836,600983.000,38718,3,GZ,1,100,0.153
1576860808.804761,601015.000,38718,3,GZ,1,100,0.397
1576860808.842685,601047.000,38718,3,GZ,1,100,0.275
1576860808.881400,601079.667,38736,3,GZ,1,100,0.183
1576860808.920115,601112.333,38736,3,GZ,1,100,0.702
1576860808.958830,601145.000,38736,3,GZ,1,100,0.702
1576860808.999915,601179.667,38754,3,GZ,1,100,0.397
1576860809.041000,601214.333,38754,3,GZ,1,100,0.183
1576860809.082085,601249.000,38754,3,GZ,1,100,0.092
1576860809.126726,601286.667,38772,3,GZ,1,100,-0.061
1576860809.171366,601324.333,38772,3,GZ,1,100,0.122
1576860809.216007,601362.000,38772,3,GZ,1,100,0.031
1576860809.254722,601394.667,38788,3,GZ,1,100,0.946
1576860809.293437,601427.333,38788,3,GZ,1,100,0.336
1576860809.332151,601460.000,38788,3,GZ,1,100,0.244
1576860809.377187,601498.000,38806,3,GZ,1,100,0.061
1576860809.422223,601536.000,38806,3,GZ,1,100,-0.092
1576860809.467258,601574.000,38806,3,GZ,1,100,0.275
1576860809.507158,601607.667,38824,3,GZ,1,100,0.641
1576860809.547058,601641.333,38824,3,GZ,1,100,0.610
1576860809.586958,601675.000,38824,3,GZ,1,100,-0.061
1576860809.624488,601706.667,38842,3,GZ,1,100,0.122
1576860809.662017,601738.333,38842,3,GZ,1,100,0.153
1576860809.699547,601770.000,38842,3,GZ,1,100,-0.061
1576860809.739052,601803.333,38860,3,GZ,1,100,-0.061
1576860809.778557,601836.667,38860,3,GZ,1,100,0.336
1576860809.818062,601870.000,38860,3,GZ,1,100,-0.214
1576860809.858357,601904.000,38878,3,GZ,1,100,0.092
1576860809.898652,601938.000,38878,3,GZ,1,100,1.617
1576860809.938947,601972.000,38878,3,GZ,1,100,1.038
1576860809.979834,602006.500,38896,2,GZ,1,100,0.244
1576860810.020722,602041.000,38896,2,GZ,1,100,-0.763
1576860810.065758,602079.000,38914,3,GZ,1,100,-0.397
1576860810.110793,602117.000,38914,3,GZ,1,100,0.610
1576860810.155829,602155.000,38914,3,GZ,1,100,0.000
1576860810.193161,602186.500,38932,4,GZ,1,100,-0.092
1576860810.230493,602218.000,38932,4,GZ,1,100,-0.214
1576860810.267825,602249.500,38932,4,GZ,1,100,-0.061
1576860810.305157,602281.000,38932,4,GZ,1,100,0.793
1576860810.344267,602314.000,38950,3,GZ,1,100,0.519
1576860810.383377,602347.000,38950,3,GZ,1,100,-0.061
1576860810.422487,602380.000,38950,3,GZ,1,100,0.671
1576860810.463967,602415.000,38971,4,GZ,1,100,3.448
1576860810.505447,602450.000,38971,4,GZ,1,100,13.062
1576860810.546927,602485.000,38971,4,GZ,1,100,17.578
1576860810.588408,602520.000,38971,4,GZ,1,100,24.017
1576860810.633048,602557.667,38991,3,GZ,1,100,14.709
1576860810.677689,602595.333,38991,3,GZ,1,100,4.150
1576860810.722329,602633.000,38991,3,GZ,1,100,5.524
1576860810.760649,602665.333,39008,3,GZ,1,100,-1.129
1576860810.798969,602697.667,39008,3,GZ,1,100,-3.143
1576860810.837289,602730.000,39008,3,GZ,1,100,-6.439
1576860810.874423,602761.333,39026,3,GZ,1,100,-6.592
1576860810.911558,602792.667,39026,3,GZ,1,100,-2.838
1576860810.948693,602824.000,39026,3,GZ,1,100,0.671
1576860810.988593,602857.667,39045,3,GZ,1,100,1.617
1576860811.028492,602891.333,39045,3,GZ,1,100,6.836
1576860811.068393,602925.000,39045,3,GZ,1,100,-19.592
1576860811.109082,602959.333,39061,3,GZ,1,100,-16.876
1576860811.149773,602993.667,39061,3,GZ,1,100,7.538
1576860811.190463,603028.000,39061,3,GZ,1,100,4.578
1576860811.231548,603062.667,39079,3,GZ,1,100,0.580
1576860811.272633,603097.333,39079,3,GZ,1,100,-3.357
1576860811.313718,603132.000,39079,3,GZ,1,100,-2.472
1576860811.356778,603168.333,39097,3,GZ,1,100,-1.678
1576860811.399839,603204.667,39097,3,GZ,1,100,-1.129
1576860811.442899,603241.000,39097,3,GZ,1,100,-1.129
1576860811.480034,603272.333,39115,3,GZ,1,100,-0.275
1576860811.517168,603303.667,39115,3,GZ,1,100,0.092
1576860811.554303,603335.000,39115,3,GZ,1,100,1.343
1576860811.596573,603370.667,39133,3,GZ,1,100,0.458
1576860811.638844,603406.333,39133,3,GZ,1,100,-0.641
1576860811.681114,603442.000,39133,3,GZ,1,100,0.397
1576860811.723384,603477.667,39151,3,GZ,1,100,0.458
1576860811.765654,603513.333,39151,3,GZ,1,100,-0.916
1576860811.807925,603549.000,39151,3,GZ,1,100,-1.160
1576860811.843874,603579.333,39169,3,GZ,1,100,-0.519
1576860811.879823,603609.667,39169,3,GZ,1,100,-0.916
1576860811.915773,603640.000,39169,3,GZ,1,100,-1.434
1576860811.958833,603676.333,39186,3,GZ,1,100,-0.305
1576860812.001894,603712.667,39186,3,GZ,1,100,-0.275
1576860812.044954,603749.000,39186,3,GZ,1,100,0.153
1576860812.082089,603780.333,39205,3,GZ,1,100,0.488
1576860812.119223,603811.667,39205,3,GZ,1,100,-0.305
1576860812.156358,603843.000,39205,3,GZ,1,100,-0.153
1576860812.198628,603878.667,39223,3,GZ,1,100,0.000
1576860812.240899,603914.333,39223,3,GZ,1,100,1.465
1576860812.283169,603950.000,39223,3,GZ,1,100,0.580
1576860812.320698,603981.667,39239,3,GZ,1,100,0.519
1576860812.358228,604013.333,39239,3,GZ,1,100,-0.366
1576860812.395758,604045.000,39239,3,GZ,1,100,-1.953
1576860812.435658,604078.667,39257,3,GZ,1,100,-0.732
1576860812.475558,604112.333,39257,3,GZ,1,100,-0.488
1576860812.515458,604146.000,39257,3,GZ,1,100,-0.702
1576860812.556543,604180.667,39275,3,GZ,1,100,0.305
1576860812.597628,604215.333,39275,3,GZ,1,100,-0.488
1576860812.638713,604250.000,39275,3,GZ,1,100,-0.702
1576860812.680193,604285.000,39293,3,GZ,1,100,0.153
1576860812.721673,604320.000,39293,3,GZ,1,100,0.671
1576860812.763154,604355.000,39293,3,GZ,1,100,0.092
1576860812.804239,604389.667,39311,3,GZ,1,100,-1.221
1576860812.845324,604424.333,39311,3,GZ,1,100,-1.099
1576860812.886409,604459.000,39311,3,GZ,1,100,0.702
1576860812.927889,604494.000,39329,3,GZ,1,100,0.763
1576860812.969369,604529.000,39329,3,GZ,1,100,-0.488
1576860813.010849,604564.000,39329,3,GZ,1,100,-1.190
1576860813.050552,604597.500,39348,2,GZ,1,100,-0.366
1576860813.090254,604631.000,39348,2,GZ,1,100,-0.183
1576860813.130253,604664.750,39365,4,GZ,1,100,-0.549
1576860813.170252,604698.500,39365,4,GZ,1,100,0.061
1576860813.210250,604732.250,39365,4,GZ,1,100,-0.061
1576860813.250249,604766.000,39365,4,GZ,1,100,0.153
1576860813.290939,604800.333,39383,3,GZ,1,100,0.214
1576860813.331629,604834.667,39383,3,GZ,1,100,-0.305
1576860813.372319,604869.000,39383,3,GZ,1,100,0.031
1576860813.412614,604903.000,39399,2,GZ,1,100,0.305
1576860813.452909,604937.000,39399,2,GZ,1,100,0.671
1576860813.493994,604971.667,39417,3,GZ,1,100,-0.305
1576860813.535080,605006.333,39417,3,GZ,1,100,0.000
1576860813.576165,605041.000,39417,3,GZ,1,100,0.519
1576860813.615670,605074.333,39435,3,GZ,1,100,1.160
1576860813.655174,605107.667,39435,3,GZ,1,100,0.214
1576860813.694679,605141.000,39435,3,GZ,1,100,0.305
1576860813.735765,605175.667,39453,3,GZ,1,100,0.580
1576860813.776850,605210.333,39453,3,GZ,1,100,-0.458
1576860813.817935,605245.000,39453,3,GZ,1,100,0.244
1576860813.857045,605278.000,39471,3,GZ,1,100,0.336
1576860813.896155,605311.000,39471,3,GZ,1,100,0.031
1576860813.935265,605344.000,39471,3,GZ,1,100,0.397
1576860813.976350,605378.667,39490,3,GZ,1,100,0.824
1576860814.017435,605413.333,39490,3,GZ,1,100,0.763
1576860814.058520,605448.000,39490,3,GZ,1,100,-0.031
1576860814.099605,605482.667,39508,3,GZ,1,100,0.305
1576860814.140690,605517.333,39508,3,GZ,1,100,-0.397
1576860814.181775,605552.000,39508,3,GZ,1,100,0.000
1576860814.222465,605586.333,39526,3,GZ,1,100,0.244
1576860814.263155,605620.667,39526,3,GZ,1,100,0.000
1576860814.303845,605655.000,39526,3,GZ,1,100,1.038
1576860814.344930,605689.667,39543,3,GZ,1,100,0.275
1576860814.386016,605724.333,39543,3,GZ,1,100,0.183
1576860814.427101,605759.000,39543,3,GZ,1,100,0.214
1576860814.465420,605791.333,39561,3,GZ,1,100,0.122
1576860814.503740,605823.667,39561,3,GZ,1,100,0.122
1576860814.542060,605856.000,39561,3,GZ,1,100,0.244
1576860814.582750,605890.333,39579,3,GZ,1,100,0.061
1576860814.623440,605924.667,39579,3,GZ,1,100,0.275
1576860814.664130,605959.000,39579,3,GZ,1,100,-0.122
1576860814.704820,605993.333,39595,3,GZ,1,100,0.153
1576860814.745510,606027.667,39595,3,GZ,1,100,0.336
1576860814.786201,606062.000,39595,3,GZ,1,100,0.214
1576860814.827286,606096.667,39613,3,GZ,1,100,0.427
1576860814.868371,606131.333,39613,3,GZ,1,100,-0.610
1576860814.909456,606166.000,39613,3,GZ,1,100,-1.526
1576860814.946590,606197.333,39631,3,GZ,1,100,-0.641
1576860814.983725,606228.667,39631,3,GZ,1,100,0.122
1576860815.020860,606260.000,39631,3,GZ,1,100,0.458
1576860815.060364,606293.333,39650,3,GZ,1,100,0.427
1576860815.099869,606326.667,39650,3,GZ,1,100,-0.122
1576860815.139374,606360.000,39650,3,GZ,1,100,-0.885
1576860815.181250,606395.333,39668,3,GZ,1,100,-0.641
1576860815.223125,606430.667,39668,3,GZ,1,100,0.122
1576860815.265000,606466.000,39668,3,GZ,1,100,-0.153
1576860815.300555,606496.000,39686,3,GZ,1,100,-0.031
1576860815.336109,606526.000,39686,3,GZ,1,100,0.641
1576860815.371663,606556.000,39686,3,GZ,1,100,-0.061
1576860815.411958,606590.000,39704,3,GZ,1,100,-0.366
1576860815.452253,606624.000,39704,3,GZ,1,100,0.305
1576860815.492548,606658.000,39704,3,GZ,1,100,0.122
1576860815.530177,606689.750,39722,4,GZ,1,100,0.214
1576860815.567805,606721.500,39722,4,GZ,1,100,0.366
1576860815.605434,606753.250,39722,4,GZ,1,100,0.275
1576860815.643062,606785.000,39722,4,GZ,1,100,0.275
1576860815.686320,606821.500,39740,2,GZ,1,100,0.061
1576860815.729578,606858.000,39740,2,GZ,1,100,0.214
1576860815.771058,606893.000,39757,3,GZ,1,100,0.519
1576860815.812538,606928.000,39757,3,GZ,1,100,0.305
1576860815.854018,606963.000,39757,3,GZ,1,100,0.244
1576860815.893918,606996.667,39775,3,GZ,1,100,0.336
1576860815.933818,607030.333,39775,3,GZ,1,100,-0.275
1576860815.973718,607064.000,39775,3,GZ,1,100,-0.031
1576860816.014803,607098.667,39792,3,GZ,1,100,0.671
1576860816.055889,607133.333,39792,3,GZ,1,100,0.183
1576860816.096974,607168.000,39792,3,GZ,1,100,0.092
1576860816.136084,607201.000,39810,3,GZ,1,100,0.214
1576860816.175193,607234.000,39810,3,GZ,1,100,0.427
1576860816.214303,607267.000,39810,3,GZ,1,100,0.061
1576860816.256178,607302.333,39828,3,GZ,1,100,-0.092
1576860816.298054,607337.667,39828,3,GZ,1,100,0.763
1576860816.339929,607373.000,39828,3,GZ,1,100,0.671
1576860816.381014,607407.667,39846,3,GZ,1,100,0.488
1576860816.422099,607442.333,39846,3,GZ,1,100,0.031
1576860816.463184,607477.000,39846,3,GZ,1,100,0.793
1576860816.504664,607512.000,39867,5,GZ,1,100,2.075
1576860816.546144,607547.000,39867,5,GZ,1,100,2.686
1576860816.587625,607582.000,39867,5,GZ,1,100,-0.031
1576860816.629105,607617.000,39867,5,GZ,1,100,0.336
1576860816.670585,607652.000,39867,5,GZ,1,100,0.946
1576860816.712658,607687.500,39887,2,GZ,1,100,0.824
1576860816.754730,607723.000,39887,2,GZ,1,100,0.763
1576860816.792359,607754.750,39905,4,GZ,1,100,-0.702
1576860816.829988,607786.500,39905,4,GZ,1,100,-1.404
1576860816.867616,607818.250,39905,4,GZ,1,100,0.092
1576860816.905244,607850.000,39905,4,GZ,1,100,-0.153
1576860816.949095,607887.000,39923,2,GZ,1,100,0.519
1576860816.992945,607924.000,39923,2,GZ,1,100,0.702
1576860817.033240,607958.000,39942,3,GZ,1,100,-0.366
1576860817.073535,607992.000,39942,3,GZ,1,100,-0.519
1576860817.113830,608026.000,39942,3,GZ,1,100,-0.305
1576860817.154520,608060.333,39960,3,GZ,1,100,-0.275
1576860817.195210,608094.667,39960,3,GZ,1,100,0.610
1576860817.235900,608129.000,39960,3,GZ,1,100,-0.305
1576860817.277776,608164.333,39978,3,GZ,1,100,-0.122
1576860817.319651,608199.667,39978,3,GZ,1,100,0.519
1576860817.361526,608235.000,39978,3,GZ,1,100,-0.092
1576860817.398661,608266.333,39996,3,GZ,1,100,-0.092
1576860817.435795,608297.667,39996,3,GZ,1,100,0.549
1576860817.472930,608329.000,39996,3,GZ,1,100,-0.122
1576860817.511250,608361.333,40013,3,GZ,1,100,0.183
1576860817.549570,608393.667,40013,3,GZ,1,100,0.366
1576860817.587889,608426.000,40013,3,GZ,1,100,0.000
1576860817.632135,608463.333,40031,3,GZ,1,100,0.244
1576860817.676380,608500.667,40031,3,GZ,1,100,-0.458
1576860817.720626,608538.000,40031,3,GZ,1,100,0.031
1576860817.762106,608573.000,40047,3,GZ,1,100,0.519
1576860817.803586,608608.000,40047,3,GZ,1,100,0.793
1576860817.845066,608643.000,40047,3,GZ,1,100,0.214
1576860817.886547,608678.000,40065,3,GZ,1,100,-0.153
1576860817.928027,608713.000,40065,3,GZ,1,100,0.000
1576860817.969507,608748.000,40065,3,GZ,1,100,0.183
1576860818.007432,608780.000,40084,3,GZ,1,100,0.366
1576860818.045356,608812.000,40084,3,GZ,1,100,0.427
1576860818.083281,608844.000,40084,3,GZ,1,100,0.549
1576860818.121206,608876.000,40102,3,GZ,1,100,0.763
1576860818.159131,608908.000,40102,3,GZ,1,100,0.763
1576860818.197055,608940.000,40102,3,GZ,1,100,-0.214
1576860818.241301,608977.333,40120,3,GZ,1,100,-0.153
1576860818.285546,609014.667,40120,3,GZ,1,100,0.305
1576860818.329792,609052.000,40120,3,GZ,1,100,0.610
1576860818.370877,609086.667,40138,3,GZ,1,100,0.671
1576860818.411962,609121.333,40138,3,GZ,1,100,1.038
1576860818.453047,609156.000,40138,3,GZ,1,100,-0.580
1576860818.493737,609190.333,40156,3,GZ,1,100,0.000
1576860818.534427,609224.667,40156,3,GZ,1,100,0.732
1576860818.575117,609259.000,40156,3,GZ,1,100,-0.122
1576860818.614227,609292.000,40174,3,GZ,1,100,0.153
1576860818.653337,609325.000,40174,3,GZ,1,100,0.916
1576860818.692447,609358.000,40174,3,GZ,1,100,1.617
1576860818.729582,609389.333,40192,3,GZ,1,100,1.160
1576860818.766716,609420.667,40192,3,GZ,1,100,0.183
1576860818.803851,609452.000,40192,3,GZ,1,100,-0.977
1576860818.847701,609489.000,40209,3,GZ,1,100,1.007
1576860818.891552,609526.000,40209,3,GZ,1,100,-0.275
1576860818.935402,609563.000,40209,3,GZ,1,100,-0.946
1576860818.976882,609598.000,40225,3,GZ,1,100,0.793
1576860819.018363,609633.000,40225,3,GZ,1,100,0.488
1576860819.059843,609668.000,40225,3,GZ,1,100,0.824
1576860819.100928,609702.667,40244,3,GZ,1,100,0.458
1576860819.142013,609737.333,40244,3,GZ,1,100,-0.183
1576860819.183098,609772.000,40244,3,GZ,1,100,-0.458
1576860819.221813,609804.667,40262,3,GZ,1,100,1.099
1576860819.260528,609837.333,40262,3,GZ,1,100,0.702
1576860819.299242,609870.000,40262,3,GZ,1,100,0.488
1576860819.344871,609908.500,40280,2,GZ,1,100,0.641
1576860819.390499,609947.000,40280,2,GZ,1,100,0.458
1576860819.429312,609979.750,40298,4,GZ,1,100,-0.793
1576860819.468126,610012.500,40298,4,GZ,1,100,-0.549
1576860819.506940,610045.250,40298,4,GZ,1,100,-0.092
1576860819.545753,610078.000,40298,4,GZ,1,100,-0.092
1576860819.591974,610117.000,40316,2,GZ,1,100,0.275
1576860819.638195,610156.000,40316,2,GZ,1,100,0.702
1576860819.676119,610188.000,40333,3,GZ,1,100,0.244
1576860819.714044,610220.000,40333,3,GZ,1,100,-0.885
1576860819.751969,610252.000,40333,3,GZ,1,100,-3.021
1576860819.797400,610290.333,40351,3,GZ,1,100,-2.716
1576860819.842830,610328.667,40351,3,GZ,1,100,-0.366
1576860819.888261,610367.000,40351,3,GZ,1,100,0.366
1576860819.928951,610401.333,40367,3,GZ,1,100,0.610
1576860819.969641,610435.667,40367,3,GZ,1,100,0.427
1576860820.010331,610470.000,40367,3,GZ,1,100,0.031
1576860820.051416,610504.667,40386,3,GZ,1,100,1.282
1576860820.092501,610539.333,40386,3,GZ,1,100,1.984
1576860820.133586,610574.000,40386,3,GZ,1,100,2.747
1576860820.175462,610609.333,40404,3,GZ,1,100,0.641
1576860820.217337,610644.667,40404,3,GZ,1,100,-0.580
1576860820.259212,610680.000,40404,3,GZ,1,100,-0.183
1576860820.301087,610715.333,40422,3,GZ,1,100,0.061
1576860820.342963,610750.667,40422,3,GZ,1,100,-0.061
1576860820.384838,610786.000,40422,3,GZ,1,100,-0.305
1576860820.426318,610821.000,40440,2,GZ,1,100,0.244
1576860820.467798,610856.000,40440,2,GZ,1,100,1.038
1576860820.507303,610889.333,40458,3,GZ,1,100,0.610
1576860820.546808,610922.667,40458,3,GZ,1,100,0.366
1576860820.586313,610956.000,40458,3,GZ,1,100,0.092
1576860820.623941,610987.750,40476,4,GZ,1,100,-0.549
1576860820.661570,611019.500,40476,4,GZ,1,100,0.183
1576860820.699198,611051.250,40476,4,GZ,1,100,0.580
1576860820.736826,611083.000,40476,4,GZ,1,100,0.183
1576860820.777517,611117.333,40493,3,GZ,1,100,0.732
1576860820.818207,611151.667,40493,3,GZ,1,100,1.404
1576860820.858897,611186.000,40493,3,GZ,1,100,6.409
1576860820.899192,611220.000,40511,3,GZ,1,100,4.913
1576860820.939487,611254.000,40511,3,GZ,1,100,-0.061
1576860820.979782,611288.000,40511,3,GZ,1,100,1.007
1576860821.020077,611322.000,40527,2,GZ,1,100,0.885
1576860821.060372,611356.000,40527,2,GZ,1,100,-1.801
1576860821.105407,611394.000,40546,3,GZ,1,100,-2.502
1576860821.150443,611432.000,40546,3,GZ,1,100,-1.862
1576860821.195478,611470.000,40546,3,GZ,1,100,-1.495
1576860821.236169,611504.333,40564,3,GZ,1,100,-0.671
1576860821.276859,611538.667,40564,3,GZ,1,100,-0.336
1576860821.317549,611573.000,40564,3,GZ,1,100,-0.244
1576860821.357054,611606.333,40582,3,GZ,1,100,0.854
1576860821.396559,611639.667,40582,3,GZ,1,100,0.702
1576860821.436064,611673.000,40582,3,GZ,1,100,0.732
1576860821.473593,611704.667,40600,3,GZ,1,100,0.336
1576860821.511123,611736.333,40600,3,GZ,1,100,0.519
1576860821.548653,611768.000,40600,3,GZ,1,100,0.458
1576860821.587762,611801.000,40618,3,GZ,1,100,0.580
1576860821.626872,611834.000,40618,3,GZ,1,100,0.946
1576860821.665982,611867.000,40618,3,GZ,1,100,0.061
1576860821.711018,611905.000,40636,3,GZ,1,100,-0.214
1576860821.756053,611943.000,40636,3,GZ,1,100,1.862
1576860821.801089,611981.000,40636,3,GZ,1,100,0.793
1576860821.841779,612015.333,40653,3,GZ,1,100,-1.129
1576860821.882469,612049.667,40653,3,GZ,1,100,0.610
1576860821.923159,612084.000,40653,3,GZ,1,100,1.495
1576860821.962269,612117.000,40671,3,GZ,1,100,-0.671
1576860822.001379,612150.000,40671,3,GZ,1,100,-0.305
1576860822.040489,612183.000,40671,3,GZ,1,100,0.275
1576860822.078809,612215.333,40690,3,GZ,1,100,-0.275
1576860822.117128,612247.667,40690,3,GZ,1,100,0.336
1576860822.155448,612280.000,40690,3,GZ,1,100,-0.641
1576860822.195348,612313.667,40706,3,GZ,1,100,-1.038
1576860822.235248,612347.333,40706,3,GZ,1,100,0.397
1576860822.275148,612381.000,40706,3,GZ,1,100,0.641
1576860822.316628,612416.000,40724,3,GZ,1,100,0.702
1576860822.358108,612451.000,40724,3,GZ,1,100,0.061
1576860822.399589,612486.000,40724,3,GZ,1,100,0.031
1576860822.444229,612523.667,40742,3,GZ,1,100,-0.183
1576860822.488870,612561.333,40742,3,GZ,1,100,-0.458
1576860822.533510,612599.000,40742,3,GZ,1,100,-0.122
1576860822.572146,612631.600,40763,5,GZ,1,100,-0.214
1576860822.610782,612664.200,40763,5,GZ,1,100,0.214
1576860822.649418,612696.800,40763,5,GZ,1,100,0.153
1576860822.688053,612729.400,40763,5,GZ,1,100,-0.397
1576860822.726689,612762.000,40763,5,GZ,1,100,-0.153
1576860822.764614,612794.000,40783,3,GZ,1,100,0.183
1576860822.802539,612826.000,40783,3,GZ,1,100,0.854
1576860822.840463,612858.000,40783,3,GZ,1,100,0.183
1576860822.881548,612892.667,40799,3,GZ,1,100,0.000
1576860822.922634,612927.333,40799,3,GZ,1,100,0.702
1576860822.963719,612962.000,40799,3,GZ,1,100,0.275
1576860823.010532,613001.500,40817,2,GZ,1,100,0.885
1576860823.057345,613041.000,40817,2,GZ,1,100,0.305
1576860823.095270,613073.000,40836,3,GZ,1,100,0.305
1576860823.133195,613105.000,40836,3,GZ,1,100,0.244
1576860823.171119,613137.000,40836,3,GZ,1,100,0.061
1576860823.216155,613175.000,40854,3,GZ,1,100,-0.183
1576860823.261191,613213.000,40854,3,GZ,1,100,-0.092
1576860823.306226,613251.000,40854,3,GZ,1,100,0.397
1576860823.344151,613283.000,40872,3,GZ,1,100,0.122
1576860823.382076,613315.000,40872,3,GZ,1,100,0.366
1576860823.420001,613347.000,40872,3,GZ,1,100,0.336
1576860823.462271,613382.667,40890,3,GZ,1,100,0.488
1576860823.504541,613418.333,40890,3,GZ,1,100,0.641
1576860823.546811,613454.000,40890,3,GZ,1,100,-0.061
1576860823.587897,613488.667,40907,3,GZ,1,100,-0.549
1576860823.628982,613523.333,40907,3,GZ,1,100,0.183
1576860823.670067,613558.000,40907,3,GZ,1,100,0.763
1576860823.711942,613593.333,40925,3,GZ,1,100,0.793
1576860823.753817,613628.667,40925,3,GZ,1,100,0.793
1576860823.795692,613664.000,40925,3,GZ,1,100,-0.122
1576860823.836580,613698.500,40941,2,GZ,1,100,-0.488
1576860823.877468,613733.000,40941,2,GZ,1,100,-0.275
1576860823.922503,613771.000,40959,3,GZ,1,100,0.488
1576860823.967539,613809.000,40959,3,GZ,1,100,1.556
1576860824.012574,613847.000,40959,3,GZ,1,100,1.434
1576860824.052079,613880.333,40978,3,GZ,1,100,0.977
1576860824.091584,613913.667,40978,3,GZ,1,100,0.549
1576860824.131089,613947.000,40978,3,GZ,1,100,-0.305
1576860824.173754,613983.000,40996,3,GZ,1,100,-0.702
1576860824.216420,614019.000,40996,3,GZ,1,100,0.885
1576860824.259085,614055.000,40996,3,GZ,1,100,0.854
1576860824.297405,614087.333,41014,3,GZ,1,100,1.007
1576860824.335725,614119.667,41014,3,GZ,1,100,0.580
1576860824.374044,614152.000,41014,3,GZ,1,100,-0.427
1576860824.412364,614184.333,41032,3,GZ,1,100,-1.190
1576860824.450684,614216.667,41032,3,GZ,1,100,-0.153
1576860824.489004,614249.000,41032,3,GZ,1,100,1.160
1576860824.529299,614283.000,41050,3,GZ,1,100,0.641
1576860824.569594,614317.000,41050,3,GZ,1,100,0.031
1576860824.609889,614351.000,41050,3,GZ,1,100,-0.214
1576860824.651369,614386.000,41067,3,GZ,1,100,0.183
1576860824.692849,614421.000,41067,3,GZ,1,100,0.336
1576860824.734329,614456.000,41067,3,GZ,1,100,0.916
1576860824.774624,614490.000,41085,3,GZ,1,100,0.366
1576860824.814919,614524.000,41085,3,GZ,1,100,-0.488
1576860824.855214,614558.000,41085,3,GZ,1,100,2.045
1576860824.896299,614592.667,41101,3,GZ,1,100,3.082
1576860824.937385,614627.333,41101,3,GZ,1,100,1.434
1576860824.978470,614662.000,41101,3,GZ,1,100,-0.763
1576860825.023505,614700.000,41119,3,GZ,1,100,-1.404
1576860825.068541,614738.000,41119,3,GZ,1,100,-0.397
1576860825.113576,614776.000,41119,3,GZ,1,100,0.244
1576860825.151501,614808.000,41138,3,GZ,1,100,0.397
1576860825.189426,614840.000,41138,3,GZ,1,100,0.977
1576860825.227351,614872.000,41138,3,GZ,1,100,1.190
1576860825.264485,614903.333,41156,3,GZ,1,100,0.092
1576860825.301620,614934.667,41156,3,GZ,1,100,-0.671
1576860825.338754,614966.000,41156,3,GZ,1,100,-0.305
1576860825.379050,615000.000,41174,3,GZ,1,100,-0.610
1576860825.419344,615034.000,41174,3,GZ,1,100,-0.580
1576860825.459640,615068.000,41174,3,GZ,1,100,0.092
1576860825.500329,615102.333,41192,3,GZ,1,100,1.648
1576860825.541020,615136.667,41192,3,GZ,1,100,1.556
1576860825.581710,615171.000,41192,3,GZ,1,100,0.671
1576860825.627140,615209.333,41210,3,GZ,1,100,-0.275
1576860825.672571,615247.667,41210,3,GZ,1,100,-0.732
1576860825.718002,615286.000,41210,3,GZ,1,100,0.244
1576860825.756321,615318.333,41227,3,GZ,1,100,-1.038
1576860825.794641,615350.667,41227,3,GZ,1,100,-1.007
1576860825.832961,615383.000,41227,3,GZ,1,100,2.594
1576860825.870096,615414.333,41245,3,GZ,1,100,1.221
1576860825.907230,615445.667,41245,3,GZ,1,100,-1.007
1576860825.944365,615477.000,41245,3,GZ,1,100,0.610
1576860825.984265,615510.667,41263,3,GZ,1,100,-0.763
1576860826.024165,615544.333,41263,3,GZ,1,100,-0.458
1576860826.064065,615578.000,41263,3,GZ,1,100,1.678
1576860826.105545,615613.000,41280,3,GZ,1,100,-0.610
1576860826.147025,615648.000,41280,3,GZ,1,100,-0.580
1576860826.188505,615683.000,41280,3,GZ,1,100,1.923
1576860826.229393,615717.500,41298,2,GZ,1,100,2.167
1576860826.270281,615752.000,41298,2,GZ,1,100,2.686
1576860826.313341,615788.333,41316,3,GZ,1,100,2.655
1576860826.356401,615824.667,41316,3,GZ,1,100,1.007
1576860826.399462,615861.000,41316,3,GZ,1,100,0.732
1576860826.437386,615893.000,41334,4,GZ,1,100,1.373
1576860826.475311,615925.000,41334,4,GZ,1,100,0.183
1576860826.513236,615957.000,41334,4,GZ,1,100,-0.946
1576860826.551161,615989.000,41334,4,GZ,1,100,-1.923
1576860826.590665,616022.333,41352,3,GZ,1,100,-2.838
1576860826.630170,616055.667,41352,3,GZ,1,100,-0.763
1576860826.669675,616089.000,41352,3,GZ,1,100,-0.519
1576860826.710760,616123.667,41370,3,GZ,1,100,-0.488
1576860826.751845,616158.333,41370,3,GZ,1,100,0.397
1576860826.792931,616193.000,41370,3,GZ,1,100,-0.244
1576860826.834411,616228.000,41388,2,GZ,1,100,-1.404
1576860826.875891,616263.000,41388,2,GZ,1,100,0.366
1576860826.919741,616300.000,41406,3,GZ,1,100,1.465
1576860826.963592,616337.000,41406,3,GZ,1,100,0.763
1576860827.007442,616374.000,41406,3,GZ,1,100,-0.183
1576860827.045367,616406.000,41424,3,GZ,1,100,-0.946
1576860827.083292,616438.000,41424,3,GZ,1,100,-0.366
1576860827.121217,616470.000,41424,3,GZ,1,100,-1.556
1576860827.161116,616503.667,41442,3,GZ,1,100,-1.770
1576860827.201016,616537.333,41442,3,GZ,1,100,3.174
1576860827.240916,616571.000,41442,3,GZ,1,100,3.326
1576860827.281606,616605.333,41458,3,GZ,1,100,0.916
1576860827.322296,616639.667,41458,3,GZ,1,100,-0.031
1576860827.362987,616674.000,41458,3,GZ,1,100,-1.556
1576860827.400516,616705.667,41476,3,GZ,1,100,-2.747
1576860827.438046,616737.333,41476,3,GZ,1,100,-0.519
1576860827.475576,616769.000,41476,3,GZ,1,100,0.275
1576860827.516266,616803.333,41494,3,GZ,1,100,0.153
1576860827.556956,616837.667,41494,3,GZ,1,100,0.671
1576860827.597646,616872.000,41494,3,GZ,1,100,1.434
1576860827.634089,616902.750,41512,4,GZ,1,100,0.610
1576860827.670532,616933.500,41512,4,GZ,1,100,-0.214
1576860827.706976,616964.250,41512,4,GZ,1,100,-1.190
1576860827.743419,616995.000,41512,4,GZ,1,100,-1.923
1576860827.784899,617030.000,41530,3,GZ,1,100,-0.488
1576860827.826379,617065.000,41530,3,GZ,1,100,0.214
1576860827.867859,617100.000,41530,3,GZ,1,100,0.488
1576860827.908550,617134.333,41548,3,GZ,1,100,1.251
1576860827.949239,617168.667,41548,3,GZ,1,100,0.732
1576860827.989930,617203.000,41548,3,GZ,1,100,-0.427
1576860828.028250,617235.333,41566,3,GZ,1,100,-0.580
1576860828.066569,617267.667,41566,3,GZ,1,100,0.122
1576860828.104889,617300.000,41566,3,GZ,1,100,-0.244
1576860828.142419,617331.667,41585,3,GZ,1,100,1.129
1576860828.179948,617363.333,41585,3,GZ,1,100,0.885
1576860828.217478,617395.000,41585,3,GZ,1,100,-0.183
1576860828.257773,617429.000,41603,3,GZ,1,100,0.061
1576860828.298068,617463.000,41603,3,GZ,1,100,-0.153
1576860828.338363,617497.000,41603,3,GZ,1,100,-0.244
1576860828.380238,617532.333,41620,3,GZ,1,100,1.221
1576860828.422113,617567.667,41620,3,GZ,1,100,0.549
1576860828.463989,617603.000,41620,3,GZ,1,100,0.244
1576860828.505864,617638.333,41638,3,GZ,1,100,0.336
1576860828.547739,617673.667,41638,3,GZ,1,100,-0.122
1576860828.589614,617709.000,41638,3,GZ,1,100,0.000
1576860828.630798,617743.750,41659,4,GZ,1,100,0.092
1576860828.671982,617778.500,41659,4,GZ,1,100,0.488
1576860828.713166,617813.250,41659,4,GZ,1,100,0.732
1576860828.754350,617848.000,41659,4,GZ,1,100,-0.580
1576860828.797805,617884.667,41679,3,GZ,1,100,-0.031
1576860828.841261,617921.333,41679,3,GZ,1,100,0.031
1576860828.884716,617958.000,41679,3,GZ,1,100,-0.671
1576860828.922641,617990.000,41697,3,GZ,1,100,0.366
1576860828.960566,618022.000,41697,3,GZ,1,100,0.458
1576860828.998490,618054.000,41697,3,GZ,1,100,-0.122
1576860829.037600,618087.000,41715,3,GZ,1,100,-0.031
1576860829.076710,618120.000,41715,3,GZ,1,100,0.153
1576860829.115820,618153.000,41715,3,GZ,1,100,-0.610
1576860829.156905,618187.667,41733,3,GZ,1,100,0.183
1576860829.197990,618222.333,41733,3,GZ,1,100,0.275
1576860829.239075,618257.000,41733,3,GZ,1,100,-0.671
1576860829.279370,618291.000,41749,3,GZ,1,100,0.336
1576860829.319665,618325.000,41749,3,GZ,1,100,0.458
1576860829.359960,618359.000,41749,3,GZ,1,100,0.854
1576860829.399465,618392.333,41767,3,GZ,1,100,0.580
1576860829.438970,618425.667,41767,3,GZ,1,100,-0.549
1576860829.478475,618459.000,41767,3,GZ,1,100,-0.305
1576860829.519955,618494.000,41785,3,GZ,1,100,-0.244
1576860829.561435,618529.000,41785,3,GZ,1,100,-0.214
1576860829.602916,618564.000,41785,3,GZ,1,100,-0.214
1576860829.642420,618597.333,41803,3,GZ,1,100,0.580
1576860829.681925,618630.667,41803,3,GZ,1,100,0.000
1576860829.721430,618664.000,41803,3,GZ,1,100,-0.244
1576860829.762120,618698.333,41821,3,GZ,1,100,-0.427
1576860829.802810,618732.667,41821,3,GZ,1,100,0.183
1576860829.843500,618767.000,41821,3,GZ,1,100,0.519
1576860829.884981,618802.000,41839,3,GZ,1,100,0.031
1576860829.926461,618837.000,41839,3,GZ,1,100,0.061
1576860829.967941,618872.000,41839,3,GZ,1,100,-0.061
1576860830.008236,618906.000,41857,3,GZ,1,100,-0.488
1576860830.048531,618940.000,41857,3,GZ,1,100,-0.092
1576860830.088826,618974.000,41857,3,GZ,1,100,-0.275
1576860830.126751,619006.000,41876,3,GZ,1,100,0.458
1576860830.164675,619038.000,41876,3,GZ,1,100,0.305
1576860830.202600,619070.000,41876,3,GZ,1,100,-0.427
1576860830.244870,619105.667,41893,3,GZ,1,100,0.031
1576860830.287141,619141.333,41893,3,GZ,1,100,0.793
1576860830.329411,619177.000,41893,3,GZ,1,100,0.885
1576860830.369706,619211.000,41911,3,GZ,1,100,-0.580
1576860830.410001,619245.000,41911,3,GZ,1,100,0.641
1576860830.450296,619279.000,41911,3,GZ,1,100,0.702
1576860830.491381,619313.667,41927,3,GZ,1,100,-0.122
1576860830.532466,619348.333,41927,3,GZ,1,100,0.061
1576860830.573551,619383.000,41927,3,GZ,1,100,0.244
1576860830.615624,619418.500,41945,2,GZ,1,100,0.061
1576860830.657697,619454.000,41945,2,GZ,1,100,0.946
1576860830.695226,619485.667,41963,3,GZ,1,100,0.793
1576860830.732756,619517.333,41963,3,GZ,1,100,0.458
1576860830.770286,619549.000,41963,3,GZ,1,100,0.671
1576860830.809099,619581.750,41981,4,GZ,1,100,0.519
1576860830.847913,619614.500,41981,4,GZ,1,100,0.336
1576860830.886727,619647.250,41981,4,GZ,1,100,0.671
1576860830.925540,619680.000,41981,4,GZ,1,100,0.244
1576860830.966625,619714.667,41999,3,GZ,1,100,0.610
1576860831.007710,619749.333,41999,3,GZ,1,100,0.214
1576860831.048795,619784.000,41999,3,GZ,1,100,-0.031
1576860831.083560,619813.333,42018,3,GZ,1,100,0.366
1576860831.118324,619842.667,42018,3,GZ,1,100,0.336
1576860831.153089,619872.000,42018,3,GZ,1,100,0.549
1576860831.194964,619907.333,42036,3,GZ,1,100,0.183
1576860831.236839,619942.667,42036,3,GZ,1,100,0.092
1576860831.278714,619978.000,42036,3,GZ,1,100,0.916
1576860831.313083,620007.000,42054,3,GZ,1,100,1.709
1576860831.347453,620036.000,42054,3,GZ,1,100,-0.092
1576860831.381822,620065.000,42054,3,GZ,1,100,-1.190
1576860831.421327,620098.333,42072,3,GZ,1,100,0.854
1576860831.460832,620131.667,42072,3,GZ,1,100,0.610
1576860831.500337,620165.000,42072,3,GZ,1,100,-0.793
1576860831.541027,620199.333,42090,3,GZ,1,100,-1.709
1576860831.581717,620233.667,42090,3,GZ,1,100,-1.007
1576860831.622407,620268.000,42090,3,GZ,1,100,0.122
1576860831.657961,620298.000,42108,4,GZ,1,100,0.671
1576860831.693516,620328.000,42108,4,GZ,1,100,0.458
1576860831.729070,620358.000,42108,4,GZ,1,100,-0.061
1576860831.764625,620388.000,42108,4,GZ,1,100,0.275
1576860831.805315,620422.333,42126,3,GZ,1,100,0.183
1576860831.846005,620456.667,42126,3,GZ,1,100,-0.336
1576860831.886695,620491.000,42126,3,GZ,1,100,0.427
1576860831.926990,620525.000,42143,3,GZ,1,100,-0.092
1576860831.967285,620559.000,42143,3,GZ,1,100,0.397
1576860832.007580,620593.000,42143,3,GZ,1,100,1.129
1576860832.049060,620628.000,42162,3,GZ,1,100,0.336
1576860832.090540,620663.000,42162,3,GZ,1,100,-0.122
1576860832.132020,620698.000,42162,3,GZ,1,100,0.793
1576860832.173501,620733.000,42178,2,GZ,1,100,0.366
1576860832.214981,620768.000,42178,2,GZ,1,100,-0.092
1576860832.256856,620803.333,42196,3,GZ,1,100,0.183
1576860832.298731,620838.667,42196,3,GZ,1,100,-0.610
1576860832.340606,620874.000,42196,3,GZ,1,100,0.427
1576860832.382087,620909.000,42214,3,GZ,1,100,0.000
1576860832.423567,620944.000,42214,3,GZ,1,100,-0.122
1576860832.465047,620979.000,42214,3,GZ,1,100,0.793
1576860832.503762,621011.667,42232,3,GZ,1,100,1.282
1576860832.542476,621044.333,42232,3,GZ,1,100,0.366
1576860832.581191,621077.000,42232,3,GZ,1,100,0.061
1576860832.622672,621112.000,42250,3,GZ,1,100,0.366
1576860832.664152,621147.000,42250,3,GZ,1,100,0.397
1576860832.705632,621182.000,42250,3,GZ,1,100,0.427
1576860832.745532,621215.667,42268,3,GZ,1,100,0.092
1576860832.785432,621249.333,42268,3,GZ,1,100,1.312
1576860832.825332,621283.000,42268,3,GZ,1,100,2.106
1576860832.866417,621317.667,42286,3,GZ,1,100,1.312
1576860832.907502,621352.333,42286,3,GZ,1,100,1.526
1576860832.948587,621387.000,42286,3,GZ,1,100,1.312
1576860832.988882,621421.000,42304,3,GZ,1,100,0.916
1576860833.029177,621455.000,42304,3,GZ,1,100,-0.916
1576860833.069472,621489.000,42304,3,GZ,1,100,-0.336
1576860833.109372,621522.667,42322,3,GZ,1,100,-0.061
1576860833.149272,621556.333,42322,3,GZ,1,100,0.000
1576860833.189172,621590.000,42322,3,GZ,1,100,1.495
1576860833.226702,621621.667,42340,3,GZ,1,100,0.214
1576860833.264231,621653.333,42340,3,GZ,1,100,0.031
1576860833.301761,621685.000,42340,3,GZ,1,100,1.099
1576860833.345217,621721.667,42356,3,GZ,1,100,-0.153
1576860833.388672,621758.333,42356,3,GZ,1,100,-0.671
1576860833.432127,621795.000,42356,3,GZ,1,100,0.458
1576860833.473608,621830.000,42374,3,GZ,1,100,0.427
1576860833.515088,621865.000,42374,3,GZ,1,100,-0.214
1576860833.556568,621900.000,42374,3,GZ,1,100,0.519
1576860833.597258,621934.333,42392,3,GZ,1,100,2.533
1576860833.637948,621968.667,42392,3,GZ,1,100,2.838
1576860833.678638,622003.000,42392,3,GZ,1,100,4.303
1576860833.718538,622036.667,42410,3,GZ,1,100,-1.007
1576860833.758438,622070.333,42410,3,GZ,1,100,-3.448
1576860833.798338,622104.000,42410,3,GZ,1,100,-0.977
1576860833.836658,622136.333,42428,3,GZ,1,100,-1.923
1576860833.874977,622168.667,42428,3,GZ,1,100,-1.312
1576860833.913297,622201.000,42428,3,GZ,1,100,2.563
1576860833.956357,622237.333,42446,3,GZ,1,100,2.014
1576860833.999418,622273.667,42446,3,GZ,1,100,-0.397
1576860834.042478,622310.000,42446,3,GZ,1,100,-0.336
1576860834.082773,622344.000,42465,3,GZ,1,100,1.312
1576860834.123068,622378.000,42465,3,GZ,1,100,-1.251
1576860834.163363,622412.000,42465,3,GZ,1,100,-0.732
1576860834.204844,622447.000,42482,2,GZ,1,100,0.427
1576860834.246324,622482.000,42482,2,GZ,1,100,-1.495
1576860834.287014,622516.333,42500,3,GZ,1,100,0.000
1576860834.327704,622550.667,42500,3,GZ,1,100,0.214
1576860834.368394,622585.000,42500,3,GZ,1,100,-0.793
1576860834.405430,622616.250,42518,4,GZ,1,100,0.244
1576860834.442466,622647.500,42518,4,GZ,1,100,0.488
1576860834.479501,622678.750,42518,4,GZ,1,100,0.275
1576860834.516537,622710.000,42518,4,GZ,1,100,-0.153
1576860834.555647,622743.000,42534,2,GZ,1,100,0.000
1576860834.594757,622776.000,42534,2,GZ,1,100,0.824
1576860834.636237,622811.000,42555,6,GZ,1,100,0.000
1576860834.677717,622846.000,42555,6,GZ,1,100,-1.678
1576860834.719198,622881.000,42555,6,GZ,1,100,-1.984
1576860834.760678,622916.000,42555,6,GZ,1,100,0.397
1576860834.802158,622951.000,42555,6,GZ,1,100,1.770
1576860834.843638,622986.000,42555,6,GZ,1,100,0.488
1576860834.878007,623015.000,42575,3,GZ,1,100,-0.305
1576860834.912377,623044.000,42575,3,GZ,1,100,-0.641
1576860834.946746,623073.000,42575,3,GZ,1,100,-0.366
1576860834.987041,623107.000,42593,2,GZ,1,100,0.122
1576860835.027336,623141.000,42593,2,GZ,1,100,0.580
1576860835.071581,623178.333,42611,3,GZ,1,100,-0.061
1576860835.115827,623215.667,42611,3,GZ,1,100,-0.427
1576860835.160073,623253.000,42611,3,GZ,1,100,0.732
1576860835.201948,623288.333,42627,3,GZ,1,100,1.068
1576860835.243823,623323.667,42627,3,GZ,1,100,1.129
1576860835.285698,623359.000,42627,3,GZ,1,100,0.977
1576860835.326783,623393.667,42645,3,GZ,1,100,0.763
1576860835.367868,623428.333,42645,3,GZ,1,100,1.251
1576860835.408953,623463.000,42645,3,GZ,1,100,0.031
1576860835.451224,623498.667,42663,3,GZ,1,100,-0.366
1576860835.493494,623534.333,42663,3,GZ,1,100,2.350
1576860835.535764,623570.000,42663,3,GZ,1,100,2.289
1576860835.576849,623604.667,42681,3,GZ,1,100,1.556
1576860835.617934,623639.333,42681,3,GZ,1,100,1.740
1576860835.659020,623674.000,42681,3,GZ,1,100,-0.214
1576860835.700105,623708.667,42699,3,GZ,1,100,-3.632
1576860835.741190,623743.333,42699,3,GZ,1,100,-1.953
1576860835.782275,623778.000,42699,3,GZ,1,100,-0.854
1576860835.823360,623812.667,42717,3,GZ,1,100,1.251
1576860835.864445,623847.333,42717,3,GZ,1,100,2.655
1576860835.905530,623882.000,42717,3,GZ,1,100,1.373
1576860835.947603,623917.500,42734,2,GZ,1,100,0.580
1576860835.989676,623953.000,42734,2,GZ,1,100,-0.732
1576860836.030267,623987.250,42753,4,GZ,1,100,-1.251
1576860836.070858,624021.500,42753,4,GZ,1,100,-0.824
1576860836.111450,624055.750,42753,4,GZ,1,100,1.099
1576860836.152041,624090.000,42753,4,GZ,1,100,2.563
1576860836.194114,624125.500,42769,2,GZ,1,100,0.580
1576860836.236187,624161.000,42769,2,GZ,1,100,0.122
1576860836.273815,624192.750,42787,4,GZ,1,100,0.458
1576860836.311443,624224.500,42787,4,GZ,1,100,-1.312
1576860836.349072,624256.250,42787,4,GZ,1,100,-1.434
1576860836.386700,624288.000,42787,4,GZ,1,100,0.854
1576860836.425415,624320.667,42805,3,GZ,1,100,0.793
1576860836.464130,624353.333,42805,3,GZ,1,100,0.122
1576860836.502845,624386.000,42805,3,GZ,1,100,0.763
1576860836.549065,624425.000,42823,2,GZ,1,100,0.031
1576860836.595286,624464.000,42823,2,GZ,1,100,-0.488
1576860836.633507,624496.250,42841,4,GZ,1,100,-0.427
1576860836.671728,624528.500,42841,4,GZ,1,100,-0.458
1576860836.709949,624560.750,42841,4,GZ,1,100,0.397
1576860836.748170,624593.000,42841,4,GZ,1,100,0.885
1576860836.794391,624632.000,42859,2,GZ,1,100,0.458
1576860836.840612,624671.000,42859,2,GZ,1,100,-0.458
1576860836.881697,624705.667,42877,3,GZ,1,100,-0.519
1576860836.922782,624740.333,42877,3,GZ,1,100,-0.580
1576860836.963867,624775.000,42877,3,GZ,1,100,0.671
1576860837.003767,624808.667,42895,3,GZ,1,100,1.434
1576860837.043667,624842.333,42895,3,GZ,1,100,1.068
1576860837.083567,624876.000,42895,3,GZ,1,100,1.312
1576860837.121887,624908.333,42913,3,GZ,1,100,0.763
1576860837.160207,624940.667,42913,3,GZ,1,100,-0.702
1576860837.198526,624973.000,42913,3,GZ,1,100,-0.916
1576860837.236451,625005.000,42931,3,GZ,1,100,-0.549
1576860837.274376,625037.000,42931,3,GZ,1,100,-1.709
1576860837.312300,625069.000,42931,3,GZ,1,100,-0.732
1576860837.356546,625106.333,42947,3,GZ,1,100,1.587
1576860837.400791,625143.667,42947,3,GZ,1,100,0.427
1576860837.445037,625181.000,42947,3,GZ,1,100,-0.183
1576860837.486122,625215.667,42965,3,GZ,1,100,0.916
1576860837.527207,625250.333,42965,3,GZ,1,100,0.580
1576860837.568292,625285.000,42965,3,GZ,1,100,0.824
1576860837.608982,625319.333,42983,3,GZ,1,100,1.404
1576860837.649673,625353.667,42983,3,GZ,1,100,0.610
1576860837.690362,625388.000,42983,3,GZ,1,100,-0.519
1576860837.727892,625419.667,43001,3,GZ,1,100,1.068
1576860837.765422,625451.333,43001,3,GZ,1,100,0.427
1576860837.802952,625483.000,43001,3,GZ,1,100,-0.031
1576860837.841271,625515.333,43019,3,GZ,1,100,0.671
1576860837.879591,625547.667,43019,3,GZ,1,100,0.641
1576860837.917911,625580.000,43019,3,GZ,1,100,0.305
1576860837.958601,625614.333,43037,3,GZ,1,100,0.305
1576860837.999291,625648.667,43037,3,GZ,1,100,0.061
1576860838.039981,625683.000,43037,3,GZ,1,100,0.275
1576860838.081066,625717.667,43056,3,GZ,1,100,-0.427
1576860838.122151,625752.333,43056,3,GZ,1,100,0.336
1576860838.163236,625787.000,43056,3,GZ,1,100,0.793
1576860838.208272,625825.000,43073,3,GZ,1,100,0.061
1576860838.253308,625863.000,43073,3,GZ,1,100,0.336
1576860838.298343,625901.000,43073,3,GZ,1,100,0.977
1576860838.335873,625932.667,43091,3,GZ,1,100,0.702
1576860838.373403,625964.333,43091,3,GZ,1,100,-0.183
1576860838.410932,625996.000,43091,3,GZ,1,100,-0.122
1576860838.448462,626027.667,43109,3,GZ,1,100,0.092
1576860838.485992,626059.333,43109,3,GZ,1,100,0.671
1576860838.523521,626091.000,43109,3,GZ,1,100,0.793
1576860838.563816,626125.000,43127,3,GZ,1,100,0.519
1576860838.604111,626159.000,43127,3,GZ,1,100,0.031
1576860838.644406,626193.000,43127,3,GZ,1,100,0.366
1576860838.688652,626230.333,43143,3,GZ,1,100,0.092
1576860838.732897,626267.667,43143,3,GZ,1,100,0.031
1576860838.777143,626305.000,43143,3,GZ,1,100,0.885
1576860838.815858,626337.667,43161,3,GZ,1,100,0.275
1576860838.854573,626370.333,43161,3,GZ,1,100,0.397
1576860838.893287,626403.000,43161,3,GZ,1,100,0.580
1576860838.939508,626442.000,43179,2,GZ,1,100,-0.061
1576860838.985729,626481.000,43179,2,GZ,1,100,0.275
1576860839.024839,626514.000,43198,4,GZ,1,100,0.610
1576860839.063949,626547.000,43198,4,GZ,1,100,0.183
1576860839.103059,626580.000,43198,4,GZ,1,100,0.092
1576860839.142168,626613.000,43198,4,GZ,1,100,0.366
1576860839.188982,626652.500,43216,2,GZ,1,100,1.221
1576860839.235795,626692.000,43216,2,GZ,1,100,0.885
1576860839.274510,626724.667,43233,3,GZ,1,100,-0.092
1576860839.313225,626757.333,43233,3,GZ,1,100,-0.336
1576860839.351939,626790.000,43233,3,GZ,1,100,0.183
1576860839.396975,626828.000,43251,3,GZ,1,100,0.519
1576860839.442011,626866.000,43251,3,GZ,1,100,0.000
1576860839.487046,626904.000,43251,3,GZ,1,100,0.305
1576860839.524971,626936.000,43267,3,GZ,1,100,0.763
1576860839.562896,626968.000,43267,3,GZ,1,100,-0.031
1576860839.600821,627000.000,43267,3,GZ,1,100,-0.214
1576860839.645856,627038.000,43285,3,GZ,1,100,0.153
1576860839.690892,627076.000,43285,3,GZ,1,100,0.031
1576860839.735927,627114.000,43285,3,GZ,1,100,0.305
1576860839.775432,627147.333,43303,3,GZ,1,100,0.122
1576860839.814937,627180.667,43303,3,GZ,1,100,0.519
1576860839.854442,627214.000,43303,3,GZ,1,100,0.244
1576860839.896317,627249.333,43321,3,GZ,1,100,-0.519
1576860839.938192,627284.667,43321,3,GZ,1,100,0.214
1576860839.980068,627320.000,43321,3,GZ,1,100,0.519
1576860840.018388,627352.333,43339,3,GZ,1,100,-0.214
1576860840.056707,627384.667,43339,3,GZ,1,100,0.092
1576860840.095027,627417.000,43339,3,GZ,1,100,0.549
1576860840.132557,627448.667,43358,3,GZ,1,100,0.000
1576860840.170086,627480.333,43358,3,GZ,1,100,-0.336
1576860840.207616,627512.000,43358,3,GZ,1,100,0.092
1576860840.247911,627546.000,43376,3,GZ,1,100,0.427
1576860840.288206,627580.000,43376,3,GZ,1,100,0.610
1576860840.328501,627614.000,43376,3,GZ,1,100,-0.153
1576860840.370376,627649.333,43393,3,GZ,1,100,0.244
1576860840.412251,627684.667,43393,3,GZ,1,100,0.244
1576860840.454127,627720.000,43393,3,GZ,1,100,-0.305
1576860840.496002,627755.333,43411,3,GZ,1,100,0.732
1576860840.537877,627790.667,43411,3,GZ,1,100,0.549
1576860840.579752,627826.000,43411,3,GZ,1,100,0.336
1576860840.620640,627860.500,43427,2,GZ,1,100,0.275
1576860840.661528,627895.000,43427,2,GZ,1,100,0.092
1576860840.704193,627931.000,43448,5,GZ,1,100,0.702
1576860840.746858,627967.000,43448,5,GZ,1,100,0.702
1576860840.789524,628003.000,43448,5,GZ,1,100,-0.031
1576860840.832189,628039.000,43448,5,GZ,1,100,0.427
1576860840.874854,628075.000,43448,5,GZ,1,100,0.397
1576860840.912779,628107.000,43468,3,GZ,1,100,0.183
1576860840.950704,628139.000,43468,3,GZ,1,100,0.000
1576860840.988628,628171.000,43468,3,GZ,1,100,0.336
1576860841.027343,628203.667,43486,3,GZ,1,100,0.427
1576860841.066058,628236.333,43486,3,GZ,1,100,-0.122
1576860841.104773,628269.000,43486,3,GZ,1,100,0.183
1576860841.145463,628303.333,43504,3,GZ,1,100,0.122
1576860841.186153,628337.667,43504,3,GZ,1,100,-0.336
1576860841.226843,628372.000,43504,3,GZ,1,100,-0.122
1576860841.267138,628406.000,43520,3,GZ,1,100,0.366
1576860841.307433,628440.000,43520,3,GZ,1,100,0.641
1576860841.347728,628474.000,43520,3,GZ,1,100,0.580
1576860841.391578,628511.000,43538,3,GZ,1,100,0.885
1576860841.435429,628548.000,43538,3,GZ,1,100,0.519
1576860841.479279,628585.000,43538,3,GZ,1,100,1.068
1576860841.517204,628617.000,43556,3,GZ,1,100,1.343
1576860841.555129,628649.000,43556,3,GZ,1,100,-0.275
1576860841.593054,628681.000,43556,3,GZ,1,100,-0.549
1576860841.632164,628714.000,43574,3,GZ,1,100,-0.793
1576860841.671273,628747.000,43574,3,GZ,1,100,-0.946
1576860841.710383,628780.000,43574,3,GZ,1,100,2.472
1576860841.751073,628814.333,43592,3,GZ,1,100,1.587
1576860841.791763,628848.667,43592,3,GZ,1,100,-1.038
1576860841.832453,628883.000,43592,3,GZ,1,100,-1.892
1576860841.873538,628917.667,43610,3,GZ,1,100,-1.129
1576860841.914623,628952.333,43610,3,GZ,1,100,1.648
1576860841.955709,628987.000,43610,3,GZ,1,100,1.099
1576860842.002522,629026.500,43628,2,GZ,1,100,-0.397
1576860842.049335,629066.000,43628,2,GZ,1,100,0.275
1576860842.086964,629097.750,43647,4,GZ,1,100,-1.648
1576860842.124592,629129.500,43647,4,GZ,1,100,-0.427
1576860842.162221,629161.250,43647,4,GZ,1,100,1.221
1576860842.199849,629193.000,43647,4,GZ,1,100,0.793
1576860842.238959,629226.000,43664,3,GZ,1,100,0.854
1576860842.278069,629259.000,43664,3,GZ,1,100,0.214
1576860842.317179,629292.000,43664,3,GZ,1,100,-1.343
1576860842.357079,629325.667,43682,3,GZ,1,100,-0.977
1576860842.396979,629359.333,43682,3,GZ,1,100,0.671
1576860842.436879,629393.000,43682,3,GZ,1,100,1.709
1576860842.477964,629427.667,43698,3,GZ,1,100,1.923
1576860842.519049,629462.333,43698,3,GZ,1,100,0.641
1576860842.560134,629497.000,43698,3,GZ,1,100,-2.441
1576860842.601614,629532.000,43716,2,GZ,1,100,-0.427
1576860842.643094,629567.000,43716,2,GZ,1,100,0.793
1576860842.685364,629602.667,43734,3,GZ,1,100,1.221
1576860842.727635,629638.333,43734,3,GZ,1,100,1.648
1576860842.769905,629674.000,43734,3,GZ,1,100,0.427
1576860842.815731,629712.667,43752,3,GZ,1,100,-0.732
1576860842.861557,629751.333,43752,3,GZ,1,100,-1.404
1576860842.907382,629790.000,43752,3,GZ,1,100,-0.549
1576860842.945307,629822.000,43770,3,GZ,1,100,1.373
1576860842.983232,629854.000,43770,3,GZ,1,100,2.136
1576860843.021156,629886.000,43770,3,GZ,1,100,0.671
1576860843.064217,629922.333,43789,3,GZ,1,100,-0.519
1576860843.107277,629958.667,43789,3,GZ,1,100,-0.946
1576860843.150337,629995.000,43789,3,GZ,1,100,-0.977
1576860843.191422,630029.667,43806,3,GZ,1,100,0.580
1576860843.232508,630064.333,43806,3,GZ,1,100,0.763
1576860843.273593,630099.000,43806,3,GZ,1,100,1.007
1576860843.318628,630137.000,43824,2,GZ,1,100,0.580
1576860843.363664,630175.000,43824,2,GZ,1,100,-1.556
1576860843.401589,630207.000,43840,4,GZ,1,100,-0.458
1576860843.439513,630239.000,43840,4,GZ,1,100,0.397
1576860843.477438,630271.000,43840,4,GZ,1,100,0.549
1576860843.515363,630303.000,43840,4,GZ,1,100,1.404
1576860843.554473,630336.000,43858,3,GZ,1,100,2.136
1576860843.593583,630369.000,43858,3,GZ,1,100,1.160
1576860843.632693,630402.000,43858,3,GZ,1,100,0.031
1576860843.672197,630435.333,43876,3,GZ,1,100,-1.617
1576860843.711702,630468.667,43876,3,GZ,1,100,-0.183
1576860843.751207,630502.000,43876,3,GZ,1,100,1.221
1576860843.789132,630534.000,43894,3,GZ,1,100,1.221
1576860843.827057,630566.000,43894,3,GZ,1,100,1.007
1576860843.864981,630598.000,43894,3,GZ,1,100,0.946
1576860843.903301,630630.333,43912,3,GZ,1,100,-0.580
1576860843.941621,630662.667,43912,3,GZ,1,100,-1.190
1576860843.979941,630695.000,43912,3,GZ,1,100,-0.153
1576860844.021026,630729.667,43931,3,GZ,1,100,0.427
1576860844.062111,630764.333,43931,3,GZ,1,100,1.373
1576860844.103196,630799.000,43931,3,GZ,1,100,2.106
1576860844.143886,630833.333,43949,3,GZ,1,100,1.099
1576860844.184576,630867.667,43949,3,GZ,1,100,0.763
1576860844.225266,630902.000,43949,3,GZ,1,100,-1.556
1576860844.267142,630937.333,43967,3,GZ,1,100,-1.007
1576860844.309017,630972.667,43967,3,GZ,1,100,1.282
1576860844.350892,631008.000,43967,3,GZ,1,100,0.916
1576860844.391977,631042.667,43984,3,GZ,1,100,1.465
1576860844.433062,631077.333,43984,3,GZ,1,100,2.289
1576860844.474147,631112.000,43984,3,GZ,1,100,0.214
1576860844.515627,631147.000,44002,2,GZ,1,100,-0.763
1576860844.557108,631182.000,44002,2,GZ,1,100,-0.610
1576860844.597403,631216.000,44020,4,GZ,1,100,-1.404
1576860844.637698,631250.000,44020,4,GZ,1,100,0.946
1576860844.677993,631284.000,44020,4,GZ,1,100,2.350
1576860844.718288,631318.000,44020,4,GZ,1,100,0.488
1576860844.757398,631351.000,44036,2,GZ,1,100,0.061
1576860844.796507,631384.000,44036,2,GZ,1,100,-0.153
1576860844.836506,631417.750,44054,4,GZ,1,100,-1.923
1576860844.876505,631451.500,44054,4,GZ,1,100,-0.885
1576860844.916504,631485.250,44054,4,GZ,1,100,0.885
1576860844.956502,631519.000,44054,4,GZ,1,100,1.068
1576860844.997983,631554.000,44072,2,GZ,1,100,1.099
1576860845.039463,631589.000,44072,2,GZ,1,100,0.519
1576860845.080943,631624.000,44091,3,GZ,1,100,-0.427
1576860845.122423,631659.000,44091,3,GZ,1,100,-1.068
1576860845.163903,631694.000,44091,3,GZ,1,100,-2.197
1576860845.206173,631729.667,44109,3,GZ,1,100,-0.397
1576860845.248444,631765.333,44109,3,GZ,1,100,0.854
1576860845.290714,631801.000,44109,3,GZ,1,100,0.702
1576860845.328639,631833.000,44127,3,GZ,1,100,1.770
1576860845.366563,631865.000,44127,3,GZ,1,100,1.831
1576860845.404488,631897.000,44127,3,GZ,1,100,-0.244
1576860845.444783,631931.000,44145,3,GZ,1,100,-2.045
1576860845.485078,631965.000,44145,3,GZ,1,100,-1.923
1576860845.525373,631999.000,44145,3,GZ,1,100,0.031
1576860845.566853,632034.000,44162,3,GZ,1,100,1.709
1576860845.608334,632069.000,44162,3,GZ,1,100,1.373
1576860845.649814,632104.000,44162,3,GZ,1,100,1.404
1576860845.691294,632139.000,44180,3,GZ,1,100,0.031
1576860845.732774,632174.000,44180,3,GZ,1,100,-1.465
1576860845.774254,632209.000,44180,3,GZ,1,100,-1.831
1576860845.816525,632244.667,44196,3,GZ,1,100,-0.153
1576860845.858795,632280.333,44196,3,GZ,1,100,1.495
1576860845.901065,632316.000,44196,3,GZ,1,100,1.160
1576860845.937804,632347.000,44214,3,GZ,1,100,0.397
1576860845.974544,632378.000,44214,3,GZ,1,100,0.610
1576860846.011284,632409.000,44214,3,GZ,1,100,0.183
1576860846.051974,632443.333,44233,3,GZ,1,100,-1.495
1576860846.092664,632477.667,44233,3,GZ,1,100,-0.366
1576860846.133354,632512.000,44233,3,GZ,1,100,1.129
1576860846.174044,632546.333,44251,3,GZ,1,100,1.862
1576860846.214734,632580.667,44251,3,GZ,1,100,2.747
1576860846.255424,632615.000,44251,3,GZ,1,100,1.617
1576860846.296114,632649.333,44269,3,GZ,1,100,1.770
1576860846.336804,632683.667,44269,3,GZ,1,100,1.312
1576860846.377494,632718.000,44269,3,GZ,1,100,-0.214
1576860846.417394,632751.667,44287,3,GZ,1,100,-0.275
1576860846.457294,632785.333,44287,3,GZ,1,100,0.153
1576860846.497194,632819.000,44287,3,GZ,1,100,0.336
1576860846.538279,632853.667,44305,3,GZ,1,100,1.221
1576860846.579365,632888.333,44305,3,GZ,1,100,1.343
1576860846.620450,632923.000,44305,3,GZ,1,100,0.641
1576860846.661535,632957.667,44323,3,GZ,1,100,1.251
1576860846.702620,632992.333,44323,3,GZ,1,100,1.160
1576860846.743705,633027.000,44323,3,GZ,1,100,-1.831
1576860846.783289,633060.400,44344,5,GZ,1,100,-0.122
1576860846.822873,633093.800,44344,5,GZ,1,100,1.740
1576860846.862457,633127.200,44344,5,GZ,1,100,0.458
1576860846.902041,633160.600,44344,5,GZ,1,100,-0.641
1576860846.941625,633194.000,44344,5,GZ,1,100,-0.610
1576860846.979944,633226.333,44364,3,GZ,1,100,-2.533
1576860847.018264,633258.667,44364,3,GZ,1,100,-0.244
1576860847.056584,633291.000,44364,3,GZ,1,100,3.113
1576860847.096089,633324.333,44383,3,GZ,1,100,0.366
1576860847.135594,633357.667,44383,3,GZ,1,100,-0.824
1576860847.175099,633391.000,44383,3,GZ,1,100,-0.488
1576860847.214999,633424.667,44401,3,GZ,1,100,-4.456
1576860847.254899,633458.333,44401,3,GZ,1,100,-4.547
1576860847.294799,633492.000,44401,3,GZ,1,100,2.655
1576860847.332723,633524.000,44419,3,GZ,1,100,0.885
1576860847.370648,633556.000,44419,3,GZ,1,100,-2.045
1576860847.408573,633588.000,44419,3,GZ,1,100,1.709
1576860847.445707,633619.333,44437,3,GZ,1,100,0.153
1576860847.482842,633650.667,44437,3,GZ,1,100,-1.862
1576860847.519977,633682.000,44437,3,GZ,1,100,1.617
1576860847.560667,633716.333,44455,3,GZ,1,100,1.221
1576860847.601357,633750.667,44455,3,GZ,1,100,-1.526
1576860847.642047,633785.000,44455,3,GZ,1,100,0.549
1576860847.681552,633818.333,44472,3,GZ,1,100,1.923
1576860847.721057,633851.667,44472,3,GZ,1,100,0.854
1576860847.760561,633885.000,44472,3,GZ,1,100,-0.580
1576860847.802437,633920.333,44490,3,GZ,1,100,-0.610
1576860847.844312,633955.667,44490,3,GZ,1,100,-1.862
1576860847.886187,633991.000,44490,3,GZ,1,100,-0.305
1576860847.926482,634025.000,44506,3,GZ,1,100,2.533
1576860847.966777,634059.000,44506,3,GZ,1,100,1.587
1576860848.007072,634093.000,44506,3,GZ,1,100,0.702
1576860848.048553,634128.000,44525,3,GZ,1,100,-0.031
1576860848.090033,634163.000,44525,3,GZ,1,100,-1.007
1576860848.131513,634198.000,44525,3,GZ,1,100,0.763
1576860848.172993,634233.000,44543,2,GZ,1,100,-0.488
1576860848.214473,634268.000,44543,2,GZ,1,100,-1.678
1576860848.253879,634301.250,44561,4,GZ,1,100,-0.519
1576860848.293285,634334.500,44561,4,GZ,1,100,-0.153
1576860848.332691,634367.750,44561,4,GZ,1,100,-0.610
1576860848.372098,634401.000,44561,4,GZ,1,100,1.007
1576860848.410418,634433.333,44579,3,GZ,1,100,0.305
1576860848.448737,634465.667,44579,3,GZ,1,100,0.519
1576860848.487057,634498.000,44579,3,GZ,1,100,0.916
1576860848.528932,634533.333,44597,3,GZ,1,100,-1.129
1576860848.570807,634568.667,44597,3,GZ,1,100,-0.549
1576860848.612683,634604.000,44597,3,GZ,1,100,-0.214
1576860848.651002,634636.333,44615,3,GZ,1,100,-0.397
1576860848.689322,634668.667,44615,3,GZ,1,100,-0.031
1576860848.727642,634701.000,44615,3,GZ,1,100,0.275
1576860848.767542,634734.667,44633,3,GZ,1,100,2.106
1576860848.807442,634768.333,44633,3,GZ,1,100,0.732
1576860848.847342,634802.000,44633,3,GZ,1,100,-2.991
1576860848.888427,634836.667,44650,3,GZ,1,100,-0.824
1576860848.929512,634871.333,44650,3,GZ,1,100,0.763
1576860848.970597,634906.000,44650,3,GZ,1,100,-0.122
1576860849.011287,634940.333,44669,3,GZ,1,100,-1.007
1576860849.051977,634974.667,44669,3,GZ,1,100,0.671
1576860849.092667,635009.000,44669,3,GZ,1,100,0.275
1576860849.130987,635041.333,44687,3,GZ,1,100,0.549
1576860849.169307,635073.667,44687,3,GZ,1,100,1.770
1576860849.207627,635106.000,44687,3,GZ,1,100,0.031
1576860849.248712,635140.667,44703,3,GZ,1,100,-0.702
1576860849.289797,635175.333,44703,3,GZ,1,100,0.427
1576860849.330882,635210.000,44703,3,GZ,1,100,-0.275
1576860849.371572,635244.333,44721,3,GZ,1,100,-0.946
1576860849.412262,635278.667,44721,3,GZ,1,100,0.763
1576860849.452952,635313.000,44721,3,GZ,1,100,0.977
1576860849.493840,635347.500,44739,2,GZ,1,100,-0.153
1576860849.534728,635382.000,44739,2,GZ,1,100,0.519
1576860849.575813,635416.667,44757,3,GZ,1,100,1.312
1576860849.616898,635451.333,44757,3,GZ,1,100,0.183
1576860849.657983,635486.000,44757,3,GZ,1,100,0.305
1576860849.696796,635518.750,44775,4,GZ,1,100,0.397
1576860849.735610,635551.500,44775,4,GZ,1,100,-0.275
1576860849.774424,635584.250,44775,4,GZ,1,100,-0.580
1576860849.813237,635617.000,44775,4,GZ,1,100,0.458
1576860849.856495,635653.500,44793,2,GZ,1,100,0.488
1576860849.899753,635690.000,44793,2,GZ,1,100,-0.061
1576860849.938863,635723.000,44811,3,GZ,1,100,-0.336
1576860849.977973,635756.000,44811,3,GZ,1,100,0.275
1576860850.017082,635789.000,44811,3,GZ,1,100,1.617
1576860850.057773,635823.333,44829,3,GZ,1,100,0.641
1576860850.098463,635857.667,44829,3,GZ,1,100,-0.580
1576860850.139153,635892.000,44829,3,GZ,1,100,0.031
1576860850.180238,635926.667,44847,3,GZ,1,100,-0.244
1576860850.221323,635961.333,44847,3,GZ,1,100,-1.129
1576860850.262408,635996.000,44847,3,GZ,1,100,0.305
1576860850.301518,636029.000,44865,3,GZ,1,100,0.854
1576860850.340628,636062.000,44865,3,GZ,1,100,0.885
1576860850.379738,636095.000,44865,3,GZ,1,100,1.526
1576860850.417662,636127.000,44881,3,GZ,1,100,0.885
1576860850.455587,636159.000,44881,3,GZ,1,100,0.641
1576860850.493512,636191.000,44881,3,GZ,1,100,0.336
1576860850.536177,636227.000,44899,3,GZ,1,100,-0.031
1576860850.578842,636263.000,44899,3,GZ,1,100,0.671
1576860850.621508,636299.000,44899,3,GZ,1,100,0.610
1576860850.661013,636332.333,44917,3,GZ,1,100,0.610
1576860850.700518,636365.667,44917,3,GZ,1,100,0.580
1576860850.740023,636399.000,44917,3,GZ,1,100,0.244
1576860850.781503,636434.000,44935,3,GZ,1,100,0.580
1576860850.822983,636469.000,44935,3,GZ,1,100,0.397
1576860850.864463,636504.000,44935,3,GZ,1,100,0.031
1576860850.902783,636536.333,44953,3,GZ,1,100,-0.092
1576860850.941103,636568.667,44953,3,GZ,1,100,0.275
1576860850.979422,636601.000,44953,3,GZ,1,100,0.793
1576860851.016755,636632.500,44972,4,GZ,1,100,2.655
1576860851.054087,636664.000,44972,4,GZ,1,100,2.533
1576860851.091419,636695.500,44972,4,GZ,1,100,2.808
1576860851.128751,636727.000,44972,4,GZ,1,100,3.204
1576860851.174379,636765.500,44990,2,GZ,1,100,2.136
1576860851.220007,636804.000,44990,2,GZ,1,100,1.923
1576860851.255957,636834.333,45008,3,GZ,1,100,1.862
1576860851.291906,636864.667,45008,3,GZ,1,100,-0.366
1576860851.327856,636895.000,45008,3,GZ,1,100,-0.793
1576860851.371706,636932.000,45025,3,GZ,1,100,-0.183
1576860851.415557,636969.000,45025,3,GZ,1,100,-0.366
1576860851.459407,637006.000,45025,3,GZ,1,100,-0.275
1576860851.496937,637037.667,45043,3,GZ,1,100,-0.488
1576860851.534467,637069.333,45043,3,GZ,1,100,-0.244
1576860851.571996,637101.000,45043,3,GZ,1,100,-1.129
1576860851.612291,637135.000,45061,3,GZ,1,100,-1.038
1576860851.652586,637169.000,45061,3,GZ,1,100,0.854
1576860851.692881,637203.000,45061,3,GZ,1,100,-0.092
1576860851.734361,637238.000,45077,3,GZ,1,100,-0.977
1576860851.775841,637273.000,45077,3,GZ,1,100,1.129
1576860851.817322,637308.000,45077,3,GZ,1,100,-0.336
1576860851.858802,637343.000,45095,3,GZ,1,100,-1.343
1576860851.900282,637378.000,45095,3,GZ,1,100,0.519
1576860851.941762,637413.000,45095,3,GZ,1,100,1.587
1576860851.980872,637446.000,45114,3,GZ,1,100,0.244
1576860852.019982,637479.000,45114,3,GZ,1,100,-0.549
1576860852.059092,637512.000,45114,3,GZ,1,100,0.305
1576860852.097017,637544.000,45132,3,GZ,1,100,0.366
1576860852.134941,637576.000,45132,3,GZ,1,100,-0.427
1576860852.172866,637608.000,45132,3,GZ,1,100,0.214
1576860852.213161,637642.000,45150,3,GZ,1,100,0.061
1576860852.253456,637676.000,45150,3,GZ,1,100,0.031
1576860852.293751,637710.000,45150,3,GZ,1,100,-0.061
1576860852.336021,637745.667,45168,3,GZ,1,100,-1.801
1576860852.378292,637781.333,45168,3,GZ,1,100,0.092
1576860852.420562,637817.000,45168,3,GZ,1,100,1.038
1576860852.460857,637851.000,45186,3,GZ,1,100,-0.610
1576860852.501152,637885.000,45186,3,GZ,1,100,0.427
1576860852.541447,637919.000,45186,3,GZ,1,100,0.244
1576860852.581347,637952.667,45203,3,GZ,1,100,-0.061
1576860852.621247,637986.333,45203,3,GZ,1,100,0.336
1576860852.661147,638020.000,45203,3,GZ,1,100,-0.214
1576860852.703417,638055.667,45221,3,GZ,1,100,0.732
1576860852.745687,638091.333,45221,3,GZ,1,100,0.824
1576860852.787958,638127.000,45221,3,GZ,1,100,0.244
1576860852.825645,638158.800,45242,5,GZ,1,100,0.122
1576860852.863333,638190.600,45242,5,GZ,1,100,0.671
1576860852.901021,638222.400,45242,5,GZ,1,100,0.549
1576860852.938708,638254.200,45242,5,GZ,1,100,0.031
1576860852.976396,638286.000,45242,5,GZ,1,100,-0.092
1576860853.019061,638322.000,45263,3,GZ,1,100,0.366
1576860853.061727,638358.000,45263,3,GZ,1,100,0.366
1576860853.104392,638394.000,45263,3,GZ,1,100,-0.214
1576860853.145477,638428.667,45281,3,GZ,1,100,-1.068
1576860853.186562,638463.333,45281,3,GZ,1,100,-0.702
1576860853.227647,638498.000,45281,3,GZ,1,100,0.061
1576860853.268733,638532.667,45298,3,GZ,1,100,-0.061
1576860853.309818,638567.333,45298,3,GZ,1,100,1.129
1576860853.350903,638602.000,45298,3,GZ,1,100,0.275
1576860853.390013,638635.000,45316,3,GZ,1,100,-0.244
1576860853.429122,638668.000,45316,3,GZ,1,100,-0.336
1576860853.468232,638701.000,45316,3,GZ,1,100,-0.610
1576860853.506157,638733.000,45334,3,GZ,1,100,0.458
1576860853.544082,638765.000,45334,3,GZ,1,100,0.641
1576860853.582006,638797.000,45334,3,GZ,1,100,0.305
1576860853.625067,638833.333,45350,3,GZ,1,100,-0.580
1576860853.668127,638869.667,45350,3,GZ,1,100,0.549
1576860853.711188,638906.000,45350,3,GZ,1,100,0.153
1576860853.752075,638940.500,45368,2,GZ,1,100,0.122
1576860853.792963,638975.000,45368,2,GZ,1,100,0.000
1576860853.834048,639009.667,45386,3,GZ,1,100,0.336
1576860853.875133,639044.333,45386,3,GZ,1,100,0.702
1576860853.916218,639079.000,45386,3,GZ,1,100,0.061
1576860853.958093,639114.333,45405,3,GZ,1,100,0.946
1576860853.999969,639149.667,45405,3,GZ,1,100,0.214
1576860854.041844,639185.000,45405,3,GZ,1,100,-0.183
1576860854.078583,639216.000,45423,3,GZ,1,100,0.732
1576860854.115323,639247.000,45423,3,GZ,1,100,0.641
1576860854.152062,639278.000,45423,3,GZ,1,100,0.488
1576860854.190876,639310.750,45441,4,GZ,1,100,0.336
1576860854.229690,639343.500,45441,4,GZ,1,100,0.336
1576860854.268503,639376.250,45441,4,GZ,1,100,0.153
1576860854.307317,639409.000,45441,4,GZ,1,100,-0.031
1576860854.353538,639448.000,45459,2,GZ,1,100,-0.397
1576860854.399758,639487.000,45459,2,GZ,1,100,-0.275
1576860854.437288,639518.667,45476,3,GZ,1,100,0.061
1576860854.474818,639550.333,45476,3,GZ,1,100,0.061
1576860854.512347,639582.000,45476,3,GZ,1,100,0.580
1576860854.557383,639620.000,45494,3,GZ,1,100,0.153
1576860854.602418,639658.000,45494,3,GZ,1,100,-0.153
1576860854.647454,639696.000,45494,3,GZ,1,100,-0.092
1576860854.687354,639729.667,45512,3,GZ,1,100,-0.763
1576860854.727254,639763.333,45512,3,GZ,1,100,0.793
1576860854.767154,639797.000,45512,3,GZ,1,100,1.556
1576860854.805079,639829.000,45528,3,GZ,1,100,0.519
1576860854.843004,639861.000,45528,3,GZ,1,100,1.526
1576860854.880928,639893.000,45528,3,GZ,1,100,0.488
1576860854.925174,639930.333,45546,3,GZ,1,100,-0.610
1576860854.969419,639967.667,45546,3,GZ,1,100,-0.183
1576860855.013665,640005.000,45546,3,GZ,1,100,0.397
1576860855.050799,640036.333,45565,3,GZ,1,100,0.244
1576860855.087934,640067.667,45565,3,GZ,1,100,-0.397
1576860855.125069,640099.000,45565,3,GZ,1,100,1.068
1576860855.170499,640137.333,45583,3,GZ,1,100,0.916
1576860855.215930,640175.667,45583,3,GZ,1,100,0.488
1576860855.261361,640214.000,45583,3,GZ,1,100,0.397
1576860855.297705,640244.667,45601,3,GZ,1,100,0.580
1576860855.334050,640275.333,45601,3,GZ,1,100,0.732
1576860855.370394,640306.000,45601,3,GZ,1,100,0.946
1576860855.415035,640343.667,45619,3,GZ,1,100,0.336
1576860855.459675,640381.333,45619,3,GZ,1,100,0.061
1576860855.504316,640419.000,45619,3,GZ,1,100,0.305
1576860855.545796,640454.000,45636,2,GZ,1,100,0.397
1576860855.587276,640489.000,45636,2,GZ,1,100,0.671
1576860855.628756,640524.000,45654,3,GZ,1,100,0.854
1576860855.670237,640559.000,45654,3,GZ,1,100,0.519
1576860855.711717,640594.000,45654,3,GZ,1,100,0.549
1576860855.749938,640626.250,45670,4,GZ,1,100,0.153
1576860855.788159,640658.500,45670,4,GZ,1,100,-0.580
1576860855.826380,640690.750,45670,4,GZ,1,100,0.000
1576860855.864601,640723.000,45670,4,GZ,1,100,0.549
1576860855.904501,640756.667,45688,3,GZ,1,100,-0.092
1576860855.944401,640790.333,45688,3,GZ,1,100,0.336
1576860855.984301,640824.000,45688,3,GZ,1,100,0.488
1576860856.022225,640856.000,45707,3,GZ,1,100,0.641
1576860856.060150,640888.000,45707,3,GZ,1,100,0.305
1576860856.098075,640920.000,45707,3,GZ,1,100,0.977
1576860856.137185,640953.000,45725,3,GZ,1,100,0.641
1576860856.176295,640986.000,45725,3,GZ,1,100,0.549
1576860856.215404,641019.000,45725,3,GZ,1,100,1.434
1576860856.262218,641058.500,45743,2,GZ,1,100,0.641
1576860856.309031,641098.000,45743,2,GZ,1,100,0.031
1576860856.349721,641132.333,45761,3,GZ,1,100,-0.031
1576860856.390411,641166.667,45761,3,GZ,1,100,0.458
1576860856.431101,641201.000,45761,3,GZ,1,100,0.458
1576860856.472581,641236.000,45779,3,GZ,1,100,0.336
1576860856.514061,641271.000,45779,3,GZ,1,100,0.336
1576860856.555542,641306.000,45779,3,GZ,1,100,0.641
1576860856.592874,641337.500,45797,4,GZ,1,100,0.061
1576860856.630206,641369.000,45797,4,GZ,1,100,0.366
1576860856.667538,641400.500,45797,4,GZ,1,100,1.648
1576860856.704870,641432.000,45797,4,GZ,1,100,0.916
1576860856.743585,641464.667,45814,3,GZ,1,100,0.549
1576860856.782300,641497.333,45814,3,GZ,1,100,0.580
1576860856.821015,641530.000,45814,3,GZ,1,100,-1.678
1576860856.867828,641569.500,45832,2,GZ,1,100,-0.488
1576860856.914641,641609.000,45832,2,GZ,1,100,1.343
1576860856.956122,641644.000,45848,3,GZ,1,100,0.092
1576860856.997602,641679.000,45848,3,GZ,1,100,0.580
1576860857.039082,641714.000,45848,3,GZ,1,100,0.061
1576860857.080562,641749.000,45867,3,GZ,1,100,-0.549
1576860857.122042,641784.000,45867,3,GZ,1,100,-0.610
1576860857.163522,641819.000,45867,3,GZ,1,100,-0.244
1576860857.200262,641850.000,45885,3,GZ,1,100,-0.732
1576860857.237002,641881.000,45885,3,GZ,1,100,0.732
1576860857.273741,641912.000,45885,3,GZ,1,100,1.312
1576860857.312061,641944.333,45903,3,GZ,1,100,-0.488
1576860857.350381,641976.667,45903,3,GZ,1,100,0.061
1576860857.388700,642009.000,45903,3,GZ,1,100,0.092
1576860857.429390,642043.333,45921,3,GZ,1,100,-0.092
1576860857.470081,642077.667,45921,3,GZ,1,100,-0.275
1576860857.510771,642112.000,45921,3,GZ,1,100,0.153
1576860857.556201,642150.333,45939,3,GZ,1,100,0.092
1576860857.601632,642188.667,45939,3,GZ,1,100,0.214
1576860857.647063,642227.000,45939,3,GZ,1,100,0.488
1576860857.688148,642261.667,45957,3,GZ,1,100,-0.061
1576860857.729233,642296.333,45957,3,GZ,1,100,0.397
1576860857.770318,642331.000,45957,3,GZ,1,100,-0.183
1576860857.808243,642363.000,45975,3,GZ,1,100,0.061
1576860857.846168,642395.000,45975,3,GZ,1,100,0.519
1576860857.884092,642427.000,45975,3,GZ,1,100,0.305
1576860857.921227,642458.333,45993,3,GZ,1,100,0.427
1576860857.958361,642489.667,45993,3,GZ,1,100,0.702
1576860857.995496,642521.000,45993,3,GZ,1,100,0.610
1576860858.035791,642555.000,46011,3,GZ,1,100,0.702
1576860858.076086,642589.000,46011,3,GZ,1,100,0.061
1576860858.116381,642623.000,46011,3,GZ,1,100,-0.275
1576860858.161417,642661.000,46029,3,GZ,1,100,-0.488
1576860858.206452,642699.000,46029,3,GZ,1,100,0.183
1576860858.251488,642737.000,46029,3,GZ,1,100,0.580
1576860858.289018,642768.667,46045,3,GZ,1,100,-0.061
1576860858.326547,642800.333,46045,3,GZ,1,100,0.610
1576860858.364077,642832.000,46045,3,GZ,1,100,2.747
1576860858.406347,642867.667,46063,3,GZ,1,100,1.099
1576860858.448617,642903.333,46063,3,GZ,1,100,-1.343
1576860858.490888,642939.000,46063,3,GZ,1,100,-0.702
1576860858.530590,642972.500,46081,2,GZ,1,100,0.122
1576860858.570293,643006.000,46081,2,GZ,1,100,0.824
1576860858.611773,643041.000,46099,4,GZ,1,100,1.099
1576860858.653253,643076.000,46099,4,GZ,1,100,0.092
1576860858.694733,643111.000,46099,4,GZ,1,100,0.549
1576860858.736213,643146.000,46099,4,GZ,1,100,-0.214
1576860858.783027,643185.500,46117,2,GZ,1,100,0.244
1576860858.829840,643225.000,46117,2,GZ,1,100,1.221
1576860858.868713,643257.800,46138,5,GZ,1,100,-0.305
1576860858.907586,643290.600,46138,5,GZ,1,100,-2.045
1576860858.946459,643323.400,46138,5,GZ,1,100,0.519
1576860858.985331,643356.200,46138,5,GZ,1,100,1.373
1576860859.024204,643389.000,46138,5,GZ,1,100,-0.732
1576860859.065684,643424.000,46157,3,GZ,1,100,-0.732
1576860859.107164,643459.000,46157,3,GZ,1,100,0.366
1576860859.148645,643494.000,46157,3,GZ,1,100,0.366
1576860859.193285,643531.667,46175,3,GZ,1,100,-0.061
1576860859.237926,643569.333,46175,3,GZ,1,100,-0.214
1576860859.282566,643607.000,46175,3,GZ,1,100,-0.366
1576860859.323454,643641.500,46195,2,GZ,1,100,-0.153
1576860859.364341,643676.000,46195,2,GZ,1,100,-0.214
1576860859.405032,643710.333,46212,3,GZ,1,100,-0.122
1576860859.445722,643744.667,46212,3,GZ,1,100,-0.397
1576860859.486412,643779.000,46212,3,GZ,1,100,-0.153
1576860859.528287,643814.333,46230,3,GZ,1,100,0.580
1576860859.570162,643849.667,46230,3,GZ,1,100,-0.092
1576860859.612037,643885.000,46230,3,GZ,1,100,-0.336
1576860859.651542,643918.333,46248,3,GZ,1,100,0.671
1576860859.691047,643951.667,46248,3,GZ,1,100,-0.793
1576860859.730552,643985.000,46248,3,GZ,1,100,-0.549
1576860859.768773,644017.250,46264,4,GZ,1,100,0.671
1576860859.806994,644049.500,46264,4,GZ,1,100,0.793
1576860859.845215,644081.750,46264,4,GZ,1,100,0.153
1576860859.883436,644114.000,46264,4,GZ,1,100,0.275
1576860859.923336,644147.667,46282,3,GZ,1,100,1.404
1576860859.963236,644181.333,46282,3,GZ,1,100,-0.092
1576860860.003136,644215.000,46282,3,GZ,1,100,-0.427
1576860860.045209,644250.500,46301,2,GZ,1,100,1.740
1576860860.087281,644286.000,46301,2,GZ,1,100,1.404
1576860860.127577,644320.000,46319,3,GZ,1,100,-1.984
1576860860.167871,644354.000,46319,3,GZ,1,100,-1.221
1576860860.208167,644388.000,46319,3,GZ,1,100,1.038
1576860860.253202,644426.000,46337,3,GZ,1,100,-0.916
1576860860.298238,644464.000,46337,3,GZ,1,100,-0.885
1576860860.343273,644502.000,46337,3,GZ,1,100,0.702
1576860860.384358,644536.667,46355,3,GZ,1,100,-0.580
1576860860.425444,644571.333,46355,3,GZ,1,100,-0.793
1576860860.466529,644606.000,46355,3,GZ,1,100,1.740
1576860860.505639,644639.000,46373,3,GZ,1,100,0.732
1576860860.544749,644672.000,46373,3,GZ,1,100,-0.824
1576860860.583858,644705.000,46373,3,GZ,1,100,0.336
1576860860.620993,644736.333,46390,3,GZ,1,100,0.000
1576860860.658128,644767.667,46390,3,GZ,1,100,-0.061
1576860860.695262,644799.000,46390,3,GZ,1,100,0.793
1576860860.734767,644832.333,46408,3,GZ,1,100,0.122
1576860860.774272,644865.667,46408,3,GZ,1,100,-0.275
1576860860.813777,644899.000,46408,3,GZ,1,100,0.580
1576860860.854467,644933.333,46426,3,GZ,1,100,-0.427
1576860860.895157,644967.667,46426,3,GZ,1,100,-0.702
1576860860.935847,645002.000,46426,3,GZ,1,100,0.244
1576860860.980883,645040.000,46442,3,GZ,1,100,0.031
1576860861.025918,645078.000,46442,3,GZ,1,100,0.824
1576860861.070954,645116.000,46442,3,GZ,1,100,1.984
1576860861.110854,645149.667,46461,3,GZ,1,100,2.563
1576860861.150754,645183.333,46461,3,GZ,1,100,4.181
1576860861.190654,645217.000,46461,3,GZ,1,100,3.906
1576860861.227788,645248.333,46479,3,GZ,1,100,0.397
1576860861.264923,645279.667,46479,3,GZ,1,100,0.061
1576860861.302058,645311.000,46479,3,GZ,1,100,-0.488
1576860861.341563,645344.333,46497,3,GZ,1,100,0.275
1576860861.381068,645377.667,46497,3,GZ,1,100,-0.732
1576860861.420573,645411.000,46497,3,GZ,1,100,0.000
1576860861.462053,645446.000,46515,3,GZ,1,100,1.251
1576860861.503533,645481.000,46515,3,GZ,1,100,0.488
1576860861.545013,645516.000,46515,3,GZ,1,100,0.549
1576860861.590049,645554.000,46533,3,GZ,1,100,-0.671
1576860861.635084,645592.000,46533,3,GZ,1,100,-0.824
1576860861.680120,645630.000,46533,3,GZ,1,100,-0.244
1576860861.719230,645663.000,46551,3,GZ,1,100,-1.312
1576860861.758340,645696.000,46551,3,GZ,1,100,-2.350
1576860861.797450,645729.000,46551,3,GZ,1,100,-0.610
1576860861.835374,645761.000,46569,3,GZ,1,100,0.885
1576860861.873299,645793.000,46569,3,GZ,1,100,-0.427
1576860861.911224,645825.000,46569,3,GZ,1,100,-0.610
1576860861.949543,645857.333,46586,3,GZ,1,100,-0.397
1576860861.987863,645889.667,46586,3,GZ,1,100,0.305
1576860862.026183,645922.000,46586,3,GZ,1,100,0.824
1576860862.067268,645956.667,46605,3,GZ,1,100,1.465
1576860862.108353,645991.333,46605,3,GZ,1,100,0.214
1576860862.149438,646026.000,46605,3,GZ,1,100,-1.251
1576860862.190326,646060.500,46621,2,GZ,1,100,-1.190
1576860862.231214,646095.000,46621,2,GZ,1,100,-1.526
1576860862.272990,646130.250,46639,4,GZ,1,100,0.275
1576860862.314766,646165.500,46639,4,GZ,1,100,0.824
1576860862.356543,646200.750,46639,4,GZ,1,100,0.854
1576860862.398319,646236.000,46639,4,GZ,1,100,1.495
1576860862.445725,646276.000,46657,2,GZ,1,100,-0.641
1576860862.493131,646316.000,46657,2,GZ,1,100,-1.221
1576860862.531056,646348.000,46675,3,GZ,1,100,-0.183
1576860862.568980,646380.000,46675,3,GZ,1,100,-0.061
1576860862.606905,646412.000,46675,3,GZ,1,100,2.808
1576860862.649176,646447.667,46693,3,GZ,1,100,1.465
1576860862.691446,646483.333,46693,3,GZ,1,100,-0.397
1576860862.733716,646519.000,46693,3,GZ,1,100,0.610
1576860862.774801,646553.667,46710,3,GZ,1,100,-0.610
1576860862.815886,646588.333,46710,3,GZ,1,100,-1.465
1576860862.856972,646623.000,46710,3,GZ,1,100,-0.580
1576860862.899242,646658.667,46728,3,GZ,1,100,0.397
1576860862.941512,646694.333,46728,3,GZ,1,100,-0.793
1576860862.983782,646730.000,46728,3,GZ,1,100,-0.977
1576860863.024867,646764.667,46744,3,GZ,1,100,0.519
1576860863.065953,646799.333,46744,3,GZ,1,100,-0.610
1576860863.107038,646834.000,46744,3,GZ,1,100,-2.350
1576860863.153851,646873.500,46763,2,GZ,1,100,1.068
1576860863.200664,646913.000,46763,2,GZ,1,100,0.885
1576860863.240070,646946.250,46781,4,GZ,1,100,0.610
1576860863.279477,646979.500,46781,4,GZ,1,100,1.434
1576860863.318883,647012.750,46781,4,GZ,1,100,-1.038
1576860863.358289,647046.000,46781,4,GZ,1,100,-2.167
1576860863.399769,647081.000,46799,2,GZ,1,100,-1.129
1576860863.441249,647116.000,46799,2,GZ,1,100,-0.793
1576860863.478878,647147.750,46817,4,GZ,1,100,-0.580
1576860863.516506,647179.500,46817,4,GZ,1,100,0.824
1576860863.554134,647211.250,46817,4,GZ,1,100,0.732
1576860863.591763,647243.000,46817,4,GZ,1,100,-1.617
1576860863.632848,647277.667,46835,3,GZ,1,100,-1.221
1576860863.673933,647312.333,46835,3,GZ,1,100,-0.336
1576860863.715018,647347.000,46835,3,GZ,1,100,-0.549
1576860863.753338,647379.333,46853,3,GZ,1,100,-0.275
1576860863.791658,647411.667,46853,3,GZ,1,100,-0.580
1576860863.829978,647444.000,46853,3,GZ,1,100,-0.427
1576860863.869483,647477.333,46871,3,GZ,1,100,0.153
1576860863.908988,647510.667,46871,3,GZ,1,100,-0.275
1576860863.948492,647544.000,46871,3,GZ,1,100,1.709
1576860863.989973,647579.000,46888,2,GZ,1,100,1.526
1576860864.031453,647614.000,46888,2,GZ,1,100,0.763
1576860864.072933,647649.000,46907,3,GZ,1,100,4.059
1576860864.114413,647684.000,46907,3,GZ,1,100,1.709
1576860864.155893,647719.000,46907,3,GZ,1,100,0.031
1576860864.199744,647756.000,46923,3,GZ,1,100,2.899
1576860864.243594,647793.000,46923,3,GZ,1,100,1.495
1576860864.287445,647830.000,46923,3,GZ,1,100,-2.716
1576860864.325369,647862.000,46941,3,GZ,1,100,-3.967
1576860864.363294,647894.000,46941,3,GZ,1,100,1.190
1576860864.401219,647926.000,46941,3,GZ,1,100,1.709
1576860864.439143,647958.000,46959,3,GZ,1,100,1.373
1576860864.477068,647990.000,46959,3,GZ,1,100,1.312
1576860864.514993,648022.000,46959,3,GZ,1,100,2.167
1576860864.555683,648056.333,46977,3,GZ,1,100,0.916
1576860864.596373,648090.667,46977,3,GZ,1,100,0.793
1576860864.637063,648125.000,46977,3,GZ,1,100,0.946
1576860864.677358,648159.000,46995,3,GZ,1,100,0.793
1576860864.717653,648193.000,46995,3,GZ,1,100,0.702
1576860864.757948,648227.000,46995,3,GZ,1,100,-0.336
1576860864.802589,648264.667,47013,3,GZ,1,100,-0.732
1576860864.847229,648302.333,47013,3,GZ,1,100,-0.061
1576860864.891870,648340.000,47013,3,GZ,1,100,-1.648
1576860864.929795,648372.000,47034,5,GZ,1,100,-1.984
1576860864.967719,648404.000,47034,5,GZ,1,100,-0.458
1576860865.005644,648436.000,47034,5,GZ,1,100,0.366
1576860865.043569,648468.000,47034,5,GZ,1,100,0.763
1576860865.081493,648500.000,47034,5,GZ,1,100,1.526
1576860865.121393,648533.667,47055,3,GZ,1,100,1.129
1576860865.161293,648567.333,47055,3,GZ,1,100,1.526
1576860865.201193,648601.000,47055,3,GZ,1,100,0.610
1576860865.242278,648635.667,47073,3,GZ,1,100,-0.153
1576860865.283364,648670.333,47073,3,GZ,1,100,-0.244
1576860865.324449,648705.000,47073,3,GZ,1,100,-1.007
1576860865.369484,648743.000,47091,3,GZ,1,100,-0.580
1576860865.414520,648781.000,47091,3,GZ,1,100,0.244
1576860865.459555,648819.000,47091,3,GZ,1,100,-0.702
1576860865.497480,648851.000,47109,3,GZ,1,100,-0.183
1576860865.535405,648883.000,47109,3,GZ,1,100,-0.122
1576860865.573330,648915.000,47109,3,GZ,1,100,0.946
1576860865.611650,648947.333,47127,3,GZ,1,100,0.122
1576860865.649969,648979.667,47127,3,GZ,1,100,0.183
1576860865.688289,649012.000,47127,3,GZ,1,100,1.007
1576860865.727399,649045.000,47145,3,GZ,1,100,0.793
1576860865.766509,649078.000,47145,3,GZ,1,100,1.892
1576860865.805619,649111.000,47145,3,GZ,1,100,1.923
1576860865.847099,649146.000,47163,3,GZ,1,100,0.427
1576860865.888579,649181.000,47163,3,GZ,1,100,0.549
1576860865.930059,649216.000,47163,3,GZ,1,100,0.702
1576860865.970749,649250.333,47180,3,GZ,1,100,0.427
1576860866.011439,649284.667,47180,3,GZ,1,100,1.129
1576860866.052129,649319.000,47180,3,GZ,1,100,1.007
1576860866.095980,649356.000,47197,2,GZ,1,100,-0.061
1576860866.139830,649393.000,47197,2,GZ,1,100,1.495
1576860866.180915,649427.667,47215,3,GZ,1,100,1.282
1576860866.222000,649462.333,47215,3,GZ,1,100,0.153
1576860866.263086,649497.000,47215,3,GZ,1,100,0.763
1576860866.305751,649533.000,47233,3,GZ,1,100,0.061
1576860866.348416,649569.000,47233,3,GZ,1,100,0.763
1576860866.391082,649605.000,47233,3,GZ,1,100,0.214
1576860866.432562,649640.000,47251,3,GZ,1,100,0.549
1576860866.474042,649675.000,47251,3,GZ,1,100,0.488
1576860866.515522,649710.000,47251,3,GZ,1,100,0.214
1576860866.557397,649745.333,47269,3,GZ,1,100,0.916
1576860866.599272,649780.667,47269,3,GZ,1,100,1.007
1576860866.641148,649816.000,47269,3,GZ,1,100,0.854
1576860866.681048,649849.667,47287,3,GZ,1,100,-0.702
1576860866.720948,649883.333,47287,3,GZ,1,100,-1.099
1576860866.760848,649917.000,47287,3,GZ,1,100,0.549
1576860866.798377,649948.667,47305,3,GZ,1,100,0.122
1576860866.835907,649980.333,47305,3,GZ,1,100,-0.458
1576860866.873436,650012.000,47305,3,GZ,1,100,0.092
1576860866.913337,650045.667,47322,3,GZ,1,100,0.122
1576860866.953237,650079.333,47322,3,GZ,1,100,0.000
1576860866.993136,650113.000,47322,3,GZ,1,100,-0.061
1576860867.031456,650145.333,47341,3,GZ,1,100,-0.214
1576860867.069776,650177.667,47341,3,GZ,1,100,0.244
1576860867.108096,650210.000,47341,3,GZ,1,100,0.214
1576860867.146811,650242.667,47359,3,GZ,1,100,0.214
1576860867.185525,650275.333,47359,3,GZ,1,100,0.031
1576860867.224240,650308.000,47359,3,GZ,1,100,-0.824
1576860867.261375,650339.333,47375,3,GZ,1,100,0.153
1576860867.298510,650370.667,47375,3,GZ,1,100,-0.061
1576860867.335644,650402.000,47375,3,GZ,1,100,0.610
1576860867.376334,650436.333,47393,3,GZ,1,100,0.946
1576860867.417024,650470.667,47393,3,GZ,1,100,-0.580
1576860867.457714,650505.000,47393,3,GZ,1,100,-0.183
1576860867.495935,650537.250,47411,4,GZ,1,100,0.397
1576860867.534156,650569.500,47411,4,GZ,1,100,0.122
1576860867.572377,650601.750,47411,4,GZ,1,100,-0.122
1576860867.610598,650634.000,47411,4,GZ,1,100,0.397
1576860867.651289,650668.333,47429,3,GZ,1,100,-0.031
1576860867.691978,650702.667,47429,3,GZ,1,100,-0.031
1576860867.732669,650737.000,47429,3,GZ,1,100,0.519
1576860867.773556,650771.500,47447,2,GZ,1,100,-0.366
1576860867.814444,650806.000,47447,2,GZ,1,100,-0.153
1576860867.856319,650841.333,47465,3,GZ,1,100,0.092
1576860867.898194,650876.667,47465,3,GZ,1,100,0.488
1576860867.940069,650912.000,47465,3,GZ,1,100,0.183
1576860867.981154,650946.667,47483,3,GZ,1,100,0.214
1576860868.022240,650981.333,47483,3,GZ,1,100,0.336
1576860868.063325,651016.000,47483,3,GZ,1,100,0.275
1576860868.104805,651051.000,47501,3,GZ,1,100,-0.061
1576860868.146285,651086.000,47501,3,GZ,1,100,0.153
1576860868.187765,651121.000,47501,3,GZ,1,100,0.397
1576860868.225690,651153.000,47519,3,GZ,1,100,0.214
1576860868.263615,651185.000,47519,3,GZ,1,100,0.061
1576860868.301539,651217.000,47519,3,GZ,1,100,0.214
1576860868.343019,651252.000,47537,3,GZ,1,100,-0.061
1576860868.384500,651287.000,47537,3,GZ,1,100,0.153
1576860868.425980,651322.000,47537,3,GZ,1,100,0.153
1576860868.465880,651355.667,47555,3,GZ,1,100,0.061
1576860868.505780,651389.333,47555,3,GZ,1,100,-0.336
1576860868.545680,651423.000,47555,3,GZ,1,100,0.153
1576860868.586765,651457.667,47571,3,GZ,1,100,0.244
1576860868.627850,651492.333,47571,3,GZ,1,100,0.702
1576860868.668935,651527.000,47571,3,GZ,1,100,0.397
1576860868.710810,651562.333,47589,3,GZ,1,100,-0.244
1576860868.752686,651597.667,47589,3,GZ,1,100,0.336
1576860868.794561,651633.000,47589,3,GZ,1,100,0.397
1576860868.834856,651667.000,47607,3,GZ,1,100,0.214
1576860868.875151,651701.000,47607,3,GZ,1,100,0.275
1576860868.915446,651735.000,47607,3,GZ,1,100,0.000
1576860868.953371,651767.000,47625,3,GZ,1,100,0.153
1576860868.991295,651799.000,47625,3,GZ,1,100,0.366
1576860869.029220,651831.000,47625,3,GZ,1,100,0.427
1576860869.070305,651865.667,47644,3,GZ,1,100,-0.092
1576860869.111390,651900.333,47644,3,GZ,1,100,0.092
1576860869.152475,651935.000,47644,3,GZ,1,100,0.153
1576860869.193955,651970.000,47662,3,GZ,1,100,0.244
1576860869.235436,652005.000,47662,3,GZ,1,100,0.183
1576860869.276916,652040.000,47662,3,GZ,1,100,0.153
1576860869.318791,652075.333,47679,3,GZ,1,100,0.793
1576860869.360666,652110.667,47679,3,GZ,1,100,0.763
1576860869.402541,652146.000,47679,3,GZ,1,100,0.061
1576860869.443627,652180.667,47697,3,GZ,1,100,0.427
1576860869.484712,652215.333,47697,3,GZ,1,100,0.214
1576860869.525797,652250.000,47697,3,GZ,1,100,0.854
1576860869.562932,652281.333,47715,3,GZ,1,100,0.671
1576860869.600066,652312.667,47715,3,GZ,1,100,-0.397
1576860869.637201,652344.000,47715,3,GZ,1,100,0.000
1576860869.677496,652378.000,47733,3,GZ,1,100,-0.549
1576860869.717791,652412.000,47733,3,GZ,1,100,-0.336
1576860869.758086,652446.000,47733,3,GZ,1,100,0.153
1576860869.799171,652480.667,47749,3,GZ,1,100,0.061
1576860869.840256,652515.333,47749,3,GZ,1,100,0.244
1576860869.881341,652550.000,47749,3,GZ,1,100,0.275
1576860869.922031,652584.333,47767,3,GZ,1,100,0.092
1576860869.962721,652618.667,47767,3,GZ,1,100,0.275
1576860870.003411,652653.000,47767,3,GZ,1,100,0.397
1576860870.043114,652686.500,47786,2,GZ,1,100,0.122
1576860870.082816,652720.000,47786,2,GZ,1,100,0.214
1576860870.123408,652754.250,47804,4,GZ,1,100,0.214
1576860870.163999,652788.500,47804,4,GZ,1,100,0.336
1576860870.204590,652822.750,47804,4,GZ,1,100,0.549
1576860870.245181,652857.000,47804,4,GZ,1,100,0.885
1576860870.284686,652890.333,47822,3,GZ,1,100,0.183
1576860870.324191,652923.667,47822,3,GZ,1,100,0.061
1576860870.363696,652957.000,47822,3,GZ,1,100,0.793
1576860870.403201,652990.333,47840,3,GZ,1,100,0.031
1576860870.442706,653023.667,47840,3,GZ,1,100,0.244
1576860870.482211,653057.000,47840,3,GZ,1,100,0.427
1576860870.520136,653089.000,47858,3,GZ,1,100,-0.183
1576860870.558060,653121.000,47858,3,GZ,1,100,0.397
1576860870.595985,653153.000,47858,3,GZ,1,100,0.305
1576860870.632725,653184.000,47876,3,GZ,1,100,0.122
1576860870.669464,653215.000,47876,3,GZ,1,100,0.244
1576860870.706204,653246.000,47876,3,GZ,1,100,0.397
1576860870.746894,653280.333,47894,3,GZ,1,100,0.214
1576860870.787584,653314.667,47894,3,GZ,1,100,0.336
1576860870.828274,653349.000,47894,3,GZ,1,100,0.244
1576860870.866989,653381.667,47911,3,GZ,1,100,-0.031
1576860870.905704,653414.333,47911,3,GZ,1,100,0.519
1576860870.944418,653447.000,47911,3,GZ,1,100,0.519
1576860870.982817,653479.400,47933,5,GZ,1,100,0.488
1576860871.021216,653511.800,47933,5,GZ,1,100,1.007
1576860871.059615,653544.200,47933,5,GZ,1,100,0.977
1576860871.098014,653576.600,47933,5,GZ,1,100,0.305
1576860871.136412,653609.000,47933,5,GZ,1,100,0.397
1576860871.175127,653641.667,47953,3,GZ,1,100,0.305
1576860871.213842,653674.333,47953,3,GZ,1,100,0.519
1576860871.252557,653707.000,47953,3,GZ,1,100,0.458
1576860871.292062,653740.333,47971,3,GZ,1,100,0.275
1576860871.331567,653773.667,47971,3,GZ,1,100,0.671
1576860871.371072,653807.000,47971,3,GZ,1,100,0.549
1576860871.412157,653841.667,47989,3,GZ,1,100,0.763
1576860871.453242,653876.333,47989,3,GZ,1,100,0.610
1576860871.494327,653911.000,47989,3,GZ,1,100,-0.183
1576860871.536202,653946.333,48007,3,GZ,1,100,0.824
1576860871.578077,653981.667,48007,3,GZ,1,100,0.458
1576860871.619953,654017.000,48007,3,GZ,1,100,0.397
1576860871.661433,654052.000,48024,3,GZ,1,100,0.275
1576860871.702913,654087.000,48024,3,GZ,1,100,-0.031
1576860871.744393,654122.000,48024,3,GZ,1,100,0.214
1576860871.786268,654157.333,48040,3,GZ,1,100,0.275
1576860871.828144,654192.667,48040,3,GZ,1,100,0.000
1576860871.870019,654228.000,48040,3,GZ,1,100,0.183
1576860871.911104,654262.667,48058,3,GZ,1,100,0.549
1576860871.952189,654297.333,48058,3,GZ,1,100,0.031
1576860871.993274,654332.000,48058,3,GZ,1,100,0.244
1576860872.030804,654363.667,48077,3,GZ,1,100,0.336
1576860872.068333,654395.333,48077,3,GZ,1,100,-0.061
1576860872.105863,654427.000,48077,3,GZ,1,100,-0.214
1576860872.145763,654460.667,48095,3,GZ,1,100,-0.214
1576860872.185663,654494.333,48095,3,GZ,1,100,0.397
1576860872.225563,654528.000,48095,3,GZ,1,100,0.519
1576860872.266648,654562.667,48113,3,GZ,1,100,0.885
1576860872.307733,654597.333,48113,3,GZ,1,100,0.153
1576860872.348818,654632.000,48113,3,GZ,1,100,0.061
1576860872.389904,654666.667,48131,3,GZ,1,100,0.305
1576860872.430989,654701.333,48131,3,GZ,1,100,-0.122
1576860872.472074,654736.000,48131,3,GZ,1,100,0.122
1576860872.510788,654768.667,48149,3,GZ,1,100,0.336
1576860872.549503,654801.333,48149,3,GZ,1,100,0.000
1576860872.588218,654834.000,48149,3,GZ,1,100,-0.153
1576860872.629698,654869.000,48167,3,GZ,1,100,0.275
1576860872.671179,654904.000,48167,3,GZ,1,100,-0.183
1576860872.712659,654939.000,48167,3,GZ,1,100,0.061
1576860872.752361,654972.500,48185,2,GZ,1,100,-0.183
1576860872.792063,655006.000,48185,2,GZ,1,100,0.397
1576860872.833544,655041.000,48202,3,GZ,1,100,0.244
1576860872.875024,655076.000,48202,3,GZ,1,100,-0.031
1576860872.916504,655111.000,48202,3,GZ,1,100,0.183
1576860872.957589,655145.667,48220,3,GZ,1,100,-0.336
1576860872.998674,655180.333,48220,3,GZ,1,100,0.092
1576860873.039759,655215.000,48220,3,GZ,1,100,0.214
1576860873.080055,655249.000,48237,3,GZ,1,100,0.061
1576860873.120349,655283.000,48237,3,GZ,1,100,-0.122
1576860873.160645,655317.000,48237,3,GZ,1,100,0.092
1576860873.201334,655351.333,48255,3,GZ,1,100,0.122
1576860873.242025,655385.667,48255,3,GZ,1,100,0.092
1576860873.282715,655420.000,48255,3,GZ,1,100,0.305
1576860873.321034,655452.333,48273,3,GZ,1,100,0.183
1576860873.359354,655484.667,48273,3,GZ,1,100,0.305
1576860873.397674,655517.000,48273,3,GZ,1,100,0.214
1576860873.438759,655551.667,48291,3,GZ,1,100,0.244
1576860873.479844,655586.333,48291,3,GZ,1,100,0.183
1576860873.520929,655621.000,48291,3,GZ,1,100,0.122
1576860873.562014,655655.667,48309,3,GZ,1,100,0.244
1576860873.603100,655690.333,48309,3,GZ,1,100,0.153
1576860873.644185,655725.000,48309,3,GZ,1,100,0.610
1576860873.683690,655758.333,48327,3,GZ,1,100,0.427
1576860873.723195,655791.667,48327,3,GZ,1,100,0.183
1576860873.762699,655825.000,48327,3,GZ,1,100,0.549
1576860873.800624,655857.000,48345,3,GZ,1,100,-0.061
1576860873.838549,655889.000,48345,3,GZ,1,100,0.580
1576860873.876474,655921.000,48345,3,GZ,1,100,0.153
1576860873.918744,655956.667,48363,3,GZ,1,100,0.397
1576860873.961014,655992.333,48363,3,GZ,1,100,0.336
1576860874.003284,656028.000,48363,3,GZ,1,100,0.427
1576860874.042789,656061.333,48381,3,GZ,1,100,0.397
1576860874.082294,656094.667,48381,3,GZ,1,100,0.061
1576860874.121799,656128.000,48381,3,GZ,1,100,0.092
1576860874.162884,656162.667,48399,3,GZ,1,100,0.366
1576860874.203969,656197.333,48399,3,GZ,1,100,0.183
1576860874.245054,656232.000,48399,3,GZ,1,100,0.305
1576860874.283374,656264.333,48417,3,GZ,1,100,0.122
1576860874.321694,656296.667,48417,3,GZ,1,100,0.214
1576860874.360014,656329.000,48417,3,GZ,1,100,0.366
1576860874.397938,656361.000,48433,3,GZ,1,100,0.153
1576860874.435863,656393.000,48433,3,GZ,1,100,0.580
1576860874.473788,656425.000,48433,3,GZ,1,100,0.366
1576860874.515663,656460.333,48451,3,GZ,1,100,0.092
1576860874.557539,656495.667,48451,3,GZ,1,100,0.671
1576860874.599414,656531.000,48451,3,GZ,1,100,0.580
1576860874.635363,656561.333,48469,3,GZ,1,100,-0.183
1576860874.671313,656591.667,48469,3,GZ,1,100,-0.061
1576860874.707262,656622.000,48469,3,GZ,1,100,0.000
1576860874.751508,656659.333,48487,3,GZ,1,100,2.563
1576860874.795753,656696.667,48487,3,GZ,1,100,1.190
1576860874.839998,656734.000,48487,3,GZ,1,100,0.610
1576860874.877528,656765.667,48505,3,GZ,1,100,1.007
1576860874.915058,656797.333,48505,3,GZ,1,100,-1.404
1576860874.952588,656829.000,48505,3,GZ,1,100,-0.580
1576860874.992883,656863.000,48524,3,GZ,1,100,-0.031
1576860875.033178,656897.000,48524,3,GZ,1,100,-1.190
1576860875.073473,656931.000,48524,3,GZ,1,100,-0.366
1576860875.114953,656966.000,48542,3,GZ,1,100,-0.061
1576860875.156433,657001.000,48542,3,GZ,1,100,0.092
1576860875.197913,657036.000,48542,3,GZ,1,100,1.068
1576860875.239393,657071.000,48559,3,GZ,1,100,1.373
1576860875.280874,657106.000,48559,3,GZ,1,100,0.916
1576860875.322354,657141.000,48559,3,GZ,1,100,1.770
1576860875.363439,657175.667,48577,3,GZ,1,100,0.214
1576860875.404524,657210.333,48577,3,GZ,1,100,-0.793
1576860875.445609,657245.000,48577,3,GZ,1,100,-0.183
1576860875.487089,657280.000,48593,3,GZ,1,100,-0.244
1576860875.528569,657315.000,48593,3,GZ,1,100,0.488
1576860875.570050,657350.000,48593,3,GZ,1,100,0.763
1576860875.607974,657382.000,48611,3,GZ,1,100,0.061
1576860875.645899,657414.000,48611,3,GZ,1,100,0.122
1576860875.683824,657446.000,48611,3,GZ,1,100,0.183
1576860875.725699,657481.333,48629,3,GZ,1,100,0.031
1576860875.767574,657516.667,48629,3,GZ,1,100,0.122
1576860875.809449,657552.000,48629,3,GZ,1,100,0.000
1576860875.845794,657582.667,48647,3,GZ,1,100,0.214
1576860875.882138,657613.333,48647,3,GZ,1,100,0.580
1576860875.918483,657644.000,48647,3,GZ,1,100,0.793
1576860875.957988,657677.333,48666,3,GZ,1,100,0.671
1576860875.997493,657710.667,48666,3,GZ,1,100,0.366
1576860876.036998,657744.000,48666,3,GZ,1,100,-0.214
1576860876.080848,657781.000,48684,3,GZ,1,100,0.000
1576860876.124699,657818.000,48684,3,GZ,1,100,0.763
1576860876.168549,657855.000,48684,3,GZ,1,100,0.275
1576860876.208844,657889.000,48702,3,GZ,1,100,-0.092
1576860876.249139,657923.000,48702,3,GZ,1,100,0.641
1576860876.289434,657957.000,48702,3,GZ,1,100,0.366
1576860876.330124,657991.333,48720,3,GZ,1,100,0.702
1576860876.370814,658025.667,48720,3,GZ,1,100,0.336
1576860876.411504,658060.000,48720,3,GZ,1,100,-0.336
1576860876.449429,658092.000,48737,3,GZ,1,100,-0.031
1576860876.487354,658124.000,48737,3,GZ,1,100,0.305
1576860876.525278,658156.000,48737,3,GZ,1,100,-0.336
1576860876.566759,658191.000,48755,3,GZ,1,100,0.122
1576860876.608239,658226.000,48755,3,GZ,1,100,0.183
1576860876.649719,658261.000,48755,3,GZ,1,100,0.397
1576860876.690014,658295.000,48773,3,GZ,1,100,1.068
1576860876.730309,658329.000,48773,3,GZ,1,100,1.129
1576860876.770604,658363.000,48773,3,GZ,1,100,0.061
1576860876.812084,658398.000,48789,3,GZ,1,100,0.031
1576860876.853564,658433.000,48789,3,GZ,1,100,0.000
1576860876.895045,658468.000,48789,3,GZ,1,100,-0.153
1576860876.936525,658503.000,48807,3,GZ,1,100,0.519
1576860876.978005,658538.000,48807,3,GZ,1,100,0.275
1576860877.019485,658573.000,48807,3,GZ,1,100,0.549
1576860877.057173,658604.800,48829,5,GZ,1,100,0.702
1576860877.094860,658636.600,48829,5,GZ,1,100,0.153
1576860877.132548,658668.400,48829,5,GZ,1,100,0.427
1576860877.170236,658700.200,48829,5,GZ,1,100,-0.183
1576860877.207923,658732.000,48829,5,GZ,1,100,0.122
1576860877.252367,658769.500,48848,2,GZ,1,100,0.885
1576860877.296809,658807.000,48848,2,GZ,1,100,0.397
1576860877.338290,658842.000,48866,3,GZ,1,100,0.641
1576860877.379770,658877.000,48866,3,GZ,1,100,0.793
1576860877.421250,658912.000,48866,3,GZ,1,100,0.946
1576860877.461940,658946.333,48882,3,GZ,1,100,0.793
1576860877.502630,658980.667,48882,3,GZ,1,100,0.549
1576860877.543320,659015.000,48882,3,GZ,1,100,0.214
1576860877.584405,659049.667,48900,3,GZ,1,100,0.153
1576860877.625490,659084.333,48900,3,GZ,1,100,0.214
1576860877.666576,659119.000,48900,3,GZ,1,100,0.000
1576860877.703710,659150.333,48918,3,GZ,1,100,-0.061
1576860877.740845,659181.667,48918,3,GZ,1,100,0.519
1576860877.777979,659213.000,48918,3,GZ,1,100,0.305
1576860877.820250,659248.667,48936,3,GZ,1,100,-0.061
1576860877.862520,659284.333,48936,3,GZ,1,100,-0.031
1576860877.904790,659320.000,48936,3,GZ,1,100,0.305
1576860877.946270,659355.000,48955,3,GZ,1,100,0.641
1576860877.987751,659390.000,48955,3,GZ,1,100,0.183
1576860878.029231,659425.000,48955,3,GZ,1,100,-0.153
1576860878.069131,659458.667,48973,3,GZ,1,100,0.092
1576860878.109031,659492.333,48973,3,GZ,1,100,0.000
1576860878.148931,659526.000,48973,3,GZ,1,100,0.488
1576860878.186855,659558.000,48991,3,GZ,1,100,0.732
1576860878.224780,659590.000,48991,3,GZ,1,100,0.244
1576860878.262705,659622.000,48991,3,GZ,1,100,0.336
1576860878.306160,659658.667,49009,3,GZ,1,100,0.610
1576860878.349616,659695.333,49009,3,GZ,1,100,0.427
1576860878.393071,659732.000,49009,3,GZ,1,100,-0.397
1576860878.429811,659763.000,49026,3,GZ,1,100,0.366
1576860878.466550,659794.000,49026,3,GZ,1,100,0.244
1576860878.503290,659825.000,49026,3,GZ,1,100,0.244
1576860878.548720,659863.333,49042,3,GZ,1,100,0.519
1576860878.594151,659901.667,49042,3,GZ,1,100,0.183
1576860878.639582,659940.000,49042,3,GZ,1,100,-0.488
1576860878.679087,659973.333,49060,3,GZ,1,100,0.336
1576860878.718591,660006.667,49060,3,GZ,1,100,0.732
1576860878.758096,660040.000,49060,3,GZ,1,100,0.305
1576860878.796021,660072.000,49078,3,GZ,1,100,-0.183
1576860878.833946,660104.000,49078,3,GZ,1,100,0.305
1576860878.871871,660136.000,49078,3,GZ,1,100,0.610
1576860878.914536,660172.000,49096,3,GZ,1,100,0.305
1576860878.957201,660208.000,49096,3,GZ,1,100,0.305
1576860878.999866,660244.000,49096,3,GZ,1,100,0.092
1576860879.040952,660278.667,49115,3,GZ,1,100,0.275
1576860879.082037,660313.333,49115,3,GZ,1,100,-0.122
1576860879.123122,660348.000,49115,3,GZ,1,100,0.031
1576860879.164010,660382.500,49133,2,GZ,1,100,-0.305
1576860879.204897,660417.000,49133,2,GZ,1,100,0.244
1576860879.246377,660452.000,49151,3,GZ,1,100,0.458
1576860879.287858,660487.000,49151,3,GZ,1,100,0.580
1576860879.329338,660522.000,49151,3,GZ,1,100,0.427
1576860879.367262,660554.000,49168,3,GZ,1,100,-0.122
1576860879.405187,660586.000,49168,3,GZ,1,100,-0.336
1576860879.443112,660618.000,49168,3,GZ,1,100,0.397
1576860879.483802,660652.333,49186,3,GZ,1,100,-0.305
1576860879.524492,660686.667,49186,3,GZ,1,100,-0.244
1576860879.565182,660721.000,49186,3,GZ,1,100,1.648
1576860879.602810,660752.750,49204,4,GZ,1,100,1.617
1576860879.640439,660784.500,49204,4,GZ,1,100,0.183
1576860879.678067,660816.250,49204,4,GZ,1,100,0.000
1576860879.715696,660848.000,49204,4,GZ,1,100,0.275
1576860879.755991,660882.000,49220,3,GZ,1,100,-0.122
1576860879.796286,660916.000,49220,3,GZ,1,100,0.214
1576860879.836581,660950.000,49220,3,GZ,1,100,0.641
1576860879.883394,660989.500,49238,2,GZ,1,100,0.793
1576860879.930207,661029.000,49238,2,GZ,1,100,0.458
1576860879.970502,661063.000,49257,3,GZ,1,100,0.885
1576860880.010798,661097.000,49257,3,GZ,1,100,0.153
1576860880.051092,661131.000,49257,3,GZ,1,100,-0.458
1576860880.092178,661165.667,49275,3,GZ,1,100,-0.610
1576860880.133263,661200.333,49275,3,GZ,1,100,-0.488
1576860880.174348,661235.000,49275,3,GZ,1,100,0.275
1576860880.211483,661266.333,49293,3,GZ,1,100,0.458
1576860880.248617,661297.667,49293,3,GZ,1,100,0.488
1576860880.285752,661329.000,49293,3,GZ,1,100,1.160
1576860880.324071,661361.333,49311,3,GZ,1,100,0.366
1576860880.362391,661393.667,49311,3,GZ,1,100,-0.427
1576860880.400711,661426.000,49311,3,GZ,1,100,-0.366
1576860880.446142,661464.333,49329,3,GZ,1,100,0.153
1576860880.491572,661502.667,49329,3,GZ,1,100,0.122
1576860880.537003,661541.000,49329,3,GZ,1,100,0.000
1576860880.577693,661575.333,49347,3,GZ,1,100,0.366
1576860880.618383,661609.667,49347,3,GZ,1,100,0.519
1576860880.659073,661644.000,49347,3,GZ,1,100,-0.061
1576860880.699763,661678.333,49364,3,GZ,1,100,-0.153
1576860880.740453,661712.667,49364,3,GZ,1,100,0.519
1576860880.781143,661747.000,49364,3,GZ,1,100,0.336
1576860880.819068,661779.000,49382,3,GZ,1,100,-0.031
1576860880.856993,661811.000,49382,3,GZ,1,100,0.275
1576860880.894917,661843.000,49382,3,GZ,1,100,0.183
1576860880.933237,661875.333,49400,3,GZ,1,100,0.183
1576860880.971557,661907.667,49400,3,GZ,1,100,0.153
1576860881.009877,661940.000,49400,3,GZ,1,100,0.732
1576860881.050567,661974.333,49417,3,GZ,1,100,0.580
1576860881.091257,662008.667,49417,3,GZ,1,100,0.488
1576860881.131947,662043.000,49417,3,GZ,1,100,0.183
1576860881.176588,662080.667,49435,3,GZ,1,100,0.427
1576860881.221228,662118.333,49435,3,GZ,1,100,0.336
1576860881.265869,662156.000,49435,3,GZ,1,100,0.214
1576860881.306954,662190.667,49453,3,GZ,1,100,0.519
1576860881.348039,662225.333,49453,3,GZ,1,100,0.702
1576860881.389124,662260.000,49453,3,GZ,1,100,0.366
1576860881.425864,662291.000,49471,3,GZ,1,100,0.549
1576860881.462603,662322.000,49471,3,GZ,1,100,0.305
1576860881.499343,662353.000,49471,3,GZ,1,100,-0.092
1576860881.538848,662386.333,49489,3,GZ,1,100,0.427
1576860881.578353,662419.667,49489,3,GZ,1,100,0.610
1576860881.617858,662453.000,49489,3,GZ,1,100,0.458
1576860881.661708,662490.000,49507,3,GZ,1,100,0.183
1576860881.705559,662527.000,49507,3,GZ,1,100,-0.183
1576860881.749409,662564.000,49507,3,GZ,1,100,-0.061
1576860881.787729,662596.333,49525,3,GZ,1,100,0.427
1576860881.826049,662628.667,49525,3,GZ,1,100,0.793
1576860881.864368,662661.000,49525,3,GZ,1,100,-0.214
1576860881.909997,662699.500,49542,2,GZ,1,100,0.031
1576860881.955625,662738.000,49542,2,GZ,1,100,0.854
1576860881.994142,662770.500,49561,4,GZ,1,100,0.366
1576860882.032659,662803.000,49561,4,GZ,1,100,-0.122
1576860882.071177,662835.500,49561,4,GZ,1,100,0.061
1576860882.109694,662868.000,49561,4,GZ,1,100,0.244
1576860882.156507,662907.500,49577,2,GZ,1,100,0.305
1576860882.203321,662947.000,49577,2,GZ,1,100,0.488
1576860882.241245,662979.000,49595,3,GZ,1,100,0.031
1576860882.279170,663011.000,49595,3,GZ,1,100,-0.275
1576860882.317095,663043.000,49595,3,GZ,1,100,0.336
1576860882.362130,663081.000,49613,3,GZ,1,100,0.183
1576860882.407166,663119.000,49613,3,GZ,1,100,0.061
1576860882.452202,663157.000,49613,3,GZ,1,100,0.519
1576860882.489336,663188.333,49631,3,GZ,1,100,0.397
1576860882.526471,663219.667,49631,3,GZ,1,100,0.336
1576860882.563605,663251.000,49631,3,GZ,1,100,0.336
1576860882.606271,663287.000,49649,3,GZ,1,100,0.427
1576860882.648936,663323.000,49649,3,GZ,1,100,-0.214
1576860882.691601,663359.000,49649,3,GZ,1,100,0.549
1576860882.735452,663396.000,49666,3,GZ,1,100,0.458
1576860882.779302,663433.000,49666,3,GZ,1,100,0.671
1576860882.823153,663470.000,49666,3,GZ,1,100,0.488
1576860882.864238,663504.667,49684,3,GZ,1,100,0.183
1576860882.905323,663539.333,49684,3,GZ,1,100,0.183
1576860882.946408,663574.000,49684,3,GZ,1,100,0.488
1576860882.987493,663608.667,49700,3,GZ,1,100,0.641
1576860883.028578,663643.333,49700,3,GZ,1,100,0.549
1576860883.069663,663678.000,49700,3,GZ,1,100,-0.031
1576860883.111440,663713.250,49722,4,GZ,1,100,0.031
1576860883.153216,663748.500,49722,4,GZ,1,100,0.183
1576860883.194993,663783.750,49722,4,GZ,1,100,-0.275
1576860883.236769,663819.000,49722,4,GZ,1,100,0.366
1576860883.275484,663851.667,49742,3,GZ,1,100,0.305
1576860883.314199,663884.333,49742,3,GZ,1,100,0.458
1576860883.352914,663917.000,49742,3,GZ,1,100,0.519
1576860883.391629,663949.667,49759,3,GZ,1,100,0.305
1576860883.430343,663982.333,49759,3,GZ,1,100,0.305
1576860883.469058,664015.000,49759,3,GZ,1,100,0.580
1576860883.508563,664048.333,49777,3,GZ,1,100,0.641
1576860883.548068,664081.667,49777,3,GZ,1,100,0.305
1576860883.587573,664115.000,49777,3,GZ,1,100,0.488
1576860883.628263,664149.333,49793,3,GZ,1,100,0.092
1576860883.668953,664183.667,49793,3,GZ,1,100,0.244
1576860883.709643,664218.000,49793,3,GZ,1,100,0.427
1576860883.749938,664252.000,49811,3,GZ,1,100,0.031
1576860883.790233,664286.000,49811,3,GZ,1,100,0.336
1576860883.830528,664320.000,49811,3,GZ,1,100,0.793
1576860883.875564,664358.000,49829,3,GZ,1,100,0.671
1576860883.920599,664396.000,49829,3,GZ,1,100,0.092
1576860883.965635,664434.000,49829,3,GZ,1,100,-0.153
1576860884.006325,664468.333,49848,3,GZ,1,100,0.488
1576860884.047015,664502.667,49848,3,GZ,1,100,0.458
1576860884.087705,664537.000,49848,3,GZ,1,100,0.366
1576860884.126420,664569.667,49866,3,GZ,1,100,0.397
1576860884.165135,664602.333,49866,3,GZ,1,100,0.488
1576860884.203850,664635.000,49866,3,GZ,1,100,0.397
1576860884.241379,664666.667,49884,3,GZ,1,100,0.580
1576860884.278909,664698.333,49884,3,GZ,1,100,0.183
1576860884.316439,664730.000,49884,3,GZ,1,100,0.244
1576860884.356339,664763.667,49902,3,GZ,1,100,0.061
1576860884.396239,664797.333,49902,3,GZ,1,100,0.519
1576860884.436139,664831.000,49902,3,GZ,1,100,0.641
1576860884.481174,664869.000,49919,3,GZ,1,100,0.000
1576860884.526210,664907.000,49919,3,GZ,1,100,-0.061
