EpochTimestamp,EmotiBitTimestamp,PacketNumber,DataLength,TypeTag,ProtocolVersion,DataReliability,H0
1576860145.029511,41067.000,6502,1,H0,1,100,46.120
1576860145.153990,41172.000,6520,1,H0,1,100,46.151
1576860145.284396,41282.000,6538,1,H0,1,100,46.181
1576860145.419545,41396.000,6555,1,H0,1,100,46.193
1576860145.557065,41512.000,6573,1,H0,1,100,46.216
1576860145.689842,41624.000,6591,1,H0,1,100,46.235
1576860145.813136,41728.000,6609,1,H0,1,100,46.242
1576860145.947099,41841.000,6644,1,H0,1,100,46.261
1576860146.079876,41953.000,6662,1,H0,1,100,46.280
1576860146.204355,42058.000,6680,1,H0,1,100,46.288
1576860146.338319,42171.000,6698,1,H0,1,100,46.303
1576860146.466354,42279.000,6716,1,H0,1,100,46.330
1576860146.602688,42394.000,6734,1,H0,1,100,46.334
1576860146.744950,42514.000,6751,1,H0,1,100,46.349
1576860146.881284,42629.000,6770,1,H0,1,100,46.372
1576860147.016433,42743.000,6804,1,H0,1,100,46.406
1576860147.149210,42855.000,6822,1,H0,1,100,46.418
1576860147.277246,42963.000,6840,1,H0,1,100,46.418
1576860147.407653,43073.000,6858,1,H0,1,100,46.444
1576860147.549914,43193.000,6876,1,H0,1,100,46.452
1576860147.685063,43307.000,6894,1,H0,1,100,46.460
1576860147.817841,43419.000,6911,1,H0,1,100,46.494
1576860147.954175,43534.000,6930,1,H0,1,100,46.502
1576860148.079839,43640.000,6948,1,H0,1,100,46.536
1576860148.207875,43748.000,6982,1,H0,1,100,46.544
1576860148.345394,43864.000,7000,1,H0,1,100,46.559
1576860148.486470,43983.000,7018,1,H0,1,100,46.578
1576860148.614506,44091.000,7036,1,H0,1,100,46.586
1576860148.740170,44197.000,7054,1,H0,1,100,46.586
1576860148.876505,44312.000,7073,1,H0,1,100,46.616
1576860149.012839,44427.000,7090,1,H0,1,100,46.647
1576860149.150358,44543.000,7108,1,H0,1,100,46.643
1576860149.277209,44650.000,7126,1,H0,1,100,46.662
1576860149.401688,44755.000,7144,1,H0,1,100,46.677
1576860149.540393,44872.000,7178,1,H0,1,100,46.696
1576860149.675541,44986.000,7196,1,H0,1,100,46.704
1576860149.808319,45098.000,7214,1,H0,1,100,46.738
1576860149.932798,45203.000,7233,1,H0,1,100,46.738
1576860150.069132,45318.000,7251,1,H0,1,100,46.753
1576860150.194797,45424.000,7269,1,H0,1,100,46.776
1576860150.331131,45539.000,7286,1,H0,1,100,46.792
1576860150.463908,45651.000,7304,1,H0,1,100,46.803
1576860150.597872,45764.000,7322,1,H0,1,100,46.837
1576860150.740133,45884.000,7356,1,H0,1,100,46.822
1576860150.877653,46000.000,7375,1,H0,1,100,46.856
1576860151.009838,46111.500,7396,2,H0,1,100,46.868
1576860151.142023,46223.000,7396,2,H0,1,100,46.868
1576860151.272429,46333.000,7432,1,H0,1,100,46.891
1576860151.405207,46445.000,7450,1,H0,1,100,46.910
1576860151.543912,46562.000,7468,1,H0,1,100,46.917
1576860151.679060,46676.000,7486,1,H0,1,100,46.952
1576860151.802354,46780.000,7504,1,H0,1,100,46.952
1576860151.936317,46893.000,7523,1,H0,1,100,46.975
1576860152.073837,47009.000,7541,1,H0,1,100,46.979
1576860152.210171,47124.000,7558,1,H0,1,100,46.994
1576860152.339392,47233.000,7576,1,H0,1,100,47.024
1576860152.467427,47341.000,7593,1,H0,1,100,47.043
1576860152.600205,47453.000,7628,1,H0,1,100,47.059
1576860152.735354,47567.000,7646,1,H0,1,100,47.062
1576860152.877615,47687.000,7665,1,H0,1,100,47.101
1576860153.000909,47791.000,7683,1,H0,1,100,47.108
1576860153.131315,47901.000,7701,1,H0,1,100,47.131
1576860153.264093,48013.000,7719,1,H0,1,100,47.131
1576860153.400427,48128.000,7736,1,H0,1,100,47.154
1576860153.534390,48241.000,7754,1,H0,1,100,47.173
1576860153.662426,48349.000,7772,1,H0,1,100,47.181
1576860153.790462,48457.000,7807,1,H0,1,100,47.215
1576860153.923239,48569.000,7825,1,H0,1,100,47.211
1576860154.050089,48676.000,7843,1,H0,1,100,47.253
1576860154.178125,48784.000,7861,1,H0,1,100,47.242
1576860154.308531,48894.000,7879,1,H0,1,100,47.261
1576860154.442494,49007.000,7897,1,H0,1,100,47.272
1576860154.575272,49119.000,7915,1,H0,1,100,47.295
1576860154.716348,49238.000,7932,1,H0,1,100,47.318
1576860154.843198,49345.000,7951,1,H0,1,100,47.322
1576860154.970048,49452.000,7969,1,H0,1,100,47.322
1576860155.107568,49568.000,8003,1,H0,1,100,47.360
1576860155.240345,49680.000,8021,1,H0,1,100,47.368
1576860155.374309,49793.000,8039,1,H0,1,100,47.402
1576860155.513014,49910.000,8057,1,H0,1,100,47.406
1576860155.641049,50018.000,8075,1,H0,1,100,47.421
1576860155.765528,50123.000,8093,1,H0,1,100,47.429
1576860155.901862,50238.000,8112,1,H0,1,100,47.432
1576860156.039382,50354.000,8129,1,H0,1,100,47.463
1576860156.175716,50469.000,8147,1,H0,1,100,47.463
1576860156.300195,50574.000,8164,1,H0,1,100,47.497
1576860156.430602,50684.000,8199,1,H0,1,100,47.509
1576860156.566936,50799.000,8217,1,H0,1,100,47.516
1576860156.705641,50916.000,8235,1,H0,1,100,47.543
1576860156.836048,51026.000,8254,1,H0,1,100,47.566
1576860156.959341,51130.000,8272,1,H0,1,100,47.562
1576860157.095675,51245.000,8293,1,H0,1,100,47.577
1576860157.229638,51358.000,8313,1,H0,1,100,47.593
1576860157.367158,51474.000,8331,1,H0,1,100,47.619
1576860157.498750,51585.000,8349,1,H0,1,100,47.650
1576860157.629157,51695.000,8367,1,H0,1,100,47.650
1576860157.753636,51800.000,8385,1,H0,1,100,47.680
1576860157.884042,51910.000,8404,1,H0,1,100,47.665
1576860158.012078,52018.000,8422,1,H0,1,100,47.684
1576860158.142484,52128.000,8439,1,H0,1,100,47.711
1576860158.284746,52248.000,8457,1,H0,1,100,47.707
1576860158.419895,52362.000,8491,1,H0,1,100,47.726
1576860158.553858,52475.000,8509,1,H0,1,100,47.761
1576860158.690192,52590.000,8527,1,H0,1,100,47.764
1576860158.818228,52698.000,8546,1,H0,1,100,47.780
1576860158.945078,52805.000,8564,1,H0,1,100,47.795
1576860159.082597,52921.000,8582,1,H0,1,100,47.814
1576860159.222488,53039.000,8599,1,H0,1,100,47.833
1576860159.349338,53146.000,8617,1,H0,1,100,47.848
1576860159.478559,53255.000,8635,1,H0,1,100,47.867
1576860159.612522,53368.000,8669,1,H0,1,100,47.875
1576860159.748856,53483.000,8688,1,H0,1,100,47.875
1576860159.886376,53599.000,8706,1,H0,1,100,47.890
1576860160.013226,53706.000,8724,1,H0,1,100,47.917
1576860160.141261,53814.000,8742,1,H0,1,100,47.928
1576860160.276410,53928.000,8760,1,H0,1,100,47.932
1576860160.416301,54046.000,8777,1,H0,1,100,47.947
1576860160.549078,54158.000,8795,1,H0,1,100,47.967
1576860160.673557,54263.000,8813,1,H0,1,100,47.974
1576860160.803964,54373.000,8848,1,H0,1,100,48.020
1576860160.940298,54488.000,8866,1,H0,1,100,48.016
1576860161.077818,54604.000,8884,1,H0,1,100,48.035
1576860161.208224,54714.000,8902,1,H0,1,100,48.054
1576860161.344558,54829.000,8920,1,H0,1,100,48.070
1576860161.479707,54943.000,8938,1,H0,1,100,48.073
1576860161.610114,55053.000,8955,1,H0,1,100,48.096
1576860161.746448,55168.000,8973,1,H0,1,100,48.077
1576860161.872112,55274.000,8992,1,H0,1,100,48.119
1576860162.002519,55384.000,9026,1,H0,1,100,48.131
1576860162.135297,55496.000,9044,1,H0,1,100,48.142
1576860162.274002,55613.000,9062,1,H0,1,100,48.161
1576860162.409150,55727.000,9080,1,H0,1,100,48.188
1576860162.532444,55831.000,9098,1,H0,1,100,48.195
1576860162.666407,55944.000,9116,1,H0,1,100,48.218
1576860162.795628,56053.000,9135,1,H0,1,100,48.222
1576860162.926034,56163.000,9152,1,H0,1,100,48.256
1576860163.063554,56279.000,9170,1,H0,1,100,48.230
1576860163.201074,56395.000,9191,1,H0,1,100,48.256
1576860163.324367,56499.000,9211,1,H0,1,100,48.276
1576860163.455959,56610.000,9229,1,H0,1,100,48.291
1576860163.593479,56726.000,9246,1,H0,1,100,48.317
1576860163.730999,56842.000,9264,1,H0,1,100,48.310
1576860163.863776,56954.000,9299,1,H0,1,100,48.329
1576860163.991812,57062.000,9317,1,H0,1,100,48.340
1576860164.122218,57172.000,9335,1,H0,1,100,48.371
1576860164.260924,57289.000,9353,1,H0,1,100,48.363
1576860164.396072,57403.000,9371,1,H0,1,100,48.390
1576860164.524108,57511.000,9389,1,H0,1,100,48.398
1576860164.653329,57620.000,9407,1,H0,1,100,48.424
1576860164.786106,57732.000,9425,1,H0,1,100,48.432
1576860164.921255,57846.000,9443,1,H0,1,100,48.436
1576860165.063517,57966.000,9477,1,H0,1,100,48.451
1576860165.197480,58079.000,9495,1,H0,1,100,48.478
1576860165.329072,58190.000,9513,1,H0,1,100,48.489
1576860165.464221,58304.000,9531,1,H0,1,100,48.512
1576860165.591071,58411.000,9549,1,H0,1,100,48.520
1576860165.716735,58517.000,9567,1,H0,1,100,48.535
1576860165.854255,58633.000,9586,1,H0,1,100,48.550
1576860165.992960,58750.000,9603,1,H0,1,100,48.577
1576860166.129294,58865.000,9621,1,H0,1,100,48.585
1576860166.270370,58984.000,9655,1,H0,1,100,48.607
1576860166.399591,59093.000,9673,1,H0,1,100,48.607
1576860166.524070,59198.000,9691,1,H0,1,100,48.634
1576860166.660404,59313.000,9709,1,H0,1,100,48.642
1576860166.796739,59428.000,9728,1,H0,1,100,48.653
1576860166.931887,59542.000,9746,1,H0,1,100,48.665
1576860167.058737,59649.000,9764,1,H0,1,100,48.707
1576860167.190329,59760.000,9781,1,H0,1,100,48.695
1576860167.325478,59874.000,9799,1,H0,1,100,48.733
1576860167.460627,59988.000,9833,1,H0,1,100,48.741
1576860167.595775,60102.000,9851,1,H0,1,100,48.752
1576860167.720254,60207.000,9870,1,H0,1,100,48.771
1576860167.853032,60319.000,9888,1,H0,1,100,48.775
1576860167.991737,60436.000,9906,1,H0,1,100,48.794
1576860168.129257,60552.000,9924,1,H0,1,100,48.806
1576860168.258478,60661.000,9942,1,H0,1,100,48.832
1576860168.385328,60768.000,9959,1,H0,1,100,48.829
1576860168.516920,60879.000,9977,1,H0,1,100,48.863
1576860168.655625,60996.000,10011,1,H0,1,100,48.852
1576860168.793145,61112.000,10030,1,H0,1,100,48.886
1576860168.930664,61228.000,10048,1,H0,1,100,48.893
1576860169.072926,61348.000,10066,1,H0,1,100,48.913
1576860169.211631,61465.000,10087,1,H0,1,100,48.924
1576860169.336110,61570.000,10107,1,H0,1,100,48.935
1576860169.468888,61682.000,10125,1,H0,1,100,48.955
1576860169.595738,61789.000,10143,1,H0,1,100,48.966
1576860169.722588,61896.000,10162,1,H0,1,100,48.993
1576860169.861293,62013.000,10180,1,H0,1,100,49.000
1576860169.999998,62130.000,10198,1,H0,1,100,49.023
1576860170.128034,62238.000,10215,1,H0,1,100,49.035
1576860170.257255,62347.000,10233,1,H0,1,100,49.038
1576860170.390033,62459.000,10251,1,H0,1,100,49.050
1576860170.522810,62571.000,10285,1,H0,1,100,49.080
1576860170.662701,62689.000,10303,1,H0,1,100,49.092
1576860170.789551,62796.000,10322,1,H0,1,100,49.111
1576860170.916401,62903.000,10340,1,H0,1,100,49.119
1576860171.051549,63017.000,10358,1,H0,1,100,49.119
1576860171.191440,63135.000,10376,1,H0,1,100,49.164
1576860171.325403,63248.000,10393,1,H0,1,100,49.168
1576860171.449882,63353.000,10411,1,H0,1,100,49.180
1576860171.583845,63466.000,10429,1,H0,1,100,49.183
1576860171.721365,63582.000,10464,1,H0,1,100,49.210
1576860171.858885,63698.000,10482,1,H0,1,100,49.225
1576860171.989291,63808.000,10500,1,H0,1,100,49.233
1576860172.112585,63912.000,10518,1,H0,1,100,49.244
1576860172.251290,64029.000,10536,1,H0,1,100,49.267
1576860172.389995,64146.000,10554,1,H0,1,100,49.271
1576860172.525144,64260.000,10571,1,H0,1,100,49.286
1576860172.662663,64376.000,10589,1,H0,1,100,49.305
1576860172.795441,64488.000,10624,1,H0,1,100,49.305
1576860172.932961,64604.000,10642,1,H0,1,100,49.328
1576860173.068109,64718.000,10660,1,H0,1,100,49.344
1576860173.202072,64831.000,10678,1,H0,1,100,49.355
1576860173.326551,64936.000,10696,1,H0,1,100,49.370
1576860173.461700,65050.000,10714,1,H0,1,100,49.397
1576860173.598034,65165.000,10731,1,H0,1,100,49.412
1576860173.733183,65279.000,10749,1,H0,1,100,49.405
1576860173.864775,65390.000,10768,1,H0,1,100,49.420
1576860173.991625,65497.000,10802,1,H0,1,100,49.439
1576860174.117289,65603.000,10820,1,H0,1,100,49.466
1576860174.248881,65714.000,10838,1,H0,1,100,49.477
1576860174.384030,65828.000,10856,1,H0,1,100,49.489
1576860174.517993,65941.000,10874,1,H0,1,100,49.523
1576860174.653142,66055.000,10892,1,H0,1,100,49.519
1576860174.778806,66161.000,10911,1,H0,1,100,49.534
1576860174.911584,66273.000,10929,1,H0,1,100,49.557
1576860175.046733,66387.000,10946,1,H0,1,100,49.565
1576860175.181288,66500.500,10983,2,H0,1,100,49.569
1576860175.315844,66614.000,10983,2,H0,1,100,49.592
1576860175.442694,66721.000,11003,1,H0,1,100,49.607
1576860175.580214,66837.000,11020,1,H0,1,100,49.614
1576860175.716548,66952.000,11038,1,H0,1,100,49.645
1576860175.852882,67067.000,11073,1,H0,1,100,49.656
1576860175.978547,67173.000,11091,1,H0,1,100,49.683
1576860176.103026,67278.000,11109,1,H0,1,100,49.676
1576860176.241731,67395.000,11127,1,H0,1,100,49.683
1576860176.380436,67512.000,11145,1,H0,1,100,49.706
1576860176.516770,67627.000,11163,1,H0,1,100,49.725
1576860176.659032,67747.000,11180,1,H0,1,100,49.744
1576860176.792995,67860.000,11199,1,H0,1,100,49.752
1576860176.930515,67976.000,11233,1,H0,1,100,49.794
1576860177.057365,68083.000,11251,1,H0,1,100,49.782
1576860177.188957,68194.000,11269,1,H0,1,100,49.801
1576860177.322920,68307.000,11287,1,H0,1,100,49.801
1576860177.465182,68427.000,11305,1,H0,1,100,49.836
1576860177.602701,68543.000,11323,1,H0,1,100,49.843
1576860177.740221,68659.000,11340,1,H0,1,100,49.870
1576860177.867071,68766.000,11359,1,H0,1,100,49.882
1576860177.996292,68875.000,11377,1,H0,1,100,49.893
1576860178.129070,68987.000,11411,1,H0,1,100,49.901
1576860178.266589,69103.000,11429,1,H0,1,100,49.916
1576860178.401738,69217.000,11447,1,H0,1,100,49.939
1576860178.523846,69320.000,11465,1,H0,1,100,49.946
1576860178.657809,69433.000,11483,1,H0,1,100,49.965
1576860178.796514,69550.000,11502,1,H0,1,100,49.977
1576860178.932848,69665.000,11519,1,H0,1,100,50.015
1576860179.062069,69774.000,11537,1,H0,1,100,50.007
1576860179.191290,69883.000,11555,1,H0,1,100,50.026
1576860179.324068,69995.000,11573,1,H0,1,100,50.038
1576860179.462773,70112.000,11607,1,H0,1,100,50.057
1576860179.600293,70228.000,11625,1,H0,1,100,50.091
1576860179.723586,70332.000,11644,1,H0,1,100,50.087
1576860179.853993,70442.000,11662,1,H0,1,100,50.091
1576860179.986771,70554.000,11680,1,H0,1,100,50.122
1576860180.123105,70669.000,11698,1,H0,1,100,50.137
1576860180.265366,70789.000,11715,1,H0,1,100,50.156
1576860180.405257,70907.000,11749,1,H0,1,100,50.152
1576860180.542777,71023.000,11767,1,H0,1,100,50.179
1576860180.685039,71143.000,11785,1,H0,1,100,50.198
1576860180.822558,71259.000,11804,1,H0,1,100,50.225
1576860180.950594,71367.000,11822,1,H0,1,100,50.225
1576860181.079815,71476.000,11840,1,H0,1,100,50.221
1576860181.213778,71589.000,11857,1,H0,1,100,50.259
1576860181.346555,71701.000,11878,1,H0,1,100,50.282
1576860181.487632,71820.000,11898,1,H0,1,100,50.293
1576860181.613296,71926.000,11916,1,H0,1,100,50.290
1576860181.737775,72031.000,11934,1,H0,1,100,50.324
1576860181.875295,72147.000,11952,1,H0,1,100,50.324
1576860182.014000,72264.000,11970,1,H0,1,100,50.332
1576860182.144407,72374.000,11988,1,H0,1,100,50.370
1576860182.271257,72481.000,12022,1,H0,1,100,50.381
1576860182.405220,72594.000,12040,1,H0,1,100,50.393
1576860182.542739,72710.000,12058,1,H0,1,100,50.408
1576860182.679074,72825.000,12076,1,H0,1,100,50.416
1576860182.810666,72936.000,12095,1,H0,1,100,50.442
1576860182.936330,73042.000,12113,1,H0,1,100,50.446
1576860183.075035,73159.000,12130,1,H0,1,100,50.454
1576860183.210184,73273.000,12148,1,H0,1,100,50.473
1576860183.348889,73390.000,12182,1,H0,1,100,50.499
1576860183.473368,73495.000,12200,1,H0,1,100,50.507
1576860183.602589,73604.000,12218,1,H0,1,100,50.522
1576860183.736552,73717.000,12237,1,H0,1,100,50.538
1576860183.877629,73836.000,12255,1,H0,1,100,50.549
1576860184.015148,73952.000,12273,1,H0,1,100,50.572
1576860184.149111,74065.000,12291,1,H0,1,100,50.572
1576860184.290187,74184.000,12308,1,H0,1,100,50.602
1576860184.424150,74297.000,12342,1,H0,1,100,50.587
1576860184.562856,74414.000,12360,1,H0,1,100,50.644
1576860184.694448,74525.000,12378,1,H0,1,100,50.648
1576860184.822483,74633.000,12397,1,H0,1,100,50.664
1576860184.955261,74745.000,12415,1,H0,1,100,50.667
1576860185.097523,74865.000,12433,1,H0,1,100,50.690
1576860185.233857,74980.000,12450,1,H0,1,100,50.694
1576860185.367820,75093.000,12468,1,H0,1,100,50.709
1576860185.502969,75207.000,12502,1,H0,1,100,50.732
1576860185.628633,75313.000,12520,1,H0,1,100,50.736
1576860185.756669,75421.000,12539,1,H0,1,100,50.751
1576860185.894188,75537.000,12557,1,H0,1,100,50.770
1576860186.035264,75656.000,12575,1,H0,1,100,50.789
1576860186.160929,75762.000,12593,1,H0,1,100,50.801
1576860186.290150,75871.000,12611,1,H0,1,100,50.812
1576860186.427670,75987.000,12628,1,H0,1,100,50.839
1576860186.564004,76102.000,12646,1,H0,1,100,50.843
1576860186.700338,76217.000,12680,1,H0,1,100,50.866
1576860186.827188,76324.000,12699,1,H0,1,100,50.881
1576860186.955224,76432.000,12717,1,H0,1,100,50.908
1576860187.093929,76549.000,12735,1,H0,1,100,50.904
1576860187.229077,76663.000,12753,1,H0,1,100,50.919
1576860187.357706,76771.500,12774,2,H0,1,100,50.934
1576860187.486334,76880.000,12774,2,H0,1,100,50.946
1576860187.620297,76993.000,12810,1,H0,1,100,50.950
1576860187.744776,77098.000,12829,1,H0,1,100,50.973
1576860187.883481,77215.000,12847,1,H0,1,100,50.980
1576860188.021001,77331.000,12865,1,H0,1,100,51.003
1576860188.156149,77445.000,12883,1,H0,1,100,51.022
1576860188.298411,77565.000,12900,1,H0,1,100,51.037
1576860188.435931,77681.000,12918,1,H0,1,100,51.041
1576860188.573451,77797.000,12952,1,H0,1,100,51.060
1576860188.700300,77904.000,12970,1,H0,1,100,51.079
1576860188.830707,78014.000,12989,1,H0,1,100,51.083
1576860188.962299,78125.000,13007,1,H0,1,100,51.102
1576860189.101004,78242.000,13025,1,H0,1,100,51.102
1576860189.236153,78356.000,13043,1,H0,1,100,51.117
1576860189.358261,78459.000,13061,1,H0,1,100,51.144
1576860189.492224,78572.000,13078,1,H0,1,100,51.152
1576860189.628558,78687.000,13096,1,H0,1,100,51.175
1576860189.761336,78799.000,13131,1,H0,1,100,51.201
1576860189.892928,78910.000,13149,1,H0,1,100,51.217
1576860190.022149,79019.000,13167,1,H0,1,100,51.213
1576860190.154927,79131.000,13185,1,H0,1,100,51.220
1576860190.290075,79245.000,13203,1,H0,1,100,51.228
1576860190.431151,79364.000,13221,1,H0,1,100,51.255
1576860190.555630,79469.000,13239,1,H0,1,100,51.266
1576860190.686037,79579.000,13256,1,H0,1,100,51.289
1576860190.818815,79691.000,13275,1,H0,1,100,51.301
1576860190.955149,79806.000,13293,1,H0,1,100,51.316
1576860191.089112,79919.000,13327,1,H0,1,100,51.331
1576860191.214776,80025.000,13345,1,H0,1,100,51.331
1576860191.345183,80135.000,13363,1,H0,1,100,51.350
1576860191.485074,80253.000,13381,1,H0,1,100,51.358
1576860191.622593,80369.000,13399,1,H0,1,100,51.384
1576860191.753000,80479.000,13417,1,H0,1,100,51.400
1576860191.890519,80595.000,13435,1,H0,1,100,51.419
1576860192.028039,80711.000,13453,1,H0,1,100,51.419
1576860192.160817,80823.000,13487,1,H0,1,100,51.453
1576860192.301893,80942.000,13505,1,H0,1,100,51.449
1576860192.439413,81058.000,13523,1,H0,1,100,51.465
1576860192.571005,81169.000,13541,1,H0,1,100,51.461
1576860192.699040,81277.000,13559,1,H0,1,100,51.484
1576860192.831818,81389.000,13578,1,H0,1,100,51.510
1576860192.965781,81502.000,13595,1,H0,1,100,51.526
1576860193.106857,81621.000,13613,1,H0,1,100,51.529
1576860193.234893,81729.000,13647,1,H0,1,100,51.537
1576860193.365892,81839.500,13668,2,H0,1,100,51.556
1576860193.496891,81950.000,13668,2,H0,1,100,51.564
1576860193.634411,82066.000,13687,1,H0,1,100,51.598
1576860193.770745,82181.000,13705,1,H0,1,100,51.602
1576860193.895224,82286.000,13724,1,H0,1,100,51.606
1576860194.025631,82396.000,13758,1,H0,1,100,51.621
1576860194.161965,82511.000,13776,1,H0,1,100,51.655
1576860194.297113,82625.000,13794,1,H0,1,100,51.652
1576860194.432262,82739.000,13812,1,H0,1,100,51.663
1576860194.555556,82843.000,13830,1,H0,1,100,51.697
1576860194.691890,82958.000,13848,1,H0,1,100,51.701
1576860194.825853,83071.000,13866,1,H0,1,100,51.713
1576860194.963372,83187.000,13884,1,H0,1,100,51.732
1576860195.091408,83295.000,13902,1,H0,1,100,51.735
1576860195.221815,83405.000,13936,1,H0,1,100,51.766
1576860195.346294,83510.000,13954,1,H0,1,100,51.770
1576860195.477886,83621.000,13972,1,H0,1,100,51.793
1576860195.602365,83726.000,13990,1,H0,1,100,51.781
1576860195.738699,83841.000,14009,1,H0,1,100,51.819
1576860195.880960,83961.000,14027,1,H0,1,100,51.819
1576860196.017295,84076.000,14045,1,H0,1,100,51.823
1576860196.151258,84189.000,14062,1,H0,1,100,51.842
1576860196.286407,84303.000,14080,1,H0,1,100,51.854
1576860196.414442,84411.000,14097,1,H0,1,100,51.865
1576860196.544849,84521.000,14132,1,H0,1,100,51.892
1576860196.684739,84639.000,14150,1,H0,1,100,51.911
1576860196.819888,84753.000,14169,1,H0,1,100,51.926
1576860196.953851,84866.000,14187,1,H0,1,100,51.938
1576860197.092556,84983.000,14205,1,H0,1,100,51.934
1576860197.218221,85089.000,14223,1,H0,1,100,51.934
1576860197.345071,85196.000,14240,1,H0,1,100,51.957
1576860197.481405,85311.000,14258,1,H0,1,100,51.980
1576860197.620110,85428.000,14292,1,H0,1,100,52.002
1576860197.751702,85539.000,14311,1,H0,1,100,52.006
1576860197.877367,85645.000,14329,1,H0,1,100,52.010
1576860198.012515,85759.000,14347,1,H0,1,100,52.052
1576860198.150035,85875.000,14365,1,H0,1,100,52.048
1576860198.287555,85991.000,14383,1,H0,1,100,52.056
1576860198.415590,86099.000,14401,1,H0,1,100,52.071
1576860198.538884,86203.000,14418,1,H0,1,100,52.105
1576860198.677589,86320.000,14436,1,H0,1,100,52.098
1576860198.812737,86434.000,14471,1,H0,1,100,52.117
1576860198.949072,86549.000,14489,1,H0,1,100,52.132
1576860199.075922,86656.000,14507,1,H0,1,100,52.136
1576860199.211070,86770.000,14525,1,H0,1,100,52.151
1576860199.334364,86874.000,14543,1,H0,1,100,52.151
1576860199.470698,86989.000,14564,1,H0,1,100,52.189
1576860199.604661,87102.000,14584,1,H0,1,100,52.205
1576860199.729140,87207.000,14603,1,H0,1,100,52.201
1576860199.864289,87321.000,14621,1,H0,1,100,52.216
1576860200.000623,87436.000,14639,1,H0,1,100,52.231
1576860200.136957,87551.000,14657,1,H0,1,100,52.239
1576860200.266178,87660.000,14675,1,H0,1,100,52.266
1576860200.396585,87770.000,14693,1,H0,1,100,52.266
1576860200.526991,87880.000,14710,1,H0,1,100,52.273
1576860200.664511,87996.000,14728,1,H0,1,100,52.292
1576860200.802030,88112.000,14763,1,H0,1,100,52.296
1576860200.924138,88215.000,14781,1,H0,1,100,52.346
1576860201.054545,88325.000,14799,1,H0,1,100,52.331
1576860201.190879,88440.000,14817,1,H0,1,100,52.346
1576860201.327213,88555.000,14835,1,H0,1,100,52.369
1576860201.459991,88667.000,14853,1,H0,1,100,52.372
1576860201.586841,88774.000,14871,1,H0,1,100,52.384
1576860201.717247,88884.000,14888,1,H0,1,100,52.380
1576860201.852396,88998.000,14907,1,H0,1,100,52.380
1576860201.993472,89117.000,14941,1,H0,1,100,52.422
1576860202.119137,89223.000,14959,1,H0,1,100,52.426
1576860202.248358,89332.000,14977,1,H0,1,100,52.456
1576860202.381135,89444.000,14995,1,H0,1,100,52.453
1576860202.517470,89559.000,15013,1,H0,1,100,52.510
1576860202.656175,89676.000,15031,1,H0,1,100,52.483
1576860202.783025,89783.000,15050,1,H0,1,100,52.491
1576860202.912246,89892.000,15068,1,H0,1,100,52.517
1576860203.048580,90007.000,15085,1,H0,1,100,52.521
1576860203.175430,90114.000,15103,1,H0,1,100,52.548
1576860203.305836,90224.000,15121,1,H0,1,100,52.548
1576860203.432687,90331.000,15155,1,H0,1,100,52.571
1576860203.567835,90445.000,15173,1,H0,1,100,52.563
1576860203.695871,90553.000,15192,1,H0,1,100,52.567
1576860203.833390,90669.000,15210,1,H0,1,100,52.617
1576860203.970910,90785.000,15228,1,H0,1,100,52.598
1576860204.106059,90899.000,15246,1,H0,1,100,52.624
1576860204.232909,91006.000,15264,1,H0,1,100,52.643
1576860204.363315,91116.000,15281,1,H0,1,100,52.643
1576860204.497278,91229.000,15299,1,H0,1,100,52.655
1576860204.634798,91345.000,15333,1,H0,1,100,52.678
1576860204.767576,91457.000,15352,1,H0,1,100,52.681
1576860204.889684,91560.000,15370,1,H0,1,100,52.701
1576860205.026018,91675.000,15388,1,H0,1,100,52.712
1576860205.164723,91792.000,15406,1,H0,1,100,52.720
1576860205.302243,91908.000,15424,1,H0,1,100,52.731
1576860205.427907,92014.000,15442,1,H0,1,100,52.754
1576860205.558314,92124.000,15463,1,H0,1,100,52.773
1576860205.692277,92237.000,15484,1,H0,1,100,52.781
1576860205.829797,92353.000,15502,1,H0,1,100,52.800
1576860205.966130,92468.000,15520,1,H0,1,100,52.826
1576860206.089424,92572.000,15538,1,H0,1,100,52.815
1576860206.222202,92684.000,15555,1,H0,1,100,52.838
1576860206.356165,92797.000,15573,1,H0,1,100,52.838
1576860206.492499,92912.000,15607,1,H0,1,100,52.849
1576860206.633575,93031.000,15625,1,H0,1,100,52.861
1576860206.772280,93148.000,15644,1,H0,1,100,52.876
1576860206.909800,93264.000,15662,1,H0,1,100,52.887
1576860207.052062,93384.000,15680,1,H0,1,100,52.926
1576860207.187210,93498.000,15697,1,H0,1,100,52.910
1576860207.315246,93606.000,15715,1,H0,1,100,52.929
1576860207.444467,93715.000,15733,1,H0,1,100,52.929
1576860207.579616,93829.000,15767,1,H0,1,100,52.956
1576860207.712393,93941.000,15786,1,H0,1,100,52.960
1576860207.854655,94061.000,15804,1,H0,1,100,52.979
1576860207.993360,94178.000,15822,1,H0,1,100,52.987
1576860208.122581,94287.000,15840,1,H0,1,100,52.994
1576860208.251802,94396.000,15858,1,H0,1,100,53.021
1576860208.384580,94508.000,15875,1,H0,1,100,53.025
1576860208.517357,94620.000,15893,1,H0,1,100,53.059
1576860208.657248,94738.000,15927,1,H0,1,100,53.048
1576860208.784098,94845.000,15946,1,H0,1,100,53.067
1576860208.912134,94953.000,15964,1,H0,1,100,53.078
1576860209.047282,95067.000,15982,1,H0,1,100,53.090
1576860209.187173,95185.000,16000,1,H0,1,100,53.097
1576860209.321136,95298.000,16018,1,H0,1,100,53.124
1576860209.445615,95403.000,16036,1,H0,1,100,53.120
1576860209.579578,95516.000,16053,1,H0,1,100,53.147
1576860209.715912,95631.000,16071,1,H0,1,100,53.151
1576860209.853432,95747.000,16106,1,H0,1,100,53.177
1576860209.983839,95857.000,16124,1,H0,1,100,53.181
1576860210.105947,95960.000,16142,1,H0,1,100,53.196
1576860210.243466,96076.000,16160,1,H0,1,100,53.200
1576860210.380986,96192.000,16178,1,H0,1,100,53.193
1576860210.516135,96306.000,16196,1,H0,1,100,53.227
1576860210.658396,96426.000,16213,1,H0,1,100,53.223
1576860210.795916,96542.000,16232,1,H0,1,100,53.254
1576860210.929879,96655.000,16266,1,H0,1,100,53.261
1576860211.067399,96771.000,16284,1,H0,1,100,53.273
1576860211.202547,96885.000,16302,1,H0,1,100,53.284
1576860211.327026,96990.000,16320,1,H0,1,100,53.288
1576860211.460989,97103.000,16338,1,H0,1,100,53.299
1576860211.598509,97219.000,16359,1,H0,1,100,53.296
1576860211.731287,97331.000,16380,1,H0,1,100,53.330
1576860211.871177,97449.000,16398,1,H0,1,100,53.315
1576860212.009882,97566.000,16416,1,H0,1,100,53.341
1576860212.133176,97670.000,16434,1,H0,1,100,53.361
1576860212.264768,97781.000,16452,1,H0,1,100,53.399
1576860212.398731,97894.000,16469,1,H0,1,100,53.395
1576860212.532694,98007.000,16487,1,H0,1,100,53.406
1576860212.669028,98122.000,16521,1,H0,1,100,53.406
1576860212.798249,98231.000,16540,1,H0,1,100,53.433
1576860212.928656,98341.000,16558,1,H0,1,100,53.452
1576860213.063805,98455.000,16576,1,H0,1,100,53.464
1576860213.204881,98574.000,16594,1,H0,1,100,53.467
1576860213.332916,98682.000,16612,1,H0,1,100,53.471
1576860213.460952,98790.000,16630,1,H0,1,100,53.479
1576860213.593729,98902.000,16647,1,H0,1,100,53.483
1576860213.728878,99016.000,16665,1,H0,1,100,53.517
1576860213.866398,99132.000,16700,1,H0,1,100,53.525
1576860213.992062,99238.000,16718,1,H0,1,100,53.521
1576860214.116541,99343.000,16736,1,H0,1,100,53.544
1576860214.252875,99458.000,16754,1,H0,1,100,53.551
1576860214.388024,99572.000,16772,1,H0,1,100,53.582
1576860214.514874,99679.000,16790,1,H0,1,100,53.589
1576860214.654765,99797.000,16808,1,H0,1,100,53.593
1576860214.793470,99914.000,16826,1,H0,1,100,53.608
1576860214.929804,100029.000,16844,1,H0,1,100,53.605
1576860215.070880,100148.000,16878,1,H0,1,100,53.624
1576860215.201287,100258.000,16896,1,H0,1,100,53.624
1576860215.325766,100363.000,16914,1,H0,1,100,53.643
1576860215.464471,100480.000,16932,1,H0,1,100,53.658
1576860215.596063,100591.000,16950,1,H0,1,100,53.666
1576860215.728841,100703.000,16968,1,H0,1,100,53.685
1576860215.868731,100821.000,16986,1,H0,1,100,53.689
1576860216.001509,100933.000,17004,1,H0,1,100,53.704
1576860216.124803,101037.000,17022,1,H0,1,100,53.731
1576860216.258766,101150.000,17039,1,H0,1,100,53.738
1576860216.395100,101265.000,17074,1,H0,1,100,53.746
1576860216.532619,101381.000,17092,1,H0,1,100,53.761
1576860216.659469,101488.000,17110,1,H0,1,100,53.753
1576860216.788691,101597.000,17129,1,H0,1,100,53.776
1576860216.921468,101709.000,17147,1,H0,1,100,53.776
1576860217.056617,101823.000,17164,1,H0,1,100,53.799
1576860217.196507,101941.000,17182,1,H0,1,100,53.811
1576860217.320987,102046.000,17200,1,H0,1,100,53.826
1576860217.453764,102158.000,17218,1,H0,1,100,53.830
1576860217.588320,102271.500,17255,2,H0,1,100,53.845
1576860217.722876,102385.000,17255,2,H0,1,100,53.853
1576860217.855653,102497.000,17275,1,H0,1,100,53.860
1576860217.984874,102606.000,17293,1,H0,1,100,53.860
1576860218.110539,102712.000,17311,1,H0,1,100,53.883
1576860218.240946,102822.000,17329,1,H0,1,100,53.875
1576860218.365424,102927.000,17363,1,H0,1,100,53.898
1576860218.498202,103039.000,17381,1,H0,1,100,53.917
1576860218.638093,103157.000,17399,1,H0,1,100,53.929
1576860218.773241,103271.000,17418,1,H0,1,100,53.929
1576860218.907204,103384.000,17436,1,H0,1,100,53.959
1576860219.045910,103501.000,17454,1,H0,1,100,53.967
1576860219.172760,103608.000,17471,1,H0,1,100,53.971
1576860219.300795,103716.000,17489,1,H0,1,100,53.990
1576860219.439500,103833.000,17507,1,H0,1,100,54.009
1576860219.573463,103946.000,17541,1,H0,1,100,54.009
1576860219.707427,104059.000,17560,1,H0,1,100,54.020
1576860219.848503,104178.000,17578,1,H0,1,100,54.036
1576860219.975353,104285.000,17596,1,H0,1,100,54.040
1576860220.099832,104390.000,17614,1,H0,1,100,54.055
1576860220.236166,104505.000,17632,1,H0,1,100,54.070
1576860220.374871,104622.000,17649,1,H0,1,100,54.085
1576860220.510020,104736.000,17667,1,H0,1,100,54.104
1576860220.634499,104841.000,17685,1,H0,1,100,54.085
1576860220.766091,104952.000,17720,1,H0,1,100,54.108
1576860220.902425,105067.000,17738,1,H0,1,100,54.112
1576860221.039945,105183.000,17756,1,H0,1,100,54.123
1576860221.170351,105293.000,17774,1,H0,1,100,54.135
1576860221.303129,105405.000,17792,4,H0,1,100,54.162
1576860221.435906,105517.000,17792,4,H0,1,100,54.181
1576860221.568684,105629.000,17792,4,H0,1,100,54.184
1576860221.701462,105741.000,17792,4,H0,1,100,54.181
1576860221.833528,105852.400,17811,5,H0,1,100,54.215
1576860221.965594,105963.800,17811,5,H0,1,100,54.204
1576860222.097661,106075.200,17811,5,H0,1,100,54.234
1576860222.229727,106186.600,17811,5,H0,1,100,54.238
1576860222.361793,106298.000,17811,5,H0,1,100,54.242
1576860222.492644,106408.375,17829,8,H0,1,100,54.257
1576860222.623495,106518.750,17829,8,H0,1,100,54.249
1576860222.754347,106629.125,17829,8,H0,1,100,54.276
1576860222.885198,106739.500,17829,8,H0,1,100,54.295
1576860223.016049,106849.875,17829,8,H0,1,100,54.295
1576860223.146900,106960.250,17829,8,H0,1,100,54.318
1576860223.277751,107070.625,17829,8,H0,1,100,54.326
1576860223.408602,107181.000,17829,8,H0,1,100,54.349
1576860223.541182,107292.833,17851,6,H0,1,100,54.341
1576860223.673762,107404.667,17851,6,H0,1,100,54.360
1576860223.806342,107516.500,17851,6,H0,1,100,54.375
1576860223.938922,107628.333,17851,6,H0,1,100,54.383
1576860224.071502,107740.167,17851,6,H0,1,100,54.410
1576860224.204082,107852.000,17851,6,H0,1,100,54.398
1576860224.345159,107971.000,17871,1,H0,1,100,54.402
1576860224.474380,108080.000,17890,1,H0,1,100,54.421
1576860224.600044,108186.000,17908,1,H0,1,100,54.425
1576860224.736378,108301.000,17927,1,H0,1,100,54.440
1576860224.872712,108416.000,17945,1,H0,1,100,54.467
1576860225.010232,108532.000,17963,1,H0,1,100,54.459
1576860225.137082,108639.000,17980,1,H0,1,100,54.474
1576860225.261561,108744.000,17998,1,H0,1,100,54.478
1576860225.400266,108861.000,18016,1,H0,1,100,54.509
1576860225.535415,108975.000,18050,1,H0,1,100,54.493
1576860225.668192,109087.000,18069,1,H0,1,100,54.528
1576860225.803341,109201.000,18087,1,H0,1,100,54.528
1576860225.932562,109310.000,18105,1,H0,1,100,54.547
1576860226.067711,109424.000,18123,1,H0,1,100,54.547
1576860226.202859,109538.000,18141,1,H0,1,100,54.570
1576860226.333266,109648.000,18158,1,H0,1,100,54.574
1576860226.457745,109753.000,18176,1,H0,1,100,54.581
1576860226.594079,109868.000,18194,1,H0,1,100,54.585
1576860226.731599,109984.000,18229,1,H0,1,100,54.612
1576860226.870304,110101.000,18247,1,H0,1,100,54.596
1576860226.997154,110208.000,18265,1,H0,1,100,54.623
1576860227.126375,110317.000,18283,1,H0,1,100,54.616
1576860227.256782,110427.000,18301,1,H0,1,100,54.673
1576860227.394301,110543.000,18319,1,H0,1,100,54.650
1576860227.530635,110658.000,18336,1,H0,1,100,54.650
1576860227.656300,110764.000,18354,1,H0,1,100,54.669
1576860227.786706,110874.000,18373,1,H0,1,100,54.696
1576860227.925412,110991.000,18407,1,H0,1,100,54.699
1576860228.061746,111106.000,18425,1,H0,1,100,54.711
1576860228.192152,111216.000,18443,1,H0,1,100,54.711
1576860228.320188,111324.000,18461,1,H0,1,100,54.726
1576860228.452965,111436.000,18479,1,H0,1,100,54.753
1576860228.591671,111553.000,18497,1,H0,1,100,54.753
1576860228.729190,111669.000,18515,1,H0,1,100,54.768
1576860228.853669,111774.000,18533,1,H0,1,100,54.780
1576860228.981705,111882.000,18551,1,H0,1,100,54.795
1576860229.118039,111997.000,18585,1,H0,1,100,54.791
1576860229.247260,112106.000,18603,1,H0,1,100,54.791
1576860229.385965,112223.000,18621,1,H0,1,100,54.791
1576860229.525856,112341.000,18639,1,H0,1,100,54.825
1576860229.662190,112456.000,18657,1,H0,1,100,54.829
1576860229.804452,112576.000,18675,1,H0,1,100,54.841
1576860229.943157,112693.000,18693,1,H0,1,100,54.844
1576860230.081270,112809.500,18730,2,H0,1,100,54.863
1576860230.219382,112926.000,18730,2,H0,1,100,54.856
1576860230.345046,113032.000,18748,1,H0,1,100,54.890
1576860230.470711,113138.000,18768,1,H0,1,100,54.913
1576860230.609416,113255.000,18785,1,H0,1,100,54.928
1576860230.746936,113371.000,18804,1,H0,1,100,54.913
1576860230.879713,113483.000,18838,1,H0,1,100,54.917
1576860231.006563,113590.000,18856,1,H0,1,100,54.947
1576860231.139341,113702.000,18874,1,H0,1,100,54.951
1576860231.272119,113814.000,18892,1,H0,1,100,54.955
1576860231.410824,113931.000,18910,1,H0,1,100,54.951
1576860231.542416,114042.000,18928,1,H0,1,100,54.978
1576860231.666895,114147.000,18946,1,H0,1,100,54.982
1576860231.802043,114261.000,18964,1,H0,1,100,55.008
1576860231.940748,114378.000,18982,1,H0,1,100,55.008
1576860232.077083,114493.000,19016,1,H0,1,100,55.012
1576860232.203933,114600.000,19034,1,H0,1,100,55.043
1576860232.331968,114708.000,19052,1,H0,1,100,55.020
1576860232.467117,114822.000,19070,1,H0,1,100,55.047
1576860232.604636,114938.000,19088,1,H0,1,100,55.062
1576860232.738600,115051.000,19107,1,H0,1,100,55.073
1576860232.861893,115155.000,19125,1,H0,1,100,55.069
1576860232.994671,115267.000,19142,1,H0,1,100,55.089
1576860233.126263,115378.000,19160,1,H0,1,100,55.111
1576860233.250742,115483.000,19178,1,H0,1,100,55.104
1576860233.385890,115597.000,19196,1,H0,1,100,55.123
1576860233.524596,115714.000,19230,1,H0,1,100,55.131
1576860233.657373,115826.000,19249,1,H0,1,100,55.138
1576860233.799635,115946.000,19267,1,H0,1,100,55.142
1576860233.937155,116062.000,19285,1,H0,1,100,55.153
1576860234.071118,116175.000,19302,1,H0,1,100,55.180
1576860234.206266,116289.000,19320,1,H0,1,100,55.172
1576860234.334302,116397.000,19338,1,H0,1,100,55.184
1576860234.462337,116505.000,19356,1,H0,1,100,55.199
1576860234.601043,116622.000,19390,1,H0,1,100,55.218
1576860234.740933,116740.000,19409,1,H0,1,100,55.214
1576860234.865412,116845.000,19427,1,H0,1,100,55.253
1576860234.994633,116954.000,19445,1,H0,1,100,55.222
1576860235.129782,117068.000,19463,1,H0,1,100,55.253
1576860235.266116,117183.000,19481,1,H0,1,100,55.283
1576860235.402450,117298.000,19498,1,H0,1,100,55.264
1576860235.529300,117405.000,19516,1,H0,1,100,55.275
1576860235.658521,117514.000,19534,1,H0,1,100,55.279
1576860235.793670,117628.000,19569,1,H0,1,100,55.295
1576860235.933561,117746.000,19587,1,H0,1,100,55.306
1576860236.066338,117858.000,19605,1,H0,1,100,55.306
1576860236.194374,117966.000,19626,2,H0,1,100,55.340
1576860236.322409,118074.000,19626,2,H0,1,100,55.344
1576860236.458744,118189.000,19662,1,H0,1,100,55.352
1576860236.596263,118305.000,19680,1,H0,1,100,55.359
1576860236.727855,118416.000,19699,1,H0,1,100,55.359
1576860236.864189,118531.000,19717,1,H0,1,100,55.375
1576860236.999338,118645.000,19735,1,H0,1,100,55.382
1576860237.125003,118751.000,19753,1,H0,1,100,55.405
1576860237.251853,118858.000,19770,1,H0,1,100,55.409
1576860237.388187,118973.000,19788,1,H0,1,100,55.413
1576860237.522150,119086.000,19806,1,H0,1,100,55.443
1576860237.645443,119190.000,19823,1,H0,1,100,55.432
1576860237.781777,119305.000,19859,1,H0,1,100,55.455
1576860237.918112,119420.000,19877,1,H0,1,100,55.478
1576860238.055631,119536.000,19895,1,H0,1,100,55.474
1576860238.183667,119644.000,19913,1,H0,1,100,55.485
1576860238.314073,119754.000,19931,1,H0,1,100,55.501
1576860238.445665,119865.000,19949,1,H0,1,100,55.504
1576860238.582000,119980.000,19966,1,H0,1,100,55.527
1576860238.719519,120096.000,19984,1,H0,1,100,55.527
1576860238.841627,120199.000,20003,1,H0,1,100,55.543
1576860238.973219,120310.000,20037,1,H0,1,100,55.546
1576860239.110739,120426.000,20055,1,H0,1,100,55.562
1576860239.247073,120541.000,20073,1,H0,1,100,55.569
1576860239.378665,120652.000,20091,1,H0,1,100,55.577
1576860239.505515,120759.000,20109,1,H0,1,100,55.584
1576860239.635922,120869.000,20127,1,H0,1,100,55.619
1576860239.774627,120986.000,20145,1,H0,1,100,55.619
1576860239.912147,121102.000,20163,1,H0,1,100,55.619
1576860240.037811,121208.000,20181,1,H0,1,100,55.638
1576860240.167032,121317.000,20215,1,H0,1,100,55.642
1576860240.299810,121429.000,20233,1,H0,1,100,55.665
1576860240.436144,121544.000,20251,1,H0,1,100,55.684
1576860240.578406,121664.000,20269,1,H0,1,100,55.687
1576860240.717111,121781.000,20288,1,H0,1,100,55.695
1576860240.853445,121896.000,20305,1,H0,1,100,55.695
1576860240.995707,122016.000,20323,1,H0,1,100,55.714
1576860241.129670,122129.000,20357,1,H0,1,100,55.718
1576860241.261262,122240.000,20375,1,H0,1,100,55.726
1576860241.398782,122356.000,20393,1,H0,1,100,55.752
1576860241.525631,122463.000,20411,1,H0,1,100,55.749
1576860241.651296,122569.000,20429,1,H0,1,100,55.760
1576860241.788816,122685.000,20448,1,H0,1,100,55.768
1576860241.926335,122801.000,20465,1,H0,1,100,55.779
1576860242.057927,122912.000,20483,1,H0,1,100,55.790
1576860242.195447,123028.000,20501,1,H0,1,100,55.794
1576860242.324668,123137.000,20522,1,H0,1,100,55.810
1576860242.449147,123242.000,20542,1,H0,1,100,55.836
1576860242.585481,123357.000,20560,1,H0,1,100,55.829
1576860242.721815,123472.000,20578,1,H0,1,100,55.817
1576860242.856964,123586.000,20596,1,H0,1,100,55.825
1576860242.983814,123693.000,20630,1,H0,1,100,55.848
1576860243.114221,123803.000,20648,1,H0,1,100,55.855
1576860243.249369,123917.000,20666,1,H0,1,100,55.859
1576860243.384518,124031.000,20684,1,H0,1,100,55.886
1576860243.519667,124145.000,20702,1,H0,1,100,55.897
1576860243.644145,124250.000,20720,1,H0,1,100,55.901
1576860243.780480,124365.000,20739,1,H0,1,100,55.890
1576860243.914443,124478.000,20756,1,H0,1,100,55.893
1576860244.051962,124594.000,20774,1,H0,1,100,55.924
1576860244.181184,124703.000,20808,1,H0,1,100,55.920
1576860244.308033,124810.000,20826,1,H0,1,100,55.920
1576860244.440811,124922.000,20844,1,H0,1,100,55.947
1576860244.583073,125042.000,20862,1,H0,1,100,55.932
1576860244.720592,125158.000,20881,1,H0,1,100,55.939
1576860244.854556,125271.000,20899,1,H0,1,100,55.962
1576860244.996817,125391.000,20916,1,H0,1,100,55.958
1576860245.134337,125507.000,20934,1,H0,1,100,55.981
1576860245.268300,125620.000,20968,1,H0,1,100,56.004
1576860245.403449,125734.000,20986,1,H0,1,100,56.000
1576860245.531484,125842.000,21004,1,H0,1,100,55.993
1576860245.659520,125950.000,21023,1,H0,1,100,56.019
1576860245.788741,126059.000,21041,1,H0,1,100,56.016
1576860245.923890,126173.000,21059,1,H0,1,100,56.023
1576860246.057853,126286.000,21077,1,H0,1,100,56.031
1576860246.196558,126403.000,21094,1,H0,1,100,56.050
1576860246.323408,126510.000,21112,1,H0,1,100,56.042
1576860246.449072,126616.000,21130,1,H0,1,100,56.069
1576860246.585407,126731.000,21164,1,H0,1,100,56.061
1576860246.724112,126848.000,21183,1,H0,1,100,56.080
1576860246.855704,126959.000,21201,1,H0,1,100,56.096
1576860246.981368,127065.000,21219,1,H0,1,100,56.099
1576860247.116517,127179.000,21237,1,H0,1,100,56.096
1576860247.254037,127295.000,21255,1,H0,1,100,56.119
1576860247.392742,127412.000,21272,1,H0,1,100,56.119
1576860247.519592,127519.000,21290,1,H0,1,100,56.122
1576860247.642885,127623.000,21308,1,H0,1,100,56.138
1576860247.781590,127740.000,21343,1,H0,1,100,56.145
1576860247.915554,127853.000,21361,1,H0,1,100,56.172
1576860248.051888,127968.000,21379,1,H0,1,100,56.183
1576860248.187036,128082.000,21397,1,H0,1,100,56.202
1576860248.320999,128195.000,21418,1,H0,1,100,56.195
1576860248.457334,128310.000,21438,1,H0,1,100,56.191
1576860248.584184,128417.000,21456,1,H0,1,100,56.225
1576860248.718147,128530.000,21475,1,H0,1,100,56.233
1576860248.842626,128635.000,21493,1,H0,1,100,56.256
1576860248.977774,128749.000,21511,1,H0,1,100,56.256
1576860249.108181,128859.000,21529,1,H0,1,100,56.275
1576860249.240958,128971.000,21547,1,H0,1,100,56.263
1576860249.380849,129089.000,21564,1,H0,1,100,56.298
1576860249.518369,129205.000,21598,1,H0,1,100,56.313
1576860249.657074,129322.000,21617,1,H0,1,100,56.305
1576860249.787481,129432.000,21635,1,H0,1,100,56.317
1576860249.915516,129540.000,21653,1,H0,1,100,56.328
1576860250.045923,129650.000,21671,1,H0,1,100,56.336
1576860250.183442,129766.000,21689,1,H0,1,100,56.355
1576860250.323333,129884.000,21707,1,H0,1,100,56.366
1576860250.445441,129987.000,21724,1,H0,1,100,56.378
1576860250.575848,130097.000,21742,1,H0,1,100,56.370
1576860250.714553,130214.000,21777,1,H0,1,100,56.401
1576860250.850887,130329.000,21795,1,H0,1,100,56.420
1576860250.983665,130441.000,21813,1,H0,1,100,56.408
1576860251.110514,130548.000,21831,1,H0,1,100,56.435
1576860251.239736,130657.000,21849,1,H0,1,100,56.431
1576860251.378441,130774.000,21867,1,H0,1,100,56.458
1576860251.515960,130890.000,21885,1,H0,1,100,56.447
1576860251.643996,130998.000,21902,1,H0,1,100,56.466
1576860251.772032,131106.000,21921,1,H0,1,100,56.485
1576860251.903624,131217.000,21939,1,H0,1,100,56.485
1576860252.038772,131331.000,21973,1,H0,1,100,56.489
1576860252.179848,131450.000,21991,1,H0,1,100,56.496
1576860252.318554,131567.000,22009,1,H0,1,100,56.515
1576860252.454888,131682.000,22027,1,H0,1,100,56.531
1576860252.598335,131803.000,22044,1,H0,1,100,56.515
1576860252.735855,131919.000,22063,1,H0,1,100,56.527
1576860252.868632,132031.000,22081,1,H0,1,100,56.557
1576860253.006152,132147.000,22115,1,H0,1,100,56.542
1576860253.135373,132256.000,22133,1,H0,1,100,56.557
1576860253.259852,132361.000,22151,1,H0,1,100,56.572
1576860253.397372,132477.000,22169,1,H0,1,100,56.588
1576860253.534891,132593.000,22187,1,H0,1,100,56.595
1576860253.670040,132707.000,22205,1,H0,1,100,56.603
1576860253.806374,132822.000,22223,1,H0,1,100,56.607
1576860253.936780,132932.000,22241,1,H0,1,100,56.622
1576860254.060074,133036.000,22259,1,H0,1,100,56.614
1576860254.195223,133150.000,22293,1,H0,1,100,56.626
1576860254.330964,133264.500,22314,2,H0,1,100,56.622
1576860254.466706,133379.000,22314,2,H0,1,100,56.641
1576860254.594741,133487.000,22334,1,H0,1,100,56.664
1576860254.725147,133597.000,22352,1,H0,1,100,56.668
1576860254.859111,133710.000,22387,1,H0,1,100,56.668
1576860254.993074,133823.000,22405,1,H0,1,100,56.672
1576860255.130594,133939.000,22423,1,H0,1,100,56.683
1576860255.255072,134044.000,22441,1,H0,1,100,56.702
1576860255.387850,134156.000,22459,1,H0,1,100,56.702
1576860255.521813,134269.000,22477,1,H0,1,100,56.710
1576860255.658147,134384.000,22494,1,H0,1,100,56.714
1576860255.789739,134495.000,22513,1,H0,1,100,56.737
1576860255.916589,134602.000,22531,1,H0,1,100,56.717
1576860256.050553,134715.000,22549,1,H0,1,100,56.744
1576860256.192814,134835.000,22583,1,H0,1,100,56.733
1576860256.331519,134952.000,22601,1,H0,1,100,56.763
1576860256.464297,135064.000,22619,1,H0,1,100,56.786
1576860256.604188,135182.000,22637,1,H0,1,100,56.790
1576860256.740522,135297.000,22655,1,H0,1,100,56.813
1576860256.874485,135410.000,22673,1,H0,1,100,56.805
1576860257.010819,135525.000,22707,1,H0,1,100,56.801
1576860257.138855,135633.000,22725,1,H0,1,100,56.824
1576860257.269261,135743.000,22743,1,H0,1,100,56.824
1576860257.398482,135852.000,22761,1,H0,1,100,56.832
1576860257.532445,135965.000,22779,1,H0,1,100,56.851
1576860257.665223,136077.000,22797,1,H0,1,100,56.866
1576860257.806299,136196.000,22816,1,H0,1,100,56.847
1576860257.933149,136303.000,22834,1,H0,1,100,56.862
1576860258.056443,136407.000,22851,1,H0,1,100,56.874
1576860258.193962,136523.000,22869,1,H0,1,100,56.885
1576860258.332668,136640.000,22903,1,H0,1,100,56.897
1576860258.466631,136753.000,22921,1,H0,1,100,56.923
1576860258.591110,136858.000,22939,1,H0,1,100,56.923
1576860258.723887,136970.000,22958,1,H0,1,100,56.920
1576860258.861407,137086.000,22976,1,H0,1,100,56.946
1576860259.000112,137203.000,22994,1,H0,1,100,56.943
1576860259.129333,137312.000,23012,1,H0,1,100,56.946
1576860259.252627,137416.000,23029,1,H0,1,100,56.977
1576860259.391332,137533.000,23047,1,H0,1,100,56.965
1576860259.526480,137647.000,23081,1,H0,1,100,56.965
1576860259.665186,137764.000,23100,1,H0,1,100,56.984
1576860259.799149,137877.000,23118,1,H0,1,100,56.984
1576860259.934297,137991.000,23136,1,H0,1,100,57.000
1576860260.071817,138107.000,23154,1,H0,1,100,56.996
1576860260.198667,138214.000,23172,1,H0,1,100,57.019
1576860260.331445,138326.000,23189,1,H0,1,100,57.030
1576860260.458295,138433.000,23210,1,H0,1,100,57.038
1576860260.591072,138545.000,23230,1,H0,1,100,57.053
1576860260.720293,138654.000,23249,1,H0,1,100,57.065
1576860260.850700,138764.000,23267,1,H0,1,100,57.076
1576860260.990591,138882.000,23285,1,H0,1,100,57.072
1576860261.129296,138999.000,23302,1,H0,1,100,57.095
1576860261.253775,139104.000,23320,1,H0,1,100,57.091
1576860261.386552,139216.000,23338,1,H0,1,100,57.107
1576860261.522887,139331.000,23372,1,H0,1,100,57.122
1576860261.654479,139442.000,23391,1,H0,1,100,57.118
1576860261.789627,139556.000,23409,1,H0,1,100,57.114
1576860261.916477,139663.000,23427,1,H0,1,100,57.145
1576860262.046884,139773.000,23445,1,H0,1,100,57.145
1576860262.182032,139887.000,23463,1,H0,1,100,57.168
1576860262.323109,140006.000,23480,1,H0,1,100,57.164
1576860262.451144,140114.000,23498,1,H0,1,100,57.171
1576860262.577994,140221.000,23516,1,H0,1,100,57.190
1576860262.715514,140337.000,23551,1,H0,1,100,57.194
1576860262.850662,140451.000,23569,1,H0,1,100,57.229
1576860262.988182,140567.000,23587,1,H0,1,100,57.206
1576860263.113847,140673.000,23605,1,H0,1,100,57.213
1576860263.238326,140778.000,23623,1,H0,1,100,57.221
1576860263.377031,140895.000,23641,1,H0,1,100,57.213
1576860263.515736,141012.000,23658,1,H0,1,100,57.229
1576860263.652070,141127.000,23676,1,H0,1,100,57.263
1576860263.794332,141247.000,23711,1,H0,1,100,57.278
1576860263.933037,141364.000,23729,1,H0,1,100,57.263
1576860264.069371,141479.000,23747,1,H0,1,100,57.271
1576860264.211633,141599.000,23765,1,H0,1,100,57.274
1576860264.349153,141715.000,23782,1,H0,1,100,57.293
1576860264.485487,141830.000,23800,1,H0,1,100,57.313
1576860264.612337,141937.000,23818,1,H0,1,100,57.313
1576860264.743929,142048.000,23853,1,H0,1,100,57.313
1576860264.876706,142160.000,23871,1,H0,1,100,57.332
1576860265.017783,142279.000,23889,1,H0,1,100,57.316
1576860265.155302,142395.000,23907,1,H0,1,100,57.335
1576860265.291636,142510.000,23925,1,H0,1,100,57.366
1576860265.418486,142617.000,23943,1,H0,1,100,57.377
1576860265.546522,142725.000,23961,1,H0,1,100,57.377
1576860265.679300,142837.000,23978,1,H0,1,100,57.366
1576860265.816819,142953.000,23997,1,H0,1,100,57.400
1576860265.953153,143068.000,24031,1,H0,1,100,57.389
1576860266.077632,143173.000,24049,1,H0,1,100,57.412
1576860266.208039,143283.000,24067,1,H0,1,100,57.423
1576860266.346744,143400.000,24085,1,H0,1,100,57.431
1576860266.483078,143515.000,24106,1,H0,1,100,57.438
1576860266.613485,143625.000,24126,1,H0,1,100,57.427
1576860266.741520,143733.000,24145,1,H0,1,100,57.450
1576860266.873112,143844.000,24163,1,H0,1,100,57.450
1576860267.011818,143961.000,24181,1,H0,1,100,57.484
1576860267.150523,144078.000,24199,1,H0,1,100,57.480
1576860267.273816,144182.000,24217,1,H0,1,100,57.477
1576860267.404223,144292.000,24235,1,H0,1,100,57.477
1576860267.542928,144409.000,24252,1,H0,1,100,57.496
1576860267.674520,144520.000,24270,1,H0,1,100,57.511
1576860267.814411,144638.000,24305,1,H0,1,100,57.530
1576860267.953116,144755.000,24323,1,H0,1,100,57.534
1576860268.083523,144865.000,24341,1,H0,1,100,57.519
1576860268.222228,144982.000,24359,1,H0,1,100,57.538
1576860268.360933,145099.000,24377,1,H0,1,100,57.560
1576860268.498452,145215.000,24394,1,H0,1,100,57.549
1576860268.638343,145333.000,24412,1,H0,1,100,57.557
1576860268.765193,145440.000,24447,1,H0,1,100,57.591
1576860268.890858,145546.000,24465,1,H0,1,100,57.602
1576860269.029563,145663.000,24483,1,H0,1,100,57.610
1576860269.168268,145780.000,24501,1,H0,1,100,57.587
1576860269.298675,145890.000,24519,1,H0,1,100,57.599
1576860269.425525,145997.000,24537,1,H0,1,100,57.622
1576860269.558302,146109.000,24555,1,H0,1,100,57.625
1576860269.691080,146221.000,24572,1,H0,1,100,57.656
1576860269.829785,146338.000,24591,1,H0,1,100,57.644
1576860269.960192,146448.000,24625,1,H0,1,100,57.641
1576860270.085856,146554.000,24643,1,H0,1,100,57.652
1576860270.221005,146668.000,24661,1,H0,1,100,57.663
1576860270.360895,146786.000,24679,1,H0,1,100,57.675
1576860270.498415,146902.000,24697,1,H0,1,100,57.702
1576860270.622894,147007.000,24715,1,H0,1,100,57.694
1576860270.752115,147116.000,24734,1,H0,1,100,57.717
1576860270.886078,147229.000,24751,1,H0,1,100,57.732
1576860271.023598,147345.000,24769,1,H0,1,100,57.713
1576860271.158746,147459.000,24803,1,H0,1,100,57.732
1576860271.297452,147576.000,24821,1,H0,1,100,57.732
1576860271.434971,147692.000,24839,1,H0,1,100,57.740
1576860271.570120,147806.000,24857,1,H0,1,100,57.751
1576860271.695785,147912.000,24875,1,H0,1,100,57.751
1576860271.830933,148026.000,24894,1,H0,1,100,57.778
1576860271.961340,148136.000,24912,1,H0,1,100,57.786
1576860272.085819,148241.000,24929,1,H0,1,100,57.778
1576860272.218596,148353.000,24947,1,H0,1,100,57.797
1576860272.354930,148468.000,24981,1,H0,1,100,57.786
1576860272.492450,148584.000,25002,2,H0,1,100,57.805
1576860272.629970,148700.000,25002,2,H0,1,100,57.816
1576860272.768675,148817.000,25022,1,H0,1,100,57.828
1576860272.893154,148922.000,25040,1,H0,1,100,57.831
1576860273.023561,149032.000,25074,1,H0,1,100,57.843
1576860273.157524,149145.000,25092,1,H0,1,100,57.873
1576860273.291487,149258.000,25110,1,H0,1,100,57.877
1576860273.429006,149374.000,25128,1,H0,1,100,57.866
1576860273.555856,149481.000,25146,1,H0,1,100,57.881
1576860273.686263,149591.000,25164,1,H0,1,100,57.896
1576860273.821412,149705.000,25182,1,H0,1,100,57.908
1576860273.961302,149823.000,25200,1,H0,1,100,57.904
1576860274.091709,149933.000,25218,1,H0,1,100,57.904
1576860274.217373,150039.000,25236,1,H0,1,100,57.911
1576860274.353708,150154.000,25270,1,H0,1,100,57.923
1576860274.490042,150269.000,25288,1,H0,1,100,57.957
1576860274.627561,150385.000,25306,1,H0,1,100,57.942
1576860274.754411,150492.000,25325,1,H0,1,100,57.934
1576860274.877705,150596.000,25343,1,H0,1,100,57.938
1576860275.016410,150713.000,25361,1,H0,1,100,57.961
1576860275.155115,150830.000,25378,1,H0,1,100,57.976
1576860275.291449,150945.000,25396,1,H0,1,100,57.980
1576860275.433711,151065.000,25430,1,H0,1,100,57.984
1576860275.572416,151182.000,25448,1,H0,1,100,57.995
1576860275.708750,151297.000,25466,1,H0,1,100,57.999
1576860275.848641,151415.000,25485,1,H0,1,100,58.026
1576860275.980233,151526.000,25502,1,H0,1,100,58.011
1576860276.118938,151643.000,25520,1,H0,1,100,58.026
1576860276.245788,151750.000,25538,1,H0,1,100,58.037
1576860276.376195,151860.000,25572,1,H0,1,100,58.034
1576860276.508973,151972.000,25590,1,H0,1,100,58.068
1576860276.648863,152090.000,25608,1,H0,1,100,58.064
1576860276.784012,152204.000,25627,1,H0,1,100,58.075
1576860276.923903,152322.000,25645,1,H0,1,100,58.079
1576860277.053123,152431.000,25663,1,H0,1,100,58.098
1576860277.179974,152538.000,25680,1,H0,1,100,58.087
1576860277.310380,152648.000,25698,1,H0,1,100,58.110
1576860277.447900,152764.000,25716,1,H0,1,100,58.102
1576860277.585419,152880.000,25750,1,H0,1,100,58.121
1576860277.709898,152985.000,25769,1,H0,1,100,58.125
1576860277.839120,153094.000,25787,1,H0,1,100,58.133
1576860277.977825,153211.000,25805,1,H0,1,100,58.148
1576860278.114159,153326.000,25823,1,H0,1,100,58.144
1576860278.246937,153438.000,25841,1,H0,1,100,58.156
1576860278.374972,153546.000,25859,1,H0,1,100,58.156
1576860278.504193,153655.000,25876,1,H0,1,100,58.182
1576860278.642898,153772.000,25897,1,H0,1,100,58.178
1576860278.779233,153887.000,25918,1,H0,1,100,58.190
1576860278.904897,153993.000,25936,1,H0,1,100,58.194
1576860279.035304,154103.000,25954,1,H0,1,100,58.201
1576860279.174009,154220.000,25971,1,H0,1,100,58.209
1576860279.305601,154331.000,25989,1,H0,1,100,58.228
1576860279.443120,154447.000,26023,1,H0,1,100,58.198
1576860279.581825,154564.000,26041,1,H0,1,100,58.228
1576860279.709861,154672.000,26060,1,H0,1,100,58.228
1576860279.847381,154788.000,26078,1,H0,1,100,58.243
1576860279.986086,154905.000,26096,1,H0,1,100,58.274
1576860280.121235,155019.000,26113,1,H0,1,100,58.251
1576860280.262311,155138.000,26131,1,H0,1,100,58.274
1576860280.389161,155245.000,26149,1,H0,1,100,58.289
1576860280.514825,155351.000,26166,1,H0,1,100,58.285
1576860280.652345,155467.000,26201,1,H0,1,100,58.285
1576860280.791050,155584.000,26220,1,H0,1,100,58.297
1576860280.922642,155695.000,26238,1,H0,1,100,58.320
1576860281.049492,155802.000,26256,1,H0,1,100,58.312
1576860281.181084,155913.000,26274,1,H0,1,100,58.323
1576860281.316233,156027.000,26292,1,H0,1,100,58.331
1576860281.452567,156142.000,26309,1,H0,1,100,58.339
1576860281.585345,156254.000,26327,1,H0,1,100,58.358
1576860281.708638,156358.000,26345,1,H0,1,100,58.362
1576860281.842601,156471.000,26380,1,H0,1,100,58.358
1576860281.981307,156588.000,26398,1,H0,1,100,58.369
1576860282.117640,156703.000,26416,1,H0,1,100,58.384
1576860282.243305,156809.000,26434,1,H0,1,100,58.404
1576860282.372526,156918.000,26452,1,H0,1,100,58.400
1576860282.505304,157030.000,26470,1,H0,1,100,58.407
1576860282.642823,157146.000,26487,1,H0,1,100,58.426
1576860282.779158,157261.000,26506,1,H0,1,100,58.411
1576860282.917863,157378.000,26540,1,H0,1,100,58.426
1576860283.056568,157495.000,26558,1,H0,1,100,58.438
1576860283.195273,157612.000,26576,1,H0,1,100,58.449
1576860283.332793,157728.000,26594,1,H0,1,100,58.457
1576860283.472683,157846.000,26611,1,H0,1,100,58.476
1576860283.606647,157959.000,26629,1,H0,1,100,58.468
1576860283.733497,158066.000,26647,1,H0,1,100,58.480
1576860283.865089,158177.000,26666,1,H0,1,100,58.484
1576860284.000237,158291.000,26700,1,H0,1,100,58.491
1576860284.134200,158404.000,26718,1,H0,1,100,58.510
1576860284.276462,158524.000,26736,1,H0,1,100,58.507
1576860284.416353,158642.000,26754,1,H0,1,100,58.514
1576860284.543203,158749.000,26772,1,H0,1,100,58.514
1576860284.672424,158858.000,26793,1,H0,1,100,58.529
1576860284.806387,158971.000,26814,1,H0,1,100,58.545
1576860284.940350,159084.000,26832,1,H0,1,100,58.548
1576860285.079055,159201.000,26850,1,H0,1,100,58.571
1576860285.205905,159308.000,26868,1,H0,1,100,58.568
1576860285.335126,159417.000,26886,1,H0,1,100,58.564
1576860285.469090,159530.000,26903,1,H0,1,100,58.579
1576860285.608980,159648.000,26921,1,H0,1,100,58.590
1576860285.741758,159760.000,26956,1,H0,1,100,58.598
1576860285.867422,159866.000,26974,1,H0,1,100,58.610
1576860286.002571,159980.000,26992,1,H0,1,100,58.598
1576860286.138905,160095.000,27010,1,H0,1,100,58.629
1576860286.276425,160211.000,27028,1,H0,1,100,58.613
1576860286.404460,160319.000,27046,1,H0,1,100,58.636
1576860286.527754,160423.000,27064,1,H0,1,100,58.621
1576860286.666459,160540.000,27081,1,H0,1,100,58.655
1576860286.805164,160657.000,27100,1,H0,1,100,58.655
1576860286.940313,160771.000,27134,1,H0,1,100,58.678
1576860287.081389,160890.000,27152,1,H0,1,100,58.667
1576860287.220094,161007.000,27170,1,H0,1,100,58.690
1576860287.356428,161122.000,27188,1,H0,1,100,58.671
1576860287.498690,161242.000,27205,1,H0,1,100,58.678
1576860287.635024,161357.000,27223,1,H0,1,100,58.709
1576860287.773729,161474.000,27258,1,H0,1,100,58.697
1576860287.901765,161582.000,27276,1,H0,1,100,58.697
1576860288.032171,161692.000,27294,1,H0,1,100,58.720
1576860288.163764,161803.000,27312,1,H0,1,100,58.728
1576860288.304840,161922.000,27330,1,H0,1,100,58.743
1576860288.439988,162036.000,27348,1,H0,1,100,58.735
1576860288.573951,162149.000,27365,1,H0,1,100,58.770
1576860288.705544,162260.000,27383,1,H0,1,100,58.762
1576860288.831208,162366.000,27402,1,H0,1,100,58.762
1576860288.961615,162476.000,27420,1,H0,1,100,58.766
1576860289.099134,162592.000,27454,1,H0,1,100,58.785
1576860289.239025,162710.000,27472,1,H0,1,100,58.785
1576860289.363504,162815.000,27490,1,H0,1,100,58.781
1576860289.490354,162922.000,27508,1,H0,1,100,58.816
1576860289.627874,163038.000,27526,1,H0,1,100,58.816
1576860289.764208,163153.000,27544,1,H0,1,100,58.804
1576860289.898171,163266.000,27562,1,H0,1,100,58.819
1576860290.025021,163373.000,27580,1,H0,1,100,58.819
1576860290.151871,163480.000,27598,1,H0,1,100,58.854
1576860290.290576,163597.000,27632,1,H0,1,100,58.854
1576860290.426910,163712.000,27650,1,H0,1,100,58.846
1576860290.554946,163820.000,27668,1,H0,1,100,58.873
1576860290.685352,163930.000,27689,2,H0,1,100,58.854
1576860290.815759,164040.000,27689,2,H0,1,100,58.869
1576860290.944980,164149.000,27710,1,H0,1,100,58.877
1576860291.083685,164266.000,27744,1,H0,1,100,58.892
1576860291.221205,164382.000,27762,1,H0,1,100,58.888
1576860291.346869,164488.000,27780,1,H0,1,100,58.899
1576860291.485574,164605.000,27798,1,H0,1,100,58.911
1576860291.624280,164722.000,27816,1,H0,1,100,58.926
1576860291.760614,164837.000,27833,1,H0,1,100,58.915
1576860291.901690,164956.000,27852,1,H0,1,100,58.941
1576860292.030911,165065.000,27886,1,H0,1,100,58.934
1576860292.155390,165170.000,27904,1,H0,1,100,58.953
1576860292.292910,165286.000,27922,1,H0,1,100,58.957
1576860292.431615,165403.000,27940,1,H0,1,100,58.960
1576860292.565578,165516.000,27958,1,H0,1,100,58.972
1576860292.692428,165623.000,27976,1,H0,1,100,58.972
1576860292.824020,165734.000,27995,1,H0,1,100,58.980
1576860292.959169,165848.000,28012,1,H0,1,100,58.976
1576860293.093132,165961.000,28030,1,H0,1,100,58.995
1576860293.228281,166075.000,28064,1,H0,1,100,58.991
1576860293.352760,166180.000,28082,1,H0,1,100,59.006
1576860293.485537,166292.000,28100,1,H0,1,100,59.006
1576860293.624242,166409.000,28118,1,H0,1,100,59.022
1576860293.761762,166525.000,28136,1,H0,1,100,59.048
1576860293.889797,166633.000,28155,1,H0,1,100,59.037
1576860294.016648,166740.000,28173,1,H0,1,100,59.056
1576860294.148240,166851.000,28190,1,H0,1,100,59.063
1576860294.286945,166968.000,28208,1,H0,1,100,59.090
1576860294.425650,167085.000,28242,1,H0,1,100,59.075
1576860294.563169,167201.000,28260,1,H0,1,100,59.075
1576860294.704246,167320.000,28278,1,H0,1,100,59.086
1576860294.842951,167437.000,28297,1,H0,1,100,59.083
1576860294.980471,167553.000,28315,1,H0,1,100,59.102
1576860295.122732,167673.000,28332,1,H0,1,100,59.102
1576860295.261437,167790.000,28366,1,H0,1,100,59.102
1576860295.387102,167896.000,28384,1,H0,1,100,59.121
1576860295.516323,168005.000,28402,1,H0,1,100,59.144
1576860295.652657,168120.000,28420,1,H0,1,100,59.125
1576860295.781878,168229.000,28439,1,H0,1,100,59.140
1576860295.920583,168346.000,28457,1,H0,1,100,59.132
1576860296.059289,168463.000,28475,1,H0,1,100,59.159
1576860296.187324,168571.000,28492,1,H0,1,100,59.178
1576860296.316545,168680.000,28510,1,H0,1,100,59.166
1576860296.450508,168793.000,28528,1,H0,1,100,59.178
1576860296.582100,168904.000,28562,1,H0,1,100,59.193
1576860296.715471,169016.500,28583,2,H0,1,100,59.208
1576860296.848841,169129.000,28583,2,H0,1,100,59.193
1576860296.976877,169237.000,28603,1,H0,1,100,59.208
1576860297.112025,169351.000,28621,1,H0,1,100,59.201
1576860297.251916,169469.000,28655,1,H0,1,100,59.212
1576860297.385879,169582.000,28673,1,H0,1,100,59.231
1576860297.510358,169687.000,28691,1,H0,1,100,59.231
1576860297.644321,169800.000,28709,1,H0,1,100,59.235
1576860297.780655,169915.000,28727,1,H0,1,100,59.235
1576860297.918175,170031.000,28746,1,H0,1,100,59.247
1576860298.048582,170141.000,28764,1,H0,1,100,59.258
1576860298.170690,170244.000,28781,1,H0,1,100,59.269
1576860298.305838,170358.000,28799,1,H0,1,100,59.281
1576860298.435059,170467.000,28817,1,H0,1,100,59.285
1576860298.571393,170582.000,28851,1,H0,1,100,59.292
1576860298.713655,170702.000,28869,1,H0,1,100,59.296
1576860298.851175,170818.000,28888,1,H0,1,100,59.296
1576860298.985138,170931.000,28906,1,H0,1,100,59.308
1576860299.126214,171050.000,28923,1,H0,1,100,59.311
1576860299.262548,171165.000,28941,1,H0,1,100,59.327
1576860299.397697,171279.000,28959,1,H0,1,100,59.331
1576860299.528103,171389.000,28993,1,H0,1,100,59.323
1576860299.659695,171500.000,29011,1,H0,1,100,59.346
1576860299.786546,171607.000,29030,1,H0,1,100,59.350
1576860299.919323,171719.000,29048,1,H0,1,100,59.353
1576860300.055657,171834.000,29066,1,H0,1,100,59.369
1576860300.189620,171947.000,29084,1,H0,1,100,59.395
1576860300.323583,172060.000,29102,1,H0,1,100,59.376
1576860300.450433,172167.000,29119,1,H0,1,100,59.388
1576860300.578469,172275.000,29137,1,H0,1,100,59.380
1576860300.715989,172391.000,29154,1,H0,1,100,59.407
1576860300.855879,172509.000,29190,1,H0,1,100,59.395
1576860300.981544,172615.000,29208,1,H0,1,100,59.407
1576860301.107208,172721.000,29226,1,H0,1,100,59.426
1576860301.244728,172837.000,29244,1,H0,1,100,59.430
1576860301.381062,172952.000,29262,1,H0,1,100,59.426
1576860301.517396,173067.000,29280,1,H0,1,100,59.449
1576860301.643061,173173.000,29298,1,H0,1,100,59.426
1576860301.768725,173279.000,29315,1,H0,1,100,59.468
1576860301.906245,173395.000,29334,1,H0,1,100,59.449
1576860302.041394,173509.000,29368,1,H0,1,100,59.464
1576860302.170615,173618.000,29386,1,H0,1,100,59.456
1576860302.306949,173733.000,29404,1,H0,1,100,59.483
1576860302.434984,173841.000,29422,1,H0,1,100,59.491
1576860302.566576,173952.000,29440,1,H0,1,100,59.487
1576860302.702911,174067.000,29458,1,H0,1,100,59.483
1576860302.830946,174175.000,29480,1,H0,1,100,59.510
1576860302.962538,174286.000,29500,1,H0,1,100,59.506
1576860303.089388,174393.000,29518,1,H0,1,100,59.521
1576860303.220980,174504.000,29536,1,H0,1,100,59.521
1576860303.354944,174617.000,29554,1,H0,1,100,59.533
1576860303.494834,174735.000,29572,1,H0,1,100,59.529
1576860303.626426,174846.000,29589,1,H0,1,100,59.548
1576860303.765131,174963.000,29607,1,H0,1,100,59.552
1576860303.891981,175070.000,29626,1,H0,1,100,59.556
1576860304.021203,175179.000,29660,1,H0,1,100,59.571
1576860304.153980,175291.000,29678,1,H0,1,100,59.598
1576860304.291500,175407.000,29696,1,H0,1,100,59.575
1576860304.426648,175521.000,29714,1,H0,1,100,59.605
1576860304.548756,175624.000,29732,1,H0,1,100,59.582
1576860304.682719,175737.000,29750,1,H0,1,100,59.605
1576860304.821425,175854.000,29769,1,H0,1,100,59.620
1576860304.957759,175969.000,29786,1,H0,1,100,59.620
1576860305.085794,176077.000,29804,1,H0,1,100,59.613
1576860305.215015,176186.000,29838,1,H0,1,100,59.632
1576860305.347793,176298.000,29856,1,H0,1,100,59.628
1576860305.486498,176415.000,29874,1,H0,1,100,59.624
1576860305.624018,176531.000,29892,1,H0,1,100,59.632
1576860305.747311,176635.000,29910,1,H0,1,100,59.655
1576860305.878903,176746.000,29929,1,H0,1,100,59.662
1576860306.016423,176862.000,29947,1,H0,1,100,59.659
1576860306.146830,176972.000,29964,1,H0,1,100,59.678
1576860306.287906,177091.000,29982,1,H0,1,100,59.678
1576860306.421869,177204.000,30016,1,H0,1,100,59.681
1576860306.559389,177320.000,30034,1,H0,1,100,59.693
1576860306.701650,177440.000,30052,1,H0,1,100,59.689
1576860306.840355,177557.000,30071,1,H0,1,100,59.712
1576860306.977875,177673.000,30088,1,H0,1,100,59.712
1576860307.115395,177789.000,30106,1,H0,1,100,59.708
1576860307.242245,177896.000,30124,1,H0,1,100,59.739
1576860307.369095,178003.000,30142,1,H0,1,100,59.723
1576860307.506614,178119.000,30176,1,H0,1,100,59.735
1576860307.645320,178236.000,30194,1,H0,1,100,59.731
1576860307.780468,178350.000,30212,1,H0,1,100,59.739
1576860307.921545,178469.000,30231,1,H0,1,100,59.750
1576860308.047209,178575.000,30249,1,H0,1,100,59.750
1576860308.172873,178681.000,30267,1,H0,1,100,59.754
1576860308.309208,178796.000,30284,1,H0,1,100,59.758
1576860308.447913,178913.000,30318,1,H0,1,100,59.784
1576860308.581876,179026.000,30336,1,H0,1,100,59.788
1576860308.706355,179131.000,30354,1,H0,1,100,59.815
1576860308.841504,179245.000,30376,2,H0,1,100,59.788
1576860308.976652,179359.000,30376,2,H0,1,100,59.807
1576860309.112986,179474.000,30396,1,H0,1,100,59.804
1576860309.244578,179585.000,30430,1,H0,1,100,59.823
1576860309.366686,179688.000,30448,1,H0,1,100,59.834
1576860309.504206,179804.000,30466,1,H0,1,100,59.834
1576860309.638169,179917.000,30484,1,H0,1,100,59.834
1576860309.775689,180033.000,30502,1,H0,1,100,59.826
1576860309.903724,180141.000,30521,1,H0,1,100,59.853
1576860310.036502,180253.000,30539,1,H0,1,100,59.849
1576860310.160981,180358.000,30556,1,H0,1,100,59.868
1576860310.294944,180471.000,30574,1,H0,1,100,59.857
1576860310.427722,180583.000,30592,1,H0,1,100,59.876
1576860310.552201,180688.000,30610,1,H0,1,100,59.887
1576860310.686164,180801.000,30644,1,H0,1,100,59.872
1576860310.824869,180918.000,30663,1,H0,1,100,59.891
1576860310.957647,181030.000,30681,1,H0,1,100,59.907
1576860311.096352,181147.000,30699,1,H0,1,100,59.914
1576860311.235057,181264.000,30717,1,H0,1,100,59.910
1576860311.359536,181369.000,30734,1,H0,1,100,59.918
1576860311.491128,181480.000,30752,1,H0,1,100,59.929
1576860311.627462,181595.000,30770,1,H0,1,100,59.914
1576860311.759054,181706.000,30805,1,H0,1,100,59.914
1576860311.895388,181821.000,30823,1,H0,1,100,59.956
1576860312.022238,181928.000,30841,1,H0,1,100,59.945
1576860312.152645,182038.000,30859,1,H0,1,100,59.945
1576860312.287794,182152.000,30877,1,H0,1,100,59.948
1576860312.428870,182271.000,30895,1,H0,1,100,59.956
1576860312.556905,182379.000,30912,1,H0,1,100,59.971
1576860312.682570,182485.000,30930,1,H0,1,100,59.968
1576860312.818904,182600.000,30949,1,H0,1,100,59.979
1576860312.954053,182714.000,30983,1,H0,1,100,59.979
1576860313.091572,182830.000,31001,1,H0,1,100,59.987
1576860313.217237,182936.000,31019,1,H0,1,100,59.990
1576860313.341716,183041.000,31037,1,H0,1,100,60.006
1576860313.480421,183158.000,31055,1,H0,1,100,59.994
1576860313.619126,183275.000,31073,1,H0,1,100,60.006
1576860313.755460,183390.000,31090,1,H0,1,100,60.010
1576860313.897722,183510.000,31109,1,H0,1,100,60.021
1576860314.035242,183626.000,31143,1,H0,1,100,60.032
1576860314.171576,183741.000,31161,1,H0,1,100,60.036
1576860314.313838,183861.000,31179,1,H0,1,100,60.055
1576860314.451357,183977.000,31197,1,H0,1,100,60.071
1576860314.587691,184092.000,31215,1,H0,1,100,60.048
1576860314.724025,184207.000,31232,1,H0,1,100,60.059
1576860314.855618,184318.000,31250,1,H0,1,100,60.071
1576860314.980097,184423.000,31272,1,H0,1,100,60.059
1576860315.116431,184538.000,31292,1,H0,1,100,60.093
1576860315.252765,184653.000,31310,1,H0,1,100,60.090
1576860315.389099,184768.000,31327,1,H0,1,100,60.082
1576860315.515949,184875.000,31345,1,H0,1,100,60.097
1576860315.645170,184984.000,31363,1,H0,1,100,60.093
1576860315.775577,185094.000,31398,1,H0,1,100,60.109
1576860315.913096,185210.000,31416,1,H0,1,100,60.120
1576860316.049430,185325.000,31434,1,H0,1,100,60.116
1576860316.173909,185430.000,31452,1,H0,1,100,60.132
1576860316.304316,185540.000,31470,1,H0,1,100,60.128
1576860316.443021,185657.000,31488,1,H0,1,100,60.151
1576860316.579355,185772.000,31505,1,H0,1,100,60.124
1576860316.712133,185884.000,31523,1,H0,1,100,60.128
1576860316.837797,185990.000,31541,1,H0,1,100,60.151
1576860316.969389,186101.000,31576,1,H0,1,100,60.166
1576860317.108095,186218.000,31594,1,H0,1,100,60.154
1576860317.246800,186335.000,31612,1,H0,1,100,60.181
1576860317.371279,186440.000,31630,1,H0,1,100,60.177
1576860317.501685,186550.000,31648,1,H0,1,100,60.189
1576860317.629721,186658.000,31666,1,H0,1,100,60.193
1576860317.756571,186765.000,31684,1,H0,1,100,60.189
1576860317.888163,186876.000,31703,1,H0,1,100,60.196
1576860318.016199,186984.000,31720,1,H0,1,100,60.196
1576860318.144234,187092.000,31738,1,H0,1,100,60.208
1576860318.275826,187203.000,31756,1,H0,1,100,60.200
1576860318.410975,187317.000,31790,1,H0,1,100,60.204
1576860318.540196,187426.000,31808,1,H0,1,100,60.238
1576860318.677716,187542.000,31826,1,H0,1,100,60.242
1576860318.815235,187658.000,31845,1,H0,1,100,60.231
1576860318.946827,187769.000,31863,1,H0,1,100,60.250
1576860319.074863,187877.000,31881,1,H0,1,100,60.246
1576860319.208826,187990.000,31899,1,H0,1,100,60.238
1576860319.336862,188098.000,31916,1,H0,1,100,60.269
1576860319.474381,188214.000,31934,1,H0,1,100,60.269
1576860319.610715,188329.000,31968,1,H0,1,100,60.265
1576860319.743493,188441.000,31987,1,H0,1,100,60.269
1576860319.871528,188549.000,32005,1,H0,1,100,60.280
1576860320.004306,188661.000,32023,1,H0,1,100,60.292
1576860320.141826,188777.000,32041,1,H0,1,100,60.284
1576860320.278160,188892.000,32059,1,H0,1,100,60.292
1576860320.409752,189003.000,32076,1,H0,1,100,60.292
1576860320.533046,189107.000,32094,1,H0,1,100,60.311
1576860320.667009,189220.000,32112,1,H0,1,100,60.311
1576860320.805714,189337.000,32147,1,H0,1,100,60.307
1576860320.937306,189448.000,32168,2,H0,1,100,60.338
1576860321.068898,189559.000,32168,2,H0,1,100,60.334
1576860321.198119,189668.000,32187,1,H0,1,100,60.338
1576860321.330897,189780.000,32205,1,H0,1,100,60.322
1576860321.471973,189899.000,32239,1,H0,1,100,60.349
1576860321.605936,190012.000,32257,1,H0,1,100,60.357
1576860321.742270,190127.000,32276,1,H0,1,100,60.360
1576860321.880975,190244.000,32294,1,H0,1,100,60.357
1576860322.017309,190359.000,32312,1,H0,1,100,60.372
1576860322.156014,190476.000,32329,1,H0,1,100,60.364
1576860322.288792,190588.000,32347,1,H0,1,100,60.387
1576860322.418013,190697.000,32365,1,H0,1,100,60.391
1576860322.544863,190804.000,32382,1,H0,1,100,60.380
1576860322.676455,190915.000,32417,1,H0,1,100,60.376
1576860322.811604,191029.000,32436,1,H0,1,100,60.395
1576860322.945567,191142.000,32454,1,H0,1,100,60.402
1576860323.089014,191263.000,32472,1,H0,1,100,60.422
1576860323.228905,191381.000,32490,1,H0,1,100,60.406
1576860323.353384,191486.000,32507,1,H0,1,100,60.433
1576860323.483791,191596.000,32525,1,H0,1,100,60.429
1576860323.617754,191709.000,32543,1,H0,1,100,60.406
1576860323.750531,191821.000,32578,1,H0,1,100,60.444
1576860323.889236,191938.000,32596,1,H0,1,100,60.418
1576860324.016086,192045.000,32614,1,H0,1,100,60.441
1576860324.145308,192154.000,32632,1,H0,1,100,60.456
1576860324.279271,192267.000,32650,1,H0,1,100,60.463
1576860324.419161,192385.000,32668,1,H0,1,100,60.463
1576860324.550753,192496.000,32685,1,H0,1,100,60.452
1576860324.676418,192602.000,32703,1,H0,1,100,60.463
1576860324.808010,192713.000,32722,1,H0,1,100,60.471
1576860324.944344,192828.000,32756,1,H0,1,100,60.479
1576860325.081864,192944.000,32774,1,H0,1,100,60.486
1576860325.209899,193052.000,32792,1,H0,1,100,60.486
1576860325.336749,193159.000,32810,1,H0,1,100,60.494
1576860325.473083,193274.000,32828,1,H0,1,100,60.509
1576860325.608232,193388.000,32846,1,H0,1,100,60.498
1576860325.732711,193493.000,32864,1,H0,1,100,60.509
1576860325.869045,193608.000,32882,1,H0,1,100,60.505
1576860326.000637,193719.000,32900,1,H0,1,100,60.513
1576860326.134600,193832.000,32918,1,H0,1,100,60.547
1576860326.275677,193951.000,32952,1,H0,1,100,60.525
1576860326.412011,194066.000,32970,1,H0,1,100,60.528
1576860326.550716,194183.000,32988,1,H0,1,100,60.547
1576860326.677566,194290.000,33006,1,H0,1,100,60.540
1576860326.807973,194400.000,33025,1,H0,1,100,60.547
1576860326.939565,194511.000,33042,1,H0,1,100,60.544
1576860327.075899,194626.000,33063,1,H0,1,100,60.555
1576860327.212233,194741.000,33083,1,H0,1,100,60.559
1576860327.334341,194844.000,33101,1,H0,1,100,60.559
1576860327.467119,194956.000,33119,1,H0,1,100,60.578
1576860327.605824,195073.000,33137,1,H0,1,100,60.578
1576860327.742158,195188.000,33154,1,H0,1,100,60.582
1576860327.872564,195298.000,33173,1,H0,1,100,60.597
1576860328.000600,195406.000,33207,1,H0,1,100,60.582
1576860328.133378,195518.000,33225,1,H0,1,100,60.586
1576860328.272083,195635.000,33243,1,H0,1,100,60.612
1576860328.410788,195752.000,33261,1,H0,1,100,60.612
1576860328.535267,195857.000,33279,1,H0,1,100,60.605
1576860328.664488,195966.000,33297,1,H0,1,100,60.612
1576860328.797266,196078.000,33316,1,H0,1,100,60.628
1576860328.933600,196193.000,33333,1,H0,1,100,60.616
1576860329.075861,196313.000,33351,1,H0,1,100,60.624
1576860329.215752,196431.000,33385,1,H0,1,100,60.635
1576860329.352086,196546.000,33403,1,H0,1,100,60.608
1576860329.494348,196666.000,33421,1,H0,1,100,60.650
1576860329.633053,196783.000,33439,1,H0,1,100,60.654
1576860329.769387,196898.000,33456,1,H0,1,100,60.647
1576860329.909278,197016.000,33475,1,H0,1,100,60.658
1576860330.036128,197123.000,33509,1,H0,1,100,60.662
1576860330.170091,197236.000,33527,1,H0,1,100,60.666
1576860330.298127,197344.000,33545,1,H0,1,100,60.666
1576860330.432090,197457.000,33563,1,H0,1,100,60.666
1576860330.566053,197570.000,33581,1,H0,1,100,60.677
1576860330.707129,197689.000,33599,1,H0,1,100,60.669
1576860330.836350,197798.000,33618,1,H0,1,100,60.696
1576860330.959644,197902.000,33635,1,H0,1,100,60.696
1576860331.097163,198018.000,33653,1,H0,1,100,60.692
1576860331.235868,198135.000,33687,1,H0,1,100,60.711
1576860331.373388,198251.000,33705,1,H0,1,100,60.723
1576860331.497867,198356.000,33723,1,H0,1,100,60.708
1576860331.629459,198467.000,33741,1,H0,1,100,60.719
1576860331.766979,198583.000,33759,1,H0,1,100,60.719
1576860331.902128,198697.000,33778,1,H0,1,100,60.715
1576860332.036091,198810.000,33796,1,H0,1,100,60.730
1576860332.159384,198914.000,33813,1,H0,1,100,60.742
1576860332.294533,199028.000,33831,1,H0,1,100,60.742
1576860332.428496,199141.000,33849,1,H0,1,100,60.750
1576860332.566015,199257.000,33883,1,H0,1,100,60.750
1576860332.694051,199365.000,33901,1,H0,1,100,60.750
1576860332.825643,199476.000,33920,1,H0,1,100,60.761
1576860332.950122,199581.000,33938,1,H0,1,100,60.757
1576860333.081121,199691.500,33959,2,H0,1,100,60.772
1576860333.212121,199802.000,33959,2,H0,1,100,60.769
1576860333.336600,199907.000,33979,1,H0,1,100,60.792
1576860333.467006,200017.000,34013,1,H0,1,100,60.784
1576860333.593856,200124.000,34031,1,H0,1,100,60.784
1576860333.724263,200234.000,34050,1,H0,1,100,60.799
1576860333.866525,200354.000,34068,1,H0,1,100,60.792
1576860334.001673,200468.000,34086,1,H0,1,100,60.788
1576860334.135636,200581.000,34104,1,H0,1,100,60.799
1576860334.271971,200696.000,34121,1,H0,1,100,60.807
1576860334.400006,200804.000,34139,1,H0,1,100,60.811
1576860334.526856,200911.000,34157,1,H0,1,100,60.826
1576860334.664376,201027.000,34191,1,H0,1,100,60.845
1576860334.804266,201145.000,34210,1,H0,1,100,60.826
1576860334.929931,201251.000,34228,1,H0,1,100,60.837
1576860335.059152,201360.000,34246,1,H0,1,100,60.826
1576860335.193115,201473.000,34264,1,H0,1,100,60.841
1576860335.329449,201588.000,34282,1,H0,1,100,60.845
1576860335.466969,201704.000,34299,1,H0,1,100,60.830
1576860335.593819,201811.000,34317,1,H0,1,100,60.853
1576860335.720669,201918.000,34335,1,H0,1,100,60.872
1576860335.859374,202035.000,34370,1,H0,1,100,60.860
1576860335.995708,202150.000,34388,1,H0,1,100,60.864
1576860336.128486,202262.000,34406,1,H0,1,100,60.883
1576860336.252965,202367.000,34424,1,H0,1,100,60.868
1576860336.383371,202477.000,34442,1,H0,1,100,60.879
1576860336.519706,202592.000,34460,1,H0,1,100,60.910
1576860336.661967,202712.000,34477,1,H0,1,100,60.879
1576860336.800673,202829.000,34496,1,H0,1,100,60.891
1576860336.937007,202944.000,34530,1,H0,1,100,60.895
1576860337.078083,203063.000,34548,1,H0,1,100,60.887
1576860337.216788,203180.000,34566,1,H0,1,100,60.910
1576860337.353122,203295.000,34584,1,H0,1,100,60.902
1576860337.491827,203412.000,34601,1,H0,1,100,60.914
1576860337.624605,203524.000,34619,1,H0,1,100,60.902
1576860337.765681,203643.000,34637,1,H0,1,100,60.914
1576860337.895693,203752.667,34672,3,H0,1,100,60.917
1576860338.025704,203862.333,34672,3,H0,1,100,60.925
1576860338.155715,203972.000,34672,3,H0,1,100,60.948
1576860338.294420,204089.000,34690,1,H0,1,100,60.933
1576860338.430755,204204.000,34707,1,H0,1,100,60.929
1576860338.569460,204321.000,34725,1,H0,1,100,60.959
1576860338.699866,204431.000,34759,1,H0,1,100,60.933
1576860338.825531,204537.000,34778,1,H0,1,100,60.944
1576860338.955937,204647.000,34796,1,H0,1,100,60.952
1576860339.094643,204764.000,34817,2,H0,1,100,60.967
1576860339.233348,204881.000,34817,2,H0,1,100,60.963
1576860339.357827,204986.000,34837,1,H0,1,100,60.959
1576860339.485862,205094.000,34854,1,H0,1,100,60.948
1576860339.624568,205211.000,34872,1,H0,1,100,60.975
1576860339.760902,205326.000,34907,1,H0,1,100,60.971
1576860339.893679,205438.000,34925,1,H0,1,100,60.975
1576860340.020529,205545.000,34943,1,H0,1,100,60.975
1576860340.147379,205652.000,34961,1,H0,1,100,60.998
1576860340.286084,205769.000,34979,1,H0,1,100,60.978
1576860340.423604,205885.000,34997,1,H0,1,100,60.998
1576860340.551640,205993.000,35015,1,H0,1,100,61.005
1576860340.685603,206106.000,35032,1,H0,1,100,61.009
1576860340.813638,206214.000,35051,1,H0,1,100,60.998
1576860340.942859,206323.000,35069,1,H0,1,100,61.009
1576860341.072080,206432.000,35103,1,H0,1,100,61.013
1576860341.210786,206549.000,35121,1,H0,1,100,61.020
1576860341.340007,206658.000,35139,1,H0,1,100,61.028
1576860341.476341,206773.000,35157,1,H0,1,100,61.028
1576860341.610304,206886.000,35175,1,H0,1,100,61.032
1576860341.744267,206999.000,35193,1,H0,1,100,61.028
1576860341.885343,207118.000,35211,1,H0,1,100,61.039
1576860342.015750,207228.000,35229,1,H0,1,100,61.036
1576860342.153270,207344.000,35263,1,H0,1,100,61.039
1576860342.280119,207451.000,35281,1,H0,1,100,61.036
1576860342.411712,207562.000,35299,1,H0,1,100,61.051
1576860342.545675,207675.000,35317,1,H0,1,100,61.047
1576860342.684380,207792.000,35335,1,H0,1,100,61.078
1576860342.815972,207903.000,35354,1,H0,1,100,61.062
1576860342.938080,208006.000,35372,1,H0,1,100,61.081
1576860343.074414,208121.000,35389,1,H0,1,100,61.093
1576860343.213119,208238.000,35407,1,H0,1,100,61.074
1576860343.350639,208354.000,35441,1,H0,1,100,61.085
1576860343.476303,208460.000,35459,1,H0,1,100,61.093
1576860343.606710,208570.000,35477,1,H0,1,100,61.097
1576860343.740673,208683.000,35496,1,H0,1,100,61.093
1576860343.878193,208799.000,35514,1,H0,1,100,61.081
1576860344.013341,208913.000,35532,1,H0,1,100,61.108
1576860344.136635,209017.000,35550,1,H0,1,100,61.120
1576860344.269413,209129.000,35568,1,H0,1,100,61.112
1576860344.406932,209245.000,35585,1,H0,1,100,61.097
1576860344.539710,209357.000,35603,1,H0,1,100,61.104
1576860344.678415,209474.000,35637,1,H0,1,100,61.120
1576860344.815935,209590.000,35656,1,H0,1,100,61.116
1576860344.953454,209706.000,35674,1,H0,1,100,61.120
1576860345.095716,209826.000,35692,1,H0,1,100,61.127
1576860345.235607,209944.000,35713,1,H0,1,100,61.120
1576860345.373126,210060.000,35733,1,H0,1,100,61.142
1576860345.509460,210175.000,35751,1,H0,1,100,61.139
1576860345.636310,210282.000,35769,1,H0,1,100,61.131
1576860345.763160,210389.000,35787,1,H0,1,100,61.131
1576860345.903051,210507.000,35805,1,H0,1,100,61.154
1576860346.038200,210621.000,35823,1,H0,1,100,61.154
1576860346.172163,210734.000,35857,1,H0,1,100,61.158
1576860346.310868,210851.000,35875,1,H0,1,100,61.162
1576860346.436532,210957.000,35893,1,H0,1,100,61.146
1576860346.564568,211065.000,35911,1,H0,1,100,61.139
1576860346.700902,211180.000,35929,1,H0,1,100,61.162
1576860346.832890,211291.333,35948,3,H0,1,100,61.162
1576860346.964877,211402.667,35948,3,H0,1,100,61.158
1576860347.096864,211514.000,35948,3,H0,1,100,61.173
1576860347.232013,211628.000,35966,1,H0,1,100,61.184
1576860347.369532,211744.000,35983,1,H0,1,100,61.181
1576860347.505867,211859.000,36001,1,H0,1,100,61.188
1576860347.635087,211968.000,36019,1,H0,1,100,61.188
1576860347.758381,212072.000,36037,1,H0,1,100,61.207
1576860347.897086,212189.000,36072,1,H0,1,100,61.196
1576860348.031049,212302.000,36090,1,H0,1,100,61.200
1576860348.167383,212417.000,36108,1,H0,1,100,61.211
1576860348.294234,212524.000,36126,1,H0,1,100,61.215
1576860348.428197,212637.000,36144,1,H0,1,100,61.196
1576860348.553861,212743.000,36162,1,H0,1,100,61.196
1576860348.690195,212858.000,36179,1,H0,1,100,61.184
1576860348.824158,212971.000,36198,1,H0,1,100,61.219
1576860348.948637,213076.000,36216,1,H0,1,100,61.242
1576860349.083786,213190.000,36250,1,H0,1,100,61.238
1576860349.214193,213300.000,36268,1,H0,1,100,61.234
1576860349.346970,213412.000,36286,1,H0,1,100,61.215
1576860349.486861,213530.000,36304,1,H0,1,100,61.226
1576860349.622010,213644.000,36322,1,H0,1,100,61.234
1576860349.760715,213761.000,36340,1,H0,1,100,61.242
1576860349.891121,213871.000,36358,1,H0,1,100,61.253
1576860350.019157,213979.000,36376,1,H0,1,100,61.234
1576860350.149563,214089.000,36394,1,H0,1,100,61.245
1576860350.287083,214205.000,36428,1,H0,1,100,61.265
1576860350.426974,214323.000,36446,1,H0,1,100,61.242
1576860350.549082,214426.000,36464,1,H0,1,100,61.257
1576860350.679488,214536.000,36482,1,H0,1,100,61.268
1576860350.818193,214653.000,36501,1,H0,1,100,61.280
1576860350.954528,214768.000,36519,1,H0,1,100,61.249
1576860351.087305,214880.000,36536,1,H0,1,100,61.284
1576860351.214155,214987.000,36554,1,H0,1,100,61.280
1576860351.343376,215096.000,36575,1,H0,1,100,61.276
1576860351.482081,215213.000,36595,1,H0,1,100,61.261
1576860351.619601,215329.000,36613,1,H0,1,100,61.272
1576860351.747637,215437.000,36630,1,H0,1,100,61.284
1576860351.875672,215545.000,36649,1,H0,1,100,61.299
1576860352.007264,215656.000,36667,1,H0,1,100,61.284
1576860352.142413,215770.000,36701,1,H0,1,100,61.322
1576860352.283489,215889.000,36719,1,H0,1,100,61.295
1576860352.422194,216006.000,36737,1,H0,1,100,61.291
1576860352.558528,216121.000,36755,1,H0,1,100,61.322
1576860352.701976,216242.000,36772,1,H0,1,100,61.333
1576860352.840681,216359.000,36791,1,H0,1,100,61.303
1576860352.977015,216474.000,36825,1,H0,1,100,61.303
1576860353.118091,216593.000,36843,1,H0,1,100,61.314
1576860353.246127,216701.000,36861,1,H0,1,100,61.310
1576860353.383646,216817.000,36879,1,H0,1,100,61.329
1576860353.510496,216924.000,36897,1,H0,1,100,61.329
1576860353.642088,217035.000,36915,1,H0,1,100,61.326
1576860353.776052,217148.000,36932,1,H0,1,100,61.310
1576860353.917128,217267.000,36951,1,H0,1,100,61.333
1576860354.048720,217378.000,36985,1,H0,1,100,61.337
1576860354.170828,217481.000,37003,1,H0,1,100,61.337
1576860354.307162,217596.000,37021,1,H0,1,100,61.345
1576860354.443496,217711.000,37039,1,H0,1,100,61.337
1576860354.581016,217827.000,37057,1,H0,1,100,61.352
1576860354.706680,217933.000,37075,1,H0,1,100,61.352
1576860354.837087,218043.000,37094,1,H0,1,100,61.352
1576860354.971050,218156.000,37112,1,H0,1,100,61.364
1576860355.105013,218269.000,37129,1,H0,1,100,61.360
1576860355.242533,218385.000,37147,1,H0,1,100,61.345
1576860355.365826,218489.000,37165,1,H0,1,100,61.360
1576860355.498604,218601.000,37199,1,H0,1,100,61.375
1576860355.632567,218714.000,37217,1,H0,1,100,61.360
1576860355.768901,218829.000,37236,1,H0,1,100,61.383
1576860355.911163,218949.000,37254,1,H0,1,100,61.375
1576860356.048682,219065.000,37272,1,H0,1,100,61.379
1576860356.173162,219170.000,37289,1,H0,1,100,61.387
1576860356.303568,219280.000,37307,1,H0,1,100,61.371
1576860356.432789,219389.000,37325,1,H0,1,100,61.383
1576860356.557268,219494.000,37343,1,H0,1,100,61.383
1576860356.687675,219604.000,37377,1,H0,1,100,61.379
1576860356.816896,219713.000,37396,1,H0,1,100,61.406
1576860356.942560,219819.000,37414,1,H0,1,100,61.402
1576860357.071781,219928.000,37432,1,H0,1,100,61.410
1576860357.206930,220042.000,37450,1,H0,1,100,61.398
1576860357.340893,220155.000,37471,1,H0,1,100,61.398
1576860357.479598,220272.000,37491,1,H0,1,100,61.398
1576860357.607634,220380.000,37509,1,H0,1,100,61.421
1576860357.739226,220491.000,37528,1,H0,1,100,61.402
1576860357.867261,220599.000,37546,1,H0,1,100,61.413
1576860358.000039,220711.000,37564,1,H0,1,100,61.413
1576860358.132817,220823.000,37582,1,H0,1,100,61.406
1576860358.273893,220942.000,37600,1,H0,1,100,61.413
1576860358.400743,221049.000,37617,1,H0,1,100,61.436
1576860358.528778,221157.000,37635,1,H0,1,100,61.417
1576860358.663927,221271.000,37653,1,H0,1,100,61.432
1576860358.803818,221389.000,37688,1,H0,1,100,61.402
1576860358.937781,221502.000,37706,1,H0,1,100,61.429
1576860359.062260,221607.000,37724,1,H0,1,100,61.432
1576860359.195037,221719.000,37742,1,H0,1,100,61.413
1576860359.330186,221833.000,37760,1,H0,1,100,61.448
1576860359.467705,221949.000,37778,1,H0,1,100,61.440
1576860359.599298,222060.000,37795,1,H0,1,100,61.448
1576860359.721406,222163.000,37813,1,H0,1,100,61.455
1576860359.860111,222280.000,37832,1,H0,1,100,61.444
1576860359.997630,222396.000,37866,1,H0,1,100,61.471
1576860360.133965,222511.000,37884,1,H0,1,100,61.455
1576860360.276226,222631.000,37902,1,H0,1,100,61.448
1576860360.413746,222747.000,37920,1,H0,1,100,61.467
1576860360.548895,222861.000,37937,1,H0,1,100,61.471
1576860360.689971,222980.000,37955,1,H0,1,100,61.474
1576860360.826305,223095.000,37990,1,H0,1,100,61.455
1576860360.961454,223209.000,38008,1,H0,1,100,61.459
1576860361.091860,223319.000,38026,1,H0,1,100,61.459
1576860361.219896,223427.000,38044,1,H0,1,100,61.467
1576860361.352673,223539.000,38062,1,H0,1,100,61.463
1576860361.494935,223659.000,38080,1,H0,1,100,61.478
1576860361.631269,223774.000,38097,1,H0,1,100,61.478
1576860361.764047,223886.000,38115,1,H0,1,100,61.493
1576860361.898010,223999.000,38134,1,H0,1,100,61.490
1576860362.024860,224106.000,38168,1,H0,1,100,61.501
1576860362.151710,224213.000,38186,1,H0,1,100,61.474
1576860362.289230,224329.000,38204,1,H0,1,100,61.490
1576860362.430306,224448.000,38222,1,H0,1,100,61.486
1576860362.557156,224555.000,38240,1,H0,1,100,61.501
1576860362.682820,224661.000,38258,1,H0,1,100,61.505
1576860362.820340,224777.000,38277,1,H0,1,100,61.501
1576860362.956674,224892.000,38294,1,H0,1,100,61.501
1576860363.093008,225007.000,38312,1,H0,1,100,61.535
1576860363.218673,225113.000,38329,1,H0,1,100,61.497
1576860363.349672,225223.500,38367,2,H0,1,100,61.524
1576860363.480671,225334.000,38367,2,H0,1,100,61.513
1576860363.615820,225448.000,38386,1,H0,1,100,61.505
1576860363.747412,225559.000,38404,1,H0,1,100,61.509
1576860363.884932,225675.000,38423,1,H0,1,100,61.532
1576860364.012967,225783.000,38457,1,H0,1,100,61.524
1576860364.144559,225894.000,38475,1,H0,1,100,61.539
1576860364.279708,226008.000,38493,1,H0,1,100,61.516
1576860364.406558,226115.000,38511,1,H0,1,100,61.535
1576860364.540521,226228.000,38529,1,H0,1,100,61.509
1576860364.667371,226335.000,38547,1,H0,1,100,61.528
1576860364.798963,226446.000,38566,1,H0,1,100,61.539
1576860364.932926,226559.000,38583,1,H0,1,100,61.516
1576860365.075188,226679.000,38601,1,H0,1,100,61.554
1576860365.212708,226795.000,38635,1,H0,1,100,61.543
1576860365.350227,226911.000,38653,1,H0,1,100,61.535
1576860365.477077,227018.000,38671,1,H0,1,100,61.513
1576860365.606298,227127.000,38689,1,H0,1,100,61.543
1576860365.739076,227239.000,38707,1,H0,1,100,61.558
1576860365.876596,227355.000,38726,1,H0,1,100,61.558
1576860366.011744,227469.000,38743,1,H0,1,100,61.539
1576860366.136223,227574.000,38761,1,H0,1,100,61.551
1576860366.267816,227685.000,38779,1,H0,1,100,61.566
1576860366.406521,227802.000,38813,1,H0,1,100,61.566
1576860366.542855,227917.000,38831,1,H0,1,100,61.554
1576860366.672076,228026.000,38849,1,H0,1,100,61.558
1576860366.800112,228134.000,38868,1,H0,1,100,61.554
1576860366.931704,228245.000,38886,1,H0,1,100,61.554
1576860367.070409,228362.000,38904,1,H0,1,100,61.566
1576860367.207928,228478.000,38921,1,H0,1,100,61.566
1576860367.331222,228582.000,38939,1,H0,1,100,61.547
1576860367.460443,228691.000,38957,1,H0,1,100,61.562
1576860367.586107,228797.000,38975,1,H0,1,100,61.558
1576860367.718885,228909.000,39010,1,H0,1,100,61.581
1576860367.859961,229028.000,39028,1,H0,1,100,61.585
1576860367.998666,229145.000,39046,1,H0,1,100,61.589
1576860368.130259,229256.000,39064,1,H0,1,100,61.589
1576860368.270149,229374.000,39082,1,H0,1,100,61.593
1576860368.406483,229489.000,39099,1,H0,1,100,61.574
1576860368.540446,229602.000,39117,1,H0,1,100,61.581
1576860368.677966,229718.000,39151,1,H0,1,100,61.596
1576860368.804816,229825.000,39170,1,H0,1,100,61.600
1576860368.936408,229936.000,39188,1,H0,1,100,61.596
1576860369.064444,230044.000,39206,1,H0,1,100,61.593
1576860369.198407,230157.000,39224,1,H0,1,100,61.604
1576860369.331184,230269.000,39242,1,H0,1,100,61.593
1576860369.472261,230388.000,39263,1,H0,1,100,61.608
1576860369.600296,230496.000,39283,1,H0,1,100,61.589
1576860369.723590,230600.000,39302,1,H0,1,100,61.612
1576860369.861109,230716.000,39320,1,H0,1,100,61.593
1576860369.999815,230833.000,39338,1,H0,1,100,61.616
1576860370.133778,230946.000,39356,1,H0,1,100,61.600
1576860370.258257,231051.000,39374,1,H0,1,100,61.612
1576860370.391034,231163.000,39391,1,H0,1,100,61.604
1576860370.528554,231279.000,39409,1,H0,1,100,61.623
1576860370.666074,231395.000,39443,1,H0,1,100,61.596
1576860370.797666,231506.000,39462,1,H0,1,100,61.600
1576860370.919774,231609.000,39480,1,H0,1,100,61.616
1576860371.057293,231725.000,39498,1,H0,1,100,61.608
1576860371.191256,231838.000,39516,1,H0,1,100,61.608
1576860371.328776,231954.000,39534,1,H0,1,100,61.623
1576860371.465110,232069.000,39551,1,H0,1,100,61.608
1576860371.599073,232182.000,39569,1,H0,1,100,61.619
1576860371.736593,232298.000,39587,1,H0,1,100,61.627
1576860371.872927,232413.000,39622,1,H0,1,100,61.616
1576860372.008076,232527.000,39640,1,H0,1,100,61.616
1576860372.146781,232644.000,39658,1,H0,1,100,61.623
1576860372.277187,232754.000,39676,1,H0,1,100,61.616
1576860372.407594,232864.000,39694,1,H0,1,100,61.635
1576860372.534444,232971.000,39712,1,H0,1,100,61.619
1576860372.666036,233082.000,39729,1,H0,1,100,61.627
1576860372.802370,233197.000,39748,1,H0,1,100,61.619
1576860372.936333,233310.000,39782,1,H0,1,100,61.631
1576860373.070297,233423.000,39800,1,H0,1,100,61.635
1576860373.197146,233530.000,39818,1,H0,1,100,61.642
1576860373.323997,233637.000,39836,1,H0,1,100,61.650
1576860373.461516,233753.000,39854,1,H0,1,100,61.635
1576860373.602592,233872.000,39872,1,H0,1,100,61.631
1576860373.729442,233979.000,39890,1,H0,1,100,61.635
1576860373.855107,234085.000,39908,1,H0,1,100,61.635
1576860373.992627,234201.000,39926,1,H0,1,100,61.646
1576860374.128961,234316.000,39944,1,H0,1,100,61.654
1576860374.265295,234431.000,39978,1,H0,1,100,61.650
1576860374.392145,234538.000,39996,1,H0,1,100,61.646
1576860374.516624,234643.000,40014,1,H0,1,100,61.654
1576860374.654144,234759.000,40032,1,H0,1,100,61.650
1576860374.789292,234873.000,40051,1,H0,1,100,61.654
1576860374.920884,234984.000,40069,1,H0,1,100,61.657
1576860375.048920,235092.000,40087,1,H0,1,100,61.661
1576860375.186440,235208.000,40104,1,H0,1,100,61.646
1576860375.312104,235314.000,40122,1,H0,1,100,61.665
1576860375.448438,235429.000,40159,2,H0,1,100,61.657
1576860375.584772,235544.000,40159,2,H0,1,100,61.650
1576860375.710437,235650.000,40179,1,H0,1,100,61.616
1576860375.846771,235765.000,40197,1,H0,1,100,61.650
1576860375.978363,235876.000,40215,1,H0,1,100,61.673
1576860376.112326,235989.000,40233,1,H0,1,100,61.680
1576860376.254588,236109.000,40267,1,H0,1,100,61.677
1576860376.392107,236225.000,40285,1,H0,1,100,61.673
1576860376.529627,236341.000,40303,1,H0,1,100,61.657
1576860376.656477,236448.000,40321,1,H0,1,100,61.677
1576860376.786884,236558.000,40340,1,H0,1,100,61.673
1576860376.918476,236669.000,40358,1,H0,1,100,61.680
1576860377.054810,236784.000,40375,1,H0,1,100,61.673
1576860377.189959,236898.000,40393,1,H0,1,100,61.673
1576860377.312067,237001.000,40411,1,H0,1,100,61.669
1576860377.446030,237114.000,40445,1,H0,1,100,61.677
1576860377.584735,237231.000,40463,1,H0,1,100,61.677
1576860377.721069,237346.000,40482,1,H0,1,100,61.669
1576860377.850290,237455.000,40500,1,H0,1,100,61.696
1576860377.979511,237564.000,40518,1,H0,1,100,61.665
1576860378.112289,237676.000,40536,1,H0,1,100,61.677
1576860378.250994,237793.000,40553,1,H0,1,100,61.688
1576860378.388514,237909.000,40571,1,H0,1,100,61.677
1576860378.511807,238013.000,40589,1,H0,1,100,61.677
1576860378.642214,238123.000,40623,1,H0,1,100,61.669
1576860378.774991,238235.000,40642,1,H0,1,100,61.680
1576860378.911325,238350.000,40660,1,H0,1,100,61.688
1576860379.053587,238470.000,40678,1,H0,1,100,61.680
1576860379.193478,238588.000,40696,1,H0,1,100,61.688
1576860379.329812,238703.000,40713,1,H0,1,100,61.699
1576860379.472074,238823.000,40747,1,H0,1,100,61.680
1576860379.611964,238941.000,40765,1,H0,1,100,61.677
1576860379.748298,239056.000,40784,1,H0,1,100,61.719
1576860379.890560,239176.000,40802,1,H0,1,100,61.707
1576860380.028080,239292.000,40820,1,H0,1,100,61.707
1576860380.157301,239401.000,40837,1,H0,1,100,61.684
1576860380.285336,239509.000,40855,1,H0,1,100,61.703
1576860380.419300,239622.000,40873,1,H0,1,100,61.703
1576860380.552077,239734.000,40907,1,H0,1,100,61.692
1576860380.695524,239855.000,40925,1,H0,1,100,61.677
1576860380.833044,239971.000,40944,1,H0,1,100,61.688
1576860380.964636,240082.000,40962,1,H0,1,100,61.715
1576860381.093857,240191.000,40980,1,H0,1,100,61.715
1576860381.224264,240301.000,40998,1,H0,1,100,61.703
1576860381.358227,240414.000,41015,1,H0,1,100,61.703
1576860381.496932,240531.000,41033,1,H0,1,100,61.699
1576860381.628524,240642.000,41054,1,H0,1,100,61.699
1576860381.753003,240747.000,41074,1,H0,1,100,61.707
1576860381.888152,240861.000,41093,1,H0,1,100,61.715
1576860382.026857,240978.000,41110,1,H0,1,100,61.711
1576860382.163191,241093.000,41128,1,H0,1,100,61.684
1576860382.287670,241198.000,41146,1,H0,1,100,61.719
1576860382.416891,241307.000,41180,1,H0,1,100,61.703
1576860382.552040,241421.000,41198,1,H0,1,100,61.726
1576860382.689559,241537.000,41216,1,H0,1,100,61.719
1576860382.823523,241650.000,41235,1,H0,1,100,61.715
1576860382.946816,241754.000,41253,1,H0,1,100,61.707
1576860383.080779,241867.000,41271,1,H0,1,100,61.730
1576860383.212371,241978.000,41289,1,H0,1,100,61.715
1576860383.336850,242083.000,41306,1,H0,1,100,61.692
1576860383.469628,242195.000,41324,1,H0,1,100,61.722
1576860383.600034,242305.000,41342,1,H0,1,100,61.715
1576860383.724513,242410.000,41360,1,H0,1,100,61.711
1576860383.857291,242522.000,41395,1,H0,1,100,61.696
1576860383.993625,242637.000,41413,1,H0,1,100,61.703
1576860384.127588,242750.000,41431,1,H0,1,100,61.703
1576860384.269850,242870.000,41449,1,H0,1,100,61.719
1576860384.409741,242988.000,41467,1,H0,1,100,61.711
1576860384.534220,243093.000,41485,1,H0,1,100,61.722
1576860384.664626,243203.000,41502,1,H0,1,100,61.707
1576860384.798589,243316.000,41521,1,H0,1,100,61.699
1576860384.932552,243429.000,41555,1,H0,1,100,61.734
1576860385.070072,243545.000,41573,1,H0,1,100,61.726
1576860385.196922,243652.000,41591,1,H0,1,100,61.741
1576860385.326143,243761.000,41609,1,H0,1,100,61.730
1576860385.461292,243875.000,41627,1,H0,1,100,61.730
1576860385.601182,243993.000,41645,1,H0,1,100,61.722
1576860385.731589,244103.000,41663,1,H0,1,100,61.719
1576860385.857254,244209.000,41681,1,H0,1,100,61.715
1576860385.993588,244324.000,41699,1,H0,1,100,61.722
1576860386.129922,244439.000,41733,1,H0,1,100,61.734
1576860386.267442,244555.000,41751,1,H0,1,100,61.726
1576860386.393106,244661.000,41769,1,H0,1,100,61.745
1576860386.516399,244765.000,41787,1,H0,1,100,61.730
1576860386.655105,244882.000,41805,1,H0,1,100,61.738
1576860386.793810,244999.000,41824,1,H0,1,100,61.711
1576860386.930144,245114.000,41841,1,H0,1,100,61.722
1576860387.072406,245234.000,41859,1,H0,1,100,61.730
1576860387.211111,245351.000,41893,1,H0,1,100,61.726
1576860387.347445,245466.000,41911,1,H0,1,100,61.741
1576860387.489707,245586.000,41929,1,H0,1,100,61.741
1576860387.627226,245702.000,41950,1,H0,1,100,61.715
1576860387.764746,245818.000,41971,1,H0,1,100,61.749
1576860387.891596,245925.000,41989,1,H0,1,100,61.749
1576860388.025559,246038.000,42007,1,H0,1,100,61.741
1576860388.152409,246145.000,42025,1,H0,1,100,61.726
1576860388.287558,246259.000,42043,1,H0,1,100,61.753
1576860388.423892,246374.000,42061,1,H0,1,100,61.738
1576860388.561412,246490.000,42078,1,H0,1,100,61.741
1576860388.690633,246599.000,42096,1,H0,1,100,61.722
1576860388.819854,246708.000,42114,1,H0,1,100,61.730
1576860388.949075,246817.000,42149,1,H0,1,100,61.741
1576860389.086594,246933.000,42167,1,H0,1,100,61.734
1576860389.225300,247050.000,42185,1,H0,1,100,61.741
1576860389.349779,247155.000,42203,1,H0,1,100,61.741
1576860389.479000,247264.000,42221,1,H0,1,100,61.734
1576860389.617705,247381.000,42239,1,H0,1,100,61.745
1576860389.754039,247496.000,42256,1,H0,1,100,61.745
1576860389.886817,247608.000,42275,1,H0,1,100,61.760
1576860390.013667,247715.000,42293,1,H0,1,100,61.738
1576860390.141702,247823.000,42311,1,H0,1,100,61.753
1576860390.280407,247940.000,42345,1,H0,1,100,61.730
1576860390.417927,248056.000,42363,1,H0,1,100,61.734
1576860390.544777,248163.000,42381,1,H0,1,100,61.730
1576860390.677555,248275.000,42399,1,H0,1,100,61.730
1576860390.805590,248383.000,42418,1,H0,1,100,61.738
1576860390.933626,248491.000,42436,1,H0,1,100,61.741
1576860391.067589,248604.000,42454,1,H0,1,100,61.749
1576860391.194439,248711.000,42471,1,H0,1,100,61.734
1576860391.322474,248819.000,42489,1,H0,1,100,61.753
1576860391.449324,248926.000,42507,1,H0,1,100,61.745
1576860391.588030,249043.000,42541,1,H0,1,100,61.753
1576860391.716065,249151.000,42560,1,H0,1,100,61.753
1576860391.854770,249268.000,42578,1,H0,1,100,61.741
1576860391.992290,249384.000,42596,1,H0,1,100,61.745
1576860392.125067,249496.000,42614,1,H0,1,100,61.726
1576860392.263773,249613.000,42631,1,H0,1,100,61.741
1576860392.391808,249721.000,42649,1,H0,1,100,61.753
1576860392.516287,249826.000,42667,1,H0,1,100,61.741
1576860392.652622,249941.000,42685,1,H0,1,100,61.760
1576860392.790141,250057.000,42720,1,H0,1,100,61.745
1576860392.924104,250170.000,42738,1,H0,1,100,61.749
1576860393.050954,250277.000,42756,1,H0,1,100,61.760
1576860393.182546,250388.000,42774,1,H0,1,100,61.749
1576860393.318881,250503.000,42792,1,H0,1,100,61.768
1576860393.454029,250617.000,42810,1,H0,1,100,61.772
1576860393.587992,250730.000,42827,1,H0,1,100,61.749
1576860393.712471,250835.000,42848,1,H0,1,100,61.757
1576860393.849991,250951.000,42867,1,H0,1,100,61.757
1576860393.983954,251064.000,42887,1,H0,1,100,61.776
1576860394.121474,251180.000,42905,1,H0,1,100,61.745
1576860394.248324,251287.000,42923,1,H0,1,100,61.757
1576860394.376359,251395.000,42940,1,H0,1,100,61.753
1576860394.510322,251508.000,42958,1,H0,1,100,61.772
1576860394.652584,251628.000,42992,1,H0,1,100,61.768
1576860394.791289,251745.000,43011,1,H0,1,100,61.772
1576860394.925252,251858.000,43029,1,H0,1,100,61.745
1576860395.067514,251978.000,43047,1,H0,1,100,61.780
1576860395.206219,252095.000,43065,1,H0,1,100,61.753
1576860395.340182,252208.000,43082,1,H0,1,100,61.780
1576860395.478888,252325.000,43100,1,H0,1,100,61.760
1576860395.618778,252443.000,43134,1,H0,1,100,61.768
1576860395.743257,252548.000,43153,1,H0,1,100,61.768
1576860395.874849,252659.000,43171,1,H0,1,100,61.753
1576860396.002885,252767.000,43189,1,H0,1,100,61.760
1576860396.129735,252874.000,43207,1,H0,1,100,61.753
1576860396.268440,252991.000,43225,1,H0,1,100,61.757
1576860396.408331,253109.000,43242,1,H0,1,100,61.772
1576860396.535181,253216.000,43260,1,H0,1,100,61.772
1576860396.664402,253325.000,43278,1,H0,1,100,61.764
1576860396.799550,253439.000,43313,1,H0,1,100,61.753
1576860396.935884,253554.000,43331,1,H0,1,100,61.760
1576860397.072219,253669.000,43349,1,H0,1,100,61.772
1576860397.199069,253776.000,43367,1,H0,1,100,61.783
1576860397.327104,253884.000,43385,1,H0,1,100,61.768
1576860397.462253,253998.000,43403,1,H0,1,100,61.791
1576860397.602144,254116.000,43420,1,H0,1,100,61.760
1576860397.734921,254228.000,43438,1,H0,1,100,61.764
1576860397.859400,254333.000,43457,1,H0,1,100,61.772
1576860397.989807,254443.000,43475,1,H0,1,100,61.764
1576860398.126141,254558.000,43509,1,H0,1,100,61.768
1576860398.264846,254675.000,43527,1,H0,1,100,61.772
1576860398.394067,254784.000,43545,1,H0,1,100,61.760
1576860398.530401,254899.000,43563,1,H0,1,100,61.749
1576860398.665550,255013.000,43581,1,H0,1,100,61.787
1576860398.795956,255123.000,43600,1,H0,1,100,61.764
1576860398.932291,255238.000,43617,1,H0,1,100,61.768
1576860399.066254,255351.000,43635,1,H0,1,100,61.772
1576860399.197846,255462.000,43669,1,H0,1,100,61.772
1576860399.322325,255567.000,43687,1,H0,1,100,61.764
1576860399.458659,255682.000,43705,1,H0,1,100,61.753
1576860399.596179,255798.000,43723,1,H0,1,100,61.768
1576860399.731327,255912.000,43744,1,H0,1,100,61.764
1576860399.871218,256030.000,43765,1,H0,1,100,61.749
1576860400.006366,256144.000,43783,1,H0,1,100,61.783
1576860400.129660,256248.000,43801,1,H0,1,100,61.753
1576860400.262438,256360.000,43819,1,H0,1,100,61.760
1576860400.398772,256475.000,43837,1,H0,1,100,61.787
1576860400.531549,256587.000,43855,1,H0,1,100,61.772
1576860400.664327,256699.000,43872,1,H0,1,100,61.772
1576860400.792362,256807.000,43891,1,H0,1,100,61.764
1576860400.925140,256919.000,43909,1,H0,1,100,61.764
1576860401.060289,257033.000,43943,1,H0,1,100,61.783
1576860401.202550,257153.000,43961,1,H0,1,100,61.764
1576860401.327029,257258.000,43979,1,H0,1,100,61.760
1576860401.456250,257367.000,43997,1,H0,1,100,61.780
1576860401.589028,257479.000,44015,1,H0,1,100,61.780
1576860401.724177,257593.000,44033,1,H0,1,100,61.772
1576860401.859325,257707.000,44052,1,H0,1,100,61.772
1576860401.987361,257815.000,44069,1,H0,1,100,61.764
1576860402.115396,257923.000,44087,1,H0,1,100,61.760
1576860402.244617,258032.000,44105,1,H0,1,100,61.745
1576860402.383323,258149.000,44139,1,H0,1,100,61.753
1576860402.514915,258260.000,44157,1,H0,1,100,61.753
1576860402.651249,258375.000,44175,1,H0,1,100,61.753
1576860402.789954,258492.000,44194,1,H0,1,100,61.753
1576860402.915619,258598.000,44212,1,H0,1,100,61.753
1576860403.051953,258713.000,44230,1,H0,1,100,61.764
1576860403.187101,258827.000,44247,1,H0,1,100,61.768
1576860403.321064,258940.000,44265,1,H0,1,100,61.757
1576860403.462141,259059.000,44299,1,H0,1,100,61.760
1576860403.591362,259168.000,44317,1,H0,1,100,61.768
1576860403.717026,259274.000,44336,1,H0,1,100,61.738
1576860403.854546,259390.000,44354,1,H0,1,100,61.760
1576860403.986138,259501.000,44372,1,H0,1,100,61.760
1576860404.120101,259614.000,44390,1,H0,1,100,61.768
1576860404.258806,259731.000,44407,1,H0,1,100,61.753
1576860404.390398,259842.000,44425,1,H0,1,100,61.760
1576860404.512506,259945.000,44443,1,H0,1,100,61.768
1576860404.650026,260061.000,44461,1,H0,1,100,61.726
1576860404.788731,260178.000,44496,1,H0,1,100,61.741
1576860404.926251,260294.000,44514,1,H0,1,100,61.772
1576860405.050730,260399.000,44532,1,H0,1,100,61.741
1576860405.181136,260509.000,44550,1,H0,1,100,61.753
1576860405.316285,260623.000,44568,1,H0,1,100,61.760
1576860405.453805,260739.000,44586,1,H0,1,100,61.749
1576860405.588953,260853.000,44603,1,H0,1,100,61.764
1576860405.712247,260957.000,44621,1,H0,1,100,61.734
1576860405.846210,261070.000,44643,1,H0,1,100,61.768
1576860405.983730,261186.000,44663,1,H0,1,100,61.757
1576860406.116507,261298.000,44681,1,H0,1,100,61.749
1576860406.258769,261418.000,44698,1,H0,1,100,61.741
1576860406.392732,261531.000,44716,1,H0,1,100,61.757
1576860406.529066,261646.000,44750,1,H0,1,100,61.757
1576860406.670142,261765.000,44768,1,H0,1,100,61.753
1576860406.808847,261882.000,44787,1,H0,1,100,61.734
1576860406.946367,261998.000,44805,1,H0,1,100,61.741
1576860407.081516,262112.000,44822,1,H0,1,100,61.734
1576860407.210737,262221.000,44840,1,H0,1,100,61.741
1576860407.338772,262329.000,44858,1,H0,1,100,61.734
1576860407.467993,262438.000,44876,1,H0,1,100,61.734
1576860407.603142,262552.000,44910,1,H0,1,100,61.726
1576860407.735920,262664.000,44929,1,H0,1,100,61.730
1576860407.879367,262785.000,44947,1,H0,1,100,61.738
1576860408.018072,262902.000,44965,1,H0,1,100,61.726
1576860408.146108,263010.000,44983,1,H0,1,100,61.734
1576860408.276514,263120.000,45001,1,H0,1,100,61.745
1576860408.409292,263232.000,45018,1,H0,1,100,61.722
1576860408.542069,263344.000,45036,1,H0,1,100,61.726
1576860408.681960,263462.000,45070,1,H0,1,100,61.730
1576860408.808810,263569.000,45089,1,H0,1,100,61.726
1576860408.936846,263677.000,45107,1,H0,1,100,61.730
1576860409.071994,263791.000,45125,1,H0,1,100,61.738
1576860409.211885,263909.000,45143,1,H0,1,100,61.730
1576860409.345848,264022.000,45161,1,H0,1,100,61.715
1576860409.470327,264127.000,45179,1,H0,1,100,61.722
1576860409.600734,264237.000,45196,1,H0,1,100,61.711
1576860409.737068,264352.000,45214,1,H0,1,100,61.707
1576860409.874588,264468.000,45249,1,H0,1,100,61.730
1576860410.007365,264580.000,45267,1,H0,1,100,61.719
1576860410.146070,264697.000,45285,1,H0,1,100,61.711
1576860410.281219,264811.000,45303,1,H0,1,100,61.715
1576860410.408069,264918.000,45321,1,H0,1,100,61.715
1576860410.534919,265025.000,45339,1,H0,1,100,61.707
1576860410.672439,265141.000,45357,1,H0,1,100,61.719
1576860410.806402,265254.000,45375,1,H0,1,100,61.722
1576860410.933252,265361.000,45393,1,H0,1,100,61.734
1576860411.068400,265475.000,45427,1,H0,1,100,61.726
1576860411.204735,265590.000,45445,1,H0,1,100,61.722
1576860411.339883,265704.000,45463,1,H0,1,100,61.699
1576860411.477403,265820.000,45481,1,H0,1,100,61.696
1576860411.613737,265935.000,45499,1,H0,1,100,61.703
1576860411.737030,266039.000,45517,1,H0,1,100,61.684
1576860411.868623,266150.000,45539,1,H0,1,100,61.707
1576860412.003771,266264.000,45559,1,H0,1,100,61.722
1576860412.137734,266377.000,45577,1,H0,1,100,61.719
1576860412.271697,266490.000,45595,1,H0,1,100,61.688
1576860412.398547,266597.000,45613,1,H0,1,100,61.711
1576860412.531325,266709.000,45631,1,H0,1,100,61.696
1576860412.666474,266823.000,45648,1,H0,1,100,61.719
1576860412.807550,266942.000,45666,1,H0,1,100,61.696
1576860412.933214,267048.000,45701,1,H0,1,100,61.684
1576860413.062435,267157.000,45719,1,H0,1,100,61.696
1576860413.196398,267270.000,45737,1,H0,1,100,61.696
1576860413.332733,267385.000,45755,1,H0,1,100,61.684
1576860413.469067,267500.000,45773,1,H0,1,100,61.703
1576860413.594731,267606.000,45791,1,H0,1,100,61.699
1576860413.720396,267712.000,45809,1,H0,1,100,61.684
1576860413.856730,267827.000,45827,1,H0,1,100,61.692
1576860413.993064,267942.000,45845,1,H0,1,100,61.703
1576860414.118729,268048.000,45863,1,H0,1,100,61.688
1576860414.253877,268162.000,45897,1,H0,1,100,61.699
1576860414.392582,268279.000,45915,1,H0,1,100,61.688
1576860414.520618,268387.000,45933,1,H0,1,100,61.688
1576860414.660509,268505.000,45951,1,H0,1,100,61.692
1576860414.798028,268621.000,45970,1,H0,1,100,61.680
1576860414.930806,268733.000,45988,1,H0,1,100,61.688
1576860415.068326,268849.000,46005,1,H0,1,100,61.677
1576860415.197546,268958.000,46023,1,H0,1,100,61.665
1576860415.322026,269063.000,46041,1,H0,1,100,61.677
1576860415.459545,269179.000,46075,1,H0,1,100,61.684
1576860415.597065,269295.000,46093,1,H0,1,100,61.684
1576860415.733399,269410.000,46111,1,H0,1,100,61.673
1576860415.872104,269527.000,46130,1,H0,1,100,61.654
1576860416.003696,269638.000,46148,1,H0,1,100,61.661
1576860416.126990,269742.000,46166,1,H0,1,100,61.661
1576860416.262138,269856.000,46183,1,H0,1,100,61.669
1576860416.398473,269971.000,46201,1,H0,1,100,61.665
1576860416.535992,270087.000,46235,1,H0,1,100,61.665
1576860416.661657,270193.000,46253,1,H0,1,100,61.677
1576860416.792063,270303.000,46272,1,H0,1,100,61.650
1576860416.926026,270416.000,46290,1,H0,1,100,61.650
1576860417.063546,270532.000,46308,1,H0,1,100,61.673
1576860417.198695,270646.000,46326,1,H0,1,100,61.646
1576860417.321988,270750.000,46344,1,H0,1,100,61.646
1576860417.454766,270862.000,46361,1,H0,1,100,61.684
1576860417.588729,270975.000,46379,1,H0,1,100,61.650
1576860417.723877,271089.000,46414,1,H0,1,100,61.650
1576860417.864361,271207.500,46435,2,H0,1,100,61.654
1576860418.004844,271326.000,46435,2,H0,1,100,61.669
1576860418.142364,271442.000,46455,1,H0,1,100,61.631
1576860418.284626,271562.000,46489,1,H0,1,100,61.646
1576860418.424516,271680.000,46507,1,H0,1,100,61.654
1576860418.562036,271796.000,46525,1,H0,1,100,61.657
1576860418.695999,271909.000,46543,1,H0,1,100,61.631
1576860418.822849,272016.000,46562,1,H0,1,100,61.642
1576860418.949699,272123.000,46579,1,H0,1,100,61.627
1576860419.088404,272240.000,46597,1,H0,1,100,61.638
1576860419.228295,272358.000,46631,1,H0,1,100,61.638
1576860419.364629,272473.000,46649,1,H0,1,100,61.631
1576860419.503335,272590.000,46667,1,H0,1,100,61.619
1576860419.628999,272696.000,46685,1,H0,1,100,61.631
1576860419.754663,272802.000,46703,1,H0,1,100,61.631
1576860419.890998,272917.000,46722,1,H0,1,100,61.619
1576860420.029703,273034.000,46739,1,H0,1,100,61.623
1576860420.160109,273144.000,46757,1,H0,1,100,61.627
1576860420.288145,273252.000,46775,1,H0,1,100,61.616
1576860420.423294,273366.000,46809,1,H0,1,100,61.612
1576860420.560813,273482.000,46827,1,H0,1,100,61.616
1576860420.697147,273597.000,46845,1,H0,1,100,61.612
1576860420.826368,273706.000,46864,1,H0,1,100,61.619
1576860420.952033,273812.000,46882,1,H0,1,100,61.604
1576860421.090738,273929.000,46900,1,H0,1,100,61.608
1576860421.225887,274043.000,46917,1,H0,1,100,61.612
1576860421.363406,274159.000,46935,1,H0,1,100,61.593
1576860421.487885,274264.000,46953,1,H0,1,100,61.593
1576860421.621848,274377.000,46987,1,H0,1,100,61.604
1576860421.746327,274482.000,47006,1,H0,1,100,61.623
1576860421.881476,274596.000,47024,1,H0,1,100,61.593
1576860422.015439,274709.000,47042,1,H0,1,100,61.589
1576860422.139918,274814.000,47060,1,H0,1,100,61.585
1576860422.275067,274928.000,47078,1,H0,1,100,61.577
1576860422.404288,275037.000,47096,1,H0,1,100,61.593
1576860422.539437,275151.000,47114,1,H0,1,100,61.589
1576860422.678142,275268.000,47131,1,H0,1,100,61.574
1576860422.813290,275382.000,47149,1,H0,1,100,61.585
1576860422.951995,275499.000,47184,1,H0,1,100,61.566
1576860423.083588,275610.000,47202,1,H0,1,100,61.581
1576860423.211623,275718.000,47220,1,H0,1,100,61.566
1576860423.342030,275828.000,47238,1,H0,1,100,61.566
1576860423.483106,275947.000,47256,1,H0,1,100,61.566
1576860423.618254,276061.000,47274,1,H0,1,100,61.543
1576860423.751032,276173.000,47291,1,H0,1,100,61.551
1576860423.886181,276287.000,47310,1,H0,1,100,61.539
1576860424.011845,276393.000,47331,1,H0,1,100,61.562
1576860424.141066,276502.000,47351,1,H0,1,100,61.554
1576860424.278586,276618.000,47369,1,H0,1,100,61.535
1576860424.419662,276737.000,47386,1,H0,1,100,61.547
1576860424.546512,276844.000,47404,1,H0,1,100,61.551
1576860424.673362,276951.000,47422,1,H0,1,100,61.551
1576860424.810882,277067.000,47457,1,H0,1,100,61.551
1576860424.947216,277182.000,47475,1,H0,1,100,61.524
1576860425.084736,277298.000,47493,1,H0,1,100,61.539
1576860425.210400,277404.000,47511,1,H0,1,100,61.535
1576860425.334879,277509.000,47529,1,H0,1,100,61.539
1576860425.473584,277626.000,47547,1,H0,1,100,61.535
1576860425.612289,277743.000,47564,1,H0,1,100,61.524
1576860425.748624,277858.000,47582,1,H0,1,100,61.524
1576860425.890885,277978.000,47617,1,H0,1,100,61.524
1576860426.029591,278095.000,47635,1,H0,1,100,61.505
1576860426.165925,278210.000,47653,1,H0,1,100,61.493
1576860426.307001,278329.000,47671,1,H0,1,100,61.524
1576860426.435036,278437.000,47689,1,H0,1,100,61.516
1576860426.572556,278553.000,47706,1,H0,1,100,61.513
1576860426.699406,278660.000,47724,1,H0,1,100,61.493
1576860426.830998,278771.000,47743,1,H0,1,100,61.505
1576860426.964961,278884.000,47777,1,H0,1,100,61.493
1576860427.107223,279004.000,47795,1,H0,1,100,61.501
1576860427.244743,279120.000,47813,1,H0,1,100,61.490
1576860427.379891,279234.000,47831,1,H0,1,100,61.478
1576860427.506741,279341.000,47849,1,H0,1,100,61.505
1576860427.634777,279449.000,47867,1,H0,1,100,61.467
1576860427.767555,279561.000,47884,1,H0,1,100,61.478
1576860427.905074,279677.000,47903,1,H0,1,100,61.490
1576860428.041408,279792.000,47937,1,H0,1,100,61.474
1576860428.165887,279897.000,47955,1,H0,1,100,61.459
1576860428.297479,280008.000,47973,1,H0,1,100,61.471
1576860428.437370,280126.000,47991,1,H0,1,100,61.471
1576860428.573704,280241.000,48009,1,H0,1,100,61.451
1576860428.705296,280352.000,48027,1,H0,1,100,61.463
1576860428.830961,280458.000,48046,1,H0,1,100,61.432
1576860428.962553,280569.000,48063,1,H0,1,100,61.451
1576860429.101258,280686.000,48081,1,H0,1,100,61.448
1576860429.239963,280803.000,48115,1,H0,1,100,61.451
1576860429.363257,280907.000,48133,1,H0,1,100,61.440
1576860429.492478,281016.000,48151,1,H0,1,100,61.459
1576860429.620513,281124.000,48169,1,H0,1,100,61.436
1576860429.746178,281230.000,48188,1,H0,1,100,61.440
1576860429.876585,281340.000,48206,1,H0,1,100,61.429
1576860430.004027,281447.500,48227,2,H0,1,100,61.436
1576860430.131470,281555.000,48227,2,H0,1,100,61.425
1576860430.260691,281664.000,48263,1,H0,1,100,61.421
1576860430.395840,281778.000,48281,1,H0,1,100,61.421
1576860430.529803,281891.000,48299,1,H0,1,100,61.421
1576860430.672065,282011.000,48317,1,H0,1,100,61.410
1576860430.809584,282127.000,48336,1,H0,1,100,61.421
1576860430.939991,282237.000,48354,1,H0,1,100,61.410
1576860431.068026,282345.000,48372,1,H0,1,100,61.413
1576860431.201989,282458.000,48390,1,H0,1,100,61.402
1576860431.334767,282570.000,48407,1,H0,1,100,61.398
1576860431.475843,282689.000,48425,1,H0,1,100,61.390
1576860431.603879,282797.000,48459,1,H0,1,100,61.390
1576860431.730729,282904.000,48478,1,H0,1,100,61.394
1576860431.865877,283018.000,48496,1,H0,1,100,61.390
1576860432.004583,283135.000,48514,1,H0,1,100,61.375
1576860432.139731,283249.000,48532,1,H0,1,100,61.383
1576860432.264210,283354.000,48550,1,H0,1,100,61.360
1576860432.396988,283466.000,48568,1,H0,1,100,61.371
1576860432.533322,283581.000,48585,1,H0,1,100,61.371
1576860432.670842,283697.000,48603,1,H0,1,100,61.348
1576860432.802434,283808.000,48638,1,H0,1,100,61.375
1576860432.925727,283912.000,48656,1,H0,1,100,61.371
1576860433.062061,284027.000,48674,1,H0,1,100,61.352
1576860433.199581,284143.000,48692,1,H0,1,100,61.348
1576860433.334730,284257.000,48710,1,H0,1,100,61.352
1576860433.475806,284376.000,48728,1,H0,1,100,61.345
1576860433.613325,284492.000,48745,1,H0,1,100,61.337
1576860433.747288,284605.000,48763,1,H0,1,100,61.337
1576860433.888365,284724.000,48798,1,H0,1,100,61.345
1576860434.025884,284840.000,48816,1,H0,1,100,61.322
1576860434.159847,284953.000,48834,1,H0,1,100,61.337
1576860434.298553,285070.000,48852,1,H0,1,100,61.333
1576860434.436072,285186.000,48870,1,H0,1,100,61.322
1576860434.560551,285291.000,48887,1,H0,1,100,61.329
1576860434.692143,285402.000,48905,1,H0,1,100,61.307
1576860434.820179,285510.000,48924,1,H0,1,100,61.310
1576860434.950586,285620.000,48942,1,H0,1,100,61.322
1576860435.089291,285737.000,48976,1,H0,1,100,61.307
1576860435.229182,285855.000,48994,1,H0,1,100,61.295
1576860435.352475,285959.000,49012,1,H0,1,100,61.314
1576860435.481696,286068.000,49030,1,H0,1,100,61.322
1576860435.616845,286182.000,49048,1,H0,1,100,61.287
1576860435.751993,286296.000,49066,1,H0,1,100,61.314
1576860435.887142,286410.000,49084,1,H0,1,100,61.295
1576860436.013992,286517.000,49102,1,H0,1,100,61.291
1576860436.144398,286627.000,49121,1,H0,1,100,61.280
1576860436.279547,286741.000,49139,1,H0,1,100,61.299
1576860436.420623,286860.000,49156,1,H0,1,100,61.272
1576860436.549844,286969.000,49178,1,H0,1,100,61.268
1576860436.675509,287075.000,49196,1,H0,1,100,61.272
1576860436.807101,287186.000,49231,1,H0,1,100,61.265
1576860436.943435,287301.000,49249,1,H0,1,100,61.276
1576860437.080955,287417.000,49267,1,H0,1,100,61.272
1576860437.208990,287525.000,49285,1,H0,1,100,61.253
1576860437.340582,287636.000,49303,1,H0,1,100,61.261
1576860437.475731,287750.000,49321,1,H0,1,100,61.245
1576860437.604952,287859.000,49339,1,H0,1,100,61.234
1576860437.737730,287971.000,49356,1,H0,1,100,61.234
1576860437.872878,288085.000,49375,1,H0,1,100,61.234
1576860438.000914,288193.000,49409,1,H0,1,100,61.234
1576860438.125393,288298.000,49427,1,H0,1,100,61.223
1576860438.264098,288415.000,49445,1,H0,1,100,61.230
1576860438.395690,288526.000,49463,1,H0,1,100,61.211
1576860438.528468,288638.000,49481,1,H0,1,100,61.230
1576860438.668358,288756.000,49499,1,H0,1,100,61.211
1576860438.802321,288869.000,49518,1,H0,1,100,61.207
1576860438.925615,288973.000,49535,1,H0,1,100,61.196
1576860439.060764,289087.000,49553,1,H0,1,100,61.200
1576860439.197098,289202.000,49587,1,H0,1,100,61.211
1576860439.331061,289315.000,49605,1,H0,1,100,61.211
1576860439.460282,289424.000,49623,1,H0,1,100,61.207
1576860439.589503,289533.000,49641,1,H0,1,100,61.188
1576860439.722281,289645.000,49660,1,H0,1,100,61.173
1576860439.857429,289759.000,49678,1,H0,1,100,61.184
1576860439.997320,289877.000,49696,1,H0,1,100,61.184
1576860440.121799,289982.000,49714,1,H0,1,100,61.188
1576860440.254576,290094.000,49731,1,H0,1,100,61.173
1576860440.388540,290207.000,49749,1,H0,1,100,61.184
1576860440.524874,290322.000,49783,1,H0,1,100,61.158
1576860440.657651,290434.000,49801,1,H0,1,100,61.169
1576860440.784501,290541.000,49820,1,H0,1,100,61.158
1576860440.916093,290652.000,49838,1,H0,1,100,61.139
1576860441.057170,290771.000,49856,1,H0,1,100,61.154
1576860441.195875,290888.000,49874,1,H0,1,100,61.158
1576860441.327467,290999.000,49891,1,H0,1,100,61.146
1576860441.467358,291117.000,49909,1,H0,1,100,61.120
1576860441.606063,291234.000,49943,1,H0,1,100,61.127
1576860441.736469,291344.000,49962,1,H0,1,100,61.142
1576860441.875175,291461.000,49980,1,H0,1,100,61.139
1576860442.010323,291575.000,49998,1,H0,1,100,61.123
1576860442.143101,291687.000,50019,1,H0,1,100,61.123
1576860442.282991,291805.000,50039,1,H0,1,100,61.116
1576860442.409842,291912.000,50057,1,H0,1,100,61.116
1576860442.543805,292025.000,50075,1,H0,1,100,61.104
1576860442.671840,292133.000,50093,1,H0,1,100,61.127
1576860442.805803,292246.000,50112,1,H0,1,100,61.116
1576860442.939766,292359.000,50130,1,H0,1,100,61.093
1576860443.079657,292477.000,50147,1,H0,1,100,61.085
1576860443.208878,292586.000,50165,1,H0,1,100,61.085
1576860443.332171,292690.000,50183,1,H0,1,100,61.081
1576860443.469691,292806.000,50217,1,H0,1,100,61.089
1576860443.609582,292924.000,50235,1,H0,1,100,61.081
1576860443.745916,293039.000,50253,1,H0,1,100,61.070
1576860443.870395,293144.000,50272,1,H0,1,100,61.074
1576860444.001987,293255.000,50290,1,H0,1,100,61.066
1576860444.139507,293371.000,50308,1,H0,1,100,61.059
1576860444.277026,293487.000,50325,1,H0,1,100,61.062
1576860444.409804,293599.000,50343,1,H0,1,100,61.066
1576860444.533098,293703.000,50361,1,H0,1,100,61.055
1576860444.669432,293818.000,50395,1,H0,1,100,61.059
1576860444.803395,293931.000,50414,1,H0,1,100,61.051
1576860444.939729,294046.000,50432,1,H0,1,100,61.036
1576860445.077249,294162.000,50450,1,H0,1,100,61.036
1576860445.212397,294276.000,50468,1,H0,1,100,61.039
1576860445.349917,294392.000,50485,1,H0,1,100,61.032
1576860445.488622,294509.000,50503,1,H0,1,100,61.036
1576860445.624956,294624.000,50537,1,H0,1,100,61.024
1576860445.763661,294741.000,50556,1,H0,1,100,61.017
1576860445.896439,294853.000,50574,1,H0,1,100,61.013
1576860446.025660,294962.000,50592,1,H0,1,100,61.013
1576860446.152510,295069.000,50610,1,H0,1,100,61.009
1576860446.284102,295180.000,50628,1,H0,1,100,60.994
1576860446.419251,295294.000,50645,1,H0,1,100,60.986
1576860446.553214,295407.000,50663,1,H0,1,100,60.982
1576860446.695476,295527.000,50697,1,H0,1,100,60.959
1576860446.834181,295644.000,50716,1,H0,1,100,60.952
1576860446.958660,295749.000,50734,1,H0,1,100,60.959
1576860447.089066,295859.000,50752,1,H0,1,100,60.956
1576860447.223029,295972.000,50770,1,H0,1,100,60.959
1576860447.356992,296085.000,50788,1,H0,1,100,60.967
1576860447.495698,296202.000,50805,1,H0,1,100,60.940
1576860447.622548,296309.000,50823,1,H0,1,100,60.936
1576860447.751769,296418.000,50841,1,H0,1,100,60.921
1576860447.885732,296531.000,50860,1,H0,1,100,60.910
1576860448.025623,296649.000,50894,1,H0,1,100,60.929
1576860448.154251,296757.500,50915,2,H0,1,100,60.921
