EpochTimestamp,EmotiBitTimestamp,PacketNumber,DataLength,TypeTag,ProtocolVersion,DataReliability,MY
1576860792.447354,587213.000,36284,9,MY,1,100,-37
1576860792.447354,587213.000,36284,9,MY,1,100,-36
1576860792.447354,587213.000,36284,9,MY,1,100,-36
1576860792.447354,587213.000,36284,9,MY,1,100,-36
1576860792.447354,587213.000,36284,9,MY,1,100,-36
1576860792.447354,587213.000,36284,9,MY,1,100,-37
1576860792.447354,587213.000,36284,9,MY,1,100,-36
1576860792.447354,587213.000,36284,9,MY,1,100,-37
1576860792.447354,587213.000,36284,9,MY,1,100,-36
1576860792.487649,587247.000,36302,3,MY,1,100,-36
1576860792.527944,587281.000,36302,3,MY,1,100,-37
1576860792.568239,587315.000,36302,3,MY,1,100,-36
1576860792.605768,587346.667,36320,3,MY,1,100,-35
1576860792.643298,587378.333,36320,3,MY,1,100,-36
1576860792.680828,587410.000,36320,3,MY,1,100,-36
1576860792.721123,587444.000,36338,3,MY,1,100,-37
1576860792.761418,587478.000,36338,3,MY,1,100,-37
1576860792.801713,587512.000,36338,3,MY,1,100,-36
1576860792.840033,587544.333,36356,3,MY,1,100,-35
1576860792.878352,587576.667,36356,3,MY,1,100,-36
1576860792.916672,587609.000,36356,3,MY,1,100,-38
1576860792.954597,587641.000,36374,3,MY,1,100,-37
1576860792.992522,587673.000,36374,3,MY,1,100,-36
1576860793.030446,587705.000,36374,3,MY,1,100,-36
1576860793.071532,587739.667,36393,3,MY,1,100,-37
1576860793.112617,587774.333,36393,3,MY,1,100,-37
1576860793.153702,587809.000,36393,3,MY,1,100,-36
1576860793.194787,587843.667,36411,3,MY,1,100,-36
1576860793.235872,587878.333,36411,3,MY,1,100,-36
1576860793.276957,587913.000,36411,3,MY,1,100,-36
1576860793.318832,587948.333,36428,3,MY,1,100,-36
1576860793.360708,587983.667,36428,3,MY,1,100,-36
1576860793.402583,588019.000,36428,3,MY,1,100,-36
1576860793.443668,588053.667,36444,3,MY,1,100,-37
1576860793.484753,588088.333,36444,3,MY,1,100,-37
1576860793.525838,588123.000,36444,3,MY,1,100,-37
1576860793.572651,588162.500,36462,2,MY,1,100,-37
1576860793.619465,588202.000,36462,2,MY,1,100,-35
1576860793.657093,588233.750,36480,4,MY,1,100,-36
1576860793.694721,588265.500,36480,4,MY,1,100,-36
1576860793.732350,588297.250,36480,4,MY,1,100,-36
1576860793.769979,588329.000,36480,4,MY,1,100,-36
1576860793.808693,588361.667,36498,3,MY,1,100,-35
1576860793.847408,588394.333,36498,3,MY,1,100,-37
1576860793.886123,588427.000,36498,3,MY,1,100,-37
1576860793.927603,588462.000,36516,3,MY,1,100,-36
1576860793.969083,588497.000,36516,3,MY,1,100,-36
1576860794.010563,588532.000,36516,3,MY,1,100,-36
1576860794.050463,588565.667,36534,3,MY,1,100,-36
1576860794.090363,588599.333,36534,3,MY,1,100,-36
1576860794.130263,588633.000,36534,3,MY,1,100,-35
1576860794.172929,588669.000,36553,2,MY,1,100,-36
1576860794.215594,588705.000,36553,2,MY,1,100,-36
1576860794.256284,588739.333,36571,3,MY,1,100,-35
1576860794.296974,588773.667,36571,3,MY,1,100,-37
1576860794.337664,588808.000,36571,3,MY,1,100,-37
1576860794.376774,588841.000,36589,4,MY,1,100,-36
1576860794.415884,588874.000,36589,4,MY,1,100,-36
1576860794.454994,588907.000,36589,4,MY,1,100,-37
1576860794.494104,588940.000,36589,4,MY,1,100,-37
1576860794.534991,588974.500,36606,2,MY,1,100,-36
1576860794.575879,589009.000,36606,2,MY,1,100,-36
1576860794.617359,589044.000,36624,3,MY,1,100,-36
1576860794.658839,589079.000,36624,3,MY,1,100,-37
1576860794.700319,589114.000,36624,3,MY,1,100,-37
1576860794.742194,589149.333,36640,3,MY,1,100,-38
1576860794.784070,589184.667,36640,3,MY,1,100,-37
1576860794.825945,589220.000,36640,3,MY,1,100,-37
1576860794.867030,589254.667,36658,3,MY,1,100,-38
1576860794.908115,589289.333,36658,3,MY,1,100,-37
1576860794.949200,589324.000,36658,3,MY,1,100,-37
1576860794.986335,589355.333,36676,3,MY,1,100,-36
1576860795.023469,589386.667,36676,3,MY,1,100,-37
1576860795.060604,589418.000,36676,3,MY,1,100,-37
1576860795.100899,589452.000,36695,3,MY,1,100,-37
1576860795.141194,589486.000,36695,3,MY,1,100,-36
1576860795.181489,589520.000,36695,3,MY,1,100,-36
1576860795.222574,589554.667,36713,3,MY,1,100,-36
1576860795.263659,589589.333,36713,3,MY,1,100,-35
1576860795.304744,589624.000,36713,3,MY,1,100,-36
1576860795.345435,589658.333,36731,3,MY,1,100,-35
1576860795.386125,589692.667,36731,3,MY,1,100,-36
1576860795.426815,589727.000,36731,3,MY,1,100,-38
1576860795.469085,589762.667,36749,3,MY,1,100,-38
1576860795.511355,589798.333,36749,3,MY,1,100,-36
1576860795.553626,589834.000,36749,3,MY,1,100,-38
1576860795.591945,589866.333,36767,3,MY,1,100,-37
1576860795.630265,589898.667,36767,3,MY,1,100,-37
1576860795.668585,589931.000,36767,3,MY,1,100,-36
1576860795.708880,589965.000,36784,3,MY,1,100,-36
1576860795.749175,589999.000,36784,3,MY,1,100,-37
1576860795.789470,590033.000,36784,3,MY,1,100,-35
1576860795.828975,590066.333,36802,3,MY,1,100,-36
1576860795.868480,590099.667,36802,3,MY,1,100,-37
1576860795.907985,590133.000,36802,3,MY,1,100,-36
1576860795.946699,590165.667,36820,3,MY,1,100,-36
1576860795.985414,590198.333,36820,3,MY,1,100,-37
1576860796.024129,590231.000,36820,3,MY,1,100,-36
1576860796.060869,590262.000,36837,3,MY,1,100,-37
1576860796.097608,590293.000,36837,3,MY,1,100,-37
1576860796.134348,590324.000,36837,3,MY,1,100,-36
1576860796.175433,590358.667,36855,3,MY,1,100,-36
1576860796.216518,590393.333,36855,3,MY,1,100,-37
1576860796.257603,590428.000,36855,3,MY,1,100,-36
1576860796.296318,590460.667,36873,3,MY,1,100,-37
1576860796.335033,590493.333,36873,3,MY,1,100,-37
1576860796.373748,590526.000,36873,3,MY,1,100,-37
1576860796.410487,590557.000,36891,4,MY,1,100,-36
1576860796.447227,590588.000,36891,4,MY,1,100,-36
1576860796.483966,590619.000,36891,4,MY,1,100,-36
1576860796.520706,590650.000,36891,4,MY,1,100,-36
1576860796.561396,590684.333,36909,3,MY,1,100,-36
1576860796.602086,590718.667,36909,3,MY,1,100,-35
1576860796.642776,590753.000,36909,3,MY,1,100,-36
1576860796.681886,590786.000,36927,3,MY,1,100,-36
1576860796.720996,590819.000,36927,3,MY,1,100,-36
1576860796.760106,590852.000,36927,3,MY,1,100,-37
1576860796.801981,590887.333,36945,3,MY,1,100,-37
1576860796.843856,590922.667,36945,3,MY,1,100,-35
1576860796.885731,590958.000,36945,3,MY,1,100,-36
1576860796.926026,590992.000,36963,3,MY,1,100,-37
1576860796.966321,591026.000,36963,3,MY,1,100,-36
1576860797.006616,591060.000,36963,3,MY,1,100,-36
1576860797.048689,591095.500,36981,2,MY,1,100,-36
1576860797.090762,591131.000,36981,2,MY,1,100,-34
1576860797.131452,591165.333,36999,3,MY,1,100,-31
1576860797.172142,591199.667,36999,3,MY,1,100,-27
1576860797.212832,591234.000,36999,3,MY,1,100,-24
1576860797.253127,591268.000,37015,3,MY,1,100,-22
1576860797.293422,591302.000,37015,3,MY,1,100,-18
1576860797.333717,591336.000,37015,3,MY,1,100,-16
1576860797.374802,591370.667,37033,3,MY,1,100,-14
1576860797.415887,591405.333,37033,3,MY,1,100,-11
1576860797.456973,591440.000,37033,3,MY,1,100,-8
1576860797.493119,591470.500,37051,4,MY,1,100,-7
1576860797.529267,591501.000,37051,4,MY,1,100,-7
1576860797.565413,591531.500,37051,4,MY,1,100,-4
1576860797.601561,591562.000,37051,4,MY,1,100,-1
1576860797.643041,591597.000,37069,3,MY,1,100,-0
1576860797.684521,591632.000,37069,3,MY,1,100, 4
1576860797.726001,591667.000,37069,3,MY,1,100, 4
1576860797.765901,591700.667,37087,3,MY,1,100, 8
1576860797.805801,591734.333,37087,3,MY,1,100, 9
1576860797.845701,591768.000,37087,3,MY,1,100,11
1576860797.886589,591802.500,37105,2,MY,1,100,13
1576860797.927476,591837.000,37105,2,MY,1,100,15
1576860797.968166,591871.333,37123,3,MY,1,100,18
1576860798.008856,591905.667,37123,3,MY,1,100,20
1576860798.049546,591940.000,37123,3,MY,1,100,23
1576860798.089841,591974.000,37142,3,MY,1,100,24
1576860798.130136,592008.000,37142,3,MY,1,100,25
1576860798.170431,592042.000,37142,3,MY,1,100,25
1576860798.211122,592076.333,37160,3,MY,1,100,25
1576860798.251812,592110.667,37160,3,MY,1,100,24
1576860798.292502,592145.000,37160,3,MY,1,100,31
1576860798.332797,592179.000,37181,5,MY,1,100,28
1576860798.373092,592213.000,37181,5,MY,1,100,28
1576860798.413387,592247.000,37181,5,MY,1,100,27
1576860798.453682,592281.000,37181,5,MY,1,100,27
1576860798.493977,592315.000,37181,5,MY,1,100,28
1576860798.535062,592349.667,37201,3,MY,1,100,28
1576860798.576147,592384.333,37201,3,MY,1,100,26
1576860798.617232,592419.000,37201,3,MY,1,100,25
1576860798.658712,592454.000,37219,3,MY,1,100,30
1576860798.700192,592489.000,37219,3,MY,1,100,28
1576860798.741673,592524.000,37219,3,MY,1,100,25
1576860798.779202,592555.667,37237,3,MY,1,100,27
1576860798.816732,592587.333,37237,3,MY,1,100,28
1576860798.854262,592619.000,37237,3,MY,1,100,27
1576860798.892581,592651.333,37255,3,MY,1,100,28
1576860798.930901,592683.667,37255,3,MY,1,100,29
1576860798.969221,592716.000,37255,3,MY,1,100,28
1576860799.013071,592753.000,37273,3,MY,1,100,30
1576860799.056922,592790.000,37273,3,MY,1,100,26
1576860799.100772,592827.000,37273,3,MY,1,100,28
1576860799.141857,592861.667,37291,3,MY,1,100,26
1576860799.182942,592896.333,37291,3,MY,1,100,26
1576860799.224028,592931.000,37291,3,MY,1,100,26
1576860799.264718,592965.333,37307,3,MY,1,100,26
1576860799.305408,592999.667,37307,3,MY,1,100,25
1576860799.346098,593034.000,37307,3,MY,1,100,22
1576860799.384813,593066.667,37325,3,MY,1,100,21
1576860799.423527,593099.333,37325,3,MY,1,100,15
1576860799.462242,593132.000,37325,3,MY,1,100, 6
1576860799.502932,593166.333,37343,3,MY,1,100, 0
1576860799.543622,593200.667,37343,3,MY,1,100,-6
1576860799.584312,593235.000,37343,3,MY,1,100,-10
1576860799.622237,593267.000,37361,3,MY,1,100,-11
1576860799.660162,593299.000,37361,3,MY,1,100,-14
1576860799.698087,593331.000,37361,3,MY,1,100,-16
1576860799.740357,593366.667,37379,3,MY,1,100,-17
1576860799.782627,593402.333,37379,3,MY,1,100,-18
1576860799.824897,593438.000,37379,3,MY,1,100,-22
1576860799.860847,593468.333,37397,3,MY,1,100,-24
1576860799.896796,593498.667,37397,3,MY,1,100,-26
1576860799.932746,593529.000,37397,3,MY,1,100,-27
1576860799.976991,593566.333,37415,3,MY,1,100,-29
1576860800.021237,593603.667,37415,3,MY,1,100,-31
1576860800.065482,593641.000,37415,3,MY,1,100,-32
1576860800.103407,593673.000,37434,3,MY,1,100,-34
1576860800.141332,593705.000,37434,3,MY,1,100,-33
1576860800.179256,593737.000,37434,3,MY,1,100,-34
1576860800.217181,593769.000,37452,3,MY,1,100,-35
1576860800.255106,593801.000,37452,3,MY,1,100,-35
1576860800.293031,593833.000,37452,3,MY,1,100,-35
1576860800.334116,593867.667,37469,3,MY,1,100,-35
1576860800.375201,593902.333,37469,3,MY,1,100,-35
1576860800.416286,593937.000,37469,3,MY,1,100,-36
1576860800.457766,593972.000,37487,3,MY,1,100,-36
1576860800.499246,594007.000,37487,3,MY,1,100,-34
1576860800.540726,594042.000,37487,3,MY,1,100,-36
1576860800.581812,594076.667,37503,3,MY,1,100,-37
1576860800.622897,594111.333,37503,3,MY,1,100,-36
1576860800.663982,594146.000,37503,3,MY,1,100,-35
1576860800.705067,594180.667,37521,3,MY,1,100,-34
1576860800.746152,594215.333,37521,3,MY,1,100,-37
1576860800.787237,594250.000,37521,3,MY,1,100,-36
1576860800.828717,594285.000,37539,2,MY,1,100,-35
1576860800.870198,594320.000,37539,2,MY,1,100,-36
1576860800.912073,594355.333,37557,3,MY,1,100,-35
1576860800.953948,594390.667,37557,3,MY,1,100,-36
1576860800.995823,594426.000,37557,3,MY,1,100,-36
1576860801.033748,594458.000,37576,3,MY,1,100,-37
1576860801.071673,594490.000,37576,3,MY,1,100,-35
1576860801.109597,594522.000,37576,3,MY,1,100,-36
1576860801.148312,594554.667,37594,3,MY,1,100,-35
1576860801.187027,594587.333,37594,3,MY,1,100,-36
1576860801.225742,594620.000,37594,3,MY,1,100,-36
1576860801.265148,594653.250,37612,4,MY,1,100,-35
1576860801.304554,594686.500,37612,4,MY,1,100,-36
1576860801.343960,594719.750,37612,4,MY,1,100,-35
1576860801.383367,594753.000,37612,4,MY,1,100,-36
1576860801.423661,594787.000,37629,2,MY,1,100,-36
1576860801.463957,594821.000,37629,2,MY,1,100,-36
1576860801.507807,594858.000,37647,3,MY,1,100,-35
1576860801.551657,594895.000,37647,3,MY,1,100,-34
1576860801.595508,594932.000,37647,3,MY,1,100,-36
1576860801.636198,594966.333,37665,3,MY,1,100,-36
1576860801.676888,595000.667,37665,3,MY,1,100,-35
1576860801.717578,595035.000,37665,3,MY,1,100,-35
1576860801.758268,595069.333,37681,3,MY,1,100,-34
1576860801.798958,595103.667,37681,3,MY,1,100,-35
1576860801.839648,595138.000,37681,3,MY,1,100,-35
1576860801.877573,595170.000,37699,3,MY,1,100,-35
1576860801.915498,595202.000,37699,3,MY,1,100,-35
1576860801.953423,595234.000,37699,3,MY,1,100,-35
1576860801.990952,595265.667,37718,3,MY,1,100,-35
1576860802.028482,595297.333,37718,3,MY,1,100,-35
1576860802.066011,595329.000,37718,3,MY,1,100,-36
1576860802.110257,595366.333,37736,3,MY,1,100,-35
1576860802.154502,595403.667,37736,3,MY,1,100,-37
1576860802.198748,595441.000,37736,3,MY,1,100,-36
1576860802.240228,595476.000,37754,3,MY,1,100,-35
1576860802.281708,595511.000,37754,3,MY,1,100,-35
1576860802.323189,595546.000,37754,3,MY,1,100,-35
1576860802.364669,595581.000,37772,3,MY,1,100,-35
1576860802.406149,595616.000,37772,3,MY,1,100,-36
1576860802.447629,595651.000,37772,3,MY,1,100,-35
1576860802.485554,595683.000,37790,3,MY,1,100,-35
1576860802.523479,595715.000,37790,3,MY,1,100,-35
1576860802.561403,595747.000,37790,3,MY,1,100,-35
1576860802.599328,595779.000,37808,3,MY,1,100,-34
1576860802.637253,595811.000,37808,3,MY,1,100,-35
1576860802.675177,595843.000,37808,3,MY,1,100,-35
1576860802.719423,595880.333,37825,3,MY,1,100,-35
1576860802.763668,595917.667,37825,3,MY,1,100,-36
1576860802.807914,595955.000,37825,3,MY,1,100,-35
1576860802.848999,595989.667,37843,3,MY,1,100,-35
1576860802.890084,596024.333,37843,3,MY,1,100,-35
1576860802.931169,596059.000,37843,3,MY,1,100,-36
1576860802.972649,596094.000,37859,3,MY,1,100,-35
1576860803.014130,596129.000,37859,3,MY,1,100,-36
1576860803.055610,596164.000,37859,3,MY,1,100,-35
1576860803.093139,596195.667,37878,3,MY,1,100,-36
1576860803.130669,596227.333,37878,3,MY,1,100,-35
1576860803.168199,596259.000,37878,3,MY,1,100,-35
1576860803.206123,596291.000,37896,3,MY,1,100,-35
1576860803.244048,596323.000,37896,3,MY,1,100,-35
1576860803.281973,596355.000,37896,3,MY,1,100,-35
1576860803.325033,596391.333,37914,3,MY,1,100,-37
1576860803.368094,596427.667,37914,3,MY,1,100,-36
1576860803.411154,596464.000,37914,3,MY,1,100,-35
1576860803.448289,596495.333,37932,3,MY,1,100,-35
1576860803.485423,596526.667,37932,3,MY,1,100,-35
1576860803.522558,596558.000,37932,3,MY,1,100,-35
1576860803.567199,596595.667,37950,3,MY,1,100,-36
1576860803.611839,596633.333,37950,3,MY,1,100,-36
1576860803.656480,596671.000,37950,3,MY,1,100,-35
1576860803.692429,596701.333,37968,3,MY,1,100,-35
1576860803.728379,596731.667,37968,3,MY,1,100,-35
1576860803.764328,596762.000,37968,3,MY,1,100,-36
1576860803.805808,596797.000,37985,3,MY,1,100,-35
1576860803.847288,596832.000,37985,3,MY,1,100,-35
1576860803.888768,596867.000,37985,3,MY,1,100,-35
1576860803.928668,596900.667,38003,3,MY,1,100,-36
1576860803.968568,596934.333,38003,3,MY,1,100,-35
1576860804.008468,596968.000,38003,3,MY,1,100,-35
1576860804.048763,597002.000,38022,3,MY,1,100,-36
1576860804.089058,597036.000,38022,3,MY,1,100,-36
1576860804.129354,597070.000,38022,3,MY,1,100,-35
1576860804.170241,597104.500,38038,2,MY,1,100,-36
1576860804.211129,597139.000,38038,2,MY,1,100,-35
1576860804.251424,597173.000,38056,4,MY,1,100,-35
1576860804.291719,597207.000,38056,4,MY,1,100,-35
1576860804.332014,597241.000,38056,4,MY,1,100,-36
1576860804.372309,597275.000,38056,4,MY,1,100,-35
1576860804.416159,597312.000,38077,4,MY,1,100,-35
1576860804.460010,597349.000,38077,4,MY,1,100,-35
1576860804.503860,597386.000,38077,4,MY,1,100,-34
1576860804.547710,597423.000,38077,4,MY,1,100,-35
1576860804.588796,597457.667,38097,3,MY,1,100,-35
1576860804.629881,597492.333,38097,3,MY,1,100,-35
1576860804.670966,597527.000,38097,3,MY,1,100,-36
1576860804.710866,597560.667,38113,3,MY,1,100,-35
1576860804.750766,597594.333,38113,3,MY,1,100,-35
1576860804.790666,597628.000,38113,3,MY,1,100,-34
1576860804.828985,597660.333,38131,3,MY,1,100,-35
1576860804.867305,597692.667,38131,3,MY,1,100,-36
1576860804.905625,597725.000,38131,3,MY,1,100,-35
1576860804.945525,597758.667,38149,3,MY,1,100,-35
1576860804.985425,597792.333,38149,3,MY,1,100,-35
1576860805.025325,597826.000,38149,3,MY,1,100,-36
1576860805.065225,597859.667,38168,3,MY,1,100,-36
1576860805.105125,597893.333,38168,3,MY,1,100,-35
1576860805.145025,597927.000,38168,3,MY,1,100,-36
1576860805.185320,597961.000,38186,3,MY,1,100,-38
1576860805.225615,597995.000,38186,3,MY,1,100,-35
1576860805.265910,598029.000,38186,3,MY,1,100,-35
1576860805.310550,598066.667,38204,3,MY,1,100,-34
1576860805.355191,598104.333,38204,3,MY,1,100,-35
1576860805.399832,598142.000,38204,3,MY,1,100,-35
1576860805.440917,598176.667,38222,3,MY,1,100,-36
1576860805.482002,598211.333,38222,3,MY,1,100,-36
1576860805.523087,598246.000,38222,3,MY,1,100,-35
1576860805.561802,598278.667,38239,3,MY,1,100,-35
1576860805.600517,598311.333,38239,3,MY,1,100,-34
1576860805.639231,598344.000,38239,3,MY,1,100,-35
1576860805.677156,598376.000,38257,3,MY,1,100,-36
1576860805.715081,598408.000,38257,3,MY,1,100,-35
1576860805.753006,598440.000,38257,3,MY,1,100,-35
1576860805.792115,598473.000,38275,3,MY,1,100,-35
1576860805.831225,598506.000,38275,3,MY,1,100,-35
1576860805.870335,598539.000,38275,3,MY,1,100,-35
1576860805.918334,598579.500,38291,2,MY,1,100,-35
1576860805.966332,598620.000,38291,2,MY,1,100,-36
1576860806.007022,598654.333,38310,3,MY,1,100,-37
1576860806.047712,598688.667,38310,3,MY,1,100,-36
1576860806.088402,598723.000,38310,3,MY,1,100,-35
1576860806.129092,598757.333,38328,3,MY,1,100,-36
1576860806.169782,598791.667,38328,3,MY,1,100,-36
1576860806.210473,598826.000,38328,3,MY,1,100,-36
1576860806.248397,598858.000,38346,4,MY,1,100,-36
1576860806.286322,598890.000,38346,4,MY,1,100,-36
1576860806.324247,598922.000,38346,4,MY,1,100,-36
1576860806.362171,598954.000,38346,4,MY,1,100,-36
1576860806.401281,598987.000,38364,3,MY,1,100,-35
1576860806.440391,599020.000,38364,3,MY,1,100,-35
1576860806.479501,599053.000,38364,3,MY,1,100,-36
1576860806.520389,599087.500,38382,2,MY,1,100,-35
1576860806.561276,599122.000,38382,2,MY,1,100,-35
1576860806.605917,599159.667,38400,3,MY,1,100,-36
1576860806.650557,599197.333,38400,3,MY,1,100,-36
1576860806.695198,599235.000,38400,3,MY,1,100,-36
1576860806.736283,599269.667,38417,3,MY,1,100,-34
1576860806.777368,599304.333,38417,3,MY,1,100,-35
1576860806.818453,599339.000,38417,3,MY,1,100,-35
1576860806.855193,599370.000,38435,3,MY,1,100,-35
1576860806.891932,599401.000,38435,3,MY,1,100,-36
1576860806.928672,599432.000,38435,3,MY,1,100,-35
1576860806.968177,599465.333,38454,3,MY,1,100,-36
1576860807.007682,599498.667,38454,3,MY,1,100,-36
1576860807.047187,599532.000,38454,3,MY,1,100,-35
1576860807.086692,599565.333,38472,3,MY,1,100,-35
1576860807.126197,599598.667,38472,3,MY,1,100,-37
1576860807.165701,599632.000,38472,3,MY,1,100,-35
1576860807.207972,599667.667,38488,3,MY,1,100,-35
1576860807.250242,599703.333,38488,3,MY,1,100,-35
1576860807.292512,599739.000,38488,3,MY,1,100,-36
1576860807.332807,599773.000,38506,3,MY,1,100,-36
1576860807.373102,599807.000,38506,3,MY,1,100,-37
1576860807.413397,599841.000,38506,3,MY,1,100,-35
1576860807.458038,599878.667,38524,3,MY,1,100,-35
1576860807.502678,599916.333,38524,3,MY,1,100,-34
1576860807.547319,599954.000,38524,3,MY,1,100,-36
1576860807.587614,599988.000,38542,3,MY,1,100,-36
1576860807.627909,600022.000,38542,3,MY,1,100,-36
1576860807.668204,600056.000,38542,3,MY,1,100,-36
1576860807.710474,600091.667,38560,3,MY,1,100,-34
1576860807.752745,600127.333,38560,3,MY,1,100,-36
1576860807.795015,600163.000,38560,3,MY,1,100,-35
1576860807.836100,600197.667,38577,3,MY,1,100,-36
1576860807.877185,600232.333,38577,3,MY,1,100,-33
1576860807.918270,600267.000,38577,3,MY,1,100,-36
1576860807.959750,600302.000,38595,2,MY,1,100,-35
1576860808.001230,600337.000,38595,2,MY,1,100,-35
1576860808.042711,600372.000,38612,3,MY,1,100,-36
1576860808.084191,600407.000,38612,3,MY,1,100,-36
1576860808.125671,600442.000,38612,3,MY,1,100,-35
1576860808.167151,600477.000,38630,3,MY,1,100,-35
1576860808.208631,600512.000,38630,3,MY,1,100,-36
1576860808.250112,600547.000,38630,3,MY,1,100,-36
1576860808.291197,600581.667,38648,3,MY,1,100,-35
1576860808.332282,600616.333,38648,3,MY,1,100,-35
1576860808.373367,600651.000,38648,3,MY,1,100,-35
1576860808.414847,600686.000,38666,3,MY,1,100,-35
1576860808.456327,600721.000,38666,3,MY,1,100,-35
1576860808.497808,600756.000,38666,3,MY,1,100,-35
1576860808.535337,600787.667,38684,3,MY,1,100,-37
1576860808.572867,600819.333,38684,3,MY,1,100,-35
1576860808.610396,600851.000,38684,3,MY,1,100,-35
1576860808.649901,600884.333,38702,3,MY,1,100,-35
1576860808.689406,600917.667,38702,3,MY,1,100,-36
1576860808.728911,600951.000,38702,3,MY,1,100,-37
1576860808.766836,600983.000,38720,3,MY,1,100,-35
1576860808.804761,601015.000,38720,3,MY,1,100,-35
1576860808.842685,601047.000,38720,3,MY,1,100,-34
1576860808.881499,601079.750,38738,4,MY,1,100,-35
1576860808.920312,601112.500,38738,4,MY,1,100,-35
1576860808.959126,601145.250,38738,4,MY,1,100,-36
1576860808.997940,601178.000,38738,4,MY,1,100,-35
1576860809.040012,601213.500,38756,2,MY,1,100,-35
1576860809.082085,601249.000,38756,2,MY,1,100,-35
1576860809.126726,601286.667,38774,3,MY,1,100,-35
1576860809.171366,601324.333,38774,3,MY,1,100,-35
1576860809.216007,601362.000,38774,3,MY,1,100,-35
1576860809.254722,601394.667,38790,3,MY,1,100,-35
1576860809.293437,601427.333,38790,3,MY,1,100,-35
1576860809.332151,601460.000,38790,3,MY,1,100,-35
1576860809.377187,601498.000,38808,3,MY,1,100,-36
1576860809.422223,601536.000,38808,3,MY,1,100,-35
1576860809.467258,601574.000,38808,3,MY,1,100,-36
1576860809.507158,601607.667,38826,3,MY,1,100,-35
1576860809.547058,601641.333,38826,3,MY,1,100,-35
1576860809.586958,601675.000,38826,3,MY,1,100,-36
1576860809.624488,601706.667,38844,3,MY,1,100,-35
1576860809.662017,601738.333,38844,3,MY,1,100,-36
1576860809.699547,601770.000,38844,3,MY,1,100,-36
1576860809.739052,601803.333,38862,3,MY,1,100,-34
1576860809.778557,601836.667,38862,3,MY,1,100,-34
1576860809.818062,601870.000,38862,3,MY,1,100,-35
1576860809.858357,601904.000,38880,3,MY,1,100,-36
1576860809.898652,601938.000,38880,3,MY,1,100,-35
1576860809.938947,601972.000,38880,3,MY,1,100,-35
1576860809.983588,602009.667,38898,3,MY,1,100,-34
1576860810.028228,602047.333,38898,3,MY,1,100,-36
1576860810.072869,602085.000,38898,3,MY,1,100,-35
1576860810.114349,602120.000,38916,2,MY,1,100,-36
1576860810.155829,602155.000,38916,2,MY,1,100,-35
1576860810.193161,602186.500,38934,4,MY,1,100,-36
1576860810.230493,602218.000,38934,4,MY,1,100,-35
1576860810.267825,602249.500,38934,4,MY,1,100,-35
1576860810.305157,602281.000,38934,4,MY,1,100,-35
1576860810.344267,602314.000,38952,3,MY,1,100,-36
1576860810.383377,602347.000,38952,3,MY,1,100,-37
1576860810.422487,602380.000,38952,3,MY,1,100,-33
1576860810.463730,602414.800,38973,5,MY,1,100,-35
1576860810.504973,602449.600,38973,5,MY,1,100,-35
1576860810.546216,602484.400,38973,5,MY,1,100,-36
1576860810.587460,602519.200,38973,5,MY,1,100,-38
1576860810.628703,602554.000,38973,5,MY,1,100,-38
1576860810.675516,602593.500,38993,2,MY,1,100,-37
1576860810.722329,602633.000,38993,2,MY,1,100,-36
1576860810.760649,602665.333,39010,3,MY,1,100,-37
1576860810.798969,602697.667,39010,3,MY,1,100,-36
1576860810.837289,602730.000,39010,3,MY,1,100,-35
1576860810.874423,602761.333,39028,3,MY,1,100,-35
1576860810.911558,602792.667,39028,3,MY,1,100,-36
1576860810.948693,602824.000,39028,3,MY,1,100,-36
1576860810.988593,602857.667,39047,3,MY,1,100,-35
1576860811.028492,602891.333,39047,3,MY,1,100,-37
1576860811.068393,602925.000,39047,3,MY,1,100,-35
1576860811.109082,602959.333,39063,3,MY,1,100,-38
1576860811.149773,602993.667,39063,3,MY,1,100,-36
1576860811.190463,603028.000,39063,3,MY,1,100,-39
1576860811.231548,603062.667,39081,3,MY,1,100,-36
1576860811.272633,603097.333,39081,3,MY,1,100,-36
1576860811.313718,603132.000,39081,3,MY,1,100,-35
1576860811.356778,603168.333,39099,3,MY,1,100,-36
1576860811.399839,603204.667,39099,3,MY,1,100,-35
1576860811.442899,603241.000,39099,3,MY,1,100,-37
1576860811.480034,603272.333,39117,3,MY,1,100,-36
1576860811.517168,603303.667,39117,3,MY,1,100,-36
1576860811.554303,603335.000,39117,3,MY,1,100,-34
1576860811.596573,603370.667,39135,3,MY,1,100,-36
1576860811.638844,603406.333,39135,3,MY,1,100,-36
1576860811.681114,603442.000,39135,3,MY,1,100,-36
1576860811.723384,603477.667,39153,3,MY,1,100,-37
1576860811.765654,603513.333,39153,3,MY,1,100,-36
1576860811.807925,603549.000,39153,3,MY,1,100,-35
1576860811.843874,603579.333,39171,3,MY,1,100,-36
1576860811.879823,603609.667,39171,3,MY,1,100,-37
1576860811.915773,603640.000,39171,3,MY,1,100,-36
1576860811.958833,603676.333,39188,3,MY,1,100,-36
1576860812.001894,603712.667,39188,3,MY,1,100,-36
1576860812.044954,603749.000,39188,3,MY,1,100,-35
1576860812.082089,603780.333,39207,3,MY,1,100,-37
1576860812.119223,603811.667,39207,3,MY,1,100,-37
1576860812.156358,603843.000,39207,3,MY,1,100,-36
1576860812.198628,603878.667,39225,3,MY,1,100,-36
1576860812.240899,603914.333,39225,3,MY,1,100,-36
1576860812.283169,603950.000,39225,3,MY,1,100,-35
1576860812.320698,603981.667,39241,3,MY,1,100,-35
1576860812.358228,604013.333,39241,3,MY,1,100,-38
1576860812.395758,604045.000,39241,3,MY,1,100,-35
1576860812.435658,604078.667,39259,3,MY,1,100,-35
1576860812.475558,604112.333,39259,3,MY,1,100,-35
1576860812.515458,604146.000,39259,3,MY,1,100,-36
1576860812.556543,604180.667,39277,3,MY,1,100,-37
1576860812.597628,604215.333,39277,3,MY,1,100,-35
1576860812.638713,604250.000,39277,3,MY,1,100,-36
1576860812.680193,604285.000,39295,3,MY,1,100,-35
1576860812.721673,604320.000,39295,3,MY,1,100,-36
1576860812.763154,604355.000,39295,3,MY,1,100,-36
1576860812.804239,604389.667,39313,3,MY,1,100,-37
1576860812.845324,604424.333,39313,3,MY,1,100,-37
1576860812.886409,604459.000,39313,3,MY,1,100,-36
1576860812.927889,604494.000,39331,3,MY,1,100,-37
1576860812.969369,604529.000,39331,3,MY,1,100,-36
1576860813.010849,604564.000,39331,3,MY,1,100,-36
1576860813.050552,604597.500,39350,2,MY,1,100,-34
1576860813.090254,604631.000,39350,2,MY,1,100,-35
1576860813.130253,604664.750,39367,4,MY,1,100,-36
1576860813.170252,604698.500,39367,4,MY,1,100,-35
1576860813.210250,604732.250,39367,4,MY,1,100,-36
1576860813.250249,604766.000,39367,4,MY,1,100,-36
1576860813.290939,604800.333,39385,3,MY,1,100,-34
1576860813.331629,604834.667,39385,3,MY,1,100,-36
1576860813.372319,604869.000,39385,3,MY,1,100,-35
1576860813.412614,604903.000,39401,2,MY,1,100,-35
1576860813.452909,604937.000,39401,2,MY,1,100,-36
1576860813.493994,604971.667,39419,3,MY,1,100,-36
1576860813.535080,605006.333,39419,3,MY,1,100,-36
1576860813.576165,605041.000,39419,3,MY,1,100,-37
1576860813.615670,605074.333,39437,3,MY,1,100,-36
1576860813.655174,605107.667,39437,3,MY,1,100,-36
1576860813.694679,605141.000,39437,3,MY,1,100,-36
1576860813.735765,605175.667,39455,3,MY,1,100,-35
1576860813.776850,605210.333,39455,3,MY,1,100,-35
1576860813.817935,605245.000,39455,3,MY,1,100,-35
1576860813.857045,605278.000,39473,3,MY,1,100,-36
1576860813.896155,605311.000,39473,3,MY,1,100,-36
1576860813.935265,605344.000,39473,3,MY,1,100,-34
1576860813.976350,605378.667,39492,3,MY,1,100,-36
1576860814.017435,605413.333,39492,3,MY,1,100,-36
1576860814.058520,605448.000,39492,3,MY,1,100,-36
1576860814.099605,605482.667,39510,3,MY,1,100,-36
1576860814.140690,605517.333,39510,3,MY,1,100,-36
1576860814.181775,605552.000,39510,3,MY,1,100,-34
1576860814.222465,605586.333,39528,3,MY,1,100,-35
1576860814.263155,605620.667,39528,3,MY,1,100,-35
1576860814.303845,605655.000,39528,3,MY,1,100,-34
1576860814.344930,605689.667,39545,3,MY,1,100,-35
1576860814.386016,605724.333,39545,3,MY,1,100,-36
1576860814.427101,605759.000,39545,3,MY,1,100,-36
1576860814.465420,605791.333,39563,3,MY,1,100,-36
1576860814.503740,605823.667,39563,3,MY,1,100,-37
1576860814.542060,605856.000,39563,3,MY,1,100,-36
1576860814.582750,605890.333,39581,3,MY,1,100,-35
1576860814.623440,605924.667,39581,3,MY,1,100,-36
1576860814.664130,605959.000,39581,3,MY,1,100,-36
1576860814.704820,605993.333,39597,3,MY,1,100,-35
1576860814.745510,606027.667,39597,3,MY,1,100,-35
1576860814.786201,606062.000,39597,3,MY,1,100,-36
1576860814.827286,606096.667,39615,3,MY,1,100,-36
1576860814.868371,606131.333,39615,3,MY,1,100,-35
1576860814.909456,606166.000,39615,3,MY,1,100,-36
1576860814.946590,606197.333,39633,3,MY,1,100,-37
1576860814.983725,606228.667,39633,3,MY,1,100,-35
1576860815.020860,606260.000,39633,3,MY,1,100,-35
1576860815.060364,606293.333,39652,3,MY,1,100,-34
1576860815.099869,606326.667,39652,3,MY,1,100,-35
1576860815.139374,606360.000,39652,3,MY,1,100,-36
1576860815.181250,606395.333,39670,3,MY,1,100,-35
1576860815.223125,606430.667,39670,3,MY,1,100,-36
1576860815.265000,606466.000,39670,3,MY,1,100,-36
1576860815.300555,606496.000,39688,3,MY,1,100,-35
1576860815.336109,606526.000,39688,3,MY,1,100,-35
1576860815.371663,606556.000,39688,3,MY,1,100,-36
1576860815.411958,606590.000,39706,3,MY,1,100,-36
1576860815.452253,606624.000,39706,3,MY,1,100,-36
1576860815.492548,606658.000,39706,3,MY,1,100,-36
1576860815.530177,606689.750,39724,4,MY,1,100,-35
1576860815.567805,606721.500,39724,4,MY,1,100,-36
1576860815.605434,606753.250,39724,4,MY,1,100,-36
1576860815.643062,606785.000,39724,4,MY,1,100,-35
1576860815.686320,606821.500,39742,2,MY,1,100,-36
1576860815.729578,606858.000,39742,2,MY,1,100,-35
1576860815.771058,606893.000,39759,3,MY,1,100,-36
1576860815.812538,606928.000,39759,3,MY,1,100,-35
1576860815.854018,606963.000,39759,3,MY,1,100,-35
1576860815.893918,606996.667,39777,3,MY,1,100,-36
1576860815.933818,607030.333,39777,3,MY,1,100,-36
1576860815.973718,607064.000,39777,3,MY,1,100,-35
1576860816.014803,607098.667,39794,3,MY,1,100,-35
1576860816.055889,607133.333,39794,3,MY,1,100,-36
1576860816.096974,607168.000,39794,3,MY,1,100,-36
1576860816.136084,607201.000,39812,3,MY,1,100,-36
1576860816.175193,607234.000,39812,3,MY,1,100,-35
1576860816.214303,607267.000,39812,3,MY,1,100,-36
1576860816.256178,607302.333,39830,3,MY,1,100,-35
1576860816.298054,607337.667,39830,3,MY,1,100,-35
1576860816.339929,607373.000,39830,3,MY,1,100,-35
1576860816.381014,607407.667,39848,3,MY,1,100,-36
1576860816.422099,607442.333,39848,3,MY,1,100,-36
1576860816.463184,607477.000,39848,3,MY,1,100,-35
1576860816.504664,607512.000,39869,5,MY,1,100,-35
1576860816.546144,607547.000,39869,5,MY,1,100,-36
1576860816.587625,607582.000,39869,5,MY,1,100,-36
1576860816.629105,607617.000,39869,5,MY,1,100,-35
1576860816.670585,607652.000,39869,5,MY,1,100,-35
1576860816.712658,607687.500,39889,2,MY,1,100,-35
1576860816.754730,607723.000,39889,2,MY,1,100,-35
1576860816.792359,607754.750,39907,4,MY,1,100,-36
1576860816.829988,607786.500,39907,4,MY,1,100,-35
1576860816.867616,607818.250,39907,4,MY,1,100,-36
1576860816.905244,607850.000,39907,4,MY,1,100,-37
1576860816.949095,607887.000,39925,2,MY,1,100,-36
1576860816.992945,607924.000,39925,2,MY,1,100,-36
1576860817.033240,607958.000,39944,3,MY,1,100,-36
1576860817.073535,607992.000,39944,3,MY,1,100,-35
1576860817.113830,608026.000,39944,3,MY,1,100,-35
1576860817.154520,608060.333,39962,3,MY,1,100,-35
1576860817.195210,608094.667,39962,3,MY,1,100,-36
1576860817.235900,608129.000,39962,3,MY,1,100,-37
1576860817.277776,608164.333,39980,3,MY,1,100,-35
1576860817.319651,608199.667,39980,3,MY,1,100,-37
1576860817.361526,608235.000,39980,3,MY,1,100,-36
1576860817.399155,608266.750,39998,4,MY,1,100,-35
1576860817.436783,608298.500,39998,4,MY,1,100,-35
1576860817.474411,608330.250,39998,4,MY,1,100,-36
1576860817.512040,608362.000,39998,4,MY,1,100,-36
1576860817.549965,608394.000,40015,2,MY,1,100,-35
1576860817.587889,608426.000,40015,2,MY,1,100,-35
1576860817.632135,608463.333,40033,3,MY,1,100,-36
1576860817.676380,608500.667,40033,3,MY,1,100,-35
1576860817.720626,608538.000,40033,3,MY,1,100,-35
1576860817.762106,608573.000,40049,3,MY,1,100,-35
1576860817.803586,608608.000,40049,3,MY,1,100,-35
1576860817.845066,608643.000,40049,3,MY,1,100,-36
1576860817.886547,608678.000,40067,3,MY,1,100,-35
1576860817.928027,608713.000,40067,3,MY,1,100,-34
1576860817.969507,608748.000,40067,3,MY,1,100,-35
1576860818.007432,608780.000,40086,3,MY,1,100,-35
1576860818.045356,608812.000,40086,3,MY,1,100,-35
1576860818.083281,608844.000,40086,3,MY,1,100,-36
1576860818.121206,608876.000,40104,3,MY,1,100,-36
1576860818.159131,608908.000,40104,3,MY,1,100,-34
1576860818.197055,608940.000,40104,3,MY,1,100,-35
1576860818.241301,608977.333,40122,3,MY,1,100,-35
1576860818.285546,609014.667,40122,3,MY,1,100,-36
1576860818.329792,609052.000,40122,3,MY,1,100,-36
1576860818.370877,609086.667,40140,3,MY,1,100,-35
1576860818.411962,609121.333,40140,3,MY,1,100,-34
1576860818.453047,609156.000,40140,3,MY,1,100,-35
1576860818.493737,609190.333,40158,3,MY,1,100,-35
1576860818.534427,609224.667,40158,3,MY,1,100,-36
1576860818.575117,609259.000,40158,3,MY,1,100,-36
1576860818.614227,609292.000,40176,3,MY,1,100,-36
1576860818.653337,609325.000,40176,3,MY,1,100,-34
1576860818.692447,609358.000,40176,3,MY,1,100,-37
1576860818.729582,609389.333,40194,3,MY,1,100,-36
1576860818.766716,609420.667,40194,3,MY,1,100,-36
1576860818.803851,609452.000,40194,3,MY,1,100,-35
1576860818.847701,609489.000,40211,3,MY,1,100,-35
1576860818.891552,609526.000,40211,3,MY,1,100,-35
1576860818.935402,609563.000,40211,3,MY,1,100,-35
1576860818.976882,609598.000,40227,3,MY,1,100,-36
1576860819.018363,609633.000,40227,3,MY,1,100,-35
1576860819.059843,609668.000,40227,3,MY,1,100,-36
1576860819.100928,609702.667,40246,3,MY,1,100,-35
1576860819.142013,609737.333,40246,3,MY,1,100,-36
1576860819.183098,609772.000,40246,3,MY,1,100,-34
1576860819.221813,609804.667,40264,3,MY,1,100,-36
1576860819.260528,609837.333,40264,3,MY,1,100,-36
1576860819.299242,609870.000,40264,3,MY,1,100,-36
1576860819.344871,609908.500,40282,2,MY,1,100,-36
1576860819.390499,609947.000,40282,2,MY,1,100,-36
1576860819.429312,609979.750,40300,4,MY,1,100,-35
1576860819.468126,610012.500,40300,4,MY,1,100,-36
1576860819.506940,610045.250,40300,4,MY,1,100,-34
1576860819.545753,610078.000,40300,4,MY,1,100,-36
1576860819.591974,610117.000,40318,2,MY,1,100,-36
1576860819.638195,610156.000,40318,2,MY,1,100,-36
1576860819.676119,610188.000,40335,3,MY,1,100,-35
1576860819.714044,610220.000,40335,3,MY,1,100,-35
1576860819.751969,610252.000,40335,3,MY,1,100,-36
1576860819.797400,610290.333,40353,3,MY,1,100,-35
1576860819.842830,610328.667,40353,3,MY,1,100,-35
1576860819.888261,610367.000,40353,3,MY,1,100,-36
1576860819.928951,610401.333,40369,3,MY,1,100,-35
1576860819.969641,610435.667,40369,3,MY,1,100,-37
1576860820.010331,610470.000,40369,3,MY,1,100,-34
1576860820.051416,610504.667,40388,3,MY,1,100,-35
1576860820.092501,610539.333,40388,3,MY,1,100,-35
1576860820.133586,610574.000,40388,3,MY,1,100,-35
1576860820.175462,610609.333,40406,3,MY,1,100,-36
1576860820.217337,610644.667,40406,3,MY,1,100,-36
1576860820.259212,610680.000,40406,3,MY,1,100,-36
1576860820.301087,610715.333,40424,3,MY,1,100,-35
1576860820.342963,610750.667,40424,3,MY,1,100,-35
1576860820.384838,610786.000,40424,3,MY,1,100,-35
1576860820.426318,610821.000,40442,2,MY,1,100,-35
1576860820.467798,610856.000,40442,2,MY,1,100,-37
1576860820.506908,610889.000,40460,4,MY,1,100,-33
1576860820.546018,610922.000,40460,4,MY,1,100,-36
1576860820.585128,610955.000,40460,4,MY,1,100,-36
1576860820.624238,610988.000,40460,4,MY,1,100,-36
1576860820.661767,611019.667,40478,3,MY,1,100,-35
1576860820.699297,611051.333,40478,3,MY,1,100,-36
1576860820.736826,611083.000,40478,3,MY,1,100,-35
1576860820.777517,611117.333,40495,3,MY,1,100,-36
1576860820.818207,611151.667,40495,3,MY,1,100,-35
1576860820.858897,611186.000,40495,3,MY,1,100,-36
1576860820.899192,611220.000,40513,3,MY,1,100,-35
1576860820.939487,611254.000,40513,3,MY,1,100,-36
1576860820.979782,611288.000,40513,3,MY,1,100,-36
1576860821.020077,611322.000,40529,2,MY,1,100,-36
1576860821.060372,611356.000,40529,2,MY,1,100,-36
1576860821.105407,611394.000,40548,3,MY,1,100,-35
1576860821.150443,611432.000,40548,3,MY,1,100,-36
1576860821.195478,611470.000,40548,3,MY,1,100,-36
1576860821.236169,611504.333,40566,3,MY,1,100,-36
1576860821.276859,611538.667,40566,3,MY,1,100,-35
1576860821.317549,611573.000,40566,3,MY,1,100,-36
1576860821.357054,611606.333,40584,3,MY,1,100,-35
1576860821.396559,611639.667,40584,3,MY,1,100,-36
1576860821.436064,611673.000,40584,3,MY,1,100,-36
1576860821.473593,611704.667,40602,3,MY,1,100,-34
1576860821.511123,611736.333,40602,3,MY,1,100,-36
1576860821.548653,611768.000,40602,3,MY,1,100,-35
1576860821.587762,611801.000,40620,3,MY,1,100,-36
1576860821.626872,611834.000,40620,3,MY,1,100,-36
1576860821.665982,611867.000,40620,3,MY,1,100,-35
1576860821.711018,611905.000,40638,3,MY,1,100,-35
1576860821.756053,611943.000,40638,3,MY,1,100,-36
1576860821.801089,611981.000,40638,3,MY,1,100,-35
1576860821.841779,612015.333,40655,3,MY,1,100,-35
1576860821.882469,612049.667,40655,3,MY,1,100,-36
1576860821.923159,612084.000,40655,3,MY,1,100,-36
1576860821.962269,612117.000,40673,3,MY,1,100,-36
1576860822.001379,612150.000,40673,3,MY,1,100,-36
1576860822.040489,612183.000,40673,3,MY,1,100,-35
1576860822.078809,612215.333,40692,3,MY,1,100,-36
1576860822.117128,612247.667,40692,3,MY,1,100,-36
1576860822.155448,612280.000,40692,3,MY,1,100,-36
1576860822.195348,612313.667,40708,3,MY,1,100,-35
1576860822.235248,612347.333,40708,3,MY,1,100,-35
1576860822.275148,612381.000,40708,3,MY,1,100,-36
1576860822.316628,612416.000,40726,3,MY,1,100,-35
1576860822.358108,612451.000,40726,3,MY,1,100,-35
1576860822.399589,612486.000,40726,3,MY,1,100,-35
1576860822.444229,612523.667,40744,3,MY,1,100,-36
1576860822.488870,612561.333,40744,3,MY,1,100,-35
1576860822.533510,612599.000,40744,3,MY,1,100,-35
1576860822.572146,612631.600,40765,5,MY,1,100,-35
1576860822.610782,612664.200,40765,5,MY,1,100,-36
1576860822.649418,612696.800,40765,5,MY,1,100,-35
1576860822.688053,612729.400,40765,5,MY,1,100,-35
1576860822.726689,612762.000,40765,5,MY,1,100,-35
1576860822.764614,612794.000,40785,3,MY,1,100,-36
1576860822.802539,612826.000,40785,3,MY,1,100,-35
1576860822.840463,612858.000,40785,3,MY,1,100,-34
1576860822.881548,612892.667,40801,3,MY,1,100,-37
1576860822.922634,612927.333,40801,3,MY,1,100,-36
1576860822.963719,612962.000,40801,3,MY,1,100,-35
1576860823.010532,613001.500,40819,2,MY,1,100,-34
1576860823.057345,613041.000,40819,2,MY,1,100,-36
1576860823.095270,613073.000,40838,3,MY,1,100,-35
1576860823.133195,613105.000,40838,3,MY,1,100,-35
1576860823.171119,613137.000,40838,3,MY,1,100,-35
1576860823.216155,613175.000,40856,3,MY,1,100,-36
1576860823.261191,613213.000,40856,3,MY,1,100,-35
1576860823.306226,613251.000,40856,3,MY,1,100,-36
1576860823.344151,613283.000,40874,3,MY,1,100,-35
1576860823.382076,613315.000,40874,3,MY,1,100,-35
1576860823.420001,613347.000,40874,3,MY,1,100,-35
1576860823.462271,613382.667,40892,3,MY,1,100,-36
1576860823.504541,613418.333,40892,3,MY,1,100,-36
1576860823.546811,613454.000,40892,3,MY,1,100,-36
1576860823.587897,613488.667,40909,3,MY,1,100,-35
1576860823.628982,613523.333,40909,3,MY,1,100,-35
1576860823.670067,613558.000,40909,3,MY,1,100,-34
1576860823.711942,613593.333,40927,3,MY,1,100,-34
1576860823.753817,613628.667,40927,3,MY,1,100,-36
1576860823.795692,613664.000,40927,3,MY,1,100,-35
1576860823.836580,613698.500,40943,2,MY,1,100,-34
1576860823.877468,613733.000,40943,2,MY,1,100,-35
1576860823.922503,613771.000,40961,3,MY,1,100,-35
1576860823.967539,613809.000,40961,3,MY,1,100,-36
1576860824.012574,613847.000,40961,3,MY,1,100,-35
1576860824.052079,613880.333,40980,3,MY,1,100,-37
1576860824.091584,613913.667,40980,3,MY,1,100,-36
1576860824.131089,613947.000,40980,3,MY,1,100,-35
1576860824.173754,613983.000,40998,3,MY,1,100,-36
1576860824.216420,614019.000,40998,3,MY,1,100,-36
1576860824.259085,614055.000,40998,3,MY,1,100,-36
1576860824.297405,614087.333,41016,3,MY,1,100,-35
1576860824.335725,614119.667,41016,3,MY,1,100,-35
1576860824.374044,614152.000,41016,3,MY,1,100,-36
1576860824.412364,614184.333,41034,3,MY,1,100,-34
1576860824.450684,614216.667,41034,3,MY,1,100,-36
1576860824.489004,614249.000,41034,3,MY,1,100,-35
1576860824.529299,614283.000,41052,3,MY,1,100,-35
1576860824.569594,614317.000,41052,3,MY,1,100,-35
1576860824.609889,614351.000,41052,3,MY,1,100,-35
1576860824.651369,614386.000,41069,3,MY,1,100,-37
1576860824.692849,614421.000,41069,3,MY,1,100,-35
1576860824.734329,614456.000,41069,3,MY,1,100,-35
1576860824.774624,614490.000,41087,3,MY,1,100,-36
1576860824.814919,614524.000,41087,3,MY,1,100,-35
1576860824.855214,614558.000,41087,3,MY,1,100,-36
1576860824.896299,614592.667,41103,3,MY,1,100,-37
1576860824.937385,614627.333,41103,3,MY,1,100,-34
1576860824.978470,614662.000,41103,3,MY,1,100,-35
1576860825.023505,614700.000,41121,3,MY,1,100,-37
1576860825.068541,614738.000,41121,3,MY,1,100,-35
1576860825.113576,614776.000,41121,3,MY,1,100,-34
1576860825.151501,614808.000,41140,3,MY,1,100,-35
1576860825.189426,614840.000,41140,3,MY,1,100,-35
1576860825.227351,614872.000,41140,3,MY,1,100,-35
1576860825.264485,614903.333,41158,3,MY,1,100,-33
1576860825.301620,614934.667,41158,3,MY,1,100,-35
1576860825.338754,614966.000,41158,3,MY,1,100,-36
1576860825.379050,615000.000,41176,3,MY,1,100,-36
1576860825.419344,615034.000,41176,3,MY,1,100,-37
1576860825.459640,615068.000,41176,3,MY,1,100,-35
1576860825.500329,615102.333,41194,3,MY,1,100,-35
1576860825.541020,615136.667,41194,3,MY,1,100,-35
1576860825.581710,615171.000,41194,3,MY,1,100,-35
1576860825.627140,615209.333,41212,3,MY,1,100,-35
1576860825.672571,615247.667,41212,3,MY,1,100,-37
1576860825.718002,615286.000,41212,3,MY,1,100,-37
1576860825.756321,615318.333,41229,3,MY,1,100,-35
1576860825.794641,615350.667,41229,3,MY,1,100,-35
1576860825.832961,615383.000,41229,3,MY,1,100,-36
1576860825.870096,615414.333,41247,3,MY,1,100,-36
1576860825.907230,615445.667,41247,3,MY,1,100,-36
1576860825.944365,615477.000,41247,3,MY,1,100,-35
1576860825.984265,615510.667,41265,3,MY,1,100,-35
1576860826.024165,615544.333,41265,3,MY,1,100,-36
1576860826.064065,615578.000,41265,3,MY,1,100,-35
1576860826.105545,615613.000,41282,3,MY,1,100,-35
1576860826.147025,615648.000,41282,3,MY,1,100,-36
1576860826.188505,615683.000,41282,3,MY,1,100,-34
1576860826.229393,615717.500,41300,2,MY,1,100,-36
1576860826.270281,615752.000,41300,2,MY,1,100,-37
1576860826.312057,615787.250,41318,4,MY,1,100,-35
1576860826.353833,615822.500,41318,4,MY,1,100,-36
1576860826.395610,615857.750,41318,4,MY,1,100,-36
1576860826.437386,615893.000,41318,4,MY,1,100,-36
1576860826.475311,615925.000,41336,3,MY,1,100,-35
1576860826.513236,615957.000,41336,3,MY,1,100,-36
1576860826.551161,615989.000,41336,3,MY,1,100,-36
1576860826.590665,616022.333,41354,3,MY,1,100,-35
1576860826.630170,616055.667,41354,3,MY,1,100,-34
1576860826.669675,616089.000,41354,3,MY,1,100,-36
1576860826.710760,616123.667,41372,3,MY,1,100,-36
1576860826.751845,616158.333,41372,3,MY,1,100,-35
1576860826.792931,616193.000,41372,3,MY,1,100,-36
1576860826.834411,616228.000,41390,2,MY,1,100,-35
1576860826.875891,616263.000,41390,2,MY,1,100,-37
1576860826.919741,616300.000,41408,3,MY,1,100,-36
1576860826.963592,616337.000,41408,3,MY,1,100,-35
1576860827.007442,616374.000,41408,3,MY,1,100,-35
1576860827.045367,616406.000,41426,3,MY,1,100,-35
1576860827.083292,616438.000,41426,3,MY,1,100,-36
1576860827.121217,616470.000,41426,3,MY,1,100,-36
1576860827.161116,616503.667,41444,3,MY,1,100,-36
1576860827.201016,616537.333,41444,3,MY,1,100,-35
1576860827.240916,616571.000,41444,3,MY,1,100,-35
1576860827.281606,616605.333,41460,3,MY,1,100,-36
1576860827.322296,616639.667,41460,3,MY,1,100,-35
1576860827.362987,616674.000,41460,3,MY,1,100,-35
1576860827.400911,616706.000,41478,4,MY,1,100,-36
1576860827.438836,616738.000,41478,4,MY,1,100,-35
1576860827.476761,616770.000,41478,4,MY,1,100,-36
1576860827.514685,616802.000,41478,4,MY,1,100,-35
1576860827.554585,616835.667,41496,3,MY,1,100,-36
1576860827.594485,616869.333,41496,3,MY,1,100,-36
1576860827.634385,616903.000,41496,3,MY,1,100,-36
1576860827.670730,616933.667,41514,3,MY,1,100,-35
1576860827.707074,616964.333,41514,3,MY,1,100,-35
1576860827.743419,616995.000,41514,3,MY,1,100,-36
1576860827.784899,617030.000,41532,3,MY,1,100,-35
1576860827.826379,617065.000,41532,3,MY,1,100,-34
1576860827.867859,617100.000,41532,3,MY,1,100,-35
1576860827.908550,617134.333,41550,3,MY,1,100,-35
1576860827.949239,617168.667,41550,3,MY,1,100,-35
1576860827.989930,617203.000,41550,3,MY,1,100,-35
1576860828.028250,617235.333,41568,3,MY,1,100,-35
1576860828.066569,617267.667,41568,3,MY,1,100,-36
1576860828.104889,617300.000,41568,3,MY,1,100,-35
1576860828.142419,617331.667,41587,3,MY,1,100,-36
1576860828.179948,617363.333,41587,3,MY,1,100,-36
1576860828.217478,617395.000,41587,3,MY,1,100,-35
1576860828.257773,617429.000,41605,3,MY,1,100,-36
1576860828.298068,617463.000,41605,3,MY,1,100,-35
1576860828.338363,617497.000,41605,3,MY,1,100,-34
1576860828.380238,617532.333,41622,3,MY,1,100,-35
1576860828.422113,617567.667,41622,3,MY,1,100,-35
1576860828.463989,617603.000,41622,3,MY,1,100,-35
1576860828.505864,617638.333,41640,3,MY,1,100,-35
1576860828.547739,617673.667,41640,3,MY,1,100,-35
1576860828.589614,617709.000,41640,3,MY,1,100,-35
1576860828.630798,617743.750,41661,4,MY,1,100,-34
1576860828.671982,617778.500,41661,4,MY,1,100,-35
1576860828.713166,617813.250,41661,4,MY,1,100,-35
1576860828.754350,617848.000,41661,4,MY,1,100,-36
1576860828.797805,617884.667,41681,3,MY,1,100,-35
1576860828.841261,617921.333,41681,3,MY,1,100,-35
1576860828.884716,617958.000,41681,3,MY,1,100,-36
1576860828.922641,617990.000,41699,3,MY,1,100,-35
1576860828.960566,618022.000,41699,3,MY,1,100,-36
1576860828.998490,618054.000,41699,3,MY,1,100,-35
1576860829.037600,618087.000,41717,3,MY,1,100,-35
1576860829.076710,618120.000,41717,3,MY,1,100,-35
1576860829.115820,618153.000,41717,3,MY,1,100,-35
1576860829.156905,618187.667,41735,3,MY,1,100,-34
1576860829.197990,618222.333,41735,3,MY,1,100,-34
1576860829.239075,618257.000,41735,3,MY,1,100,-36
1576860829.279370,618291.000,41751,3,MY,1,100,-35
1576860829.319665,618325.000,41751,3,MY,1,100,-35
1576860829.359960,618359.000,41751,3,MY,1,100,-36
1576860829.399465,618392.333,41769,3,MY,1,100,-37
1576860829.438970,618425.667,41769,3,MY,1,100,-36
1576860829.478475,618459.000,41769,3,MY,1,100,-35
1576860829.519955,618494.000,41787,3,MY,1,100,-35
1576860829.561435,618529.000,41787,3,MY,1,100,-36
1576860829.602916,618564.000,41787,3,MY,1,100,-34
1576860829.642420,618597.333,41805,3,MY,1,100,-35
1576860829.681925,618630.667,41805,3,MY,1,100,-34
1576860829.721430,618664.000,41805,3,MY,1,100,-35
1576860829.762120,618698.333,41823,3,MY,1,100,-36
1576860829.802810,618732.667,41823,3,MY,1,100,-35
1576860829.843500,618767.000,41823,3,MY,1,100,-36
1576860829.884981,618802.000,41841,3,MY,1,100,-36
1576860829.926461,618837.000,41841,3,MY,1,100,-35
1576860829.967941,618872.000,41841,3,MY,1,100,-34
1576860830.008236,618906.000,41859,3,MY,1,100,-35
1576860830.048531,618940.000,41859,3,MY,1,100,-35
1576860830.088826,618974.000,41859,3,MY,1,100,-36
1576860830.126751,619006.000,41878,3,MY,1,100,-35
1576860830.164675,619038.000,41878,3,MY,1,100,-35
1576860830.202600,619070.000,41878,3,MY,1,100,-35
1576860830.244870,619105.667,41895,3,MY,1,100,-36
1576860830.287141,619141.333,41895,3,MY,1,100,-35
1576860830.329411,619177.000,41895,3,MY,1,100,-35
1576860830.369706,619211.000,41913,3,MY,1,100,-35
1576860830.410001,619245.000,41913,3,MY,1,100,-34
1576860830.450296,619279.000,41913,3,MY,1,100,-33
1576860830.491381,619313.667,41929,3,MY,1,100,-34
1576860830.532466,619348.333,41929,3,MY,1,100,-35
1576860830.573551,619383.000,41929,3,MY,1,100,-33
1576860830.615624,619418.500,41947,2,MY,1,100,-36
1576860830.657697,619454.000,41947,2,MY,1,100,-34
1576860830.695226,619485.667,41965,3,MY,1,100,-34
1576860830.732756,619517.333,41965,3,MY,1,100,-34
1576860830.770286,619549.000,41965,3,MY,1,100,-35
1576860830.809099,619581.750,41983,4,MY,1,100,-35
1576860830.847913,619614.500,41983,4,MY,1,100,-34
1576860830.886727,619647.250,41983,4,MY,1,100,-36
1576860830.925540,619680.000,41983,4,MY,1,100,-36
1576860830.966625,619714.667,42001,3,MY,1,100,-36
1576860831.007710,619749.333,42001,3,MY,1,100,-34
1576860831.048795,619784.000,42001,3,MY,1,100,-36
1576860831.083560,619813.333,42020,3,MY,1,100,-35
1576860831.118324,619842.667,42020,3,MY,1,100,-36
1576860831.153089,619872.000,42020,3,MY,1,100,-35
1576860831.194964,619907.333,42038,3,MY,1,100,-35
1576860831.236839,619942.667,42038,3,MY,1,100,-36
1576860831.278714,619978.000,42038,3,MY,1,100,-36
1576860831.313083,620007.000,42056,3,MY,1,100,-34
1576860831.347453,620036.000,42056,3,MY,1,100,-35
1576860831.381822,620065.000,42056,3,MY,1,100,-35
1576860831.420339,620097.500,42074,4,MY,1,100,-35
1576860831.458857,620130.000,42074,4,MY,1,100,-35
1576860831.497374,620162.500,42074,4,MY,1,100,-35
1576860831.535891,620195.000,42074,4,MY,1,100,-35
1576860831.579149,620231.500,42092,2,MY,1,100,-35
1576860831.622407,620268.000,42092,2,MY,1,100,-36
1576860831.657961,620298.000,42110,4,MY,1,100,-35
1576860831.693516,620328.000,42110,4,MY,1,100,-36
1576860831.729070,620358.000,42110,4,MY,1,100,-35
1576860831.764625,620388.000,42110,4,MY,1,100,-34
1576860831.805315,620422.333,42128,3,MY,1,100,-35
1576860831.846005,620456.667,42128,3,MY,1,100,-36
1576860831.886695,620491.000,42128,3,MY,1,100,-35
1576860831.926990,620525.000,42145,3,MY,1,100,-35
1576860831.967285,620559.000,42145,3,MY,1,100,-36
1576860832.007580,620593.000,42145,3,MY,1,100,-35
1576860832.049060,620628.000,42164,3,MY,1,100,-35
1576860832.090540,620663.000,42164,3,MY,1,100,-36
1576860832.132020,620698.000,42164,3,MY,1,100,-35
1576860832.173501,620733.000,42180,2,MY,1,100,-35
1576860832.214981,620768.000,42180,2,MY,1,100,-36
1576860832.256856,620803.333,42198,3,MY,1,100,-33
1576860832.298731,620838.667,42198,3,MY,1,100,-34
1576860832.340606,620874.000,42198,3,MY,1,100,-36
1576860832.382087,620909.000,42216,3,MY,1,100,-36
1576860832.423567,620944.000,42216,3,MY,1,100,-34
1576860832.465047,620979.000,42216,3,MY,1,100,-35
1576860832.503762,621011.667,42234,3,MY,1,100,-35
1576860832.542476,621044.333,42234,3,MY,1,100,-36
1576860832.581191,621077.000,42234,3,MY,1,100,-35
1576860832.622672,621112.000,42252,3,MY,1,100,-35
1576860832.664152,621147.000,42252,3,MY,1,100,-36
1576860832.705632,621182.000,42252,3,MY,1,100,-35
1576860832.745532,621215.667,42270,3,MY,1,100,-36
1576860832.785432,621249.333,42270,3,MY,1,100,-36
1576860832.825332,621283.000,42270,3,MY,1,100,-35
1576860832.866417,621317.667,42288,3,MY,1,100,-35
1576860832.907502,621352.333,42288,3,MY,1,100,-35
1576860832.948587,621387.000,42288,3,MY,1,100,-36
1576860832.988882,621421.000,42306,3,MY,1,100,-33
1576860833.029177,621455.000,42306,3,MY,1,100,-35
1576860833.069472,621489.000,42306,3,MY,1,100,-35
1576860833.109372,621522.667,42324,3,MY,1,100,-36
1576860833.149272,621556.333,42324,3,MY,1,100,-35
1576860833.189172,621590.000,42324,3,MY,1,100,-35
1576860833.226702,621621.667,42342,3,MY,1,100,-35
1576860833.264231,621653.333,42342,3,MY,1,100,-34
1576860833.301761,621685.000,42342,3,MY,1,100,-35
1576860833.345217,621721.667,42358,3,MY,1,100,-36
1576860833.388672,621758.333,42358,3,MY,1,100,-35
1576860833.432127,621795.000,42358,3,MY,1,100,-35
1576860833.473608,621830.000,42376,3,MY,1,100,-36
1576860833.515088,621865.000,42376,3,MY,1,100,-35
1576860833.556568,621900.000,42376,3,MY,1,100,-35
1576860833.597258,621934.333,42394,3,MY,1,100,-35
1576860833.637948,621968.667,42394,3,MY,1,100,-34
1576860833.678638,622003.000,42394,3,MY,1,100,-36
1576860833.718538,622036.667,42412,3,MY,1,100,-35
1576860833.758438,622070.333,42412,3,MY,1,100,-36
1576860833.798338,622104.000,42412,3,MY,1,100,-36
1576860833.836658,622136.333,42430,3,MY,1,100,-36
1576860833.874977,622168.667,42430,3,MY,1,100,-35
1576860833.913297,622201.000,42430,3,MY,1,100,-35
1576860833.956357,622237.333,42448,3,MY,1,100,-36
1576860833.999418,622273.667,42448,3,MY,1,100,-36
1576860834.042478,622310.000,42448,3,MY,1,100,-35
1576860834.082773,622344.000,42467,3,MY,1,100,-35
1576860834.123068,622378.000,42467,3,MY,1,100,-36
1576860834.163363,622412.000,42467,3,MY,1,100,-35
1576860834.204844,622447.000,42484,2,MY,1,100,-36
1576860834.246324,622482.000,42484,2,MY,1,100,-35
1576860834.286322,622515.750,42502,4,MY,1,100,-35
1576860834.326321,622549.500,42502,4,MY,1,100,-35
1576860834.366320,622583.250,42502,4,MY,1,100,-34
1576860834.406319,622617.000,42502,4,MY,1,100,-36
1576860834.443058,622648.000,42520,3,MY,1,100,-37
1576860834.479798,622679.000,42520,3,MY,1,100,-35
1576860834.516537,622710.000,42520,3,MY,1,100,-35
1576860834.555647,622743.000,42536,2,MY,1,100,-35
1576860834.594757,622776.000,42536,2,MY,1,100,-35
1576860834.636237,622811.000,42557,6,MY,1,100,-37
1576860834.677717,622846.000,42557,6,MY,1,100,-35
1576860834.719198,622881.000,42557,6,MY,1,100,-36
1576860834.760678,622916.000,42557,6,MY,1,100,-35
1576860834.802158,622951.000,42557,6,MY,1,100,-35
1576860834.843638,622986.000,42557,6,MY,1,100,-35
1576860834.878007,623015.000,42577,3,MY,1,100,-35
1576860834.912377,623044.000,42577,3,MY,1,100,-35
1576860834.946746,623073.000,42577,3,MY,1,100,-34
1576860834.987041,623107.000,42595,2,MY,1,100,-35
1576860835.027336,623141.000,42595,2,MY,1,100,-35
1576860835.071581,623178.333,42613,3,MY,1,100,-35
1576860835.115827,623215.667,42613,3,MY,1,100,-36
1576860835.160073,623253.000,42613,3,MY,1,100,-36
1576860835.201948,623288.333,42629,3,MY,1,100,-35
1576860835.243823,623323.667,42629,3,MY,1,100,-36
1576860835.285698,623359.000,42629,3,MY,1,100,-36
1576860835.326783,623393.667,42647,3,MY,1,100,-36
1576860835.367868,623428.333,42647,3,MY,1,100,-35
1576860835.408953,623463.000,42647,3,MY,1,100,-35
1576860835.451224,623498.667,42665,3,MY,1,100,-34
1576860835.493494,623534.333,42665,3,MY,1,100,-36
1576860835.535764,623570.000,42665,3,MY,1,100,-35
1576860835.576849,623604.667,42683,3,MY,1,100,-35
1576860835.617934,623639.333,42683,3,MY,1,100,-35
1576860835.659020,623674.000,42683,3,MY,1,100,-35
1576860835.700105,623708.667,42701,3,MY,1,100,-35
1576860835.741190,623743.333,42701,3,MY,1,100,-35
1576860835.782275,623778.000,42701,3,MY,1,100,-36
1576860835.823360,623812.667,42719,3,MY,1,100,-34
1576860835.864445,623847.333,42719,3,MY,1,100,-35
1576860835.905530,623882.000,42719,3,MY,1,100,-35
1576860835.947603,623917.500,42736,2,MY,1,100,-36
1576860835.989676,623953.000,42736,2,MY,1,100,-35
1576860836.030267,623987.250,42755,4,MY,1,100,-35
1576860836.070858,624021.500,42755,4,MY,1,100,-33
1576860836.111450,624055.750,42755,4,MY,1,100,-36
1576860836.152041,624090.000,42755,4,MY,1,100,-34
1576860836.194114,624125.500,42771,2,MY,1,100,-37
1576860836.236187,624161.000,42771,2,MY,1,100,-35
1576860836.273815,624192.750,42789,4,MY,1,100,-36
1576860836.311443,624224.500,42789,4,MY,1,100,-35
1576860836.349072,624256.250,42789,4,MY,1,100,-34
1576860836.386700,624288.000,42789,4,MY,1,100,-36
1576860836.425415,624320.667,42807,3,MY,1,100,-36
1576860836.464130,624353.333,42807,3,MY,1,100,-36
1576860836.502845,624386.000,42807,3,MY,1,100,-36
1576860836.549065,624425.000,42825,2,MY,1,100,-36
1576860836.595286,624464.000,42825,2,MY,1,100,-37
1576860836.633507,624496.250,42843,4,MY,1,100,-34
1576860836.671728,624528.500,42843,4,MY,1,100,-35
1576860836.709949,624560.750,42843,4,MY,1,100,-35
1576860836.748170,624593.000,42843,4,MY,1,100,-35
1576860836.794391,624632.000,42861,2,MY,1,100,-35
1576860836.840612,624671.000,42861,2,MY,1,100,-36
1576860836.881697,624705.667,42879,3,MY,1,100,-36
1576860836.922782,624740.333,42879,3,MY,1,100,-35
1576860836.963867,624775.000,42879,3,MY,1,100,-36
1576860837.003767,624808.667,42897,3,MY,1,100,-35
1576860837.043667,624842.333,42897,3,MY,1,100,-35
1576860837.083567,624876.000,42897,3,MY,1,100,-35
1576860837.121887,624908.333,42915,3,MY,1,100,-35
1576860837.160207,624940.667,42915,3,MY,1,100,-35
1576860837.198526,624973.000,42915,3,MY,1,100,-35
1576860837.236451,625005.000,42933,3,MY,1,100,-36
1576860837.274376,625037.000,42933,3,MY,1,100,-35
1576860837.312300,625069.000,42933,3,MY,1,100,-36
1576860837.356546,625106.333,42949,3,MY,1,100,-35
1576860837.400791,625143.667,42949,3,MY,1,100,-35
1576860837.445037,625181.000,42949,3,MY,1,100,-34
1576860837.486122,625215.667,42967,3,MY,1,100,-34
1576860837.527207,625250.333,42967,3,MY,1,100,-36
1576860837.568292,625285.000,42967,3,MY,1,100,-36
1576860837.608982,625319.333,42985,3,MY,1,100,-36
1576860837.649673,625353.667,42985,3,MY,1,100,-35
1576860837.690362,625388.000,42985,3,MY,1,100,-35
1576860837.727892,625419.667,43003,3,MY,1,100,-35
1576860837.765422,625451.333,43003,3,MY,1,100,-34
1576860837.802952,625483.000,43003,3,MY,1,100,-35
1576860837.841271,625515.333,43021,3,MY,1,100,-35
1576860837.879591,625547.667,43021,3,MY,1,100,-36
1576860837.917911,625580.000,43021,3,MY,1,100,-35
1576860837.958601,625614.333,43039,3,MY,1,100,-35
1576860837.999291,625648.667,43039,3,MY,1,100,-36
1576860838.039981,625683.000,43039,3,MY,1,100,-36
1576860838.081066,625717.667,43058,3,MY,1,100,-36
1576860838.122151,625752.333,43058,3,MY,1,100,-36
1576860838.163236,625787.000,43058,3,MY,1,100,-35
1576860838.208272,625825.000,43075,3,MY,1,100,-35
1576860838.253308,625863.000,43075,3,MY,1,100,-36
1576860838.298343,625901.000,43075,3,MY,1,100,-35
1576860838.335873,625932.667,43093,3,MY,1,100,-35
1576860838.373403,625964.333,43093,3,MY,1,100,-35
1576860838.410932,625996.000,43093,3,MY,1,100,-35
1576860838.448462,626027.667,43111,3,MY,1,100,-36
1576860838.485992,626059.333,43111,3,MY,1,100,-35
1576860838.523521,626091.000,43111,3,MY,1,100,-34
1576860838.563816,626125.000,43129,3,MY,1,100,-36
1576860838.604111,626159.000,43129,3,MY,1,100,-35
1576860838.644406,626193.000,43129,3,MY,1,100,-36
1576860838.688652,626230.333,43145,3,MY,1,100,-34
1576860838.732897,626267.667,43145,3,MY,1,100,-35
1576860838.777143,626305.000,43145,3,MY,1,100,-35
1576860838.815858,626337.667,43163,3,MY,1,100,-36
1576860838.854573,626370.333,43163,3,MY,1,100,-36
1576860838.893287,626403.000,43163,3,MY,1,100,-34
1576860838.939508,626442.000,43181,2,MY,1,100,-37
1576860838.985729,626481.000,43181,2,MY,1,100,-35
1576860839.024839,626514.000,43200,4,MY,1,100,-37
1576860839.063949,626547.000,43200,4,MY,1,100,-37
1576860839.103059,626580.000,43200,4,MY,1,100,-35
1576860839.142168,626613.000,43200,4,MY,1,100,-35
1576860839.188982,626652.500,43218,2,MY,1,100,-35
1576860839.235795,626692.000,43218,2,MY,1,100,-34
1576860839.274510,626724.667,43235,3,MY,1,100,-35
1576860839.313225,626757.333,43235,3,MY,1,100,-35
1576860839.351939,626790.000,43235,3,MY,1,100,-35
1576860839.396975,626828.000,43253,3,MY,1,100,-36
1576860839.442011,626866.000,43253,3,MY,1,100,-37
1576860839.487046,626904.000,43253,3,MY,1,100,-36
1576860839.524971,626936.000,43269,3,MY,1,100,-36
1576860839.562896,626968.000,43269,3,MY,1,100,-35
1576860839.600821,627000.000,43269,3,MY,1,100,-35
1576860839.645856,627038.000,43287,3,MY,1,100,-34
1576860839.690892,627076.000,43287,3,MY,1,100,-35
1576860839.735927,627114.000,43287,3,MY,1,100,-36
1576860839.775432,627147.333,43305,3,MY,1,100,-36
1576860839.814937,627180.667,43305,3,MY,1,100,-35
1576860839.854442,627214.000,43305,3,MY,1,100,-35
1576860839.896317,627249.333,43323,3,MY,1,100,-35
1576860839.938192,627284.667,43323,3,MY,1,100,-35
1576860839.980068,627320.000,43323,3,MY,1,100,-35
1576860840.018388,627352.333,43341,3,MY,1,100,-36
1576860840.056707,627384.667,43341,3,MY,1,100,-36
1576860840.095027,627417.000,43341,3,MY,1,100,-36
1576860840.132557,627448.667,43360,3,MY,1,100,-34
1576860840.170086,627480.333,43360,3,MY,1,100,-35
1576860840.207616,627512.000,43360,3,MY,1,100,-37
1576860840.247911,627546.000,43378,3,MY,1,100,-34
1576860840.288206,627580.000,43378,3,MY,1,100,-35
1576860840.328501,627614.000,43378,3,MY,1,100,-34
1576860840.370376,627649.333,43395,3,MY,1,100,-35
1576860840.412251,627684.667,43395,3,MY,1,100,-36
1576860840.454127,627720.000,43395,3,MY,1,100,-35
1576860840.496002,627755.333,43413,3,MY,1,100,-36
1576860840.537877,627790.667,43413,3,MY,1,100,-37
1576860840.579752,627826.000,43413,3,MY,1,100,-35
1576860840.620640,627860.500,43429,2,MY,1,100,-35
1576860840.661528,627895.000,43429,2,MY,1,100,-35
1576860840.704193,627931.000,43450,5,MY,1,100,-36
1576860840.746858,627967.000,43450,5,MY,1,100,-35
1576860840.789524,628003.000,43450,5,MY,1,100,-36
1576860840.832189,628039.000,43450,5,MY,1,100,-35
1576860840.874854,628075.000,43450,5,MY,1,100,-35
1576860840.912779,628107.000,43470,3,MY,1,100,-35
1576860840.950704,628139.000,43470,3,MY,1,100,-35
1576860840.988628,628171.000,43470,3,MY,1,100,-35
1576860841.027343,628203.667,43488,3,MY,1,100,-35
1576860841.066058,628236.333,43488,3,MY,1,100,-35
1576860841.104773,628269.000,43488,3,MY,1,100,-35
1576860841.145463,628303.333,43506,3,MY,1,100,-36
1576860841.186153,628337.667,43506,3,MY,1,100,-36
1576860841.226843,628372.000,43506,3,MY,1,100,-34
1576860841.267138,628406.000,43522,3,MY,1,100,-34
1576860841.307433,628440.000,43522,3,MY,1,100,-36
1576860841.347728,628474.000,43522,3,MY,1,100,-35
1576860841.391578,628511.000,43540,3,MY,1,100,-36
1576860841.435429,628548.000,43540,3,MY,1,100,-35
1576860841.479279,628585.000,43540,3,MY,1,100,-37
1576860841.517204,628617.000,43558,3,MY,1,100,-36
1576860841.555129,628649.000,43558,3,MY,1,100,-36
1576860841.593054,628681.000,43558,3,MY,1,100,-36
1576860841.632164,628714.000,43576,3,MY,1,100,-35
1576860841.671273,628747.000,43576,3,MY,1,100,-36
1576860841.710383,628780.000,43576,3,MY,1,100,-35
1576860841.751073,628814.333,43594,3,MY,1,100,-35
1576860841.791763,628848.667,43594,3,MY,1,100,-36
1576860841.832453,628883.000,43594,3,MY,1,100,-34
1576860841.873538,628917.667,43612,3,MY,1,100,-35
1576860841.914623,628952.333,43612,3,MY,1,100,-35
1576860841.955709,628987.000,43612,3,MY,1,100,-35
1576860842.002522,629026.500,43630,2,MY,1,100,-36
1576860842.049335,629066.000,43630,2,MY,1,100,-36
1576860842.086964,629097.750,43649,4,MY,1,100,-36
1576860842.124592,629129.500,43649,4,MY,1,100,-35
1576860842.162221,629161.250,43649,4,MY,1,100,-35
1576860842.199849,629193.000,43649,4,MY,1,100,-35
1576860842.238959,629226.000,43666,3,MY,1,100,-35
1576860842.278069,629259.000,43666,3,MY,1,100,-36
1576860842.317179,629292.000,43666,3,MY,1,100,-35
1576860842.357079,629325.667,43684,3,MY,1,100,-35
1576860842.396979,629359.333,43684,3,MY,1,100,-37
1576860842.436879,629393.000,43684,3,MY,1,100,-36
1576860842.477964,629427.667,43700,3,MY,1,100,-35
1576860842.519049,629462.333,43700,3,MY,1,100,-36
1576860842.560134,629497.000,43700,3,MY,1,100,-34
1576860842.601614,629532.000,43718,2,MY,1,100,-35
1576860842.643094,629567.000,43718,2,MY,1,100,-36
1576860842.685364,629602.667,43736,3,MY,1,100,-34
1576860842.727635,629638.333,43736,3,MY,1,100,-36
1576860842.769905,629674.000,43736,3,MY,1,100,-35
1576860842.815731,629712.667,43754,3,MY,1,100,-35
1576860842.861557,629751.333,43754,3,MY,1,100,-36
1576860842.907382,629790.000,43754,3,MY,1,100,-35
1576860842.945307,629822.000,43772,3,MY,1,100,-35
1576860842.983232,629854.000,43772,3,MY,1,100,-35
1576860843.021156,629886.000,43772,3,MY,1,100,-36
1576860843.064217,629922.333,43791,3,MY,1,100,-36
1576860843.107277,629958.667,43791,3,MY,1,100,-36
1576860843.150337,629995.000,43791,3,MY,1,100,-35
1576860843.191422,630029.667,43808,3,MY,1,100,-35
1576860843.232508,630064.333,43808,3,MY,1,100,-35
1576860843.273593,630099.000,43808,3,MY,1,100,-35
1576860843.315863,630134.667,43826,3,MY,1,100,-36
1576860843.358133,630170.333,43826,3,MY,1,100,-35
1576860843.400403,630206.000,43826,3,MY,1,100,-35
1576860843.438723,630238.333,43842,3,MY,1,100,-37
1576860843.477043,630270.667,43842,3,MY,1,100,-36
1576860843.515363,630303.000,43842,3,MY,1,100,-35
1576860843.554473,630336.000,43860,3,MY,1,100,-35
1576860843.593583,630369.000,43860,3,MY,1,100,-35
1576860843.632693,630402.000,43860,3,MY,1,100,-35
1576860843.672197,630435.333,43878,3,MY,1,100,-35
1576860843.711702,630468.667,43878,3,MY,1,100,-35
1576860843.751207,630502.000,43878,3,MY,1,100,-35
1576860843.789132,630534.000,43896,3,MY,1,100,-36
1576860843.827057,630566.000,43896,3,MY,1,100,-34
1576860843.864981,630598.000,43896,3,MY,1,100,-36
1576860843.903301,630630.333,43914,3,MY,1,100,-35
1576860843.941621,630662.667,43914,3,MY,1,100,-36
1576860843.979941,630695.000,43914,3,MY,1,100,-35
1576860844.021026,630729.667,43933,3,MY,1,100,-35
1576860844.062111,630764.333,43933,3,MY,1,100,-35
1576860844.103196,630799.000,43933,3,MY,1,100,-36
1576860844.143886,630833.333,43951,3,MY,1,100,-35
1576860844.184576,630867.667,43951,3,MY,1,100,-36
1576860844.225266,630902.000,43951,3,MY,1,100,-36
1576860844.267142,630937.333,43969,3,MY,1,100,-35
1576860844.309017,630972.667,43969,3,MY,1,100,-34
1576860844.350892,631008.000,43969,3,MY,1,100,-36
1576860844.391977,631042.667,43986,3,MY,1,100,-36
1576860844.433062,631077.333,43986,3,MY,1,100,-35
1576860844.474147,631112.000,43986,3,MY,1,100,-35
1576860844.515627,631147.000,44004,2,MY,1,100,-34
1576860844.557108,631182.000,44004,2,MY,1,100,-34
1576860844.597403,631216.000,44022,4,MY,1,100,-37
1576860844.637698,631250.000,44022,4,MY,1,100,-35
1576860844.677993,631284.000,44022,4,MY,1,100,-35
1576860844.718288,631318.000,44022,4,MY,1,100,-36
1576860844.757398,631351.000,44038,3,MY,1,100,-35
1576860844.796507,631384.000,44038,3,MY,1,100,-37
1576860844.835617,631417.000,44038,3,MY,1,100,-35
1576860844.875912,631451.000,44056,3,MY,1,100,-35
1576860844.916207,631485.000,44056,3,MY,1,100,-35
1576860844.956502,631519.000,44056,3,MY,1,100,-34
1576860844.997983,631554.000,44074,2,MY,1,100,-35
1576860845.039463,631589.000,44074,2,MY,1,100,-36
1576860845.080943,631624.000,44093,3,MY,1,100,-35
1576860845.122423,631659.000,44093,3,MY,1,100,-35
1576860845.163903,631694.000,44093,3,MY,1,100,-35
1576860845.206173,631729.667,44111,3,MY,1,100,-35
1576860845.248444,631765.333,44111,3,MY,1,100,-35
1576860845.290714,631801.000,44111,3,MY,1,100,-35
1576860845.328639,631833.000,44129,3,MY,1,100,-35
1576860845.366563,631865.000,44129,3,MY,1,100,-35
1576860845.404488,631897.000,44129,3,MY,1,100,-35
1576860845.444783,631931.000,44147,3,MY,1,100,-34
1576860845.485078,631965.000,44147,3,MY,1,100,-37
1576860845.525373,631999.000,44147,3,MY,1,100,-36
1576860845.566853,632034.000,44164,3,MY,1,100,-36
1576860845.608334,632069.000,44164,3,MY,1,100,-35
1576860845.649814,632104.000,44164,3,MY,1,100,-36
1576860845.691294,632139.000,44182,3,MY,1,100,-35
1576860845.732774,632174.000,44182,3,MY,1,100,-36
1576860845.774254,632209.000,44182,3,MY,1,100,-35
1576860845.816525,632244.667,44198,3,MY,1,100,-35
1576860845.858795,632280.333,44198,3,MY,1,100,-35
1576860845.901065,632316.000,44198,3,MY,1,100,-36
1576860845.937804,632347.000,44216,3,MY,1,100,-34
1576860845.974544,632378.000,44216,3,MY,1,100,-36
1576860846.011284,632409.000,44216,3,MY,1,100,-35
1576860846.051974,632443.333,44235,3,MY,1,100,-36
1576860846.092664,632477.667,44235,3,MY,1,100,-35
1576860846.133354,632512.000,44235,3,MY,1,100,-36
1576860846.174044,632546.333,44253,3,MY,1,100,-35
1576860846.214734,632580.667,44253,3,MY,1,100,-36
1576860846.255424,632615.000,44253,3,MY,1,100,-34
1576860846.296114,632649.333,44271,3,MY,1,100,-36
1576860846.336804,632683.667,44271,3,MY,1,100,-35
1576860846.377494,632718.000,44271,3,MY,1,100,-36
1576860846.417394,632751.667,44289,3,MY,1,100,-35
1576860846.457294,632785.333,44289,3,MY,1,100,-36
1576860846.497194,632819.000,44289,3,MY,1,100,-35
1576860846.538279,632853.667,44307,3,MY,1,100,-36
1576860846.579365,632888.333,44307,3,MY,1,100,-36
1576860846.620450,632923.000,44307,3,MY,1,100,-36
1576860846.661535,632957.667,44325,3,MY,1,100,-36
1576860846.702620,632992.333,44325,3,MY,1,100,-34
1576860846.743705,633027.000,44325,3,MY,1,100,-36
1576860846.783289,633060.400,44346,5,MY,1,100,-35
1576860846.822873,633093.800,44346,5,MY,1,100,-36
1576860846.862457,633127.200,44346,5,MY,1,100,-35
1576860846.902041,633160.600,44346,5,MY,1,100,-36
1576860846.941625,633194.000,44346,5,MY,1,100,-36
1576860846.979944,633226.333,44366,3,MY,1,100,-35
1576860847.018264,633258.667,44366,3,MY,1,100,-36
1576860847.056584,633291.000,44366,3,MY,1,100,-35
1576860847.096089,633324.333,44385,3,MY,1,100,-36
1576860847.135594,633357.667,44385,3,MY,1,100,-36
1576860847.175099,633391.000,44385,3,MY,1,100,-36
1576860847.214999,633424.667,44403,3,MY,1,100,-36
1576860847.254899,633458.333,44403,3,MY,1,100,-36
1576860847.294799,633492.000,44403,3,MY,1,100,-36
1576860847.332723,633524.000,44421,3,MY,1,100,-35
1576860847.370648,633556.000,44421,3,MY,1,100,-35
1576860847.408573,633588.000,44421,3,MY,1,100,-35
1576860847.445707,633619.333,44439,3,MY,1,100,-36
1576860847.482842,633650.667,44439,3,MY,1,100,-35
1576860847.519977,633682.000,44439,3,MY,1,100,-36
1576860847.560667,633716.333,44457,3,MY,1,100,-36
1576860847.601357,633750.667,44457,3,MY,1,100,-36
1576860847.642047,633785.000,44457,3,MY,1,100,-35
1576860847.681552,633818.333,44474,3,MY,1,100,-35
1576860847.721057,633851.667,44474,3,MY,1,100,-35
1576860847.760561,633885.000,44474,3,MY,1,100,-36
1576860847.802437,633920.333,44492,3,MY,1,100,-36
1576860847.844312,633955.667,44492,3,MY,1,100,-35
1576860847.886187,633991.000,44492,3,MY,1,100,-36
1576860847.926482,634025.000,44508,3,MY,1,100,-35
1576860847.966777,634059.000,44508,3,MY,1,100,-35
1576860848.007072,634093.000,44508,3,MY,1,100,-34
1576860848.048553,634128.000,44527,3,MY,1,100,-36
1576860848.090033,634163.000,44527,3,MY,1,100,-36
1576860848.131513,634198.000,44527,3,MY,1,100,-35
1576860848.173388,634233.333,44545,3,MY,1,100,-36
1576860848.215263,634268.667,44545,3,MY,1,100,-35
1576860848.257138,634304.000,44545,3,MY,1,100,-35
1576860848.295458,634336.333,44563,3,MY,1,100,-36
1576860848.333778,634368.667,44563,3,MY,1,100,-35
1576860848.372098,634401.000,44563,3,MY,1,100,-35
1576860848.410418,634433.333,44581,3,MY,1,100,-36
1576860848.448737,634465.667,44581,3,MY,1,100,-35
1576860848.487057,634498.000,44581,3,MY,1,100,-35
1576860848.528932,634533.333,44599,3,MY,1,100,-36
1576860848.570807,634568.667,44599,3,MY,1,100,-35
1576860848.612683,634604.000,44599,3,MY,1,100,-35
1576860848.651002,634636.333,44617,3,MY,1,100,-37
1576860848.689322,634668.667,44617,3,MY,1,100,-35
1576860848.727642,634701.000,44617,3,MY,1,100,-35
1576860848.767542,634734.667,44635,3,MY,1,100,-33
1576860848.807442,634768.333,44635,3,MY,1,100,-35
1576860848.847342,634802.000,44635,3,MY,1,100,-35
1576860848.888427,634836.667,44652,3,MY,1,100,-36
1576860848.929512,634871.333,44652,3,MY,1,100,-35
1576860848.970597,634906.000,44652,3,MY,1,100,-35
1576860849.011287,634940.333,44671,3,MY,1,100,-35
1576860849.051977,634974.667,44671,3,MY,1,100,-36
1576860849.092667,635009.000,44671,3,MY,1,100,-35
1576860849.130987,635041.333,44689,3,MY,1,100,-34
1576860849.169307,635073.667,44689,3,MY,1,100,-34
1576860849.207627,635106.000,44689,3,MY,1,100,-34
1576860849.248712,635140.667,44705,3,MY,1,100,-34
1576860849.289797,635175.333,44705,3,MY,1,100,-35
1576860849.330882,635210.000,44705,3,MY,1,100,-37
1576860849.371572,635244.333,44723,3,MY,1,100,-36
1576860849.412262,635278.667,44723,3,MY,1,100,-34
1576860849.452952,635313.000,44723,3,MY,1,100,-36
1576860849.493840,635347.500,44741,2,MY,1,100,-34
1576860849.534728,635382.000,44741,2,MY,1,100,-35
1576860849.575813,635416.667,44759,3,MY,1,100,-34
1576860849.616898,635451.333,44759,3,MY,1,100,-35
1576860849.657983,635486.000,44759,3,MY,1,100,-35
1576860849.696796,635518.750,44777,4,MY,1,100,-35
1576860849.735610,635551.500,44777,4,MY,1,100,-36
1576860849.774424,635584.250,44777,4,MY,1,100,-35
1576860849.813237,635617.000,44777,4,MY,1,100,-36
1576860849.856495,635653.500,44795,2,MY,1,100,-35
1576860849.899753,635690.000,44795,2,MY,1,100,-36
1576860849.938863,635723.000,44813,3,MY,1,100,-35
1576860849.977973,635756.000,44813,3,MY,1,100,-35
1576860850.017082,635789.000,44813,3,MY,1,100,-37
1576860850.057773,635823.333,44831,3,MY,1,100,-35
1576860850.098463,635857.667,44831,3,MY,1,100,-34
1576860850.139153,635892.000,44831,3,MY,1,100,-35
1576860850.180238,635926.667,44849,3,MY,1,100,-36
1576860850.221323,635961.333,44849,3,MY,1,100,-34
1576860850.262408,635996.000,44849,3,MY,1,100,-34
1576860850.301518,636029.000,44867,3,MY,1,100,-34
1576860850.340628,636062.000,44867,3,MY,1,100,-35
1576860850.379738,636095.000,44867,3,MY,1,100,-36
1576860850.417662,636127.000,44883,3,MY,1,100,-34
1576860850.455587,636159.000,44883,3,MY,1,100,-35
1576860850.493512,636191.000,44883,3,MY,1,100,-36
1576860850.536177,636227.000,44901,3,MY,1,100,-35
1576860850.578842,636263.000,44901,3,MY,1,100,-36
1576860850.621508,636299.000,44901,3,MY,1,100,-36
1576860850.661013,636332.333,44919,3,MY,1,100,-36
1576860850.700518,636365.667,44919,3,MY,1,100,-34
1576860850.740023,636399.000,44919,3,MY,1,100,-36
1576860850.781503,636434.000,44937,3,MY,1,100,-35
1576860850.822983,636469.000,44937,3,MY,1,100,-35
1576860850.864463,636504.000,44937,3,MY,1,100,-36
1576860850.902783,636536.333,44955,3,MY,1,100,-35
1576860850.941103,636568.667,44955,3,MY,1,100,-36
1576860850.979422,636601.000,44955,3,MY,1,100,-36
1576860851.016755,636632.500,44974,4,MY,1,100,-35
1576860851.054087,636664.000,44974,4,MY,1,100,-36
1576860851.091419,636695.500,44974,4,MY,1,100,-35
1576860851.128751,636727.000,44974,4,MY,1,100,-36
1576860851.174379,636765.500,44992,2,MY,1,100,-36
1576860851.220007,636804.000,44992,2,MY,1,100,-35
1576860851.255957,636834.333,45010,3,MY,1,100,-35
1576860851.291906,636864.667,45010,3,MY,1,100,-36
1576860851.327856,636895.000,45010,3,MY,1,100,-36
1576860851.368151,636929.000,45027,4,MY,1,100,-36
1576860851.408446,636963.000,45027,4,MY,1,100,-36
1576860851.448741,636997.000,45027,4,MY,1,100,-36
1576860851.489036,637031.000,45027,4,MY,1,100,-36
1576860851.530516,637066.000,45045,2,MY,1,100,-35
1576860851.571996,637101.000,45045,2,MY,1,100,-36
1576860851.612884,637135.500,45063,4,MY,1,100,-35
1576860851.653771,637170.000,45063,4,MY,1,100,-37
1576860851.694659,637204.500,45063,4,MY,1,100,-37
1576860851.735547,637239.000,45063,4,MY,1,100,-36
1576860851.776434,637273.500,45079,2,MY,1,100,-35
1576860851.817322,637308.000,45079,2,MY,1,100,-35
1576860851.858802,637343.000,45097,3,MY,1,100,-35
1576860851.900282,637378.000,45097,3,MY,1,100,-35
1576860851.941762,637413.000,45097,3,MY,1,100,-35
1576860851.980872,637446.000,45116,3,MY,1,100,-36
1576860852.019982,637479.000,45116,3,MY,1,100,-35
1576860852.059092,637512.000,45116,3,MY,1,100,-35
1576860852.097017,637544.000,45134,3,MY,1,100,-37
1576860852.134941,637576.000,45134,3,MY,1,100,-35
1576860852.172866,637608.000,45134,3,MY,1,100,-35
1576860852.213161,637642.000,45152,3,MY,1,100,-35
1576860852.253456,637676.000,45152,3,MY,1,100,-36
1576860852.293751,637710.000,45152,3,MY,1,100,-36
1576860852.336021,637745.667,45170,3,MY,1,100,-36
1576860852.378292,637781.333,45170,3,MY,1,100,-37
1576860852.420562,637817.000,45170,3,MY,1,100,-36
1576860852.460857,637851.000,45188,3,MY,1,100,-36
1576860852.501152,637885.000,45188,3,MY,1,100,-35
1576860852.541447,637919.000,45188,3,MY,1,100,-35
1576860852.581347,637952.667,45205,3,MY,1,100,-34
1576860852.621247,637986.333,45205,3,MY,1,100,-35
1576860852.661147,638020.000,45205,3,MY,1,100,-35
1576860852.703417,638055.667,45223,3,MY,1,100,-36
1576860852.745687,638091.333,45223,3,MY,1,100,-35
1576860852.787958,638127.000,45223,3,MY,1,100,-35
1576860852.825645,638158.800,45244,5,MY,1,100,-35
1576860852.863333,638190.600,45244,5,MY,1,100,-35
1576860852.901021,638222.400,45244,5,MY,1,100,-35
1576860852.938708,638254.200,45244,5,MY,1,100,-36
1576860852.976396,638286.000,45244,5,MY,1,100,-35
1576860853.019061,638322.000,45265,3,MY,1,100,-36
1576860853.061727,638358.000,45265,3,MY,1,100,-35
1576860853.104392,638394.000,45265,3,MY,1,100,-36
1576860853.145477,638428.667,45283,3,MY,1,100,-36
1576860853.186562,638463.333,45283,3,MY,1,100,-35
1576860853.227647,638498.000,45283,3,MY,1,100,-36
1576860853.268733,638532.667,45300,3,MY,1,100,-34
1576860853.309818,638567.333,45300,3,MY,1,100,-35
1576860853.350903,638602.000,45300,3,MY,1,100,-35
1576860853.390013,638635.000,45318,3,MY,1,100,-35
1576860853.429122,638668.000,45318,3,MY,1,100,-34
1576860853.468232,638701.000,45318,3,MY,1,100,-35
1576860853.506157,638733.000,45336,3,MY,1,100,-35
1576860853.544082,638765.000,45336,3,MY,1,100,-35
1576860853.582006,638797.000,45336,3,MY,1,100,-35
1576860853.625067,638833.333,45352,3,MY,1,100,-36
1576860853.668127,638869.667,45352,3,MY,1,100,-35
1576860853.711188,638906.000,45352,3,MY,1,100,-36
1576860853.752075,638940.500,45370,2,MY,1,100,-36
1576860853.792963,638975.000,45370,2,MY,1,100,-36
1576860853.834048,639009.667,45388,3,MY,1,100,-35
1576860853.875133,639044.333,45388,3,MY,1,100,-36
1576860853.916218,639079.000,45388,3,MY,1,100,-35
1576860853.958093,639114.333,45407,3,MY,1,100,-34
1576860853.999969,639149.667,45407,3,MY,1,100,-35
1576860854.041844,639185.000,45407,3,MY,1,100,-36
1576860854.079176,639216.500,45425,4,MY,1,100,-36
1576860854.116508,639248.000,45425,4,MY,1,100,-34
1576860854.153840,639279.500,45425,4,MY,1,100,-36
1576860854.191172,639311.000,45425,4,MY,1,100,-36
1576860854.229887,639343.667,45443,3,MY,1,100,-34
1576860854.268602,639376.333,45443,3,MY,1,100,-36
1576860854.307317,639409.000,45443,3,MY,1,100,-36
1576860854.353538,639448.000,45461,2,MY,1,100,-35
1576860854.399758,639487.000,45461,2,MY,1,100,-36
1576860854.437288,639518.667,45478,3,MY,1,100,-36
1576860854.474818,639550.333,45478,3,MY,1,100,-35
1576860854.512347,639582.000,45478,3,MY,1,100,-36
1576860854.557383,639620.000,45496,3,MY,1,100,-36
1576860854.602418,639658.000,45496,3,MY,1,100,-35
1576860854.647454,639696.000,45496,3,MY,1,100,-35
1576860854.687354,639729.667,45514,3,MY,1,100,-36
1576860854.727254,639763.333,45514,3,MY,1,100,-36
1576860854.767154,639797.000,45514,3,MY,1,100,-36
1576860854.805079,639829.000,45530,3,MY,1,100,-35
1576860854.843004,639861.000,45530,3,MY,1,100,-35
1576860854.880928,639893.000,45530,3,MY,1,100,-35
1576860854.925174,639930.333,45548,3,MY,1,100,-36
1576860854.969419,639967.667,45548,3,MY,1,100,-36
1576860855.013665,640005.000,45548,3,MY,1,100,-36
1576860855.050799,640036.333,45567,3,MY,1,100,-36
1576860855.087934,640067.667,45567,3,MY,1,100,-34
1576860855.125069,640099.000,45567,3,MY,1,100,-35
1576860855.170499,640137.333,45585,3,MY,1,100,-35
1576860855.215930,640175.667,45585,3,MY,1,100,-36
1576860855.261361,640214.000,45585,3,MY,1,100,-36
1576860855.297705,640244.667,45603,3,MY,1,100,-35
1576860855.334050,640275.333,45603,3,MY,1,100,-36
1576860855.370394,640306.000,45603,3,MY,1,100,-35
1576860855.415035,640343.667,45621,3,MY,1,100,-35
1576860855.459675,640381.333,45621,3,MY,1,100,-36
1576860855.504316,640419.000,45621,3,MY,1,100,-34
1576860855.545796,640454.000,45638,3,MY,1,100,-36
1576860855.587276,640489.000,45638,3,MY,1,100,-36
1576860855.628756,640524.000,45638,3,MY,1,100,-35
1576860855.669446,640558.333,45656,3,MY,1,100,-36
1576860855.710136,640592.667,45656,3,MY,1,100,-36
1576860855.750827,640627.000,45656,3,MY,1,100,-35
1576860855.788751,640659.000,45672,3,MY,1,100,-35
1576860855.826676,640691.000,45672,3,MY,1,100,-34
1576860855.864601,640723.000,45672,3,MY,1,100,-36
1576860855.904501,640756.667,45690,3,MY,1,100,-36
1576860855.944401,640790.333,45690,3,MY,1,100,-36
1576860855.984301,640824.000,45690,3,MY,1,100,-36
1576860856.022225,640856.000,45709,3,MY,1,100,-35
1576860856.060150,640888.000,45709,3,MY,1,100,-35
1576860856.098075,640920.000,45709,3,MY,1,100,-35
1576860856.137185,640953.000,45727,3,MY,1,100,-36
1576860856.176295,640986.000,45727,3,MY,1,100,-36
1576860856.215404,641019.000,45727,3,MY,1,100,-36
1576860856.262218,641058.500,45745,2,MY,1,100,-34
1576860856.309031,641098.000,45745,2,MY,1,100,-35
1576860856.349622,641132.250,45763,4,MY,1,100,-35
1576860856.390214,641166.500,45763,4,MY,1,100,-36
1576860856.430805,641200.750,45763,4,MY,1,100,-36
1576860856.471396,641235.000,45763,4,MY,1,100,-36
1576860856.513469,641270.500,45781,2,MY,1,100,-34
1576860856.555542,641306.000,45781,2,MY,1,100,-36
1576860856.592874,641337.500,45799,4,MY,1,100,-35
1576860856.630206,641369.000,45799,4,MY,1,100,-34
1576860856.667538,641400.500,45799,4,MY,1,100,-36
1576860856.704870,641432.000,45799,4,MY,1,100,-36
1576860856.743585,641464.667,45816,3,MY,1,100,-36
1576860856.782300,641497.333,45816,3,MY,1,100,-35
1576860856.821015,641530.000,45816,3,MY,1,100,-35
1576860856.867828,641569.500,45834,2,MY,1,100,-36
1576860856.914641,641609.000,45834,2,MY,1,100,-35
1576860856.956122,641644.000,45850,3,MY,1,100,-36
1576860856.997602,641679.000,45850,3,MY,1,100,-35
1576860857.039082,641714.000,45850,3,MY,1,100,-35
1576860857.080562,641749.000,45869,3,MY,1,100,-37
1576860857.122042,641784.000,45869,3,MY,1,100,-36
1576860857.163522,641819.000,45869,3,MY,1,100,-36
1576860857.200262,641850.000,45887,3,MY,1,100,-36
1576860857.237002,641881.000,45887,3,MY,1,100,-36
1576860857.273741,641912.000,45887,3,MY,1,100,-38
1576860857.312061,641944.333,45905,3,MY,1,100,-35
1576860857.350381,641976.667,45905,3,MY,1,100,-34
1576860857.388700,642009.000,45905,3,MY,1,100,-34
1576860857.429390,642043.333,45923,3,MY,1,100,-36
1576860857.470081,642077.667,45923,3,MY,1,100,-36
1576860857.510771,642112.000,45923,3,MY,1,100,-36
1576860857.556201,642150.333,45941,3,MY,1,100,-35
1576860857.601632,642188.667,45941,3,MY,1,100,-35
1576860857.647063,642227.000,45941,3,MY,1,100,-36
1576860857.688148,642261.667,45959,3,MY,1,100,-35
1576860857.729233,642296.333,45959,3,MY,1,100,-36
1576860857.770318,642331.000,45959,3,MY,1,100,-36
1576860857.808243,642363.000,45977,3,MY,1,100,-36
1576860857.846168,642395.000,45977,3,MY,1,100,-35
1576860857.884092,642427.000,45977,3,MY,1,100,-35
1576860857.921227,642458.333,45995,3,MY,1,100,-36
1576860857.958361,642489.667,45995,3,MY,1,100,-36
1576860857.995496,642521.000,45995,3,MY,1,100,-36
1576860858.035791,642555.000,46013,3,MY,1,100,-34
1576860858.076086,642589.000,46013,3,MY,1,100,-35
1576860858.116381,642623.000,46013,3,MY,1,100,-36
1576860858.161417,642661.000,46031,3,MY,1,100,-35
1576860858.206452,642699.000,46031,3,MY,1,100,-36
1576860858.251488,642737.000,46031,3,MY,1,100,-35
1576860858.289018,642768.667,46047,3,MY,1,100,-34
1576860858.326547,642800.333,46047,3,MY,1,100,-36
1576860858.364077,642832.000,46047,3,MY,1,100,-35
1576860858.406347,642867.667,46065,3,MY,1,100,-37
1576860858.448617,642903.333,46065,3,MY,1,100,-35
1576860858.490888,642939.000,46065,3,MY,1,100,-35
1576860858.530590,642972.500,46083,2,MY,1,100,-35
1576860858.570293,643006.000,46083,2,MY,1,100,-36
1576860858.611773,643041.000,46101,4,MY,1,100,-36
1576860858.653253,643076.000,46101,4,MY,1,100,-36
1576860858.694733,643111.000,46101,4,MY,1,100,-36
1576860858.736213,643146.000,46101,4,MY,1,100,-36
1576860858.783027,643185.500,46119,2,MY,1,100,-35
1576860858.829840,643225.000,46119,2,MY,1,100,-35
1576860858.868713,643257.800,46140,5,MY,1,100,-35
1576860858.907586,643290.600,46140,5,MY,1,100,-36
1576860858.946459,643323.400,46140,5,MY,1,100,-37
1576860858.985331,643356.200,46140,5,MY,1,100,-36
1576860859.024204,643389.000,46140,5,MY,1,100,-35
1576860859.065684,643424.000,46159,3,MY,1,100,-35
1576860859.107164,643459.000,46159,3,MY,1,100,-35
1576860859.148645,643494.000,46159,3,MY,1,100,-35
1576860859.193285,643531.667,46177,3,MY,1,100,-36
1576860859.237926,643569.333,46177,3,MY,1,100,-37
1576860859.282566,643607.000,46177,3,MY,1,100,-36
1576860859.324046,643642.000,46197,3,MY,1,100,-36
1576860859.365527,643677.000,46197,3,MY,1,100,-36
1576860859.407007,643712.000,46197,3,MY,1,100,-36
1576860859.447697,643746.333,46214,3,MY,1,100,-35
1576860859.488387,643780.667,46214,3,MY,1,100,-35
1576860859.529077,643815.000,46214,3,MY,1,100,-35
1576860859.570557,643850.000,46232,2,MY,1,100,-35
1576860859.612037,643885.000,46232,2,MY,1,100,-36
1576860859.651147,643918.000,46250,4,MY,1,100,-37
1576860859.690257,643951.000,46250,4,MY,1,100,-36
1576860859.729367,643984.000,46250,4,MY,1,100,-35
1576860859.768477,644017.000,46250,4,MY,1,100,-35
1576860859.806797,644049.333,46266,3,MY,1,100,-37
1576860859.845116,644081.667,46266,3,MY,1,100,-35
1576860859.883436,644114.000,46266,3,MY,1,100,-35
1576860859.923336,644147.667,46284,3,MY,1,100,-35
1576860859.963236,644181.333,46284,3,MY,1,100,-35
1576860860.003136,644215.000,46284,3,MY,1,100,-35
1576860860.045209,644250.500,46303,2,MY,1,100,-35
1576860860.087281,644286.000,46303,2,MY,1,100,-36
1576860860.127577,644320.000,46321,3,MY,1,100,-36
1576860860.167871,644354.000,46321,3,MY,1,100,-35
1576860860.208167,644388.000,46321,3,MY,1,100,-36
1576860860.253202,644426.000,46339,3,MY,1,100,-35
1576860860.298238,644464.000,46339,3,MY,1,100,-36
1576860860.343273,644502.000,46339,3,MY,1,100,-35
1576860860.384358,644536.667,46357,3,MY,1,100,-36
1576860860.425444,644571.333,46357,3,MY,1,100,-34
1576860860.466529,644606.000,46357,3,MY,1,100,-36
1576860860.505639,644639.000,46375,3,MY,1,100,-35
1576860860.544749,644672.000,46375,3,MY,1,100,-36
1576860860.583858,644705.000,46375,3,MY,1,100,-35
1576860860.620993,644736.333,46392,3,MY,1,100,-36
1576860860.658128,644767.667,46392,3,MY,1,100,-35
1576860860.695262,644799.000,46392,3,MY,1,100,-36
1576860860.734767,644832.333,46410,3,MY,1,100,-35
1576860860.774272,644865.667,46410,3,MY,1,100,-35
1576860860.813777,644899.000,46410,3,MY,1,100,-36
1576860860.854467,644933.333,46428,3,MY,1,100,-35
1576860860.895157,644967.667,46428,3,MY,1,100,-35
1576860860.935847,645002.000,46428,3,MY,1,100,-35
1576860860.980883,645040.000,46444,3,MY,1,100,-37
1576860861.025918,645078.000,46444,3,MY,1,100,-35
1576860861.070954,645116.000,46444,3,MY,1,100,-35
1576860861.110854,645149.667,46463,3,MY,1,100,-35
1576860861.150754,645183.333,46463,3,MY,1,100,-36
1576860861.190654,645217.000,46463,3,MY,1,100,-36
1576860861.227788,645248.333,46481,3,MY,1,100,-36
1576860861.264923,645279.667,46481,3,MY,1,100,-35
1576860861.302058,645311.000,46481,3,MY,1,100,-35
1576860861.341563,645344.333,46499,3,MY,1,100,-34
1576860861.381068,645377.667,46499,3,MY,1,100,-35
1576860861.420573,645411.000,46499,3,MY,1,100,-37
1576860861.462053,645446.000,46517,3,MY,1,100,-36
1576860861.503533,645481.000,46517,3,MY,1,100,-35
1576860861.545013,645516.000,46517,3,MY,1,100,-36
1576860861.590049,645554.000,46535,3,MY,1,100,-35
1576860861.635084,645592.000,46535,3,MY,1,100,-36
1576860861.680120,645630.000,46535,3,MY,1,100,-35
1576860861.719230,645663.000,46553,3,MY,1,100,-35
1576860861.758340,645696.000,46553,3,MY,1,100,-36
1576860861.797450,645729.000,46553,3,MY,1,100,-35
1576860861.835374,645761.000,46571,3,MY,1,100,-35
1576860861.873299,645793.000,46571,3,MY,1,100,-35
1576860861.911224,645825.000,46571,3,MY,1,100,-35
1576860861.949543,645857.333,46588,3,MY,1,100,-35
1576860861.987863,645889.667,46588,3,MY,1,100,-35
1576860862.026183,645922.000,46588,3,MY,1,100,-34
1576860862.067268,645956.667,46607,3,MY,1,100,-35
1576860862.108353,645991.333,46607,3,MY,1,100,-36
1576860862.149438,646026.000,46607,3,MY,1,100,-35
1576860862.190326,646060.500,46623,2,MY,1,100,-35
1576860862.231214,646095.000,46623,2,MY,1,100,-36
1576860862.272990,646130.250,46641,4,MY,1,100,-37
1576860862.314766,646165.500,46641,4,MY,1,100,-35
1576860862.356543,646200.750,46641,4,MY,1,100,-35
1576860862.398319,646236.000,46641,4,MY,1,100,-35
1576860862.445725,646276.000,46659,2,MY,1,100,-34
1576860862.493131,646316.000,46659,2,MY,1,100,-34
1576860862.531056,646348.000,46677,3,MY,1,100,-35
1576860862.568980,646380.000,46677,3,MY,1,100,-35
1576860862.606905,646412.000,46677,3,MY,1,100,-35
1576860862.649176,646447.667,46695,3,MY,1,100,-36
1576860862.691446,646483.333,46695,3,MY,1,100,-35
1576860862.733716,646519.000,46695,3,MY,1,100,-36
1576860862.774801,646553.667,46712,3,MY,1,100,-35
1576860862.815886,646588.333,46712,3,MY,1,100,-35
1576860862.856972,646623.000,46712,3,MY,1,100,-36
1576860862.899242,646658.667,46730,3,MY,1,100,-35
1576860862.941512,646694.333,46730,3,MY,1,100,-36
1576860862.983782,646730.000,46730,3,MY,1,100,-34
1576860863.024867,646764.667,46746,3,MY,1,100,-35
1576860863.065953,646799.333,46746,3,MY,1,100,-34
1576860863.107038,646834.000,46746,3,MY,1,100,-36
1576860863.153851,646873.500,46765,2,MY,1,100,-35
1576860863.200664,646913.000,46765,2,MY,1,100,-36
1576860863.240070,646946.250,46783,4,MY,1,100,-35
1576860863.279477,646979.500,46783,4,MY,1,100,-35
1576860863.318883,647012.750,46783,4,MY,1,100,-35
1576860863.358289,647046.000,46783,4,MY,1,100,-35
1576860863.399769,647081.000,46801,2,MY,1,100,-35
1576860863.441249,647116.000,46801,2,MY,1,100,-36
1576860863.478878,647147.750,46819,4,MY,1,100,-34
1576860863.516506,647179.500,46819,4,MY,1,100,-35
1576860863.554134,647211.250,46819,4,MY,1,100,-36
1576860863.591763,647243.000,46819,4,MY,1,100,-35
1576860863.632848,647277.667,46837,3,MY,1,100,-34
1576860863.673933,647312.333,46837,3,MY,1,100,-35
1576860863.715018,647347.000,46837,3,MY,1,100,-35
1576860863.753338,647379.333,46855,3,MY,1,100,-35
1576860863.791658,647411.667,46855,3,MY,1,100,-35
1576860863.829978,647444.000,46855,3,MY,1,100,-36
1576860863.869483,647477.333,46873,3,MY,1,100,-35
1576860863.908988,647510.667,46873,3,MY,1,100,-34
1576860863.948492,647544.000,46873,3,MY,1,100,-36
1576860863.989973,647579.000,46890,3,MY,1,100,-35
1576860864.031453,647614.000,46890,3,MY,1,100,-35
1576860864.072933,647649.000,46890,3,MY,1,100,-35
1576860864.114413,647684.000,46909,2,MY,1,100,-35
1576860864.155893,647719.000,46909,2,MY,1,100,-34
1576860864.199744,647756.000,46925,3,MY,1,100,-36
1576860864.243594,647793.000,46925,3,MY,1,100,-35
1576860864.287445,647830.000,46925,3,MY,1,100,-35
1576860864.325369,647862.000,46943,3,MY,1,100,-34
1576860864.363294,647894.000,46943,3,MY,1,100,-34
1576860864.401219,647926.000,46943,3,MY,1,100,-35
1576860864.439736,647958.500,46961,4,MY,1,100,-34
1576860864.478253,647991.000,46961,4,MY,1,100,-35
1576860864.516771,648023.500,46961,4,MY,1,100,-35
1576860864.555288,648056.000,46961,4,MY,1,100,-37
1576860864.595583,648090.000,46979,3,MY,1,100,-35
1576860864.635878,648124.000,46979,3,MY,1,100,-36
1576860864.676173,648158.000,46979,3,MY,1,100,-36
1576860864.717061,648192.500,46997,2,MY,1,100,-35
1576860864.757948,648227.000,46997,2,MY,1,100,-36
1576860864.802589,648264.667,47015,3,MY,1,100,-35
1576860864.847229,648302.333,47015,3,MY,1,100,-34
1576860864.891870,648340.000,47015,3,MY,1,100,-35
1576860864.929795,648372.000,47036,5,MY,1,100,-35
1576860864.967719,648404.000,47036,5,MY,1,100,-36
1576860865.005644,648436.000,47036,5,MY,1,100,-35
1576860865.043569,648468.000,47036,5,MY,1,100,-36
1576860865.081493,648500.000,47036,5,MY,1,100,-37
1576860865.121393,648533.667,47057,3,MY,1,100,-35
1576860865.161293,648567.333,47057,3,MY,1,100,-35
1576860865.201193,648601.000,47057,3,MY,1,100,-35
1576860865.242278,648635.667,47075,3,MY,1,100,-35
1576860865.283364,648670.333,47075,3,MY,1,100,-36
1576860865.324449,648705.000,47075,3,MY,1,100,-35
1576860865.369484,648743.000,47093,3,MY,1,100,-37
1576860865.414520,648781.000,47093,3,MY,1,100,-36
1576860865.459555,648819.000,47093,3,MY,1,100,-35
1576860865.497480,648851.000,47111,3,MY,1,100,-35
1576860865.535405,648883.000,47111,3,MY,1,100,-35
1576860865.573330,648915.000,47111,3,MY,1,100,-34
1576860865.611650,648947.333,47129,3,MY,1,100,-34
1576860865.649969,648979.667,47129,3,MY,1,100,-35
1576860865.688289,649012.000,47129,3,MY,1,100,-34
1576860865.727399,649045.000,47147,3,MY,1,100,-35
1576860865.766509,649078.000,47147,3,MY,1,100,-36
1576860865.805619,649111.000,47147,3,MY,1,100,-35
1576860865.847099,649146.000,47165,3,MY,1,100,-34
1576860865.888579,649181.000,47165,3,MY,1,100,-36
1576860865.930059,649216.000,47165,3,MY,1,100,-36
1576860865.970749,649250.333,47182,3,MY,1,100,-37
1576860866.011439,649284.667,47182,3,MY,1,100,-34
1576860866.052129,649319.000,47182,3,MY,1,100,-36
1576860866.094795,649355.000,47199,3,MY,1,100,-34
1576860866.137460,649391.000,47199,3,MY,1,100,-35
1576860866.180125,649427.000,47199,3,MY,1,100,-35
1576860866.221605,649462.000,47217,2,MY,1,100,-35
1576860866.263086,649497.000,47217,2,MY,1,100,-36
1576860866.305751,649533.000,47235,3,MY,1,100,-36
1576860866.348416,649569.000,47235,3,MY,1,100,-35
1576860866.391082,649605.000,47235,3,MY,1,100,-35
1576860866.432562,649640.000,47253,3,MY,1,100,-37
1576860866.474042,649675.000,47253,3,MY,1,100,-36
1576860866.515522,649710.000,47253,3,MY,1,100,-35
1576860866.557397,649745.333,47271,3,MY,1,100,-35
1576860866.599272,649780.667,47271,3,MY,1,100,-36
1576860866.641148,649816.000,47271,3,MY,1,100,-36
1576860866.681048,649849.667,47289,3,MY,1,100,-36
1576860866.720948,649883.333,47289,3,MY,1,100,-34
1576860866.760848,649917.000,47289,3,MY,1,100,-35
1576860866.798377,649948.667,47307,3,MY,1,100,-36
1576860866.835907,649980.333,47307,3,MY,1,100,-36
1576860866.873436,650012.000,47307,3,MY,1,100,-35
1576860866.913337,650045.667,47324,3,MY,1,100,-35
1576860866.953237,650079.333,47324,3,MY,1,100,-36
1576860866.993136,650113.000,47324,3,MY,1,100,-35
1576860867.031456,650145.333,47343,3,MY,1,100,-35
1576860867.069776,650177.667,47343,3,MY,1,100,-36
1576860867.108096,650210.000,47343,3,MY,1,100,-36
1576860867.146811,650242.667,47361,3,MY,1,100,-34
1576860867.185525,650275.333,47361,3,MY,1,100,-37
1576860867.224240,650308.000,47361,3,MY,1,100,-35
1576860867.261375,650339.333,47377,3,MY,1,100,-34
1576860867.298510,650370.667,47377,3,MY,1,100,-35
1576860867.335644,650402.000,47377,3,MY,1,100,-35
1576860867.375939,650436.000,47395,4,MY,1,100,-35
1576860867.416234,650470.000,47395,4,MY,1,100,-36
1576860867.456529,650504.000,47395,4,MY,1,100,-36
1576860867.496824,650538.000,47395,4,MY,1,100,-35
1576860867.534749,650570.000,47413,3,MY,1,100,-35
1576860867.572674,650602.000,47413,3,MY,1,100,-36
1576860867.610598,650634.000,47413,3,MY,1,100,-35
1576860867.651289,650668.333,47431,3,MY,1,100,-35
1576860867.691978,650702.667,47431,3,MY,1,100,-35
1576860867.732669,650737.000,47431,3,MY,1,100,-35
1576860867.773754,650771.667,47449,3,MY,1,100,-36
1576860867.814839,650806.333,47449,3,MY,1,100,-35
1576860867.855924,650841.000,47449,3,MY,1,100,-34
1576860867.897997,650876.500,47467,2,MY,1,100,-36
1576860867.940069,650912.000,47467,2,MY,1,100,-37
1576860867.981154,650946.667,47485,3,MY,1,100,-34
1576860868.022240,650981.333,47485,3,MY,1,100,-36
1576860868.063325,651016.000,47485,3,MY,1,100,-34
1576860868.104805,651051.000,47503,3,MY,1,100,-36
1576860868.146285,651086.000,47503,3,MY,1,100,-34
1576860868.187765,651121.000,47503,3,MY,1,100,-35
1576860868.225690,651153.000,47521,3,MY,1,100,-35
1576860868.263615,651185.000,47521,3,MY,1,100,-36
1576860868.301539,651217.000,47521,3,MY,1,100,-35
1576860868.343019,651252.000,47539,3,MY,1,100,-35
1576860868.384500,651287.000,47539,3,MY,1,100,-34
1576860868.425980,651322.000,47539,3,MY,1,100,-34
1576860868.465880,651355.667,47557,3,MY,1,100,-36
1576860868.505780,651389.333,47557,3,MY,1,100,-36
1576860868.545680,651423.000,47557,3,MY,1,100,-36
1576860868.586765,651457.667,47573,3,MY,1,100,-36
1576860868.627850,651492.333,47573,3,MY,1,100,-35
1576860868.668935,651527.000,47573,3,MY,1,100,-35
1576860868.710810,651562.333,47591,3,MY,1,100,-36
1576860868.752686,651597.667,47591,3,MY,1,100,-35
1576860868.794561,651633.000,47591,3,MY,1,100,-36
1576860868.834856,651667.000,47609,3,MY,1,100,-36
1576860868.875151,651701.000,47609,3,MY,1,100,-35
1576860868.915446,651735.000,47609,3,MY,1,100,-35
1576860868.953371,651767.000,47627,3,MY,1,100,-36
1576860868.991295,651799.000,47627,3,MY,1,100,-36
1576860869.029220,651831.000,47627,3,MY,1,100,-36
1576860869.070305,651865.667,47646,3,MY,1,100,-35
1576860869.111390,651900.333,47646,3,MY,1,100,-36
1576860869.152475,651935.000,47646,3,MY,1,100,-35
1576860869.193955,651970.000,47664,3,MY,1,100,-36
1576860869.235436,652005.000,47664,3,MY,1,100,-36
1576860869.276916,652040.000,47664,3,MY,1,100,-36
1576860869.318791,652075.333,47681,3,MY,1,100,-34
1576860869.360666,652110.667,47681,3,MY,1,100,-36
1576860869.402541,652146.000,47681,3,MY,1,100,-36
1576860869.443627,652180.667,47699,3,MY,1,100,-35
1576860869.484712,652215.333,47699,3,MY,1,100,-36
1576860869.525797,652250.000,47699,3,MY,1,100,-34
1576860869.562932,652281.333,47717,3,MY,1,100,-36
1576860869.600066,652312.667,47717,3,MY,1,100,-36
1576860869.637201,652344.000,47717,3,MY,1,100,-35
1576860869.677496,652378.000,47735,3,MY,1,100,-35
1576860869.717791,652412.000,47735,3,MY,1,100,-35
1576860869.758086,652446.000,47735,3,MY,1,100,-36
1576860869.799171,652480.667,47751,3,MY,1,100,-35
1576860869.840256,652515.333,47751,3,MY,1,100,-35
1576860869.881341,652550.000,47751,3,MY,1,100,-35
1576860869.922031,652584.333,47769,3,MY,1,100,-35
1576860869.962721,652618.667,47769,3,MY,1,100,-36
1576860870.003411,652653.000,47769,3,MY,1,100,-35
1576860870.043114,652686.500,47788,2,MY,1,100,-35
1576860870.082816,652720.000,47788,2,MY,1,100,-35
1576860870.123408,652754.250,47806,4,MY,1,100,-35
1576860870.163999,652788.500,47806,4,MY,1,100,-35
1576860870.204590,652822.750,47806,4,MY,1,100,-35
1576860870.245181,652857.000,47806,4,MY,1,100,-35
1576860870.284686,652890.333,47824,3,MY,1,100,-35
1576860870.324191,652923.667,47824,3,MY,1,100,-36
1576860870.363696,652957.000,47824,3,MY,1,100,-34
1576860870.403201,652990.333,47842,3,MY,1,100,-35
1576860870.442706,653023.667,47842,3,MY,1,100,-35
1576860870.482211,653057.000,47842,3,MY,1,100,-35
1576860870.520136,653089.000,47860,3,MY,1,100,-36
1576860870.558060,653121.000,47860,3,MY,1,100,-34
1576860870.595985,653153.000,47860,3,MY,1,100,-35
1576860870.632725,653184.000,47878,3,MY,1,100,-34
1576860870.669464,653215.000,47878,3,MY,1,100,-37
1576860870.706204,653246.000,47878,3,MY,1,100,-35
1576860870.746894,653280.333,47896,3,MY,1,100,-35
1576860870.787584,653314.667,47896,3,MY,1,100,-36
1576860870.828274,653349.000,47896,3,MY,1,100,-35
1576860870.866989,653381.667,47913,3,MY,1,100,-35
1576860870.905704,653414.333,47913,3,MY,1,100,-35
1576860870.944418,653447.000,47913,3,MY,1,100,-36
1576860870.982817,653479.400,47935,5,MY,1,100,-36
1576860871.021216,653511.800,47935,5,MY,1,100,-35
1576860871.059615,653544.200,47935,5,MY,1,100,-34
1576860871.098014,653576.600,47935,5,MY,1,100,-35
1576860871.136412,653609.000,47935,5,MY,1,100,-35
1576860871.175127,653641.667,47955,3,MY,1,100,-36
1576860871.213842,653674.333,47955,3,MY,1,100,-34
1576860871.252557,653707.000,47955,3,MY,1,100,-36
1576860871.292062,653740.333,47973,3,MY,1,100,-34
1576860871.331567,653773.667,47973,3,MY,1,100,-37
1576860871.371072,653807.000,47973,3,MY,1,100,-36
1576860871.412157,653841.667,47991,3,MY,1,100,-35
1576860871.453242,653876.333,47991,3,MY,1,100,-36
1576860871.494327,653911.000,47991,3,MY,1,100,-34
1576860871.536202,653946.333,48009,3,MY,1,100,-35
1576860871.578077,653981.667,48009,3,MY,1,100,-34
1576860871.619953,654017.000,48009,3,MY,1,100,-35
1576860871.661433,654052.000,48026,3,MY,1,100,-34
1576860871.702913,654087.000,48026,3,MY,1,100,-35
1576860871.744393,654122.000,48026,3,MY,1,100,-36
1576860871.786268,654157.333,48042,3,MY,1,100,-35
1576860871.828144,654192.667,48042,3,MY,1,100,-35
1576860871.870019,654228.000,48042,3,MY,1,100,-36
1576860871.911104,654262.667,48060,3,MY,1,100,-35
1576860871.952189,654297.333,48060,3,MY,1,100,-36
1576860871.993274,654332.000,48060,3,MY,1,100,-35
1576860872.030804,654363.667,48079,3,MY,1,100,-36
1576860872.068333,654395.333,48079,3,MY,1,100,-35
1576860872.105863,654427.000,48079,3,MY,1,100,-35
1576860872.145763,654460.667,48097,3,MY,1,100,-35
1576860872.185663,654494.333,48097,3,MY,1,100,-36
1576860872.225563,654528.000,48097,3,MY,1,100,-36
1576860872.266648,654562.667,48115,3,MY,1,100,-36
1576860872.307733,654597.333,48115,3,MY,1,100,-36
1576860872.348818,654632.000,48115,3,MY,1,100,-35
1576860872.389904,654666.667,48133,3,MY,1,100,-35
1576860872.430989,654701.333,48133,3,MY,1,100,-36
1576860872.472074,654736.000,48133,3,MY,1,100,-34
1576860872.510788,654768.667,48151,3,MY,1,100,-36
1576860872.549503,654801.333,48151,3,MY,1,100,-35
1576860872.588218,654834.000,48151,3,MY,1,100,-35
1576860872.629698,654869.000,48169,3,MY,1,100,-36
1576860872.671179,654904.000,48169,3,MY,1,100,-35
1576860872.712659,654939.000,48169,3,MY,1,100,-35
1576860872.753349,654973.333,48187,3,MY,1,100,-37
1576860872.794039,655007.667,48187,3,MY,1,100,-36
1576860872.834729,655042.000,48187,3,MY,1,100,-36
1576860872.875617,655076.500,48204,2,MY,1,100,-36
1576860872.916504,655111.000,48204,2,MY,1,100,-35
1576860872.957589,655145.667,48222,3,MY,1,100,-36
1576860872.998674,655180.333,48222,3,MY,1,100,-35
1576860873.039759,655215.000,48222,3,MY,1,100,-35
1576860873.080055,655249.000,48239,3,MY,1,100,-35
1576860873.120349,655283.000,48239,3,MY,1,100,-34
1576860873.160645,655317.000,48239,3,MY,1,100,-34
1576860873.201334,655351.333,48257,3,MY,1,100,-35
1576860873.242025,655385.667,48257,3,MY,1,100,-36
1576860873.282715,655420.000,48257,3,MY,1,100,-35
1576860873.321034,655452.333,48275,3,MY,1,100,-35
1576860873.359354,655484.667,48275,3,MY,1,100,-34
1576860873.397674,655517.000,48275,3,MY,1,100,-36
1576860873.438759,655551.667,48293,3,MY,1,100,-36
1576860873.479844,655586.333,48293,3,MY,1,100,-36
1576860873.520929,655621.000,48293,3,MY,1,100,-36
1576860873.562014,655655.667,48311,3,MY,1,100,-35
1576860873.603100,655690.333,48311,3,MY,1,100,-34
1576860873.644185,655725.000,48311,3,MY,1,100,-36
1576860873.683690,655758.333,48329,3,MY,1,100,-34
1576860873.723195,655791.667,48329,3,MY,1,100,-35
1576860873.762699,655825.000,48329,3,MY,1,100,-36
1576860873.800624,655857.000,48347,3,MY,1,100,-35
1576860873.838549,655889.000,48347,3,MY,1,100,-35
1576860873.876474,655921.000,48347,3,MY,1,100,-35
1576860873.918744,655956.667,48365,3,MY,1,100,-36
1576860873.961014,655992.333,48365,3,MY,1,100,-35
1576860874.003284,656028.000,48365,3,MY,1,100,-35
1576860874.042789,656061.333,48383,3,MY,1,100,-35
1576860874.082294,656094.667,48383,3,MY,1,100,-35
1576860874.121799,656128.000,48383,3,MY,1,100,-34
1576860874.162884,656162.667,48401,3,MY,1,100,-35
1576860874.203969,656197.333,48401,3,MY,1,100,-35
1576860874.245054,656232.000,48401,3,MY,1,100,-34
1576860874.283374,656264.333,48419,3,MY,1,100,-35
1576860874.321694,656296.667,48419,3,MY,1,100,-35
1576860874.360014,656329.000,48419,3,MY,1,100,-36
1576860874.397938,656361.000,48435,3,MY,1,100,-35
1576860874.435863,656393.000,48435,3,MY,1,100,-35
1576860874.473788,656425.000,48435,3,MY,1,100,-36
1576860874.515663,656460.333,48453,3,MY,1,100,-35
1576860874.557539,656495.667,48453,3,MY,1,100,-36
1576860874.599414,656531.000,48453,3,MY,1,100,-35
1576860874.635363,656561.333,48471,3,MY,1,100,-35
1576860874.671313,656591.667,48471,3,MY,1,100,-36
1576860874.707262,656622.000,48471,3,MY,1,100,-35
1576860874.751508,656659.333,48489,3,MY,1,100,-35
1576860874.795753,656696.667,48489,3,MY,1,100,-35
1576860874.839998,656734.000,48489,3,MY,1,100,-35
1576860874.877528,656765.667,48507,3,MY,1,100,-35
1576860874.915058,656797.333,48507,3,MY,1,100,-35
1576860874.952588,656829.000,48507,3,MY,1,100,-35
1576860874.992883,656863.000,48526,3,MY,1,100,-35
1576860875.033178,656897.000,48526,3,MY,1,100,-36
1576860875.073473,656931.000,48526,3,MY,1,100,-36
1576860875.114953,656966.000,48544,3,MY,1,100,-34
1576860875.156433,657001.000,48544,3,MY,1,100,-36
1576860875.197913,657036.000,48544,3,MY,1,100,-36
1576860875.239393,657071.000,48561,3,MY,1,100,-35
1576860875.280874,657106.000,48561,3,MY,1,100,-36
1576860875.322354,657141.000,48561,3,MY,1,100,-35
1576860875.363439,657175.667,48579,3,MY,1,100,-35
1576860875.404524,657210.333,48579,3,MY,1,100,-35
1576860875.445609,657245.000,48579,3,MY,1,100,-36
1576860875.487089,657280.000,48595,3,MY,1,100,-36
1576860875.528569,657315.000,48595,3,MY,1,100,-36
1576860875.570050,657350.000,48595,3,MY,1,100,-36
1576860875.607974,657382.000,48613,3,MY,1,100,-35
1576860875.645899,657414.000,48613,3,MY,1,100,-36
1576860875.683824,657446.000,48613,3,MY,1,100,-35
1576860875.725699,657481.333,48631,3,MY,1,100,-35
1576860875.767574,657516.667,48631,3,MY,1,100,-36
1576860875.809449,657552.000,48631,3,MY,1,100,-36
1576860875.845794,657582.667,48649,3,MY,1,100,-35
1576860875.882138,657613.333,48649,3,MY,1,100,-35
1576860875.918483,657644.000,48649,3,MY,1,100,-36
1576860875.957988,657677.333,48668,3,MY,1,100,-36
1576860875.997493,657710.667,48668,3,MY,1,100,-36
1576860876.036998,657744.000,48668,3,MY,1,100,-35
1576860876.080848,657781.000,48686,3,MY,1,100,-35
1576860876.124699,657818.000,48686,3,MY,1,100,-35
1576860876.168549,657855.000,48686,3,MY,1,100,-35
1576860876.208844,657889.000,48704,3,MY,1,100,-36
1576860876.249139,657923.000,48704,3,MY,1,100,-36
1576860876.289434,657957.000,48704,3,MY,1,100,-34
1576860876.330124,657991.333,48722,3,MY,1,100,-36
1576860876.370814,658025.667,48722,3,MY,1,100,-36
1576860876.411504,658060.000,48722,3,MY,1,100,-36
1576860876.449429,658092.000,48739,3,MY,1,100,-35
1576860876.487354,658124.000,48739,3,MY,1,100,-35
1576860876.525278,658156.000,48739,3,MY,1,100,-36
1576860876.566759,658191.000,48757,3,MY,1,100,-35
1576860876.608239,658226.000,48757,3,MY,1,100,-35
1576860876.649719,658261.000,48757,3,MY,1,100,-36
1576860876.690014,658295.000,48775,3,MY,1,100,-35
1576860876.730309,658329.000,48775,3,MY,1,100,-35
1576860876.770604,658363.000,48775,3,MY,1,100,-34
1576860876.812084,658398.000,48791,3,MY,1,100,-36
1576860876.853564,658433.000,48791,3,MY,1,100,-35
1576860876.895045,658468.000,48791,3,MY,1,100,-36
1576860876.936525,658503.000,48809,3,MY,1,100,-36
1576860876.978005,658538.000,48809,3,MY,1,100,-34
1576860877.019485,658573.000,48809,3,MY,1,100,-35
1576860877.057173,658604.800,48831,5,MY,1,100,-35
1576860877.094860,658636.600,48831,5,MY,1,100,-36
1576860877.132548,658668.400,48831,5,MY,1,100,-35
1576860877.170236,658700.200,48831,5,MY,1,100,-35
1576860877.207923,658732.000,48831,5,MY,1,100,-36
1576860877.247428,658765.333,48850,3,MY,1,100,-36
1576860877.286933,658798.667,48850,3,MY,1,100,-36
1576860877.326438,658832.000,48850,3,MY,1,100,-36
1576860877.373844,658872.000,48868,2,MY,1,100,-36
1576860877.421250,658912.000,48868,2,MY,1,100,-35
1576860877.461940,658946.333,48884,3,MY,1,100,-36
1576860877.502630,658980.667,48884,3,MY,1,100,-35
1576860877.543320,659015.000,48884,3,MY,1,100,-35
1576860877.584405,659049.667,48902,3,MY,1,100,-35
1576860877.625490,659084.333,48902,3,MY,1,100,-36
1576860877.666576,659119.000,48902,3,MY,1,100,-36
1576860877.703710,659150.333,48920,3,MY,1,100,-35
1576860877.740845,659181.667,48920,3,MY,1,100,-36
1576860877.777979,659213.000,48920,3,MY,1,100,-35
1576860877.820250,659248.667,48938,3,MY,1,100,-35
1576860877.862520,659284.333,48938,3,MY,1,100,-36
1576860877.904790,659320.000,48938,3,MY,1,100,-36
1576860877.946270,659355.000,48957,3,MY,1,100,-34
1576860877.987751,659390.000,48957,3,MY,1,100,-36
1576860878.029231,659425.000,48957,3,MY,1,100,-36
1576860878.069131,659458.667,48975,3,MY,1,100,-34
1576860878.109031,659492.333,48975,3,MY,1,100,-35
1576860878.148931,659526.000,48975,3,MY,1,100,-35
1576860878.186855,659558.000,48993,3,MY,1,100,-35
1576860878.224780,659590.000,48993,3,MY,1,100,-35
1576860878.262705,659622.000,48993,3,MY,1,100,-36
1576860878.306160,659658.667,49011,3,MY,1,100,-36
1576860878.349616,659695.333,49011,3,MY,1,100,-35
1576860878.393071,659732.000,49011,3,MY,1,100,-36
1576860878.429811,659763.000,49028,3,MY,1,100,-35
1576860878.466550,659794.000,49028,3,MY,1,100,-35
1576860878.503290,659825.000,49028,3,MY,1,100,-36
1576860878.548720,659863.333,49044,3,MY,1,100,-34
1576860878.594151,659901.667,49044,3,MY,1,100,-36
1576860878.639582,659940.000,49044,3,MY,1,100,-35
1576860878.679087,659973.333,49062,3,MY,1,100,-36
1576860878.718591,660006.667,49062,3,MY,1,100,-36
1576860878.758096,660040.000,49062,3,MY,1,100,-36
1576860878.796021,660072.000,49080,3,MY,1,100,-37
1576860878.833946,660104.000,49080,3,MY,1,100,-36
1576860878.871871,660136.000,49080,3,MY,1,100,-35
1576860878.914536,660172.000,49098,3,MY,1,100,-34
1576860878.957201,660208.000,49098,3,MY,1,100,-35
1576860878.999866,660244.000,49098,3,MY,1,100,-36
1576860879.040952,660278.667,49117,3,MY,1,100,-36
1576860879.082037,660313.333,49117,3,MY,1,100,-36
1576860879.123122,660348.000,49117,3,MY,1,100,-35
1576860879.164207,660382.667,49135,3,MY,1,100,-35
1576860879.205292,660417.333,49135,3,MY,1,100,-34
1576860879.246377,660452.000,49135,3,MY,1,100,-36
1576860879.287858,660487.000,49153,2,MY,1,100,-36
1576860879.329338,660522.000,49153,2,MY,1,100,-36
1576860879.368744,660555.250,49170,4,MY,1,100,-35
1576860879.408150,660588.500,49170,4,MY,1,100,-34
1576860879.447556,660621.750,49170,4,MY,1,100,-35
1576860879.486962,660655.000,49170,4,MY,1,100,-35
1576860879.525677,660687.667,49188,3,MY,1,100,-35
1576860879.564392,660720.333,49188,3,MY,1,100,-34
1576860879.603107,660753.000,49188,3,MY,1,100,-36
1576860879.640636,660784.667,49206,3,MY,1,100,-35
1576860879.678166,660816.333,49206,3,MY,1,100,-35
1576860879.715696,660848.000,49206,3,MY,1,100,-35
1576860879.755991,660882.000,49222,3,MY,1,100,-35
1576860879.796286,660916.000,49222,3,MY,1,100,-36
1576860879.836581,660950.000,49222,3,MY,1,100,-35
1576860879.883394,660989.500,49240,2,MY,1,100,-35
1576860879.930207,661029.000,49240,2,MY,1,100,-35
1576860879.970502,661063.000,49259,3,MY,1,100,-34
1576860880.010798,661097.000,49259,3,MY,1,100,-36
1576860880.051092,661131.000,49259,3,MY,1,100,-35
1576860880.092178,661165.667,49277,3,MY,1,100,-36
1576860880.133263,661200.333,49277,3,MY,1,100,-35
1576860880.174348,661235.000,49277,3,MY,1,100,-35
1576860880.211680,661266.500,49295,4,MY,1,100,-35
1576860880.249012,661298.000,49295,4,MY,1,100,-35
1576860880.286344,661329.500,49295,4,MY,1,100,-36
1576860880.323676,661361.000,49295,4,MY,1,100,-35
1576860880.362194,661393.500,49313,2,MY,1,100,-36
1576860880.400711,661426.000,49313,2,MY,1,100,-35
1576860880.446142,661464.333,49331,3,MY,1,100,-36
1576860880.491572,661502.667,49331,3,MY,1,100,-36
1576860880.537003,661541.000,49331,3,MY,1,100,-36
1576860880.577693,661575.333,49349,3,MY,1,100,-37
1576860880.618383,661609.667,49349,3,MY,1,100,-34
1576860880.659073,661644.000,49349,3,MY,1,100,-35
1576860880.699763,661678.333,49366,3,MY,1,100,-35
1576860880.740453,661712.667,49366,3,MY,1,100,-36
1576860880.781143,661747.000,49366,3,MY,1,100,-36
1576860880.819068,661779.000,49384,3,MY,1,100,-36
1576860880.856993,661811.000,49384,3,MY,1,100,-35
1576860880.894917,661843.000,49384,3,MY,1,100,-36
1576860880.933237,661875.333,49402,3,MY,1,100,-36
1576860880.971557,661907.667,49402,3,MY,1,100,-35
1576860881.009877,661940.000,49402,3,MY,1,100,-34
1576860881.050567,661974.333,49419,3,MY,1,100,-34
1576860881.091257,662008.667,49419,3,MY,1,100,-36
1576860881.131947,662043.000,49419,3,MY,1,100,-36
1576860881.176588,662080.667,49437,3,MY,1,100,-36
1576860881.221228,662118.333,49437,3,MY,1,100,-35
1576860881.265869,662156.000,49437,3,MY,1,100,-35
1576860881.306954,662190.667,49455,3,MY,1,100,-35
1576860881.348039,662225.333,49455,3,MY,1,100,-34
1576860881.389124,662260.000,49455,3,MY,1,100,-37
1576860881.425864,662291.000,49473,3,MY,1,100,-36
1576860881.462603,662322.000,49473,3,MY,1,100,-36
1576860881.499343,662353.000,49473,3,MY,1,100,-35
1576860881.538848,662386.333,49491,3,MY,1,100,-35
1576860881.578353,662419.667,49491,3,MY,1,100,-36
1576860881.617858,662453.000,49491,3,MY,1,100,-36
1576860881.661708,662490.000,49509,3,MY,1,100,-36
1576860881.705559,662527.000,49509,3,MY,1,100,-34
1576860881.749409,662564.000,49509,3,MY,1,100,-36
1576860881.787729,662596.333,49527,3,MY,1,100,-35
1576860881.826049,662628.667,49527,3,MY,1,100,-36
1576860881.864368,662661.000,49527,3,MY,1,100,-36
1576860881.909997,662699.500,49544,2,MY,1,100,-35
1576860881.955625,662738.000,49544,2,MY,1,100,-35
1576860881.994142,662770.500,49563,4,MY,1,100,-36
1576860882.032659,662803.000,49563,4,MY,1,100,-35
1576860882.071177,662835.500,49563,4,MY,1,100,-36
1576860882.109694,662868.000,49563,4,MY,1,100,-35
1576860882.156507,662907.500,49579,2,MY,1,100,-35
1576860882.203321,662947.000,49579,2,MY,1,100,-35
1576860882.241542,662979.250,49597,4,MY,1,100,-36
1576860882.279763,663011.500,49597,4,MY,1,100,-36
1576860882.317984,663043.750,49597,4,MY,1,100,-36
1576860882.356205,663076.000,49597,4,MY,1,100,-35
1576860882.404203,663116.500,49615,2,MY,1,100,-35
1576860882.452202,663157.000,49615,2,MY,1,100,-36
1576860882.489336,663188.333,49633,3,MY,1,100,-35
1576860882.526471,663219.667,49633,3,MY,1,100,-36
1576860882.563605,663251.000,49633,3,MY,1,100,-35
1576860882.606271,663287.000,49651,3,MY,1,100,-35
1576860882.648936,663323.000,49651,3,MY,1,100,-35
1576860882.691601,663359.000,49651,3,MY,1,100,-36
1576860882.735452,663396.000,49668,3,MY,1,100,-34
1576860882.779302,663433.000,49668,3,MY,1,100,-34
1576860882.823153,663470.000,49668,3,MY,1,100,-36
1576860882.864238,663504.667,49686,3,MY,1,100,-35
1576860882.905323,663539.333,49686,3,MY,1,100,-36
1576860882.946408,663574.000,49686,3,MY,1,100,-36
1576860882.987493,663608.667,49702,3,MY,1,100,-35
1576860883.028578,663643.333,49702,3,MY,1,100,-36
1576860883.069663,663678.000,49702,3,MY,1,100,-36
1576860883.111440,663713.250,49724,4,MY,1,100,-36
1576860883.153216,663748.500,49724,4,MY,1,100,-35
1576860883.194993,663783.750,49724,4,MY,1,100,-35
1576860883.236769,663819.000,49724,4,MY,1,100,-35
1576860883.275484,663851.667,49744,3,MY,1,100,-36
1576860883.314199,663884.333,49744,3,MY,1,100,-35
1576860883.352914,663917.000,49744,3,MY,1,100,-34
1576860883.391629,663949.667,49761,3,MY,1,100,-36
1576860883.430343,663982.333,49761,3,MY,1,100,-35
1576860883.469058,664015.000,49761,3,MY,1,100,-35
1576860883.508563,664048.333,49779,3,MY,1,100,-34
1576860883.548068,664081.667,49779,3,MY,1,100,-35
1576860883.587573,664115.000,49779,3,MY,1,100,-35
1576860883.628263,664149.333,49795,3,MY,1,100,-35
1576860883.668953,664183.667,49795,3,MY,1,100,-35
1576860883.709643,664218.000,49795,3,MY,1,100,-36
1576860883.749938,664252.000,49813,3,MY,1,100,-37
1576860883.790233,664286.000,49813,3,MY,1,100,-36
1576860883.830528,664320.000,49813,3,MY,1,100,-37
1576860883.875564,664358.000,49831,3,MY,1,100,-36
1576860883.920599,664396.000,49831,3,MY,1,100,-35
1576860883.965635,664434.000,49831,3,MY,1,100,-35
1576860884.006325,664468.333,49850,3,MY,1,100,-36
1576860884.047015,664502.667,49850,3,MY,1,100,-36
1576860884.087705,664537.000,49850,3,MY,1,100,-35
1576860884.126420,664569.667,49868,3,MY,1,100,-35
1576860884.165135,664602.333,49868,3,MY,1,100,-35
1576860884.203850,664635.000,49868,3,MY,1,100,-36
1576860884.241379,664666.667,49886,3,MY,1,100,-35
1576860884.278909,664698.333,49886,3,MY,1,100,-34
1576860884.316439,664730.000,49886,3,MY,1,100,-34
1576860884.356339,664763.667,49904,3,MY,1,100,-35
1576860884.396239,664797.333,49904,3,MY,1,100,-35
1576860884.436139,664831.000,49904,3,MY,1,100,-36
1576860884.481174,664869.000,49921,3,MY,1,100,-35
1576860884.526210,664907.000,49921,3,MY,1,100,-36
1576860884.571245,664945.000,49921,3,MY,1,100,-36
1576860884.611935,664979.333,49939,3,MY,1,100,-36
1576860884.652626,665013.667,49939,3,MY,1,100,-36
1576860884.693316,665048.000,49939,3,MY,1,100,-36
1576860884.732030,665080.667,49957,3,MY,1,100,-36
1576860884.770745,665113.333,49957,3,MY,1,100,-35
1576860884.809460,665146.000,49957,3,MY,1,100,-36
1576860884.847780,665178.333,49975,3,MY,1,100,-34
1576860884.886100,665210.667,49975,3,MY,1,100,-35
1576860884.924419,665243.000,49975,3,MY,1,100,-35
1576860884.963924,665276.333,49991,3,MY,1,100,-35
1576860885.003429,665309.667,49991,3,MY,1,100,-36
1576860885.042934,665343.000,49991,3,MY,1,100,-36
1576860885.084414,665378.000,50010,3,MY,1,100,-35
1576860885.125895,665413.000,50010,3,MY,1,100,-35
1576860885.167375,665448.000,50010,3,MY,1,100,-36
1576860885.214188,665487.500,50028,2,MY,1,100,-36
1576860885.261001,665527.000,50028,2,MY,1,100,-35
1576860885.300111,665560.000,50046,4,MY,1,100,-35
1576860885.339221,665593.000,50046,4,MY,1,100,-36
1576860885.378331,665626.000,50046,4,MY,1,100,-35
1576860885.417441,665659.000,50046,4,MY,1,100,-35
1576860885.454575,665690.333,50064,3,MY,1,100,-35
1576860885.491710,665721.667,50064,3,MY,1,100,-36
1576860885.528845,665753.000,50064,3,MY,1,100,-35
1576860885.568745,665786.667,50082,3,MY,1,100,-36
1576860885.608644,665820.333,50082,3,MY,1,100,-35
1576860885.648545,665854.000,50082,3,MY,1,100,-35
1576860885.689234,665888.333,50100,3,MY,1,100,-34
1576860885.729925,665922.667,50100,3,MY,1,100,-35
1576860885.770615,665957.000,50100,3,MY,1,100,-36
1576860885.818021,665997.000,50117,2,MY,1,100,-35
1576860885.865427,666037.000,50117,2,MY,1,100,-35
1576860885.903351,666069.000,50135,3,MY,1,100,-36
1576860885.941276,666101.000,50135,3,MY,1,100,-34
1576860885.979201,666133.000,50135,3,MY,1,100,-36
1576860886.021471,666168.667,50152,3,MY,1,100,-34
1576860886.063741,666204.333,50152,3,MY,1,100,-36
1576860886.106011,666240.000,50152,3,MY,1,100,-36
1576860886.150652,666277.667,50170,3,MY,1,100,-36
1576860886.195293,666315.333,50170,3,MY,1,100,-35
1576860886.239933,666353.000,50170,3,MY,1,100,-35
1576860886.277858,666385.000,50188,3,MY,1,100,-35
1576860886.315783,666417.000,50188,3,MY,1,100,-34
1576860886.353707,666449.000,50188,3,MY,1,100,-35
1576860886.398743,666487.000,50206,3,MY,1,100,-35
1576860886.443779,666525.000,50206,3,MY,1,100,-35
1576860886.488814,666563.000,50206,3,MY,1,100,-35
1576860886.526739,666595.000,50224,3,MY,1,100,-35
1576860886.564664,666627.000,50224,3,MY,1,100,-34
1576860886.602588,666659.000,50224,3,MY,1,100,-36
1576860886.644859,666694.667,50241,3,MY,1,100,-35
1576860886.687129,666730.333,50241,3,MY,1,100,-35
1576860886.729399,666766.000,50241,3,MY,1,100,-35
1576860886.770484,666800.667,50259,3,MY,1,100,-36
1576860886.811569,666835.333,50259,3,MY,1,100,-36
1576860886.852654,666870.000,50259,3,MY,1,100,-36
1576860886.899468,666909.500,50275,2,MY,1,100,-35
1576860886.946281,666949.000,50275,2,MY,1,100,-36
1576860886.986971,666983.333,50293,3,MY,1,100,-36
1576860887.027661,667017.667,50293,3,MY,1,100,-35
1576860887.068351,667052.000,50293,3,MY,1,100,-36
1576860887.105881,667083.667,50312,3,MY,1,100,-35
1576860887.143411,667115.333,50312,3,MY,1,100,-35
1576860887.180940,667147.000,50312,3,MY,1,100,-37
1576860887.221630,667181.333,50330,3,MY,1,100,-35
1576860887.262321,667215.667,50330,3,MY,1,100,-36
1576860887.303010,667250.000,50330,3,MY,1,100,-34
1576860887.341330,667282.333,50348,3,MY,1,100,-34
1576860887.379650,667314.667,50348,3,MY,1,100,-35
1576860887.417970,667347.000,50348,3,MY,1,100,-36
1576860887.458265,667381.000,50366,4,MY,1,100,-35
1576860887.498560,667415.000,50366,4,MY,1,100,-35
1576860887.538855,667449.000,50366,4,MY,1,100,-36
1576860887.579150,667483.000,50366,4,MY,1,100,-35
1576860887.620038,667517.500,50384,2,MY,1,100,-36
1576860887.660925,667552.000,50384,2,MY,1,100,-36
1576860887.706356,667590.333,50401,3,MY,1,100,-35
1576860887.751786,667628.667,50401,3,MY,1,100,-35
1576860887.797217,667667.000,50401,3,MY,1,100,-36
1576860887.836327,667700.000,50419,3,MY,1,100,-35
1576860887.875437,667733.000,50419,3,MY,1,100,-35
1576860887.914547,667766.000,50419,3,MY,1,100,-35
1576860887.952867,667798.333,50437,3,MY,1,100,-36
1576860887.991186,667830.667,50437,3,MY,1,100,-35
1576860888.029506,667863.000,50437,3,MY,1,100,-35
1576860888.068616,667896.000,50456,3,MY,1,100,-36
1576860888.107726,667929.000,50456,3,MY,1,100,-34
1576860888.146836,667962.000,50456,3,MY,1,100,-36
1576860888.187131,667996.000,50472,3,MY,1,100,-35
1576860888.227426,668030.000,50472,3,MY,1,100,-36
1576860888.267721,668064.000,50472,3,MY,1,100,-35
1576860888.312756,668102.000,50490,3,MY,1,100,-35
1576860888.357792,668140.000,50490,3,MY,1,100,-35
1576860888.402828,668178.000,50490,3,MY,1,100,-36
1576860888.442728,668211.667,50508,3,MY,1,100,-36
1576860888.482627,668245.333,50508,3,MY,1,100,-35
1576860888.522527,668279.000,50508,3,MY,1,100,-36
1576860888.560452,668311.000,50526,3,MY,1,100,-36
1576860888.598377,668343.000,50526,3,MY,1,100,-34
1576860888.636302,668375.000,50526,3,MY,1,100,-35
1576860888.675411,668408.000,50544,3,MY,1,100,-36
1576860888.714521,668441.000,50544,3,MY,1,100,-34
1576860888.753631,668474.000,50544,3,MY,1,100,-36
1576860888.794716,668508.667,50562,3,MY,1,100,-35
1576860888.835801,668543.333,50562,3,MY,1,100,-34
1576860888.876887,668578.000,50562,3,MY,1,100,-36
1576860888.917972,668612.667,50579,3,MY,1,100,-34
1576860888.959057,668647.333,50579,3,MY,1,100,-35
1576860889.000142,668682.000,50579,3,MY,1,100,-36
