EpochTimestamp,EmotiBitTimestamp,PacketNumber,DataLength,TypeTag,ProtocolVersion,DataReliability,PR
1576860145.054407,41088.000,6495,6,PR,1,100,166772
1576860145.054407,41088.000,6495,6,PR,1,100,166788
1576860145.054407,41088.000,6495,6,PR,1,100,166804
1576860145.054407,41088.000,6495,6,PR,1,100,166822
1576860145.054407,41088.000,6495,6,PR,1,100,166851
1576860145.054407,41088.000,6495,6,PR,1,100,166795
1576860145.091454,41119.250,6513,4,PR,1,100,166851
1576860145.128501,41150.500,6513,4,PR,1,100,166901
1576860145.165549,41181.750,6513,4,PR,1,100,166859
1576860145.202596,41213.000,6513,4,PR,1,100,166895
1576860145.242508,41246.667,6531,3,PR,1,100,166977
1576860145.282421,41280.333,6531,3,PR,1,100,166973
1576860145.322333,41314.000,6531,3,PR,1,100,166961
1576860145.363826,41349.000,6549,2,PR,1,100,167008
1576860145.405319,41384.000,6549,2,PR,1,100,167013
1576860145.446022,41418.333,6566,3,PR,1,100,167048
1576860145.486724,41452.667,6566,3,PR,1,100,167060
1576860145.527427,41487.000,6566,3,PR,1,100,166875
1576860145.568920,41522.000,6584,3,PR,1,100,166752
1576860145.610413,41557.000,6584,3,PR,1,100,166758
1576860145.651906,41592.000,6584,3,PR,1,100,166776
1576860145.689546,41623.750,6602,4,PR,1,100,166780
1576860145.727186,41655.500,6602,4,PR,1,100,166788
1576860145.764826,41687.250,6602,4,PR,1,100,166819
1576860145.802466,41719.000,6602,4,PR,1,100,166797
1576860145.841588,41752.000,6621,3,PR,1,100,166791
1576860145.880710,41785.000,6621,3,PR,1,100,166770
1576860145.919832,41818.000,6621,3,PR,1,100,166848
1576860145.958954,41851.000,6637,3,PR,1,100,166863
1576860145.998076,41884.000,6637,3,PR,1,100,166912
1576860146.037198,41917.000,6637,3,PR,1,100,166939
1576860146.075925,41949.667,6655,3,PR,1,100,166941
1576860146.114652,41982.333,6655,3,PR,1,100,166962
1576860146.153378,42015.000,6655,3,PR,1,100,167009
1576860146.194081,42049.333,6673,3,PR,1,100,167041
1576860146.234784,42083.667,6673,3,PR,1,100,167066
1576860146.275486,42118.000,6673,3,PR,1,100,167035
1576860146.309866,42147.000,6691,3,PR,1,100,166849
1576860146.344246,42176.000,6691,3,PR,1,100,166730
1576860146.378626,42205.000,6691,3,PR,1,100,166755
1576860146.422490,42242.000,6709,3,PR,1,100,166792
1576860146.466354,42279.000,6709,3,PR,1,100,166785
1576860146.510218,42316.000,6709,3,PR,1,100,166799
1576860146.551316,42350.667,6727,3,PR,1,100,166818
1576860146.592414,42385.333,6727,3,PR,1,100,166796
1576860146.633512,42420.000,6727,3,PR,1,100,166805
1576860146.671448,42452.000,6745,3,PR,1,100,166815
1576860146.709385,42484.000,6745,3,PR,1,100,166816
1576860146.747321,42516.000,6745,3,PR,1,100,166887
1576860146.788419,42550.667,6763,3,PR,1,100,166928
1576860146.829517,42585.333,6763,3,PR,1,100,166960
1576860146.870615,42620.000,6763,3,PR,1,100,166958
1576860146.911317,42654.333,6781,3,PR,1,100,166968
1576860146.952020,42688.667,6781,3,PR,1,100,166988
1576860146.992723,42723.000,6781,3,PR,1,100,166967
1576860147.033030,42757.000,6797,3,PR,1,100,167038
1576860147.073338,42791.000,6797,3,PR,1,100,167029
1576860147.113645,42825.000,6797,3,PR,1,100,166769
1576860147.151977,42857.333,6815,3,PR,1,100,166734
1576860147.190308,42889.667,6815,3,PR,1,100,166839
1576860147.228640,42922.000,6815,3,PR,1,100,166818
1576860147.267762,42955.000,6833,3,PR,1,100,166812
1576860147.306884,42988.000,6833,3,PR,1,100,166827
1576860147.346006,43021.000,6833,3,PR,1,100,166828
1576860147.391055,43059.000,6851,3,PR,1,100,166828
1576860147.436105,43097.000,6851,3,PR,1,100,166843
1576860147.481154,43135.000,6851,3,PR,1,100,166870
1576860147.517905,43166.000,6869,3,PR,1,100,166915
1576860147.554656,43197.000,6869,3,PR,1,100,166952
1576860147.591407,43228.000,6869,3,PR,1,100,166964
1576860147.632505,43262.667,6887,3,PR,1,100,166993
1576860147.673603,43297.333,6887,3,PR,1,100,167022
1576860147.714701,43332.000,6887,3,PR,1,100,167033
1576860147.755403,43366.333,6905,3,PR,1,100,167045
1576860147.796106,43400.667,6905,3,PR,1,100,167093
1576860147.836809,43435.000,6905,3,PR,1,100,167050
1576860147.876721,43468.667,6923,3,PR,1,100,166865
1576860147.916633,43502.333,6923,3,PR,1,100,166795
1576860147.956546,43536.000,6923,3,PR,1,100,166817
1576860147.994482,43568.000,6941,3,PR,1,100,166812
1576860148.032418,43600.000,6941,3,PR,1,100,166814
1576860148.070355,43632.000,6941,3,PR,1,100,166819
1576860148.109082,43664.667,6959,3,PR,1,100,166818
1576860148.147809,43697.333,6959,3,PR,1,100,166871
1576860148.186535,43730.000,6959,3,PR,1,100,166872
1576860148.227238,43764.333,6975,3,PR,1,100,166873
1576860148.267941,43798.667,6975,3,PR,1,100,166955
1576860148.308643,43833.000,6975,3,PR,1,100,167009
1576860148.349741,43867.667,6993,3,PR,1,100,166975
1576860148.390839,43902.333,6993,3,PR,1,100,166975
1576860148.431937,43937.000,6993,3,PR,1,100,167011
1576860148.479357,43977.000,7011,2,PR,1,100,167042
1576860148.526778,44017.000,7011,2,PR,1,100,167065
1576860148.564714,44049.000,7029,4,PR,1,100,167085
1576860148.602651,44081.000,7029,4,PR,1,100,167102
1576860148.640587,44113.000,7029,4,PR,1,100,167014
1576860148.678524,44145.000,7029,4,PR,1,100,166870
1576860148.717251,44177.667,7047,3,PR,1,100,166841
1576860148.755977,44210.333,7047,3,PR,1,100,166859
1576860148.794704,44243.000,7047,3,PR,1,100,166865
1576860148.835012,44277.000,7066,3,PR,1,100,166876
1576860148.875319,44311.000,7066,3,PR,1,100,166865
1576860148.915627,44345.000,7066,3,PR,1,100,166852
1576860148.957120,44380.000,7084,2,PR,1,100,166915
1576860148.998613,44415.000,7084,2,PR,1,100,166916
1576860149.040106,44450.000,7101,3,PR,1,100,166914
1576860149.081599,44485.000,7101,3,PR,1,100,167010
1576860149.123092,44520.000,7101,3,PR,1,100,167040
1576860149.161621,44552.500,7119,4,PR,1,100,167008
1576860149.200150,44585.000,7119,4,PR,1,100,167029
1576860149.238679,44617.500,7119,4,PR,1,100,167052
1576860149.277209,44650.000,7119,4,PR,1,100,167081
1576860149.314355,44681.333,7137,3,PR,1,100,167110
1576860149.351501,44712.667,7137,3,PR,1,100,167134
1576860149.388647,44744.000,7137,3,PR,1,100,167133
1576860149.428954,44778.000,7155,3,PR,1,100,167070
1576860149.469262,44812.000,7155,3,PR,1,100,166933
1576860149.509569,44846.000,7155,3,PR,1,100,166908
1576860149.551062,44881.000,7171,3,PR,1,100,166923
1576860149.592555,44916.000,7171,3,PR,1,100,166926
1576860149.634048,44951.000,7171,3,PR,1,100,166933
1576860149.674356,44985.000,7189,2,PR,1,100,166923
1576860149.714663,45019.000,7189,2,PR,1,100,166894
1576860149.753785,45052.000,7207,4,PR,1,100,166978
1576860149.792907,45085.000,7207,4,PR,1,100,167001
1576860149.832029,45118.000,7207,4,PR,1,100,166968
1576860149.871151,45151.000,7207,4,PR,1,100,167012
1576860149.909088,45183.000,7226,3,PR,1,100,167098
1576860149.947024,45215.000,7226,3,PR,1,100,167050
1576860149.984961,45247.000,7226,3,PR,1,100,167068
1576860150.022897,45279.000,7244,3,PR,1,100,167078
1576860150.060833,45311.000,7244,3,PR,1,100,167126
1576860150.098770,45343.000,7244,3,PR,1,100,167145
1576860150.141053,45378.667,7262,3,PR,1,100,167164
1576860150.183337,45414.333,7262,3,PR,1,100,167140
1576860150.225620,45450.000,7262,3,PR,1,100,166947
1576860150.261580,45480.333,7280,3,PR,1,100,166904
1576860150.297541,45510.667,7280,3,PR,1,100,166933
1576860150.333502,45541.000,7280,3,PR,1,100,166957
1576860150.373809,45575.000,7297,3,PR,1,100,166917
1576860150.414117,45609.000,7297,3,PR,1,100,166989
1576860150.454424,45643.000,7297,3,PR,1,100,167001
1576860150.494732,45677.000,7315,3,PR,1,100,166964
1576860150.535039,45711.000,7315,3,PR,1,100,166969
1576860150.575347,45745.000,7315,3,PR,1,100,167006
1576860150.617630,45780.667,7333,3,PR,1,100,167034
1576860150.659913,45816.333,7333,3,PR,1,100,167058
1576860150.702197,45852.000,7333,3,PR,1,100,167060
1576860150.743294,45886.667,7349,3,PR,1,100,167097
1576860150.784392,45921.333,7349,3,PR,1,100,167099
1576860150.825490,45956.000,7349,3,PR,1,100,167097
1576860150.866983,45991.000,7368,3,PR,1,100,167140
1576860150.908476,46026.000,7368,3,PR,1,100,167146
1576860150.949969,46061.000,7368,3,PR,1,100,167045
1576860150.988854,46093.800,7389,5,PR,1,100,166926
1576860151.027739,46126.600,7389,5,PR,1,100,166922
1576860151.066624,46159.400,7389,5,PR,1,100,166936
1576860151.105509,46192.200,7389,5,PR,1,100,166944
1576860151.144393,46225.000,7389,5,PR,1,100,166933
1576860151.183911,46258.333,7409,3,PR,1,100,166955
1576860151.223428,46291.667,7409,3,PR,1,100,166947
1576860151.262945,46325.000,7409,3,PR,1,100,166935
1576860151.302857,46358.667,7425,3,PR,1,100,166935
1576860151.342770,46392.333,7425,3,PR,1,100,166965
1576860151.382682,46426.000,7425,3,PR,1,100,167020
1576860151.423582,46460.500,7443,2,PR,1,100,167040
1576860151.464482,46495.000,7443,2,PR,1,100,166983
1576860151.506371,46530.333,7461,3,PR,1,100,167042
1576860151.548259,46565.667,7461,3,PR,1,100,167097
1576860151.590147,46601.000,7461,3,PR,1,100,167079
1576860151.632430,46636.667,7479,3,PR,1,100,167078
1576860151.674714,46672.333,7479,3,PR,1,100,167071
1576860151.716997,46708.000,7479,3,PR,1,100,166989
1576860151.754538,46739.667,7497,3,PR,1,100,166875
1576860151.792079,46771.333,7497,3,PR,1,100,166868
1576860151.829621,46803.000,7497,3,PR,1,100,166884
1576860151.869928,46837.000,7516,3,PR,1,100,166908
1576860151.910236,46871.000,7516,3,PR,1,100,166909
1576860151.950543,46905.000,7516,3,PR,1,100,166884
1576860151.991641,46939.667,7534,3,PR,1,100,166881
1576860152.032739,46974.333,7534,3,PR,1,100,166886
1576860152.073837,47009.000,7534,3,PR,1,100,166886
1576860152.114539,47043.333,7552,3,PR,1,100,166880
1576860152.155242,47077.667,7552,3,PR,1,100,166879
1576860152.195945,47112.000,7552,3,PR,1,100,166942
1576860152.235462,47145.333,7569,3,PR,1,100,166961
1576860152.274979,47178.667,7569,3,PR,1,100,166886
1576860152.314496,47212.000,7569,3,PR,1,100,166959
1576860152.352433,47244.000,7587,3,PR,1,100,167015
1576860152.390369,47276.000,7587,3,PR,1,100,166981
1576860152.428306,47308.000,7587,3,PR,1,100,166893
1576860152.467427,47341.000,7604,3,PR,1,100,166813
1576860152.506549,47374.000,7604,3,PR,1,100,166802
1576860152.545671,47407.000,7604,3,PR,1,100,166803
1576860152.587164,47442.000,7621,3,PR,1,100,166776
1576860152.628657,47477.000,7621,3,PR,1,100,166772
1576860152.670151,47512.000,7621,3,PR,1,100,166784
1576860152.710853,47546.333,7639,3,PR,1,100,166808
1576860152.751556,47580.667,7639,3,PR,1,100,166770
1576860152.792259,47615.000,7639,3,PR,1,100,166776
1576860152.832171,47648.667,7658,3,PR,1,100,166800
1576860152.872083,47682.333,7658,3,PR,1,100,166792
1576860152.911995,47716.000,7658,3,PR,1,100,166774
1576860152.949932,47748.000,7676,3,PR,1,100,166765
1576860152.987868,47780.000,7676,3,PR,1,100,166782
1576860153.025805,47812.000,7676,3,PR,1,100,166806
1576860153.064532,47844.667,7694,3,PR,1,100,166775
1576860153.103258,47877.333,7694,3,PR,1,100,166761
1576860153.141985,47910.000,7694,3,PR,1,100,166739
1576860153.182688,47944.333,7712,3,PR,1,100,166605
1576860153.223390,47978.667,7712,3,PR,1,100,166516
1576860153.264093,48013.000,7712,3,PR,1,100,166504
1576860153.304796,48047.333,7730,3,PR,1,100,166516
1576860153.345498,48081.667,7730,3,PR,1,100,166547
1576860153.386201,48116.000,7730,3,PR,1,100,166528
1576860153.426509,48150.000,7747,3,PR,1,100,166373
1576860153.466816,48184.000,7747,3,PR,1,100,166376
1576860153.507123,48218.000,7747,3,PR,1,100,166377
1576860153.545850,48250.667,7765,3,PR,1,100,166387
1576860153.584577,48283.333,7765,3,PR,1,100,166442
1576860153.623304,48316.000,7765,3,PR,1,100,166466
1576860153.661833,48348.500,7783,4,PR,1,100,166456
1576860153.700362,48381.000,7783,4,PR,1,100,166445
1576860153.738892,48413.500,7783,4,PR,1,100,166486
1576860153.777421,48446.000,7783,4,PR,1,100,166520
1576860153.814962,48477.667,7800,3,PR,1,100,166522
1576860153.852503,48509.333,7800,3,PR,1,100,166505
1576860153.890045,48541.000,7800,3,PR,1,100,166394
1576860153.926795,48572.000,7818,3,PR,1,100,166268
1576860153.963547,48603.000,7818,3,PR,1,100,166260
1576860154.000298,48634.000,7818,3,PR,1,100,166318
1576860154.040210,48667.667,7836,3,PR,1,100,166342
1576860154.080122,48701.333,7836,3,PR,1,100,166346
1576860154.120034,48735.000,7836,3,PR,1,100,166331
1576860154.157971,48767.000,7854,3,PR,1,100,166301
1576860154.195907,48799.000,7854,3,PR,1,100,166285
1576860154.233844,48831.000,7854,3,PR,1,100,166333
1576860154.272571,48863.667,7872,3,PR,1,100,166391
1576860154.311297,48896.333,7872,3,PR,1,100,166390
1576860154.350024,48929.000,7872,3,PR,1,100,166415
1576860154.390727,48963.333,7890,3,PR,1,100,166355
1576860154.431429,48997.667,7890,3,PR,1,100,166351
1576860154.472132,49032.000,7890,3,PR,1,100,166399
1576860154.512835,49066.333,7908,3,PR,1,100,166445
1576860154.553537,49100.667,7908,3,PR,1,100,166374
1576860154.594240,49135.000,7908,3,PR,1,100,166311
1576860154.635733,49170.000,7926,3,PR,1,100,166259
1576860154.677226,49205.000,7926,3,PR,1,100,166133
1576860154.718719,49240.000,7926,3,PR,1,100,166188
1576860154.757051,49272.333,7944,3,PR,1,100,166263
1576860154.795382,49304.667,7944,3,PR,1,100,166230
1576860154.833714,49337.000,7944,3,PR,1,100,166207
1576860154.875602,49372.333,7962,3,PR,1,100,166213
1576860154.917490,49407.667,7962,3,PR,1,100,166244
1576860154.959378,49443.000,7962,3,PR,1,100,166270
1576860154.996920,49474.667,7980,3,PR,1,100,166270
1576860155.034461,49506.333,7980,3,PR,1,100,166302
1576860155.072002,49538.000,7980,3,PR,1,100,166349
1576860155.111124,49571.000,7996,3,PR,1,100,166377
1576860155.150246,49604.000,7996,3,PR,1,100,166403
1576860155.189368,49637.000,7996,3,PR,1,100,166465
1576860155.230071,49671.333,8014,3,PR,1,100,166495
1576860155.270774,49705.667,8014,3,PR,1,100,166475
1576860155.311476,49740.000,8014,3,PR,1,100,166358
1576860155.352179,49774.333,8032,3,PR,1,100,166267
1576860155.392882,49808.667,8032,3,PR,1,100,166253
1576860155.433584,49843.000,8032,3,PR,1,100,166251
1576860155.474682,49877.667,8050,3,PR,1,100,166240
1576860155.515780,49912.333,8050,3,PR,1,100,166267
1576860155.556878,49947.000,8050,3,PR,1,100,166270
1576860155.594024,49978.333,8068,3,PR,1,100,166274
1576860155.631170,50009.667,8068,3,PR,1,100,166248
1576860155.668316,50041.000,8068,3,PR,1,100,166297
1576860155.706648,50073.333,8086,3,PR,1,100,166357
1576860155.744979,50105.667,8086,3,PR,1,100,166345
1576860155.783311,50138.000,8086,3,PR,1,100,166359
1576860155.823618,50172.000,8105,3,PR,1,100,166436
1576860155.863926,50206.000,8105,3,PR,1,100,166448
1576860155.904233,50240.000,8105,3,PR,1,100,166442
1576860155.949283,50278.000,8123,3,PR,1,100,166457
1576860155.994333,50316.000,8123,3,PR,1,100,166490
1576860156.039382,50354.000,8123,3,PR,1,100,166472
1576860156.080480,50388.667,8140,3,PR,1,100,166363
1576860156.121578,50423.333,8140,3,PR,1,100,166282
1576860156.162676,50458.000,8140,3,PR,1,100,166261
1576860156.200217,50489.667,8158,3,PR,1,100,166279
1576860156.237758,50521.333,8158,3,PR,1,100,166289
1576860156.275299,50553.000,8158,3,PR,1,100,166297
1576860156.313236,50585.000,8175,3,PR,1,100,166314
1576860156.351172,50617.000,8175,3,PR,1,100,166305
1576860156.389109,50649.000,8175,3,PR,1,100,166306
1576860156.429811,50683.333,8192,3,PR,1,100,166312
1576860156.470514,50717.667,8192,3,PR,1,100,166322
1576860156.511217,50752.000,8192,3,PR,1,100,166403
1576860156.552710,50787.000,8210,3,PR,1,100,166419
1576860156.594203,50822.000,8210,3,PR,1,100,166403
1576860156.635696,50857.000,8210,3,PR,1,100,166486
1576860156.676794,50891.667,8228,3,PR,1,100,166508
1576860156.717891,50926.333,8228,3,PR,1,100,166482
1576860156.758989,50961.000,8228,3,PR,1,100,166493
1576860156.796135,50992.333,8247,3,PR,1,100,166453
1576860156.833282,51023.667,8247,3,PR,1,100,166354
1576860156.870428,51055.000,8247,3,PR,1,100,166292
1576860156.908759,51087.333,8265,3,PR,1,100,166290
1576860156.947091,51119.667,8265,3,PR,1,100,166296
1576860156.985422,51152.000,8265,3,PR,1,100,166337
1576860157.025967,51186.200,8286,5,PR,1,100,166348
1576860157.066512,51220.400,8286,5,PR,1,100,166345
1576860157.107056,51254.600,8286,5,PR,1,100,166358
1576860157.147601,51288.800,8286,5,PR,1,100,166358
1576860157.188145,51323.000,8286,5,PR,1,100,166381
1576860157.228848,51357.333,8306,3,PR,1,100,166394
1576860157.269551,51391.667,8306,3,PR,1,100,166393
1576860157.310253,51426.000,8306,3,PR,1,100,166480
1576860157.351746,51461.000,8324,3,PR,1,100,166500
1576860157.393239,51496.000,8324,3,PR,1,100,166456
1576860157.434732,51531.000,8324,3,PR,1,100,166545
1576860157.473064,51563.333,8342,3,PR,1,100,166577
1576860157.511396,51595.667,8342,3,PR,1,100,166529
1576860157.549727,51628.000,8342,3,PR,1,100,166445
1576860157.586083,51658.667,8360,3,PR,1,100,166345
1576860157.622439,51689.333,8360,3,PR,1,100,166313
1576860157.658795,51720.000,8360,3,PR,1,100,166312
1576860157.699892,51754.667,8378,3,PR,1,100,166342
1576860157.740990,51789.333,8378,3,PR,1,100,166372
1576860157.782088,51824.000,8378,3,PR,1,100,166348
1576860157.816863,51853.333,8397,3,PR,1,100,166349
1576860157.851638,51882.667,8397,3,PR,1,100,166373
1576860157.886413,51912.000,8397,3,PR,1,100,166367
1576860157.925140,51944.667,8415,3,PR,1,100,166388
1576860157.963867,51977.333,8415,3,PR,1,100,166466
1576860158.002594,52010.000,8415,3,PR,1,100,166474
1576860158.041716,52043.000,8433,3,PR,1,100,166475
1576860158.080838,52076.000,8433,3,PR,1,100,166486
1576860158.119960,52109.000,8433,3,PR,1,100,166524
1576860158.162638,52145.000,8450,3,PR,1,100,166538
1576860158.205317,52181.000,8450,3,PR,1,100,166556
1576860158.247995,52217.000,8450,3,PR,1,100,166553
1576860158.287512,52250.333,8468,3,PR,1,100,166459
1576860158.327029,52283.667,8468,3,PR,1,100,166346
1576860158.366547,52317.000,8468,3,PR,1,100,166323
1576860158.407645,52351.667,8484,3,PR,1,100,166341
1576860158.448742,52386.333,8484,3,PR,1,100,166346
1576860158.489840,52421.000,8484,3,PR,1,100,166353
1576860158.531728,52456.333,8502,3,PR,1,100,166359
1576860158.573617,52491.667,8502,3,PR,1,100,166391
1576860158.615505,52527.000,8502,3,PR,1,100,166403
1576860158.653836,52559.333,8520,3,PR,1,100,166420
1576860158.692168,52591.667,8520,3,PR,1,100,166448
1576860158.730500,52624.000,8520,3,PR,1,100,166477
1576860158.768831,52656.333,8539,3,PR,1,100,166497
1576860158.807163,52688.667,8539,3,PR,1,100,166503
1576860158.845494,52721.000,8539,3,PR,1,100,166485
1576860158.884616,52754.000,8557,3,PR,1,100,166541
1576860158.923738,52787.000,8557,3,PR,1,100,166607
1576860158.962860,52820.000,8557,3,PR,1,100,166574
1576860159.003958,52854.667,8575,3,PR,1,100,166580
1576860159.045056,52889.333,8575,3,PR,1,100,166547
1576860159.086154,52924.000,8575,3,PR,1,100,166410
1576860159.128042,52959.333,8593,3,PR,1,100,166344
1576860159.169930,52994.667,8593,3,PR,1,100,166358
1576860159.211818,53030.000,8593,3,PR,1,100,166384
1576860159.254497,53066.000,8610,3,PR,1,100,166397
1576860159.297175,53102.000,8610,3,PR,1,100,166405
1576860159.339854,53138.000,8610,3,PR,1,100,166396
1576860159.377395,53169.667,8628,3,PR,1,100,166429
1576860159.414936,53201.333,8628,3,PR,1,100,166455
1576860159.452478,53233.000,8628,3,PR,1,100,166470
1576860159.491995,53266.333,8646,3,PR,1,100,166492
1576860159.531512,53299.667,8646,3,PR,1,100,166511
1576860159.571029,53333.000,8646,3,PR,1,100,166526
1576860159.611732,53367.333,8662,3,PR,1,100,166532
1576860159.652434,53401.667,8662,3,PR,1,100,166539
1576860159.693137,53436.000,8662,3,PR,1,100,166591
1576860159.734630,53471.000,8681,3,PR,1,100,166643
1576860159.776123,53506.000,8681,3,PR,1,100,166621
1576860159.817616,53541.000,8681,3,PR,1,100,166438
1576860159.857133,53574.333,8699,3,PR,1,100,166403
1576860159.896650,53607.667,8699,3,PR,1,100,166428
1576860159.936167,53641.000,8699,3,PR,1,100,166389
1576860159.974104,53673.000,8717,3,PR,1,100,166389
1576860160.012040,53705.000,8717,3,PR,1,100,166414
1576860160.049977,53737.000,8717,3,PR,1,100,166434
1576860160.089494,53770.333,8735,3,PR,1,100,166438
1576860160.129011,53803.667,8735,3,PR,1,100,166449
1576860160.168528,53837.000,8735,3,PR,1,100,166428
1576860160.209626,53871.667,8753,3,PR,1,100,166485
1576860160.250724,53906.333,8753,3,PR,1,100,166538
1576860160.291822,53941.000,8753,3,PR,1,100,166531
1576860160.333315,53976.000,8771,3,PR,1,100,166569
1576860160.374808,54011.000,8771,3,PR,1,100,166595
1576860160.416301,54046.000,8771,3,PR,1,100,166586
1576860160.456213,54079.667,8788,3,PR,1,100,166600
1576860160.496125,54113.333,8788,3,PR,1,100,166610
1576860160.536038,54147.000,8788,3,PR,1,100,166525
1576860160.572789,54178.000,8806,3,PR,1,100,166455
1576860160.609540,54209.000,8806,3,PR,1,100,166394
1576860160.646291,54240.000,8806,3,PR,1,100,166328
1576860160.685017,54272.667,8824,3,PR,1,100,166372
1576860160.723744,54305.333,8824,3,PR,1,100,166426
1576860160.762471,54338.000,8824,3,PR,1,100,166399
1576860160.803569,54372.667,8841,3,PR,1,100,166388
1576860160.844666,54407.333,8841,3,PR,1,100,166401
1576860160.885764,54442.000,8841,3,PR,1,100,166428
1576860160.926862,54476.667,8859,3,PR,1,100,166451
1576860160.967960,54511.333,8859,3,PR,1,100,166455
1576860161.009058,54546.000,8859,3,PR,1,100,166469
1576860161.050551,54581.000,8877,3,PR,1,100,166513
1576860161.092044,54616.000,8877,3,PR,1,100,166530
1576860161.133537,54651.000,8877,3,PR,1,100,166544
1576860161.171869,54683.333,8895,3,PR,1,100,166572
1576860161.210200,54715.667,8895,3,PR,1,100,166586
1576860161.248532,54748.000,8895,3,PR,1,100,166588
1576860161.289630,54782.667,8913,3,PR,1,100,166483
1576860161.330727,54817.333,8913,3,PR,1,100,166397
1576860161.371825,54852.000,8913,3,PR,1,100,166351
1576860161.408971,54883.333,8931,3,PR,1,100,166366
1576860161.446117,54914.667,8931,3,PR,1,100,166364
1576860161.483264,54946.000,8931,3,PR,1,100,166388
1576860161.525547,54981.667,8949,3,PR,1,100,166380
1576860161.567830,55017.333,8949,3,PR,1,100,166378
1576860161.610114,55053.000,8949,3,PR,1,100,166401
1576860161.648445,55085.333,8966,3,PR,1,100,166423
1576860161.686777,55117.667,8966,3,PR,1,100,166421
1576860161.725109,55150.000,8966,3,PR,1,100,166464
1576860161.762255,55181.333,8985,3,PR,1,100,166471
1576860161.799401,55212.667,8985,3,PR,1,100,166478
1576860161.836547,55244.000,8985,3,PR,1,100,166520
1576860161.874878,55276.333,9003,3,PR,1,100,166530
1576860161.913210,55308.667,9003,3,PR,1,100,166577
1576860161.951542,55341.000,9003,3,PR,1,100,166579
1576860161.991849,55375.000,9019,3,PR,1,100,166564
1576860162.032157,55409.000,9019,3,PR,1,100,166447
1576860162.072464,55443.000,9019,3,PR,1,100,166328
1576860162.113562,55477.667,9037,3,PR,1,100,166313
1576860162.154660,55512.333,9037,3,PR,1,100,166322
1576860162.195758,55547.000,9037,3,PR,1,100,166354
1576860162.236856,55581.667,9055,3,PR,1,100,166387
1576860162.277953,55616.333,9055,3,PR,1,100,166338
1576860162.319051,55651.000,9055,3,PR,1,100,166350
1576860162.358173,55684.000,9073,3,PR,1,100,166417
1576860162.397295,55717.000,9073,3,PR,1,100,166410
1576860162.436417,55750.000,9073,3,PR,1,100,166415
1576860162.477515,55784.667,9091,3,PR,1,100,166438
1576860162.518613,55819.333,9091,3,PR,1,100,166472
1576860162.559711,55854.000,9091,3,PR,1,100,166495
1576860162.596462,55885.000,9109,4,PR,1,100,166493
1576860162.633213,55916.000,9109,4,PR,1,100,166511
1576860162.669963,55947.000,9109,4,PR,1,100,166539
1576860162.706714,55978.000,9109,4,PR,1,100,166538
1576860162.746232,56011.333,9128,3,PR,1,100,166477
1576860162.785749,56044.667,9128,3,PR,1,100,166376
1576860162.825266,56078.000,9128,3,PR,1,100,166314
1576860162.864783,56111.333,9146,3,PR,1,100,166317
1576860162.904300,56144.667,9146,3,PR,1,100,166313
1576860162.943817,56178.000,9146,3,PR,1,100,166365
1576860162.985310,56213.000,9163,2,PR,1,100,166375
1576860163.026803,56248.000,9163,2,PR,1,100,166356
1576860163.067111,56282.000,9184,5,PR,1,100,166360
1576860163.107418,56316.000,9184,5,PR,1,100,166359
1576860163.147726,56350.000,9184,5,PR,1,100,166380
1576860163.188033,56384.000,9184,5,PR,1,100,166388
1576860163.228341,56418.000,9184,5,PR,1,100,166370
1576860163.265882,56449.667,9204,3,PR,1,100,166424
1576860163.303423,56481.333,9204,3,PR,1,100,166473
1576860163.340965,56513.000,9204,3,PR,1,100,166437
1576860163.380086,56546.000,9222,3,PR,1,100,166422
1576860163.419209,56579.000,9222,3,PR,1,100,166496
1576860163.458330,56612.000,9222,3,PR,1,100,166408
1576860163.499823,56647.000,9240,3,PR,1,100,166269
1576860163.541317,56682.000,9240,3,PR,1,100,166198
1576860163.582809,56717.000,9240,3,PR,1,100,166197
1576860163.627464,56754.667,9257,3,PR,1,100,166204
1576860163.672118,56792.333,9257,3,PR,1,100,166210
1576860163.716773,56830.000,9257,3,PR,1,100,166202
1576860163.757475,56864.333,9276,3,PR,1,100,166231
1576860163.798178,56898.667,9276,3,PR,1,100,166240
1576860163.838881,56933.000,9276,3,PR,1,100,166248
1576860163.876817,56965.000,9292,3,PR,1,100,166240
1576860163.914753,56997.000,9292,3,PR,1,100,166273
1576860163.952690,57029.000,9292,3,PR,1,100,166291
1576860163.991417,57061.667,9310,3,PR,1,100,166296
1576860164.030143,57094.333,9310,3,PR,1,100,166301
1576860164.068870,57127.000,9310,3,PR,1,100,166308
1576860164.109968,57161.667,9328,3,PR,1,100,166359
1576860164.151066,57196.333,9328,3,PR,1,100,166395
1576860164.192164,57231.000,9328,3,PR,1,100,166341
1576860164.232867,57265.333,9346,3,PR,1,100,166188
1576860164.273569,57299.667,9346,3,PR,1,100,166191
1576860164.314272,57334.000,9346,3,PR,1,100,166186
1576860164.352603,57366.333,9364,3,PR,1,100,166152
1576860164.390935,57398.667,9364,3,PR,1,100,166133
1576860164.429267,57431.000,9364,3,PR,1,100,166165
1576860164.469179,57464.667,9382,3,PR,1,100,166183
1576860164.509091,57498.333,9382,3,PR,1,100,166172
1576860164.549004,57532.000,9382,3,PR,1,100,166167
1576860164.587335,57564.333,9400,3,PR,1,100,166184
1576860164.625667,57596.667,9400,3,PR,1,100,166219
1576860164.663998,57629.000,9400,3,PR,1,100,166234
1576860164.704701,57663.333,9419,3,PR,1,100,166255
1576860164.745404,57697.667,9419,3,PR,1,100,166269
1576860164.786106,57732.000,9419,3,PR,1,100,166272
1576860164.826414,57766.000,9436,3,PR,1,100,166284
1576860164.866721,57800.000,9436,3,PR,1,100,166295
1576860164.907029,57834.000,9436,3,PR,1,100,166277
1576860164.946941,57867.667,9454,3,PR,1,100,166152
1576860164.986854,57901.333,9454,3,PR,1,100,166053
1576860165.026766,57935.000,9454,3,PR,1,100,166120
1576860165.067468,57969.333,9470,3,PR,1,100,166079
1576860165.108171,58003.667,9470,3,PR,1,100,166106
1576860165.148874,58038.000,9470,3,PR,1,100,166115
1576860165.193133,58075.333,9488,3,PR,1,100,166106
1576860165.237392,58112.667,9488,3,PR,1,100,166085
1576860165.281651,58150.000,9488,3,PR,1,100,166083
1576860165.319193,58181.667,9506,3,PR,1,100,166140
1576860165.356734,58213.333,9506,3,PR,1,100,166180
1576860165.394275,58245.000,9506,3,PR,1,100,166144
1576860165.431026,58276.000,9524,3,PR,1,100,166177
1576860165.467777,58307.000,9524,3,PR,1,100,166199
1576860165.504528,58338.000,9524,3,PR,1,100,166206
1576860165.542464,58370.000,9542,3,PR,1,100,166211
1576860165.580401,58402.000,9542,3,PR,1,100,166224
1576860165.618337,58434.000,9542,3,PR,1,100,166268
1576860165.657459,58467.000,9560,3,PR,1,100,166107
1576860165.696581,58500.000,9560,3,PR,1,100,165983
1576860165.735703,58533.000,9560,3,PR,1,100,166030
1576860165.776406,58567.333,9579,3,PR,1,100,166078
1576860165.817109,58601.667,9579,3,PR,1,100,166025
1576860165.857811,58636.000,9579,3,PR,1,100,166023
1576860165.902861,58674.000,9597,3,PR,1,100,166021
1576860165.947910,58712.000,9597,3,PR,1,100,166032
1576860165.992960,58750.000,9597,3,PR,1,100,166044
1576860166.030896,58782.000,9614,3,PR,1,100,166056
1576860166.068833,58814.000,9614,3,PR,1,100,166108
1576860166.106769,58846.000,9614,3,PR,1,100,166126
1576860166.148262,58881.000,9632,3,PR,1,100,166108
1576860166.189755,58916.000,9632,3,PR,1,100,166119
1576860166.231248,58951.000,9632,3,PR,1,100,166165
1576860166.271556,58985.000,9648,3,PR,1,100,166168
1576860166.311863,59019.000,9648,3,PR,1,100,166198
1576860166.352171,59053.000,9648,3,PR,1,100,166154
1576860166.389712,59084.667,9666,3,PR,1,100,166047
1576860166.427253,59116.333,9666,3,PR,1,100,165956
1576860166.464795,59148.000,9666,3,PR,1,100,165943
1576860166.504312,59181.333,9684,3,PR,1,100,165934
1576860166.543829,59214.667,9684,3,PR,1,100,165935
1576860166.583346,59248.000,9684,3,PR,1,100,165926
1576860166.623654,59282.000,9702,3,PR,1,100,165919
1576860166.663961,59316.000,9702,3,PR,1,100,165926
1576860166.704268,59350.000,9702,3,PR,1,100,165897
1576860166.744971,59384.333,9721,3,PR,1,100,165941
1576860166.785674,59418.667,9721,3,PR,1,100,166027
1576860166.826376,59453.000,9721,3,PR,1,100,165979
1576860166.867079,59487.333,9739,3,PR,1,100,165976
1576860166.907782,59521.667,9739,3,PR,1,100,166035
1576860166.948484,59556.000,9739,3,PR,1,100,166034
1576860166.986026,59587.667,9757,3,PR,1,100,166010
1576860167.023567,59619.333,9757,3,PR,1,100,166020
1576860167.061108,59651.000,9757,3,PR,1,100,166026
1576860167.104182,59687.333,9775,3,PR,1,100,165941
1576860167.147256,59723.667,9775,3,PR,1,100,165825
1576860167.190329,59760.000,9775,3,PR,1,100,165805
1576860167.230637,59794.000,9792,3,PR,1,100,165819
1576860167.270944,59828.000,9792,3,PR,1,100,165807
1576860167.311252,59862.000,9792,3,PR,1,100,165839
1576860167.352350,59896.667,9810,3,PR,1,100,165852
1576860167.393447,59931.333,9810,3,PR,1,100,165833
1576860167.434545,59966.000,9810,3,PR,1,100,165832
1576860167.475643,60000.667,9826,3,PR,1,100,165824
1576860167.516741,60035.333,9826,3,PR,1,100,165853
1576860167.557839,60070.000,9826,3,PR,1,100,165846
1576860167.595380,60101.667,9844,3,PR,1,100,165921
1576860167.632921,60133.333,9844,3,PR,1,100,165951
1576860167.670463,60165.000,9844,3,PR,1,100,165895
1576860167.709585,60198.000,9863,3,PR,1,100,165942
1576860167.748707,60231.000,9863,3,PR,1,100,166027
1576860167.787829,60264.000,9863,3,PR,1,100,166003
1576860167.828136,60298.000,9881,3,PR,1,100,165874
1576860167.868443,60332.000,9881,3,PR,1,100,165772
1576860167.908751,60366.000,9881,3,PR,1,100,165724
1576860167.949454,60400.333,9899,3,PR,1,100,165709
1576860167.990156,60434.667,9899,3,PR,1,100,165695
1576860168.030859,60469.000,9899,3,PR,1,100,165683
1576860168.073142,60504.667,9917,3,PR,1,100,165717
1576860168.115426,60540.333,9917,3,PR,1,100,165718
1576860168.157709,60576.000,9917,3,PR,1,100,165710
1576860168.194855,60607.333,9935,3,PR,1,100,165726
1576860168.232001,60638.667,9935,3,PR,1,100,165740
1576860168.269147,60670.000,9935,3,PR,1,100,165750
1576860168.307874,60702.667,9953,3,PR,1,100,165748
1576860168.346601,60735.333,9953,3,PR,1,100,165757
1576860168.385328,60768.000,9953,3,PR,1,100,165746
1576860168.424450,60801.000,9970,3,PR,1,100,165798
1576860168.463572,60834.000,9970,3,PR,1,100,165807
1576860168.502694,60867.000,9970,3,PR,1,100,165803
1576860168.543792,60901.667,9988,3,PR,1,100,165745
1576860168.584889,60936.333,9988,3,PR,1,100,165665
1576860168.625987,60971.000,9988,3,PR,1,100,165597
1576860168.668271,61006.667,10004,3,PR,1,100,165582
1576860168.710554,61042.333,10004,3,PR,1,100,165560
1576860168.752837,61078.000,10004,3,PR,1,100,165583
1576860168.790774,61110.000,10023,3,PR,1,100,165588
1576860168.828710,61142.000,10023,3,PR,1,100,165585
1576860168.866647,61174.000,10023,3,PR,1,100,165611
1576860168.914067,61214.000,10041,2,PR,1,100,165655
1576860168.961488,61254.000,10041,2,PR,1,100,165606
1576860169.000610,61287.000,10059,4,PR,1,100,165603
1576860169.039732,61320.000,10059,4,PR,1,100,165637
1576860169.078854,61353.000,10059,4,PR,1,100,165642
1576860169.117976,61386.000,10059,4,PR,1,100,165596
1576860169.157690,61419.500,10080,4,PR,1,100,165680
1576860169.197405,61453.000,10080,4,PR,1,100,165731
1576860169.237120,61486.500,10080,4,PR,1,100,165711
1576860169.276834,61520.000,10080,4,PR,1,100,165712
1576860169.318723,61555.333,10100,3,PR,1,100,165652
1576860169.360611,61590.667,10100,3,PR,1,100,165538
1576860169.402499,61626.000,10100,3,PR,1,100,165501
1576860169.438657,61656.500,10118,4,PR,1,100,165503
1576860169.474815,61687.000,10118,4,PR,1,100,165533
1576860169.510974,61717.500,10118,4,PR,1,100,165517
1576860169.547132,61748.000,10118,4,PR,1,100,165507
1576860169.585464,61780.333,10136,3,PR,1,100,165510
1576860169.623795,61812.667,10136,3,PR,1,100,165525
1576860169.662127,61845.000,10136,3,PR,1,100,165537
1576860169.702829,61879.333,10155,3,PR,1,100,165545
1576860169.743532,61913.667,10155,3,PR,1,100,165560
1576860169.784235,61948.000,10155,3,PR,1,100,165609
1576860169.824937,61982.333,10173,3,PR,1,100,165629
1576860169.865640,62016.667,10173,3,PR,1,100,165624
1576860169.906343,62051.000,10173,3,PR,1,100,165631
1576860169.947836,62086.000,10191,2,PR,1,100,165662
1576860169.989329,62121.000,10191,2,PR,1,100,165671
1576860170.028154,62153.750,10209,4,PR,1,100,165677
1576860170.066980,62186.500,10209,4,PR,1,100,165648
1576860170.105805,62219.250,10209,4,PR,1,100,165469
1576860170.144631,62252.000,10209,4,PR,1,100,165487
1576860170.182963,62284.333,10226,3,PR,1,100,165464
1576860170.221294,62316.667,10226,3,PR,1,100,165461
1576860170.259626,62349.000,10226,3,PR,1,100,165539
1576860170.299538,62382.667,10244,3,PR,1,100,165562
1576860170.339451,62416.333,10244,3,PR,1,100,165515
1576860170.379363,62450.000,10244,3,PR,1,100,165502
1576860170.425598,62489.000,10262,2,PR,1,100,165537
1576860170.471833,62528.000,10262,2,PR,1,100,165559
1576860170.512536,62562.333,10278,3,PR,1,100,165580
1576860170.553238,62596.667,10278,3,PR,1,100,165579
1576860170.593941,62631.000,10278,3,PR,1,100,165619
1576860170.633853,62664.667,10296,3,PR,1,100,165653
1576860170.673765,62698.333,10296,3,PR,1,100,165647
1576860170.713678,62732.000,10296,3,PR,1,100,165672
1576860170.751318,62763.750,10315,4,PR,1,100,165717
1576860170.788958,62795.500,10315,4,PR,1,100,165703
1576860170.826598,62827.250,10315,4,PR,1,100,165582
1576860170.864238,62859.000,10315,4,PR,1,100,165465
1576860170.904546,62893.000,10333,3,PR,1,100,165410
1576860170.944853,62927.000,10333,3,PR,1,100,165486
1576860170.985161,62961.000,10333,3,PR,1,100,165519
1576860171.026061,62995.500,10351,2,PR,1,100,165492
1576860171.066961,63030.000,10351,2,PR,1,100,165508
1576860171.108454,63065.000,10369,3,PR,1,100,165556
1576860171.149947,63100.000,10369,3,PR,1,100,165524
1576860171.191440,63135.000,10369,3,PR,1,100,165521
1576860171.231748,63169.000,10387,3,PR,1,100,165537
1576860171.272055,63203.000,10387,3,PR,1,100,165597
1576860171.312363,63237.000,10387,3,PR,1,100,165599
1576860171.350003,63268.750,10404,4,PR,1,100,165589
1576860171.387643,63300.500,10404,4,PR,1,100,165624
1576860171.425283,63332.250,10404,4,PR,1,100,165656
1576860171.462923,63364.000,10404,4,PR,1,100,165665
1576860171.503230,63398.000,10422,3,PR,1,100,165704
1576860171.543538,63432.000,10422,3,PR,1,100,165664
1576860171.583845,63466.000,10422,3,PR,1,100,165496
1576860171.624746,63500.500,10440,2,PR,1,100,165445
1576860171.665646,63535.000,10440,2,PR,1,100,165436
1576860171.707139,63570.000,10457,3,PR,1,100,165446
1576860171.748632,63605.000,10457,3,PR,1,100,165442
1576860171.790125,63640.000,10457,3,PR,1,100,165500
1576860171.831223,63674.667,10475,3,PR,1,100,165516
1576860171.872320,63709.333,10475,3,PR,1,100,165455
1576860171.913418,63744.000,10475,3,PR,1,100,165477
1576860171.950466,63775.250,10493,4,PR,1,100,165567
1576860171.987513,63806.500,10493,4,PR,1,100,165568
1576860172.024560,63837.750,10493,4,PR,1,100,165567
1576860172.061608,63869.000,10493,4,PR,1,100,165609
1576860172.101520,63902.667,10511,3,PR,1,100,165600
1576860172.141432,63936.333,10511,3,PR,1,100,165614
1576860172.181345,63970.000,10511,3,PR,1,100,165626
1576860172.222047,64004.333,10529,3,PR,1,100,165653
1576860172.262750,64038.667,10529,3,PR,1,100,165681
1576860172.303452,64073.000,10529,3,PR,1,100,165633
1576860172.346724,64109.500,10547,2,PR,1,100,165472
1576860172.389995,64146.000,10547,2,PR,1,100,165441
1576860172.430303,64180.000,10565,3,PR,1,100,165452
1576860172.470610,64214.000,10565,3,PR,1,100,165456
1576860172.510917,64248.000,10565,3,PR,1,100,165443
1576860172.551620,64282.333,10582,3,PR,1,100,165482
1576860172.592323,64316.667,10582,3,PR,1,100,165500
1576860172.633025,64351.000,10582,3,PR,1,100,165494
1576860172.674914,64386.333,10600,3,PR,1,100,165475
1576860172.716802,64421.667,10600,3,PR,1,100,165509
1576860172.758690,64457.000,10600,3,PR,1,100,165539
1576860172.795441,64488.000,10617,3,PR,1,100,165546
1576860172.832192,64519.000,10617,3,PR,1,100,165555
1576860172.868943,64550.000,10617,3,PR,1,100,165608
1576860172.912016,64586.333,10635,3,PR,1,100,165620
1576860172.955090,64622.667,10635,3,PR,1,100,165640
1576860172.998164,64659.000,10635,3,PR,1,100,165666
1576860173.036495,64691.333,10653,3,PR,1,100,165656
1576860173.074827,64723.667,10653,3,PR,1,100,165514
1576860173.113159,64756.000,10653,3,PR,1,100,165421
1576860173.151886,64788.667,10671,3,PR,1,100,165445
1576860173.190612,64821.333,10671,3,PR,1,100,165432
1576860173.229339,64854.000,10671,3,PR,1,100,165427
1576860173.267671,64886.333,10689,3,PR,1,100,165442
1576860173.306002,64918.667,10689,3,PR,1,100,165443
1576860173.344334,64951.000,10689,3,PR,1,100,165443
1576860173.384246,64984.667,10707,3,PR,1,100,165430
1576860173.424159,65018.333,10707,3,PR,1,100,165430
1576860173.464071,65052.000,10707,3,PR,1,100,165463
1576860173.505169,65086.667,10725,3,PR,1,100,165527
1576860173.546267,65121.333,10725,3,PR,1,100,165524
1576860173.587364,65156.000,10725,3,PR,1,100,165496
1576860173.628067,65190.333,10742,3,PR,1,100,165574
1576860173.668770,65224.667,10742,3,PR,1,100,165586
1576860173.709472,65259.000,10742,3,PR,1,100,165583
1576860173.749385,65292.667,10761,3,PR,1,100,165588
1576860173.789297,65326.333,10761,3,PR,1,100,165573
1576860173.829209,65360.000,10761,3,PR,1,100,165457
1576860173.870307,65394.667,10779,3,PR,1,100,165403
1576860173.911405,65429.333,10779,3,PR,1,100,165390
1576860173.952503,65464.000,10779,3,PR,1,100,165376
1576860173.988661,65494.500,10795,4,PR,1,100,165428
1576860174.024819,65525.000,10795,4,PR,1,100,165435
1576860174.060977,65555.500,10795,4,PR,1,100,165423
1576860174.097136,65586.000,10795,4,PR,1,100,165434
1576860174.135467,65618.333,10813,3,PR,1,100,165438
1576860174.173799,65650.667,10813,3,PR,1,100,165449
1576860174.212131,65683.000,10813,3,PR,1,100,165453
1576860174.251648,65716.333,10831,3,PR,1,100,165485
1576860174.291165,65749.667,10831,3,PR,1,100,165524
1576860174.330682,65783.000,10831,3,PR,1,100,165517
1576860174.371780,65817.667,10849,3,PR,1,100,165547
1576860174.412878,65852.333,10849,3,PR,1,100,165553
1576860174.453975,65887.000,10849,3,PR,1,100,165586
1576860174.495864,65922.333,10867,3,PR,1,100,165591
1576860174.537752,65957.667,10867,3,PR,1,100,165547
1576860174.579640,65993.000,10867,3,PR,1,100,165375
1576860174.617576,66025.000,10885,3,PR,1,100,165385
1576860174.655513,66057.000,10885,3,PR,1,100,165393
1576860174.693449,66089.000,10885,3,PR,1,100,165348
1576860174.731386,66121.000,10904,3,PR,1,100,165349
1576860174.769322,66153.000,10904,3,PR,1,100,165436
1576860174.807259,66185.000,10904,3,PR,1,100,165415
1576860174.847171,66218.667,10922,3,PR,1,100,165388
1576860174.887083,66252.333,10922,3,PR,1,100,165393
1576860174.926996,66286.000,10922,3,PR,1,100,165414
1576860174.973823,66325.500,10940,2,PR,1,100,165447
1576860175.020651,66365.000,10940,2,PR,1,100,165461
1576860175.062144,66400.000,10957,3,PR,1,100,165480
1576860175.103637,66435.000,10957,3,PR,1,100,165495
1576860175.145130,66470.000,10957,3,PR,1,100,165515
1576860175.184252,66503.000,10976,5,PR,1,100,165528
1576860175.223374,66536.000,10976,5,PR,1,100,165542
1576860175.262496,66569.000,10976,5,PR,1,100,165566
1576860175.301618,66602.000,10976,5,PR,1,100,165520
1576860175.340740,66635.000,10976,5,PR,1,100,165406
1576860175.379467,66667.667,10996,3,PR,1,100,165338
1576860175.418194,66700.333,10996,3,PR,1,100,165306
1576860175.456920,66733.000,10996,3,PR,1,100,165369
1576860175.498018,66767.667,11014,3,PR,1,100,165407
1576860175.539116,66802.333,11014,3,PR,1,100,165356
1576860175.580214,66837.000,11014,3,PR,1,100,165346
1576860175.620917,66871.333,11031,3,PR,1,100,165412
1576860175.661619,66905.667,11031,3,PR,1,100,165382
1576860175.702322,66940.000,11031,3,PR,1,100,165383
1576860175.743025,66974.333,11050,3,PR,1,100,165394
1576860175.783727,67008.667,11050,3,PR,1,100,165423
1576860175.824430,67043.000,11050,3,PR,1,100,165450
1576860175.862761,67075.333,11066,3,PR,1,100,165465
1576860175.901093,67107.667,11066,3,PR,1,100,165456
1576860175.939425,67140.000,11066,3,PR,1,100,165501
1576860175.976571,67171.333,11084,3,PR,1,100,165528
1576860176.013717,67202.667,11084,3,PR,1,100,165537
1576860176.050863,67234.000,11084,3,PR,1,100,165446
1576860176.091171,67268.000,11102,3,PR,1,100,165351
1576860176.131478,67302.000,11102,3,PR,1,100,165322
1576860176.171786,67336.000,11102,3,PR,1,100,165311
1576860176.212488,67370.333,11120,3,PR,1,100,165303
1576860176.253191,67404.667,11120,3,PR,1,100,165312
1576860176.293894,67439.000,11120,3,PR,1,100,165339
1576860176.333411,67472.333,11138,3,PR,1,100,165373
1576860176.372928,67505.667,11138,3,PR,1,100,165333
1576860176.412445,67539.000,11138,3,PR,1,100,165288
1576860176.453543,67573.667,11156,3,PR,1,100,165373
1576860176.494641,67608.333,11156,3,PR,1,100,165368
1576860176.535738,67643.000,11156,3,PR,1,100,165376
1576860176.578022,67678.667,11174,3,PR,1,100,165371
1576860176.620305,67714.333,11174,3,PR,1,100,165475
1576860176.662589,67750.000,11174,3,PR,1,100,165447
1576860176.703686,67784.667,11192,3,PR,1,100,165477
1576860176.744784,67819.333,11192,3,PR,1,100,165496
1576860176.785882,67854.000,11192,3,PR,1,100,165485
1576860176.826980,67888.667,11210,3,PR,1,100,165376
1576860176.868078,67923.333,11210,3,PR,1,100,165289
1576860176.909175,67958.000,11210,3,PR,1,100,165308
1576860176.946717,67989.667,11226,3,PR,1,100,165301
1576860176.984258,68021.333,11226,3,PR,1,100,165233
1576860177.021799,68053.000,11226,3,PR,1,100,165306
1576860177.060526,68085.667,11244,3,PR,1,100,165350
1576860177.099253,68118.333,11244,3,PR,1,100,165316
1576860177.137980,68151.000,11244,3,PR,1,100,165300
1576860177.182634,68188.667,11262,3,PR,1,100,165316
1576860177.227288,68226.333,11262,3,PR,1,100,165340
1576860177.271943,68264.000,11262,3,PR,1,100,165361
1576860177.313041,68298.667,11280,3,PR,1,100,165371
1576860177.354139,68333.333,11280,3,PR,1,100,165380
1576860177.395236,68368.000,11280,3,PR,1,100,165417
1576860177.433173,68400.000,11298,3,PR,1,100,165444
1576860177.471109,68432.000,11298,3,PR,1,100,165429
1576860177.509046,68464.000,11298,3,PR,1,100,165467
1576860177.550539,68499.000,11316,3,PR,1,100,165457
1576860177.592032,68534.000,11316,3,PR,1,100,165357
1576860177.633525,68569.000,11316,3,PR,1,100,165270
1576860177.674623,68603.667,11334,3,PR,1,100,165276
1576860177.715720,68638.333,11334,3,PR,1,100,165308
1576860177.756818,68673.000,11334,3,PR,1,100,165302
1576860177.794359,68704.667,11352,3,PR,1,100,165307
1576860177.831901,68736.333,11352,3,PR,1,100,165313
1576860177.869442,68768.000,11352,3,PR,1,100,165298
1576860177.908564,68801.000,11370,3,PR,1,100,165307
1576860177.947686,68834.000,11370,3,PR,1,100,165326
1576860177.986808,68867.000,11370,3,PR,1,100,165304
1576860178.026720,68900.667,11388,3,PR,1,100,165408
1576860178.066633,68934.333,11388,3,PR,1,100,165394
1576860178.106545,68968.000,11388,3,PR,1,100,165361
1576860178.147248,69002.333,11404,3,PR,1,100,165426
1576860178.187950,69036.667,11404,3,PR,1,100,165497
1576860178.228653,69071.000,11404,3,PR,1,100,165460
1576860178.270146,69106.000,11422,3,PR,1,100,165461
1576860178.311639,69141.000,11422,3,PR,1,100,165407
1576860178.353132,69176.000,11422,3,PR,1,100,165304
1576860178.394230,69210.667,11440,3,PR,1,100,165258
1576860178.435328,69245.333,11440,3,PR,1,100,165265
1576860178.476425,69280.000,11440,3,PR,1,100,165261
1576860178.515152,69312.667,11458,3,PR,1,100,165268
1576860178.553879,69345.333,11458,3,PR,1,100,165275
1576860178.592606,69378.000,11458,3,PR,1,100,165270
1576860178.632913,69412.000,11476,3,PR,1,100,165252
1576860178.673221,69446.000,11476,3,PR,1,100,165277
1576860178.713528,69480.000,11476,3,PR,1,100,165277
1576860178.754231,69514.333,11495,3,PR,1,100,165293
1576860178.794934,69548.667,11495,3,PR,1,100,165296
1576860178.835636,69583.000,11495,3,PR,1,100,165321
1576860178.877129,69618.000,11513,2,PR,1,100,165362
1576860178.918622,69653.000,11513,2,PR,1,100,165387
1576860178.957744,69686.000,11530,4,PR,1,100,165353
1576860178.996866,69719.000,11530,4,PR,1,100,165429
1576860179.035988,69752.000,11530,4,PR,1,100,165461
1576860179.075110,69785.000,11530,4,PR,1,100,165309
1576860179.113837,69817.667,11548,3,PR,1,100,165208
1576860179.152564,69850.333,11548,3,PR,1,100,165197
1576860179.191290,69883.000,11548,3,PR,1,100,165208
1576860179.230808,69916.333,11566,3,PR,1,100,165217
1576860179.270325,69949.667,11566,3,PR,1,100,165233
1576860179.309842,69983.000,11566,3,PR,1,100,165221
1576860179.350940,70017.667,11584,3,PR,1,100,165251
1576860179.392038,70052.333,11584,3,PR,1,100,165264
1576860179.433136,70087.000,11584,3,PR,1,100,165270
1576860179.474628,70122.000,11600,2,PR,1,100,165295
1576860179.516121,70157.000,11600,2,PR,1,100,165316
1576860179.555243,70190.000,11618,4,PR,1,100,165318
1576860179.594365,70223.000,11618,4,PR,1,100,165325
1576860179.633487,70256.000,11618,4,PR,1,100,165306
1576860179.672609,70289.000,11618,4,PR,1,100,165394
1576860179.710941,70321.333,11637,3,PR,1,100,165430
1576860179.749273,70353.667,11637,3,PR,1,100,165390
1576860179.787604,70386.000,11637,3,PR,1,100,165391
1576860179.826331,70418.667,11655,3,PR,1,100,165324
1576860179.865058,70451.333,11655,3,PR,1,100,165197
1576860179.903785,70484.000,11655,3,PR,1,100,165182
1576860179.944487,70518.333,11673,3,PR,1,100,165199
1576860179.985190,70552.667,11673,3,PR,1,100,165228
1576860180.025892,70587.000,11673,3,PR,1,100,165233
1576860180.068571,70623.000,11691,3,PR,1,100,165232
1576860180.111250,70659.000,11691,3,PR,1,100,165219
1576860180.153928,70695.000,11691,3,PR,1,100,165260
1576860180.191272,70726.500,11709,2,PR,1,100,165283
1576860180.228616,70758.000,11709,2,PR,1,100,165287
1576860180.273665,70796.000,11726,3,PR,1,100,165313
1576860180.318715,70834.000,11726,3,PR,1,100,165317
1576860180.363764,70872.000,11726,3,PR,1,100,165309
1576860180.402096,70904.333,11742,3,PR,1,100,165351
1576860180.440427,70936.667,11742,3,PR,1,100,165382
1576860180.478759,70969.000,11742,3,PR,1,100,165386
1576860180.524204,71007.333,11760,3,PR,1,100,165407
1576860180.569649,71045.667,11760,3,PR,1,100,165362
1576860180.615093,71084.000,11760,3,PR,1,100,165240
1576860180.653030,71116.000,11778,3,PR,1,100,165170
1576860180.690966,71148.000,11778,3,PR,1,100,165181
1576860180.728903,71180.000,11778,3,PR,1,100,165179
1576860180.770396,71215.000,11797,3,PR,1,100,165197
1576860180.811888,71250.000,11797,3,PR,1,100,165225
1576860180.853381,71285.000,11797,3,PR,1,100,165228
1576860180.891318,71317.000,11815,3,PR,1,100,165219
1576860180.929255,71349.000,11815,3,PR,1,100,165217
1576860180.967191,71381.000,11815,3,PR,1,100,165272
1576860181.005522,71413.333,11833,3,PR,1,100,165302
1576860181.043854,71445.667,11833,3,PR,1,100,165313
1576860181.082186,71478.000,11833,3,PR,1,100,165330
1576860181.122493,71512.000,11851,3,PR,1,100,165356
1576860181.162801,71546.000,11851,3,PR,1,100,165364
1576860181.203108,71580.000,11851,3,PR,1,100,165374
1576860181.243890,71614.400,11871,5,PR,1,100,165375
1576860181.284672,71648.800,11871,5,PR,1,100,165411
1576860181.325453,71683.200,11871,5,PR,1,100,165398
1576860181.366235,71717.600,11871,5,PR,1,100,165240
1576860181.407017,71752.000,11871,5,PR,1,100,165166
1576860181.447324,71786.000,11891,3,PR,1,100,165223
1576860181.487632,71820.000,11891,3,PR,1,100,165229
1576860181.527939,71854.000,11891,3,PR,1,100,165205
1576860181.569037,71888.667,11909,3,PR,1,100,165202
1576860181.610135,71923.333,11909,3,PR,1,100,165218
1576860181.651233,71958.000,11909,3,PR,1,100,165222
1576860181.689960,71990.667,11927,3,PR,1,100,165238
1576860181.728686,72023.333,11927,3,PR,1,100,165241
1576860181.767413,72056.000,11927,3,PR,1,100,165301
1576860181.808511,72090.667,11946,3,PR,1,100,165326
1576860181.849609,72125.333,11946,3,PR,1,100,165325
1576860181.890707,72160.000,11946,3,PR,1,100,165351
1576860181.931804,72194.667,11963,3,PR,1,100,165355
1576860181.972902,72229.333,11963,3,PR,1,100,165370
1576860182.014000,72264.000,11963,3,PR,1,100,165386
1576860182.054307,72298.000,11981,3,PR,1,100,165371
1576860182.094615,72332.000,11981,3,PR,1,100,165340
1576860182.134923,72366.000,11981,3,PR,1,100,165253
1576860182.172069,72397.333,11999,3,PR,1,100,165176
1576860182.209215,72428.667,11999,3,PR,1,100,165140
1576860182.246361,72460.000,11999,3,PR,1,100,165220
1576860182.285483,72493.000,12015,3,PR,1,100,165211
1576860182.324605,72526.000,12015,3,PR,1,100,165203
1576860182.363727,72559.000,12015,3,PR,1,100,165186
1576860182.404824,72593.667,12033,3,PR,1,100,165205
1576860182.445922,72628.333,12033,3,PR,1,100,165230
1576860182.487020,72663.000,12033,3,PR,1,100,165261
1576860182.528513,72698.000,12051,3,PR,1,100,165276
1576860182.570006,72733.000,12051,3,PR,1,100,165307
1576860182.611499,72768.000,12051,3,PR,1,100,165333
1576860182.652597,72802.667,12069,3,PR,1,100,165344
1576860182.693695,72837.333,12069,3,PR,1,100,165358
1576860182.734793,72872.000,12069,3,PR,1,100,165375
1576860182.772334,72903.667,12088,3,PR,1,100,165400
1576860182.809875,72935.333,12088,3,PR,1,100,165380
1576860182.847417,72967.000,12088,3,PR,1,100,165248
1576860182.886143,72999.667,12106,3,PR,1,100,165185
1576860182.924870,73032.333,12106,3,PR,1,100,165215
1576860182.963597,73065.000,12106,3,PR,1,100,165158
1576860183.004695,73099.667,12124,3,PR,1,100,165119
1576860183.045793,73134.333,12124,3,PR,1,100,165225
1576860183.086890,73169.000,12124,3,PR,1,100,165205
1576860183.127988,73203.667,12141,3,PR,1,100,165184
1576860183.169086,73238.333,12141,3,PR,1,100,165181
1576860183.210184,73273.000,12141,3,PR,1,100,165214
1576860183.251677,73308.000,12159,3,PR,1,100,165238
1576860183.293170,73343.000,12159,3,PR,1,100,165270
1576860183.334663,73378.000,12159,3,PR,1,100,165276
1576860183.371809,73409.333,12175,3,PR,1,100,165327
1576860183.408955,73440.667,12175,3,PR,1,100,165357
1576860183.446101,73472.000,12175,3,PR,1,100,165368
1576860183.484433,73504.333,12193,3,PR,1,100,165362
1576860183.522764,73536.667,12193,3,PR,1,100,165398
1576860183.561096,73569.000,12193,3,PR,1,100,165384
1576860183.601404,73603.000,12211,3,PR,1,100,165264
1576860183.641711,73637.000,12211,3,PR,1,100,165135
1576860183.682019,73671.000,12211,3,PR,1,100,165146
1576860183.724302,73706.667,12230,3,PR,1,100,165199
1576860183.766585,73742.333,12230,3,PR,1,100,165164
1576860183.808869,73778.000,12230,3,PR,1,100,165138
1576860183.848781,73811.667,12248,3,PR,1,100,165221
1576860183.888693,73845.333,12248,3,PR,1,100,165158
1576860183.928606,73879.000,12248,3,PR,1,100,165159
1576860183.968123,73912.333,12266,3,PR,1,100,165202
1576860184.007640,73945.667,12266,3,PR,1,100,165257
1576860184.047157,73979.000,12266,3,PR,1,100,165207
1576860184.087465,74013.000,12284,3,PR,1,100,165290
1576860184.127772,74047.000,12284,3,PR,1,100,165295
1576860184.168079,74081.000,12284,3,PR,1,100,165313
1576860184.209573,74116.000,12302,3,PR,1,100,165273
1576860184.251065,74151.000,12302,3,PR,1,100,165396
1576860184.292558,74186.000,12302,3,PR,1,100,165367
1576860184.333459,74220.500,12319,2,PR,1,100,165359
1576860184.374359,74255.000,12319,2,PR,1,100,165220
1576860184.415457,74289.667,12335,3,PR,1,100,165128
1576860184.456555,74324.333,12335,3,PR,1,100,165098
1576860184.497653,74359.000,12335,3,PR,1,100,165120
1576860184.539145,74394.000,12353,3,PR,1,100,165175
1576860184.580638,74429.000,12353,3,PR,1,100,165151
1576860184.622131,74464.000,12353,3,PR,1,100,165123
1576860184.660068,74496.000,12371,4,PR,1,100,165196
1576860184.698004,74528.000,12371,4,PR,1,100,165201
1576860184.735941,74560.000,12371,4,PR,1,100,165177
1576860184.773877,74592.000,12371,4,PR,1,100,165194
1576860184.818334,74629.500,12390,2,PR,1,100,165245
1576860184.862791,74667.000,12390,2,PR,1,100,165260
1576860184.903889,74701.667,12408,3,PR,1,100,165286
1576860184.944987,74736.333,12408,3,PR,1,100,165303
1576860184.986084,74771.000,12408,3,PR,1,100,165349
1576860185.024021,74803.000,12426,3,PR,1,100,165361
1576860185.061957,74835.000,12426,3,PR,1,100,165376
1576860185.099894,74867.000,12426,3,PR,1,100,165336
1576860185.140991,74901.667,12444,3,PR,1,100,165170
1576860185.182089,74936.333,12444,3,PR,1,100,165098
1576860185.223187,74971.000,12444,3,PR,1,100,165107
1576860185.263890,75005.333,12461,3,PR,1,100,165126
1576860185.304592,75039.667,12461,3,PR,1,100,165121
1576860185.345295,75074.000,12461,3,PR,1,100,165144
1576860185.385998,75108.333,12479,3,PR,1,100,165153
1576860185.426700,75142.667,12479,3,PR,1,100,165142
1576860185.467403,75177.000,12479,3,PR,1,100,165139
1576860185.504944,75208.667,12495,3,PR,1,100,165161
1576860185.542486,75240.333,12495,3,PR,1,100,165134
1576860185.580027,75272.000,12495,3,PR,1,100,165194
1576860185.618754,75304.667,12513,3,PR,1,100,165238
1576860185.657480,75337.333,12513,3,PR,1,100,165179
1576860185.696207,75370.000,12513,3,PR,1,100,165267
1576860185.736515,75404.000,12532,3,PR,1,100,165340
1576860185.776822,75438.000,12532,3,PR,1,100,165316
1576860185.817130,75472.000,12532,3,PR,1,100,165312
1576860185.861784,75509.667,12550,3,PR,1,100,165281
1576860185.906439,75547.333,12550,3,PR,1,100,165161
1576860185.951093,75585.000,12550,3,PR,1,100,165096
1576860185.992586,75620.000,12568,3,PR,1,100,165056
1576860186.034079,75655.000,12568,3,PR,1,100,165089
1576860186.075572,75690.000,12568,3,PR,1,100,165109
1576860186.113113,75721.667,12586,3,PR,1,100,165113
1576860186.150655,75753.333,12586,3,PR,1,100,165126
1576860186.188196,75785.000,12586,3,PR,1,100,165139
1576860186.226923,75817.667,12604,3,PR,1,100,165136
1576860186.265649,75850.333,12604,3,PR,1,100,165153
1576860186.304376,75883.000,12604,3,PR,1,100,165168
1576860186.345474,75917.667,12622,3,PR,1,100,165194
1576860186.386572,75952.333,12622,3,PR,1,100,165267
1576860186.427670,75987.000,12622,3,PR,1,100,165250
1576860186.468372,76021.333,12639,3,PR,1,100,165249
1576860186.509075,76055.667,12639,3,PR,1,100,165339
1576860186.549778,76090.000,12639,3,PR,1,100,165346
1576860186.591271,76125.000,12657,3,PR,1,100,165339
1576860186.632764,76160.000,12657,3,PR,1,100,165321
1576860186.674257,76195.000,12657,3,PR,1,100,165213
1576860186.712193,76227.000,12673,3,PR,1,100,165102
1576860186.750129,76259.000,12673,3,PR,1,100,165079
1576860186.788066,76291.000,12673,3,PR,1,100,165067
1576860186.826002,76323.000,12692,3,PR,1,100,165105
1576860186.863939,76355.000,12692,3,PR,1,100,165134
1576860186.901875,76387.000,12692,3,PR,1,100,165120
1576860186.942578,76421.333,12710,3,PR,1,100,165132
1576860186.983281,76455.667,12710,3,PR,1,100,165145
1576860187.023983,76490.000,12710,3,PR,1,100,165145
1576860187.064686,76524.333,12728,3,PR,1,100,165169
1576860187.105389,76558.667,12728,3,PR,1,100,165197
1576860187.146091,76593.000,12728,3,PR,1,100,165269
1576860187.186794,76627.333,12746,3,PR,1,100,165277
1576860187.227497,76661.667,12746,3,PR,1,100,165256
1576860187.268199,76696.000,12746,3,PR,1,100,165327
1576860187.306373,76728.200,12767,5,PR,1,100,165355
1576860187.344546,76760.400,12767,5,PR,1,100,165352
1576860187.382720,76792.600,12767,5,PR,1,100,165354
1576860187.420893,76824.800,12767,5,PR,1,100,165306
1576860187.459067,76857.000,12767,5,PR,1,100,165162
1576860187.497794,76889.667,12787,3,PR,1,100,165123
1576860187.536521,76922.333,12787,3,PR,1,100,165107
1576860187.575248,76955.000,12787,3,PR,1,100,165147
1576860187.611999,76986.000,12803,3,PR,1,100,165171
1576860187.648749,77017.000,12803,3,PR,1,100,165170
1576860187.685500,77048.000,12803,3,PR,1,100,165158
1576860187.728179,77084.000,12822,3,PR,1,100,165183
1576860187.770857,77120.000,12822,3,PR,1,100,165173
1576860187.813536,77156.000,12822,3,PR,1,100,165209
1576860187.855029,77191.000,12840,3,PR,1,100,165266
1576860187.896522,77226.000,12840,3,PR,1,100,165270
1576860187.938015,77261.000,12840,3,PR,1,100,165300
1576860187.976346,77293.333,12858,3,PR,1,100,165328
1576860188.014678,77325.667,12858,3,PR,1,100,165335
1576860188.053010,77358.000,12858,3,PR,1,100,165354
1576860188.097664,77395.667,12876,3,PR,1,100,165386
1576860188.142318,77433.333,12876,3,PR,1,100,165408
1576860188.186973,77471.000,12876,3,PR,1,100,165335
1576860188.225305,77503.333,12894,3,PR,1,100,165201
1576860188.263636,77535.667,12894,3,PR,1,100,165146
1576860188.301968,77568.000,12894,3,PR,1,100,165147
1576860188.343066,77602.667,12911,3,PR,1,100,165148
1576860188.384163,77637.333,12911,3,PR,1,100,165198
1576860188.425261,77672.000,12911,3,PR,1,100,165213
1576860188.467149,77707.333,12929,3,PR,1,100,165210
1576860188.509037,77742.667,12929,3,PR,1,100,165207
1576860188.550926,77778.000,12929,3,PR,1,100,165218
1576860188.588862,77810.000,12945,3,PR,1,100,165241
1576860188.626799,77842.000,12945,3,PR,1,100,165260
1576860188.664735,77874.000,12945,3,PR,1,100,165268
1576860188.703067,77906.333,12963,3,PR,1,100,165318
1576860188.741398,77938.667,12963,3,PR,1,100,165378
1576860188.779730,77971.000,12963,3,PR,1,100,165354
1576860188.819642,78004.667,12982,3,PR,1,100,165378
1576860188.859555,78038.333,12982,3,PR,1,100,165463
1576860188.899467,78072.000,12982,3,PR,1,100,165428
1576860188.940565,78106.667,13000,3,PR,1,100,165326
1576860188.981663,78141.333,13000,3,PR,1,100,165181
1576860189.022760,78176.000,13000,3,PR,1,100,165146
1576860189.069588,78215.500,13018,2,PR,1,100,165163
1576860189.116416,78255.000,13018,2,PR,1,100,165145
1576860189.155538,78288.000,13036,4,PR,1,100,165168
1576860189.194660,78321.000,13036,4,PR,1,100,165229
1576860189.233782,78354.000,13036,4,PR,1,100,165202
1576860189.272904,78387.000,13036,4,PR,1,100,165197
1576860189.310445,78418.667,13054,3,PR,1,100,165220
1576860189.347986,78450.333,13054,3,PR,1,100,165233
1576860189.385528,78482.000,13054,3,PR,1,100,165261
1576860189.425835,78516.000,13072,3,PR,1,100,165258
1576860189.466143,78550.000,13072,3,PR,1,100,165294
1576860189.506450,78584.000,13072,3,PR,1,100,165354
1576860189.547153,78618.333,13089,3,PR,1,100,165350
1576860189.587856,78652.667,13089,3,PR,1,100,165352
1576860189.628558,78687.000,13089,3,PR,1,100,165445
1576860189.669261,78721.333,13107,3,PR,1,100,165441
1576860189.709964,78755.667,13107,3,PR,1,100,165298
1576860189.750666,78790.000,13107,3,PR,1,100,165156
1576860189.789788,78823.000,13124,3,PR,1,100,165128
1576860189.828910,78856.000,13124,3,PR,1,100,165142
1576860189.868032,78889.000,13124,3,PR,1,100,165144
1576860189.905969,78921.000,13142,3,PR,1,100,165151
1576860189.943905,78953.000,13142,3,PR,1,100,165164
1576860189.981842,78985.000,13142,3,PR,1,100,165167
1576860190.021359,79018.333,13160,3,PR,1,100,165175
1576860190.060876,79051.667,13160,3,PR,1,100,165182
1576860190.100393,79085.000,13160,3,PR,1,100,165211
1576860190.141886,79120.000,13178,3,PR,1,100,165225
1576860190.183379,79155.000,13178,3,PR,1,100,165233
1576860190.224872,79190.000,13178,3,PR,1,100,165226
1576860190.265575,79224.333,13196,3,PR,1,100,165298
1576860190.306277,79258.667,13196,3,PR,1,100,165317
1576860190.346980,79293.000,13196,3,PR,1,100,165312
1576860190.387287,79327.000,13214,3,PR,1,100,165382
1576860190.427595,79361.000,13214,3,PR,1,100,165381
1576860190.467902,79395.000,13214,3,PR,1,100,165247
1576860190.505444,79426.667,13232,3,PR,1,100,165125
1576860190.542985,79458.333,13232,3,PR,1,100,165080
1576860190.580526,79490.000,13232,3,PR,1,100,165093
1576860190.619253,79522.667,13250,3,PR,1,100,165090
1576860190.657980,79555.333,13250,3,PR,1,100,165096
1576860190.696707,79588.000,13250,3,PR,1,100,165119
1576860190.737409,79622.333,13268,3,PR,1,100,165141
1576860190.778112,79656.667,13268,3,PR,1,100,165115
1576860190.818815,79691.000,13268,3,PR,1,100,165143
1576860190.859517,79725.333,13286,3,PR,1,100,165173
1576860190.900220,79759.667,13286,3,PR,1,100,165200
1576860190.940922,79794.000,13286,3,PR,1,100,165205
1576860190.981230,79828.000,13304,3,PR,1,100,165218
1576860191.021538,79862.000,13304,3,PR,1,100,165240
1576860191.061845,79896.000,13304,3,PR,1,100,165304
1576860191.099782,79928.000,13320,3,PR,1,100,165263
1576860191.137718,79960.000,13320,3,PR,1,100,165307
1576860191.175654,79992.000,13320,3,PR,1,100,165353
1576860191.215172,80025.333,13338,3,PR,1,100,165205
1576860191.254689,80058.667,13338,3,PR,1,100,165053
1576860191.294206,80092.000,13338,3,PR,1,100,165050
1576860191.335699,80127.000,13356,3,PR,1,100,165053
1576860191.377192,80162.000,13356,3,PR,1,100,165048
1576860191.418685,80197.000,13356,3,PR,1,100,165068
1576860191.458597,80230.667,13374,3,PR,1,100,165065
1576860191.498509,80264.333,13374,3,PR,1,100,165083
1576860191.538422,80298.000,13374,3,PR,1,100,165075
1576860191.576358,80330.000,13392,3,PR,1,100,165109
1576860191.614295,80362.000,13392,3,PR,1,100,165150
1576860191.652231,80394.000,13392,3,PR,1,100,165174
1576860191.696095,80431.000,13410,3,PR,1,100,165212
1576860191.739959,80468.000,13410,3,PR,1,100,165274
1576860191.783823,80505.000,13410,3,PR,1,100,165227
1576860191.820179,80535.667,13429,3,PR,1,100,165240
1576860191.856535,80566.333,13429,3,PR,1,100,165293
1576860191.892890,80597.000,13429,3,PR,1,100,165293
1576860191.934384,80632.000,13446,3,PR,1,100,165258
1576860191.975877,80667.000,13446,3,PR,1,100,165185
1576860192.017370,80702.000,13446,3,PR,1,100,165062
1576860192.057677,80736.000,13464,3,PR,1,100,165036
1576860192.097985,80770.000,13464,3,PR,1,100,165047
1576860192.138292,80804.000,13464,3,PR,1,100,165090
1576860192.180575,80839.667,13480,3,PR,1,100,165103
1576860192.222859,80875.333,13480,3,PR,1,100,165102
1576860192.265142,80911.000,13480,3,PR,1,100,165089
1576860192.305449,80945.000,13498,2,PR,1,100,165113
1576860192.345757,80979.000,13498,2,PR,1,100,165117
1576860192.387250,81014.000,13516,3,PR,1,100,165157
1576860192.428743,81049.000,13516,3,PR,1,100,165199
1576860192.470236,81084.000,13516,3,PR,1,100,165220
1576860192.509358,81117.000,13534,3,PR,1,100,165240
1576860192.548480,81150.000,13534,3,PR,1,100,165253
1576860192.587602,81183.000,13534,3,PR,1,100,165312
1576860192.625835,81215.250,13552,4,PR,1,100,165324
1576860192.664068,81247.500,13552,4,PR,1,100,165343
1576860192.702300,81279.750,13552,4,PR,1,100,165264
1576860192.740533,81312.000,13552,4,PR,1,100,165113
1576860192.780841,81346.000,13571,3,PR,1,100,165049
1576860192.821148,81380.000,13571,3,PR,1,100,165049
1576860192.861456,81414.000,13571,3,PR,1,100,165042
1576860192.902554,81448.667,13589,3,PR,1,100,165087
1576860192.943651,81483.333,13589,3,PR,1,100,165127
1576860192.984749,81518.000,13589,3,PR,1,100,165095
1576860193.026242,81553.000,13606,2,PR,1,100,165043
1576860193.067735,81588.000,13606,2,PR,1,100,165164
1576860193.107647,81621.667,13624,3,PR,1,100,165173
1576860193.147560,81655.333,13624,3,PR,1,100,165172
1576860193.187472,81689.000,13624,3,PR,1,100,165183
1576860193.228570,81723.667,13640,3,PR,1,100,165224
1576860193.269668,81758.333,13640,3,PR,1,100,165234
1576860193.310766,81793.000,13640,3,PR,1,100,165254
1576860193.351073,81827.000,13661,5,PR,1,100,165275
1576860193.391381,81861.000,13661,5,PR,1,100,165330
1576860193.431688,81895.000,13661,5,PR,1,100,165286
1576860193.471996,81929.000,13661,5,PR,1,100,165151
1576860193.512303,81963.000,13661,5,PR,1,100,165059
1576860193.553006,81997.333,13681,3,PR,1,100,165047
1576860193.593708,82031.667,13681,3,PR,1,100,165053
1576860193.634411,82066.000,13681,3,PR,1,100,165065
1576860193.675509,82100.667,13698,3,PR,1,100,165024
1576860193.716607,82135.333,13698,3,PR,1,100,165107
1576860193.757704,82170.000,13698,3,PR,1,100,165113
1576860193.795246,82201.667,13717,3,PR,1,100,165081
1576860193.832787,82233.333,13717,3,PR,1,100,165147
1576860193.870328,82265.000,13717,3,PR,1,100,165211
1576860193.908265,82297.000,13735,3,PR,1,100,165179
1576860193.946201,82329.000,13735,3,PR,1,100,165208
1576860193.984138,82361.000,13735,3,PR,1,100,165232
1576860194.024840,82395.333,13751,3,PR,1,100,165251
1576860194.065543,82429.667,13751,3,PR,1,100,165277
1576860194.106246,82464.000,13751,3,PR,1,100,165299
1576860194.147739,82499.000,13769,3,PR,1,100,165274
1576860194.189232,82534.000,13769,3,PR,1,100,165144
1576860194.230725,82569.000,13769,3,PR,1,100,165044
1576860194.271822,82603.667,13787,3,PR,1,100,165027
1576860194.312920,82638.333,13787,3,PR,1,100,165044
1576860194.354018,82673.000,13787,3,PR,1,100,165041
1576860194.391559,82704.667,13805,3,PR,1,100,165052
1576860194.429101,82736.333,13805,3,PR,1,100,165032
1576860194.466642,82768.000,13805,3,PR,1,100,165012
1576860194.504974,82800.333,13823,3,PR,1,100,165100
1576860194.543305,82832.667,13823,3,PR,1,100,165110
1576860194.581637,82865.000,13823,3,PR,1,100,165107
1576860194.621944,82899.000,13841,3,PR,1,100,165191
1576860194.662252,82933.000,13841,3,PR,1,100,165210
1576860194.702559,82967.000,13841,3,PR,1,100,165200
1576860194.743657,83001.667,13860,3,PR,1,100,165198
1576860194.784755,83036.333,13860,3,PR,1,100,165238
1576860194.825853,83071.000,13860,3,PR,1,100,165266
1576860194.866951,83105.667,13877,3,PR,1,100,165252
1576860194.908049,83140.333,13877,3,PR,1,100,165113
1576860194.949146,83175.000,13877,3,PR,1,100,164997
1576860194.987478,83207.333,13895,3,PR,1,100,165008
1576860195.025810,83239.667,13895,3,PR,1,100,165006
1576860195.064141,83272.000,13895,3,PR,1,100,164987
1576860195.103263,83305.000,13913,3,PR,1,100,165010
1576860195.142385,83338.000,13913,3,PR,1,100,165016
1576860195.181507,83371.000,13913,3,PR,1,100,165015
1576860195.219444,83403.000,13929,3,PR,1,100,165007
1576860195.257380,83435.000,13929,3,PR,1,100,164998
1576860195.295316,83467.000,13929,3,PR,1,100,165064
1576860195.332660,83498.500,13947,4,PR,1,100,165110
1576860195.370004,83530.000,13947,4,PR,1,100,165132
1576860195.407348,83561.500,13947,4,PR,1,100,165142
1576860195.444691,83593.000,13947,4,PR,1,100,165146
1576860195.481838,83624.333,13965,3,PR,1,100,165196
1576860195.518984,83655.667,13965,3,PR,1,100,165225
1576860195.556130,83687.000,13965,3,PR,1,100,165225
1576860195.599994,83724.000,13983,3,PR,1,100,165148
1576860195.643858,83761.000,13983,3,PR,1,100,164987
1576860195.687722,83798.000,13983,3,PR,1,100,164928
1576860195.728622,83832.500,14002,2,PR,1,100,164927
1576860195.769522,83867.000,14002,2,PR,1,100,164925
1576860195.807755,83899.250,14020,4,PR,1,100,164981
1576860195.845988,83931.500,14020,4,PR,1,100,165012
1576860195.884221,83963.750,14020,4,PR,1,100,164987
1576860195.922454,83996.000,14020,4,PR,1,100,164991
1576860195.963947,84031.000,14038,3,PR,1,100,164998
1576860196.005440,84066.000,14038,3,PR,1,100,165011
1576860196.046932,84101.000,14038,3,PR,1,100,165004
1576860196.087833,84135.500,14056,2,PR,1,100,165090
1576860196.128733,84170.000,14056,2,PR,1,100,165126
1576860196.169436,84204.333,14073,3,PR,1,100,165103
1576860196.210138,84238.667,14073,3,PR,1,100,165145
1576860196.250841,84273.000,14073,3,PR,1,100,165238
1576860196.289370,84305.500,14091,4,PR,1,100,165213
1576860196.327899,84338.000,14091,4,PR,1,100,165189
1576860196.366429,84370.500,14091,4,PR,1,100,165079
1576860196.404958,84403.000,14091,4,PR,1,100,164972
1576860196.449415,84440.500,14108,2,PR,1,100,164939
1576860196.493871,84478.000,14108,2,PR,1,100,164941
1576860196.535364,84513.000,14125,3,PR,1,100,164963
1576860196.576858,84548.000,14125,3,PR,1,100,165018
1576860196.618351,84583.000,14125,3,PR,1,100,165006
1576860196.654311,84613.333,14143,3,PR,1,100,164996
1576860196.690272,84643.667,14143,3,PR,1,100,165001
1576860196.726232,84674.000,14143,3,PR,1,100,165012
1576860196.767330,84708.667,14162,3,PR,1,100,165021
1576860196.808428,84743.333,14162,3,PR,1,100,165083
1576860196.849526,84778.000,14162,3,PR,1,100,165121
1576860196.890624,84812.667,14180,3,PR,1,100,165122
1576860196.931721,84847.333,14180,3,PR,1,100,165142
1576860196.972819,84882.000,14180,3,PR,1,100,165175
1576860197.013522,84916.333,14198,3,PR,1,100,165185
1576860197.054224,84950.667,14198,3,PR,1,100,165198
1576860197.094927,84985.000,14198,3,PR,1,100,165151
1576860197.132864,85017.000,14216,3,PR,1,100,164975
1576860197.170800,85049.000,14216,3,PR,1,100,164957
1576860197.208737,85081.000,14216,3,PR,1,100,164934
1576860197.247266,85113.500,14234,4,PR,1,100,164919
1576860197.285795,85146.000,14234,4,PR,1,100,165003
1576860197.324324,85178.500,14234,4,PR,1,100,165016
1576860197.362854,85211.000,14234,4,PR,1,100,164979
1576860197.403754,85245.500,14251,2,PR,1,100,164965
1576860197.444654,85280.000,14251,2,PR,1,100,165014
1576860197.489308,85317.667,14269,3,PR,1,100,165035
1576860197.533963,85355.333,14269,3,PR,1,100,165055
1576860197.578617,85393.000,14269,3,PR,1,100,165074
1576860197.619715,85427.667,14285,3,PR,1,100,165118
1576860197.660813,85462.333,14285,3,PR,1,100,165141
1576860197.701910,85497.000,14285,3,PR,1,100,165140
1576860197.739847,85529.000,14304,3,PR,1,100,165181
1576860197.777783,85561.000,14304,3,PR,1,100,165201
1576860197.815720,85593.000,14304,3,PR,1,100,165171
1576860197.854052,85625.333,14322,3,PR,1,100,165007
1576860197.892383,85657.667,14322,3,PR,1,100,164892
1576860197.930715,85690.000,14322,3,PR,1,100,164927
1576860197.971022,85724.000,14340,3,PR,1,100,164924
1576860198.011330,85758.000,14340,3,PR,1,100,164888
1576860198.051637,85792.000,14340,3,PR,1,100,164974
1576860198.093525,85827.333,14358,3,PR,1,100,164957
1576860198.135414,85862.667,14358,3,PR,1,100,164943
1576860198.177302,85898.000,14358,3,PR,1,100,164934
1576860198.219190,85933.333,14376,3,PR,1,100,164972
1576860198.261078,85968.667,14376,3,PR,1,100,165008
1576860198.302966,86004.000,14376,3,PR,1,100,165036
1576860198.340508,86035.667,14394,3,PR,1,100,165037
1576860198.378049,86067.333,14394,3,PR,1,100,165104
1576860198.415590,86099.000,14394,3,PR,1,100,165118
1576860198.452341,86130.000,14412,3,PR,1,100,165128
1576860198.489092,86161.000,14412,3,PR,1,100,165127
1576860198.525843,86192.000,14412,3,PR,1,100,165144
1576860198.566150,86226.000,14429,3,PR,1,100,165043
1576860198.606458,86260.000,14429,3,PR,1,100,164876
1576860198.646765,86294.000,14429,3,PR,1,100,164817
1576860198.688258,86329.000,14447,3,PR,1,100,164878
1576860198.729751,86364.000,14447,3,PR,1,100,164897
1576860198.771244,86399.000,14447,3,PR,1,100,164861
1576860198.812342,86433.667,14464,3,PR,1,100,164891
1576860198.853440,86468.333,14464,3,PR,1,100,164950
1576860198.894538,86503.000,14464,3,PR,1,100,164894
1576860198.933660,86536.000,14482,3,PR,1,100,164909
1576860198.972782,86569.000,14482,3,PR,1,100,164956
1576860199.011904,86602.000,14482,3,PR,1,100,165000
1576860199.050236,86634.333,14500,3,PR,1,100,165043
1576860199.088567,86666.667,14500,3,PR,1,100,165044
1576860199.126899,86699.000,14500,3,PR,1,100,165052
1576860199.164835,86731.000,14518,3,PR,1,100,165112
1576860199.202772,86763.000,14518,3,PR,1,100,165115
1576860199.240708,86795.000,14518,3,PR,1,100,165134
1576860199.282201,86830.000,14536,3,PR,1,100,165098
1576860199.323694,86865.000,14536,3,PR,1,100,164928
1576860199.365187,86900.000,14536,3,PR,1,100,164817
1576860199.404546,86933.200,14557,5,PR,1,100,164844
1576860199.443905,86966.400,14557,5,PR,1,100,164851
1576860199.483264,86999.600,14557,5,PR,1,100,164833
1576860199.522623,87032.800,14557,5,PR,1,100,164870
1576860199.561982,87066.000,14557,5,PR,1,100,164873
1576860199.598437,87096.750,14577,4,PR,1,100,164865
1576860199.634892,87127.500,14577,4,PR,1,100,164886
1576860199.671346,87158.250,14577,4,PR,1,100,164904
1576860199.707801,87189.000,14577,4,PR,1,100,164909
1576860199.747713,87222.667,14596,3,PR,1,100,164953
1576860199.787625,87256.333,14596,3,PR,1,100,164985
1576860199.827538,87290.000,14596,3,PR,1,100,165003
1576860199.867252,87323.500,14614,2,PR,1,100,165024
1576860199.906967,87357.000,14614,2,PR,1,100,165051
1576860199.948460,87392.000,14632,3,PR,1,100,165095
1576860199.989953,87427.000,14632,3,PR,1,100,165081
1576860200.031446,87462.000,14632,3,PR,1,100,164933
1576860200.072939,87497.000,14650,3,PR,1,100,164809
1576860200.114432,87532.000,14650,3,PR,1,100,164780
1576860200.155925,87567.000,14650,3,PR,1,100,164769
1576860200.193565,87598.750,14668,4,PR,1,100,164749
1576860200.231205,87630.500,14668,4,PR,1,100,164777
1576860200.268845,87662.250,14668,4,PR,1,100,164837
1576860200.306485,87694.000,14668,4,PR,1,100,164792
1576860200.346398,87727.667,14686,3,PR,1,100,164774
1576860200.386310,87761.333,14686,3,PR,1,100,164871
1576860200.426222,87795.000,14686,3,PR,1,100,164877
1576860200.465739,87828.333,14704,3,PR,1,100,164876
1576860200.505257,87861.667,14704,3,PR,1,100,164889
1576860200.544774,87895.000,14704,3,PR,1,100,164929
1576860200.591602,87934.500,14721,2,PR,1,100,164961
1576860200.638429,87974.000,14721,2,PR,1,100,164975
1576860200.679922,88009.000,14739,3,PR,1,100,164999
1576860200.721415,88044.000,14739,3,PR,1,100,165031
1576860200.762908,88079.000,14739,3,PR,1,100,164962
1576860200.800845,88111.000,14756,3,PR,1,100,164803
1576860200.838781,88143.000,14756,3,PR,1,100,164742
1576860200.876718,88175.000,14756,3,PR,1,100,164752
1576860200.914654,88207.000,14774,3,PR,1,100,164738
1576860200.952591,88239.000,14774,3,PR,1,100,164742
1576860200.990527,88271.000,14774,3,PR,1,100,164754
1576860201.029649,88304.000,14792,3,PR,1,100,164822
1576860201.068771,88337.000,14792,3,PR,1,100,164748
1576860201.107893,88370.000,14792,3,PR,1,100,164787
1576860201.148596,88404.333,14810,3,PR,1,100,164856
1576860201.189298,88438.667,14810,3,PR,1,100,164849
1576860201.230001,88473.000,14810,3,PR,1,100,164860
1576860201.271889,88508.333,14828,3,PR,1,100,164928
1576860201.313777,88543.667,14828,3,PR,1,100,164922
1576860201.355665,88579.000,14828,3,PR,1,100,164927
1576860201.394788,88612.000,14846,3,PR,1,100,164949
1576860201.433909,88645.000,14846,3,PR,1,100,164988
1576860201.473032,88678.000,14846,3,PR,1,100,164962
1576860201.510672,88709.750,14864,4,PR,1,100,164817
1576860201.548312,88741.500,14864,4,PR,1,100,164717
1576860201.585952,88773.250,14864,4,PR,1,100,164707
1576860201.623592,88805.000,14864,4,PR,1,100,164709
1576860201.663899,88839.000,14882,2,PR,1,100,164695
1576860201.704207,88873.000,14882,2,PR,1,100,164709
1576860201.744909,88907.333,14900,3,PR,1,100,164748
1576860201.785612,88941.667,14900,3,PR,1,100,164777
1576860201.826315,88976.000,14900,3,PR,1,100,164735
1576860201.867808,89011.000,14918,3,PR,1,100,164776
1576860201.909301,89046.000,14918,3,PR,1,100,164841
1576860201.950794,89081.000,14918,3,PR,1,100,164842
1576860201.989916,89114.000,14934,3,PR,1,100,164842
1576860202.029038,89147.000,14934,3,PR,1,100,164866
1576860202.068160,89180.000,14934,3,PR,1,100,164905
1576860202.105800,89211.750,14952,4,PR,1,100,164930
1576860202.143440,89243.500,14952,4,PR,1,100,164915
1576860202.181080,89275.250,14952,4,PR,1,100,164948
1576860202.218720,89307.000,14952,4,PR,1,100,164845
1576860202.258632,89340.667,14970,3,PR,1,100,164656
1576860202.298545,89374.333,14970,3,PR,1,100,164642
1576860202.338457,89408.000,14970,3,PR,1,100,164659
1576860202.379555,89442.667,14988,3,PR,1,100,164631
1576860202.420653,89477.333,14988,3,PR,1,100,164637
1576860202.461750,89512.000,14988,3,PR,1,100,164645
1576860202.503243,89547.000,15006,2,PR,1,100,164671
1576860202.544736,89582.000,15006,2,PR,1,100,164679
1576860202.586229,89617.000,15024,3,PR,1,100,164643
1576860202.627722,89652.000,15024,3,PR,1,100,164699
1576860202.669215,89687.000,15024,3,PR,1,100,164786
1576860202.707152,89719.000,15043,3,PR,1,100,164764
1576860202.745088,89751.000,15043,3,PR,1,100,164771
1576860202.783025,89783.000,15043,3,PR,1,100,164800
1576860202.822147,89816.000,15061,4,PR,1,100,164834
1576860202.861269,89849.000,15061,4,PR,1,100,164856
1576860202.900391,89882.000,15061,4,PR,1,100,164928
1576860202.939513,89915.000,15061,4,PR,1,100,164877
1576860202.976659,89946.333,15079,3,PR,1,100,164692
1576860203.013805,89977.667,15079,3,PR,1,100,164583
1576860203.050951,90009.000,15079,3,PR,1,100,164617
1576860203.092444,90044.000,15096,3,PR,1,100,164566
1576860203.133937,90079.000,15096,3,PR,1,100,164628
1576860203.175430,90114.000,15096,3,PR,1,100,164634
1576860203.211786,90144.667,15114,3,PR,1,100,164623
1576860203.248142,90175.333,15114,3,PR,1,100,164648
1576860203.284497,90206.000,15114,3,PR,1,100,164696
1576860203.322039,90237.667,15132,3,PR,1,100,164635
1576860203.359580,90269.333,15132,3,PR,1,100,164674
1576860203.397121,90301.000,15132,3,PR,1,100,164765
1576860203.436243,90334.000,15148,3,PR,1,100,164730
1576860203.475365,90367.000,15148,3,PR,1,100,164744
1576860203.514487,90400.000,15148,3,PR,1,100,164757
1576860203.554795,90434.000,15166,3,PR,1,100,164804
1576860203.595102,90468.000,15166,3,PR,1,100,164829
1576860203.635410,90502.000,15166,3,PR,1,100,164882
1576860203.675717,90536.000,15185,3,PR,1,100,164851
1576860203.716024,90570.000,15185,3,PR,1,100,164652
1576860203.756332,90604.000,15185,3,PR,1,100,164558
1576860203.796639,90638.000,15203,3,PR,1,100,164589
1576860203.836947,90672.000,15203,3,PR,1,100,164596
1576860203.877254,90706.000,15203,3,PR,1,100,164611
1576860203.918747,90741.000,15221,3,PR,1,100,164617
1576860203.960240,90776.000,15221,3,PR,1,100,164639
1576860204.001733,90811.000,15221,3,PR,1,100,164645
1576860204.042041,90845.000,15239,3,PR,1,100,164638
1576860204.082348,90879.000,15239,3,PR,1,100,164676
1576860204.122656,90913.000,15239,3,PR,1,100,164707
1576860204.160197,90944.667,15257,3,PR,1,100,164721
1576860204.197738,90976.333,15257,3,PR,1,100,164731
1576860204.235280,91008.000,15257,3,PR,1,100,164754
1576860204.274797,91041.333,15275,3,PR,1,100,164815
1576860204.314314,91074.667,15275,3,PR,1,100,164843
1576860204.353831,91108.000,15275,3,PR,1,100,164823
1576860204.394139,91142.000,15292,3,PR,1,100,164889
1576860204.434446,91176.000,15292,3,PR,1,100,164783
1576860204.474754,91210.000,15292,3,PR,1,100,164579
1576860204.519408,91247.667,15310,3,PR,1,100,164545
1576860204.564062,91285.333,15310,3,PR,1,100,164575
1576860204.608717,91323.000,15310,3,PR,1,100,164584
1576860204.649024,91357.000,15326,3,PR,1,100,164599
1576860204.689332,91391.000,15326,3,PR,1,100,164617
1576860204.729639,91425.000,15326,3,PR,1,100,164650
1576860204.767180,91456.667,15345,3,PR,1,100,164620
1576860204.804722,91488.333,15345,3,PR,1,100,164634
1576860204.842263,91520.000,15345,3,PR,1,100,164670
1576860204.881780,91553.333,15363,3,PR,1,100,164692
1576860204.921297,91586.667,15363,3,PR,1,100,164716
1576860204.960814,91620.000,15363,3,PR,1,100,164727
1576860205.001122,91654.000,15381,3,PR,1,100,164741
1576860205.041430,91688.000,15381,3,PR,1,100,164795
1576860205.081737,91722.000,15381,3,PR,1,100,164814
1576860205.122835,91756.667,15399,3,PR,1,100,164812
1576860205.163933,91791.333,15399,3,PR,1,100,164883
1576860205.205030,91826.000,15399,3,PR,1,100,164713
1576860205.246128,91860.667,15417,3,PR,1,100,164534
1576860205.287226,91895.333,15417,3,PR,1,100,164518
1576860205.328324,91930.000,15417,3,PR,1,100,164554
1576860205.365865,91961.667,15435,3,PR,1,100,164562
1576860205.403406,91993.333,15435,3,PR,1,100,164579
1576860205.440948,92025.000,15435,3,PR,1,100,164595
1576860205.480070,92058.000,15456,5,PR,1,100,164604
1576860205.519192,92091.000,15456,5,PR,1,100,164605
1576860205.558314,92124.000,15456,5,PR,1,100,164626
1576860205.597436,92157.000,15456,5,PR,1,100,164649
1576860205.636558,92190.000,15456,5,PR,1,100,164679
1576860205.678051,92225.000,15477,3,PR,1,100,164696
1576860205.719544,92260.000,15477,3,PR,1,100,164716
1576860205.761037,92295.000,15477,3,PR,1,100,164687
1576860205.802135,92329.667,15495,3,PR,1,100,164806
1576860205.843232,92364.333,15495,3,PR,1,100,164788
1576860205.884330,92399.000,15495,3,PR,1,100,164766
1576860205.923057,92431.667,15513,3,PR,1,100,164754
1576860205.961784,92464.333,15513,3,PR,1,100,164590
1576860206.000510,92497.000,15513,3,PR,1,100,164508
1576860206.038842,92529.333,15531,3,PR,1,100,164523
1576860206.077174,92561.667,15531,3,PR,1,100,164538
1576860206.115505,92594.000,15531,3,PR,1,100,164554
1576860206.154627,92627.000,15549,3,PR,1,100,164563
1576860206.193749,92660.000,15549,3,PR,1,100,164555
1576860206.232871,92693.000,15549,3,PR,1,100,164574
1576860206.273969,92727.667,15566,3,PR,1,100,164609
1576860206.315067,92762.333,15566,3,PR,1,100,164639
1576860206.356165,92797.000,15566,3,PR,1,100,164654
1576860206.398053,92832.333,15584,3,PR,1,100,164683
1576860206.439941,92867.667,15584,3,PR,1,100,164689
1576860206.481829,92903.000,15584,3,PR,1,100,164710
1576860206.522730,92937.500,15600,2,PR,1,100,164718
1576860206.563630,92972.000,15600,2,PR,1,100,164794
1576860206.604332,93006.333,15618,3,PR,1,100,164812
1576860206.645035,93040.667,15618,3,PR,1,100,164712
1576860206.685738,93075.000,15618,3,PR,1,100,164520
1576860206.725650,93108.667,15637,3,PR,1,100,164461
1576860206.765562,93142.333,15637,3,PR,1,100,164435
1576860206.805475,93176.000,15637,3,PR,1,100,164491
1576860206.846573,93210.667,15655,3,PR,1,100,164465
1576860206.887670,93245.333,15655,3,PR,1,100,164508
1576860206.928768,93280.000,15655,3,PR,1,100,164509
1576860206.971051,93315.667,15673,3,PR,1,100,164483
1576860207.013335,93351.333,15673,3,PR,1,100,164478
1576860207.055618,93387.000,15673,3,PR,1,100,164540
1576860207.097111,93422.000,15691,3,PR,1,100,164599
1576860207.138604,93457.000,15691,3,PR,1,100,164642
1576860207.180097,93492.000,15691,3,PR,1,100,164627
1576860207.218034,93524.000,15708,3,PR,1,100,164628
1576860207.255970,93556.000,15708,3,PR,1,100,164638
1576860207.293907,93588.000,15708,3,PR,1,100,164620
1576860207.331843,93620.000,15726,3,PR,1,100,164718
1576860207.369780,93652.000,15726,3,PR,1,100,164649
1576860207.407716,93684.000,15726,3,PR,1,100,164418
1576860207.447233,93717.333,15744,3,PR,1,100,164443
1576860207.486750,93750.667,15744,3,PR,1,100,164427
1576860207.526267,93784.000,15744,3,PR,1,100,164398
1576860207.571317,93822.000,15760,3,PR,1,100,164398
1576860207.616366,93860.000,15760,3,PR,1,100,164431
1576860207.661416,93898.000,15760,3,PR,1,100,164437
1576860207.702514,93932.667,15779,3,PR,1,100,164416
1576860207.743612,93967.333,15779,3,PR,1,100,164466
1576860207.784709,94002.000,15779,3,PR,1,100,164492
1576860207.823041,94034.333,15797,3,PR,1,100,164515
1576860207.861373,94066.667,15797,3,PR,1,100,164536
1576860207.899704,94099.000,15797,3,PR,1,100,164553
1576860207.941197,94134.000,15815,3,PR,1,100,164543
1576860207.982690,94169.000,15815,3,PR,1,100,164590
1576860208.024183,94204.000,15815,3,PR,1,100,164626
1576860208.062515,94236.333,15833,3,PR,1,100,164628
1576860208.100847,94268.667,15833,3,PR,1,100,164598
1576860208.139178,94301.000,15833,3,PR,1,100,164438
1576860208.177510,94333.333,15851,3,PR,1,100,164336
1576860208.215842,94365.667,15851,3,PR,1,100,164315
1576860208.254173,94398.000,15851,3,PR,1,100,164322
1576860208.294086,94431.667,15869,3,PR,1,100,164367
1576860208.333998,94465.333,15869,3,PR,1,100,164386
1576860208.373910,94499.000,15869,3,PR,1,100,164310
1576860208.414217,94533.000,15886,3,PR,1,100,164415
1576860208.454525,94567.000,15886,3,PR,1,100,164396
1576860208.494833,94601.000,15886,3,PR,1,100,164397
1576860208.539882,94639.000,15904,3,PR,1,100,164429
1576860208.584932,94677.000,15904,3,PR,1,100,164484
1576860208.629981,94715.000,15904,3,PR,1,100,164520
1576860208.668313,94747.333,15920,3,PR,1,100,164527
1576860208.706645,94779.667,15920,3,PR,1,100,164549
1576860208.744976,94812.000,15920,3,PR,1,100,164594
1576860208.782912,94844.000,15939,3,PR,1,100,164620
1576860208.820849,94876.000,15939,3,PR,1,100,164615
1576860208.858785,94908.000,15939,3,PR,1,100,164490
1576860208.899488,94942.333,15957,3,PR,1,100,164328
1576860208.940191,94976.667,15957,3,PR,1,100,164302
1576860208.980893,95011.000,15957,3,PR,1,100,164272
1576860209.021991,95045.667,15975,3,PR,1,100,164364
1576860209.063089,95080.333,15975,3,PR,1,100,164310
1576860209.104187,95115.000,15975,3,PR,1,100,164342
1576860209.145285,95149.667,15993,3,PR,1,100,164402
1576860209.186383,95184.333,15993,3,PR,1,100,164372
1576860209.227480,95219.000,15993,3,PR,1,100,164380
1576860209.266998,95252.333,16011,3,PR,1,100,164450
1576860209.306515,95285.667,16011,3,PR,1,100,164474
1576860209.346032,95319.000,16011,3,PR,1,100,164494
1576860209.383573,95350.667,16029,3,PR,1,100,164502
1576860209.421114,95382.333,16029,3,PR,1,100,164537
1576860209.458656,95414.000,16029,3,PR,1,100,164562
1576860209.498963,95448.000,16047,3,PR,1,100,164600
1576860209.539271,95482.000,16047,3,PR,1,100,164632
1576860209.579578,95516.000,16047,3,PR,1,100,164581
1576860209.620281,95550.333,16064,3,PR,1,100,164387
1576860209.660983,95584.667,16064,3,PR,1,100,164302
1576860209.701686,95619.000,16064,3,PR,1,100,164290
1576860209.742389,95653.333,16083,3,PR,1,100,164386
1576860209.783091,95687.667,16083,3,PR,1,100,164372
1576860209.823794,95722.000,16083,3,PR,1,100,164366
1576860209.864497,95756.333,16099,3,PR,1,100,164444
1576860209.905199,95790.667,16099,3,PR,1,100,164409
1576860209.945902,95825.000,16099,3,PR,1,100,164405
1576860209.982653,95856.000,16117,3,PR,1,100,164430
1576860210.019404,95887.000,16117,3,PR,1,100,164497
1576860210.056155,95918.000,16117,3,PR,1,100,164527
1576860210.095672,95951.333,16135,3,PR,1,100,164533
1576860210.135189,95984.667,16135,3,PR,1,100,164570
1576860210.174706,96018.000,16135,3,PR,1,100,164611
1576860210.214619,96051.667,16153,3,PR,1,100,164631
1576860210.254531,96085.333,16153,3,PR,1,100,164654
1576860210.294443,96119.000,16153,3,PR,1,100,164609
1576860210.336331,96154.333,16171,3,PR,1,100,164411
1576860210.378220,96189.667,16171,3,PR,1,100,164315
1576860210.420108,96225.000,16171,3,PR,1,100,164293
1576860210.461205,96259.667,16189,3,PR,1,100,164354
1576860210.502303,96294.333,16189,3,PR,1,100,164394
1576860210.543401,96329.000,16189,3,PR,1,100,164413
1576860210.582523,96362.000,16207,3,PR,1,100,164402
1576860210.621645,96395.000,16207,3,PR,1,100,164397
1576860210.660767,96428.000,16207,3,PR,1,100,164442
1576860210.701667,96462.500,16225,2,PR,1,100,164485
1576860210.742568,96497.000,16225,2,PR,1,100,164511
1576860210.783764,96531.750,16243,4,PR,1,100,164535
1576860210.824961,96566.500,16243,4,PR,1,100,164549
1576860210.866158,96601.250,16243,4,PR,1,100,164584
1576860210.907354,96636.000,16243,4,PR,1,100,164625
1576860210.948452,96670.667,16259,3,PR,1,100,164629
1576860210.989550,96705.333,16259,3,PR,1,100,164656
1576860211.030648,96740.000,16259,3,PR,1,100,164578
1576860211.071548,96774.500,16277,2,PR,1,100,164367
1576860211.112448,96809.000,16277,2,PR,1,100,164312
1576860211.151274,96841.750,16295,4,PR,1,100,164310
1576860211.190099,96874.500,16295,4,PR,1,100,164347
1576860211.228925,96907.250,16295,4,PR,1,100,164405
1576860211.267751,96940.000,16295,4,PR,1,100,164344
1576860211.306872,96973.000,16313,3,PR,1,100,164404
1576860211.345994,97006.000,16313,3,PR,1,100,164421
1576860211.385116,97039.000,16313,3,PR,1,100,164403
1576860211.424238,97072.000,16331,2,PR,1,100,164419
1576860211.463360,97105.000,16331,2,PR,1,100,164475
1576860211.504616,97139.800,16352,5,PR,1,100,164516
1576860211.545872,97174.600,16352,5,PR,1,100,164534
1576860211.587128,97209.400,16352,5,PR,1,100,164563
1576860211.628384,97244.200,16352,5,PR,1,100,164602
1576860211.669640,97279.000,16352,5,PR,1,100,164607
1576860211.710738,97313.667,16373,3,PR,1,100,164650
1576860211.751835,97348.333,16373,3,PR,1,100,164595
1576860211.792933,97383.000,16373,3,PR,1,100,164370
1576860211.834031,97417.667,16391,3,PR,1,100,164305
1576860211.875129,97452.333,16391,3,PR,1,100,164324
1576860211.916227,97487.000,16391,3,PR,1,100,164344
1576860211.956534,97521.000,16409,3,PR,1,100,164349
1576860211.996842,97555.000,16409,3,PR,1,100,164363
1576860212.037149,97589.000,16409,3,PR,1,100,164371
1576860212.074691,97620.667,16427,3,PR,1,100,164353
1576860212.112232,97652.333,16427,3,PR,1,100,164340
1576860212.149773,97684.000,16427,3,PR,1,100,164407
1576860212.188895,97717.000,16445,3,PR,1,100,164476
1576860212.228017,97750.000,16445,3,PR,1,100,164414
1576860212.267139,97783.000,16445,3,PR,1,100,164502
1576860212.307446,97817.000,16463,3,PR,1,100,164556
1576860212.347754,97851.000,16463,3,PR,1,100,164537
1576860212.388062,97885.000,16463,3,PR,1,100,164545
1576860212.432716,97922.667,16480,3,PR,1,100,164581
1576860212.477370,97960.333,16480,3,PR,1,100,164539
1576860212.522025,97998.000,16480,3,PR,1,100,164340
1576860212.562727,98032.333,16498,3,PR,1,100,164282
1576860212.603430,98066.667,16498,3,PR,1,100,164318
1576860212.644133,98101.000,16498,3,PR,1,100,164318
1576860212.682464,98133.333,16514,3,PR,1,100,164315
1576860212.720796,98165.667,16514,3,PR,1,100,164350
1576860212.759127,98198.000,16514,3,PR,1,100,164348
1576860212.797854,98230.667,16533,3,PR,1,100,164340
1576860212.836581,98263.333,16533,3,PR,1,100,164314
1576860212.875308,98296.000,16533,3,PR,1,100,164405
1576860212.916406,98330.667,16551,3,PR,1,100,164476
1576860212.957504,98365.333,16551,3,PR,1,100,164446
1576860212.998601,98400.000,16551,3,PR,1,100,164502
1576860213.039304,98434.333,16569,3,PR,1,100,164549
1576860213.080007,98468.667,16569,3,PR,1,100,164525
1576860213.120709,98503.000,16569,3,PR,1,100,164540
1576860213.162202,98538.000,16587,3,PR,1,100,164589
1576860213.203695,98573.000,16587,3,PR,1,100,164480
1576860213.245188,98608.000,16587,3,PR,1,100,164297
1576860213.282730,98639.667,16605,3,PR,1,100,164260
1576860213.320271,98671.333,16605,3,PR,1,100,164287
1576860213.357812,98703.000,16605,3,PR,1,100,164284
1576860213.395749,98735.000,16623,3,PR,1,100,164305
1576860213.433685,98767.000,16623,3,PR,1,100,164304
1576860213.471622,98799.000,16623,3,PR,1,100,164291
1576860213.512324,98833.333,16641,3,PR,1,100,164288
1576860213.553027,98867.667,16641,3,PR,1,100,164284
1576860213.593729,98902.000,16641,3,PR,1,100,164324
1576860213.634037,98936.000,16658,3,PR,1,100,164423
1576860213.674345,98970.000,16658,3,PR,1,100,164339
1576860213.714652,99004.000,16658,3,PR,1,100,164387
1576860213.755355,99038.333,16677,3,PR,1,100,164451
1576860213.796057,99072.667,16677,3,PR,1,100,164442
1576860213.836760,99107.000,16677,3,PR,1,100,164452
1576860213.875487,99139.667,16693,3,PR,1,100,164509
1576860213.914213,99172.333,16693,3,PR,1,100,164363
1576860213.952940,99205.000,16693,3,PR,1,100,164224
1576860213.990086,99236.333,16711,3,PR,1,100,164198
1576860214.027233,99267.667,16711,3,PR,1,100,164212
1576860214.064379,99299.000,16711,3,PR,1,100,164211
1576860214.106267,99334.333,16729,3,PR,1,100,164242
1576860214.148155,99369.667,16729,3,PR,1,100,164260
1576860214.190043,99405.000,16729,3,PR,1,100,164240
1576860214.227584,99436.667,16747,3,PR,1,100,164232
1576860214.265126,99468.333,16747,3,PR,1,100,164281
1576860214.302667,99500.000,16747,3,PR,1,100,164316
1576860214.340307,99531.750,16765,4,PR,1,100,164330
1576860214.377947,99563.500,16765,4,PR,1,100,164361
1576860214.415587,99595.250,16765,4,PR,1,100,164383
1576860214.453227,99627.000,16765,4,PR,1,100,164391
1576860214.493535,99661.000,16783,2,PR,1,100,164432
1576860214.533842,99695.000,16783,2,PR,1,100,164467
1576860214.579287,99733.333,16801,3,PR,1,100,164450
1576860214.624732,99771.667,16801,3,PR,1,100,164295
1576860214.670177,99810.000,16801,3,PR,1,100,164174
1576860214.711274,99844.667,16820,3,PR,1,100,164154
1576860214.752372,99879.333,16820,3,PR,1,100,164149
1576860214.793470,99914.000,16820,3,PR,1,100,164134
1576860214.831406,99946.000,16837,3,PR,1,100,164254
1576860214.869343,99978.000,16837,3,PR,1,100,164200
1576860214.907279,100010.000,16837,3,PR,1,100,164204
1576860214.948772,100045.000,16855,3,PR,1,100,164216
1576860214.990265,100080.000,16855,3,PR,1,100,164228
1576860215.031758,100115.000,16855,3,PR,1,100,164234
1576860215.072461,100149.333,16871,3,PR,1,100,164335
1576860215.113164,100183.667,16871,3,PR,1,100,164344
1576860215.153866,100218.000,16871,3,PR,1,100,164308
1576860215.191408,100249.667,16889,3,PR,1,100,164404
1576860215.228949,100281.333,16889,3,PR,1,100,164422
1576860215.266490,100313.000,16889,3,PR,1,100,164403
1576860215.310749,100350.333,16907,3,PR,1,100,164389
1576860215.355009,100387.667,16907,3,PR,1,100,164239
1576860215.399268,100425.000,16907,3,PR,1,100,164147
1576860215.434438,100454.667,16925,3,PR,1,100,164134
1576860215.469608,100484.333,16925,3,PR,1,100,164161
1576860215.504779,100514.000,16925,3,PR,1,100,164169
1576860215.545086,100548.000,16943,3,PR,1,100,164184
1576860215.585393,100582.000,16943,3,PR,1,100,164200
1576860215.625701,100616.000,16943,3,PR,1,100,164201
1576860215.666404,100650.333,16961,3,PR,1,100,164201
1576860215.707106,100684.667,16961,3,PR,1,100,164247
1576860215.747809,100719.000,16961,3,PR,1,100,164290
1576860215.789302,100754.000,16980,3,PR,1,100,164318
1576860215.830795,100789.000,16980,3,PR,1,100,164332
1576860215.872288,100824.000,16980,3,PR,1,100,164356
1576860215.912200,100857.667,16997,3,PR,1,100,164369
1576860215.952113,100891.333,16997,3,PR,1,100,164392
1576860215.992025,100925.000,16997,3,PR,1,100,164396
1576860216.029566,100956.667,17015,3,PR,1,100,164386
1576860216.067107,100988.333,17015,3,PR,1,100,164172
1576860216.104649,101020.000,17015,3,PR,1,100,164054
1576860216.143771,101053.000,17033,3,PR,1,100,164153
1576860216.182893,101086.000,17033,3,PR,1,100,164174
1576860216.222015,101119.000,17033,3,PR,1,100,164152
1576860216.265879,101156.000,17050,3,PR,1,100,164156
1576860216.309743,101193.000,17050,3,PR,1,100,164180
1576860216.353607,101230.000,17050,3,PR,1,100,164181
1576860216.394309,101264.333,17067,3,PR,1,100,164181
1576860216.435012,101298.667,17067,3,PR,1,100,164223
1576860216.475715,101333.000,17067,3,PR,1,100,164248
1576860216.516417,101367.333,17085,3,PR,1,100,164289
1576860216.557120,101401.667,17085,3,PR,1,100,164315
1576860216.597823,101436.000,17085,3,PR,1,100,164329
1576860216.634969,101467.333,17103,3,PR,1,100,164345
1576860216.672115,101498.667,17103,3,PR,1,100,164359
1576860216.709261,101530.000,17103,3,PR,1,100,164319
1576860216.748383,101563.000,17122,3,PR,1,100,164212
1576860216.787505,101596.000,17122,3,PR,1,100,164108
1576860216.826627,101629.000,17122,3,PR,1,100,164045
1576860216.867330,101663.333,17140,3,PR,1,100,164126
1576860216.908032,101697.667,17140,3,PR,1,100,164150
1576860216.948735,101732.000,17140,3,PR,1,100,164126
1576860216.989833,101766.667,17158,3,PR,1,100,164124
1576860217.030931,101801.333,17158,3,PR,1,100,164142
1576860217.072028,101836.000,17158,3,PR,1,100,164153
1576860217.113521,101871.000,17175,3,PR,1,100,164167
1576860217.155015,101906.000,17175,3,PR,1,100,164193
1576860217.196507,101941.000,17175,3,PR,1,100,164260
1576860217.233654,101972.333,17193,3,PR,1,100,164288
1576860217.270800,102003.667,17193,3,PR,1,100,164282
1576860217.307946,102035.000,17193,3,PR,1,100,164322
1576860217.346673,102067.667,17211,3,PR,1,100,164350
1576860217.385399,102100.333,17211,3,PR,1,100,164354
1576860217.424126,102133.000,17211,3,PR,1,100,164234
1576860217.464434,102167.000,17229,3,PR,1,100,164079
1576860217.504741,102201.000,17229,3,PR,1,100,164084
1576860217.545049,102235.000,17229,3,PR,1,100,164028
1576860217.586304,102269.800,17248,5,PR,1,100,164074
1576860217.627560,102304.600,17248,5,PR,1,100,164135
1576860217.668816,102339.400,17248,5,PR,1,100,164087
1576860217.710072,102374.200,17248,5,PR,1,100,164077
1576860217.751328,102409.000,17248,5,PR,1,100,164104
1576860217.789660,102441.333,17269,3,PR,1,100,164127
1576860217.827991,102473.667,17269,3,PR,1,100,164145
1576860217.866323,102506.000,17269,3,PR,1,100,164190
1576860217.905840,102539.333,17286,3,PR,1,100,164230
1576860217.945357,102572.667,17286,3,PR,1,100,164258
1576860217.984874,102606.000,17286,3,PR,1,100,164275
1576860218.022416,102637.667,17304,3,PR,1,100,164291
1576860218.059957,102669.333,17304,3,PR,1,100,164327
1576860218.097498,102701.000,17304,3,PR,1,100,164299
1576860218.134249,102732.000,17322,3,PR,1,100,164200
1576860218.171000,102763.000,17322,3,PR,1,100,164035
1576860218.207751,102794.000,17322,3,PR,1,100,164006
1576860218.244897,102825.333,17340,3,PR,1,100,164004
1576860218.282043,102856.667,17340,3,PR,1,100,163999
1576860218.319189,102888.000,17340,3,PR,1,100,164017
1576860218.361868,102924.000,17356,3,PR,1,100,164055
1576860218.404546,102960.000,17356,3,PR,1,100,164066
1576860218.447225,102996.000,17356,3,PR,1,100,164066
1576860218.488718,103031.000,17374,3,PR,1,100,164084
1576860218.530211,103066.000,17374,3,PR,1,100,164123
1576860218.571704,103101.000,17374,3,PR,1,100,164140
1576860218.607665,103131.333,17392,3,PR,1,100,164148
1576860218.643625,103161.667,17392,3,PR,1,100,164207
1576860218.679586,103192.000,17392,3,PR,1,100,164250
1576860218.720684,103226.667,17411,3,PR,1,100,164287
1576860218.761781,103261.333,17411,3,PR,1,100,164300
1576860218.802879,103296.000,17411,3,PR,1,100,164310
1576860218.843977,103330.667,17429,3,PR,1,100,164215
1576860218.885075,103365.333,17429,3,PR,1,100,163999
1576860218.926173,103400.000,17429,3,PR,1,100,164028
1576860218.966875,103434.333,17447,3,PR,1,100,164000
1576860219.007578,103468.667,17447,3,PR,1,100,164002
1576860219.048281,103503.000,17447,3,PR,1,100,164091
1576860219.086612,103535.333,17465,3,PR,1,100,164080
1576860219.124944,103567.667,17465,3,PR,1,100,164057
1576860219.163275,103600.000,17465,3,PR,1,100,164058
1576860219.205559,103635.667,17482,3,PR,1,100,164110
1576860219.247842,103671.333,17482,3,PR,1,100,164141
1576860219.290126,103707.000,17482,3,PR,1,100,164153
1576860219.328062,103739.000,17500,3,PR,1,100,164228
1576860219.365999,103771.000,17500,3,PR,1,100,164256
1576860219.403935,103803.000,17500,3,PR,1,100,164265
1576860219.443057,103836.000,17518,3,PR,1,100,164288
1576860219.482179,103869.000,17518,3,PR,1,100,164321
1576860219.521301,103902.000,17518,3,PR,1,100,164323
1576860219.562399,103936.667,17534,3,PR,1,100,164318
1576860219.603497,103971.333,17534,3,PR,1,100,164140
1576860219.644594,104006.000,17534,3,PR,1,100,164027
1576860219.685692,104040.667,17553,3,PR,1,100,164030
1576860219.726790,104075.333,17553,3,PR,1,100,164045
1576860219.767888,104110.000,17553,3,PR,1,100,164046
1576860219.808591,104144.333,17571,3,PR,1,100,164055
1576860219.849293,104178.667,17571,3,PR,1,100,164066
1576860219.889996,104213.000,17571,3,PR,1,100,164051
1576860219.927537,104244.667,17589,3,PR,1,100,164147
1576860219.965078,104276.333,17589,3,PR,1,100,164092
1576860220.002620,104308.000,17589,3,PR,1,100,164153
1576860220.040951,104340.333,17607,3,PR,1,100,164258
1576860220.079283,104372.667,17607,3,PR,1,100,164251
1576860220.117615,104405.000,17607,3,PR,1,100,164250
1576860220.162269,104442.667,17625,3,PR,1,100,164280
1576860220.206923,104480.333,17625,3,PR,1,100,164329
1576860220.251578,104518.000,17625,3,PR,1,100,164349
1576860220.292675,104552.667,17643,3,PR,1,100,164356
1576860220.333773,104587.333,17643,3,PR,1,100,164303
1576860220.374871,104622.000,17643,3,PR,1,100,164123
1576860220.415574,104656.333,17660,3,PR,1,100,164062
1576860220.456276,104690.667,17660,3,PR,1,100,164069
1576860220.496979,104725.000,17660,3,PR,1,100,164098
1576860220.534520,104756.667,17678,3,PR,1,100,164116
1576860220.572062,104788.333,17678,3,PR,1,100,164119
1576860220.609603,104820.000,17678,3,PR,1,100,164091
1576860220.647935,104852.333,17696,3,PR,1,100,164157
1576860220.686266,104884.667,17696,3,PR,1,100,164196
1576860220.724598,104917.000,17696,3,PR,1,100,164186
1576860220.765301,104951.333,17713,3,PR,1,100,164278
1576860220.806003,104985.667,17713,3,PR,1,100,164335
1576860220.846706,105020.000,17713,3,PR,1,100,164307
1576860220.888199,105055.000,17731,3,PR,1,100,164336
1576860220.929692,105090.000,17731,3,PR,1,100,164382
1576860220.971185,105125.000,17731,3,PR,1,100,164418
1576860221.012283,105159.667,17749,3,PR,1,100,164436
1576860221.053380,105194.333,17749,3,PR,1,100,164400
1576860221.094478,105229.000,17749,3,PR,1,100,164211
1576860221.131229,105260.000,17767,3,PR,1,100,164090
1576860221.167980,105291.000,17767,3,PR,1,100,164099
1576860221.204731,105322.000,17767,3,PR,1,100,164116
1576860221.244940,105355.917,17785,12,PR,1,100,164133
1576860221.285149,105389.833,17785,12,PR,1,100,164134
1576860221.325357,105423.750,17785,12,PR,1,100,164129
1576860221.365566,105457.667,17785,12,PR,1,100,164136
1576860221.405775,105491.583,17785,12,PR,1,100,164208
1576860221.445983,105525.500,17785,12,PR,1,100,164170
1576860221.486192,105559.417,17785,12,PR,1,100,164235
1576860221.526401,105593.333,17785,12,PR,1,100,164323
1576860221.566609,105627.250,17785,12,PR,1,100,164321
1576860221.606818,105661.167,17785,12,PR,1,100,164328
1576860221.647027,105695.083,17785,12,PR,1,100,164404
1576860221.687236,105729.000,17785,12,PR,1,100,164411
1576860221.726357,105762.000,17804,18,PR,1,100,164430
1576860221.765480,105795.000,17804,18,PR,1,100,164431
1576860221.804601,105828.000,17804,18,PR,1,100,164356
1576860221.843723,105861.000,17804,18,PR,1,100,164145
1576860221.882845,105894.000,17804,18,PR,1,100,164067
1576860221.921967,105927.000,17804,18,PR,1,100,164112
1576860221.961089,105960.000,17804,18,PR,1,100,164109
1576860222.000211,105993.000,17804,18,PR,1,100,164127
1576860222.039333,106026.000,17804,18,PR,1,100,164154
1576860222.078455,106059.000,17804,18,PR,1,100,164169
1576860222.117577,106092.000,17804,18,PR,1,100,164157
1576860222.156699,106125.000,17804,18,PR,1,100,164190
1576860222.195821,106158.000,17804,18,PR,1,100,164231
1576860222.234943,106191.000,17804,18,PR,1,100,164257
1576860222.274065,106224.000,17804,18,PR,1,100,164311
1576860222.313187,106257.000,17804,18,PR,1,100,164356
1576860222.352309,106290.000,17804,18,PR,1,100,164379
1576860222.391431,106323.000,17804,18,PR,1,100,164395
1576860222.430701,106356.125,17822,24,PR,1,100,164433
1576860222.469971,106389.250,17822,24,PR,1,100,164422
1576860222.509242,106422.375,17822,24,PR,1,100,164445
1576860222.548512,106455.500,17822,24,PR,1,100,164336
1576860222.587782,106488.625,17822,24,PR,1,100,164149
1576860222.627052,106521.750,17822,24,PR,1,100,164117
1576860222.666322,106554.875,17822,24,PR,1,100,164127
1576860222.705592,106588.000,17822,24,PR,1,100,164139
1576860222.744862,106621.125,17822,24,PR,1,100,164149
1576860222.784132,106654.250,17822,24,PR,1,100,164139
1576860222.823403,106687.375,17822,24,PR,1,100,164172
1576860222.862673,106720.500,17822,24,PR,1,100,164230
1576860222.901943,106753.625,17822,24,PR,1,100,164201
1576860222.941213,106786.750,17822,24,PR,1,100,164263
1576860222.980483,106819.875,17822,24,PR,1,100,164335
1576860223.019753,106853.000,17822,24,PR,1,100,164339
1576860223.059024,106886.125,17822,24,PR,1,100,164335
1576860223.098294,106919.250,17822,24,PR,1,100,164379
1576860223.137564,106952.375,17822,24,PR,1,100,164409
1576860223.176834,106985.500,17822,24,PR,1,100,164436
1576860223.216104,107018.625,17822,24,PR,1,100,164487
1576860223.255374,107051.750,17822,24,PR,1,100,164423
1576860223.294645,107084.875,17822,24,PR,1,100,164225
1576860223.333915,107118.000,17822,24,PR,1,100,164124
1576860223.374110,107151.905,17844,21,PR,1,100,164146
1576860223.414304,107185.810,17844,21,PR,1,100,164162
1576860223.454499,107219.714,17844,21,PR,1,100,164174
1576860223.494693,107253.619,17844,21,PR,1,100,164227
1576860223.534888,107287.524,17844,21,PR,1,100,164215
1576860223.575082,107321.429,17844,21,PR,1,100,164208
1576860223.615277,107355.333,17844,21,PR,1,100,164223
1576860223.655472,107389.238,17844,21,PR,1,100,164259
1576860223.695666,107423.143,17844,21,PR,1,100,164281
1576860223.735861,107457.048,17844,21,PR,1,100,164290
1576860223.776055,107490.952,17844,21,PR,1,100,164329
1576860223.816250,107524.857,17844,21,PR,1,100,164419
1576860223.856444,107558.762,17844,21,PR,1,100,164394
1576860223.896639,107592.667,17844,21,PR,1,100,164405
1576860223.936834,107626.571,17844,21,PR,1,100,164518
1576860223.977028,107660.476,17844,21,PR,1,100,164450
1576860224.017223,107694.381,17844,21,PR,1,100,164227
1576860224.057417,107728.286,17844,21,PR,1,100,164106
1576860224.097612,107762.190,17844,21,PR,1,100,164122
1576860224.137806,107796.095,17844,21,PR,1,100,164141
1576860224.178001,107830.000,17844,21,PR,1,100,164132
1576860224.219099,107864.667,17864,6,PR,1,100,164173
1576860224.260197,107899.333,17864,6,PR,1,100,164200
1576860224.301295,107934.000,17864,6,PR,1,100,164169
1576860224.342392,107968.667,17864,6,PR,1,100,164206
1576860224.383490,108003.333,17864,6,PR,1,100,164235
1576860224.424588,108038.000,17864,6,PR,1,100,164258
1576860224.462524,108070.000,17883,3,PR,1,100,164286
1576860224.500461,108102.000,17883,3,PR,1,100,164306
1576860224.538397,108134.000,17883,3,PR,1,100,164375
1576860224.577124,108166.667,17901,3,PR,1,100,164388
1576860224.615851,108199.333,17901,3,PR,1,100,164376
1576860224.654578,108232.000,17901,3,PR,1,100,164479
1576860224.694885,108266.000,17920,3,PR,1,100,164458
1576860224.735193,108300.000,17920,3,PR,1,100,164278
1576860224.775500,108334.000,17920,3,PR,1,100,164107
1576860224.816993,108369.000,17938,3,PR,1,100,164113
1576860224.858486,108404.000,17938,3,PR,1,100,164118
1576860224.899979,108439.000,17938,3,PR,1,100,164097
1576860224.940682,108473.333,17956,3,PR,1,100,164134
1576860224.981385,108507.667,17956,3,PR,1,100,164158
1576860225.022087,108542.000,17956,3,PR,1,100,164142
1576860225.060419,108574.333,17974,3,PR,1,100,164167
1576860225.098750,108606.667,17974,3,PR,1,100,164213
1576860225.137082,108639.000,17974,3,PR,1,100,164231
1576860225.174228,108670.333,17991,3,PR,1,100,164258
1576860225.211374,108701.667,17991,3,PR,1,100,164278
1576860225.248520,108733.000,17991,3,PR,1,100,164319
1576860225.288828,108767.000,18009,3,PR,1,100,164377
1576860225.329135,108801.000,18009,3,PR,1,100,164338
1576860225.369443,108835.000,18009,3,PR,1,100,164419
1576860225.410936,108870.000,18027,3,PR,1,100,164474
1576860225.452429,108905.000,18027,3,PR,1,100,164371
1576860225.493922,108940.000,18027,3,PR,1,100,164177
1576860225.536205,108975.667,18043,3,PR,1,100,164094
1576860225.578489,109011.333,18043,3,PR,1,100,164105
1576860225.620772,109047.000,18043,3,PR,1,100,164118
1576860225.658313,109078.667,18062,3,PR,1,100,164122
1576860225.695854,109110.333,18062,3,PR,1,100,164179
1576860225.733396,109142.000,18062,3,PR,1,100,164179
1576860225.774889,109177.000,18080,3,PR,1,100,164169
1576860225.816382,109212.000,18080,3,PR,1,100,164187
1576860225.857875,109247.000,18080,3,PR,1,100,164206
1576860225.893835,109277.333,18098,3,PR,1,100,164237
1576860225.929796,109307.667,18098,3,PR,1,100,164303
1576860225.965757,109338.000,18098,3,PR,1,100,164321
1576860226.008830,109374.333,18116,3,PR,1,100,164323
1576860226.051904,109410.667,18116,3,PR,1,100,164374
1576860226.094978,109447.000,18116,3,PR,1,100,164377
1576860226.132124,109478.333,18134,3,PR,1,100,164419
1576860226.169270,109509.667,18134,3,PR,1,100,164420
1576860226.206416,109541.000,18134,3,PR,1,100,164248
1576860226.245538,109574.000,18152,3,PR,1,100,164107
1576860226.284660,109607.000,18152,3,PR,1,100,164108
1576860226.323782,109640.000,18152,3,PR,1,100,164122
1576860226.361323,109671.667,18169,3,PR,1,100,164126
1576860226.398865,109703.333,18169,3,PR,1,100,164170
1576860226.436406,109735.000,18169,3,PR,1,100,164171
1576860226.476713,109769.000,18187,3,PR,1,100,164175
1576860226.517021,109803.000,18187,3,PR,1,100,164180
1576860226.557328,109837.000,18187,3,PR,1,100,164207
1576860226.598031,109871.333,18205,3,PR,1,100,164238
1576860226.638733,109905.667,18205,3,PR,1,100,164239
1576860226.679436,109940.000,18205,3,PR,1,100,164312
1576860226.720929,109975.000,18222,3,PR,1,100,164366
1576860226.762422,110010.000,18222,3,PR,1,100,164313
1576860226.803915,110045.000,18222,3,PR,1,100,164402
1576860226.844223,110079.000,18240,3,PR,1,100,164463
1576860226.884530,110113.000,18240,3,PR,1,100,164413
1576860226.924838,110147.000,18240,3,PR,1,100,164268
1576860226.965935,110181.667,18258,3,PR,1,100,164097
1576860227.007033,110216.333,18258,3,PR,1,100,164079
1576860227.048131,110251.000,18258,3,PR,1,100,164067
1576860227.086858,110283.667,18276,3,PR,1,100,164075
1576860227.125585,110316.333,18276,3,PR,1,100,164128
1576860227.164311,110349.000,18276,3,PR,1,100,164136
1576860227.205014,110383.333,18294,3,PR,1,100,164111
1576860227.245717,110417.667,18294,3,PR,1,100,164129
1576860227.286419,110452.000,18294,3,PR,1,100,164150
1576860227.327517,110486.667,18312,3,PR,1,100,164162
1576860227.368615,110521.333,18312,3,PR,1,100,164183
1576860227.409713,110556.000,18312,3,PR,1,100,164251
1576860227.450021,110590.000,18330,3,PR,1,100,164269
1576860227.490328,110624.000,18330,3,PR,1,100,164252
1576860227.530635,110658.000,18330,3,PR,1,100,164366
1576860227.568177,110689.667,18347,3,PR,1,100,164391
1576860227.605718,110721.333,18347,3,PR,1,100,164378
1576860227.643259,110753.000,18347,3,PR,1,100,164342
1576860227.682381,110786.000,18366,3,PR,1,100,164174
1576860227.721503,110819.000,18366,3,PR,1,100,164060
1576860227.760625,110852.000,18366,3,PR,1,100,164039
1576860227.801328,110886.333,18384,3,PR,1,100,164064
1576860227.842031,110920.667,18384,3,PR,1,100,164082
1576860227.882733,110955.000,18384,3,PR,1,100,164090
1576860227.923831,110989.667,18400,3,PR,1,100,164106
1576860227.964929,111024.333,18400,3,PR,1,100,164102
1576860228.006027,111059.000,18400,3,PR,1,100,164107
1576860228.047520,111094.000,18418,3,PR,1,100,164133
1576860228.089013,111129.000,18418,3,PR,1,100,164163
1576860228.130506,111164.000,18418,3,PR,1,100,164233
1576860228.167652,111195.333,18436,3,PR,1,100,164274
1576860228.204798,111226.667,18436,3,PR,1,100,164236
1576860228.241944,111258.000,18436,3,PR,1,100,164331
1576860228.280671,111290.667,18454,3,PR,1,100,164351
1576860228.319398,111323.333,18454,3,PR,1,100,164350
1576860228.358124,111356.000,18454,3,PR,1,100,164367
1576860228.398827,111390.333,18472,3,PR,1,100,164335
1576860228.439530,111424.667,18472,3,PR,1,100,164120
1576860228.480232,111459.000,18472,3,PR,1,100,164028
1576860228.521330,111493.667,18490,3,PR,1,100,164070
1576860228.562428,111528.333,18490,3,PR,1,100,164101
1576860228.603526,111563.000,18490,3,PR,1,100,164106
1576860228.645414,111598.333,18509,3,PR,1,100,164127
1576860228.687302,111633.667,18509,3,PR,1,100,164141
1576860228.729190,111669.000,18509,3,PR,1,100,164129
1576860228.766336,111700.333,18526,3,PR,1,100,164131
1576860228.803483,111731.667,18526,3,PR,1,100,164154
1576860228.840629,111763.000,18526,3,PR,1,100,164233
1576860228.877775,111794.333,18544,3,PR,1,100,164274
1576860228.914921,111825.667,18544,3,PR,1,100,164231
1576860228.952067,111857.000,18544,3,PR,1,100,164332
1576860228.991979,111890.667,18562,3,PR,1,100,164355
1576860229.031892,111924.333,18562,3,PR,1,100,164361
1576860229.071804,111958.000,18562,3,PR,1,100,164374
1576860229.112902,111992.667,18578,3,PR,1,100,164373
1576860229.154000,112027.333,18578,3,PR,1,100,164203
1576860229.195097,112062.000,18578,3,PR,1,100,164089
1576860229.235800,112096.333,18596,3,PR,1,100,164085
1576860229.276503,112130.667,18596,3,PR,1,100,164065
1576860229.317205,112165.000,18596,3,PR,1,100,164065
1576860229.359094,112200.333,18614,3,PR,1,100,164105
1576860229.400982,112235.667,18614,3,PR,1,100,164114
1576860229.442870,112271.000,18614,3,PR,1,100,164106
1576860229.485153,112306.667,18632,3,PR,1,100,164125
1576860229.527437,112342.333,18632,3,PR,1,100,164167
1576860229.569720,112378.000,18632,3,PR,1,100,164214
1576860229.610818,112412.667,18650,3,PR,1,100,164223
1576860229.651916,112447.333,18650,3,PR,1,100,164261
1576860229.693013,112482.000,18650,3,PR,1,100,164267
1576860229.731345,112514.333,18669,3,PR,1,100,164313
1576860229.769677,112546.667,18669,3,PR,1,100,164358
1576860229.808008,112579.000,18669,3,PR,1,100,164358
1576860229.853058,112617.000,18686,3,PR,1,100,164386
1576860229.898108,112655.000,18686,3,PR,1,100,164304
1576860229.943157,112693.000,18686,3,PR,1,100,164083
1576860229.981093,112725.000,18704,3,PR,1,100,164039
1576860230.019030,112757.000,18704,3,PR,1,100,164036
1576860230.056966,112789.000,18704,3,PR,1,100,164025
1576860230.097511,112823.200,18723,5,PR,1,100,164046
1576860230.138056,112857.400,18723,5,PR,1,100,164059
1576860230.178600,112891.600,18723,5,PR,1,100,164051
1576860230.219145,112925.800,18723,5,PR,1,100,164059
1576860230.259689,112960.000,18723,5,PR,1,100,164091
1576860230.297230,112991.667,18741,3,PR,1,100,164111
1576860230.334772,113023.333,18741,3,PR,1,100,164143
1576860230.372313,113055.000,18741,3,PR,1,100,164171
1576860230.411435,113088.000,18761,3,PR,1,100,164170
1576860230.450557,113121.000,18761,3,PR,1,100,164189
1576860230.489679,113154.000,18761,3,PR,1,100,164207
1576860230.530777,113188.667,18779,3,PR,1,100,164301
1576860230.571875,113223.333,18779,3,PR,1,100,164282
1576860230.612972,113258.000,18779,3,PR,1,100,164282
1576860230.654070,113292.667,18797,3,PR,1,100,164208
1576860230.695168,113327.333,18797,3,PR,1,100,164010
1576860230.736266,113362.000,18797,3,PR,1,100,163965
1576860230.784279,113402.500,18815,2,PR,1,100,163980
1576860230.832293,113443.000,18815,2,PR,1,100,163999
1576860230.869636,113474.500,18831,4,PR,1,100,164010
1576860230.906980,113506.000,18831,4,PR,1,100,164014
1576860230.944324,113537.500,18831,4,PR,1,100,164036
1576860230.981668,113569.000,18831,4,PR,1,100,164047
1576860231.020394,113601.667,18849,3,PR,1,100,164055
1576860231.059121,113634.333,18849,3,PR,1,100,164102
1576860231.097848,113667.000,18849,3,PR,1,100,164139
1576860231.138946,113701.667,18867,3,PR,1,100,164160
1576860231.180043,113736.333,18867,3,PR,1,100,164160
1576860231.221141,113771.000,18867,3,PR,1,100,164232
1576860231.261449,113805.000,18885,2,PR,1,100,164281
1576860231.301756,113839.000,18885,2,PR,1,100,164271
1576860231.343249,113874.000,18903,3,PR,1,100,164334
1576860231.384742,113909.000,18903,3,PR,1,100,164353
1576860231.426235,113944.000,18903,3,PR,1,100,164131
1576860231.464468,113976.250,18921,4,PR,1,100,163982
1576860231.502701,114008.500,18921,4,PR,1,100,164007
1576860231.540934,114040.750,18921,4,PR,1,100,164022
1576860231.579167,114073.000,18921,4,PR,1,100,164028
1576860231.617498,114105.333,18939,3,PR,1,100,164064
1576860231.655830,114137.667,18939,3,PR,1,100,164076
1576860231.694162,114170.000,18939,3,PR,1,100,164067
1576860231.734864,114204.333,18958,3,PR,1,100,164085
1576860231.775567,114238.667,18958,3,PR,1,100,164119
1576860231.816270,114273.000,18958,3,PR,1,100,164145
1576860231.857763,114308.000,18975,3,PR,1,100,164185
1576860231.899256,114343.000,18975,3,PR,1,100,164202
1576860231.940748,114378.000,18975,3,PR,1,100,164234
1576860231.981056,114412.000,18993,2,PR,1,100,164318
1576860232.021363,114446.000,18993,2,PR,1,100,164241
1576860232.060189,114478.750,19009,4,PR,1,100,164312
1576860232.099015,114511.500,19009,4,PR,1,100,164387
1576860232.137840,114544.250,19009,4,PR,1,100,164325
1576860232.176666,114577.000,19009,4,PR,1,100,164119
1576860232.214602,114609.000,19027,3,PR,1,100,164041
1576860232.252539,114641.000,19027,3,PR,1,100,164035
1576860232.290475,114673.000,19027,3,PR,1,100,164057
1576860232.331178,114707.333,19045,3,PR,1,100,164061
1576860232.371881,114741.667,19045,3,PR,1,100,164122
1576860232.412583,114776.000,19045,3,PR,1,100,164106
1576860232.453681,114810.667,19063,3,PR,1,100,164113
1576860232.494779,114845.333,19063,3,PR,1,100,164135
1576860232.535877,114880.000,19063,3,PR,1,100,164168
1576860232.576975,114914.667,19081,3,PR,1,100,164190
1576860232.618072,114949.333,19081,3,PR,1,100,164210
1576860232.659170,114984.000,19081,3,PR,1,100,164222
1576860232.697107,115016.000,19100,3,PR,1,100,164315
1576860232.735043,115048.000,19100,3,PR,1,100,164273
1576860232.772979,115080.000,19100,3,PR,1,100,164325
1576860232.812102,115113.000,19118,3,PR,1,100,164394
1576860232.851223,115146.000,19118,3,PR,1,100,164365
1576860232.890346,115179.000,19118,3,PR,1,100,164244
1576860232.928677,115211.333,19136,3,PR,1,100,164100
1576860232.967009,115243.667,19136,3,PR,1,100,164080
1576860233.005340,115276.000,19136,3,PR,1,100,164115
1576860233.045648,115310.000,19153,3,PR,1,100,164136
1576860233.085955,115344.000,19153,3,PR,1,100,164137
1576860233.126263,115378.000,19153,3,PR,1,100,164133
1576860233.160643,115407.000,19171,3,PR,1,100,164154
1576860233.195023,115436.000,19171,3,PR,1,100,164143
1576860233.229403,115465.000,19171,3,PR,1,100,164226
1576860233.272476,115501.333,19189,3,PR,1,100,164271
1576860233.315550,115537.667,19189,3,PR,1,100,164255
1576860233.358624,115574.000,19189,3,PR,1,100,164288
1576860233.399721,115608.667,19207,3,PR,1,100,164321
1576860233.440819,115643.333,19207,3,PR,1,100,164356
1576860233.481917,115678.000,19207,3,PR,1,100,164354
1576860233.519854,115710.000,19223,3,PR,1,100,164426
1576860233.557790,115742.000,19223,3,PR,1,100,164432
1576860233.595726,115774.000,19223,3,PR,1,100,164314
1576860233.640776,115812.000,19242,3,PR,1,100,164124
1576860233.685826,115850.000,19242,3,PR,1,100,164062
1576860233.730875,115888.000,19242,3,PR,1,100,164064
1576860233.768021,115919.333,19260,3,PR,1,100,164110
1576860233.805167,115950.667,19260,3,PR,1,100,164107
1576860233.842314,115982.000,19260,3,PR,1,100,164110
1576860233.883806,116017.000,19278,3,PR,1,100,164136
1576860233.925299,116052.000,19278,3,PR,1,100,164150
1576860233.966792,116087.000,19278,3,PR,1,100,164154
1576860234.007890,116121.667,19296,3,PR,1,100,164204
1576860234.048988,116156.333,19296,3,PR,1,100,164268
1576860234.090086,116191.000,19296,3,PR,1,100,164281
1576860234.129603,116224.333,19313,3,PR,1,100,164310
1576860234.169120,116257.667,19313,3,PR,1,100,164327
1576860234.208637,116291.000,19313,3,PR,1,100,164325
1576860234.247364,116323.667,19331,3,PR,1,100,164349
1576860234.286091,116356.333,19331,3,PR,1,100,164348
1576860234.324818,116389.000,19331,3,PR,1,100,164344
1576860234.363544,116421.667,19349,3,PR,1,100,164103
1576860234.402271,116454.333,19349,3,PR,1,100,163999
1576860234.440998,116487.000,19349,3,PR,1,100,164075
1576860234.482096,116521.667,19367,3,PR,1,100,164032
1576860234.523194,116556.333,19367,3,PR,1,100,164018
1576860234.564292,116591.000,19367,3,PR,1,100,164056
1576860234.610527,116630.000,19383,2,PR,1,100,164083
1576860234.656762,116669.000,19383,2,PR,1,100,164084
1576860234.697860,116703.667,19402,3,PR,1,100,164080
1576860234.738957,116738.333,19402,3,PR,1,100,164146
1576860234.780055,116773.000,19402,3,PR,1,100,164196
1576860234.817992,116805.000,19420,4,PR,1,100,164209
1576860234.855928,116837.000,19420,4,PR,1,100,164247
1576860234.893865,116869.000,19420,4,PR,1,100,164272
1576860234.931801,116901.000,19420,4,PR,1,100,164287
1576860234.970528,116933.667,19438,3,PR,1,100,164296
1576860235.009255,116966.333,19438,3,PR,1,100,164365
1576860235.047982,116999.000,19438,3,PR,1,100,164379
1576860235.088289,117033.000,19456,3,PR,1,100,164178
1576860235.128597,117067.000,19456,3,PR,1,100,164039
1576860235.168904,117101.000,19456,3,PR,1,100,164074
1576860235.210397,117136.000,19474,3,PR,1,100,164014
1576860235.251890,117171.000,19474,3,PR,1,100,164014
1576860235.293383,117206.000,19474,3,PR,1,100,164056
1576860235.334876,117241.000,19492,2,PR,1,100,164086
1576860235.376369,117276.000,19492,2,PR,1,100,164081
1576860235.414602,117308.250,19509,4,PR,1,100,164083
1576860235.452835,117340.500,19509,4,PR,1,100,164109
1576860235.491067,117372.750,19509,4,PR,1,100,164138
1576860235.529300,117405.000,19509,4,PR,1,100,164180
1576860235.568027,117437.667,19527,3,PR,1,100,164204
1576860235.606754,117470.333,19527,3,PR,1,100,164232
1576860235.645481,117503.000,19527,3,PR,1,100,164232
1576860235.685788,117537.000,19546,3,PR,1,100,164248
1576860235.726096,117571.000,19546,3,PR,1,100,164272
1576860235.766403,117605.000,19546,3,PR,1,100,164337
1576860235.808291,117640.333,19562,3,PR,1,100,164138
1576860235.850179,117675.667,19562,3,PR,1,100,163998
1576860235.892068,117711.000,19562,3,PR,1,100,164014
1576860235.933561,117746.000,19580,2,PR,1,100,163998
1576860235.975054,117781.000,19580,2,PR,1,100,164010
1576860236.013879,117813.750,19598,4,PR,1,100,164087
1576860236.052705,117846.500,19598,4,PR,1,100,164067
1576860236.091530,117879.250,19598,4,PR,1,100,164067
1576860236.130356,117912.000,19598,4,PR,1,100,164050
1576860236.167996,117943.750,19619,4,PR,1,100,164101
1576860236.205636,117975.500,19619,4,PR,1,100,164131
1576860236.243276,118007.250,19619,4,PR,1,100,164190
1576860236.280916,118039.000,19619,4,PR,1,100,164225
1576860236.322014,118073.667,19639,3,PR,1,100,164244
1576860236.363112,118108.333,19639,3,PR,1,100,164259
1576860236.404210,118143.000,19639,3,PR,1,100,164281
1576860236.445308,118177.667,19655,3,PR,1,100,164274
1576860236.486405,118212.333,19655,3,PR,1,100,164374
1576860236.527503,118247.000,19655,3,PR,1,100,164231
1576860236.568206,118281.333,19673,3,PR,1,100,164030
1576860236.608909,118315.667,19673,3,PR,1,100,164037
1576860236.649611,118350.000,19673,3,PR,1,100,163994
1576860236.689128,118383.333,19692,3,PR,1,100,163982
1576860236.728646,118416.667,19692,3,PR,1,100,164012
1576860236.768163,118450.000,19692,3,PR,1,100,164060
1576860236.808470,118484.000,19710,3,PR,1,100,164057
1576860236.848778,118518.000,19710,3,PR,1,100,164114
