EpochTimestamp,EmotiBitTimestamp,PacketNumber,DataLength,TypeTag,ProtocolVersion,DataReliability,AX
1574944569.053217,25054.000,3869,10,AX,1,100,-0.417
1574944569.053217,25054.000,3869,10,AX,1,100,-0.418
1574944569.053217,25054.000,3869,10,AX,1,100,-0.420
1574944569.053217,25054.000,3869,10,AX,1,100,-0.423
1574944569.053217,25054.000,3869,10,AX,1,100,-0.417
1574944569.053217,25054.000,3869,10,AX,1,100,-0.419
1574944569.053217,25054.000,3869,10,AX,1,100,-0.421
1574944569.053217,25054.000,3869,10,AX,1,100,-0.420
1574944569.053217,25054.000,3869,10,AX,1,100,-0.420
1574944569.053217,25054.000,3869,10,AX,1,100,-0.419
1574944569.095428,25089.500,3887,2,AX,1,100,-0.420
1574944569.137640,25125.000,3887,2,AX,1,100,-0.419
1574944569.177671,25158.667,3903,3,AX,1,100,-0.423
1574944569.217703,25192.333,3903,3,AX,1,100,-0.418
1574944569.257735,25226.000,3903,3,AX,1,100,-0.418
1574944569.298955,25260.667,3921,3,AX,1,100,-0.413
1574944569.340176,25295.333,3921,3,AX,1,100,-0.414
1574944569.381397,25330.000,3921,3,AX,1,100,-0.416
1574944569.422617,25364.667,3939,3,AX,1,100,-0.421
1574944569.463838,25399.333,3939,3,AX,1,100,-0.420
1574944569.505059,25434.000,3939,3,AX,1,100,-0.421
1574944569.545090,25467.667,3957,3,AX,1,100,-0.417
1574944569.585122,25501.333,3957,3,AX,1,100,-0.418
1574944569.625154,25535.000,3957,3,AX,1,100,-0.414
1574944569.662807,25566.667,3975,3,AX,1,100,-0.409
1574944569.700460,25598.333,3975,3,AX,1,100,-0.414
1574944569.738114,25630.000,3975,3,AX,1,100,-0.419
1574944569.777749,25663.333,3994,3,AX,1,100,-0.420
1574944569.817384,25696.667,3994,3,AX,1,100,-0.415
1574944569.857020,25730.000,3994,3,AX,1,100,-0.417
1574944569.902204,25768.000,4012,3,AX,1,100,-0.418
1574944569.947388,25806.000,4012,3,AX,1,100,-0.411
1574944569.992572,25844.000,4012,3,AX,1,100,-0.415
1574944570.033793,25878.667,4029,3,AX,1,100,-0.415
1574944570.075014,25913.333,4029,3,AX,1,100,-0.411
1574944570.116234,25948.000,4029,3,AX,1,100,-0.414
1574944570.155473,25981.000,4047,3,AX,1,100,-0.413
1574944570.194712,26014.000,4047,3,AX,1,100,-0.410
1574944570.233951,26047.000,4047,3,AX,1,100,-0.414
1574944570.272397,26079.333,4065,3,AX,1,100,-0.409
1574944570.310843,26111.667,4065,3,AX,1,100,-0.408
1574944570.349290,26144.000,4065,3,AX,1,100,-0.409
1574944570.388132,26176.667,4083,3,AX,1,100,-0.415
1574944570.426975,26209.333,4083,3,AX,1,100,-0.404
1574944570.465817,26242.000,4083,3,AX,1,100,-0.399
1574944570.507038,26276.667,4099,3,AX,1,100,-0.408
1574944570.548259,26311.333,4099,3,AX,1,100,-0.406
1574944570.589479,26346.000,4099,3,AX,1,100,-0.403
1574944570.630304,26380.333,4117,3,AX,1,100,-0.404
1574944570.671128,26414.667,4117,3,AX,1,100,-0.405
1574944570.711952,26449.000,4117,3,AX,1,100,-0.395
1574944570.755551,26485.667,4136,3,AX,1,100,-0.405
1574944570.799150,26522.333,4136,3,AX,1,100,-0.402
1574944570.842748,26559.000,4136,3,AX,1,100,-0.393
1574944570.881195,26591.333,4154,3,AX,1,100,-0.398
1574944570.919641,26623.667,4154,3,AX,1,100,-0.400
1574944570.958087,26656.000,4154,3,AX,1,100,-0.396
1574944570.996930,26688.667,4172,3,AX,1,100,-0.401
1574944571.035772,26721.333,4172,3,AX,1,100,-0.403
1574944571.074615,26754.000,4172,3,AX,1,100,-0.391
1574944571.115439,26788.333,4190,3,AX,1,100,-0.430
1574944571.156263,26822.667,4190,3,AX,1,100,-0.475
1574944571.197088,26857.000,4190,3,AX,1,100,-0.395
1574944571.238308,26891.667,4208,3,AX,1,100,-0.394
1574944571.279529,26926.333,4208,3,AX,1,100,-0.392
1574944571.320750,26961.000,4208,3,AX,1,100,-0.362
1574944571.362367,26996.000,4225,3,AX,1,100,-0.405
1574944571.403984,27031.000,4225,3,AX,1,100,-0.377
1574944571.445601,27066.000,4225,3,AX,1,100,-0.403
1574944571.484047,27098.333,4243,3,AX,1,100,-0.403
1574944571.522493,27130.667,4243,3,AX,1,100,-0.376
1574944571.560939,27163.000,4243,3,AX,1,100,-0.384
1574944571.603349,27198.667,4260,3,AX,1,100,-0.406
1574944571.645759,27234.333,4260,3,AX,1,100,-0.395
1574944571.688169,27270.000,4260,3,AX,1,100,-0.397
1574944571.723840,27300.000,4278,2,AX,1,100,-0.403
1574944571.759512,27330.000,4278,2,AX,1,100,-0.395
1574944571.804300,27367.667,4296,3,AX,1,100,-0.396
1574944571.849087,27405.333,4296,3,AX,1,100,-0.398
1574944571.893875,27443.000,4296,3,AX,1,100,-0.397
1574944571.934700,27477.333,4314,3,AX,1,100,-0.400
1574944571.975524,27511.667,4314,3,AX,1,100,-0.400
1574944572.016348,27546.000,4314,3,AX,1,100,-0.402
1574944572.054101,27577.750,4332,4,AX,1,100,-0.406
1574944572.091853,27609.500,4332,4,AX,1,100,-0.402
1574944572.129606,27641.250,4332,4,AX,1,100,-0.405
1574944572.167359,27673.000,4332,4,AX,1,100,-0.411
1574944572.206201,27705.667,4350,3,AX,1,100,-0.417
1574944572.245044,27738.333,4350,3,AX,1,100,-0.416
1574944572.283886,27771.000,4350,3,AX,1,100,-0.409
1574944572.323522,27804.333,4368,3,AX,1,100,-0.423
1574944572.363157,27837.667,4368,3,AX,1,100,-0.420
1574944572.402792,27871.000,4368,3,AX,1,100,-0.414
1574944572.449760,27910.500,4386,2,AX,1,100,-0.458
1574944572.496727,27950.000,4386,2,AX,1,100,-0.435
1574944572.538345,27985.000,4403,3,AX,1,100,-0.401
1574944572.579962,28020.000,4403,3,AX,1,100,-0.400
1574944572.621579,28055.000,4403,3,AX,1,100,-0.439
1574944572.660421,28087.667,4421,3,AX,1,100,-0.452
1574944572.699264,28120.333,4421,3,AX,1,100,-0.460
1574944572.738106,28153.000,4421,3,AX,1,100,-0.480
1574944572.775562,28184.500,4440,4,AX,1,100,-0.460
1574944572.813017,28216.000,4440,4,AX,1,100,-0.436
1574944572.850472,28247.500,4440,4,AX,1,100,-0.499
1574944572.887928,28279.000,4440,4,AX,1,100,-0.509
1574944572.929544,28314.000,4456,2,AX,1,100,-0.501
1574944572.971162,28349.000,4456,2,AX,1,100,-0.569
1574944573.012382,28383.667,4474,3,AX,1,100,-0.610
1574944573.053603,28418.333,4474,3,AX,1,100,-0.625
1574944573.094824,28453.000,4474,3,AX,1,100,-0.647
1574944573.136441,28488.000,4492,3,AX,1,100,-0.636
1574944573.178058,28523.000,4492,3,AX,1,100,-0.646
1574944573.219675,28558.000,4492,3,AX,1,100,-0.667
1574944573.262481,28594.000,4510,3,AX,1,100,-0.695
1574944573.305287,28630.000,4510,3,AX,1,100,-0.722
1574944573.348093,28666.000,4510,3,AX,1,100,-0.762
1574944573.384953,28697.000,4528,3,AX,1,100,-0.795
1574944573.421814,28728.000,4528,3,AX,1,100,-0.805
1574944573.458675,28759.000,4528,3,AX,1,100,-0.825
1574944573.498310,28792.333,4546,3,AX,1,100,-0.840
1574944573.537946,28825.667,4546,3,AX,1,100,-0.758
1574944573.577581,28859.000,4546,3,AX,1,100,-0.613
1574944573.618009,28893.000,4564,3,AX,1,100,-0.572
1574944573.658437,28927.000,4564,3,AX,1,100,-1.100
1574944573.698865,28961.000,4564,3,AX,1,100,-1.131
1574944573.739689,28995.333,4582,3,AX,1,100,-0.975
1574944573.780513,29029.667,4582,3,AX,1,100,-0.990
1574944573.821338,29064.000,4582,3,AX,1,100,-0.808
1574944573.862558,29098.667,4600,3,AX,1,100,-0.896
1574944573.903779,29133.333,4600,3,AX,1,100,-0.856
1574944573.945000,29168.000,4600,3,AX,1,100,-0.864
1574944573.981860,29199.000,4618,3,AX,1,100,-0.787
1574944574.018721,29230.000,4618,3,AX,1,100,-0.548
1574944574.055582,29261.000,4618,3,AX,1,100,-0.776
1574944574.098388,29297.000,4636,3,AX,1,100,-0.946
1574944574.141194,29333.000,4636,3,AX,1,100,-0.738
1574944574.184000,29369.000,4636,3,AX,1,100,-0.941
1574944574.224825,29403.333,4652,3,AX,1,100,-0.762
1574944574.265649,29437.667,4652,3,AX,1,100,-0.832
1574944574.306473,29472.000,4652,3,AX,1,100,-0.859
1574944574.347694,29506.667,4670,3,AX,1,100,-0.845
1574944574.388915,29541.333,4670,3,AX,1,100,-0.832
1574944574.430135,29576.000,4670,3,AX,1,100,-0.647
1574944574.471356,29610.667,4688,3,AX,1,100,-1.017
1574944574.512577,29645.333,4688,3,AX,1,100,-1.134
1574944574.553797,29680.000,4688,3,AX,1,100,-0.786
1574944574.591451,29711.667,4706,3,AX,1,100,-0.889
1574944574.629104,29743.333,4706,3,AX,1,100,-0.874
1574944574.666758,29775.000,4706,3,AX,1,100,-0.738
1574944574.705204,29807.333,4725,3,AX,1,100,-0.761
1574944574.743650,29839.667,4725,3,AX,1,100,-0.792
1574944574.782096,29872.000,4725,3,AX,1,100,-0.752
1574944574.822921,29906.333,4743,3,AX,1,100,-0.768
1574944574.863745,29940.667,4743,3,AX,1,100,-0.773
1574944574.904569,29975.000,4743,3,AX,1,100,-0.752
1574944574.947851,30011.400,4764,5,AX,1,100,-0.785
1574944574.991132,30047.800,4764,5,AX,1,100,-0.786
1574944575.034414,30084.200,4764,5,AX,1,100,-0.799
1574944575.077696,30120.600,4764,5,AX,1,100,-0.762
1574944575.120978,30157.000,4764,5,AX,1,100,-0.691
1574944575.162000,30191.500,4784,2,AX,1,100,-0.681
1574944575.203023,30226.000,4784,2,AX,1,100,-0.686
1574944575.240775,30257.750,4802,4,AX,1,100,-0.682
1574944575.278528,30289.500,4802,4,AX,1,100,-0.705
1574944575.316280,30321.250,4802,4,AX,1,100,-0.682
1574944575.354033,30353.000,4802,4,AX,1,100,-0.676
1574944575.394064,30386.667,4820,3,AX,1,100,-0.659
1574944575.434096,30420.333,4820,3,AX,1,100,-0.699
1574944575.474128,30454.000,4820,3,AX,1,100,-0.720
1574944575.514556,30488.000,4838,3,AX,1,100,-0.666
1574944575.554984,30522.000,4838,3,AX,1,100,-0.663
1574944575.595412,30556.000,4838,3,AX,1,100,-0.668
1574944575.636236,30590.333,4856,3,AX,1,100,-0.650
1574944575.677060,30624.667,4856,3,AX,1,100,-0.666
1574944575.717885,30659.000,4856,3,AX,1,100,-0.641
1574944575.758312,30693.000,4874,3,AX,1,100,-0.637
1574944575.798740,30727.000,4874,3,AX,1,100,-0.620
1574944575.839168,30761.000,4874,3,AX,1,100,-0.616
1574944575.882569,30797.500,4892,2,AX,1,100,-0.615
1574944575.925970,30834.000,4892,2,AX,1,100,-0.611
1574944575.965506,30867.250,4910,4,AX,1,100,-0.604
1574944576.005042,30900.500,4910,4,AX,1,100,-0.607
1574944576.044578,30933.750,4910,4,AX,1,100,-0.610
1574944576.084114,30967.000,4910,4,AX,1,100,-0.603
1574944576.125731,31002.000,4926,2,AX,1,100,-0.605
1574944576.167348,31037.000,4926,2,AX,1,100,-0.590
1574944576.208569,31071.667,4944,3,AX,1,100,-0.582
1574944576.249790,31106.333,4944,3,AX,1,100,-0.582
1574944576.291010,31141.000,4944,3,AX,1,100,-0.589
1574944576.332627,31176.000,4962,3,AX,1,100,-0.596
1574944576.374244,31211.000,4962,3,AX,1,100,-0.603
1574944576.415861,31246.000,4962,3,AX,1,100,-0.597
1574944576.453515,31277.667,4980,3,AX,1,100,-0.585
1574944576.491168,31309.333,4980,3,AX,1,100,-0.578
1574944576.528822,31341.000,4980,3,AX,1,100,-0.582
1574944576.567664,31373.667,4998,3,AX,1,100,-0.582
1574944576.606507,31406.333,4998,3,AX,1,100,-0.585
1574944576.645350,31439.000,4998,3,AX,1,100,-0.587
1574944576.690137,31476.667,5017,3,AX,1,100,-0.576
1574944576.734925,31514.333,5017,3,AX,1,100,-0.579
1574944576.779713,31552.000,5017,3,AX,1,100,-0.576
1574944576.820934,31586.667,5035,3,AX,1,100,-0.568
1574944576.862154,31621.333,5035,3,AX,1,100,-0.564
1574944576.903375,31656.000,5035,3,AX,1,100,-0.566
1574944576.944199,31690.333,5052,3,AX,1,100,-0.572
1574944576.985023,31724.667,5052,3,AX,1,100,-0.575
1574944577.025848,31759.000,5052,3,AX,1,100,-0.578
1574944577.063898,31791.000,5070,3,AX,1,100,-0.573
1574944577.101948,31823.000,5070,3,AX,1,100,-0.563
1574944577.139997,31855.000,5070,3,AX,1,100,-0.566
1574944577.176858,31886.000,5088,3,AX,1,100,-0.568
1574944577.213719,31917.000,5088,3,AX,1,100,-0.565
1574944577.250580,31948.000,5088,3,AX,1,100,-0.568
1574944577.292197,31983.000,5104,3,AX,1,100,-0.572
1574944577.333814,32018.000,5104,3,AX,1,100,-0.574
1574944577.375431,32053.000,5104,3,AX,1,100,-0.565
1574944577.416651,32087.667,5122,3,AX,1,100,-0.569
1574944577.457872,32122.333,5122,3,AX,1,100,-0.565
1574944577.499093,32157.000,5122,3,AX,1,100,-0.563
1574944577.544277,32195.000,5140,3,AX,1,100,-0.560
1574944577.589461,32233.000,5140,3,AX,1,100,-0.564
1574944577.634645,32271.000,5140,3,AX,1,100,-0.564
1574944577.674281,32304.333,5159,3,AX,1,100,-0.574
1574944577.713916,32337.667,5159,3,AX,1,100,-0.570
1574944577.753551,32371.000,5159,3,AX,1,100,-0.561
1574944577.791205,32402.667,5177,3,AX,1,100,-0.569
1574944577.828858,32434.333,5177,3,AX,1,100,-0.558
1574944577.866512,32466.000,5177,3,AX,1,100,-0.564
1574944577.906147,32499.333,5195,3,AX,1,100,-0.565
1574944577.945782,32532.667,5195,3,AX,1,100,-0.561
1574944577.985417,32566.000,5195,3,AX,1,100,-0.560
1574944578.027034,32601.000,5213,3,AX,1,100,-0.561
1574944578.068651,32636.000,5213,3,AX,1,100,-0.551
1574944578.110268,32671.000,5213,3,AX,1,100,-0.557
1574944578.151886,32706.000,5230,3,AX,1,100,-0.556
1574944578.193502,32741.000,5230,3,AX,1,100,-0.559
1574944578.235119,32776.000,5230,3,AX,1,100,-0.564
1574944578.275548,32810.000,5248,3,AX,1,100,-0.564
1574944578.315975,32844.000,5248,3,AX,1,100,-0.559
1574944578.356403,32878.000,5248,3,AX,1,100,-0.554
1574944578.397624,32912.667,5266,3,AX,1,100,-0.555
1574944578.438845,32947.333,5266,3,AX,1,100,-0.553
1574944578.480065,32982.000,5266,3,AX,1,100,-0.558
1574944578.518908,33014.667,5282,3,AX,1,100,-0.559
1574944578.557750,33047.333,5282,3,AX,1,100,-0.568
1574944578.596593,33080.000,5282,3,AX,1,100,-0.565
1574944578.636625,33113.667,5300,3,AX,1,100,-0.556
1574944578.676656,33147.333,5300,3,AX,1,100,-0.560
1574944578.716688,33181.000,5300,3,AX,1,100,-0.553
1574944578.757908,33215.667,5319,3,AX,1,100,-0.555
1574944578.799129,33250.333,5319,3,AX,1,100,-0.555
1574944578.840350,33285.000,5319,3,AX,1,100,-0.554
1574944578.879985,33318.333,5337,3,AX,1,100,-0.565
1574944578.919620,33351.667,5337,3,AX,1,100,-0.557
1574944578.959255,33385.000,5337,3,AX,1,100,-0.553
1574944578.997702,33417.333,5355,3,AX,1,100,-0.555
1574944579.036148,33449.667,5355,3,AX,1,100,-0.554
1574944579.074594,33482.000,5355,3,AX,1,100,-0.550
1574944579.113040,33514.333,5373,3,AX,1,100,-0.548
1574944579.151486,33546.667,5373,3,AX,1,100,-0.556
1574944579.189933,33579.000,5373,3,AX,1,100,-0.546
1574944579.235117,33617.000,5391,3,AX,1,100,-0.554
1574944579.280301,33655.000,5391,3,AX,1,100,-0.554
1574944579.325485,33693.000,5391,3,AX,1,100,-0.552
1574944579.366508,33727.500,5408,2,AX,1,100,-0.550
1574944579.407530,33762.000,5408,2,AX,1,100,-0.545
1574944579.449147,33797.000,5426,3,AX,1,100,-0.538
1574944579.490764,33832.000,5426,3,AX,1,100,-0.539
1574944579.532381,33867.000,5426,3,AX,1,100,-0.542
1574944579.570134,33898.750,5444,4,AX,1,100,-0.552
1574944579.607886,33930.500,5444,4,AX,1,100,-0.545
1574944579.645639,33962.250,5444,4,AX,1,100,-0.546
1574944579.683392,33994.000,5444,4,AX,1,100,-0.542
1574944579.722631,34027.000,5463,3,AX,1,100,-0.536
1574944579.761869,34060.000,5463,3,AX,1,100,-0.546
1574944579.801108,34093.000,5463,3,AX,1,100,-0.544
1574944579.841933,34127.333,5479,3,AX,1,100,-0.535
1574944579.882757,34161.667,5479,3,AX,1,100,-0.544
1574944579.923581,34196.000,5479,3,AX,1,100,-0.536
1574944579.964604,34230.500,5497,2,AX,1,100,-0.545
1574944580.005626,34265.000,5497,2,AX,1,100,-0.548
1574944580.050810,34303.000,5515,3,AX,1,100,-0.549
1574944580.095994,34341.000,5515,3,AX,1,100,-0.543
1574944580.141179,34379.000,5515,3,AX,1,100,-0.543
1574944580.178832,34410.667,5533,3,AX,1,100,-0.549
1574944580.216486,34442.333,5533,3,AX,1,100,-0.543
1574944580.254139,34474.000,5533,3,AX,1,100,-0.545
1574944580.292783,34506.500,5551,4,AX,1,100,-0.542
1574944580.331428,34539.000,5551,4,AX,1,100,-0.544
1574944580.370072,34571.500,5551,4,AX,1,100,-0.544
1574944580.408717,34604.000,5551,4,AX,1,100,-0.548
1574944580.449739,34638.500,5569,2,AX,1,100,-0.543
1574944580.490762,34673.000,5569,2,AX,1,100,-0.549
1574944580.531982,34707.667,5587,3,AX,1,100,-0.546
1574944580.573203,34742.333,5587,3,AX,1,100,-0.542
1574944580.614424,34777.000,5587,3,AX,1,100,-0.537
1574944580.655644,34811.667,5605,3,AX,1,100,-0.542
1574944580.696865,34846.333,5605,3,AX,1,100,-0.538
1574944580.738086,34881.000,5605,3,AX,1,100,-0.542
1574944580.776135,34913.000,5623,3,AX,1,100,-0.543
1574944580.814185,34945.000,5623,3,AX,1,100,-0.551
1574944580.852235,34977.000,5623,3,AX,1,100,-0.553
1574944580.893456,35011.667,5641,3,AX,1,100,-0.541
1574944580.934676,35046.333,5641,3,AX,1,100,-0.535
1574944580.975897,35081.000,5641,3,AX,1,100,-0.539
1574944581.015850,35114.600,5662,5,AX,1,100,-0.539
1574944581.055802,35148.200,5662,5,AX,1,100,-0.543
1574944581.095754,35181.800,5662,5,AX,1,100,-0.545
1574944581.135706,35215.400,5662,5,AX,1,100,-0.550
1574944581.175659,35249.000,5662,5,AX,1,100,-0.542
1574944581.216880,35283.667,5681,3,AX,1,100,-0.541
1574944581.258100,35318.333,5681,3,AX,1,100,-0.540
1574944581.299321,35353.000,5681,3,AX,1,100,-0.543
1574944581.340938,35388.000,5699,3,AX,1,100,-0.543
1574944581.382555,35423.000,5699,3,AX,1,100,-0.549
1574944581.424172,35458.000,5699,3,AX,1,100,-0.542
1574944581.462618,35490.333,5717,3,AX,1,100,-0.545
1574944581.501064,35522.667,5717,3,AX,1,100,-0.536
1574944581.539510,35555.000,5717,3,AX,1,100,-0.541
1574944581.578353,35587.667,5735,3,AX,1,100,-0.537
1574944581.617196,35620.333,5735,3,AX,1,100,-0.541
1574944581.656038,35653.000,5735,3,AX,1,100,-0.543
1574944581.697259,35687.667,5752,3,AX,1,100,-0.546
1574944581.738479,35722.333,5752,3,AX,1,100,-0.549
1574944581.779700,35757.000,5752,3,AX,1,100,-0.544
1574944581.818543,35789.667,5770,3,AX,1,100,-0.549
1574944581.857385,35822.333,5770,3,AX,1,100,-0.541
1574944581.896228,35855.000,5770,3,AX,1,100,-0.536
1574944581.941412,35893.000,5788,3,AX,1,100,-0.533
1574944581.986596,35931.000,5788,3,AX,1,100,-0.540
1574944582.031780,35969.000,5788,3,AX,1,100,-0.543
1574944582.068641,36000.000,5806,3,AX,1,100,-0.556
1574944582.105502,36031.000,5806,3,AX,1,100,-0.549
1574944582.142363,36062.000,5806,3,AX,1,100,-0.536
1574944582.190520,36102.500,5824,2,AX,1,100,-0.537
1574944582.238676,36143.000,5824,2,AX,1,100,-0.546
1574944582.276429,36174.750,5842,4,AX,1,100,-0.547
1574944582.314182,36206.500,5842,4,AX,1,100,-0.555
1574944582.351934,36238.250,5842,4,AX,1,100,-0.562
1574944582.389687,36270.000,5842,4,AX,1,100,-0.569
1574944582.428529,36302.667,5860,3,AX,1,100,-0.560
1574944582.467372,36335.333,5860,3,AX,1,100,-0.555
1574944582.506214,36368.000,5860,3,AX,1,100,-0.551
1574944582.547435,36402.667,5877,3,AX,1,100,-0.558
1574944582.588656,36437.333,5877,3,AX,1,100,-0.564
1574944582.629876,36472.000,5877,3,AX,1,100,-0.556
1574944582.669908,36505.667,5896,3,AX,1,100,-0.552
1574944582.709939,36539.333,5896,3,AX,1,100,-0.555
1574944582.749971,36573.000,5896,3,AX,1,100,-0.546
1574944582.792183,36608.500,5912,2,AX,1,100,-0.546
1574944582.834394,36644.000,5912,2,AX,1,100,-0.557
1574944582.876408,36679.333,5930,3,AX,1,100,-0.555
1574944582.918421,36714.667,5930,3,AX,1,100,-0.551
1574944582.960434,36750.000,5930,3,AX,1,100,-0.551
1574944582.999376,36782.750,5948,4,AX,1,100,-0.548
1574944583.038317,36815.500,5948,4,AX,1,100,-0.544
1574944583.077259,36848.250,5948,4,AX,1,100,-0.544
1574944583.116201,36881.000,5948,4,AX,1,100,-0.545
1574944583.156034,36914.500,5966,2,AX,1,100,-0.544
1574944583.195868,36948.000,5966,2,AX,1,100,-0.541
1574944583.237485,36983.000,5984,3,AX,1,100,-0.545
1574944583.279102,37018.000,5984,3,AX,1,100,-0.540
1574944583.320719,37053.000,5984,3,AX,1,100,-0.541
1574944583.362336,37088.000,6002,3,AX,1,100,-0.538
1574944583.403953,37123.000,6002,3,AX,1,100,-0.538
1574944583.445570,37158.000,6002,3,AX,1,100,-0.541
1574944583.484412,37190.667,6020,3,AX,1,100,-0.539
1574944583.523255,37223.333,6020,3,AX,1,100,-0.538
1574944583.562097,37256.000,6020,3,AX,1,100,-0.537
1574944583.600147,37288.000,6038,3,AX,1,100,-0.539
1574944583.638197,37320.000,6038,3,AX,1,100,-0.541
1574944583.676247,37352.000,6038,3,AX,1,100,-0.536
1574944583.720242,37389.000,6056,3,AX,1,100,-0.536
1574944583.764237,37426.000,6056,3,AX,1,100,-0.542
1574944583.808232,37463.000,6056,3,AX,1,100,-0.538
1574944583.849849,37498.000,6074,3,AX,1,100,-0.536
1574944583.891466,37533.000,6074,3,AX,1,100,-0.530
1574944583.933083,37568.000,6074,3,AX,1,100,-0.532
1574944583.973908,37602.333,6092,3,AX,1,100,-0.532
1574944584.014732,37636.667,6092,3,AX,1,100,-0.531
1574944584.055556,37671.000,6092,3,AX,1,100,-0.530
1574944584.094399,37703.667,6108,3,AX,1,100,-0.536
1574944584.133241,37736.333,6108,3,AX,1,100,-0.543
1574944584.172084,37769.000,6108,3,AX,1,100,-0.538
1574944584.209738,37800.667,6126,3,AX,1,100,-0.542
1574944584.247391,37832.333,6126,3,AX,1,100,-0.529
1574944584.285044,37864.000,6126,3,AX,1,100,-0.521
1574944584.324680,37897.333,6144,3,AX,1,100,-0.529
1574944584.364315,37930.667,6144,3,AX,1,100,-0.527
1574944584.403950,37964.000,6144,3,AX,1,100,-0.528
1574944584.449531,38002.333,6162,3,AX,1,100,-0.531
1574944584.495111,38040.667,6162,3,AX,1,100,-0.532
1574944584.540692,38079.000,6162,3,AX,1,100,-0.526
1574944584.577949,38110.333,6180,3,AX,1,100,-0.529
1574944584.615206,38141.667,6180,3,AX,1,100,-0.530
1574944584.652463,38173.000,6180,3,AX,1,100,-0.530
1574944584.694080,38208.000,6199,3,AX,1,100,-0.534
1574944584.735697,38243.000,6199,3,AX,1,100,-0.529
1574944584.777314,38278.000,6199,3,AX,1,100,-0.528
1574944584.822102,38315.667,6217,3,AX,1,100,-0.531
1574944584.866890,38353.333,6217,3,AX,1,100,-0.530
1574944584.911678,38391.000,6217,3,AX,1,100,-0.529
1574944584.950917,38424.000,6234,3,AX,1,100,-0.528
1574944584.990155,38457.000,6234,3,AX,1,100,-0.524
1574944585.029394,38490.000,6234,3,AX,1,100,-0.522
1574944585.068237,38522.667,6252,3,AX,1,100,-0.527
1574944585.107080,38555.333,6252,3,AX,1,100,-0.529
1574944585.145922,38588.000,6252,3,AX,1,100,-0.534
1574944585.185954,38621.667,6270,3,AX,1,100,-0.528
1574944585.225985,38655.333,6270,3,AX,1,100,-0.517
1574944585.266017,38689.000,6270,3,AX,1,100,-0.524
1574944585.306841,38723.333,6286,3,AX,1,100,-0.521
1574944585.347666,38757.667,6286,3,AX,1,100,-0.516
1574944585.388490,38792.000,6286,3,AX,1,100,-0.514
1574944585.428918,38826.000,6304,3,AX,1,100,-0.516
1574944585.469346,38860.000,6304,3,AX,1,100,-0.522
1574944585.509774,38894.000,6304,3,AX,1,100,-0.521
1574944585.550994,38928.667,6322,3,AX,1,100,-0.512
1574944585.592215,38963.333,6322,3,AX,1,100,-0.518
1574944585.633436,38998.000,6322,3,AX,1,100,-0.506
1574944585.674656,39032.667,6340,3,AX,1,100,-0.494
1574944585.715877,39067.333,6340,3,AX,1,100,-0.510
1574944585.757098,39102.000,6340,3,AX,1,100,-0.506
1574944585.795940,39134.667,6359,3,AX,1,100,-0.528
1574944585.834783,39167.333,6359,3,AX,1,100,-0.527
1574944585.873625,39200.000,6359,3,AX,1,100,-0.517
1574944585.915242,39235.000,6377,3,AX,1,100,-0.509
1574944585.956859,39270.000,6377,3,AX,1,100,-0.501
1574944585.998477,39305.000,6377,3,AX,1,100,-0.486
1574944586.038112,39338.333,6395,3,AX,1,100,-0.492
1574944586.077747,39371.667,6395,3,AX,1,100,-0.500
1574944586.117382,39405.000,6395,3,AX,1,100,-0.514
1574944586.158405,39439.500,6412,2,AX,1,100,-0.515
1574944586.199427,39474.000,6412,2,AX,1,100,-0.514
1574944586.240152,39508.250,6430,4,AX,1,100,-0.499
1574944586.280878,39542.500,6430,4,AX,1,100,-0.500
1574944586.321603,39576.750,6430,4,AX,1,100,-0.503
1574944586.362328,39611.000,6430,4,AX,1,100,-0.501
1574944586.403945,39646.000,6446,2,AX,1,100,-0.502
1574944586.445562,39681.000,6446,2,AX,1,100,-0.508
1574944586.483612,39713.000,6464,4,AX,1,100,-0.509
1574944586.521662,39745.000,6464,4,AX,1,100,-0.511
1574944586.559712,39777.000,6464,4,AX,1,100,-0.505
1574944586.597761,39809.000,6464,4,AX,1,100,-0.506
1574944586.637000,39842.000,6482,3,AX,1,100,-0.504
1574944586.676239,39875.000,6482,3,AX,1,100,-0.501
1574944586.715478,39908.000,6482,3,AX,1,100,-0.502
1574944586.762446,39947.500,6501,2,AX,1,100,-0.506
1574944586.809414,39987.000,6501,2,AX,1,100,-0.502
1574944586.851031,40022.000,6519,3,AX,1,100,-0.518
1574944586.892648,40057.000,6519,3,AX,1,100,-0.500
1574944586.934265,40092.000,6519,3,AX,1,100,-0.538
1574944586.975882,40127.000,6537,3,AX,1,100,-0.492
1574944587.017499,40162.000,6537,3,AX,1,100,-0.488
1574944587.059116,40197.000,6537,3,AX,1,100,-0.495
1574944587.096928,40228.800,6558,5,AX,1,100,-0.511
1574944587.134740,40260.600,6558,5,AX,1,100,-0.500
1574944587.172552,40292.400,6558,5,AX,1,100,-0.510
1574944587.210364,40324.200,6558,5,AX,1,100,-0.498
1574944587.248176,40356.000,6558,5,AX,1,100,-0.502
1574944587.288604,40390.000,6576,3,AX,1,100,-0.499
1574944587.329032,40424.000,6576,3,AX,1,100,-0.506
1574944587.369460,40458.000,6576,3,AX,1,100,-0.501
1574944587.411077,40493.000,6596,3,AX,1,100,-0.501
1574944587.452694,40528.000,6596,3,AX,1,100,-0.500
1574944587.494311,40563.000,6596,3,AX,1,100,-0.505
1574944587.535928,40598.000,6614,3,AX,1,100,-0.498
1574944587.577545,40633.000,6614,3,AX,1,100,-0.500
1574944587.619162,40668.000,6614,3,AX,1,100,-0.504
1574944587.661572,40703.667,6632,3,AX,1,100,-0.499
1574944587.703981,40739.333,6632,3,AX,1,100,-0.501
1574944587.746391,40775.000,6632,3,AX,1,100,-0.506
1574944587.783252,40806.000,6651,3,AX,1,100,-0.502
1574944587.820113,40837.000,6651,3,AX,1,100,-0.506
1574944587.856973,40868.000,6651,3,AX,1,100,-0.498
1574944587.898194,40902.667,6669,3,AX,1,100,-0.505
1574944587.939415,40937.333,6669,3,AX,1,100,-0.496
1574944587.980635,40972.000,6669,3,AX,1,100,-0.502
1574944588.021460,41006.333,6686,3,AX,1,100,-0.504
1574944588.062284,41040.667,6686,3,AX,1,100,-0.500
1574944588.103108,41075.000,6686,3,AX,1,100,-0.502
1574944588.143933,41109.333,6704,3,AX,1,100,-0.508
1574944588.184757,41143.667,6704,3,AX,1,100,-0.498
1574944588.225581,41178.000,6704,3,AX,1,100,-0.506
1574944588.264820,41211.000,6720,3,AX,1,100,-0.506
1574944588.304059,41244.000,6720,3,AX,1,100,-0.509
1574944588.343298,41277.000,6720,3,AX,1,100,-0.507
1574944588.383726,41311.000,6738,3,AX,1,100,-0.510
1574944588.424154,41345.000,6738,3,AX,1,100,-0.528
1574944588.464582,41379.000,6738,3,AX,1,100,-0.555
1574944588.501839,41410.333,6756,3,AX,1,100,-0.562
1574944588.539096,41441.667,6756,3,AX,1,100,-0.358
1574944588.576353,41473.000,6756,3,AX,1,100,-0.425
1574944588.614007,41504.667,6774,3,AX,1,100,-0.575
1574944588.651660,41536.333,6774,3,AX,1,100,-0.543
1574944588.689314,41568.000,6774,3,AX,1,100,-0.480
1574944588.734102,41605.667,6793,3,AX,1,100,-0.482
1574944588.778889,41643.333,6793,3,AX,1,100,-0.511
1574944588.823677,41681.000,6793,3,AX,1,100,-0.515
1574944588.864898,41715.667,6811,3,AX,1,100,-0.522
1574944588.906119,41750.333,6811,3,AX,1,100,-0.502
1574944588.947339,41785.000,6811,3,AX,1,100,-0.488
1574944588.987767,41819.000,6829,3,AX,1,100,-0.511
1574944589.028195,41853.000,6829,3,AX,1,100,-0.524
1574944589.068623,41887.000,6829,3,AX,1,100,-0.514
1574944589.109447,41921.333,6847,3,AX,1,100,-0.505
1574944589.150272,41955.667,6847,3,AX,1,100,-0.504
1574944589.191096,41990.000,6847,3,AX,1,100,-0.508
1574944589.232713,42025.000,6864,2,AX,1,100,-0.509
1574944589.274330,42060.000,6864,2,AX,1,100,-0.513
1574944589.313569,42093.000,6882,4,AX,1,100,-0.515
1574944589.352808,42126.000,6882,4,AX,1,100,-0.510
1574944589.392047,42159.000,6882,4,AX,1,100,-0.495
1574944589.431286,42192.000,6882,4,AX,1,100,-0.506
1574944589.470128,42224.667,6900,3,AX,1,100,-0.522
1574944589.508971,42257.333,6900,3,AX,1,100,-0.515
1574944589.547813,42290.000,6900,3,AX,1,100,-0.504
1574944589.587449,42323.333,6916,3,AX,1,100,-0.493
1574944589.627084,42356.667,6916,3,AX,1,100,-0.519
1574944589.666719,42390.000,6916,3,AX,1,100,-0.518
1574944589.707940,42424.667,6935,3,AX,1,100,-0.491
1574944589.749160,42459.333,6935,3,AX,1,100,-0.512
1574944589.790381,42494.000,6935,3,AX,1,100,-0.509
1574944589.837943,42534.000,6953,2,AX,1,100,-0.500
1574944589.885506,42574.000,6953,2,AX,1,100,-0.501
1574944589.925141,42607.333,6971,3,AX,1,100,-0.503
1574944589.964776,42640.667,6971,3,AX,1,100,-0.505
1574944590.004411,42674.000,6971,3,AX,1,100,-0.513
1574944590.042065,42705.667,6989,3,AX,1,100,-0.523
1574944590.079718,42737.333,6989,3,AX,1,100,-0.509
1574944590.117372,42769.000,6989,3,AX,1,100,-0.483
1574944590.157007,42802.333,7007,3,AX,1,100,-0.496
1574944590.196642,42835.667,7007,3,AX,1,100,-0.532
1574944590.236278,42869.000,7007,3,AX,1,100,-0.518
1574944590.276309,42902.667,7025,3,AX,1,100,-0.491
1574944590.316341,42936.333,7025,3,AX,1,100,-0.492
1574944590.356372,42970.000,7025,3,AX,1,100,-0.505
1574944590.397990,43005.000,7042,3,AX,1,100,-0.515
1574944590.439606,43040.000,7042,3,AX,1,100,-0.508
1574944590.481224,43075.000,7042,3,AX,1,100,-0.510
1574944590.522048,43109.333,7060,3,AX,1,100,-0.507
1574944590.562872,43143.667,7060,3,AX,1,100,-0.493
1574944590.603696,43178.000,7060,3,AX,1,100,-0.504
1574944590.644917,43212.667,7078,3,AX,1,100,-0.513
1574944590.686138,43247.333,7078,3,AX,1,100,-0.507
1574944590.727358,43282.000,7078,3,AX,1,100,-0.503
1574944590.766201,43314.667,7095,3,AX,1,100,-0.510
1574944590.805043,43347.333,7095,3,AX,1,100,-0.508
1574944590.843886,43380.000,7095,3,AX,1,100,-0.502
1574944590.884710,43414.333,7113,3,AX,1,100,-0.505
1574944590.925535,43448.667,7113,3,AX,1,100,-0.514
1574944590.966359,43483.000,7113,3,AX,1,100,-0.519
1574944591.007580,43517.667,7131,3,AX,1,100,-0.502
1574944591.048800,43552.333,7131,3,AX,1,100,-0.499
1574944591.090021,43587.000,7131,3,AX,1,100,-0.510
1574944591.131638,43622.000,7149,3,AX,1,100,-0.506
1574944591.173255,43657.000,7149,3,AX,1,100,-0.507
1574944591.214872,43692.000,7149,3,AX,1,100,-0.502
1574944591.252129,43723.333,7167,3,AX,1,100,-0.507
1574944591.289386,43754.667,7167,3,AX,1,100,-0.515
1574944591.326643,43786.000,7167,3,AX,1,100,-0.511
1574944591.365486,43818.667,7185,3,AX,1,100,-0.503
1574944591.404329,43851.333,7185,3,AX,1,100,-0.502
1574944591.443171,43884.000,7185,3,AX,1,100,-0.517
1574944591.487563,43921.333,7203,3,AX,1,100,-0.515
1574944591.531954,43958.667,7203,3,AX,1,100,-0.502
1574944591.576345,43996.000,7203,3,AX,1,100,-0.506
1574944591.617170,44030.333,7220,3,AX,1,100,-0.515
1574944591.657994,44064.667,7220,3,AX,1,100,-0.505
1574944591.698818,44099.000,7220,3,AX,1,100,-0.499
1574944591.739643,44133.333,7239,3,AX,1,100,-0.508
1574944591.780467,44167.667,7239,3,AX,1,100,-0.529
1574944591.821291,44202.000,7239,3,AX,1,100,-0.506
1574944591.858945,44233.667,7257,3,AX,1,100,-0.488
1574944591.896598,44265.333,7257,3,AX,1,100,-0.517
1574944591.934252,44297.000,7257,3,AX,1,100,-0.513
1574944591.971509,44328.333,7275,3,AX,1,100,-0.498
1574944592.008766,44359.667,7275,3,AX,1,100,-0.510
1574944592.046023,44391.000,7275,3,AX,1,100,-0.520
1574944592.086848,44425.333,7291,3,AX,1,100,-0.505
1574944592.127672,44459.667,7291,3,AX,1,100,-0.496
1574944592.168496,44494.000,7291,3,AX,1,100,-0.511
1574944592.209717,44528.667,7309,3,AX,1,100,-0.513
1574944592.250937,44563.333,7309,3,AX,1,100,-0.509
1574944592.292158,44598.000,7309,3,AX,1,100,-0.490
1574944592.337342,44636.000,7327,3,AX,1,100,-0.508
1574944592.382527,44674.000,7327,3,AX,1,100,-0.508
1574944592.427711,44712.000,7327,3,AX,1,100,-0.507
1574944592.465364,44743.667,7345,3,AX,1,100,-0.509
1574944592.503018,44775.333,7345,3,AX,1,100,-0.511
1574944592.540671,44807.000,7345,3,AX,1,100,-0.497
1574944592.582288,44842.000,7363,3,AX,1,100,-0.497
1574944592.623905,44877.000,7363,3,AX,1,100,-0.518
1574944592.665522,44912.000,7363,3,AX,1,100,-0.501
1574944592.701590,44942.333,7382,3,AX,1,100,-0.494
1574944592.737659,44972.667,7382,3,AX,1,100,-0.503
1574944592.773726,45003.000,7382,3,AX,1,100,-0.510
1574944592.812965,45036.000,7400,3,AX,1,100,-0.499
1574944592.852204,45069.000,7400,3,AX,1,100,-0.503
1574944592.891443,45102.000,7400,3,AX,1,100,-0.504
1574944592.932267,45136.333,7417,3,AX,1,100,-0.501
1574944592.973092,45170.667,7417,3,AX,1,100,-0.510
1574944593.013916,45205.000,7417,3,AX,1,100,-0.497
1574944593.053948,45238.667,7435,3,AX,1,100,-0.499
1574944593.093979,45272.333,7435,3,AX,1,100,-0.512
1574944593.134011,45306.000,7435,3,AX,1,100,-0.511
1574944593.174915,45340.400,7456,5,AX,1,100,-0.501
1574944593.215818,45374.800,7456,5,AX,1,100,-0.487
1574944593.256722,45409.200,7456,5,AX,1,100,-0.510
1574944593.297625,45443.600,7456,5,AX,1,100,-0.530
1574944593.338529,45478.000,7456,5,AX,1,100,-0.494
1574944593.380542,45513.333,7476,3,AX,1,100,-0.482
1574944593.422556,45548.667,7476,3,AX,1,100,-0.497
1574944593.464569,45584.000,7476,3,AX,1,100,-0.515
1574944593.502619,45616.000,7494,3,AX,1,100,-0.512
1574944593.540669,45648.000,7494,3,AX,1,100,-0.507
1574944593.578718,45680.000,7494,3,AX,1,100,-0.489
1574944593.617165,45712.333,7512,3,AX,1,100,-0.489
1574944593.655611,45744.667,7512,3,AX,1,100,-0.518
1574944593.694057,45777.000,7512,3,AX,1,100,-0.513
1574944593.739836,45815.500,7530,2,AX,1,100,-0.500
1574944593.785614,45854.000,7530,2,AX,1,100,-0.490
1574944593.826042,45888.000,7548,3,AX,1,100,-0.486
1574944593.866470,45922.000,7548,3,AX,1,100,-0.519
1574944593.906898,45956.000,7548,3,AX,1,100,-0.513
1574944593.948119,45990.667,7564,3,AX,1,100,-0.499
1574944593.989340,46025.333,7564,3,AX,1,100,-0.493
1574944594.030560,46060.000,7564,3,AX,1,100,-0.511
1574944594.069799,46093.000,7582,3,AX,1,100,-0.505
1574944594.109038,46126.000,7582,3,AX,1,100,-0.494
1574944594.148277,46159.000,7582,3,AX,1,100,-0.500
1574944594.186327,46191.000,7600,4,AX,1,100,-0.502
1574944594.224377,46223.000,7600,4,AX,1,100,-0.510
1574944594.262427,46255.000,7600,4,AX,1,100,-0.497
1574944594.300476,46287.000,7600,4,AX,1,100,-0.491
1574944594.340508,46320.667,7618,3,AX,1,100,-0.502
1574944594.380540,46354.333,7618,3,AX,1,100,-0.509
1574944594.420571,46388.000,7618,3,AX,1,100,-0.505
1574944594.460999,46422.000,7636,3,AX,1,100,-0.501
1574944594.501427,46456.000,7636,3,AX,1,100,-0.499
1574944594.541855,46490.000,7636,3,AX,1,100,-0.501
1574944594.589417,46530.000,7654,2,AX,1,100,-0.504
1574944594.636980,46570.000,7654,2,AX,1,100,-0.502
1574944594.677011,46603.667,7673,3,AX,1,100,-0.498
1574944594.717043,46637.333,7673,3,AX,1,100,-0.497
1574944594.757075,46671.000,7673,3,AX,1,100,-0.502
1574944594.795124,46703.000,7691,3,AX,1,100,-0.499
1574944594.833174,46735.000,7691,3,AX,1,100,-0.497
1574944594.871224,46767.000,7691,3,AX,1,100,-0.508
1574944594.910463,46800.000,7708,3,AX,1,100,-0.500
1574944594.949702,46833.000,7708,3,AX,1,100,-0.495
1574944594.988941,46866.000,7708,3,AX,1,100,-0.507
1574944595.030161,46900.667,7726,3,AX,1,100,-0.492
1574944595.071382,46935.333,7726,3,AX,1,100,-0.496
1574944595.112603,46970.000,7726,3,AX,1,100,-0.502
1574944595.153823,47004.667,7742,3,AX,1,100,-0.499
1574944595.195044,47039.333,7742,3,AX,1,100,-0.495
1574944595.236265,47074.000,7742,3,AX,1,100,-0.494
1574944595.277089,47108.333,7760,3,AX,1,100,-0.514
1574944595.317913,47142.667,7760,3,AX,1,100,-0.501
1574944595.358738,47177.000,7760,3,AX,1,100,-0.489
1574944595.399958,47211.667,7778,3,AX,1,100,-0.495
1574944595.441179,47246.333,7778,3,AX,1,100,-0.516
1574944595.482400,47281.000,7778,3,AX,1,100,-0.517
1574944595.520846,47313.333,7796,3,AX,1,100,-0.496
1574944595.559292,47345.667,7796,3,AX,1,100,-0.483
1574944595.597738,47378.000,7796,3,AX,1,100,-0.492
1574944595.638563,47412.333,7815,3,AX,1,100,-0.528
1574944595.679387,47446.667,7815,3,AX,1,100,-0.516
1574944595.720211,47481.000,7815,3,AX,1,100,-0.488
1574944595.761035,47515.333,7833,3,AX,1,100,-0.487
1574944595.801860,47549.667,7833,3,AX,1,100,-0.515
1574944595.842684,47584.000,7833,3,AX,1,100,-0.511
1574944595.884301,47619.000,7851,3,AX,1,100,-0.497
1574944595.925918,47654.000,7851,3,AX,1,100,-0.490
1574944595.967535,47689.000,7851,3,AX,1,100,-0.501
1574944596.004792,47720.333,7869,3,AX,1,100,-0.507
1574944596.042049,47751.667,7869,3,AX,1,100,-0.512
1574944596.079307,47783.000,7869,3,AX,1,100,-0.498
1574944596.117753,47815.333,7887,3,AX,1,100,-0.490
1574944596.156199,47847.667,7887,3,AX,1,100,-0.506
1574944596.194645,47880.000,7887,3,AX,1,100,-0.512
1574944596.239433,47917.667,7904,3,AX,1,100,-0.502
1574944596.284221,47955.333,7904,3,AX,1,100,-0.503
1574944596.329009,47993.000,7904,3,AX,1,100,-0.499
1574944596.364680,48023.000,7922,3,AX,1,100,-0.505
1574944596.400352,48053.000,7922,3,AX,1,100,-0.505
1574944596.436024,48083.000,7922,3,AX,1,100,-0.502
1574944596.481208,48121.000,7938,3,AX,1,100,-0.501
1574944596.526392,48159.000,7938,3,AX,1,100,-0.498
1574944596.571576,48197.000,7938,3,AX,1,100,-0.495
1574944596.612797,48231.667,7956,3,AX,1,100,-0.505
1574944596.654018,48266.333,7956,3,AX,1,100,-0.510
1574944596.695238,48301.000,7956,3,AX,1,100,-0.504
1574944596.733288,48333.000,7975,3,AX,1,100,-0.487
1574944596.771338,48365.000,7975,3,AX,1,100,-0.505
1574944596.809388,48397.000,7975,3,AX,1,100,-0.514
1574944596.854176,48434.667,7993,3,AX,1,100,-0.508
1574944596.898964,48472.333,7993,3,AX,1,100,-0.499
1574944596.943751,48510.000,7993,3,AX,1,100,-0.489
1574944596.983783,48543.667,8011,3,AX,1,100,-0.508
1574944597.023815,48577.333,8011,3,AX,1,100,-0.512
1574944597.063846,48611.000,8011,3,AX,1,100,-0.504
1574944597.101896,48643.000,8029,3,AX,1,100,-0.499
1574944597.139946,48675.000,8029,3,AX,1,100,-0.492
1574944597.177996,48707.000,8029,3,AX,1,100,-0.504
1574944597.217235,48740.000,8047,3,AX,1,100,-0.510
1574944597.256474,48773.000,8047,3,AX,1,100,-0.490
1574944597.295712,48806.000,8047,3,AX,1,100,-0.497
1574944597.336933,48840.667,8064,3,AX,1,100,-0.506
1574944597.378154,48875.333,8064,3,AX,1,100,-0.497
1574944597.419374,48910.000,8064,3,AX,1,100,-0.503
1574944597.460991,48945.000,8082,3,AX,1,100,-0.503
1574944597.502609,48980.000,8082,3,AX,1,100,-0.500
1574944597.544225,49015.000,8082,3,AX,1,100,-0.494
1574944597.585843,49050.000,8098,3,AX,1,100,-0.497
1574944597.627460,49085.000,8098,3,AX,1,100,-0.502
1574944597.669076,49120.000,8098,3,AX,1,100,-0.496
1574944597.710694,49155.000,8117,2,AX,1,100,-0.502
1574944597.752311,49190.000,8117,2,AX,1,100,-0.495
1574944597.793531,49224.667,8135,3,AX,1,100,-0.497
1574944597.834752,49259.333,8135,3,AX,1,100,-0.498
1574944597.875973,49294.000,8135,3,AX,1,100,-0.506
1574944597.917193,49328.667,8153,3,AX,1,100,-0.500
1574944597.958414,49363.333,8153,3,AX,1,100,-0.493
1574944597.999635,49398.000,8153,3,AX,1,100,-0.498
1574944598.038477,49430.667,8171,3,AX,1,100,-0.505
1574944598.077320,49463.333,8171,3,AX,1,100,-0.493
1574944598.116162,49496.000,8171,3,AX,1,100,-0.500
1574944598.157383,49530.667,8189,3,AX,1,100,-0.510
1574944598.198604,49565.333,8189,3,AX,1,100,-0.501
1574944598.239824,49600.000,8189,3,AX,1,100,-0.487
1574944598.279856,49633.667,8207,3,AX,1,100,-0.498
1574944598.319887,49667.333,8207,3,AX,1,100,-0.507
1574944598.359919,49701.000,8207,3,AX,1,100,-0.499
1574944598.401932,49736.333,8224,3,AX,1,100,-0.505
1574944598.443946,49771.667,8224,3,AX,1,100,-0.501
1574944598.485959,49807.000,8224,3,AX,1,100,-0.492
1574944598.523216,49838.333,8242,3,AX,1,100,-0.501
1574944598.560473,49869.667,8242,3,AX,1,100,-0.501
1574944598.597731,49901.000,8242,3,AX,1,100,-0.498
1574944598.636177,49933.333,8260,3,AX,1,100,-0.501
1574944598.674623,49965.667,8260,3,AX,1,100,-0.500
1574944598.713069,49998.000,8260,3,AX,1,100,-0.487
1574944598.757461,50035.333,8277,3,AX,1,100,-0.507
1574944598.801852,50072.667,8277,3,AX,1,100,-0.510
1574944598.846244,50110.000,8277,3,AX,1,100,-0.490
1574944598.887068,50144.333,8295,3,AX,1,100,-0.496
1574944598.927892,50178.667,8295,3,AX,1,100,-0.504
1574944598.968716,50213.000,8295,3,AX,1,100,-0.501
1574944599.009937,50247.667,8313,3,AX,1,100,-0.505
1574944599.051158,50282.333,8313,3,AX,1,100,-0.500
1574944599.092378,50317.000,8313,3,AX,1,100,-0.493
1574944599.130428,50349.000,8331,3,AX,1,100,-0.506
1574944599.168478,50381.000,8331,3,AX,1,100,-0.497
1574944599.206528,50413.000,8331,3,AX,1,100,-0.495
1574944599.245767,50446.000,8350,5,AX,1,100,-0.503
1574944599.285006,50479.000,8350,5,AX,1,100,-0.499
1574944599.324245,50512.000,8350,5,AX,1,100,-0.500
1574944599.363484,50545.000,8350,5,AX,1,100,-0.505
1574944599.402723,50578.000,8350,5,AX,1,100,-0.502
1574944599.443943,50612.667,8370,3,AX,1,100,-0.495
1574944599.485164,50647.333,8370,3,AX,1,100,-0.508
1574944599.526385,50682.000,8370,3,AX,1,100,-0.500
1574944599.567605,50716.667,8388,3,AX,1,100,-0.495
1574944599.608826,50751.333,8388,3,AX,1,100,-0.497
1574944599.650047,50786.000,8388,3,AX,1,100,-0.505
1574944599.695825,50824.500,8407,2,AX,1,100,-0.502
1574944599.741604,50863.000,8407,2,AX,1,100,-0.494
1574944599.778762,50894.250,8425,4,AX,1,100,-0.494
1574944599.815920,50925.500,8425,4,AX,1,100,-0.500
1574944599.853078,50956.750,8425,4,AX,1,100,-0.499
1574944599.890236,50988.000,8425,4,AX,1,100,-0.505
1574944599.929871,51021.333,8443,3,AX,1,100,-0.495
1574944599.969507,51054.667,8443,3,AX,1,100,-0.501
1574944600.009142,51088.000,8443,3,AX,1,100,-0.516
1574944600.050759,51123.000,8461,3,AX,1,100,-0.491
1574944600.092376,51158.000,8461,3,AX,1,100,-0.465
1574944600.133993,51193.000,8461,3,AX,1,100,-0.507
1574944600.174817,51227.333,8479,3,AX,1,100,-0.527
1574944600.215641,51261.667,8479,3,AX,1,100,-0.532
1574944600.256466,51296.000,8479,3,AX,1,100,-0.516
1574944600.296101,51329.333,8496,3,AX,1,100,-0.494
1574944600.335736,51362.667,8496,3,AX,1,100,-0.476
1574944600.375372,51396.000,8496,3,AX,1,100,-0.475
1574944600.416196,51430.333,8514,3,AX,1,100,-0.484
1574944600.457020,51464.667,8514,3,AX,1,100,-0.500
1574944600.497844,51499.000,8514,3,AX,1,100,-0.522
1574944600.532724,51528.333,8532,3,AX,1,100,-0.523
1574944600.567603,51557.667,8532,3,AX,1,100,-0.507
1574944600.602482,51587.000,8532,3,AX,1,100,-0.490
1574944600.644495,51622.333,8550,3,AX,1,100,-0.485
1574944600.686508,51657.667,8550,3,AX,1,100,-0.481
1574944600.728522,51693.000,8550,3,AX,1,100,-0.501
1574944600.767364,51725.667,8569,3,AX,1,100,-0.514
1574944600.806207,51758.333,8569,3,AX,1,100,-0.516
1574944600.845049,51791.000,8569,3,AX,1,100,-0.507
1574944600.886666,51826.000,8585,3,AX,1,100,-0.499
1574944600.928283,51861.000,8585,3,AX,1,100,-0.492
1574944600.969900,51896.000,8585,3,AX,1,100,-0.490
1574944601.011518,51931.000,8603,3,AX,1,100,-0.496
1574944601.053134,51966.000,8603,3,AX,1,100,-0.500
1574944601.094751,52001.000,8603,3,AX,1,100,-0.504
1574944601.136369,52036.000,8621,3,AX,1,100,-0.502
1574944601.177985,52071.000,8621,3,AX,1,100,-0.505
1574944601.219603,52106.000,8621,3,AX,1,100,-0.497
1574944601.261220,52141.000,8639,2,AX,1,100,-0.496
1574944601.302836,52176.000,8639,2,AX,1,100,-0.494
1574944601.342868,52209.667,8657,3,AX,1,100,-0.498
1574944601.382900,52243.333,8657,3,AX,1,100,-0.502
1574944601.422931,52277.000,8657,3,AX,1,100,-0.504
1574944601.460981,52309.000,8675,4,AX,1,100,-0.503
1574944601.499031,52341.000,8675,4,AX,1,100,-0.500
1574944601.537081,52373.000,8675,4,AX,1,100,-0.495
1574944601.575131,52405.000,8675,4,AX,1,100,-0.496
1574944601.615162,52438.667,8692,3,AX,1,100,-0.497
1574944601.655194,52472.333,8692,3,AX,1,100,-0.500
1574944601.695225,52506.000,8692,3,AX,1,100,-0.502
1574944601.736446,52540.667,8711,3,AX,1,100,-0.498
1574944601.777667,52575.333,8711,3,AX,1,100,-0.500
1574944601.818887,52610.000,8711,3,AX,1,100,-0.498
1574944601.865261,52649.000,8727,2,AX,1,100,-0.495
1574944601.911634,52688.000,8727,2,AX,1,100,-0.498
1574944601.952458,52722.333,8745,3,AX,1,100,-0.496
1574944601.993283,52756.667,8745,3,AX,1,100,-0.497
1574944602.034107,52791.000,8745,3,AX,1,100,-0.500
1574944602.071760,52822.667,8763,3,AX,1,100,-0.501
1574944602.109414,52854.333,8763,3,AX,1,100,-0.497
1574944602.147067,52886.000,8763,3,AX,1,100,-0.497
1574944602.186306,52919.000,8781,3,AX,1,100,-0.495
1574944602.225545,52952.000,8781,3,AX,1,100,-0.498
1574944602.264784,52985.000,8781,3,AX,1,100,-0.500
1574944602.305212,53019.000,8799,3,AX,1,100,-0.501
1574944602.345640,53053.000,8799,3,AX,1,100,-0.499
1574944602.386068,53087.000,8799,3,AX,1,100,-0.498
1574944602.426892,53121.333,8817,3,AX,1,100,-0.494
1574944602.467717,53155.667,8817,3,AX,1,100,-0.497
1574944602.508541,53190.000,8817,3,AX,1,100,-0.498
1574944602.550158,53225.000,8835,3,AX,1,100,-0.496
1574944602.591775,53260.000,8835,3,AX,1,100,-0.500
1574944602.633392,53295.000,8835,3,AX,1,100,-0.500
1574944602.674216,53329.333,8854,3,AX,1,100,-0.497
1574944602.715041,53363.667,8854,3,AX,1,100,-0.498
1574944602.755865,53398.000,8854,3,AX,1,100,-0.502
1574944602.794708,53430.667,8872,3,AX,1,100,-0.499
1574944602.833550,53463.333,8872,3,AX,1,100,-0.497
1574944602.872392,53496.000,8872,3,AX,1,100,-0.499
1574944602.913613,53530.667,8889,3,AX,1,100,-0.502
1574944602.954834,53565.333,8889,3,AX,1,100,-0.498
1574944602.996054,53600.000,8889,3,AX,1,100,-0.499
1574944603.037672,53635.000,8905,3,AX,1,100,-0.495
1574944603.079288,53670.000,8905,3,AX,1,100,-0.497
1574944603.120906,53705.000,8905,3,AX,1,100,-0.498
1574944603.162919,53740.333,8923,3,AX,1,100,-0.500
1574944603.204932,53775.667,8923,3,AX,1,100,-0.502
1574944603.246946,53811.000,8923,3,AX,1,100,-0.499
1574944603.283807,53842.000,8941,3,AX,1,100,-0.499
1574944603.320667,53873.000,8941,3,AX,1,100,-0.499
1574944603.357528,53904.000,8941,3,AX,1,100,-0.497
1574944603.395974,53936.333,8959,3,AX,1,100,-0.500
1574944603.434420,53968.667,8959,3,AX,1,100,-0.498
1574944603.472867,54001.000,8959,3,AX,1,100,-0.498
1574944603.518051,54039.000,8977,3,AX,1,100,-0.501
1574944603.563235,54077.000,8977,3,AX,1,100,-0.502
1574944603.608419,54115.000,8977,3,AX,1,100,-0.497
1574944603.650036,54150.000,8995,3,AX,1,100,-0.500
1574944603.691653,54185.000,8995,3,AX,1,100,-0.499
1574944603.733270,54220.000,8995,3,AX,1,100,-0.501
1574944603.774095,54254.333,9014,3,AX,1,100,-0.502
1574944603.814919,54288.667,9014,3,AX,1,100,-0.502
1574944603.855743,54323.000,9014,3,AX,1,100,-0.500
1574944603.893397,54354.667,9032,3,AX,1,100,-0.501
1574944603.931050,54386.333,9032,3,AX,1,100,-0.499
1574944603.968704,54418.000,9032,3,AX,1,100,-0.497
1574944604.006357,54449.667,9050,3,AX,1,100,-0.500
1574944604.044011,54481.333,9050,3,AX,1,100,-0.500
1574944604.081664,54513.000,9050,3,AX,1,100,-0.501
1574944604.121696,54546.667,9067,3,AX,1,100,-0.502
1574944604.161727,54580.333,9067,3,AX,1,100,-0.500
1574944604.201759,54614.000,9067,3,AX,1,100,-0.500
1574944604.242980,54648.667,9085,3,AX,1,100,-0.498
1574944604.284200,54683.333,9085,3,AX,1,100,-0.499
1574944604.325421,54718.000,9085,3,AX,1,100,-0.502
1574944604.370209,54755.667,9101,3,AX,1,100,-0.501
1574944604.414997,54793.333,9101,3,AX,1,100,-0.503
1574944604.459785,54831.000,9101,3,AX,1,100,-0.503
1574944604.496645,54862.000,9119,3,AX,1,100,-0.499
1574944604.533506,54893.000,9119,3,AX,1,100,-0.503
1574944604.570367,54924.000,9119,3,AX,1,100,-0.500
1574944604.617335,54963.500,9137,2,AX,1,100,-0.502
1574944604.664302,55003.000,9137,2,AX,1,100,-0.504
1574944604.702352,55035.000,9156,4,AX,1,100,-0.501
1574944604.740402,55067.000,9156,4,AX,1,100,-0.503
1574944604.778452,55099.000,9156,4,AX,1,100,-0.500
1574944604.816502,55131.000,9156,4,AX,1,100,-0.499
1574944604.858119,55166.000,9174,2,AX,1,100,-0.501
1574944604.899736,55201.000,9174,2,AX,1,100,-0.499
1574944604.939866,55234.750,9192,4,AX,1,100,-0.500
1574944604.979997,55268.500,9192,4,AX,1,100,-0.503
1574944605.020128,55302.250,9192,4,AX,1,100,-0.502
1574944605.060258,55336.000,9192,4,AX,1,100,-0.502
1574944605.099101,55368.667,9210,3,AX,1,100,-0.500
1574944605.137944,55401.333,9210,3,AX,1,100,-0.498
1574944605.176786,55434.000,9210,3,AX,1,100,-0.498
1574944605.217610,55468.333,9227,3,AX,1,100,-0.498
1574944605.258435,55502.667,9227,3,AX,1,100,-0.498
1574944605.299259,55537.000,9227,3,AX,1,100,-0.503
1574944605.340579,55571.750,9248,4,AX,1,100,-0.502
1574944605.381899,55606.500,9248,4,AX,1,100,-0.495
1574944605.423218,55641.250,9248,4,AX,1,100,-0.499
1574944605.464538,55676.000,9248,4,AX,1,100,-0.499
1574944605.504570,55709.667,9268,3,AX,1,100,-0.496
1574944605.544601,55743.333,9268,3,AX,1,100,-0.496
1574944605.584633,55777.000,9268,3,AX,1,100,-0.499
1574944605.622683,55809.000,9286,3,AX,1,100,-0.500
1574944605.660733,55841.000,9286,3,AX,1,100,-0.499
1574944605.698782,55873.000,9286,3,AX,1,100,-0.497
1574944605.741985,55909.333,9305,3,AX,1,100,-0.496
1574944605.785187,55945.667,9305,3,AX,1,100,-0.494
1574944605.828390,55982.000,9305,3,AX,1,100,-0.495
1574944605.868421,56015.667,9322,3,AX,1,100,-0.497
1574944605.908453,56049.333,9322,3,AX,1,100,-0.498
1574944605.948484,56083.000,9322,3,AX,1,100,-0.499
1574944605.990102,56118.000,9340,3,AX,1,100,-0.497
1574944606.031718,56153.000,9340,3,AX,1,100,-0.497
1574944606.073336,56188.000,9340,3,AX,1,100,-0.493
1574944606.113764,56222.000,9358,3,AX,1,100,-0.498
1574944606.154191,56256.000,9358,3,AX,1,100,-0.500
1574944606.194619,56290.000,9358,3,AX,1,100,-0.497
1574944606.232273,56321.667,9374,3,AX,1,100,-0.497
1574944606.269926,56353.333,9374,3,AX,1,100,-0.501
1574944606.307580,56385.000,9374,3,AX,1,100,-0.497
1574944606.346026,56417.333,9392,3,AX,1,100,-0.496
1574944606.384472,56449.667,9392,3,AX,1,100,-0.497
1574944606.422919,56482.000,9392,3,AX,1,100,-0.498
1574944606.462950,56515.667,9410,3,AX,1,100,-0.499
1574944606.502982,56549.333,9410,3,AX,1,100,-0.498
1574944606.543013,56583.000,9410,3,AX,1,100,-0.496
1574944606.588197,56621.000,9428,3,AX,1,100,-0.496
1574944606.633382,56659.000,9428,3,AX,1,100,-0.495
1574944606.678566,56697.000,9428,3,AX,1,100,-0.496
1574944606.720183,56732.000,9447,3,AX,1,100,-0.498
1574944606.761800,56767.000,9447,3,AX,1,100,-0.497
1574944606.803417,56802.000,9447,3,AX,1,100,-0.494
1574944606.841070,56833.667,9465,3,AX,1,100,-0.496
1574944606.878724,56865.333,9465,3,AX,1,100,-0.495
1574944606.916377,56897.000,9465,3,AX,1,100,-0.495
1574944606.955220,56929.667,9483,3,AX,1,100,-0.493
1574944606.994062,56962.333,9483,3,AX,1,100,-0.497
1574944607.032905,56995.000,9483,3,AX,1,100,-0.497
1574944607.073333,57029.000,9501,3,AX,1,100,-0.493
1574944607.113761,57063.000,9501,3,AX,1,100,-0.495
1574944607.154189,57097.000,9501,3,AX,1,100,-0.493
1574944607.195410,57131.667,9518,3,AX,1,100,-0.492
1574944607.236630,57166.333,9518,3,AX,1,100,-0.496
1574944607.277851,57201.000,9518,3,AX,1,100,-0.495
1574944607.319864,57236.333,9536,3,AX,1,100,-0.494
1574944607.361878,57271.667,9536,3,AX,1,100,-0.494
1574944607.403891,57307.000,9536,3,AX,1,100,-0.494
1574944607.445112,57341.667,9552,3,AX,1,100,-0.495
1574944607.486332,57376.333,9552,3,AX,1,100,-0.497
1574944607.527553,57411.000,9552,3,AX,1,100,-0.491
1574944607.565207,57442.667,9570,3,AX,1,100,-0.492
1574944607.602860,57474.333,9570,3,AX,1,100,-0.500
1574944607.640513,57506.000,9570,3,AX,1,100,-0.494
1574944607.681338,57540.333,9589,3,AX,1,100,-0.492
1574944607.722162,57574.667,9589,3,AX,1,100,-0.496
1574944607.762986,57609.000,9589,3,AX,1,100,-0.492
1574944607.804207,57643.667,9607,3,AX,1,100,-0.491
1574944607.845428,57678.333,9607,3,AX,1,100,-0.493
1574944607.886648,57713.000,9607,3,AX,1,100,-0.494
1574944607.927473,57747.333,9625,3,AX,1,100,-0.492
1574944607.968297,57781.667,9625,3,AX,1,100,-0.493
1574944608.009121,57816.000,9625,3,AX,1,100,-0.496
1574944608.047964,57848.667,9643,3,AX,1,100,-0.493
1574944608.086806,57881.333,9643,3,AX,1,100,-0.494
1574944608.125649,57914.000,9643,3,AX,1,100,-0.497
1574944608.162510,57945.000,9661,3,AX,1,100,-0.499
1574944608.199370,57976.000,9661,3,AX,1,100,-0.494
1574944608.236231,58007.000,9661,3,AX,1,100,-0.496
1574944608.277452,58041.667,9679,3,AX,1,100,-0.496
1574944608.318673,58076.333,9679,3,AX,1,100,-0.494
1574944608.359893,58111.000,9679,3,AX,1,100,-0.496
1574944608.398340,58143.333,9697,3,AX,1,100,-0.494
1574944608.436786,58175.667,9697,3,AX,1,100,-0.496
1574944608.475232,58208.000,9697,3,AX,1,100,-0.495
1574944608.522200,58247.500,9714,2,AX,1,100,-0.493
1574944608.569167,58287.000,9714,2,AX,1,100,-0.492
1574944608.610785,58322.000,9730,3,AX,1,100,-0.496
1574944608.652401,58357.000,9730,3,AX,1,100,-0.492
1574944608.694018,58392.000,9730,3,AX,1,100,-0.495
1574944608.732068,58424.000,9749,3,AX,1,100,-0.497
1574944608.770118,58456.000,9749,3,AX,1,100,-0.494
1574944608.808168,58488.000,9749,3,AX,1,100,-0.499
1574944608.852956,58525.667,9767,3,AX,1,100,-0.493
1574944608.897744,58563.333,9767,3,AX,1,100,-0.490
1574944608.942532,58601.000,9767,3,AX,1,100,-0.495
1574944608.984149,58636.000,9785,3,AX,1,100,-0.496
1574944609.025765,58671.000,9785,3,AX,1,100,-0.497
1574944609.067383,58706.000,9785,3,AX,1,100,-0.498
1574944609.105036,58737.667,9803,3,AX,1,100,-0.494
1574944609.142689,58769.333,9803,3,AX,1,100,-0.493
1574944609.180343,58801.000,9803,3,AX,1,100,-0.492
1574944609.218789,58833.333,9821,3,AX,1,100,-0.492
1574944609.257235,58865.667,9821,3,AX,1,100,-0.493
1574944609.295681,58898.000,9821,3,AX,1,100,-0.498
1574944609.336110,58932.000,9839,3,AX,1,100,-0.497
1574944609.376538,58966.000,9839,3,AX,1,100,-0.494
1574944609.416965,59000.000,9839,3,AX,1,100,-0.494
1574944609.458186,59034.667,9856,3,AX,1,100,-0.494
1574944609.499407,59069.333,9856,3,AX,1,100,-0.495
1574944609.540627,59104.000,9856,3,AX,1,100,-0.496
1574944609.582244,59139.000,9874,3,AX,1,100,-0.501
1574944609.623862,59174.000,9874,3,AX,1,100,-0.500
1574944609.665478,59209.000,9874,3,AX,1,100,-0.496
1574944609.707888,59244.667,9893,3,AX,1,100,-0.493
1574944609.750298,59280.333,9893,3,AX,1,100,-0.493
1574944609.792708,59316.000,9893,3,AX,1,100,-0.495
1574944609.830361,59347.667,9909,3,AX,1,100,-0.493
1574944609.868015,59379.333,9909,3,AX,1,100,-0.496
1574944609.905668,59411.000,9909,3,AX,1,100,-0.495
1574944609.946096,59445.000,9927,3,AX,1,100,-0.497
1574944609.986524,59479.000,9927,3,AX,1,100,-0.496
1574944610.026952,59513.000,9927,3,AX,1,100,-0.494
1574944610.067380,59547.000,9945,3,AX,1,100,-0.496
1574944610.107808,59581.000,9945,3,AX,1,100,-0.495
1574944610.148236,59615.000,9945,3,AX,1,100,-0.498
1574944610.189853,59650.000,9963,3,AX,1,100,-0.493
1574944610.231470,59685.000,9963,3,AX,1,100,-0.494
1574944610.273087,59720.000,9963,3,AX,1,100,-0.493
1574944610.311929,59752.667,9981,3,AX,1,100,-0.495
1574944610.350772,59785.333,9981,3,AX,1,100,-0.500
1574944610.389615,59818.000,9981,3,AX,1,100,-0.494
1574944610.427268,59849.667,9999,3,AX,1,100,-0.493
1574944610.464921,59881.333,9999,3,AX,1,100,-0.491
1574944610.502575,59913.000,9999,3,AX,1,100,-0.491
1574944610.545778,59949.333,10017,3,AX,1,100,-0.490
1574944610.588980,59985.667,10017,3,AX,1,100,-0.496
1574944610.632182,60022.000,10017,3,AX,1,100,-0.495
1574944610.673403,60056.667,10036,3,AX,1,100,-0.498
1574944610.714624,60091.333,10036,3,AX,1,100,-0.496
1574944610.755844,60126.000,10036,3,AX,1,100,-0.490
1574944610.797065,60160.667,10053,3,AX,1,100,-0.490
1574944610.838286,60195.333,10053,3,AX,1,100,-0.484
1574944610.879506,60230.000,10053,3,AX,1,100,-0.490
1574944610.919934,60264.000,10071,3,AX,1,100,-0.496
1574944610.960362,60298.000,10071,3,AX,1,100,-0.497
1574944611.000790,60332.000,10071,3,AX,1,100,-0.494
1574944611.038840,60364.000,10088,3,AX,1,100,-0.489
1574944611.076890,60396.000,10088,3,AX,1,100,-0.485
1574944611.114940,60428.000,10088,3,AX,1,100,-0.484
1574944611.154179,60461.000,10105,3,AX,1,100,-0.483
1574944611.193418,60494.000,10105,3,AX,1,100,-0.490
1574944611.232656,60527.000,10105,3,AX,1,100,-0.491
1574944611.273481,60561.333,10123,3,AX,1,100,-0.489
1574944611.314305,60595.667,10123,3,AX,1,100,-0.489
1574944611.355129,60630.000,10123,3,AX,1,100,-0.486
1574944611.399422,60667.250,10144,4,AX,1,100,-0.483
1574944611.443714,60704.500,10144,4,AX,1,100,-0.485
1574944611.488007,60741.750,10144,4,AX,1,100,-0.484
1574944611.532299,60779.000,10144,4,AX,1,100,-0.482
1574944611.570349,60811.000,10164,4,AX,1,100,-0.490
1574944611.608399,60843.000,10164,4,AX,1,100,-0.492
1574944611.646448,60875.000,10164,4,AX,1,100,-0.484
1574944611.684498,60907.000,10164,4,AX,1,100,-0.486
1574944611.722944,60939.333,10183,3,AX,1,100,-0.485
1574944611.761391,60971.667,10183,3,AX,1,100,-0.485
1574944611.799837,61004.000,10183,3,AX,1,100,-0.487
1574944611.840661,61038.333,10199,3,AX,1,100,-0.490
1574944611.881485,61072.667,10199,3,AX,1,100,-0.486
1574944611.922310,61107.000,10199,3,AX,1,100,-0.487
1574944611.963134,61141.333,10217,3,AX,1,100,-0.488
1574944612.003958,61175.667,10217,3,AX,1,100,-0.481
1574944612.044783,61210.000,10217,3,AX,1,100,-0.482
1574944612.086400,61245.000,10235,2,AX,1,100,-0.485
1574944612.128017,61280.000,10235,2,AX,1,100,-0.486
1574944612.170823,61316.000,10253,3,AX,1,100,-0.486
1574944612.213629,61352.000,10253,3,AX,1,100,-0.488
1574944612.256435,61388.000,10253,3,AX,1,100,-0.486
1574944612.293296,61419.000,10271,4,AX,1,100,-0.484
1574944612.330157,61450.000,10271,4,AX,1,100,-0.484
1574944612.367017,61481.000,10271,4,AX,1,100,-0.480
1574944612.403878,61512.000,10271,4,AX,1,100,-0.482
1574944612.446684,61548.000,10289,2,AX,1,100,-0.490
1574944612.489490,61584.000,10289,2,AX,1,100,-0.484
1574944612.526648,61615.250,10307,4,AX,1,100,-0.484
1574944612.563806,61646.500,10307,4,AX,1,100,-0.487
1574944612.600964,61677.750,10307,4,AX,1,100,-0.481
1574944612.638123,61709.000,10307,4,AX,1,100,-0.482
1574944612.679739,61744.000,10326,3,AX,1,100,-0.484
1574944612.721356,61779.000,10326,3,AX,1,100,-0.484
1574944612.762974,61814.000,10326,3,AX,1,100,-0.486
1574944612.802212,61847.000,10343,3,AX,1,100,-0.486
1574944612.841451,61880.000,10343,3,AX,1,100,-0.488
1574944612.880690,61913.000,10343,3,AX,1,100,-0.481
1574944612.922307,61948.000,10361,3,AX,1,100,-0.484
1574944612.963924,61983.000,10361,3,AX,1,100,-0.480
1574944613.005541,62018.000,10361,3,AX,1,100,-0.484
1574944613.046564,62052.500,10377,2,AX,1,100,-0.482
1574944613.087586,62087.000,10377,2,AX,1,100,-0.484
1574944613.129600,62122.333,10395,3,AX,1,100,-0.486
1574944613.171613,62157.667,10395,3,AX,1,100,-0.482
1574944613.213626,62193.000,10395,3,AX,1,100,-0.482
1574944613.251676,62225.000,10413,4,AX,1,100,-0.479
1574944613.289726,62257.000,10413,4,AX,1,100,-0.484
1574944613.327776,62289.000,10413,4,AX,1,100,-0.484
1574944613.365826,62321.000,10413,4,AX,1,100,-0.479
1574944613.405461,62354.333,10431,3,AX,1,100,-0.485
1574944613.445096,62387.667,10431,3,AX,1,100,-0.478
1574944613.484731,62421.000,10431,3,AX,1,100,-0.481
1574944613.524763,62454.667,10449,3,AX,1,100,-0.478
1574944613.564795,62488.333,10449,3,AX,1,100,-0.480
1574944613.604826,62522.000,10449,3,AX,1,100,-0.482
1574944613.644858,62555.667,10467,3,AX,1,100,-0.478
1574944613.684890,62589.333,10467,3,AX,1,100,-0.482
1574944613.724921,62623.000,10467,3,AX,1,100,-0.480
1574944613.765349,62657.000,10486,3,AX,1,100,-0.478
1574944613.805777,62691.000,10486,3,AX,1,100,-0.480
1574944613.846205,62725.000,10486,3,AX,1,100,-0.480
1574944613.887822,62760.000,10504,2,AX,1,100,-0.481
1574944613.929439,62795.000,10504,2,AX,1,100,-0.481
1574944613.975019,62833.333,10521,3,AX,1,100,-0.479
1574944614.020600,62871.667,10521,3,AX,1,100,-0.479
1574944614.066181,62910.000,10521,3,AX,1,100,-0.479
1574944614.103438,62941.333,10539,3,AX,1,100,-0.475
1574944614.140695,62972.667,10539,3,AX,1,100,-0.479
1574944614.177952,63004.000,10539,3,AX,1,100,-0.481
1574944614.216398,63036.333,10557,3,AX,1,100,-0.483
1574944614.254844,63068.667,10557,3,AX,1,100,-0.478
1574944614.293291,63101.000,10557,3,AX,1,100,-0.479
1574944614.334115,63135.333,10573,3,AX,1,100,-0.475
1574944614.374939,63169.667,10573,3,AX,1,100,-0.477
1574944614.415764,63204.000,10573,3,AX,1,100,-0.479
1574944614.455795,63237.667,10591,3,AX,1,100,-0.476
1574944614.495827,63271.333,10591,3,AX,1,100,-0.476
1574944614.535858,63305.000,10591,3,AX,1,100,-0.478
1574944614.578268,63340.667,10609,3,AX,1,100,-0.476
1574944614.620678,63376.333,10609,3,AX,1,100,-0.479
1574944614.663088,63412.000,10609,3,AX,1,100,-0.473
1574944614.704308,63446.667,10628,3,AX,1,100,-0.478
1574944614.745529,63481.333,10628,3,AX,1,100,-0.475
1574944614.786750,63516.000,10628,3,AX,1,100,-0.472
1574944614.825592,63548.667,10646,3,AX,1,100,-0.478
1574944614.864434,63581.333,10646,3,AX,1,100,-0.477
1574944614.903277,63614.000,10646,3,AX,1,100,-0.479
1574944614.943705,63648.000,10664,3,AX,1,100,-0.479
1574944614.984133,63682.000,10664,3,AX,1,100,-0.478
1574944615.024561,63716.000,10664,3,AX,1,100,-0.471
1574944615.065385,63750.333,10682,3,AX,1,100,-0.468
1574944615.106210,63784.667,10682,3,AX,1,100,-0.474
1574944615.147034,63819.000,10682,3,AX,1,100,-0.475
1574944615.188255,63853.667,10699,3,AX,1,100,-0.479
1574944615.229475,63888.333,10699,3,AX,1,100,-0.481
1574944615.270696,63923.000,10699,3,AX,1,100,-0.482
1574944615.309538,63955.667,10717,3,AX,1,100,-0.480
1574944615.348381,63988.333,10717,3,AX,1,100,-0.474
1574944615.387223,64021.000,10717,3,AX,1,100,-0.473
1574944615.425273,64053.000,10735,3,AX,1,100,-0.473
1574944615.463323,64085.000,10735,3,AX,1,100,-0.476
1574944615.501373,64117.000,10735,3,AX,1,100,-0.480
1574944615.541801,64151.000,10751,3,AX,1,100,-0.477
1574944615.582229,64185.000,10751,3,AX,1,100,-0.478
1574944615.622657,64219.000,10751,3,AX,1,100,-0.477
1574944615.667841,64257.000,10770,3,AX,1,100,-0.473
1574944615.713025,64295.000,10770,3,AX,1,100,-0.473
1574944615.758209,64333.000,10770,3,AX,1,100,-0.477
1574944615.799430,64367.667,10788,3,AX,1,100,-0.475
1574944615.840651,64402.333,10788,3,AX,1,100,-0.479
1574944615.881871,64437.000,10788,3,AX,1,100,-0.479
1574944615.919525,64468.667,10806,3,AX,1,100,-0.473
1574944615.957179,64500.333,10806,3,AX,1,100,-0.478
1574944615.994832,64532.000,10806,3,AX,1,100,-0.475
1574944616.033278,64564.333,10824,3,AX,1,100,-0.474
1574944616.071724,64596.667,10824,3,AX,1,100,-0.474
1574944616.110171,64629.000,10824,3,AX,1,100,-0.477
1574944616.150202,64662.667,10842,3,AX,1,100,-0.477
1574944616.190234,64696.333,10842,3,AX,1,100,-0.476
1574944616.230265,64730.000,10842,3,AX,1,100,-0.475
1574944616.271882,64765.000,10860,3,AX,1,100,-0.475
1574944616.313499,64800.000,10860,3,AX,1,100,-0.473
1574944616.355116,64835.000,10860,3,AX,1,100,-0.474
1574944616.402084,64874.500,10877,2,AX,1,100,-0.474
1574944616.449052,64914.000,10877,2,AX,1,100,-0.474
1574944616.488291,64947.000,10895,4,AX,1,100,-0.475
1574944616.527530,64980.000,10895,4,AX,1,100,-0.474
1574944616.566769,65013.000,10895,4,AX,1,100,-0.476
1574944616.606008,65046.000,10895,4,AX,1,100,-0.477
1574944616.652381,65085.000,10911,2,AX,1,100,-0.473
1574944616.698754,65124.000,10911,2,AX,1,100,-0.471
1574944616.739182,65158.000,10930,3,AX,1,100,-0.477
1574944616.779610,65192.000,10930,3,AX,1,100,-0.472
1574944616.820038,65226.000,10930,3,AX,1,100,-0.473
1574944616.858484,65258.333,10948,3,AX,1,100,-0.475
1574944616.896930,65290.667,10948,3,AX,1,100,-0.470
1574944616.935377,65323.000,10948,3,AX,1,100,-0.473
1574944616.974615,65356.000,10966,3,AX,1,100,-0.475
1574944617.013854,65389.000,10966,3,AX,1,100,-0.476
1574944617.053093,65422.000,10966,3,AX,1,100,-0.473
1574944617.091738,65454.500,10984,4,AX,1,100,-0.473
1574944617.130382,65487.000,10984,4,AX,1,100,-0.474
1574944617.169026,65519.500,10984,4,AX,1,100,-0.472
1574944617.207671,65552.000,10984,4,AX,1,100,-0.469
1574944617.248495,65586.333,11002,3,AX,1,100,-0.471
1574944617.289319,65620.667,11002,3,AX,1,100,-0.474
1574944617.330144,65655.000,11002,3,AX,1,100,-0.474
1574944617.370572,65689.000,11020,2,AX,1,100,-0.473
1574944617.411000,65723.000,11020,2,AX,1,100,-0.471
1574944617.451903,65757.400,11041,5,AX,1,100,-0.462
1574944617.492807,65791.800,11041,5,AX,1,100,-0.481
1574944617.533710,65826.200,11041,5,AX,1,100,-0.491
1574944617.574614,65860.600,11041,5,AX,1,100,-0.480
1574944617.615517,65895.000,11041,5,AX,1,100,-0.482
1574944617.653964,65927.333,11062,3,AX,1,100,-0.475
1574944617.692410,65959.667,11062,3,AX,1,100,-0.471
1574944617.730856,65992.000,11062,3,AX,1,100,-0.474
1574944617.772869,66027.333,11080,3,AX,1,100,-0.469
1574944617.814883,66062.667,11080,3,AX,1,100,-0.466
1574944617.856896,66098.000,11080,3,AX,1,100,-0.469
1574944617.897324,66132.000,11098,3,AX,1,100,-0.469
1574944617.937752,66166.000,11098,3,AX,1,100,-0.469
1574944617.978180,66200.000,11098,3,AX,1,100,-0.465
1574944618.019401,66234.667,11116,3,AX,1,100,-0.466
1574944618.060621,66269.333,11116,3,AX,1,100,-0.464
1574944618.101842,66304.000,11116,3,AX,1,100,-0.467
1574944618.143459,66339.000,11134,3,AX,1,100,-0.466
1574944618.185076,66374.000,11134,3,AX,1,100,-0.466
1574944618.226693,66409.000,11134,3,AX,1,100,-0.466
1574944618.263554,66440.000,11152,3,AX,1,100,-0.467
1574944618.300415,66471.000,11152,3,AX,1,100,-0.467
1574944618.337276,66502.000,11152,3,AX,1,100,-0.468
1574944618.376118,66534.667,11169,3,AX,1,100,-0.466
1574944618.414961,66567.333,11169,3,AX,1,100,-0.466
1574944618.453803,66600.000,11169,3,AX,1,100,-0.469
1574944618.494231,66634.000,11187,3,AX,1,100,-0.466
1574944618.534659,66668.000,11187,3,AX,1,100,-0.464
1574944618.575087,66702.000,11187,3,AX,1,100,-0.466
1574944618.620271,66740.000,11203,3,AX,1,100,-0.464
1574944618.665455,66778.000,11203,3,AX,1,100,-0.462
1574944618.710639,66816.000,11203,3,AX,1,100,-0.467
1574944618.752653,66851.333,11222,3,AX,1,100,-0.467
1574944618.794666,66886.667,11222,3,AX,1,100,-0.466
1574944618.836680,66922.000,11222,3,AX,1,100,-0.470
1574944618.873540,66953.000,11240,3,AX,1,100,-0.464
1574944618.910401,66984.000,11240,3,AX,1,100,-0.465
1574944618.947262,67015.000,11240,3,AX,1,100,-0.465
1574944618.985708,67047.333,11258,3,AX,1,100,-0.469
1574944619.024154,67079.667,11258,3,AX,1,100,-0.467
1574944619.062601,67112.000,11258,3,AX,1,100,-0.466
1574944619.103425,67146.333,11276,3,AX,1,100,-0.469
1574944619.144249,67180.667,11276,3,AX,1,100,-0.465
1574944619.185073,67215.000,11276,3,AX,1,100,-0.467
1574944619.226691,67250.000,11294,3,AX,1,100,-0.464
1574944619.268307,67285.000,11294,3,AX,1,100,-0.466
1574944619.309925,67320.000,11294,3,AX,1,100,-0.466
1574944619.351938,67355.333,11312,3,AX,1,100,-0.465
1574944619.393951,67390.667,11312,3,AX,1,100,-0.467
1574944619.435965,67426.000,11312,3,AX,1,100,-0.464
1574944619.479365,67462.500,11329,2,AX,1,100,-0.468
1574944619.522766,67499.000,11329,2,AX,1,100,-0.466
1574944619.560221,67530.500,11347,4,AX,1,100,-0.465
1574944619.597677,67562.000,11347,4,AX,1,100,-0.467
1574944619.635132,67593.500,11347,4,AX,1,100,-0.465
1574944619.672587,67625.000,11347,4,AX,1,100,-0.466
1574944619.713808,67659.667,11366,3,AX,1,100,-0.468
1574944619.755028,67694.333,11366,3,AX,1,100,-0.465
1574944619.796249,67729.000,11366,3,AX,1,100,-0.464
1574944619.837271,67763.500,11382,2,AX,1,100,-0.463
1574944619.878294,67798.000,11382,2,AX,1,100,-0.464
1574944619.919317,67832.500,11400,4,AX,1,100,-0.466
1574944619.960339,67867.000,11400,4,AX,1,100,-0.464
1574944620.001362,67901.500,11400,4,AX,1,100,-0.464
1574944620.042384,67936.000,11400,4,AX,1,100,-0.462
1574944620.082812,67970.000,11418,2,AX,1,100,-0.460
1574944620.123240,68004.000,11418,2,AX,1,100,-0.457
1574944620.160695,68035.500,11436,4,AX,1,100,-0.460
1574944620.198151,68067.000,11436,4,AX,1,100,-0.461
1574944620.235606,68098.500,11436,4,AX,1,100,-0.465
1574944620.273061,68130.000,11436,4,AX,1,100,-0.469
1574944620.318840,68168.500,11454,2,AX,1,100,-0.467
1574944620.364619,68207.000,11454,2,AX,1,100,-0.460
1574944620.405839,68241.667,11472,3,AX,1,100,-0.458
1574944620.447060,68276.333,11472,3,AX,1,100,-0.462
1574944620.488281,68311.000,11472,3,AX,1,100,-0.453
1574944620.530294,68346.333,11490,3,AX,1,100,-0.458
1574944620.572307,68381.667,11490,3,AX,1,100,-0.461
1574944620.614321,68417.000,11490,3,AX,1,100,-0.464
1574944620.655938,68452.000,11508,3,AX,1,100,-0.461
1574944620.697555,68487.000,11508,3,AX,1,100,-0.458
1574944620.739172,68522.000,11508,3,AX,1,100,-0.455
1574944620.776429,68553.333,11526,3,AX,1,100,-0.455
1574944620.813686,68584.667,11526,3,AX,1,100,-0.455
1574944620.850943,68616.000,11526,3,AX,1,100,-0.459
1574944620.896127,68654.000,11542,3,AX,1,100,-0.461
1574944620.941312,68692.000,11542,3,AX,1,100,-0.462
1574944620.986496,68730.000,11542,3,AX,1,100,-0.458
1574944621.028509,68765.333,11560,3,AX,1,100,-0.456
1574944621.070523,68800.667,11560,3,AX,1,100,-0.451
1574944621.112536,68836.000,11560,3,AX,1,100,-0.456
1574944621.150982,68868.333,11578,3,AX,1,100,-0.460
1574944621.189428,68900.667,11578,3,AX,1,100,-0.454
1574944621.227875,68933.000,11578,3,AX,1,100,-0.459
1574944621.266717,68965.667,11596,3,AX,1,100,-0.458
1574944621.305559,68998.333,11596,3,AX,1,100,-0.456
1574944621.344402,69031.000,11596,3,AX,1,100,-0.452
1574944621.383641,69064.000,11614,3,AX,1,100,-0.458
1574944621.422880,69097.000,11614,3,AX,1,100,-0.457
1574944621.462119,69130.000,11614,3,AX,1,100,-0.459
1574944621.503340,69164.667,11632,3,AX,1,100,-0.461
1574944621.544560,69199.333,11632,3,AX,1,100,-0.457
1574944621.585781,69234.000,11632,3,AX,1,100,-0.454
1574944621.627001,69268.667,11650,3,AX,1,100,-0.455
1574944621.668222,69303.333,11650,3,AX,1,100,-0.457
1574944621.709443,69338.000,11650,3,AX,1,100,-0.456
1574944621.752645,69374.333,11668,3,AX,1,100,-0.457
1574944621.795848,69410.667,11668,3,AX,1,100,-0.455
1574944621.839050,69447.000,11668,3,AX,1,100,-0.456
1574944621.876704,69478.667,11686,3,AX,1,100,-0.455
1574944621.914357,69510.333,11686,3,AX,1,100,-0.457
1574944621.952010,69542.000,11686,3,AX,1,100,-0.454
1574944621.991646,69575.333,11704,3,AX,1,100,-0.459
1574944622.031281,69608.667,11704,3,AX,1,100,-0.457
1574944622.070916,69642.000,11704,3,AX,1,100,-0.453
1574944622.111741,69676.333,11720,3,AX,1,100,-0.451
1574944622.152565,69710.667,11720,3,AX,1,100,-0.457
1574944622.193389,69745.000,11720,3,AX,1,100,-0.452
1574944622.234610,69779.667,11738,3,AX,1,100,-0.456
1574944622.275831,69814.333,11738,3,AX,1,100,-0.462
1574944622.317051,69849.000,11738,3,AX,1,100,-0.454
1574944622.357479,69883.000,11756,3,AX,1,100,-0.452
1574944622.397907,69917.000,11756,3,AX,1,100,-0.446
1574944622.438335,69951.000,11756,3,AX,1,100,-0.441
1574944622.475592,69982.333,11774,3,AX,1,100,-0.455
1574944622.512849,70013.667,11774,3,AX,1,100,-0.465
1574944622.550107,70045.000,11774,3,AX,1,100,-0.448
1574944622.593309,70081.333,11792,3,AX,1,100,-0.449
1574944622.636511,70117.667,11792,3,AX,1,100,-0.450
1574944622.679714,70154.000,11792,3,AX,1,100,-0.447
1574944622.720736,70188.500,11811,2,AX,1,100,-0.448
1574944622.761759,70223.000,11811,2,AX,1,100,-0.452
1574944622.802979,70257.667,11829,3,AX,1,100,-0.452
1574944622.844200,70292.333,11829,3,AX,1,100,-0.458
1574944622.885421,70327.000,11829,3,AX,1,100,-0.453
1574944622.927434,70362.333,11846,3,AX,1,100,-0.451
1574944622.969447,70397.667,11846,3,AX,1,100,-0.447
1574944623.011461,70433.000,11846,3,AX,1,100,-0.448
1574944623.048916,70464.500,11864,4,AX,1,100,-0.456
1574944623.086371,70496.000,11864,4,AX,1,100,-0.453
1574944623.123827,70527.500,11864,4,AX,1,100,-0.452
1574944623.161282,70559.000,11864,4,AX,1,100,-0.452
1574944623.200521,70592.000,11882,3,AX,1,100,-0.448
1574944623.239760,70625.000,11882,3,AX,1,100,-0.450
1574944623.278999,70658.000,11882,3,AX,1,100,-0.450
1574944623.320021,70692.500,11898,2,AX,1,100,-0.452
1574944623.361044,70727.000,11898,2,AX,1,100,-0.455
1574944623.406624,70765.333,11916,3,AX,1,100,-0.450
1574944623.452205,70803.667,11916,3,AX,1,100,-0.451
1574944623.497785,70842.000,11916,3,AX,1,100,-0.452
1574944623.537738,70875.600,11937,5,AX,1,100,-0.452
1574944623.577690,70909.200,11937,5,AX,1,100,-0.449
1574944623.617642,70942.800,11937,5,AX,1,100,-0.452
1574944623.657595,70976.400,11937,5,AX,1,100,-0.450
1574944623.697547,71010.000,11937,5,AX,1,100,-0.450
1574944623.734408,71041.000,11957,3,AX,1,100,-0.451
1574944623.771269,71072.000,11957,3,AX,1,100,-0.447
1574944623.808129,71103.000,11957,3,AX,1,100,-0.452
1574944623.848161,71136.667,11975,3,AX,1,100,-0.451
1574944623.888193,71170.333,11975,3,AX,1,100,-0.448
1574944623.928224,71204.000,11975,3,AX,1,100,-0.451
1574944623.969049,71238.333,11991,3,AX,1,100,-0.446
1574944624.009873,71272.667,11991,3,AX,1,100,-0.450
1574944624.050697,71307.000,11991,3,AX,1,100,-0.449
1574944624.091918,71341.667,12009,3,AX,1,100,-0.448
1574944624.133138,71376.333,12009,3,AX,1,100,-0.449
1574944624.174359,71411.000,12009,3,AX,1,100,-0.450
1574944624.218354,71448.000,12027,3,AX,1,100,-0.448
1574944624.262349,71485.000,12027,3,AX,1,100,-0.446
1574944624.306345,71522.000,12027,3,AX,1,100,-0.446
1574944624.343602,71553.333,12045,3,AX,1,100,-0.447
1574944624.380859,71584.667,12045,3,AX,1,100,-0.445
1574944624.418116,71616.000,12045,3,AX,1,100,-0.446
1574944624.456562,71648.333,12063,3,AX,1,100,-0.449
1574944624.495008,71680.667,12063,3,AX,1,100,-0.453
1574944624.533454,71713.000,12063,3,AX,1,100,-0.448
1574944624.574675,71747.667,12081,3,AX,1,100,-0.452
1574944624.615896,71782.333,12081,3,AX,1,100,-0.447
1574944624.657116,71817.000,12081,3,AX,1,100,-0.446
1574944624.694770,71848.667,12100,3,AX,1,100,-0.448
1574944624.732424,71880.333,12100,3,AX,1,100,-0.444
1574944624.770077,71912.000,12100,3,AX,1,100,-0.448
1574944624.810901,71946.333,12118,3,AX,1,100,-0.451
1574944624.851726,71980.667,12118,3,AX,1,100,-0.450
1574944624.892550,72015.000,12118,3,AX,1,100,-0.449
1574944624.932978,72049.000,12135,3,AX,1,100,-0.451
1574944624.973406,72083.000,12135,3,AX,1,100,-0.450
1574944625.013834,72117.000,12135,3,AX,1,100,-0.446
1574944625.055054,72151.667,12153,3,AX,1,100,-0.448
1574944625.096275,72186.333,12153,3,AX,1,100,-0.447
1574944625.137496,72221.000,12153,3,AX,1,100,-0.448
1574944625.179113,72256.000,12169,3,AX,1,100,-0.451
1574944625.220730,72291.000,12169,3,AX,1,100,-0.449
1574944625.262347,72326.000,12169,3,AX,1,100,-0.448
1574944625.300793,72358.333,12187,3,AX,1,100,-0.450
1574944625.339239,72390.667,12187,3,AX,1,100,-0.451
1574944625.377685,72423.000,12187,3,AX,1,100,-0.448
1574944625.416131,72455.333,12205,3,AX,1,100,-0.449
1574944625.454578,72487.667,12205,3,AX,1,100,-0.448
1574944625.493024,72520.000,12205,3,AX,1,100,-0.443
1574944625.533056,72553.667,12223,3,AX,1,100,-0.448
1574944625.573087,72587.333,12223,3,AX,1,100,-0.450
1574944625.613119,72621.000,12223,3,AX,1,100,-0.447
1574944625.654339,72655.667,12242,3,AX,1,100,-0.452
1574944625.695560,72690.333,12242,3,AX,1,100,-0.448
1574944625.736781,72725.000,12242,3,AX,1,100,-0.448
1574944625.777209,72759.000,12260,3,AX,1,100,-0.451
1574944625.817637,72793.000,12260,3,AX,1,100,-0.453
1574944625.858065,72827.000,12260,3,AX,1,100,-0.450
1574944625.903249,72865.000,12278,3,AX,1,100,-0.449
1574944625.948433,72903.000,12278,3,AX,1,100,-0.450
1574944625.993617,72941.000,12278,3,AX,1,100,-0.446
1574944626.035234,72976.000,12295,2,AX,1,100,-0.447
1574944626.076851,73011.000,12295,2,AX,1,100,-0.446
1574944626.115496,73043.500,12313,4,AX,1,100,-0.449
1574944626.154140,73076.000,12313,4,AX,1,100,-0.451
1574944626.192784,73108.500,12313,4,AX,1,100,-0.450
1574944626.231429,73141.000,12313,4,AX,1,100,-0.448
1574944626.269082,73172.667,12331,3,AX,1,100,-0.450
1574944626.306736,73204.333,12331,3,AX,1,100,-0.451
1574944626.344389,73236.000,12331,3,AX,1,100,-0.448
1574944626.384817,73270.000,12349,3,AX,1,100,-0.451
1574944626.425245,73304.000,12349,3,AX,1,100,-0.452
1574944626.465673,73338.000,12349,3,AX,1,100,-0.446
1574944626.506497,73372.333,12365,3,AX,1,100,-0.451
1574944626.547322,73406.667,12365,3,AX,1,100,-0.445
1574944626.588146,73441.000,12365,3,AX,1,100,-0.444
1574944626.628970,73475.333,12383,3,AX,1,100,-0.447
1574944626.669795,73509.667,12383,3,AX,1,100,-0.448
1574944626.710619,73544.000,12383,3,AX,1,100,-0.448
1574944626.755803,73582.000,12402,2,AX,1,100,-0.449
1574944626.800987,73620.000,12402,2,AX,1,100,-0.448
1574944626.838740,73651.750,12420,4,AX,1,100,-0.445
1574944626.876493,73683.500,12420,4,AX,1,100,-0.446
1574944626.914245,73715.250,12420,4,AX,1,100,-0.447
1574944626.951998,73747.000,12420,4,AX,1,100,-0.448
1574944626.992029,73780.667,12438,3,AX,1,100,-0.448
1574944627.032061,73814.333,12438,3,AX,1,100,-0.445
1574944627.072093,73848.000,12438,3,AX,1,100,-0.449
1574944627.113709,73883.000,12456,2,AX,1,100,-0.446
1574944627.155326,73918.000,12456,2,AX,1,100,-0.445
1574944627.196547,73952.667,12474,3,AX,1,100,-0.445
1574944627.237768,73987.333,12474,3,AX,1,100,-0.445
1574944627.278988,74022.000,12474,3,AX,1,100,-0.448
1574944627.319813,74056.333,12491,3,AX,1,100,-0.448
1574944627.360637,74090.667,12491,3,AX,1,100,-0.443
1574944627.401461,74125.000,12491,3,AX,1,100,-0.448
1574944627.438917,74156.500,12509,4,AX,1,100,-0.444
1574944627.476372,74188.000,12509,4,AX,1,100,-0.443
1574944627.513827,74219.500,12509,4,AX,1,100,-0.447
1574944627.551283,74251.000,12509,4,AX,1,100,-0.448
1574944627.591711,74285.000,12527,2,AX,1,100,-0.448
1574944627.632138,74319.000,12527,2,AX,1,100,-0.449
1574944627.676926,74356.667,12544,3,AX,1,100,-0.447
1574944627.721714,74394.333,12544,3,AX,1,100,-0.443
1574944627.766502,74432.000,12544,3,AX,1,100,-0.445
1574944627.807326,74466.333,12562,3,AX,1,100,-0.444
1574944627.848151,74500.667,12562,3,AX,1,100,-0.446
1574944627.888975,74535.000,12562,3,AX,1,100,-0.448
1574944627.929007,74568.667,12580,3,AX,1,100,-0.448
1574944627.969038,74602.333,12580,3,AX,1,100,-0.447
1574944628.009070,74636.000,12580,3,AX,1,100,-0.447
1574944628.047120,74668.000,12598,3,AX,1,100,-0.445
1574944628.085170,74700.000,12598,3,AX,1,100,-0.446
1574944628.123219,74732.000,12598,3,AX,1,100,-0.449
1574944628.161269,74764.000,12616,3,AX,1,100,-0.444
1574944628.199319,74796.000,12616,3,AX,1,100,-0.445
1574944628.237369,74828.000,12616,3,AX,1,100,-0.446
1574944628.278986,74863.000,12634,3,AX,1,100,-0.443
1574944628.320603,74898.000,12634,3,AX,1,100,-0.444
1574944628.362220,74933.000,12634,3,AX,1,100,-0.445
1574944628.407404,74971.000,12652,3,AX,1,100,-0.448
1574944628.452588,75009.000,12652,3,AX,1,100,-0.445
1574944628.497772,75047.000,12652,3,AX,1,100,-0.444
1574944628.536615,75079.667,12669,3,AX,1,100,-0.443
1574944628.575458,75112.333,12669,3,AX,1,100,-0.444
1574944628.614300,75145.000,12669,3,AX,1,100,-0.444
1574944628.659088,75182.667,12688,3,AX,1,100,-0.446
1574944628.703876,75220.333,12688,3,AX,1,100,-0.447
1574944628.748664,75258.000,12688,3,AX,1,100,-0.447
1574944628.789488,75292.333,12704,3,AX,1,100,-0.446
1574944628.830312,75326.667,12704,3,AX,1,100,-0.444
1574944628.871136,75361.000,12704,3,AX,1,100,-0.445
1574944628.908790,75392.667,12722,3,AX,1,100,-0.443
1574944628.946444,75424.333,12722,3,AX,1,100,-0.446
1574944628.984097,75456.000,12722,3,AX,1,100,-0.449
1574944629.022939,75488.667,12740,3,AX,1,100,-0.451
1574944629.061782,75521.333,12740,3,AX,1,100,-0.443
1574944629.100625,75554.000,12740,3,AX,1,100,-0.444
1574944629.142242,75589.000,12758,3,AX,1,100,-0.443
1574944629.183859,75624.000,12758,3,AX,1,100,-0.442
1574944629.225476,75659.000,12758,3,AX,1,100,-0.445
1574944629.266696,75693.667,12776,3,AX,1,100,-0.448
1574944629.307917,75728.333,12776,3,AX,1,100,-0.449
1574944629.349138,75763.000,12776,3,AX,1,100,-0.446
1574944629.390755,75798.000,12794,3,AX,1,100,-0.443
1574944629.432372,75833.000,12794,3,AX,1,100,-0.444
1574944629.473989,75868.000,12794,3,AX,1,100,-0.440
1574944629.515606,75903.000,12812,3,AX,1,100,-0.443
1574944629.557223,75938.000,12812,3,AX,1,100,-0.448
1574944629.598840,75973.000,12812,3,AX,1,100,-0.447
1574944629.638673,76006.500,12833,4,AX,1,100,-0.444
1574944629.678507,76040.000,12833,4,AX,1,100,-0.444
1574944629.718340,76073.500,12833,4,AX,1,100,-0.440
1574944629.758173,76107.000,12833,4,AX,1,100,-0.443
1574944629.799394,76141.667,12854,3,AX,1,100,-0.444
1574944629.840615,76176.333,12854,3,AX,1,100,-0.445
1574944629.881835,76211.000,12854,3,AX,1,100,-0.445
1574944629.921471,76244.333,12872,3,AX,1,100,-0.444
1574944629.961106,76277.667,12872,3,AX,1,100,-0.439
1574944630.000741,76311.000,12872,3,AX,1,100,-0.435
1574944630.041566,76345.333,12890,3,AX,1,100,-0.440
1574944630.082390,76379.667,12890,3,AX,1,100,-0.438
1574944630.123214,76414.000,12890,3,AX,1,100,-0.438
1574944630.164831,76449.000,12908,3,AX,1,100,-0.444
1574944630.206448,76484.000,12908,3,AX,1,100,-0.443
1574944630.248065,76519.000,12908,3,AX,1,100,-0.442
1574944630.286511,76551.333,12926,3,AX,1,100,-0.444
1574944630.324958,76583.667,12926,3,AX,1,100,-0.439
1574944630.363404,76616.000,12926,3,AX,1,100,-0.437
1574944630.401850,76648.333,12943,3,AX,1,100,-0.437
1574944630.440296,76680.667,12943,3,AX,1,100,-0.439
1574944630.478742,76713.000,12943,3,AX,1,100,-0.437
1574944630.517981,76746.000,12961,3,AX,1,100,-0.441
1574944630.557220,76779.000,12961,3,AX,1,100,-0.438
1574944630.596459,76812.000,12961,3,AX,1,100,-0.437
1574944630.640851,76849.333,12977,3,AX,1,100,-0.434
1574944630.685242,76886.667,12977,3,AX,1,100,-0.437
1574944630.729634,76924.000,12977,3,AX,1,100,-0.434
1574944630.770854,76958.667,12996,3,AX,1,100,-0.438
1574944630.812075,76993.333,12996,3,AX,1,100,-0.438
1574944630.853296,77028.000,12996,3,AX,1,100,-0.437
1574944630.892534,77061.000,13014,3,AX,1,100,-0.434
1574944630.931773,77094.000,13014,3,AX,1,100,-0.436
1574944630.971012,77127.000,13014,3,AX,1,100,-0.437
1574944631.009062,77159.000,13032,3,AX,1,100,-0.439
1574944631.047112,77191.000,13032,3,AX,1,100,-0.439
1574944631.085162,77223.000,13032,3,AX,1,100,-0.439
1574944631.124797,77256.333,13050,3,AX,1,100,-0.435
1574944631.164432,77289.667,13050,3,AX,1,100,-0.436
1574944631.204067,77323.000,13050,3,AX,1,100,-0.437
1574944631.245288,77357.667,13068,3,AX,1,100,-0.438
1574944631.286509,77392.333,13068,3,AX,1,100,-0.437
1574944631.327729,77427.000,13068,3,AX,1,100,-0.438
1574944631.368950,77461.667,13086,3,AX,1,100,-0.437
1574944631.410171,77496.333,13086,3,AX,1,100,-0.439
1574944631.451391,77531.000,13086,3,AX,1,100,-0.436
1574944631.494594,77567.333,13104,3,AX,1,100,-0.436
1574944631.537796,77603.667,13104,3,AX,1,100,-0.436
1574944631.580999,77640.000,13104,3,AX,1,100,-0.438
1574944631.618652,77671.667,13121,3,AX,1,100,-0.436
1574944631.656306,77703.333,13121,3,AX,1,100,-0.436
1574944631.693959,77735.000,13121,3,AX,1,100,-0.439
1574944631.733594,77768.333,13140,3,AX,1,100,-0.435
1574944631.773230,77801.667,13140,3,AX,1,100,-0.440
1574944631.812865,77835.000,13140,3,AX,1,100,-0.438
1574944631.854482,77870.000,13158,3,AX,1,100,-0.428
1574944631.896099,77905.000,13158,3,AX,1,100,-0.431
1574944631.937716,77940.000,13158,3,AX,1,100,-0.434
1574944631.978540,77974.333,13174,3,AX,1,100,-0.434
1574944632.019365,78008.667,13174,3,AX,1,100,-0.435
1574944632.060189,78043.000,13174,3,AX,1,100,-0.437
1574944632.100617,78077.000,13192,3,AX,1,100,-0.437
1574944632.141045,78111.000,13192,3,AX,1,100,-0.434
1574944632.181473,78145.000,13192,3,AX,1,100,-0.433
1574944632.219126,78176.667,13210,3,AX,1,100,-0.434
1574944632.256780,78208.333,13210,3,AX,1,100,-0.433
1574944632.294433,78240.000,13210,3,AX,1,100,-0.437
1574944632.337240,78276.000,13228,3,AX,1,100,-0.434
1574944632.380045,78312.000,13228,3,AX,1,100,-0.432
1574944632.422852,78348.000,13228,3,AX,1,100,-0.435
1574944632.464468,78383.000,13246,3,AX,1,100,-0.431
1574944632.506086,78418.000,13246,3,AX,1,100,-0.432
1574944632.547703,78453.000,13246,3,AX,1,100,-0.430
1574944632.582185,78482.000,13264,2,AX,1,100,-0.432
1574944632.616668,78511.000,13264,2,AX,1,100,-0.433
1574944632.658285,78546.000,13283,4,AX,1,100,-0.428
1574944632.699902,78581.000,13283,4,AX,1,100,-0.432
1574944632.741519,78616.000,13283,4,AX,1,100,-0.427
1574944632.783136,78651.000,13283,4,AX,1,100,-0.428
1574944632.823564,78685.000,13300,3,AX,1,100,-0.431
1574944632.863992,78719.000,13300,3,AX,1,100,-0.434
1574944632.904420,78753.000,13300,3,AX,1,100,-0.433
1574944632.950793,78792.000,13318,2,AX,1,100,-0.436
1574944632.997166,78831.000,13318,2,AX,1,100,-0.429
1574944633.038387,78865.667,13334,3,AX,1,100,-0.429
1574944633.079608,78900.333,13334,3,AX,1,100,-0.429
1574944633.120828,78935.000,13334,3,AX,1,100,-0.429
1574944633.161256,78969.000,13352,3,AX,1,100,-0.430
1574944633.201684,79003.000,13352,3,AX,1,100,-0.431
1574944633.242112,79037.000,13352,3,AX,1,100,-0.431
1574944633.280162,79069.000,13370,3,AX,1,100,-0.431
1574944633.318212,79101.000,13370,3,AX,1,100,-0.429
1574944633.356262,79133.000,13370,3,AX,1,100,-0.428
1574944633.394312,79165.000,13388,3,AX,1,100,-0.427
1574944633.432361,79197.000,13388,3,AX,1,100,-0.430
1574944633.470411,79229.000,13388,3,AX,1,100,-0.428
1574944633.511235,79263.333,13406,3,AX,1,100,-0.431
1574944633.552060,79297.667,13406,3,AX,1,100,-0.432
1574944633.592884,79332.000,13406,3,AX,1,100,-0.428
1574944633.634105,79366.667,13424,3,AX,1,100,-0.428
1574944633.675326,79401.333,13424,3,AX,1,100,-0.431
1574944633.716546,79436.000,13424,3,AX,1,100,-0.426
1574944633.761730,79474.000,13443,3,AX,1,100,-0.428
1574944633.806915,79512.000,13443,3,AX,1,100,-0.428
1574944633.852099,79550.000,13443,3,AX,1,100,-0.427
1574944633.889752,79581.667,13461,3,AX,1,100,-0.427
1574944633.927406,79613.333,13461,3,AX,1,100,-0.428
1574944633.965059,79645.000,13461,3,AX,1,100,-0.423
1574944634.003902,79677.667,13478,3,AX,1,100,-0.425
1574944634.042744,79710.333,13478,3,AX,1,100,-0.430
1574944634.081587,79743.000,13478,3,AX,1,100,-0.426
1574944634.121619,79776.667,13496,3,AX,1,100,-0.427
1574944634.161650,79810.333,13496,3,AX,1,100,-0.430
1574944634.201682,79844.000,13496,3,AX,1,100,-0.429
1574944634.242902,79878.667,13512,3,AX,1,100,-0.428
1574944634.284123,79913.333,13512,3,AX,1,100,-0.426
1574944634.325344,79948.000,13512,3,AX,1,100,-0.432
1574944634.367357,79983.333,13530,3,AX,1,100,-0.423
1574944634.409370,80018.667,13530,3,AX,1,100,-0.431
1574944634.451384,80054.000,13530,3,AX,1,100,-0.430
1574944634.488245,80085.000,13548,3,AX,1,100,-0.424
1574944634.525105,80116.000,13548,3,AX,1,100,-0.427
1574944634.561966,80147.000,13548,3,AX,1,100,-0.432
1574944634.603583,80182.000,13566,3,AX,1,100,-0.428
1574944634.645200,80217.000,13566,3,AX,1,100,-0.427
1574944634.686817,80252.000,13566,3,AX,1,100,-0.430
1574944634.728038,80286.667,13585,3,AX,1,100,-0.433
1574944634.769258,80321.333,13585,3,AX,1,100,-0.430
1574944634.810479,80356.000,13585,3,AX,1,100,-0.431
1574944634.852096,80391.000,13603,3,AX,1,100,-0.430
1574944634.893713,80426.000,13603,3,AX,1,100,-0.428
1574944634.935330,80461.000,13603,3,AX,1,100,-0.426
1574944634.977344,80496.333,13621,3,AX,1,100,-0.427
1574944635.019357,80531.667,13621,3,AX,1,100,-0.426
1574944635.061370,80567.000,13621,3,AX,1,100,-0.430
1574944635.099024,80598.667,13639,3,AX,1,100,-0.428
1574944635.136677,80630.333,13639,3,AX,1,100,-0.428
1574944635.174331,80662.000,13639,3,AX,1,100,-0.428
1574944635.211984,80693.667,13656,3,AX,1,100,-0.432
1574944635.249638,80725.333,13656,3,AX,1,100,-0.425
1574944635.287291,80757.000,13656,3,AX,1,100,-0.423
1574944635.328115,80791.333,13674,3,AX,1,100,-0.428
1574944635.368940,80825.667,13674,3,AX,1,100,-0.426
1574944635.409764,80860.000,13674,3,AX,1,100,-0.423
1574944635.454948,80898.000,13690,3,AX,1,100,-0.433
1574944635.500133,80936.000,13690,3,AX,1,100,-0.430
1574944635.545317,80974.000,13690,3,AX,1,100,-0.429
1574944635.586141,81008.333,13708,3,AX,1,100,-0.425
1574944635.626965,81042.667,13708,3,AX,1,100,-0.424
1574944635.667790,81077.000,13708,3,AX,1,100,-0.428
1574944635.705839,81109.000,13730,5,AX,1,100,-0.426
1574944635.743889,81141.000,13730,5,AX,1,100,-0.431
1574944635.781939,81173.000,13730,5,AX,1,100,-0.427
1574944635.819989,81205.000,13730,5,AX,1,100,-0.431
1574944635.858039,81237.000,13730,5,AX,1,100,-0.430
1574944635.898467,81271.000,13749,2,AX,1,100,-0.430
1574944635.938895,81305.000,13749,2,AX,1,100,-0.426
1574944635.979026,81338.750,13767,4,AX,1,100,-0.421
1574944636.019156,81372.500,13767,4,AX,1,100,-0.424
1574944636.059287,81406.250,13767,4,AX,1,100,-0.416
1574944636.099418,81440.000,13767,4,AX,1,100,-0.427
1574944636.140242,81474.333,13785,3,AX,1,100,-0.433
1574944636.181066,81508.667,13785,3,AX,1,100,-0.425
1574944636.221890,81543.000,13785,3,AX,1,100,-0.420
1574944636.270047,81583.500,13801,2,AX,1,100,-0.422
1574944636.318204,81624.000,13801,2,AX,1,100,-0.419
1574944636.355461,81655.333,13819,3,AX,1,100,-0.414
1574944636.392719,81686.667,13819,3,AX,1,100,-0.418
1574944636.429976,81718.000,13819,3,AX,1,100,-0.424
1574944636.470800,81752.333,13837,3,AX,1,100,-0.430
1574944636.511624,81786.667,13837,3,AX,1,100,-0.427
1574944636.552449,81821.000,13837,3,AX,1,100,-0.419
1574944636.593273,81855.333,13855,3,AX,1,100,-0.415
1574944636.634097,81889.667,13855,3,AX,1,100,-0.410
1574944636.674922,81924.000,13855,3,AX,1,100,-0.415
1574944636.710989,81954.333,13874,3,AX,1,100,-0.413
1574944636.747058,81984.667,13874,3,AX,1,100,-0.416
1574944636.783126,82015.000,13874,3,AX,1,100,-0.423
1574944636.823950,82049.333,13892,3,AX,1,100,-0.412
1574944636.864774,82083.667,13892,3,AX,1,100,-0.414
1574944636.905599,82118.000,13892,3,AX,1,100,-0.406
1574944636.944838,82151.000,13910,3,AX,1,100,-0.407
1574944636.984076,82184.000,13910,3,AX,1,100,-0.407
1574944637.023315,82217.000,13910,3,AX,1,100,-0.405
1574944637.064932,82252.000,13927,3,AX,1,100,-0.412
1574944637.106549,82287.000,13927,3,AX,1,100,-0.429
1574944637.148166,82322.000,13927,3,AX,1,100,-0.439
1574944637.188991,82356.333,13945,3,AX,1,100,-0.410
1574944637.229815,82390.667,13945,3,AX,1,100,-0.398
1574944637.270639,82425.000,13945,3,AX,1,100,-0.406
1574944637.311067,82459.000,13963,3,AX,1,100,-0.407
1574944637.351495,82493.000,13963,3,AX,1,100,-0.413
1574944637.391923,82527.000,13963,3,AX,1,100,-0.428
1574944637.429973,82559.000,13979,3,AX,1,100,-0.423
1574944637.468023,82591.000,13979,3,AX,1,100,-0.410
1574944637.506073,82623.000,13979,3,AX,1,100,-0.408
1574944637.544519,82655.333,13997,3,AX,1,100,-0.414
1574944637.582965,82687.667,13997,3,AX,1,100,-0.409
1574944637.621411,82720.000,13997,3,AX,1,100,-0.415
1574944637.662235,82754.333,14016,3,AX,1,100,-0.419
1574944637.703060,82788.667,14016,3,AX,1,100,-0.415
1574944637.743884,82823.000,14016,3,AX,1,100,-0.419
1574944637.788672,82860.667,14034,3,AX,1,100,-0.414
1574944637.833460,82898.333,14034,3,AX,1,100,-0.421
1574944637.878248,82936.000,14034,3,AX,1,100,-0.424
1574944637.919468,82970.667,14052,3,AX,1,100,-0.415
1574944637.960689,83005.333,14052,3,AX,1,100,-0.413
1574944638.001910,83040.000,14052,3,AX,1,100,-0.414
1574944638.039563,83071.667,14070,3,AX,1,100,-0.407
1574944638.077217,83103.333,14070,3,AX,1,100,-0.416
1574944638.114870,83135.000,14070,3,AX,1,100,-0.414
1574944638.153713,83167.667,14088,3,AX,1,100,-0.409
1574944638.192555,83200.333,14088,3,AX,1,100,-0.413
1574944638.231398,83233.000,14088,3,AX,1,100,-0.412
1574944638.271430,83266.667,14106,3,AX,1,100,-0.412
1574944638.311461,83300.333,14106,3,AX,1,100,-0.419
1574944638.351493,83334.000,14106,3,AX,1,100,-0.407
1574944638.392713,83368.667,14123,3,AX,1,100,-0.397
1574944638.433934,83403.333,14123,3,AX,1,100,-0.404
1574944638.475155,83438.000,14123,3,AX,1,100,-0.404
1574944638.519943,83475.667,14141,3,AX,1,100,-0.407
1574944638.564730,83513.333,14141,3,AX,1,100,-0.414
1574944638.609518,83551.000,14141,3,AX,1,100,-0.421
1574944638.647172,83582.667,14157,3,AX,1,100,-0.422
1574944638.684825,83614.333,14157,3,AX,1,100,-0.410
1574944638.722479,83646.000,14157,3,AX,1,100,-0.403
1574944638.760925,83678.333,14176,3,AX,1,100,-0.408
1574944638.799371,83710.667,14176,3,AX,1,100,-0.408
1574944638.837817,83743.000,14176,3,AX,1,100,-0.418
1574944638.878245,83777.000,14194,3,AX,1,100,-0.425
1574944638.918673,83811.000,14194,3,AX,1,100,-0.427
1574944638.959101,83845.000,14194,3,AX,1,100,-0.415
1574944639.000718,83880.000,14212,3,AX,1,100,-0.403
1574944639.042335,83915.000,14212,3,AX,1,100,-0.403
1574944639.083952,83950.000,14212,3,AX,1,100,-0.399
1574944639.125965,83985.333,14230,3,AX,1,100,-0.416
1574944639.167979,84020.667,14230,3,AX,1,100,-0.416
1574944639.209992,84056.000,14230,3,AX,1,100,-0.422
1574944639.248042,84088.000,14248,3,AX,1,100,-0.418
1574944639.286092,84120.000,14248,3,AX,1,100,-0.412
1574944639.324142,84152.000,14248,3,AX,1,100,-0.405
1574944639.361399,84183.333,14266,3,AX,1,100,-0.406
1574944639.398656,84214.667,14266,3,AX,1,100,-0.409
1574944639.435913,84246.000,14266,3,AX,1,100,-0.415
1574944639.480305,84283.333,14284,3,AX,1,100,-0.415
1574944639.524696,84320.667,14284,3,AX,1,100,-0.416
1574944639.569088,84358.000,14284,3,AX,1,100,-0.415
1574944639.610308,84392.667,14301,3,AX,1,100,-0.410
1574944639.651529,84427.333,14301,3,AX,1,100,-0.404
1574944639.692750,84462.000,14301,3,AX,1,100,-0.411
1574944639.733574,84496.333,14320,3,AX,1,100,-0.410
1574944639.774398,84530.667,14320,3,AX,1,100,-0.411
1574944639.815223,84565.000,14320,3,AX,1,100,-0.414
1574944639.854461,84598.000,14338,3,AX,1,100,-0.415
1574944639.893700,84631.000,14338,3,AX,1,100,-0.413
1574944639.932939,84664.000,14338,3,AX,1,100,-0.410
1574944639.969800,84695.000,14354,3,AX,1,100,-0.413
1574944640.006661,84726.000,14354,3,AX,1,100,-0.409
1574944640.043522,84757.000,14354,3,AX,1,100,-0.411
1574944640.087913,84794.333,14372,3,AX,1,100,-0.413
1574944640.132304,84831.667,14372,3,AX,1,100,-0.414
1574944640.176696,84869.000,14372,3,AX,1,100,-0.409
1574944640.218313,84904.000,14390,3,AX,1,100,-0.408
1574944640.259930,84939.000,14390,3,AX,1,100,-0.418
1574944640.301547,84974.000,14390,3,AX,1,100,-0.411
1574944640.339993,85006.333,14408,3,AX,1,100,-0.412
1574944640.378439,85038.667,14408,3,AX,1,100,-0.409
1574944640.416886,85071.000,14408,3,AX,1,100,-0.398
1574944640.463853,85110.500,14426,2,AX,1,100,-0.411
1574944640.510821,85150.000,14426,2,AX,1,100,-0.415
1574944640.548871,85182.000,14444,3,AX,1,100,-0.407
1574944640.586921,85214.000,14444,3,AX,1,100,-0.411
1574944640.624971,85246.000,14444,3,AX,1,100,-0.403
1574944640.669759,85283.667,14462,3,AX,1,100,-0.411
1574944640.714546,85321.333,14462,3,AX,1,100,-0.416
1574944640.759334,85359.000,14462,3,AX,1,100,-0.419
1574944640.801347,85394.333,14480,3,AX,1,100,-0.411
1574944640.843361,85429.667,14480,3,AX,1,100,-0.402
1574944640.885374,85465.000,14480,3,AX,1,100,-0.399
1574944640.923820,85497.333,14496,3,AX,1,100,-0.399
1574944640.962267,85529.667,14496,3,AX,1,100,-0.407
1574944641.000713,85562.000,14496,3,AX,1,100,-0.410
1574944641.039159,85594.333,14514,3,AX,1,100,-0.418
1574944641.077605,85626.667,14514,3,AX,1,100,-0.411
1574944641.116051,85659.000,14514,3,AX,1,100,-0.408
1574944641.156479,85693.000,14532,3,AX,1,100,-0.406
1574944641.196908,85727.000,14532,3,AX,1,100,-0.411
1574944641.237335,85761.000,14532,3,AX,1,100,-0.408
1574944641.278952,85796.000,14550,3,AX,1,100,-0.407
1574944641.320570,85831.000,14550,3,AX,1,100,-0.411
1574944641.362186,85866.000,14550,3,AX,1,100,-0.406
1574944641.402614,85900.000,14568,3,AX,1,100,-0.411
1574944641.443042,85934.000,14568,3,AX,1,100,-0.410
1574944641.483470,85968.000,14568,3,AX,1,100,-0.404
1574944641.524295,86002.333,14586,3,AX,1,100,-0.410
1574944641.565119,86036.667,14586,3,AX,1,100,-0.409
1574944641.605943,86071.000,14586,3,AX,1,100,-0.408
1574944641.647957,86106.333,14604,3,AX,1,100,-0.407
1574944641.689970,86141.667,14604,3,AX,1,100,-0.411
1574944641.731983,86177.000,14604,3,AX,1,100,-0.410
1574944641.771936,86210.600,14626,5,AX,1,100,-0.405
1574944641.811888,86244.200,14626,5,AX,1,100,-0.401
1574944641.851840,86277.800,14626,5,AX,1,100,-0.415
1574944641.891793,86311.400,14626,5,AX,1,100,-0.408
1574944641.931745,86345.000,14626,5,AX,1,100,-0.405
1574944641.971380,86378.333,14646,3,AX,1,100,-0.407
1574944642.011015,86411.667,14646,3,AX,1,100,-0.409
1574944642.050651,86445.000,14646,3,AX,1,100,-0.405
1574944642.091079,86479.000,14664,3,AX,1,100,-0.405
1574944642.131507,86513.000,14664,3,AX,1,100,-0.408
1574944642.171935,86547.000,14664,3,AX,1,100,-0.405
1574944642.213552,86582.000,14682,2,AX,1,100,-0.410
1574944642.255169,86617.000,14682,2,AX,1,100,-0.410
1574944642.295597,86651.000,14700,3,AX,1,100,-0.401
1574944642.336025,86685.000,14700,3,AX,1,100,-0.409
1574944642.376452,86719.000,14700,3,AX,1,100,-0.407
1574944642.414502,86751.000,14718,4,AX,1,100,-0.398
1574944642.452552,86783.000,14718,4,AX,1,100,-0.406
1574944642.490602,86815.000,14718,4,AX,1,100,-0.410
1574944642.528652,86847.000,14718,4,AX,1,100,-0.408
1574944642.568287,86880.333,14735,3,AX,1,100,-0.420
1574944642.607922,86913.667,14735,3,AX,1,100,-0.431
1574944642.647558,86947.000,14735,3,AX,1,100,-0.422
1574944642.693336,86985.500,14754,2,AX,1,100,-0.437
1574944642.739115,87024.000,14754,2,AX,1,100,-0.432
1574944642.780336,87058.667,14770,3,AX,1,100,-0.435
1574944642.821556,87093.333,14770,3,AX,1,100,-0.433
1574944642.862777,87128.000,14770,3,AX,1,100,-0.438
1574944642.903998,87162.667,14788,3,AX,1,100,-0.443
1574944642.945218,87197.333,14788,3,AX,1,100,-0.438
1574944642.986439,87232.000,14788,3,AX,1,100,-0.438
1574944643.024093,87263.667,14806,3,AX,1,100,-0.452
1574944643.061746,87295.333,14806,3,AX,1,100,-0.469
1574944643.099400,87327.000,14806,3,AX,1,100,-0.463
1574944643.138242,87359.667,14824,3,AX,1,100,-0.486
1574944643.177085,87392.333,14824,3,AX,1,100,-0.503
1574944643.215927,87425.000,14824,3,AX,1,100,-0.499
1574944643.256752,87459.333,14842,3,AX,1,100,-0.506
1574944643.297576,87493.667,14842,3,AX,1,100,-0.499
1574944643.338400,87528.000,14842,3,AX,1,100,-0.494
1574944643.379621,87562.667,14860,3,AX,1,100,-0.497
1574944643.420841,87597.333,14860,3,AX,1,100,-0.497
1574944643.462062,87632.000,14860,3,AX,1,100,-0.496
1574944643.507246,87670.000,14878,3,AX,1,100,-0.491
1574944643.552430,87708.000,14878,3,AX,1,100,-0.496
1574944643.597615,87746.000,14878,3,AX,1,100,-0.494
1574944643.634872,87777.333,14896,3,AX,1,100,-0.490
1574944643.672129,87808.667,14896,3,AX,1,100,-0.491
1574944643.709386,87840.000,14896,3,AX,1,100,-0.491
1574944643.747040,87871.667,14914,3,AX,1,100,-0.486
1574944643.784693,87903.333,14914,3,AX,1,100,-0.484
1574944643.822346,87935.000,14914,3,AX,1,100,-0.487
1574944643.863964,87970.000,14932,3,AX,1,100,-0.484
1574944643.905581,88005.000,14932,3,AX,1,100,-0.484
1574944643.947198,88040.000,14932,3,AX,1,100,-0.478
1574944643.987626,88074.000,14950,3,AX,1,100,-0.473
1574944644.028054,88108.000,14950,3,AX,1,100,-0.479
1574944644.068481,88142.000,14950,3,AX,1,100,-0.477
1574944644.109702,88176.667,14966,3,AX,1,100,-0.479
1574944644.150923,88211.333,14966,3,AX,1,100,-0.476
1574944644.192143,88246.000,14966,3,AX,1,100,-0.478
1574944644.230193,88278.000,14984,3,AX,1,100,-0.478
1574944644.268243,88310.000,14984,3,AX,1,100,-0.475
1574944644.306293,88342.000,14984,3,AX,1,100,-0.472
1574944644.347910,88377.000,15002,3,AX,1,100,-0.478
1574944644.389527,88412.000,15002,3,AX,1,100,-0.471
1574944644.431144,88447.000,15002,3,AX,1,100,-0.465
1574944644.472761,88482.000,15020,3,AX,1,100,-0.478
1574944644.514378,88517.000,15020,3,AX,1,100,-0.461
1574944644.555995,88552.000,15020,3,AX,1,100,-0.467
1574944644.593649,88583.667,15038,3,AX,1,100,-0.461
1574944644.631302,88615.333,15038,3,AX,1,100,-0.467
1574944644.668956,88647.000,15038,3,AX,1,100,-0.464
1574944644.709383,88681.000,15057,3,AX,1,100,-0.462
1574944644.749811,88715.000,15057,3,AX,1,100,-0.461
1574944644.790239,88749.000,15057,3,AX,1,100,-0.474
1574944644.831856,88784.000,15075,3,AX,1,100,-0.466
1574944644.873473,88819.000,15075,3,AX,1,100,-0.458
1574944644.915091,88854.000,15075,3,AX,1,100,-0.462
1574944644.957104,88889.333,15092,3,AX,1,100,-0.464
1574944644.999117,88924.667,15092,3,AX,1,100,-0.462
1574944645.041131,88960.000,15092,3,AX,1,100,-0.461
1574944645.079973,88992.667,15110,3,AX,1,100,-0.463
1574944645.118816,89025.333,15110,3,AX,1,100,-0.459
1574944645.157658,89058.000,15110,3,AX,1,100,-0.468
1574944645.200068,89093.667,15126,3,AX,1,100,-0.476
1574944645.242478,89129.333,15126,3,AX,1,100,-0.474
1574944645.284887,89165.000,15126,3,AX,1,100,-0.464
1574944645.322541,89196.667,15144,3,AX,1,100,-0.461
1574944645.360194,89228.333,15144,3,AX,1,100,-0.461
1574944645.397848,89260.000,15144,3,AX,1,100,-0.449
1574944645.436690,89292.667,15162,3,AX,1,100,-0.466
1574944645.475533,89325.333,15162,3,AX,1,100,-0.468
1574944645.514375,89358.000,15162,3,AX,1,100,-0.457
1574944645.555200,89392.333,15180,3,AX,1,100,-0.461
1574944645.596024,89426.667,15180,3,AX,1,100,-0.454
1574944645.636848,89461.000,15180,3,AX,1,100,-0.457
1574944645.678069,89495.667,15199,3,AX,1,100,-0.457
1574944645.719290,89530.333,15199,3,AX,1,100,-0.452
1574944645.760510,89565.000,15199,3,AX,1,100,-0.440
1574944645.808073,89605.000,15217,2,AX,1,100,-0.455
1574944645.855635,89645.000,15217,2,AX,1,100,-0.454
1574944645.894279,89677.500,15235,4,AX,1,100,-0.448
1574944645.932924,89710.000,15235,4,AX,1,100,-0.457
1574944645.971568,89742.500,15235,4,AX,1,100,-0.446
1574944646.010212,89775.000,15235,4,AX,1,100,-0.443
1574944646.048262,89807.000,15253,3,AX,1,100,-0.451
1574944646.086312,89839.000,15253,3,AX,1,100,-0.452
1574944646.124362,89871.000,15253,3,AX,1,100,-0.448
1574944646.164790,89905.000,15271,3,AX,1,100,-0.457
1574944646.205218,89939.000,15271,3,AX,1,100,-0.452
1574944646.245646,89973.000,15271,3,AX,1,100,-0.450
1574944646.285677,90006.667,15288,3,AX,1,100,-0.436
1574944646.325709,90040.333,15288,3,AX,1,100,-0.442
1574944646.365741,90074.000,15288,3,AX,1,100,-0.442
1574944646.407754,90109.333,15306,3,AX,1,100,-0.444
1574944646.449767,90144.667,15306,3,AX,1,100,-0.442
1574944646.491781,90180.000,15306,3,AX,1,100,-0.447
1574944646.529831,90212.000,15322,3,AX,1,100,-0.448
1574944646.567881,90244.000,15322,3,AX,1,100,-0.448
1574944646.605930,90276.000,15322,3,AX,1,100,-0.442
1574944646.647547,90311.000,15340,3,AX,1,100,-0.438
1574944646.689164,90346.000,15340,3,AX,1,100,-0.434
1574944646.730781,90381.000,15340,3,AX,1,100,-0.436
1574944646.770813,90414.667,15359,3,AX,1,100,-0.436
1574944646.810845,90448.333,15359,3,AX,1,100,-0.440
1574944646.850876,90482.000,15359,3,AX,1,100,-0.444
1574944646.892097,90516.667,15377,3,AX,1,100,-0.445
1574944646.933318,90551.333,15377,3,AX,1,100,-0.438
1574944646.974538,90586.000,15377,3,AX,1,100,-0.438
1574944647.015759,90620.667,15395,3,AX,1,100,-0.434
1574944647.056979,90655.333,15395,3,AX,1,100,-0.441
1574944647.098200,90690.000,15395,3,AX,1,100,-0.438
1574944647.137836,90723.333,15413,3,AX,1,100,-0.434
1574944647.177471,90756.667,15413,3,AX,1,100,-0.440
1574944647.217106,90790.000,15413,3,AX,1,100,-0.437
1574944647.255156,90822.000,15431,3,AX,1,100,-0.434
1574944647.293206,90854.000,15431,3,AX,1,100,-0.441
1574944647.331255,90886.000,15431,3,AX,1,100,-0.437
1574944647.370891,90919.333,15449,3,AX,1,100,-0.436
1574944647.410526,90952.667,15449,3,AX,1,100,-0.434
1574944647.450161,90986.000,15449,3,AX,1,100,-0.437
1574944647.497724,91026.000,15466,2,AX,1,100,-0.440
1574944647.545286,91066.000,15466,2,AX,1,100,-0.434
1574944647.585714,91100.000,15484,3,AX,1,100,-0.440
1574944647.626142,91134.000,15484,3,AX,1,100,-0.440
1574944647.666570,91168.000,15484,3,AX,1,100,-0.437
1574944647.706601,91201.667,15501,3,AX,1,100,-0.438
1574944647.746633,91235.333,15501,3,AX,1,100,-0.440
1574944647.786664,91269.000,15501,3,AX,1,100,-0.437
1574944647.824714,91301.000,15522,5,AX,1,100,-0.440
1574944647.862764,91333.000,15522,5,AX,1,100,-0.435
1574944647.900814,91365.000,15522,5,AX,1,100,-0.432
1574944647.938864,91397.000,15522,5,AX,1,100,-0.438
1574944647.976914,91429.000,15522,5,AX,1,100,-0.432
1574944648.017342,91463.000,15542,3,AX,1,100,-0.441
1574944648.057770,91497.000,15542,3,AX,1,100,-0.439
1574944648.098198,91531.000,15542,3,AX,1,100,-0.438
1574944648.139418,91565.667,15559,3,AX,1,100,-0.434
1574944648.180639,91600.333,15559,3,AX,1,100,-0.434
1574944648.221860,91635.000,15559,3,AX,1,100,-0.435
1574944648.267440,91673.333,15577,3,AX,1,100,-0.430
1574944648.313021,91711.667,15577,3,AX,1,100,-0.436
1574944648.358601,91750.000,15577,3,AX,1,100,-0.438
1574944648.397048,91782.333,15593,3,AX,1,100,-0.436
1574944648.435494,91814.667,15593,3,AX,1,100,-0.438
1574944648.473940,91847.000,15593,3,AX,1,100,-0.435
1574944648.518331,91884.333,15611,3,AX,1,100,-0.433
1574944648.562723,91921.667,15611,3,AX,1,100,-0.434
1574944648.607114,91959.000,15611,3,AX,1,100,-0.433
1574944648.645164,91991.000,15629,3,AX,1,100,-0.433
1574944648.683214,92023.000,15629,3,AX,1,100,-0.438
1574944648.721264,92055.000,15629,3,AX,1,100,-0.433
1574944648.758125,92086.000,15648,3,AX,1,100,-0.434
1574944648.794985,92117.000,15648,3,AX,1,100,-0.435
1574944648.831846,92148.000,15648,3,AX,1,100,-0.435
1574944648.873067,92182.667,15666,3,AX,1,100,-0.434
1574944648.914288,92217.333,15666,3,AX,1,100,-0.433
1574944648.955508,92252.000,15666,3,AX,1,100,-0.437
1574944648.993954,92284.333,15684,3,AX,1,100,-0.438
1574944649.032401,92316.667,15684,3,AX,1,100,-0.431
1574944649.070847,92349.000,15684,3,AX,1,100,-0.432
1574944649.111671,92383.333,15702,3,AX,1,100,-0.435
1574944649.152495,92417.667,15702,3,AX,1,100,-0.434
1574944649.193320,92452.000,15702,3,AX,1,100,-0.435
1574944649.234540,92486.667,15720,3,AX,1,100,-0.434
1574944649.275761,92521.333,15720,3,AX,1,100,-0.429
1574944649.316982,92556.000,15720,3,AX,1,100,-0.435
1574944649.358202,92590.667,15737,3,AX,1,100,-0.433
1574944649.399423,92625.333,15737,3,AX,1,100,-0.432
1574944649.440644,92660.000,15737,3,AX,1,100,-0.429
1574944649.479090,92692.333,15755,3,AX,1,100,-0.431
1574944649.517536,92724.667,15755,3,AX,1,100,-0.436
1574944649.555982,92757.000,15755,3,AX,1,100,-0.433
1574944649.594032,92789.000,15773,3,AX,1,100,-0.434
1574944649.632082,92821.000,15773,3,AX,1,100,-0.431
1574944649.670132,92853.000,15773,3,AX,1,100,-0.425
1574944649.714523,92890.333,15790,3,AX,1,100,-0.436
1574944649.758915,92927.667,15790,3,AX,1,100,-0.431
1574944649.803306,92965.000,15790,3,AX,1,100,-0.427
1574944649.844527,92999.667,15808,3,AX,1,100,-0.434
1574944649.885747,93034.333,15808,3,AX,1,100,-0.433
1574944649.926968,93069.000,15808,3,AX,1,100,-0.432
1574944649.968585,93104.000,15826,2,AX,1,100,-0.435
1574944650.010202,93139.000,15826,2,AX,1,100,-0.432
1574944650.048549,93171.250,15844,4,AX,1,100,-0.433
1574944650.086896,93203.500,15844,4,AX,1,100,-0.432
1574944650.125243,93235.750,15844,4,AX,1,100,-0.430
1574944650.163591,93268.000,15844,4,AX,1,100,-0.430
1574944650.202433,93300.667,15862,3,AX,1,100,-0.430
1574944650.241276,93333.333,15862,3,AX,1,100,-0.435
1574944650.280118,93366.000,15862,3,AX,1,100,-0.429
1574944650.320150,93399.667,15880,3,AX,1,100,-0.430
1574944650.360182,93433.333,15880,3,AX,1,100,-0.442
1574944650.400213,93467.000,15880,3,AX,1,100,-0.427
1574944650.441037,93501.333,15898,3,AX,1,100,-0.414
1574944650.481862,93535.667,15898,3,AX,1,100,-0.419
1574944650.522686,93570.000,15898,3,AX,1,100,-0.437
1574944650.570248,93610.000,15915,2,AX,1,100,-0.429
1574944650.617811,93650.000,15915,2,AX,1,100,-0.422
1574944650.657049,93683.000,15933,3,AX,1,100,-0.431
1574944650.696288,93716.000,15933,3,AX,1,100,-0.417
1574944650.735527,93749.000,15933,3,AX,1,100,-0.449
1574944650.772983,93780.500,15952,4,AX,1,100,-0.429
1574944650.810438,93812.000,15952,4,AX,1,100,-0.437
1574944650.847893,93843.500,15952,4,AX,1,100,-0.438
1574944650.885349,93875.000,15952,4,AX,1,100,-0.442
1574944650.926173,93909.333,15968,3,AX,1,100,-0.396
1574944650.966997,93943.667,15968,3,AX,1,100,-0.417
1574944651.007822,93978.000,15968,3,AX,1,100,-0.427
1574944651.048844,94012.500,15986,2,AX,1,100,-0.425
1574944651.089866,94047.000,15986,2,AX,1,100,-0.452
1574944651.131484,94082.000,16004,3,AX,1,100,-0.432
1574944651.173100,94117.000,16004,3,AX,1,100,-0.438
1574944651.214718,94152.000,16004,3,AX,1,100,-0.426
1574944651.254749,94185.667,16022,3,AX,1,100,-0.426
1574944651.294781,94219.333,16022,3,AX,1,100,-0.436
1574944651.334812,94253.000,16022,3,AX,1,100,-0.442
1574944651.372070,94284.333,16040,3,AX,1,100,-0.426
1574944651.409327,94315.667,16040,3,AX,1,100,-0.422
1574944651.446584,94347.000,16040,3,AX,1,100,-0.429
1574944651.490183,94383.667,16058,3,AX,1,100,-0.438
1574944651.533781,94420.333,16058,3,AX,1,100,-0.436
1574944651.577380,94457.000,16058,3,AX,1,100,-0.430
1574944651.617808,94491.000,16076,3,AX,1,100,-0.426
1574944651.658236,94525.000,16076,3,AX,1,100,-0.429
1574944651.698664,94559.000,16076,3,AX,1,100,-0.433
1574944651.739488,94593.333,16094,3,AX,1,100,-0.435
1574944651.780313,94627.667,16094,3,AX,1,100,-0.434
1574944651.821137,94662.000,16094,3,AX,1,100,-0.426
1574944651.861565,94696.000,16112,3,AX,1,100,-0.427
1574944651.901993,94730.000,16112,3,AX,1,100,-0.427
1574944651.942421,94764.000,16112,3,AX,1,100,-0.429
1574944651.979282,94795.000,16130,3,AX,1,100,-0.430
1574944652.016142,94826.000,16130,3,AX,1,100,-0.432
1574944652.053003,94857.000,16130,3,AX,1,100,-0.430
1574944652.092242,94890.000,16148,3,AX,1,100,-0.426
1574944652.131481,94923.000,16148,3,AX,1,100,-0.428
1574944652.170720,94956.000,16148,3,AX,1,100,-0.429
1574944652.215111,94993.333,16164,3,AX,1,100,-0.429
1574944652.259503,95030.667,16164,3,AX,1,100,-0.431
1574944652.303894,95068.000,16164,3,AX,1,100,-0.427
1574944652.341944,95100.000,16182,3,AX,1,100,-0.426
1574944652.379994,95132.000,16182,3,AX,1,100,-0.430
1574944652.418044,95164.000,16182,3,AX,1,100,-0.431
1574944652.463624,95202.333,16200,3,AX,1,100,-0.421
1574944652.509205,95240.667,16200,3,AX,1,100,-0.427
1574944652.554785,95279.000,16200,3,AX,1,100,-0.429
1574944652.592043,95310.333,16218,3,AX,1,100,-0.426
1574944652.629300,95341.667,16218,3,AX,1,100,-0.426
1574944652.666557,95373.000,16218,3,AX,1,100,-0.429
1574944652.711345,95410.667,16237,3,AX,1,100,-0.427
1574944652.756133,95448.333,16237,3,AX,1,100,-0.424
1574944652.800920,95486.000,16237,3,AX,1,100,-0.425
1574944652.842537,95521.000,16254,3,AX,1,100,-0.425
1574944652.884154,95556.000,16254,3,AX,1,100,-0.427
1574944652.925771,95591.000,16254,3,AX,1,100,-0.427
1574944652.965010,95624.000,16272,3,AX,1,100,-0.429
1574944653.004249,95657.000,16272,3,AX,1,100,-0.425
1574944653.043488,95690.000,16272,3,AX,1,100,-0.424
1574944653.082331,95722.667,16290,3,AX,1,100,-0.430
1574944653.121173,95755.333,16290,3,AX,1,100,-0.425
1574944653.160016,95788.000,16290,3,AX,1,100,-0.423
1574944653.198858,95820.667,16308,3,AX,1,100,-0.423
1574944653.237701,95853.333,16308,3,AX,1,100,-0.420
1574944653.276543,95886.000,16308,3,AX,1,100,-0.428
1574944653.317764,95920.667,16324,3,AX,1,100,-0.425
1574944653.358985,95955.333,16324,3,AX,1,100,-0.425
1574944653.400205,95990.000,16324,3,AX,1,100,-0.427
1574944653.441822,96025.000,16342,3,AX,1,100,-0.420
1574944653.483439,96060.000,16342,3,AX,1,100,-0.416
1574944653.525056,96095.000,16342,3,AX,1,100,-0.418
1574944653.566079,96129.500,16360,2,AX,1,100,-0.425
1574944653.607101,96164.000,16360,2,AX,1,100,-0.427
1574944653.645151,96196.000,16378,4,AX,1,100,-0.425
1574944653.683201,96228.000,16378,4,AX,1,100,-0.425
1574944653.721251,96260.000,16378,4,AX,1,100,-0.423
1574944653.759301,96292.000,16378,4,AX,1,100,-0.428
1574944653.801710,96327.667,16397,3,AX,1,100,-0.428
1574944653.844120,96363.333,16397,3,AX,1,100,-0.426
1574944653.886530,96399.000,16397,3,AX,1,100,-0.425
1574944653.927255,96433.250,16418,4,AX,1,100,-0.421
1574944653.967980,96467.500,16418,4,AX,1,100,-0.424
1574944654.008706,96501.750,16418,4,AX,1,100,-0.421
1574944654.049431,96536.000,16418,4,AX,1,100,-0.422
1574944654.090255,96570.333,16438,3,AX,1,100,-0.423
1574944654.131079,96604.667,16438,3,AX,1,100,-0.427
1574944654.171904,96639.000,16438,3,AX,1,100,-0.428
1574944654.211935,96672.667,16456,3,AX,1,100,-0.427
1574944654.251967,96706.333,16456,3,AX,1,100,-0.422
1574944654.291999,96740.000,16456,3,AX,1,100,-0.423
1574944654.329256,96771.333,16474,3,AX,1,100,-0.421
1574944654.366513,96802.667,16474,3,AX,1,100,-0.429
1574944654.403770,96834.000,16474,3,AX,1,100,-0.424
1574944654.447369,96870.667,16492,3,AX,1,100,-0.426
1574944654.490968,96907.333,16492,3,AX,1,100,-0.422
1574944654.534566,96944.000,16492,3,AX,1,100,-0.422
1574944654.576183,96979.000,16510,3,AX,1,100,-0.424
1574944654.617800,97014.000,16510,3,AX,1,100,-0.422
1574944654.659417,97049.000,16510,3,AX,1,100,-0.423
1574944654.700242,97083.333,16529,3,AX,1,100,-0.422
1574944654.741066,97117.667,16529,3,AX,1,100,-0.419
1574944654.781890,97152.000,16529,3,AX,1,100,-0.425
1574944654.821526,97185.333,16546,3,AX,1,100,-0.419
1574944654.861161,97218.667,16546,3,AX,1,100,-0.421
1574944654.900796,97252.000,16546,3,AX,1,100,-0.424
1574944654.939242,97284.333,16564,3,AX,1,100,-0.417
1574944654.977689,97316.667,16564,3,AX,1,100,-0.415
1574944655.016135,97349.000,16564,3,AX,1,100,-0.417
1574944655.055770,97382.333,16582,3,AX,1,100,-0.414
1574944655.095405,97415.667,16582,3,AX,1,100,-0.416
1574944655.135040,97449.000,16582,3,AX,1,100,-0.416
1574944655.176657,97484.000,16598,3,AX,1,100,-0.421
1574944655.218274,97519.000,16598,3,AX,1,100,-0.422
1574944655.259892,97554.000,16598,3,AX,1,100,-0.417
1574944655.304679,97591.667,16616,3,AX,1,100,-0.406
1574944655.349467,97629.333,16616,3,AX,1,100,-0.421
1574944655.394255,97667.000,16616,3,AX,1,100,-0.417
1574944655.433494,97700.000,16634,3,AX,1,100,-0.402
1574944655.472733,97733.000,16634,3,AX,1,100,-0.419
1574944655.511972,97766.000,16634,3,AX,1,100,-0.422
1574944655.548832,97797.000,16652,3,AX,1,100,-0.429
1574944655.585693,97828.000,16652,3,AX,1,100,-0.427
1574944655.622554,97859.000,16652,3,AX,1,100,-0.417
1574944655.663378,97893.333,16671,3,AX,1,100,-0.417
1574944655.704203,97927.667,16671,3,AX,1,100,-0.399
1574944655.745027,97962.000,16671,3,AX,1,100,-0.396
1574944655.785455,97996.000,16689,3,AX,1,100,-0.427
1574944655.825883,98030.000,16689,3,AX,1,100,-0.425
1574944655.866311,98064.000,16689,3,AX,1,100,-0.417
1574944655.907531,98098.667,16707,3,AX,1,100,-0.427
1574944655.948752,98133.333,16707,3,AX,1,100,-0.420
1574944655.989973,98168.000,16707,3,AX,1,100,-0.397
1574944656.030797,98202.333,16724,3,AX,1,100,-0.389
1574944656.071621,98236.667,16724,3,AX,1,100,-0.415
1574944656.112446,98271.000,16724,3,AX,1,100,-0.427
1574944656.153666,98305.667,16742,3,AX,1,100,-0.411
1574944656.194887,98340.333,16742,3,AX,1,100,-0.398
1574944656.236108,98375.000,16742,3,AX,1,100,-0.405
1574944656.276536,98409.000,16760,3,AX,1,100,-0.410
1574944656.316964,98443.000,16760,3,AX,1,100,-0.415
1574944656.357392,98477.000,16760,3,AX,1,100,-0.412
1574944656.395442,98509.000,16778,3,AX,1,100,-0.415
1574944656.433491,98541.000,16778,3,AX,1,100,-0.408
1574944656.471541,98573.000,16778,3,AX,1,100,-0.426
1574944656.509195,98604.667,16794,3,AX,1,100,-0.391
1574944656.546848,98636.333,16794,3,AX,1,100,-0.401
1574944656.584502,98668.000,16794,3,AX,1,100,-0.419
1574944656.622155,98699.667,16812,3,AX,1,100,-0.402
1574944656.659809,98731.333,16812,3,AX,1,100,-0.399
1574944656.697462,98763.000,16812,3,AX,1,100,-0.409
1574944656.741457,98800.000,16831,3,AX,1,100,-0.410
1574944656.785452,98837.000,16831,3,AX,1,100,-0.405
1574944656.829448,98874.000,16831,3,AX,1,100,-0.412
1574944656.870668,98908.667,16849,3,AX,1,100,-0.410
1574944656.911889,98943.333,16849,3,AX,1,100,-0.415
1574944656.953110,98978.000,16849,3,AX,1,100,-0.417
1574944656.994330,99012.667,16867,3,AX,1,100,-0.409
1574944657.035551,99047.333,16867,3,AX,1,100,-0.400
1574944657.076771,99082.000,16867,3,AX,1,100,-0.413
1574944657.116010,99115.000,16885,3,AX,1,100,-0.417
1574944657.155249,99148.000,16885,3,AX,1,100,-0.417
1574944657.194488,99181.000,16885,3,AX,1,100,-0.430
1574944657.232934,99213.333,16903,3,AX,1,100,-0.438
1574944657.271380,99245.667,16903,3,AX,1,100,-0.427
1574944657.309827,99278.000,16903,3,AX,1,100,-0.421
1574944657.349462,99311.333,16920,3,AX,1,100,-0.414
1574944657.389097,99344.667,16920,3,AX,1,100,-0.409
1574944657.428732,99378.000,16920,3,AX,1,100,-0.414
1574944657.470350,99413.000,16938,3,AX,1,100,-0.413
1574944657.511966,99448.000,16938,3,AX,1,100,-0.420
1574944657.553584,99483.000,16938,3,AX,1,100,-0.427
1574944657.599957,99522.000,16954,2,AX,1,100,-0.416
1574944657.646330,99561.000,16954,2,AX,1,100,-0.413
1574944657.686362,99594.667,16973,3,AX,1,100,-0.420
1574944657.726393,99628.333,16973,3,AX,1,100,-0.416
1574944657.766425,99662.000,16973,3,AX,1,100,-0.419
1574944657.804475,99694.000,16991,4,AX,1,100,-0.424
1574944657.842525,99726.000,16991,4,AX,1,100,-0.414
1574944657.880574,99758.000,16991,4,AX,1,100,-0.409
1574944657.918624,99790.000,16991,4,AX,1,100,-0.415
1574944657.958259,99823.333,17009,3,AX,1,100,-0.415
1574944657.997895,99856.667,17009,3,AX,1,100,-0.413
1574944658.037530,99890.000,17009,3,AX,1,100,-0.413
1574944658.077958,99924.000,17027,3,AX,1,100,-0.415
1574944658.118386,99958.000,17027,3,AX,1,100,-0.417
1574944658.158814,99992.000,17027,3,AX,1,100,-0.415
1574944658.200431,100027.000,17045,3,AX,1,100,-0.416
1574944658.242048,100062.000,17045,3,AX,1,100,-0.416
1574944658.283665,100097.000,17045,3,AX,1,100,-0.404
1574944658.324687,100131.500,17063,2,AX,1,100,-0.408
1574944658.365710,100166.000,17063,2,AX,1,100,-0.411
1574944658.406930,100200.667,17081,3,AX,1,100,-0.411
1574944658.448151,100235.333,17081,3,AX,1,100,-0.416
1574944658.489372,100270.000,17081,3,AX,1,100,-0.413
1574944658.528214,100302.667,17098,3,AX,1,100,-0.408
1574944658.567057,100335.333,17098,3,AX,1,100,-0.402
1574944658.605900,100368.000,17098,3,AX,1,100,-0.406
1574944658.646724,100402.333,17117,3,AX,1,100,-0.413
1574944658.687548,100436.667,17117,3,AX,1,100,-0.415
1574944658.728372,100471.000,17117,3,AX,1,100,-0.402
1574944658.769593,100505.667,17133,3,AX,1,100,-0.407
1574944658.810814,100540.333,17133,3,AX,1,100,-0.408
1574944658.852034,100575.000,17133,3,AX,1,100,-0.415
1574944658.893255,100609.667,17151,3,AX,1,100,-0.415
1574944658.934476,100644.333,17151,3,AX,1,100,-0.408
1574944658.975696,100679.000,17151,3,AX,1,100,-0.403
1574944659.013746,100711.000,17169,3,AX,1,100,-0.407
1574944659.051796,100743.000,17169,3,AX,1,100,-0.406
1574944659.089846,100775.000,17169,3,AX,1,100,-0.411
1574944659.128292,100807.333,17187,3,AX,1,100,-0.415
1574944659.166738,100839.667,17187,3,AX,1,100,-0.407
1574944659.205184,100872.000,17187,3,AX,1,100,-0.402
1574944659.249972,100909.667,17205,3,AX,1,100,-0.406
1574944659.294760,100947.333,17205,3,AX,1,100,-0.403
1574944659.339548,100985.000,17205,3,AX,1,100,-0.403
1574944659.379976,101019.000,17223,3,AX,1,100,-0.410
1574944659.420404,101053.000,17223,3,AX,1,100,-0.408
1574944659.460832,101087.000,17223,3,AX,1,100,-0.405
1574944659.502053,101121.667,17241,3,AX,1,100,-0.408
1574944659.543273,101156.333,17241,3,AX,1,100,-0.404
1574944659.584494,101191.000,17241,3,AX,1,100,-0.405
1574944659.622940,101223.333,17259,3,AX,1,100,-0.411
1574944659.661386,101255.667,17259,3,AX,1,100,-0.404
1574944659.699832,101288.000,17259,3,AX,1,100,-0.401
1574944659.737090,101319.333,17278,3,AX,1,100,-0.406
1574944659.774347,101350.667,17278,3,AX,1,100,-0.401
1574944659.811604,101382.000,17278,3,AX,1,100,-0.404
1574944659.852032,101416.000,17295,3,AX,1,100,-0.402
1574944659.892460,101450.000,17295,3,AX,1,100,-0.405
1574944659.932888,101484.000,17295,3,AX,1,100,-0.406
1574944659.976407,101520.600,17316,5,AX,1,100,-0.406
1574944660.019927,101557.200,17316,5,AX,1,100,-0.404
1574944660.063446,101593.800,17316,5,AX,1,100,-0.406
1574944660.106966,101630.400,17316,5,AX,1,100,-0.398
1574944660.150485,101667.000,17316,5,AX,1,100,-0.397
1574944660.188535,101699.000,17334,3,AX,1,100,-0.400
1574944660.226585,101731.000,17334,3,AX,1,100,-0.406
1574944660.264635,101763.000,17334,3,AX,1,100,-0.407
1574944660.306252,101798.000,17354,2,AX,1,100,-0.406
1574944660.347869,101833.000,17354,2,AX,1,100,-0.401
1574944660.391864,101870.000,17371,3,AX,1,100,-0.403
1574944660.435859,101907.000,17371,3,AX,1,100,-0.406
1574944660.479854,101944.000,17371,3,AX,1,100,-0.406
1574944660.517012,101975.250,17389,4,AX,1,100,-0.408
1574944660.554170,102006.500,17389,4,AX,1,100,-0.406
1574944660.591328,102037.750,17389,4,AX,1,100,-0.407
1574944660.628486,102069.000,17389,4,AX,1,100,-0.405
1574944660.670103,102104.000,17407,3,AX,1,100,-0.404
1574944660.711720,102139.000,17407,3,AX,1,100,-0.406
1574944660.753337,102174.000,17407,3,AX,1,100,-0.403
1574944660.790991,102205.667,17424,3,AX,1,100,-0.398
1574944660.828645,102237.333,17424,3,AX,1,100,-0.407
1574944660.866298,102269.000,17424,3,AX,1,100,-0.401
1574944660.906726,102303.000,17442,3,AX,1,100,-0.403
1574944660.947154,102337.000,17442,3,AX,1,100,-0.411
1574944660.987582,102371.000,17442,3,AX,1,100,-0.405
1574944661.029199,102406.000,17460,3,AX,1,100,-0.404
1574944661.070816,102441.000,17460,3,AX,1,100,-0.401
1574944661.112433,102476.000,17460,3,AX,1,100,-0.401
1574944661.154050,102511.000,17478,3,AX,1,100,-0.402
1574944661.195667,102546.000,17478,3,AX,1,100,-0.402
1574944661.237284,102581.000,17478,3,AX,1,100,-0.405
1574944661.276919,102614.333,17496,3,AX,1,100,-0.403
1574944661.316554,102647.667,17496,3,AX,1,100,-0.403
1574944661.356190,102681.000,17496,3,AX,1,100,-0.404
1574944661.393843,102712.667,17514,3,AX,1,100,-0.401
1574944661.431497,102744.333,17514,3,AX,1,100,-0.399
1574944661.469150,102776.000,17514,3,AX,1,100,-0.408
1574944661.509578,102810.000,17532,2,AX,1,100,-0.404
1574944661.550006,102844.000,17532,2,AX,1,100,-0.404
1574944661.594398,102881.333,17549,3,AX,1,100,-0.405
1574944661.638789,102918.667,17549,3,AX,1,100,-0.397
1574944661.683181,102956.000,17549,3,AX,1,100,-0.396
1574944661.724005,102990.333,17568,3,AX,1,100,-0.404
1574944661.764829,103024.667,17568,3,AX,1,100,-0.402
1574944661.805653,103059.000,17568,3,AX,1,100,-0.405
1574944661.846081,103093.000,17584,3,AX,1,100,-0.401
1574944661.886509,103127.000,17584,3,AX,1,100,-0.400
1574944661.926937,103161.000,17584,3,AX,1,100,-0.397
1574944661.964987,103193.000,17602,3,AX,1,100,-0.400
1574944662.003037,103225.000,17602,3,AX,1,100,-0.399
1574944662.041087,103257.000,17602,3,AX,1,100,-0.396
1574944662.079731,103289.500,17620,4,AX,1,100,-0.402
1574944662.118376,103322.000,17620,4,AX,1,100,-0.405
1574944662.157020,103354.500,17620,4,AX,1,100,-0.400
1574944662.195664,103387.000,17620,4,AX,1,100,-0.402
1574944662.236687,103421.500,17638,2,AX,1,100,-0.399
1574944662.277709,103456.000,17638,2,AX,1,100,-0.399
1574944662.322101,103493.333,17656,3,AX,1,100,-0.395
1574944662.366492,103530.667,17656,3,AX,1,100,-0.403
1574944662.410884,103568.000,17656,3,AX,1,100,-0.397
1574944662.452104,103602.667,17674,3,AX,1,100,-0.395
1574944662.493325,103637.333,17674,3,AX,1,100,-0.395
1574944662.534546,103672.000,17674,3,AX,1,100,-0.397
