EpochTimestamp,EmotiBitTimestamp,PacketNumber,DataLength,TypeTag,ProtocolVersion,DataReliability,AY
1574943913.911334,153159.000,26014,9,AY,1,100,0.562
1574943913.911334,153159.000,26014,9,AY,1,100,0.606
1574943913.911334,153159.000,26014,9,AY,1,100,0.620
1574943913.911334,153159.000,26014,9,AY,1,100,0.609
1574943913.911334,153159.000,26014,9,AY,1,100,0.571
1574943913.911334,153159.000,26014,9,AY,1,100,0.557
1574943913.911334,153159.000,26014,9,AY,1,100,0.524
1574943913.911334,153159.000,26014,9,AY,1,100,0.510
1574943913.911334,153159.000,26014,9,AY,1,100,0.474
1574943913.951627,153193.000,26031,3,AY,1,100,0.455
1574943913.991921,153227.000,26031,3,AY,1,100,0.517
1574943914.032215,153261.000,26031,3,AY,1,100,0.539
1574943914.073694,153296.000,26049,3,AY,1,100,0.567
1574943914.115173,153331.000,26049,3,AY,1,100,0.567
1574943914.156652,153366.000,26049,3,AY,1,100,0.536
1574943914.197736,153400.667,26065,3,AY,1,100,0.534
1574943914.238820,153435.333,26065,3,AY,1,100,0.542
1574943914.279904,153470.000,26065,3,AY,1,100,0.535
1574943914.319408,153503.333,26083,3,AY,1,100,0.549
1574943914.358912,153536.667,26083,3,AY,1,100,0.542
1574943914.398416,153570.000,26083,3,AY,1,100,0.523
1574943914.435944,153601.667,26102,3,AY,1,100,0.529
1574943914.473473,153633.333,26102,3,AY,1,100,0.542
1574943914.511001,153665.000,26102,3,AY,1,100,0.569
1574943914.550505,153698.333,26120,3,AY,1,100,0.579
1574943914.590009,153731.667,26120,3,AY,1,100,0.569
1574943914.629513,153765.000,26120,3,AY,1,100,0.555
1574943914.674547,153803.000,26138,3,AY,1,100,0.550
1574943914.719581,153841.000,26138,3,AY,1,100,0.551
1574943914.764616,153879.000,26138,3,AY,1,100,0.565
1574943914.806095,153914.000,26156,2,AY,1,100,0.566
1574943914.847574,153949.000,26156,2,AY,1,100,0.574
1574943914.887473,153982.667,26174,3,AY,1,100,0.575
1574943914.927372,154016.333,26174,3,AY,1,100,0.564
1574943914.967270,154050.000,26174,3,AY,1,100,0.552
1574943915.005490,154082.250,26191,4,AY,1,100,0.537
1574943915.043710,154114.500,26191,4,AY,1,100,0.535
1574943915.081930,154146.750,26191,4,AY,1,100,0.532
1574943915.120150,154179.000,26191,4,AY,1,100,0.551
1574943915.158469,154211.333,26209,3,AY,1,100,0.546
1574943915.196787,154243.667,26209,3,AY,1,100,0.553
1574943915.235106,154276.000,26209,3,AY,1,100,0.539
1574943915.275795,154310.333,26227,3,AY,1,100,0.549
1574943915.316484,154344.667,26227,3,AY,1,100,0.547
1574943915.357173,154379.000,26227,3,AY,1,100,0.541
1574943915.403985,154418.500,26243,2,AY,1,100,0.543
1574943915.450797,154458.000,26243,2,AY,1,100,0.545
1574943915.492276,154493.000,26262,3,AY,1,100,0.547
1574943915.533755,154528.000,26262,3,AY,1,100,0.543
1574943915.575234,154563.000,26262,3,AY,1,100,0.550
1574943915.613553,154595.333,26280,3,AY,1,100,0.561
1574943915.651871,154627.667,26280,3,AY,1,100,0.544
1574943915.690190,154660.000,26280,3,AY,1,100,0.546
1574943915.728114,154692.000,26298,3,AY,1,100,0.562
1574943915.766037,154724.000,26298,3,AY,1,100,0.562
1574943915.803961,154756.000,26298,3,AY,1,100,0.549
1574943915.844255,154790.000,26316,3,AY,1,100,0.556
1574943915.884549,154824.000,26316,3,AY,1,100,0.558
1574943915.924843,154858.000,26316,3,AY,1,100,0.557
1574943915.966322,154893.000,26334,3,AY,1,100,0.565
1574943916.007801,154928.000,26334,3,AY,1,100,0.551
1574943916.049280,154963.000,26334,3,AY,1,100,0.543
1574943916.095104,155001.667,26352,3,AY,1,100,0.554
1574943916.140929,155040.333,26352,3,AY,1,100,0.556
1574943916.186753,155079.000,26352,3,AY,1,100,0.573
1574943916.220331,155107.333,26370,3,AY,1,100,0.562
1574943916.253909,155135.667,26370,3,AY,1,100,0.559
1574943916.287488,155164.000,26370,3,AY,1,100,0.554
1574943916.328967,155199.000,26387,3,AY,1,100,0.561
1574943916.370446,155234.000,26387,3,AY,1,100,0.557
1574943916.411925,155269.000,26387,3,AY,1,100,0.559
1574943916.452614,155303.333,26406,3,AY,1,100,0.569
1574943916.493303,155337.667,26406,3,AY,1,100,0.563
1574943916.533991,155372.000,26406,3,AY,1,100,0.560
1574943916.574285,155406.000,26422,3,AY,1,100,0.561
1574943916.614579,155440.000,26422,3,AY,1,100,0.568
1574943916.654873,155474.000,26422,3,AY,1,100,0.559
1574943916.695957,155508.667,26440,3,AY,1,100,0.567
1574943916.737041,155543.333,26440,3,AY,1,100,0.578
1574943916.778125,155578.000,26440,3,AY,1,100,0.565
1574943916.815654,155609.667,26458,3,AY,1,100,0.558
1574943916.853182,155641.333,26458,3,AY,1,100,0.570
1574943916.890711,155673.000,26458,3,AY,1,100,0.567
1574943916.931795,155707.667,26476,3,AY,1,100,0.567
1574943916.972879,155742.333,26476,3,AY,1,100,0.574
1574943917.013963,155777.000,26476,3,AY,1,100,0.567
1574943917.055442,155812.000,26494,3,AY,1,100,0.573
1574943917.096921,155847.000,26494,3,AY,1,100,0.573
1574943917.138400,155882.000,26494,3,AY,1,100,0.570
1574943917.179879,155917.000,26512,3,AY,1,100,0.577
1574943917.221358,155952.000,26512,3,AY,1,100,0.578
1574943917.262837,155987.000,26512,3,AY,1,100,0.577
1574943917.304316,156022.000,26530,3,AY,1,100,0.579
1574943917.345795,156057.000,26530,3,AY,1,100,0.576
1574943917.387274,156092.000,26530,3,AY,1,100,0.574
1574943917.424802,156123.667,26549,3,AY,1,100,0.572
1574943917.462331,156155.333,26549,3,AY,1,100,0.581
1574943917.499860,156187.000,26549,3,AY,1,100,0.575
1574943917.537783,156219.000,26566,3,AY,1,100,0.559
1574943917.575707,156251.000,26566,3,AY,1,100,0.558
1574943917.613631,156283.000,26566,3,AY,1,100,0.598
1574943917.656295,156319.000,26584,3,AY,1,100,0.613
1574943917.698959,156355.000,26584,3,AY,1,100,0.599
1574943917.741623,156391.000,26584,3,AY,1,100,0.586
1574943917.782707,156425.667,26602,3,AY,1,100,0.576
1574943917.823791,156460.333,26602,3,AY,1,100,0.606
1574943917.864875,156495.000,26602,3,AY,1,100,0.613
1574943917.905169,156529.000,26618,3,AY,1,100,0.592
1574943917.945462,156563.000,26618,3,AY,1,100,0.599
1574943917.985756,156597.000,26618,3,AY,1,100,0.597
1574943918.025655,156630.667,26636,3,AY,1,100,0.587
1574943918.065554,156664.333,26636,3,AY,1,100,0.595
1574943918.105453,156698.000,26636,3,AY,1,100,0.595
1574943918.142982,156729.667,26654,3,AY,1,100,0.591
1574943918.180510,156761.333,26654,3,AY,1,100,0.592
1574943918.218039,156793.000,26654,3,AY,1,100,0.590
1574943918.257148,156826.000,26672,3,AY,1,100,0.590
1574943918.296256,156859.000,26672,3,AY,1,100,0.590
1574943918.335365,156892.000,26672,3,AY,1,100,0.592
1574943918.380795,156930.333,26691,3,AY,1,100,0.573
1574943918.426224,156968.667,26691,3,AY,1,100,0.579
1574943918.471653,157007.000,26691,3,AY,1,100,0.583
1574943918.511947,157041.000,26709,3,AY,1,100,0.583
1574943918.552241,157075.000,26709,3,AY,1,100,0.581
1574943918.592535,157109.000,26709,3,AY,1,100,0.573
1574943918.632434,157142.667,26727,3,AY,1,100,0.577
1574943918.672333,157176.333,26727,3,AY,1,100,0.576
1574943918.712231,157210.000,26727,3,AY,1,100,0.577
1574943918.750155,157242.000,26745,3,AY,1,100,0.571
1574943918.788079,157274.000,26745,3,AY,1,100,0.564
1574943918.826003,157306.000,26745,3,AY,1,100,0.579
1574943918.864716,157338.667,26762,3,AY,1,100,0.592
1574943918.903430,157371.333,26762,3,AY,1,100,0.558
1574943918.942144,157404.000,26762,3,AY,1,100,0.542
1574943918.983623,157439.000,26780,3,AY,1,100,0.575
1574943919.025102,157474.000,26780,3,AY,1,100,0.583
1574943919.066581,157509.000,26780,3,AY,1,100,0.558
1574943919.106874,157543.000,26796,2,AY,1,100,0.574
1574943919.147168,157577.000,26796,2,AY,1,100,0.578
1574943919.188648,157612.000,26814,3,AY,1,100,0.560
1574943919.230126,157647.000,26814,3,AY,1,100,0.562
1574943919.271605,157682.000,26814,3,AY,1,100,0.595
1574943919.313479,157717.333,26832,3,AY,1,100,0.603
1574943919.355354,157752.667,26832,3,AY,1,100,0.582
1574943919.397228,157788.000,26832,3,AY,1,100,0.594
1574943919.435744,157820.500,26851,4,AY,1,100,0.595
1574943919.474260,157853.000,26851,4,AY,1,100,0.603
1574943919.512776,157885.500,26851,4,AY,1,100,0.588
1574943919.551292,157918.000,26851,4,AY,1,100,0.563
1574943919.591191,157951.667,26869,3,AY,1,100,0.484
1574943919.631090,157985.333,26869,3,AY,1,100,0.602
1574943919.670989,158019.000,26869,3,AY,1,100,0.689
1574943919.712468,158054.000,26887,2,AY,1,100,0.460
1574943919.753947,158089.000,26887,2,AY,1,100,0.257
1574943919.796137,158124.600,26908,5,AY,1,100,0.880
1574943919.838327,158160.200,26908,5,AY,1,100,0.569
1574943919.880517,158195.800,26908,5,AY,1,100,0.185
1574943919.922707,158231.400,26908,5,AY,1,100,0.234
1574943919.964897,158267.000,26908,5,AY,1,100,0.230
1574943920.002031,158298.333,26928,3,AY,1,100,0.503
1574943920.039165,158329.667,26928,3,AY,1,100,0.717
1574943920.076298,158361.000,26928,3,AY,1,100,0.981
1574943920.116197,158394.667,26946,3,AY,1,100,0.312
1574943920.156096,158428.333,26946,3,AY,1,100,1.976
1574943920.195995,158462.000,26946,3,AY,1,100,0.565
1574943920.237473,158497.000,26964,3,AY,1,100,0.290
1574943920.278953,158532.000,26964,3,AY,1,100,0.045
1574943920.320432,158567.000,26964,3,AY,1,100,0.266
1574943920.361516,158601.667,26982,3,AY,1,100,0.465
1574943920.402600,158636.333,26982,3,AY,1,100,0.679
1574943920.443683,158671.000,26982,3,AY,1,100,0.916
1574943920.483977,158705.000,27001,3,AY,1,100,0.832
1574943920.524271,158739.000,27001,3,AY,1,100,-3.135
1574943920.564565,158773.000,27001,3,AY,1,100,2.584
1574943920.605649,158807.667,27019,3,AY,1,100,0.745
1574943920.646733,158842.333,27019,3,AY,1,100,0.454
1574943920.687817,158877.000,27019,3,AY,1,100,0.365
1574943920.726531,158909.667,27036,3,AY,1,100,0.402
1574943920.765244,158942.333,27036,3,AY,1,100,0.373
1574943920.803958,158975.000,27036,3,AY,1,100,0.412
1574943920.845437,159010.000,27054,3,AY,1,100,0.464
1574943920.886916,159045.000,27054,3,AY,1,100,0.454
1574943920.928395,159080.000,27054,3,AY,1,100,0.438
1574943920.969479,159114.667,27070,3,AY,1,100,0.423
1574943921.010563,159149.333,27070,3,AY,1,100,0.380
1574943921.051647,159184.000,27070,3,AY,1,100,0.455
1574943921.091546,159217.667,27088,3,AY,1,100,0.481
1574943921.131445,159251.333,27088,3,AY,1,100,0.419
1574943921.171344,159285.000,27088,3,AY,1,100,0.455
1574943921.208872,159316.667,27106,3,AY,1,100,0.476
1574943921.246401,159348.333,27106,3,AY,1,100,0.516
1574943921.283930,159380.000,27106,3,AY,1,100,0.505
1574943921.322248,159412.333,27124,3,AY,1,100,0.533
1574943921.360567,159444.667,27124,3,AY,1,100,0.500
1574943921.398886,159477.000,27124,3,AY,1,100,0.550
1574943921.443525,159514.667,27143,3,AY,1,100,0.545
1574943921.488164,159552.333,27143,3,AY,1,100,0.556
1574943921.532804,159590.000,27143,3,AY,1,100,0.562
1574943921.573888,159624.667,27161,3,AY,1,100,0.556
1574943921.614971,159659.333,27161,3,AY,1,100,0.580
1574943921.656055,159694.000,27161,3,AY,1,100,0.581
1574943921.697534,159729.000,27179,2,AY,1,100,0.602
1574943921.739013,159764.000,27179,2,AY,1,100,0.586
1574943921.777826,159796.750,27197,4,AY,1,100,0.585
1574943921.816638,159829.500,27197,4,AY,1,100,0.655
1574943921.855451,159862.250,27197,4,AY,1,100,0.634
1574943921.894263,159895.000,27197,4,AY,1,100,0.618
1574943921.932582,159927.333,27214,3,AY,1,100,0.664
1574943921.970901,159959.667,27214,3,AY,1,100,0.688
1574943922.009219,159992.000,27214,3,AY,1,100,0.697
1574943922.049513,160026.000,27232,3,AY,1,100,0.752
1574943922.089807,160060.000,27232,3,AY,1,100,0.740
1574943922.130101,160094.000,27232,3,AY,1,100,0.792
1574943922.170790,160128.333,27250,3,AY,1,100,0.768
1574943922.211479,160162.667,27250,3,AY,1,100,0.768
1574943922.252168,160197.000,27250,3,AY,1,100,0.793
1574943922.299572,160237.000,27266,2,AY,1,100,0.792
1574943922.346977,160277.000,27266,2,AY,1,100,0.791
1574943922.385691,160309.667,27285,3,AY,1,100,0.826
1574943922.424405,160342.333,27285,3,AY,1,100,0.915
1574943922.463118,160375.000,27285,3,AY,1,100,0.724
1574943922.501042,160407.000,27303,4,AY,1,100,0.818
1574943922.538965,160439.000,27303,4,AY,1,100,0.858
1574943922.576889,160471.000,27303,4,AY,1,100,0.839
1574943922.614813,160503.000,27303,4,AY,1,100,0.811
1574943922.654712,160536.667,27321,3,AY,1,100,0.841
1574943922.694611,160570.333,27321,3,AY,1,100,0.854
1574943922.734509,160604.000,27321,3,AY,1,100,0.844
1574943922.774408,160637.667,27339,3,AY,1,100,0.844
1574943922.814307,160671.333,27339,3,AY,1,100,0.843
1574943922.854206,160705.000,27339,3,AY,1,100,0.860
1574943922.901611,160745.000,27357,2,AY,1,100,0.856
1574943922.949015,160785.000,27357,2,AY,1,100,0.851
1574943922.988519,160818.333,27375,3,AY,1,100,0.848
1574943923.028023,160851.667,27375,3,AY,1,100,0.854
1574943923.067527,160885.000,27375,3,AY,1,100,0.865
1574943923.105055,160916.667,27393,3,AY,1,100,0.869
1574943923.142584,160948.333,27393,3,AY,1,100,0.860
1574943923.180112,160980.000,27393,3,AY,1,100,0.869
1574943923.219616,161013.333,27410,3,AY,1,100,0.860
1574943923.259120,161046.667,27410,3,AY,1,100,0.861
1574943923.298624,161080.000,27410,3,AY,1,100,0.861
1574943923.339708,161114.667,27429,3,AY,1,100,0.862
1574943923.380792,161149.333,27429,3,AY,1,100,0.862
1574943923.421876,161184.000,27429,3,AY,1,100,0.855
1574943923.462960,161218.667,27445,3,AY,1,100,0.860
1574943923.504044,161253.333,27445,3,AY,1,100,0.865
1574943923.545128,161288.000,27445,3,AY,1,100,0.855
1574943923.588977,161325.000,27463,3,AY,1,100,0.861
1574943923.632826,161362.000,27463,3,AY,1,100,0.858
1574943923.676675,161399.000,27463,3,AY,1,100,0.871
1574943923.713809,161430.333,27481,3,AY,1,100,0.854
1574943923.750942,161461.667,27481,3,AY,1,100,0.855
1574943923.788076,161493.000,27481,3,AY,1,100,0.867
1574943923.827185,161526.000,27499,3,AY,1,100,0.861
1574943923.866294,161559.000,27499,3,AY,1,100,0.861
1574943923.905402,161592.000,27499,3,AY,1,100,0.871
1574943923.946881,161627.000,27517,3,AY,1,100,0.866
1574943923.988360,161662.000,27517,3,AY,1,100,0.857
1574943924.029839,161697.000,27517,3,AY,1,100,0.865
1574943924.070528,161731.333,27535,3,AY,1,100,0.860
1574943924.111217,161765.667,27535,3,AY,1,100,0.861
1574943924.151906,161800.000,27535,3,AY,1,100,0.865
1574943924.192595,161834.333,27553,3,AY,1,100,0.862
1574943924.233284,161868.667,27553,3,AY,1,100,0.863
1574943924.273973,161903.000,27553,3,AY,1,100,0.861
1574943924.311106,161934.333,27571,3,AY,1,100,0.865
1574943924.348240,161965.667,27571,3,AY,1,100,0.863
1574943924.385374,161997.000,27571,3,AY,1,100,0.867
1574943924.424482,162030.000,27589,3,AY,1,100,0.863
1574943924.463591,162063.000,27589,3,AY,1,100,0.866
1574943924.502700,162096.000,27589,3,AY,1,100,0.859
1574943924.541019,162128.333,27607,3,AY,1,100,0.863
1574943924.579337,162160.667,27607,3,AY,1,100,0.870
1574943924.617656,162193.000,27607,3,AY,1,100,0.866
1574943924.661110,162229.667,27625,3,AY,1,100,0.863
1574943924.704564,162266.333,27625,3,AY,1,100,0.862
1574943924.748019,162303.000,27625,3,AY,1,100,0.870
1574943924.785942,162335.000,27641,3,AY,1,100,0.862
1574943924.823866,162367.000,27641,3,AY,1,100,0.866
1574943924.861789,162399.000,27641,3,AY,1,100,0.857
1574943924.904059,162434.667,27659,3,AY,1,100,0.866
1574943924.946328,162470.333,27659,3,AY,1,100,0.867
1574943924.988597,162506.000,27659,3,AY,1,100,0.865
1574943925.029681,162540.667,27677,3,AY,1,100,0.867
1574943925.070765,162575.333,27677,3,AY,1,100,0.865
1574943925.111849,162610.000,27677,3,AY,1,100,0.866
1574943925.152933,162644.667,27695,3,AY,1,100,0.862
1574943925.194017,162679.333,27695,3,AY,1,100,0.867
1574943925.235101,162714.000,27695,3,AY,1,100,0.865
1574943925.274604,162747.333,27713,3,AY,1,100,0.865
1574943925.314108,162780.667,27713,3,AY,1,100,0.865
1574943925.353612,162814.000,27713,3,AY,1,100,0.865
1574943925.391536,162846.000,27732,3,AY,1,100,0.864
1574943925.429459,162878.000,27732,3,AY,1,100,0.865
1574943925.467383,162910.000,27732,3,AY,1,100,0.865
1574943925.506492,162943.000,27750,3,AY,1,100,0.870
1574943925.545600,162976.000,27750,3,AY,1,100,0.865
1574943925.584709,163009.000,27750,3,AY,1,100,0.865
1574943925.630139,163047.333,27767,3,AY,1,100,0.863
1574943925.675568,163085.667,27767,3,AY,1,100,0.875
1574943925.720997,163124.000,27767,3,AY,1,100,0.870
1574943925.761291,163158.000,27785,3,AY,1,100,0.863
1574943925.801585,163192.000,27785,3,AY,1,100,0.864
1574943925.841879,163226.000,27785,3,AY,1,100,0.870
1574943925.880751,163258.800,27806,5,AY,1,100,0.873
1574943925.919623,163291.600,27806,5,AY,1,100,0.866
1574943925.958494,163324.400,27806,5,AY,1,100,0.866
1574943925.997366,163357.200,27806,5,AY,1,100,0.866
1574943926.036238,163390.000,27806,5,AY,1,100,0.871
1574943926.074952,163422.667,27826,3,AY,1,100,0.868
1574943926.113665,163455.333,27826,3,AY,1,100,0.864
1574943926.152379,163488.000,27826,3,AY,1,100,0.865
1574943926.192673,163522.000,27844,3,AY,1,100,0.865
1574943926.232967,163556.000,27844,3,AY,1,100,0.868
1574943926.273261,163590.000,27844,3,AY,1,100,0.868
1574943926.314740,163625.000,27861,2,AY,1,100,0.865
1574943926.356219,163660.000,27861,2,AY,1,100,0.866
1574943926.400858,163697.667,27880,3,AY,1,100,0.864
1574943926.445497,163735.333,27880,3,AY,1,100,0.865
1574943926.490137,163773.000,27880,3,AY,1,100,0.863
1574943926.528850,163805.667,27898,3,AY,1,100,0.871
1574943926.567564,163838.333,27898,3,AY,1,100,0.868
1574943926.606278,163871.000,27898,3,AY,1,100,0.862
1574943926.644202,163903.000,27916,3,AY,1,100,0.866
1574943926.682125,163935.000,27916,3,AY,1,100,0.867
1574943926.720049,163967.000,27916,3,AY,1,100,0.864
1574943926.759948,164000.667,27932,3,AY,1,100,0.865
1574943926.799846,164034.333,27932,3,AY,1,100,0.869
1574943926.839745,164068.000,27932,3,AY,1,100,0.868
1574943926.881224,164103.000,27950,3,AY,1,100,0.862
1574943926.922703,164138.000,27950,3,AY,1,100,0.868
1574943926.964182,164173.000,27950,3,AY,1,100,0.872
1574943927.005661,164208.000,27968,3,AY,1,100,0.868
1574943927.047140,164243.000,27968,3,AY,1,100,0.862
1574943927.088619,164278.000,27968,3,AY,1,100,0.873
1574943927.131679,164314.333,27986,3,AY,1,100,0.865
1574943927.174738,164350.667,27986,3,AY,1,100,0.871
1574943927.217797,164387.000,27986,3,AY,1,100,0.860
1574943927.254535,164418.000,28004,3,AY,1,100,0.869
1574943927.291274,164449.000,28004,3,AY,1,100,0.871
1574943927.328012,164480.000,28004,3,AY,1,100,0.866
1574943927.368306,164514.000,28023,3,AY,1,100,0.865
1574943927.408600,164548.000,28023,3,AY,1,100,0.870
1574943927.448894,164582.000,28023,3,AY,1,100,0.866
1574943927.489188,164616.000,28041,3,AY,1,100,0.866
1574943927.529482,164650.000,28041,3,AY,1,100,0.865
1574943927.569776,164684.000,28041,3,AY,1,100,0.867
1574943927.610465,164718.333,28058,3,AY,1,100,0.866
1574943927.651154,164752.667,28058,3,AY,1,100,0.863
1574943927.691843,164787.000,28058,3,AY,1,100,0.865
1574943927.732531,164821.333,28076,3,AY,1,100,0.865
1574943927.773220,164855.667,28076,3,AY,1,100,0.869
1574943927.813909,164890.000,28076,3,AY,1,100,0.869
1574943927.854203,164924.000,28094,3,AY,1,100,0.867
1574943927.894497,164958.000,28094,3,AY,1,100,0.869
1574943927.934791,164992.000,28094,3,AY,1,100,0.867
1574943927.971529,165023.000,28110,3,AY,1,100,0.866
1574943928.008268,165054.000,28110,3,AY,1,100,0.871
1574943928.045007,165085.000,28110,3,AY,1,100,0.863
1574943928.086091,165119.667,28128,3,AY,1,100,0.871
1574943928.127174,165154.333,28128,3,AY,1,100,0.865
1574943928.168258,165189.000,28128,3,AY,1,100,0.867
1574943928.203812,165219.000,28146,3,AY,1,100,0.870
1574943928.239365,165249.000,28146,3,AY,1,100,0.865
1574943928.274919,165279.000,28146,3,AY,1,100,0.871
1574943928.317583,165315.000,28165,3,AY,1,100,0.864
1574943928.360247,165351.000,28165,3,AY,1,100,0.868
1574943928.402911,165387.000,28165,3,AY,1,100,0.870
1574943928.438464,165417.000,28183,4,AY,1,100,0.871
1574943928.474018,165447.000,28183,4,AY,1,100,0.871
1574943928.509571,165477.000,28183,4,AY,1,100,0.868
1574943928.545125,165507.000,28183,4,AY,1,100,0.870
1574943928.588974,165544.000,28201,2,AY,1,100,0.872
1574943928.632823,165581.000,28201,2,AY,1,100,0.861
1574943928.673512,165615.333,28219,3,AY,1,100,0.870
1574943928.714201,165649.667,28219,3,AY,1,100,0.871
1574943928.754890,165684.000,28219,3,AY,1,100,0.866
1574943928.795974,165718.667,28237,3,AY,1,100,0.872
1574943928.837058,165753.333,28237,3,AY,1,100,0.878
1574943928.878142,165788.000,28237,3,AY,1,100,0.869
1574943928.920016,165823.333,28254,3,AY,1,100,0.870
1574943928.961890,165858.667,28254,3,AY,1,100,0.878
1574943929.003764,165894.000,28254,3,AY,1,100,0.872
1574943929.045638,165929.333,28272,3,AY,1,100,0.881
1574943929.087512,165964.667,28272,3,AY,1,100,0.860
1574943929.129386,166000.000,28272,3,AY,1,100,0.858
1574943929.169680,166034.000,28288,3,AY,1,100,0.865
1574943929.209974,166068.000,28288,3,AY,1,100,0.866
1574943929.250268,166102.000,28288,3,AY,1,100,0.873
1574943929.288586,166134.333,28306,3,AY,1,100,0.872
1574943929.326905,166166.667,28306,3,AY,1,100,0.866
1574943929.365224,166199.000,28306,3,AY,1,100,0.861
1574943929.403938,166231.667,28325,3,AY,1,100,0.870
1574943929.442651,166264.333,28325,3,AY,1,100,0.872
1574943929.481365,166297.000,28325,3,AY,1,100,0.865
1574943929.522449,166331.667,28343,3,AY,1,100,0.870
1574943929.563533,166366.333,28343,3,AY,1,100,0.868
1574943929.604617,166401.000,28343,3,AY,1,100,0.870
1574943929.649256,166438.667,28361,3,AY,1,100,0.868
1574943929.693896,166476.333,28361,3,AY,1,100,0.868
1574943929.738535,166514.000,28361,3,AY,1,100,0.873
1574943929.779224,166548.333,28379,3,AY,1,100,0.870
1574943929.819913,166582.667,28379,3,AY,1,100,0.867
1574943929.860602,166617.000,28379,3,AY,1,100,0.872
1574943929.898130,166648.667,28397,3,AY,1,100,0.874
1574943929.935659,166680.333,28397,3,AY,1,100,0.867
1574943929.973187,166712.000,28397,3,AY,1,100,0.873
1574943930.012296,166745.000,28415,3,AY,1,100,0.871
1574943930.051405,166778.000,28415,3,AY,1,100,0.869
1574943930.090514,166811.000,28415,3,AY,1,100,0.870
1574943930.130413,166844.667,28432,3,AY,1,100,0.870
1574943930.170311,166878.333,28432,3,AY,1,100,0.875
1574943930.210210,166912.000,28432,3,AY,1,100,0.869
1574943930.251294,166946.667,28450,3,AY,1,100,0.877
1574943930.292378,166981.333,28450,3,AY,1,100,0.875
1574943930.333462,167016.000,28450,3,AY,1,100,0.872
1574943930.379682,167055.000,28467,2,AY,1,100,0.871
1574943930.425901,167094.000,28467,2,AY,1,100,0.871
1574943930.464714,167126.750,28485,4,AY,1,100,0.873
1574943930.503526,167159.500,28485,4,AY,1,100,0.874
1574943930.542339,167192.250,28485,4,AY,1,100,0.872
1574943930.581151,167225.000,28485,4,AY,1,100,0.874
1574943930.619865,167257.667,28503,3,AY,1,100,0.867
1574943930.658579,167290.333,28503,3,AY,1,100,0.869
1574943930.697292,167323.000,28503,3,AY,1,100,0.876
1574943930.737586,167357.000,28521,3,AY,1,100,0.870
1574943930.777880,167391.000,28521,3,AY,1,100,0.863
1574943930.818174,167425.000,28521,3,AY,1,100,0.875
1574943930.859653,167460.000,28539,3,AY,1,100,0.870
1574943930.901132,167495.000,28539,3,AY,1,100,0.871
1574943930.942611,167530.000,28539,3,AY,1,100,0.865
1574943930.983497,167564.500,28557,2,AY,1,100,0.874
1574943931.024384,167599.000,28557,2,AY,1,100,0.875
1574943931.067443,167635.333,28575,3,AY,1,100,0.871
1574943931.110502,167671.667,28575,3,AY,1,100,0.870
1574943931.153561,167708.000,28575,3,AY,1,100,0.873
1574943931.190892,167739.500,28593,4,AY,1,100,0.870
1574943931.228224,167771.000,28593,4,AY,1,100,0.870
1574943931.265555,167802.500,28593,4,AY,1,100,0.874
1574943931.302886,167834.000,28593,4,AY,1,100,0.872
1574943931.343772,167868.500,28611,2,AY,1,100,0.868
1574943931.384659,167903.000,28611,2,AY,1,100,0.871
1574943931.425348,167937.333,28629,3,AY,1,100,0.873
1574943931.466037,167971.667,28629,3,AY,1,100,0.872
1574943931.506725,168006.000,28629,3,AY,1,100,0.873
1574943931.547809,168040.667,28645,3,AY,1,100,0.874
1574943931.588893,168075.333,28645,3,AY,1,100,0.874
1574943931.629977,168110.000,28645,3,AY,1,100,0.871
1574943931.669876,168143.667,28663,3,AY,1,100,0.872
1574943931.709775,168177.333,28663,3,AY,1,100,0.876
1574943931.749674,168211.000,28663,3,AY,1,100,0.870
1574943931.789968,168245.000,28681,3,AY,1,100,0.869
1574943931.830262,168279.000,28681,3,AY,1,100,0.878
1574943931.870555,168313.000,28681,3,AY,1,100,0.875
1574943931.908005,168344.600,28702,5,AY,1,100,0.873
1574943931.945455,168376.200,28702,5,AY,1,100,0.875
1574943931.982904,168407.800,28702,5,AY,1,100,0.872
1574943932.020354,168439.400,28702,5,AY,1,100,0.876
1574943932.057804,168471.000,28702,5,AY,1,100,0.870
1574943932.102048,168508.333,28721,3,AY,1,100,0.874
1574943932.146292,168545.667,28721,3,AY,1,100,0.878
1574943932.190536,168583.000,28721,3,AY,1,100,0.869
1574943932.224905,168612.000,28739,3,AY,1,100,0.877
1574943932.259273,168641.000,28739,3,AY,1,100,0.875
1574943932.293641,168670.000,28739,3,AY,1,100,0.876
1574943932.335120,168705.000,28756,3,AY,1,100,0.869
1574943932.376599,168740.000,28756,3,AY,1,100,0.873
1574943932.418078,168775.000,28756,3,AY,1,100,0.871
1574943932.455607,168806.667,28774,3,AY,1,100,0.875
1574943932.493135,168838.333,28774,3,AY,1,100,0.872
1574943932.530664,168870.000,28774,3,AY,1,100,0.873
1574943932.575304,168907.667,28792,3,AY,1,100,0.869
1574943932.619943,168945.333,28792,3,AY,1,100,0.874
1574943932.664582,168983.000,28792,3,AY,1,100,0.872
1574943932.705666,169017.667,28810,3,AY,1,100,0.875
1574943932.746750,169052.333,28810,3,AY,1,100,0.873
1574943932.787834,169087.000,28810,3,AY,1,100,0.873
1574943932.829708,169122.333,28828,3,AY,1,100,0.874
1574943932.871582,169157.667,28828,3,AY,1,100,0.870
1574943932.913456,169193.000,28828,3,AY,1,100,0.874
1574943932.951775,169225.333,28846,3,AY,1,100,0.875
1574943932.990093,169257.667,28846,3,AY,1,100,0.873
1574943933.028412,169290.000,28846,3,AY,1,100,0.870
1574943933.066731,169322.333,28864,3,AY,1,100,0.873
1574943933.105050,169354.667,28864,3,AY,1,100,0.878
1574943933.143368,169387.000,28864,3,AY,1,100,0.875
1574943933.183662,169421.000,28881,3,AY,1,100,0.868
1574943933.223956,169455.000,28881,3,AY,1,100,0.871
1574943933.264250,169489.000,28881,3,AY,1,100,0.873
1574943933.305729,169524.000,28900,3,AY,1,100,0.866
1574943933.347208,169559.000,28900,3,AY,1,100,0.875
1574943933.388687,169594.000,28900,3,AY,1,100,0.874
1574943933.428981,169628.000,28918,3,AY,1,100,0.873
1574943933.469275,169662.000,28918,3,AY,1,100,0.873
1574943933.509568,169696.000,28918,3,AY,1,100,0.875
1574943933.551048,169731.000,28934,2,AY,1,100,0.871
1574943933.592527,169766.000,28934,2,AY,1,100,0.874
1574943933.637561,169804.000,28952,3,AY,1,100,0.874
1574943933.682595,169842.000,28952,3,AY,1,100,0.869
1574943933.727630,169880.000,28952,3,AY,1,100,0.877
1574943933.766146,169912.500,28970,4,AY,1,100,0.876
1574943933.804662,169945.000,28970,4,AY,1,100,0.870
1574943933.843178,169977.500,28970,4,AY,1,100,0.873
1574943933.881695,170010.000,28970,4,AY,1,100,0.876
1574943933.919223,170041.667,28988,3,AY,1,100,0.875
1574943933.956752,170073.333,28988,3,AY,1,100,0.867
1574943933.994280,170105.000,28988,3,AY,1,100,0.878
1574943934.034574,170139.000,29006,3,AY,1,100,0.875
1574943934.074868,170173.000,29006,3,AY,1,100,0.872
1574943934.115162,170207.000,29006,3,AY,1,100,0.869
1574943934.155851,170241.333,29024,3,AY,1,100,0.873
1574943934.196540,170275.667,29024,3,AY,1,100,0.873
1574943934.237229,170310.000,29024,3,AY,1,100,0.874
1574943934.278708,170345.000,29042,2,AY,1,100,0.875
1574943934.320187,170380.000,29042,2,AY,1,100,0.873
1574943934.363246,170416.333,29060,3,AY,1,100,0.872
1574943934.406305,170452.667,29060,3,AY,1,100,0.878
1574943934.449364,170489.000,29060,3,AY,1,100,0.867
1574943934.486992,170520.750,29078,4,AY,1,100,0.878
1574943934.524619,170552.500,29078,4,AY,1,100,0.876
1574943934.562246,170584.250,29078,4,AY,1,100,0.873
1574943934.599874,170616.000,29078,4,AY,1,100,0.872
1574943934.639773,170649.667,29096,3,AY,1,100,0.875
1574943934.679672,170683.333,29096,3,AY,1,100,0.873
1574943934.719570,170717.000,29096,3,AY,1,100,0.875
1574943934.761049,170752.000,29112,2,AY,1,100,0.875
1574943934.802528,170787.000,29112,2,AY,1,100,0.877
1574943934.843612,170821.667,29130,3,AY,1,100,0.877
1574943934.884696,170856.333,29130,3,AY,1,100,0.876
1574943934.925780,170891.000,29130,3,AY,1,100,0.870
1574943934.966469,170925.333,29148,3,AY,1,100,0.869
1574943935.007158,170959.667,29148,3,AY,1,100,0.876
1574943935.047847,170994.000,29148,3,AY,1,100,0.872
1574943935.088931,171028.667,29166,3,AY,1,100,0.872
1574943935.130015,171063.333,29166,3,AY,1,100,0.880
1574943935.171099,171098.000,29166,3,AY,1,100,0.875
1574943935.210207,171131.000,29184,3,AY,1,100,0.871
1574943935.249316,171164.000,29184,3,AY,1,100,0.873
1574943935.288425,171197.000,29184,3,AY,1,100,0.875
1574943935.329904,171232.000,29203,3,AY,1,100,0.874
1574943935.371383,171267.000,29203,3,AY,1,100,0.874
1574943935.412862,171302.000,29203,3,AY,1,100,0.871
1574943935.453946,171336.667,29221,3,AY,1,100,0.872
1574943935.495030,171371.333,29221,3,AY,1,100,0.872
1574943935.536114,171406.000,29221,3,AY,1,100,0.873
1574943935.576013,171439.667,29238,3,AY,1,100,0.877
1574943935.615912,171473.333,29238,3,AY,1,100,0.871
1574943935.655811,171507.000,29238,3,AY,1,100,0.872
1574943935.694129,171539.333,29256,3,AY,1,100,0.878
1574943935.732448,171571.667,29256,3,AY,1,100,0.870
1574943935.770767,171604.000,29256,3,AY,1,100,0.873
1574943935.812246,171639.000,29274,3,AY,1,100,0.874
1574943935.853725,171674.000,29274,3,AY,1,100,0.875
1574943935.895204,171709.000,29274,3,AY,1,100,0.874
1574943935.933127,171741.000,29290,3,AY,1,100,0.877
1574943935.971051,171773.000,29290,3,AY,1,100,0.872
1574943936.008975,171805.000,29290,3,AY,1,100,0.874
1574943936.052034,171841.333,29308,3,AY,1,100,0.869
1574943936.095093,171877.667,29308,3,AY,1,100,0.875
1574943936.138152,171914.000,29308,3,AY,1,100,0.875
1574943936.174101,171944.333,29326,3,AY,1,100,0.877
1574943936.210049,171974.667,29326,3,AY,1,100,0.876
1574943936.245997,172005.000,29326,3,AY,1,100,0.874
1574943936.291032,172043.000,29345,3,AY,1,100,0.880
1574943936.336066,172081.000,29345,3,AY,1,100,0.882
1574943936.381100,172119.000,29345,3,AY,1,100,0.874
1574943936.421789,172153.333,29363,3,AY,1,100,0.880
1574943936.462478,172187.667,29363,3,AY,1,100,0.875
1574943936.503167,172222.000,29363,3,AY,1,100,0.875
1574943936.544646,172257.000,29381,3,AY,1,100,0.878
1574943936.586125,172292.000,29381,3,AY,1,100,0.877
1574943936.627604,172327.000,29381,3,AY,1,100,0.880
1574943936.667108,172360.333,29399,3,AY,1,100,0.874
1574943936.706612,172393.667,29399,3,AY,1,100,0.875
1574943936.746116,172427.000,29399,3,AY,1,100,0.888
1574943936.787595,172462.000,29416,3,AY,1,100,0.879
1574943936.829074,172497.000,29416,3,AY,1,100,0.876
1574943936.870553,172532.000,29416,3,AY,1,100,0.879
1574943936.908476,172564.000,29434,3,AY,1,100,0.881
1574943936.946400,172596.000,29434,3,AY,1,100,0.882
1574943936.984324,172628.000,29434,3,AY,1,100,0.882
1574943937.021852,172659.667,29452,3,AY,1,100,0.876
1574943937.059381,172691.333,29452,3,AY,1,100,0.884
1574943937.096910,172723.000,29452,3,AY,1,100,0.882
1574943937.137203,172757.000,29468,3,AY,1,100,0.875
1574943937.177497,172791.000,29468,3,AY,1,100,0.884
1574943937.217791,172825.000,29468,3,AY,1,100,0.879
1574943937.262825,172863.000,29486,3,AY,1,100,0.881
1574943937.307860,172901.000,29486,3,AY,1,100,0.881
1574943937.352894,172939.000,29486,3,AY,1,100,0.883
1574943937.394966,172974.500,29505,2,AY,1,100,0.881
1574943937.437037,173010.000,29505,2,AY,1,100,0.883
1574943937.475850,173042.750,29523,4,AY,1,100,0.884
1574943937.514662,173075.500,29523,4,AY,1,100,0.883
1574943937.553475,173108.250,29523,4,AY,1,100,0.875
1574943937.592287,173141.000,29523,4,AY,1,100,0.882
1574943937.630606,173173.333,29541,3,AY,1,100,0.882
1574943937.668925,173205.667,29541,3,AY,1,100,0.882
1574943937.707243,173238.000,29541,3,AY,1,100,0.881
1574943937.747142,173271.667,29559,3,AY,1,100,0.878
1574943937.787041,173305.333,29559,3,AY,1,100,0.881
1574943937.826940,173339.000,29559,3,AY,1,100,0.881
1574943937.867629,173373.333,29577,3,AY,1,100,0.880
1574943937.908318,173407.667,29577,3,AY,1,100,0.885
1574943937.949007,173442.000,29577,3,AY,1,100,0.887
1574943937.993152,173479.250,29598,4,AY,1,100,0.873
1574943938.037298,173516.500,29598,4,AY,1,100,0.889
1574943938.081443,173553.750,29598,4,AY,1,100,0.883
1574943938.125589,173591.000,29598,4,AY,1,100,0.876
1574943938.163512,173623.000,29618,3,AY,1,100,0.890
1574943938.201436,173655.000,29618,3,AY,1,100,0.882
1574943938.239360,173687.000,29618,3,AY,1,100,0.887
1574943938.277678,173719.333,29636,3,AY,1,100,0.890
1574943938.315997,173751.667,29636,3,AY,1,100,0.880
1574943938.354316,173784.000,29636,3,AY,1,100,0.882
1574943938.395005,173818.333,29655,3,AY,1,100,0.875
1574943938.435694,173852.667,29655,3,AY,1,100,0.883
1574943938.476382,173887.000,29655,3,AY,1,100,0.884
1574943938.517071,173921.333,29673,3,AY,1,100,0.886
1574943938.557760,173955.667,29673,3,AY,1,100,0.877
1574943938.598449,173990.000,29673,3,AY,1,100,0.884
1574943938.639533,174024.667,29690,3,AY,1,100,0.886
1574943938.680617,174059.333,29690,3,AY,1,100,0.878
1574943938.721701,174094.000,29690,3,AY,1,100,0.885
1574943938.760415,174126.667,29708,3,AY,1,100,0.886
1574943938.799129,174159.333,29708,3,AY,1,100,0.885
1574943938.837842,174192.000,29708,3,AY,1,100,0.884
1574943938.879716,174227.333,29726,3,AY,1,100,0.880
1574943938.921591,174262.667,29726,3,AY,1,100,0.881
1574943938.963464,174298.000,29726,3,AY,1,100,0.881
1574943939.002573,174331.000,29742,3,AY,1,100,0.885
1574943939.041682,174364.000,29742,3,AY,1,100,0.880
1574943939.080791,174397.000,29742,3,AY,1,100,0.885
1574943939.122270,174432.000,29760,3,AY,1,100,0.883
1574943939.163749,174467.000,29760,3,AY,1,100,0.886
1574943939.205228,174502.000,29760,3,AY,1,100,0.884
1574943939.246312,174536.667,29778,3,AY,1,100,0.884
1574943939.287396,174571.333,29778,3,AY,1,100,0.885
1574943939.328480,174606.000,29778,3,AY,1,100,0.887
1574943939.366403,174638.000,29797,3,AY,1,100,0.883
1574943939.404327,174670.000,29797,3,AY,1,100,0.882
1574943939.442251,174702.000,29797,3,AY,1,100,0.886
1574943939.480964,174734.667,29815,3,AY,1,100,0.883
1574943939.519678,174767.333,29815,3,AY,1,100,0.886
1574943939.558392,174800.000,29815,3,AY,1,100,0.886
1574943939.602241,174837.000,29833,3,AY,1,100,0.884
1574943939.646090,174874.000,29833,3,AY,1,100,0.888
1574943939.689939,174911.000,29833,3,AY,1,100,0.884
1574943939.728653,174943.667,29851,3,AY,1,100,0.886
1574943939.767367,174976.333,29851,3,AY,1,100,0.889
1574943939.806081,175009.000,29851,3,AY,1,100,0.881
1574943939.851708,175047.500,29868,2,AY,1,100,0.886
1574943939.897335,175086.000,29868,2,AY,1,100,0.883
1574943939.935851,175118.500,29886,4,AY,1,100,0.887
1574943939.974367,175151.000,29886,4,AY,1,100,0.878
1574943940.012883,175183.500,29886,4,AY,1,100,0.888
1574943940.051399,175216.000,29886,4,AY,1,100,0.886
1574943940.098212,175255.500,29902,2,AY,1,100,0.889
1574943940.145024,175295.000,29902,2,AY,1,100,0.890
1574943940.182552,175326.667,29920,3,AY,1,100,0.883
1574943940.220081,175358.333,29920,3,AY,1,100,0.888
1574943940.257609,175390.000,29920,3,AY,1,100,0.887
1574943940.302644,175428.000,29939,3,AY,1,100,0.887
1574943940.347678,175466.000,29939,3,AY,1,100,0.884
1574943940.392712,175504.000,29939,3,AY,1,100,0.888
1574943940.433401,175538.333,29957,3,AY,1,100,0.888
1574943940.474090,175572.667,29957,3,AY,1,100,0.886
1574943940.514779,175607.000,29957,3,AY,1,100,0.885
1574943940.555863,175641.667,29975,3,AY,1,100,0.883
1574943940.596947,175676.333,29975,3,AY,1,100,0.882
1574943940.638031,175711.000,29975,3,AY,1,100,0.886
1574943940.675955,175743.000,29993,3,AY,1,100,0.883
1574943940.713878,175775.000,29993,3,AY,1,100,0.888
1574943940.751802,175807.000,29993,3,AY,1,100,0.885
1574943940.790516,175839.667,30011,3,AY,1,100,0.883
1574943940.829230,175872.333,30011,3,AY,1,100,0.885
1574943940.867943,175905.000,30011,3,AY,1,100,0.880
1574943940.908632,175939.333,30028,3,AY,1,100,0.888
1574943940.949321,175973.667,30028,3,AY,1,100,0.885
1574943940.990010,176008.000,30028,3,AY,1,100,0.886
1574943941.034649,176045.667,30046,3,AY,1,100,0.882
1574943941.079288,176083.333,30046,3,AY,1,100,0.886
1574943941.123928,176121.000,30046,3,AY,1,100,0.885
1574943941.162247,176153.333,30062,3,AY,1,100,0.882
1574943941.200565,176185.667,30062,3,AY,1,100,0.885
1574943941.238884,176218.000,30062,3,AY,1,100,0.888
1574943941.279968,176252.667,30080,3,AY,1,100,0.886
1574943941.321052,176287.333,30080,3,AY,1,100,0.887
1574943941.362136,176322.000,30080,3,AY,1,100,0.883
1574943941.409540,176362.000,30099,2,AY,1,100,0.885
1574943941.456945,176402.000,30099,2,AY,1,100,0.888
1574943941.494572,176433.750,30117,4,AY,1,100,0.886
1574943941.532200,176465.500,30117,4,AY,1,100,0.884
1574943941.569827,176497.250,30117,4,AY,1,100,0.892
1574943941.607455,176529.000,30117,4,AY,1,100,0.885
1574943941.646563,176562.000,30135,3,AY,1,100,0.882
1574943941.685672,176595.000,30135,3,AY,1,100,0.887
1574943941.724781,176628.000,30135,3,AY,1,100,0.889
1574943941.765075,176662.000,30153,3,AY,1,100,0.886
1574943941.805369,176696.000,30153,3,AY,1,100,0.885
1574943941.845663,176730.000,30153,3,AY,1,100,0.888
1574943941.886746,176764.667,30171,3,AY,1,100,0.892
1574943941.927830,176799.333,30171,3,AY,1,100,0.882
1574943941.968914,176834.000,30171,3,AY,1,100,0.880
1574943942.010393,176869.000,30188,2,AY,1,100,0.888
1574943942.051872,176904.000,30188,2,AY,1,100,0.886
1574943942.094537,176940.000,30206,3,AY,1,100,0.883
1574943942.137201,176976.000,30206,3,AY,1,100,0.888
1574943942.179865,177012.000,30206,3,AY,1,100,0.882
1574943942.217788,177044.000,30224,4,AY,1,100,0.886
1574943942.255712,177076.000,30224,4,AY,1,100,0.884
1574943942.293636,177108.000,30224,4,AY,1,100,0.887
1574943942.331559,177140.000,30224,4,AY,1,100,0.890
1574943942.372446,177174.500,30241,2,AY,1,100,0.878
1574943942.413332,177209.000,30241,2,AY,1,100,0.884
1574943942.454416,177243.667,30259,3,AY,1,100,0.885
1574943942.495500,177278.333,30259,3,AY,1,100,0.884
1574943942.536584,177313.000,30259,3,AY,1,100,0.884
1574943942.578063,177348.000,30277,3,AY,1,100,0.884
1574943942.619542,177383.000,30277,3,AY,1,100,0.888
1574943942.661021,177418.000,30277,3,AY,1,100,0.887
1574943942.699735,177450.667,30295,3,AY,1,100,0.885
1574943942.738449,177483.333,30295,3,AY,1,100,0.888
1574943942.777162,177516.000,30295,3,AY,1,100,0.881
1574943942.815086,177548.000,30313,3,AY,1,100,0.888
1574943942.853010,177580.000,30313,3,AY,1,100,0.883
1574943942.890933,177612.000,30313,3,AY,1,100,0.881
1574943942.935178,177649.333,30331,3,AY,1,100,0.884
1574943942.979422,177686.667,30331,3,AY,1,100,0.883
1574943943.023666,177724.000,30331,3,AY,1,100,0.886
1574943943.064750,177758.667,30349,3,AY,1,100,0.892
1574943943.105834,177793.333,30349,3,AY,1,100,0.881
1574943943.146918,177828.000,30349,3,AY,1,100,0.882
1574943943.187607,177862.333,30366,3,AY,1,100,0.887
1574943943.228296,177896.667,30366,3,AY,1,100,0.887
1574943943.268985,177931.000,30366,3,AY,1,100,0.884
1574943943.309279,177965.000,30384,3,AY,1,100,0.888
1574943943.349573,177999.000,30384,3,AY,1,100,0.889
1574943943.389866,178033.000,30384,3,AY,1,100,0.883
1574943943.426605,178064.000,30403,3,AY,1,100,0.887
1574943943.463344,178095.000,30403,3,AY,1,100,0.885
1574943943.500082,178126.000,30403,3,AY,1,100,0.880
1574943943.543931,178163.000,30419,3,AY,1,100,0.887
1574943943.587780,178200.000,30419,3,AY,1,100,0.886
1574943943.631630,178237.000,30419,3,AY,1,100,0.891
1574943943.672714,178271.667,30437,3,AY,1,100,0.885
1574943943.713798,178306.333,30437,3,AY,1,100,0.880
1574943943.754882,178341.000,30437,3,AY,1,100,0.883
1574943943.792805,178373.000,30455,3,AY,1,100,0.888
1574943943.830729,178405.000,30455,3,AY,1,100,0.885
1574943943.868653,178437.000,30455,3,AY,1,100,0.886
1574943943.913687,178475.000,30473,3,AY,1,100,0.881
1574943943.958721,178513.000,30473,3,AY,1,100,0.889
1574943944.003756,178551.000,30473,3,AY,1,100,0.886
1574943944.044642,178585.500,30494,4,AY,1,100,0.884
1574943944.085529,178620.000,30494,4,AY,1,100,0.886
1574943944.126415,178654.500,30494,4,AY,1,100,0.885
1574943944.167301,178689.000,30494,4,AY,1,100,0.883
1574943944.207990,178723.333,30512,3,AY,1,100,0.886
1574943944.248679,178757.667,30512,3,AY,1,100,0.886
1574943944.289368,178792.000,30512,3,AY,1,100,0.886
1574943944.330057,178826.333,30533,3,AY,1,100,0.886
1574943944.370746,178860.667,30533,3,AY,1,100,0.878
1574943944.411435,178895.000,30533,3,AY,1,100,0.888
1574943944.448964,178926.667,30551,3,AY,1,100,0.894
1574943944.486492,178958.333,30551,3,AY,1,100,0.888
1574943944.524021,178990.000,30551,3,AY,1,100,0.881
1574943944.563920,179023.667,30569,3,AY,1,100,0.889
1574943944.603818,179057.333,30569,3,AY,1,100,0.885
1574943944.643717,179091.000,30569,3,AY,1,100,0.889
1574943944.682036,179123.333,30587,3,AY,1,100,0.889
1574943944.720355,179155.667,30587,3,AY,1,100,0.887
1574943944.758673,179188.000,30587,3,AY,1,100,0.880
1574943944.798079,179221.250,30605,4,AY,1,100,0.885
1574943944.837484,179254.500,30605,4,AY,1,100,0.882
1574943944.876889,179287.750,30605,4,AY,1,100,0.893
1574943944.916294,179321.000,30605,4,AY,1,100,0.881
1574943944.958365,179356.500,30622,2,AY,1,100,0.882
1574943945.000437,179392.000,30622,2,AY,1,100,0.893
1574943945.041126,179426.333,30640,3,AY,1,100,0.887
1574943945.081815,179460.667,30640,3,AY,1,100,0.883
1574943945.122504,179495.000,30640,3,AY,1,100,0.885
1574943945.165958,179531.667,30658,3,AY,1,100,0.887
1574943945.209412,179568.333,30658,3,AY,1,100,0.891
1574943945.252866,179605.000,30658,3,AY,1,100,0.889
1574943945.290395,179636.667,30674,3,AY,1,100,0.886
1574943945.327923,179668.333,30674,3,AY,1,100,0.884
1574943945.365452,179700.000,30674,3,AY,1,100,0.887
1574943945.404956,179733.333,30693,3,AY,1,100,0.888
1574943945.444460,179766.667,30693,3,AY,1,100,0.885
1574943945.483963,179800.000,30693,3,AY,1,100,0.887
1574943945.523862,179833.667,30711,3,AY,1,100,0.887
1574943945.563761,179867.333,30711,3,AY,1,100,0.882
1574943945.603660,179901.000,30711,3,AY,1,100,0.894
1574943945.645139,179936.000,30729,3,AY,1,100,0.886
1574943945.686618,179971.000,30729,3,AY,1,100,0.892
1574943945.728097,180006.000,30729,3,AY,1,100,0.888
1574943945.768786,180040.333,30747,3,AY,1,100,0.886
1574943945.809475,180074.667,30747,3,AY,1,100,0.891
1574943945.850164,180109.000,30747,3,AY,1,100,0.890
1574943945.891248,180143.667,30765,3,AY,1,100,0.878
1574943945.932332,180178.333,30765,3,AY,1,100,0.893
1574943945.973416,180213.000,30765,3,AY,1,100,0.893
1574943946.012129,180245.667,30783,3,AY,1,100,0.878
1574943946.050843,180278.333,30783,3,AY,1,100,0.889
1574943946.089557,180311.000,30783,3,AY,1,100,0.883
1574943946.130246,180345.333,30801,3,AY,1,100,0.888
1574943946.170935,180379.667,30801,3,AY,1,100,0.889
1574943946.211624,180414.000,30801,3,AY,1,100,0.894
1574943946.252707,180448.667,30818,3,AY,1,100,0.892
1574943946.293792,180483.333,30818,3,AY,1,100,0.887
1574943946.334875,180518.000,30818,3,AY,1,100,0.894
1574943946.376354,180553.000,30837,3,AY,1,100,0.881
1574943946.417833,180588.000,30837,3,AY,1,100,0.889
1574943946.459312,180623.000,30837,3,AY,1,100,0.889
1574943946.496841,180654.667,30853,3,AY,1,100,0.886
1574943946.534370,180686.333,30853,3,AY,1,100,0.883
1574943946.571898,180718.000,30853,3,AY,1,100,0.894
1574943946.610217,180750.333,30871,3,AY,1,100,0.889
1574943946.648536,180782.667,30871,3,AY,1,100,0.884
1574943946.686854,180815.000,30871,3,AY,1,100,0.889
1574943946.731099,180852.333,30889,3,AY,1,100,0.888
1574943946.775343,180889.667,30889,3,AY,1,100,0.881
1574943946.819587,180927.000,30889,3,AY,1,100,0.887
1574943946.860276,180961.333,30907,3,AY,1,100,0.889
1574943946.900965,180995.667,30907,3,AY,1,100,0.885
1574943946.941654,181030.000,30907,3,AY,1,100,0.881
1574943946.982343,181064.333,30925,3,AY,1,100,0.884
1574943947.023032,181098.667,30925,3,AY,1,100,0.882
1574943947.063721,181133.000,30925,3,AY,1,100,0.886
1574943947.102039,181165.333,30943,3,AY,1,100,0.885
1574943947.140358,181197.667,30943,3,AY,1,100,0.887
1574943947.178677,181230.000,30943,3,AY,1,100,0.884
1574943947.215810,181261.333,30961,3,AY,1,100,0.886
1574943947.252944,181292.667,30961,3,AY,1,100,0.887
1574943947.290077,181324.000,30961,3,AY,1,100,0.884
1574943947.331161,181358.667,30980,3,AY,1,100,0.886
1574943947.372246,181393.333,30980,3,AY,1,100,0.891
1574943947.413329,181428.000,30980,3,AY,1,100,0.887
1574943947.451648,181460.333,30998,3,AY,1,100,0.885
1574943947.489967,181492.667,30998,3,AY,1,100,0.886
1574943947.528286,181525.000,30998,3,AY,1,100,0.887
1574943947.573715,181563.333,31015,3,AY,1,100,0.885
1574943947.619144,181601.667,31015,3,AY,1,100,0.886
1574943947.664574,181640.000,31015,3,AY,1,100,0.891
1574943947.705460,181674.500,31031,2,AY,1,100,0.884
1574943947.746346,181709.000,31031,2,AY,1,100,0.888
1574943947.784665,181741.333,31049,3,AY,1,100,0.885
1574943947.822984,181773.667,31049,3,AY,1,100,0.886
1574943947.861303,181806.000,31049,3,AY,1,100,0.887
1574943947.906337,181844.000,31067,3,AY,1,100,0.886
1574943947.951371,181882.000,31067,3,AY,1,100,0.883
1574943947.996406,181920.000,31067,3,AY,1,100,0.886
1574943948.034329,181952.000,31085,3,AY,1,100,0.889
1574943948.072253,181984.000,31085,3,AY,1,100,0.885
1574943948.110177,182016.000,31085,3,AY,1,100,0.887
1574943948.155211,182054.000,31103,3,AY,1,100,0.887
1574943948.200245,182092.000,31103,3,AY,1,100,0.889
1574943948.245280,182130.000,31103,3,AY,1,100,0.884
1574943948.285573,182164.000,31121,3,AY,1,100,0.890
1574943948.325867,182198.000,31121,3,AY,1,100,0.886
1574943948.366161,182232.000,31121,3,AY,1,100,0.887
1574943948.403690,182263.667,31140,3,AY,1,100,0.885
1574943948.441219,182295.333,31140,3,AY,1,100,0.891
1574943948.478747,182327.000,31140,3,AY,1,100,0.882
1574943948.518646,182360.667,31157,3,AY,1,100,0.880
1574943948.558545,182394.333,31157,3,AY,1,100,0.889
1574943948.598444,182428.000,31157,3,AY,1,100,0.888
1574943948.638738,182462.000,31175,3,AY,1,100,0.883
1574943948.679032,182496.000,31175,3,AY,1,100,0.889
1574943948.719325,182530.000,31175,3,AY,1,100,0.889
1574943948.760804,182565.000,31191,3,AY,1,100,0.882
1574943948.802283,182600.000,31191,3,AY,1,100,0.885
1574943948.843762,182635.000,31191,3,AY,1,100,0.891
1574943948.887612,182672.000,31209,3,AY,1,100,0.883
1574943948.931461,182709.000,31209,3,AY,1,100,0.887
1574943948.975310,182746.000,31209,3,AY,1,100,0.886
1574943949.013234,182778.000,31227,3,AY,1,100,0.890
1574943949.051157,182810.000,31227,3,AY,1,100,0.886
1574943949.089081,182842.000,31227,3,AY,1,100,0.887
1574943949.127400,182874.333,31245,3,AY,1,100,0.886
1574943949.165719,182906.667,31245,3,AY,1,100,0.886
1574943949.204037,182939.000,31245,3,AY,1,100,0.882
1574943949.244726,182973.333,31263,3,AY,1,100,0.897
1574943949.285415,183007.667,31263,3,AY,1,100,0.889
1574943949.326104,183042.000,31263,3,AY,1,100,0.891
1574943949.366398,183076.000,31282,3,AY,1,100,0.879
1574943949.406692,183110.000,31282,3,AY,1,100,0.894
1574943949.446985,183144.000,31282,3,AY,1,100,0.892
1574943949.487674,183178.333,31300,3,AY,1,100,0.882
1574943949.528363,183212.667,31300,3,AY,1,100,0.884
1574943949.569052,183247.000,31300,3,AY,1,100,0.891
1574943949.610531,183282.000,31318,3,AY,1,100,0.891
1574943949.652010,183317.000,31318,3,AY,1,100,0.885
1574943949.693489,183352.000,31318,3,AY,1,100,0.890
1574943949.731808,183384.333,31335,3,AY,1,100,0.884
1574943949.770127,183416.667,31335,3,AY,1,100,0.889
1574943949.808445,183449.000,31335,3,AY,1,100,0.886
1574943949.848739,183483.000,31353,3,AY,1,100,0.888
1574943949.889033,183517.000,31353,3,AY,1,100,0.887
1574943949.929327,183551.000,31353,3,AY,1,100,0.889
1574943949.970806,183586.000,31371,3,AY,1,100,0.884
1574943950.012285,183621.000,31371,3,AY,1,100,0.886
1574943950.053764,183656.000,31371,3,AY,1,100,0.886
1574943950.094058,183690.000,31390,4,AY,1,100,0.890
1574943950.134352,183724.000,31390,4,AY,1,100,0.886
1574943950.174646,183758.000,31390,4,AY,1,100,0.882
1574943950.214940,183792.000,31390,4,AY,1,100,0.890
1574943950.253160,183824.250,31408,4,AY,1,100,0.890
1574943950.291379,183856.500,31408,4,AY,1,100,0.883
1574943950.329599,183888.750,31408,4,AY,1,100,0.889
1574943950.367819,183921.000,31408,4,AY,1,100,0.889
1574943950.412261,183958.500,31430,2,AY,1,100,0.885
1574943950.456703,183996.000,31430,2,AY,1,100,0.886
1574943950.497787,184030.667,31448,3,AY,1,100,0.888
1574943950.538871,184065.333,31448,3,AY,1,100,0.884
1574943950.579955,184100.000,31448,3,AY,1,100,0.887
1574943950.620644,184134.333,31466,3,AY,1,100,0.886
1574943950.661333,184168.667,31466,3,AY,1,100,0.888
1574943950.702022,184203.000,31466,3,AY,1,100,0.885
1574943950.743106,184237.667,31482,3,AY,1,100,0.885
1574943950.784189,184272.333,31482,3,AY,1,100,0.886
1574943950.825274,184307.000,31482,3,AY,1,100,0.889
1574943950.862802,184338.667,31500,3,AY,1,100,0.887
1574943950.900331,184370.333,31500,3,AY,1,100,0.883
1574943950.937859,184402.000,31500,3,AY,1,100,0.889
1574943950.976178,184434.333,31518,3,AY,1,100,0.888
1574943951.014497,184466.667,31518,3,AY,1,100,0.887
1574943951.052815,184499.000,31518,3,AY,1,100,0.887
1574943951.097455,184536.667,31536,3,AY,1,100,0.886
1574943951.142094,184574.333,31536,3,AY,1,100,0.888
1574943951.186733,184612.000,31536,3,AY,1,100,0.886
1574943951.222682,184642.333,31554,3,AY,1,100,0.898
1574943951.258630,184672.667,31554,3,AY,1,100,0.887
1574943951.294579,184703.000,31554,3,AY,1,100,0.884
1574943951.339218,184740.667,31573,3,AY,1,100,0.888
1574943951.383857,184778.333,31573,3,AY,1,100,0.885
1574943951.428497,184816.000,31573,3,AY,1,100,0.888
1574943951.469976,184851.000,31591,3,AY,1,100,0.889
1574943951.511455,184886.000,31591,3,AY,1,100,0.883
1574943951.552934,184921.000,31591,3,AY,1,100,0.892
1574943951.595203,184956.667,31608,3,AY,1,100,0.888
1574943951.637472,184992.333,31608,3,AY,1,100,0.885
1574943951.679741,185028.000,31608,3,AY,1,100,0.886
1574943951.720825,185062.667,31624,3,AY,1,100,0.891
1574943951.761909,185097.333,31624,3,AY,1,100,0.882
1574943951.802993,185132.000,31624,3,AY,1,100,0.886
1574943951.839139,185162.500,31642,2,AY,1,100,0.889
1574943951.875285,185193.000,31642,2,AY,1,100,0.882
1574943951.920319,185231.000,31660,3,AY,1,100,0.886
1574943951.965353,185269.000,31660,3,AY,1,100,0.889
1574943952.010388,185307.000,31660,3,AY,1,100,0.883
1574943952.049892,185340.333,31678,3,AY,1,100,0.892
1574943952.089396,185373.667,31678,3,AY,1,100,0.884
1574943952.128899,185407.000,31678,3,AY,1,100,0.885
1574943952.166823,185439.000,31696,4,AY,1,100,0.888
1574943952.204746,185471.000,31696,4,AY,1,100,0.885
1574943952.242670,185503.000,31696,4,AY,1,100,0.891
1574943952.280594,185535.000,31696,4,AY,1,100,0.882
1574943952.322073,185570.000,31714,2,AY,1,100,0.890
1574943952.363552,185605.000,31714,2,AY,1,100,0.887
1574943952.403253,185638.500,31733,4,AY,1,100,0.886
1574943952.442955,185672.000,31733,4,AY,1,100,0.888
1574943952.482656,185705.500,31733,4,AY,1,100,0.889
1574943952.522357,185739.000,31733,4,AY,1,100,0.889
1574943952.563836,185774.000,31751,2,AY,1,100,0.888
1574943952.605315,185809.000,31751,2,AY,1,100,0.889
1574943952.646004,185843.333,31768,3,AY,1,100,0.890
1574943952.686693,185877.667,31768,3,AY,1,100,0.896
1574943952.727382,185912.000,31768,3,AY,1,100,0.889
1574943952.768861,185947.000,31786,3,AY,1,100,0.887
1574943952.810340,185982.000,31786,3,AY,1,100,0.889
1574943952.851819,186017.000,31786,3,AY,1,100,0.889
1574943952.894088,186052.667,31802,3,AY,1,100,0.889
1574943952.936357,186088.333,31802,3,AY,1,100,0.887
1574943952.978626,186124.000,31802,3,AY,1,100,0.888
1574943953.016550,186156.000,31820,3,AY,1,100,0.892
1574943953.054473,186188.000,31820,3,AY,1,100,0.885
1574943953.092397,186220.000,31820,3,AY,1,100,0.888
1574943953.131506,186253.000,31838,3,AY,1,100,0.887
1574943953.170615,186286.000,31838,3,AY,1,100,0.889
1574943953.209723,186319.000,31838,3,AY,1,100,0.886
1574943953.251202,186354.000,31856,3,AY,1,100,0.884
1574943953.292681,186389.000,31856,3,AY,1,100,0.885
1574943953.334161,186424.000,31856,3,AY,1,100,0.889
1574943953.375244,186458.667,31875,3,AY,1,100,0.885
1574943953.416328,186493.333,31875,3,AY,1,100,0.884
1574943953.457412,186528.000,31875,3,AY,1,100,0.887
1574943953.496521,186561.000,31893,3,AY,1,100,0.886
1574943953.535630,186594.000,31893,3,AY,1,100,0.888
1574943953.574739,186627.000,31893,3,AY,1,100,0.889
1574943953.616218,186662.000,31911,3,AY,1,100,0.885
1574943953.657697,186697.000,31911,3,AY,1,100,0.890
1574943953.699176,186732.000,31911,3,AY,1,100,0.887
1574943953.738679,186765.333,31929,3,AY,1,100,0.886
1574943953.778183,186798.667,31929,3,AY,1,100,0.886
1574943953.817687,186832.000,31929,3,AY,1,100,0.891
1574943953.859166,186867.000,31946,3,AY,1,100,0.886
1574943953.900645,186902.000,31946,3,AY,1,100,0.886
1574943953.942124,186937.000,31946,3,AY,1,100,0.887
1574943953.983603,186972.000,31964,3,AY,1,100,0.886
1574943954.025082,187007.000,31964,3,AY,1,100,0.884
1574943954.066561,187042.000,31964,3,AY,1,100,0.886
1574943954.106065,187075.333,31980,3,AY,1,100,0.888
1574943954.145569,187108.667,31980,3,AY,1,100,0.887
1574943954.185072,187142.000,31980,3,AY,1,100,0.892
1574943954.222996,187174.000,31998,3,AY,1,100,0.890
1574943954.260920,187206.000,31998,3,AY,1,100,0.886
1574943954.298843,187238.000,31998,3,AY,1,100,0.889
1574943954.342298,187274.667,32017,3,AY,1,100,0.885
1574943954.385752,187311.333,32017,3,AY,1,100,0.890
1574943954.429206,187348.000,32017,3,AY,1,100,0.888
1574943954.469895,187382.333,32035,3,AY,1,100,0.885
1574943954.510584,187416.667,32035,3,AY,1,100,0.889
1574943954.551273,187451.000,32035,3,AY,1,100,0.887
1574943954.591962,187485.333,32053,3,AY,1,100,0.886
1574943954.632651,187519.667,32053,3,AY,1,100,0.890
1574943954.673340,187554.000,32053,3,AY,1,100,0.881
1574943954.714029,187588.333,32071,3,AY,1,100,0.883
1574943954.754717,187622.667,32071,3,AY,1,100,0.896
1574943954.795406,187657.000,32071,3,AY,1,100,0.885
1574943954.832145,187688.000,32089,3,AY,1,100,0.891
1574943954.868883,187719.000,32089,3,AY,1,100,0.881
1574943954.905622,187750.000,32089,3,AY,1,100,0.889
1574943954.945126,187783.333,32107,3,AY,1,100,0.891
1574943954.984630,187816.667,32107,3,AY,1,100,0.883
1574943955.024133,187850.000,32107,3,AY,1,100,0.888
1574943955.063242,187883.000,32124,2,AY,1,100,0.879
1574943955.102351,187916.000,32124,2,AY,1,100,0.892
1574943955.144126,187951.250,32142,4,AY,1,100,0.886
1574943955.185902,187986.500,32142,4,AY,1,100,0.885
1574943955.227677,188021.750,32142,4,AY,1,100,0.886
1574943955.269452,188057.000,32142,4,AY,1,100,0.885
1574943955.310931,188092.000,32158,3,AY,1,100,0.885
1574943955.352410,188127.000,32158,3,AY,1,100,0.892
1574943955.393889,188162.000,32158,3,AY,1,100,0.885
1574943955.440109,188201.000,32177,2,AY,1,100,0.885
1574943955.486328,188240.000,32177,2,AY,1,100,0.885
1574943955.527017,188274.333,32195,3,AY,1,100,0.885
1574943955.567706,188308.667,32195,3,AY,1,100,0.892
1574943955.608395,188343.000,32195,3,AY,1,100,0.887
1574943955.650664,188378.667,32213,3,AY,1,100,0.880
1574943955.692933,188414.333,32213,3,AY,1,100,0.885
1574943955.735202,188450.000,32213,3,AY,1,100,0.893
1574943955.773521,188482.333,32231,3,AY,1,100,0.875
1574943955.811839,188514.667,32231,3,AY,1,100,0.884
1574943955.850158,188547.000,32231,3,AY,1,100,0.882
1574943955.894797,188584.667,32249,3,AY,1,100,0.882
1574943955.939437,188622.333,32249,3,AY,1,100,0.881
1574943955.984076,188660.000,32249,3,AY,1,100,0.884
1574943956.022790,188692.667,32266,3,AY,1,100,0.884
1574943956.061503,188725.333,32266,3,AY,1,100,0.884
1574943956.100217,188758.000,32266,3,AY,1,100,0.882
1574943956.138615,188790.400,32287,5,AY,1,100,0.886
1574943956.177013,188822.800,32287,5,AY,1,100,0.885
1574943956.215410,188855.200,32287,5,AY,1,100,0.883
1574943956.253808,188887.600,32287,5,AY,1,100,0.884
1574943956.292206,188920.000,32287,5,AY,1,100,0.889
1574943956.333290,188954.667,32308,3,AY,1,100,0.880
1574943956.374374,188989.333,32308,3,AY,1,100,0.885
1574943956.415458,189024.000,32308,3,AY,1,100,0.886
1574943956.456146,189058.333,32326,3,AY,1,100,0.883
1574943956.496835,189092.667,32326,3,AY,1,100,0.883
1574943956.537524,189127.000,32326,3,AY,1,100,0.889
1574943956.578608,189161.667,32344,3,AY,1,100,0.887
1574943956.619692,189196.333,32344,3,AY,1,100,0.881
1574943956.660776,189231.000,32344,3,AY,1,100,0.887
1574943956.704033,189267.500,32361,2,AY,1,100,0.885
1574943956.747290,189304.000,32361,2,AY,1,100,0.884
1574943956.785213,189336.000,32379,4,AY,1,100,0.882
1574943956.823137,189368.000,32379,4,AY,1,100,0.883
1574943956.861061,189400.000,32379,4,AY,1,100,0.885
1574943956.898984,189432.000,32379,4,AY,1,100,0.885
1574943956.938883,189465.667,32397,3,AY,1,100,0.880
1574943956.978782,189499.333,32397,3,AY,1,100,0.888
1574943957.018681,189533.000,32397,3,AY,1,100,0.883
1574943957.060160,189568.000,32413,2,AY,1,100,0.880
1574943957.101639,189603.000,32413,2,AY,1,100,0.885
1574943957.142328,189637.333,32431,3,AY,1,100,0.885
1574943957.183017,189671.667,32431,3,AY,1,100,0.883
1574943957.223706,189706.000,32431,3,AY,1,100,0.882
1574943957.262518,189738.750,32449,4,AY,1,100,0.887
1574943957.301331,189771.500,32449,4,AY,1,100,0.885
1574943957.340143,189804.250,32449,4,AY,1,100,0.885
1574943957.378956,189837.000,32449,4,AY,1,100,0.885
1574943957.422212,189873.500,32468,2,AY,1,100,0.885
1574943957.465469,189910.000,32468,2,AY,1,100,0.883
1574943957.505763,189944.000,32486,3,AY,1,100,0.887
1574943957.546057,189978.000,32486,3,AY,1,100,0.887
1574943957.586350,190012.000,32486,3,AY,1,100,0.885
1574943957.627434,190046.667,32504,3,AY,1,100,0.883
1574943957.668519,190081.333,32504,3,AY,1,100,0.883
1574943957.709602,190116.000,32504,3,AY,1,100,0.883
1574943957.750291,190150.333,32522,3,AY,1,100,0.887
1574943957.790980,190184.667,32522,3,AY,1,100,0.885
1574943957.831669,190219.000,32522,3,AY,1,100,0.884
1574943957.871173,190252.333,32540,3,AY,1,100,0.886
1574943957.910677,190285.667,32540,3,AY,1,100,0.885
1574943957.950181,190319.000,32540,3,AY,1,100,0.885
1574943957.988104,190351.000,32557,3,AY,1,100,0.889
1574943958.026028,190383.000,32557,3,AY,1,100,0.882
1574943958.063951,190415.000,32557,3,AY,1,100,0.883
1574943958.107801,190452.000,32575,3,AY,1,100,0.889
1574943958.151650,190489.000,32575,3,AY,1,100,0.881
1574943958.195499,190526.000,32575,3,AY,1,100,0.880
1574943958.236188,190560.333,32591,3,AY,1,100,0.885
1574943958.276877,190594.667,32591,3,AY,1,100,0.882
1574943958.317566,190629.000,32591,3,AY,1,100,0.888
1574943958.358650,190663.667,32610,3,AY,1,100,0.885
1574943958.399734,190698.333,32610,3,AY,1,100,0.883
1574943958.440818,190733.000,32610,3,AY,1,100,0.882
1574943958.480322,190766.333,32628,3,AY,1,100,0.886
1574943958.519825,190799.667,32628,3,AY,1,100,0.889
1574943958.559329,190833.000,32628,3,AY,1,100,0.884
1574943958.596068,190864.000,32646,3,AY,1,100,0.884
1574943958.632807,190895.000,32646,3,AY,1,100,0.889
1574943958.669545,190926.000,32646,3,AY,1,100,0.884
1574943958.709444,190959.667,32664,3,AY,1,100,0.884
1574943958.749343,190993.333,32664,3,AY,1,100,0.883
1574943958.789242,191027.000,32664,3,AY,1,100,0.886
1574943958.833881,191064.667,32682,3,AY,1,100,0.883
1574943958.878520,191102.333,32682,3,AY,1,100,0.889
1574943958.923159,191140.000,32682,3,AY,1,100,0.882
1574943958.961478,191172.333,32700,3,AY,1,100,0.885
1574943958.999797,191204.667,32700,3,AY,1,100,0.885
1574943959.038116,191237.000,32700,3,AY,1,100,0.881
1574943959.079002,191271.500,32717,2,AY,1,100,0.889
1574943959.119889,191306.000,32717,2,AY,1,100,0.883
1574943959.161960,191341.500,32735,4,AY,1,100,0.887
1574943959.204031,191377.000,32735,4,AY,1,100,0.881
1574943959.246103,191412.500,32735,4,AY,1,100,0.884
1574943959.288175,191448.000,32735,4,AY,1,100,0.886
1574943959.329061,191482.500,32751,2,AY,1,100,0.883
1574943959.369947,191517.000,32751,2,AY,1,100,0.883
1574943959.411822,191552.333,32770,3,AY,1,100,0.885
1574943959.453696,191587.667,32770,3,AY,1,100,0.880
1574943959.495570,191623.000,32770,3,AY,1,100,0.885
1574943959.536654,191657.667,32788,3,AY,1,100,0.886
1574943959.577738,191692.333,32788,3,AY,1,100,0.882
1574943959.618822,191727.000,32788,3,AY,1,100,0.883
1574943959.663461,191764.667,32806,3,AY,1,100,0.884
1574943959.708100,191802.333,32806,3,AY,1,100,0.886
1574943959.752739,191840.000,32806,3,AY,1,100,0.883
1574943959.790663,191872.000,32824,3,AY,1,100,0.881
1574943959.828587,191904.000,32824,3,AY,1,100,0.885
1574943959.866510,191936.000,32824,3,AY,1,100,0.882
1574943959.904829,191968.333,32842,3,AY,1,100,0.883
1574943959.943148,192000.667,32842,3,AY,1,100,0.885
1574943959.981467,192033.000,32842,3,AY,1,100,0.888
1574943960.022156,192067.333,32860,3,AY,1,100,0.881
1574943960.062844,192101.667,32860,3,AY,1,100,0.883
1574943960.103533,192136.000,32860,3,AY,1,100,0.883
1574943960.144617,192170.667,32877,3,AY,1,100,0.886
1574943960.185701,192205.333,32877,3,AY,1,100,0.882
1574943960.226785,192240.000,32877,3,AY,1,100,0.880
1574943960.267474,192274.333,32895,3,AY,1,100,0.886
1574943960.308163,192308.667,32895,3,AY,1,100,0.882
1574943960.348852,192343.000,32895,3,AY,1,100,0.886
1574943960.389936,192377.667,32912,3,AY,1,100,0.882
1574943960.431020,192412.333,32912,3,AY,1,100,0.884
1574943960.472104,192447.000,32912,3,AY,1,100,0.885
1574943960.513978,192482.333,32930,3,AY,1,100,0.880
1574943960.555852,192517.667,32930,3,AY,1,100,0.887
1574943960.597726,192553.000,32930,3,AY,1,100,0.880
1574943960.638810,192587.667,32948,3,AY,1,100,0.884
1574943960.679894,192622.333,32948,3,AY,1,100,0.888
1574943960.720978,192657.000,32948,3,AY,1,100,0.885
1574943960.758507,192688.667,32966,3,AY,1,100,0.884
1574943960.796035,192720.333,32966,3,AY,1,100,0.885
1574943960.833564,192752.000,32966,3,AY,1,100,0.880
1574943960.873857,192786.000,32984,3,AY,1,100,0.884
1574943960.914151,192820.000,32984,3,AY,1,100,0.884
1574943960.954445,192854.000,32984,3,AY,1,100,0.883
1574943960.995134,192888.333,33002,3,AY,1,100,0.883
1574943961.035823,192922.667,33002,3,AY,1,100,0.881
1574943961.076512,192957.000,33002,3,AY,1,100,0.886
1574943961.117596,192991.667,33020,3,AY,1,100,0.885
1574943961.158680,193026.333,33020,3,AY,1,100,0.884
1574943961.199764,193061.000,33020,3,AY,1,100,0.880
1574943961.238478,193093.667,33038,3,AY,1,100,0.884
1574943961.277191,193126.333,33038,3,AY,1,100,0.885
1574943961.315905,193159.000,33038,3,AY,1,100,0.882
1574943961.356989,193193.667,33056,3,AY,1,100,0.881
1574943961.398073,193228.333,33056,3,AY,1,100,0.886
1574943961.439157,193263.000,33056,3,AY,1,100,0.884
1574943961.479451,193297.000,33074,3,AY,1,100,0.885
1574943961.519745,193331.000,33074,3,AY,1,100,0.883
1574943961.560039,193365.000,33074,3,AY,1,100,0.882
1574943961.601518,193400.000,33090,3,AY,1,100,0.883
1574943961.642997,193435.000,33090,3,AY,1,100,0.881
1574943961.684476,193470.000,33090,3,AY,1,100,0.887
1574943961.725560,193504.667,33108,3,AY,1,100,0.882
1574943961.766644,193539.333,33108,3,AY,1,100,0.881
1574943961.807728,193574.000,33108,3,AY,1,100,0.886
1574943961.846836,193607.000,33126,3,AY,1,100,0.887
1574943961.885945,193640.000,33126,3,AY,1,100,0.881
1574943961.925054,193673.000,33126,3,AY,1,100,0.885
1574943961.962188,193704.333,33144,3,AY,1,100,0.888
1574943961.999321,193735.667,33144,3,AY,1,100,0.876
1574943962.036455,193767.000,33144,3,AY,1,100,0.887
1574943962.079909,193803.667,33162,3,AY,1,100,0.883
1574943962.123363,193840.333,33162,3,AY,1,100,0.884
1574943962.166817,193877.000,33162,3,AY,1,100,0.883
1574943962.207704,193911.500,33183,4,AY,1,100,0.882
1574943962.248590,193946.000,33183,4,AY,1,100,0.884
1574943962.289477,193980.500,33183,4,AY,1,100,0.883
1574943962.330363,194015.000,33183,4,AY,1,100,0.886
1574943962.371842,194050.000,33202,3,AY,1,100,0.882
1574943962.413321,194085.000,33202,3,AY,1,100,0.883
1574943962.454800,194120.000,33202,3,AY,1,100,0.883
1574943962.492329,194151.667,33220,3,AY,1,100,0.885
1574943962.529857,194183.333,33220,3,AY,1,100,0.881
1574943962.567386,194215.000,33220,3,AY,1,100,0.881
1574943962.604914,194246.667,33238,3,AY,1,100,0.886
1574943962.642443,194278.333,33238,3,AY,1,100,0.883
1574943962.679972,194310.000,33238,3,AY,1,100,0.884
1574943962.720266,194344.000,33256,3,AY,1,100,0.886
1574943962.760560,194378.000,33256,3,AY,1,100,0.884
1574943962.800853,194412.000,33256,3,AY,1,100,0.883
1574943962.845098,194449.333,33274,3,AY,1,100,0.882
1574943962.889342,194486.667,33274,3,AY,1,100,0.887
1574943962.933586,194524.000,33274,3,AY,1,100,0.882
1574943962.971905,194556.333,33292,3,AY,1,100,0.887
1574943963.010224,194588.667,33292,3,AY,1,100,0.880
1574943963.048542,194621.000,33292,3,AY,1,100,0.885
1574943963.093182,194658.667,33310,3,AY,1,100,0.885
1574943963.137821,194696.333,33310,3,AY,1,100,0.881
1574943963.182460,194734.000,33310,3,AY,1,100,0.887
1574943963.221174,194766.667,33327,3,AY,1,100,0.882
1574943963.259888,194799.333,33327,3,AY,1,100,0.879
1574943963.298601,194832.000,33327,3,AY,1,100,0.883
1574943963.339488,194866.500,33343,2,AY,1,100,0.885
1574943963.380374,194901.000,33343,2,AY,1,100,0.881
1574943963.422150,194936.250,33362,4,AY,1,100,0.882
1574943963.463925,194971.500,33362,4,AY,1,100,0.881
1574943963.505700,195006.750,33362,4,AY,1,100,0.884
1574943963.547475,195042.000,33362,4,AY,1,100,0.883
1574943963.588954,195077.000,33380,2,AY,1,100,0.883
1574943963.630433,195112.000,33380,2,AY,1,100,0.886
1574943963.674283,195149.000,33398,3,AY,1,100,0.882
1574943963.718132,195186.000,33398,3,AY,1,100,0.886
1574943963.761981,195223.000,33398,3,AY,1,100,0.883
1574943963.799905,195255.000,33416,4,AY,1,100,0.882
1574943963.837828,195287.000,33416,4,AY,1,100,0.884
1574943963.875752,195319.000,33416,4,AY,1,100,0.882
1574943963.913676,195351.000,33416,4,AY,1,100,0.881
1574943963.952785,195384.000,33434,2,AY,1,100,0.888
1574943963.991893,195417.000,33434,2,AY,1,100,0.881
1574943964.032977,195451.667,33452,3,AY,1,100,0.883
1574943964.074061,195486.333,33452,3,AY,1,100,0.881
1574943964.115145,195521.000,33452,3,AY,1,100,0.882
1574943964.156229,195555.667,33469,3,AY,1,100,0.886
1574943964.197313,195590.333,33469,3,AY,1,100,0.886
1574943964.238397,195625.000,33469,3,AY,1,100,0.885
1574943964.279876,195660.000,33487,3,AY,1,100,0.883
1574943964.321355,195695.000,33487,3,AY,1,100,0.888
1574943964.362834,195730.000,33487,3,AY,1,100,0.882
1574943964.403128,195764.000,33504,3,AY,1,100,0.883
1574943964.443422,195798.000,33504,3,AY,1,100,0.886
1574943964.483716,195832.000,33504,3,AY,1,100,0.884
1574943964.524405,195866.333,33522,3,AY,1,100,0.887
1574943964.565094,195900.667,33522,3,AY,1,100,0.885
1574943964.605783,195935.000,33522,3,AY,1,100,0.887
1574943964.646867,195969.667,33540,3,AY,1,100,0.881
1574943964.687950,196004.333,33540,3,AY,1,100,0.883
1574943964.729034,196039.000,33540,3,AY,1,100,0.881
1574943964.767748,196071.667,33558,3,AY,1,100,0.887
1574943964.806462,196104.333,33558,3,AY,1,100,0.879
1574943964.845176,196137.000,33558,3,AY,1,100,0.887
1574943964.886260,196171.667,33576,3,AY,1,100,0.885
1574943964.927344,196206.333,33576,3,AY,1,100,0.883
1574943964.968427,196241.000,33576,3,AY,1,100,0.881
1574943965.009116,196275.333,33594,3,AY,1,100,0.886
1574943965.049805,196309.667,33594,3,AY,1,100,0.878
1574943965.090494,196344.000,33594,3,AY,1,100,0.884
1574943965.130393,196377.667,33612,3,AY,1,100,0.884
1574943965.170292,196411.333,33612,3,AY,1,100,0.882
1574943965.210191,196445.000,33612,3,AY,1,100,0.885
1574943965.248114,196477.000,33630,3,AY,1,100,0.883
1574943965.286038,196509.000,33630,3,AY,1,100,0.879
1574943965.323962,196541.000,33630,3,AY,1,100,0.884
1574943965.366231,196576.667,33649,3,AY,1,100,0.887
1574943965.408500,196612.333,33649,3,AY,1,100,0.881
1574943965.450769,196648.000,33649,3,AY,1,100,0.889
1574943965.491458,196682.333,33666,3,AY,1,100,0.878
1574943965.532147,196716.667,33666,3,AY,1,100,0.887
1574943965.572836,196751.000,33666,3,AY,1,100,0.881
1574943965.613920,196785.667,33684,3,AY,1,100,0.883
1574943965.655004,196820.333,33684,3,AY,1,100,0.882
1574943965.696088,196855.000,33684,3,AY,1,100,0.878
1574943965.736777,196889.333,33700,3,AY,1,100,0.885
1574943965.777466,196923.667,33700,3,AY,1,100,0.882
1574943965.818154,196958.000,33700,3,AY,1,100,0.880
1574943965.856078,196990.000,33718,3,AY,1,100,0.882
1574943965.894002,197022.000,33718,3,AY,1,100,0.884
1574943965.931925,197054.000,33718,3,AY,1,100,0.883
1574943965.970639,197086.667,33736,3,AY,1,100,0.882
1574943966.009353,197119.333,33736,3,AY,1,100,0.883
1574943966.048067,197152.000,33736,3,AY,1,100,0.882
1574943966.092311,197189.333,33754,3,AY,1,100,0.882
1574943966.136555,197226.667,33754,3,AY,1,100,0.882
1574943966.180799,197264.000,33754,3,AY,1,100,0.881
1574943966.221883,197298.667,33772,3,AY,1,100,0.884
1574943966.262967,197333.333,33772,3,AY,1,100,0.886
1574943966.304051,197368.000,33772,3,AY,1,100,0.882
1574943966.345530,197403.000,33790,2,AY,1,100,0.883
1574943966.387009,197438.000,33790,2,AY,1,100,0.881
1574943966.424933,197470.000,33809,4,AY,1,100,0.882
1574943966.462857,197502.000,33809,4,AY,1,100,0.883
1574943966.500780,197534.000,33809,4,AY,1,100,0.883
1574943966.538704,197566.000,33809,4,AY,1,100,0.884
1574943966.577813,197599.000,33827,3,AY,1,100,0.884
1574943966.616921,197632.000,33827,3,AY,1,100,0.880
1574943966.656030,197665.000,33827,3,AY,1,100,0.884
1574943966.695929,197698.667,33844,3,AY,1,100,0.879
1574943966.735828,197732.333,33844,3,AY,1,100,0.885
1574943966.775727,197766.000,33844,3,AY,1,100,0.883
1574943966.817206,197801.000,33862,2,AY,1,100,0.883
1574943966.858685,197836.000,33862,2,AY,1,100,0.882
1574943966.903719,197874.000,33878,3,AY,1,100,0.879
1574943966.948753,197912.000,33878,3,AY,1,100,0.880
1574943966.993788,197950.000,33878,3,AY,1,100,0.893
1574943967.032106,197982.333,33896,3,AY,1,100,0.878
1574943967.070425,198014.667,33896,3,AY,1,100,0.882
1574943967.108744,198047.000,33896,3,AY,1,100,0.889
1574943967.154173,198085.333,33914,3,AY,1,100,0.878
1574943967.199603,198123.667,33914,3,AY,1,100,0.879
1574943967.245032,198162.000,33914,3,AY,1,100,0.883
1574943967.282956,198194.000,33932,3,AY,1,100,0.881
1574943967.320879,198226.000,33932,3,AY,1,100,0.880
1574943967.358803,198258.000,33932,3,AY,1,100,0.885
1574943967.403442,198295.667,33951,3,AY,1,100,0.880
1574943967.448081,198333.333,33951,3,AY,1,100,0.884
1574943967.492721,198371.000,33951,3,AY,1,100,0.880
1574943967.530645,198403.000,33969,3,AY,1,100,0.875
1574943967.568568,198435.000,33969,3,AY,1,100,0.884
1574943967.606492,198467.000,33969,3,AY,1,100,0.884
1574943967.645601,198500.000,33986,3,AY,1,100,0.878
1574943967.684709,198533.000,33986,3,AY,1,100,0.887
1574943967.723818,198566.000,33986,3,AY,1,100,0.880
1574943967.765297,198601.000,34004,3,AY,1,100,0.881
1574943967.806776,198636.000,34004,3,AY,1,100,0.888
1574943967.848255,198671.000,34004,3,AY,1,100,0.879
1574943967.887759,198704.333,34022,3,AY,1,100,0.879
1574943967.927263,198737.667,34022,3,AY,1,100,0.883
1574943967.966767,198771.000,34022,3,AY,1,100,0.883
1574943968.007456,198805.333,34038,3,AY,1,100,0.882
1574943968.048145,198839.667,34038,3,AY,1,100,0.882
1574943968.088833,198874.000,34038,3,AY,1,100,0.882
1574943968.129917,198908.667,34056,3,AY,1,100,0.878
1574943968.171001,198943.333,34056,3,AY,1,100,0.882
1574943968.212085,198978.000,34056,3,AY,1,100,0.884
1574943968.252083,199011.750,34077,4,AY,1,100,0.883
1574943968.292080,199045.500,34077,4,AY,1,100,0.876
1574943968.332078,199079.250,34077,4,AY,1,100,0.878
1574943968.372076,199113.000,34077,4,AY,1,100,0.882
1574943968.413555,199148.000,34098,3,AY,1,100,0.885
1574943968.455034,199183.000,34098,3,AY,1,100,0.880
1574943968.496513,199218.000,34098,3,AY,1,100,0.881
1574943968.535621,199251.000,34116,3,AY,1,100,0.880
1574943968.574730,199284.000,34116,3,AY,1,100,0.881
1574943968.613839,199317.000,34116,3,AY,1,100,0.875
1574943968.655318,199352.000,34132,3,AY,1,100,0.872
1574943968.696797,199387.000,34132,3,AY,1,100,0.880
1574943968.738276,199422.000,34132,3,AY,1,100,0.886
1574943968.778570,199456.000,34150,3,AY,1,100,0.888
1574943968.818864,199490.000,34150,3,AY,1,100,0.885
1574943968.859158,199524.000,34150,3,AY,1,100,0.882
1574943968.899847,199558.333,34168,3,AY,1,100,0.873
1574943968.940536,199592.667,34168,3,AY,1,100,0.868
1574943968.981225,199627.000,34168,3,AY,1,100,0.892
1574943969.018358,199658.333,34186,3,AY,1,100,0.881
1574943969.055492,199689.667,34186,3,AY,1,100,0.879
1574943969.092625,199721.000,34186,3,AY,1,100,0.877
1574943969.135684,199757.333,34204,3,AY,1,100,0.885
1574943969.178744,199793.667,34204,3,AY,1,100,0.883
1574943969.221803,199830.000,34204,3,AY,1,100,0.883
1574943969.263282,199865.000,34222,3,AY,1,100,0.873
1574943969.304761,199900.000,34222,3,AY,1,100,0.880
1574943969.346240,199935.000,34222,3,AY,1,100,0.885
1574943969.386929,199969.333,34241,3,AY,1,100,0.882
1574943969.427618,200003.667,34241,3,AY,1,100,0.884
1574943969.468307,200038.000,34241,3,AY,1,100,0.876
1574943969.508600,200072.000,34258,3,AY,1,100,0.872
1574943969.548894,200106.000,34258,3,AY,1,100,0.880
1574943969.589188,200140.000,34258,3,AY,1,100,0.888
1574943969.627112,200172.000,34276,3,AY,1,100,0.883
1574943969.665035,200204.000,34276,3,AY,1,100,0.882
1574943969.702959,200236.000,34276,3,AY,1,100,0.877
1574943969.742068,200269.000,34294,3,AY,1,100,0.890
1574943969.781177,200302.000,34294,3,AY,1,100,0.882
1574943969.820285,200335.000,34294,3,AY,1,100,0.883
1574943969.861369,200369.667,34310,3,AY,1,100,0.878
1574943969.902453,200404.333,34310,3,AY,1,100,0.883
1574943969.943537,200439.000,34310,3,AY,1,100,0.886
1574943969.988177,200476.667,34328,3,AY,1,100,0.884
1574943970.032816,200514.333,34328,3,AY,1,100,0.886
1574943970.077455,200552.000,34328,3,AY,1,100,0.883
1574943970.118144,200586.333,34346,3,AY,1,100,0.881
1574943970.158833,200620.667,34346,3,AY,1,100,0.880
1574943970.199522,200655.000,34346,3,AY,1,100,0.887
1574943970.236260,200686.000,34364,3,AY,1,100,0.886
1574943970.272999,200717.000,34364,3,AY,1,100,0.881
1574943970.309738,200748.000,34364,3,AY,1,100,0.882
1574943970.349241,200781.333,34382,3,AY,1,100,0.886
1574943970.388745,200814.667,34382,3,AY,1,100,0.882
1574943970.428249,200848.000,34382,3,AY,1,100,0.883
1574943970.468148,200881.667,34401,3,AY,1,100,0.886
1574943970.508047,200915.333,34401,3,AY,1,100,0.884
1574943970.547945,200949.000,34401,3,AY,1,100,0.882
1574943970.590215,200984.667,34419,3,AY,1,100,0.886
1574943970.632484,201020.333,34419,3,AY,1,100,0.886
1574943970.674753,201056.000,34419,3,AY,1,100,0.883
1574943970.715442,201090.333,34436,3,AY,1,100,0.884
1574943970.756131,201124.667,34436,3,AY,1,100,0.887
1574943970.796819,201159.000,34436,3,AY,1,100,0.884
1574943970.843632,201198.500,34454,2,AY,1,100,0.883
1574943970.890444,201238.000,34454,2,AY,1,100,0.884
1574943970.931528,201272.667,34470,3,AY,1,100,0.885
1574943970.972611,201307.333,34470,3,AY,1,100,0.879
1574943971.013695,201342.000,34470,3,AY,1,100,0.887
1574943971.054384,201376.333,34488,3,AY,1,100,0.886
1574943971.095073,201410.667,34488,3,AY,1,100,0.886
1574943971.135762,201445.000,34488,3,AY,1,100,0.878
1574943971.175661,201478.667,34506,3,AY,1,100,0.884
1574943971.215560,201512.333,34506,3,AY,1,100,0.877
1574943971.255459,201546.000,34506,3,AY,1,100,0.892
1574943971.297333,201581.333,34524,3,AY,1,100,0.876
1574943971.339207,201616.667,34524,3,AY,1,100,0.879
1574943971.381081,201652.000,34524,3,AY,1,100,0.886
1574943971.420190,201685.000,34543,3,AY,1,100,0.883
1574943971.459298,201718.000,34543,3,AY,1,100,0.875
1574943971.498407,201751.000,34543,3,AY,1,100,0.885
1574943971.536726,201783.333,34561,3,AY,1,100,0.881
1574943971.575045,201815.667,34561,3,AY,1,100,0.885
1574943971.613363,201848.000,34561,3,AY,1,100,0.882
1574943971.652472,201881.000,34579,3,AY,1,100,0.878
1574943971.691581,201914.000,34579,3,AY,1,100,0.880
1574943971.730690,201947.000,34579,3,AY,1,100,0.881
1574943971.772169,201982.000,34596,3,AY,1,100,0.885
1574943971.813648,202017.000,34596,3,AY,1,100,0.885
1574943971.855127,202052.000,34596,3,AY,1,100,0.880
1574943971.895816,202086.333,34614,3,AY,1,100,0.883
1574943971.936504,202120.667,34614,3,AY,1,100,0.876
1574943971.977193,202155.000,34614,3,AY,1,100,0.880
1574943972.019068,202190.333,34630,3,AY,1,100,0.883
1574943972.060941,202225.667,34630,3,AY,1,100,0.886
1574943972.102816,202261.000,34630,3,AY,1,100,0.878
1574943972.144295,202296.000,34648,3,AY,1,100,0.882
1574943972.185774,202331.000,34648,3,AY,1,100,0.885
1574943972.227252,202366.000,34648,3,AY,1,100,0.877
1574943972.265966,202398.667,34666,3,AY,1,100,0.880
1574943972.304680,202431.333,34666,3,AY,1,100,0.875
1574943972.343394,202464.000,34666,3,AY,1,100,0.885
1574943972.381317,202496.000,34685,3,AY,1,100,0.886
1574943972.419241,202528.000,34685,3,AY,1,100,0.893
1574943972.457165,202560.000,34685,3,AY,1,100,0.875
1574943972.499829,202596.000,34703,3,AY,1,100,0.879
1574943972.542493,202632.000,34703,3,AY,1,100,0.881
1574943972.585157,202668.000,34703,3,AY,1,100,0.878
1574943972.625846,202702.333,34721,3,AY,1,100,0.884
1574943972.666535,202736.667,34721,3,AY,1,100,0.882
1574943972.707224,202771.000,34721,3,AY,1,100,0.883
1574943972.748308,202805.667,34739,3,AY,1,100,0.880
1574943972.789392,202840.333,34739,3,AY,1,100,0.885
1574943972.830476,202875.000,34739,3,AY,1,100,0.885
1574943972.870374,202908.667,34756,3,AY,1,100,0.877
1574943972.910273,202942.333,34756,3,AY,1,100,0.880
1574943972.950172,202976.000,34756,3,AY,1,100,0.880
1574943972.987701,203007.667,34774,3,AY,1,100,0.882
1574943973.025229,203039.333,34774,3,AY,1,100,0.886
1574943973.062758,203071.000,34774,3,AY,1,100,0.879
1574943973.105817,203107.333,34792,3,AY,1,100,0.877
1574943973.148876,203143.667,34792,3,AY,1,100,0.881
1574943973.191936,203180.000,34792,3,AY,1,100,0.882
1574943973.233415,203215.000,34808,2,AY,1,100,0.880
1574943973.274894,203250.000,34808,2,AY,1,100,0.880
1574943973.315978,203284.667,34826,3,AY,1,100,0.886
1574943973.357061,203319.333,34826,3,AY,1,100,0.885
1574943973.398145,203354.000,34826,3,AY,1,100,0.881
1574943973.439625,203389.000,34845,3,AY,1,100,0.887
1574943973.481103,203424.000,34845,3,AY,1,100,0.876
1574943973.522583,203459.000,34845,3,AY,1,100,0.882
1574943973.559914,203490.500,34863,4,AY,1,100,0.888
1574943973.597245,203522.000,34863,4,AY,1,100,0.887
1574943973.634576,203553.500,34863,4,AY,1,100,0.881
1574943973.671907,203585.000,34863,4,AY,1,100,0.883
1574943973.711411,203618.333,34881,3,AY,1,100,0.876
1574943973.750915,203651.667,34881,3,AY,1,100,0.885
1574943973.790418,203685.000,34881,3,AY,1,100,0.881
1574943973.837230,203724.500,34899,2,AY,1,100,0.892
1574943973.884042,203764.000,34899,2,AY,1,100,0.883
1574943973.924731,203798.333,34917,3,AY,1,100,0.882
1574943973.965420,203832.667,34917,3,AY,1,100,0.885
1574943974.006109,203867.000,34917,3,AY,1,100,0.875
1574943974.046798,203901.333,34934,3,AY,1,100,0.875
1574943974.087487,203935.667,34934,3,AY,1,100,0.884
1574943974.128176,203970.000,34934,3,AY,1,100,0.892
1574943974.166495,204002.333,34952,3,AY,1,100,0.883
1574943974.204813,204034.667,34952,3,AY,1,100,0.891
1574943974.243132,204067.000,34952,3,AY,1,100,0.879
1574943974.281767,204099.600,34973,5,AY,1,100,0.881
1574943974.320401,204132.200,34973,5,AY,1,100,0.877
1574943974.359036,204164.800,34973,5,AY,1,100,0.878
1574943974.397671,204197.400,34973,5,AY,1,100,0.886
1574943974.436306,204230.000,34973,5,AY,1,100,0.886
1574943974.476995,204264.333,34994,3,AY,1,100,0.895
1574943974.517684,204298.667,34994,3,AY,1,100,0.877
1574943974.558372,204333.000,34994,3,AY,1,100,0.879
1574943974.600641,204368.667,35012,3,AY,1,100,0.896
1574943974.642910,204404.333,35012,3,AY,1,100,0.875
1574943974.685179,204440.000,35012,3,AY,1,100,0.887
1574943974.726264,204474.667,35029,3,AY,1,100,0.886
1574943974.767348,204509.333,35029,3,AY,1,100,0.886
1574943974.808431,204544.000,35029,3,AY,1,100,0.892
1574943974.850701,204579.667,35047,3,AY,1,100,0.878
1574943974.892970,204615.333,35047,3,AY,1,100,0.877
1574943974.935239,204651.000,35047,3,AY,1,100,0.887
1574943974.976323,204685.667,35063,3,AY,1,100,0.880
1574943975.017407,204720.333,35063,3,AY,1,100,0.883
1574943975.058491,204755.000,35063,3,AY,1,100,0.885
1574943975.105303,204794.500,35081,2,AY,1,100,0.889
1574943975.152115,204834.000,35081,2,AY,1,100,0.881
1574943975.190828,204866.667,35099,3,AY,1,100,0.876
1574943975.229542,204899.333,35099,3,AY,1,100,0.884
1574943975.268256,204932.000,35099,3,AY,1,100,0.887
1574943975.310130,204967.333,35117,3,AY,1,100,0.887
1574943975.352004,205002.667,35117,3,AY,1,100,0.883
1574943975.393878,205038.000,35117,3,AY,1,100,0.885
1574943975.431406,205069.667,35136,3,AY,1,100,0.882
1574943975.468935,205101.333,35136,3,AY,1,100,0.885
1574943975.506464,205133.000,35136,3,AY,1,100,0.883
1574943975.545177,205165.667,35154,3,AY,1,100,0.879
1574943975.583891,205198.333,35154,3,AY,1,100,0.882
1574943975.622605,205231.000,35154,3,AY,1,100,0.887
1574943975.663294,205265.333,35172,3,AY,1,100,0.885
1574943975.703983,205299.667,35172,3,AY,1,100,0.885
1574943975.744672,205334.000,35172,3,AY,1,100,0.875
1574943975.785756,205368.667,35189,3,AY,1,100,0.878
1574943975.826840,205403.333,35189,3,AY,1,100,0.885
1574943975.867924,205438.000,35189,3,AY,1,100,0.876
1574943975.909403,205473.000,35207,3,AY,1,100,0.883
1574943975.950882,205508.000,35207,3,AY,1,100,0.876
1574943975.992361,205543.000,35207,3,AY,1,100,0.878
1574943976.033840,205578.000,35225,3,AY,1,100,0.883
1574943976.075319,205613.000,35225,3,AY,1,100,0.883
1574943976.116798,205648.000,35225,3,AY,1,100,0.880
1574943976.154326,205679.667,35241,3,AY,1,100,0.878
1574943976.191855,205711.333,35241,3,AY,1,100,0.881
1574943976.229383,205743.000,35241,3,AY,1,100,0.884
1574943976.270072,205777.333,35259,3,AY,1,100,0.882
1574943976.310761,205811.667,35259,3,AY,1,100,0.887
1574943976.351450,205846.000,35259,3,AY,1,100,0.877
1574943976.391349,205879.667,35278,3,AY,1,100,0.883
1574943976.431248,205913.333,35278,3,AY,1,100,0.885
1574943976.471147,205947.000,35278,3,AY,1,100,0.880
1574943976.513021,205982.333,35296,3,AY,1,100,0.885
1574943976.554895,206017.667,35296,3,AY,1,100,0.879
1574943976.596769,206053.000,35296,3,AY,1,100,0.881
1574943976.635087,206085.333,35314,3,AY,1,100,0.883
1574943976.673406,206117.667,35314,3,AY,1,100,0.887
1574943976.711725,206150.000,35314,3,AY,1,100,0.879
1574943976.752809,206184.667,35332,3,AY,1,100,0.875
1574943976.793893,206219.333,35332,3,AY,1,100,0.886
1574943976.834977,206254.000,35332,3,AY,1,100,0.877
1574943976.874876,206287.667,35350,3,AY,1,100,0.881
1574943976.914775,206321.333,35350,3,AY,1,100,0.879
1574943976.954674,206355.000,35350,3,AY,1,100,0.880
1574943976.995757,206389.667,35368,3,AY,1,100,0.880
1574943977.036841,206424.333,35368,3,AY,1,100,0.883
1574943977.077925,206459.000,35368,3,AY,1,100,0.880
1574943977.119009,206493.667,35385,3,AY,1,100,0.880
1574943977.160093,206528.333,35385,3,AY,1,100,0.880
1574943977.201177,206563.000,35385,3,AY,1,100,0.877
1574943977.240681,206596.333,35403,3,AY,1,100,0.884
1574943977.280185,206629.667,35403,3,AY,1,100,0.880
1574943977.319689,206663.000,35403,3,AY,1,100,0.876
1574943977.357612,206695.000,35420,3,AY,1,100,0.876
1574943977.395536,206727.000,35420,3,AY,1,100,0.881
1574943977.433460,206759.000,35420,3,AY,1,100,0.882
1574943977.472963,206792.333,35438,3,AY,1,100,0.879
1574943977.512467,206825.667,35438,3,AY,1,100,0.879
1574943977.551971,206859.000,35438,3,AY,1,100,0.883
1574943977.597005,206897.000,35456,3,AY,1,100,0.879
1574943977.642040,206935.000,35456,3,AY,1,100,0.880
1574943977.687074,206973.000,35456,3,AY,1,100,0.883
1574943977.728158,207007.667,35474,3,AY,1,100,0.881
1574943977.769242,207042.333,35474,3,AY,1,100,0.877
1574943977.810326,207077.000,35474,3,AY,1,100,0.880
1574943977.849435,207110.000,35492,3,AY,1,100,0.886
1574943977.888544,207143.000,35492,3,AY,1,100,0.875
1574943977.927652,207176.000,35492,3,AY,1,100,0.880
1574943977.965971,207208.333,35510,3,AY,1,100,0.883
1574943978.004290,207240.667,35510,3,AY,1,100,0.880
1574943978.042608,207273.000,35510,3,AY,1,100,0.885
1574943978.080927,207305.333,35528,3,AY,1,100,0.882
1574943978.119246,207337.667,35528,3,AY,1,100,0.883
1574943978.157564,207370.000,35528,3,AY,1,100,0.884
1574943978.202204,207407.667,35546,3,AY,1,100,0.874
1574943978.246843,207445.333,35546,3,AY,1,100,0.883
1574943978.291482,207483.000,35546,3,AY,1,100,0.884
1574943978.332369,207517.500,35563,2,AY,1,100,0.878
1574943978.373255,207552.000,35563,2,AY,1,100,0.882
1574943978.411969,207584.667,35582,3,AY,1,100,0.875
1574943978.450683,207617.333,35582,3,AY,1,100,0.893
1574943978.489396,207650.000,35582,3,AY,1,100,0.895
1574943978.534431,207688.000,35598,3,AY,1,100,0.871
1574943978.579465,207726.000,35598,3,AY,1,100,0.875
1574943978.624500,207764.000,35598,3,AY,1,100,0.887
1574943978.662818,207796.333,35616,3,AY,1,100,0.864
1574943978.701137,207828.667,35616,3,AY,1,100,0.864
1574943978.739455,207861.000,35616,3,AY,1,100,0.886
1574943978.784885,207899.333,35634,3,AY,1,100,0.885
1574943978.830314,207937.667,35634,3,AY,1,100,0.875
1574943978.875744,207976.000,35634,3,AY,1,100,0.894
1574943978.913272,208007.667,35652,3,AY,1,100,0.873
1574943978.950801,208039.333,35652,3,AY,1,100,0.865
1574943978.988330,208071.000,35652,3,AY,1,100,0.889
1574943979.033364,208109.000,35670,3,AY,1,100,0.902
1574943979.078398,208147.000,35670,3,AY,1,100,0.884
1574943979.123433,208185.000,35670,3,AY,1,100,0.884
1574943979.161751,208217.333,35688,3,AY,1,100,0.885
1574943979.200070,208249.667,35688,3,AY,1,100,0.877
1574943979.238389,208282.000,35688,3,AY,1,100,0.877
1574943979.277102,208314.667,35705,3,AY,1,100,0.881
1574943979.315816,208347.333,35705,3,AY,1,100,0.890
1574943979.354530,208380.000,35705,3,AY,1,100,0.885
1574943979.396009,208415.000,35724,3,AY,1,100,0.876
1574943979.437488,208450.000,35724,3,AY,1,100,0.881
1574943979.478967,208485.000,35724,3,AY,1,100,0.873
1574943979.517681,208517.667,35742,3,AY,1,100,0.887
1574943979.556394,208550.333,35742,3,AY,1,100,0.885
1574943979.595108,208583.000,35742,3,AY,1,100,0.874
1574943979.635797,208617.333,35758,3,AY,1,100,0.884
1574943979.676486,208651.667,35758,3,AY,1,100,0.888
1574943979.717175,208686.000,35758,3,AY,1,100,0.876
1574943979.758654,208721.000,35776,3,AY,1,100,0.878
1574943979.800133,208756.000,35776,3,AY,1,100,0.879
1574943979.841612,208791.000,35776,3,AY,1,100,0.883
1574943979.883486,208826.333,35794,3,AY,1,100,0.877
1574943979.925360,208861.667,35794,3,AY,1,100,0.886
1574943979.967234,208897.000,35794,3,AY,1,100,0.886
1574943980.005158,208929.000,35812,3,AY,1,100,0.871
1574943980.043081,208961.000,35812,3,AY,1,100,0.885
1574943980.081005,208993.000,35812,3,AY,1,100,0.882
1574943980.122484,209028.000,35830,3,AY,1,100,0.885
1574943980.163963,209063.000,35830,3,AY,1,100,0.872
1574943980.205442,209098.000,35830,3,AY,1,100,0.875
1574943980.245341,209131.667,35848,3,AY,1,100,0.881
1574943980.285240,209165.333,35848,3,AY,1,100,0.874
1574943980.325139,209199.000,35848,3,AY,1,100,0.876
1574943980.365729,209233.250,35869,4,AY,1,100,0.881
1574943980.406319,209267.500,35869,4,AY,1,100,0.879
1574943980.446909,209301.750,35869,4,AY,1,100,0.876
1574943980.487499,209336.000,35869,4,AY,1,100,0.885
1574943980.528978,209371.000,35890,3,AY,1,100,0.881
1574943980.570457,209406.000,35890,3,AY,1,100,0.876
1574943980.611936,209441.000,35890,3,AY,1,100,0.884
1574943980.649070,209472.333,35908,3,AY,1,100,0.878
1574943980.686203,209503.667,35908,3,AY,1,100,0.878
1574943980.723337,209535.000,35908,3,AY,1,100,0.876
1574943980.766001,209571.000,35926,3,AY,1,100,0.881
1574943980.808665,209607.000,35926,3,AY,1,100,0.880
1574943980.851329,209643.000,35926,3,AY,1,100,0.882
1574943980.892808,209678.000,35944,3,AY,1,100,0.874
1574943980.934287,209713.000,35944,3,AY,1,100,0.878
1574943980.975766,209748.000,35944,3,AY,1,100,0.883
1574943981.016455,209782.333,35962,3,AY,1,100,0.867
1574943981.057144,209816.667,35962,3,AY,1,100,0.880
1574943981.097833,209851.000,35962,3,AY,1,100,0.870
1574943981.138917,209885.667,35979,3,AY,1,100,0.884
1574943981.180001,209920.333,35979,3,AY,1,100,0.878
1574943981.221085,209955.000,35979,3,AY,1,100,0.878
1574943981.259009,209987.000,35997,3,AY,1,100,0.875
1574943981.296932,210019.000,35997,3,AY,1,100,0.875
1574943981.334856,210051.000,35997,3,AY,1,100,0.876
1574943981.373569,210083.667,36015,3,AY,1,100,0.875
1574943981.412283,210116.333,36015,3,AY,1,100,0.875
1574943981.450997,210149.000,36015,3,AY,1,100,0.876
1574943981.491686,210183.333,36032,3,AY,1,100,0.876
1574943981.532375,210217.667,36032,3,AY,1,100,0.877
1574943981.573064,210252.000,36032,3,AY,1,100,0.878
1574943981.617703,210289.667,36050,3,AY,1,100,0.870
1574943981.662343,210327.333,36050,3,AY,1,100,0.879
1574943981.706982,210365.000,36050,3,AY,1,100,0.879
1574943981.748461,210400.000,36068,3,AY,1,100,0.871
1574943981.789940,210435.000,36068,3,AY,1,100,0.878
1574943981.831419,210470.000,36068,3,AY,1,100,0.874
1574943981.868157,210501.000,36086,3,AY,1,100,0.877
1574943981.904896,210532.000,36086,3,AY,1,100,0.874
1574943981.941634,210563.000,36086,3,AY,1,100,0.880
1574943981.980743,210596.000,36104,3,AY,1,100,0.878
1574943982.019852,210629.000,36104,3,AY,1,100,0.878
1574943982.058961,210662.000,36104,3,AY,1,100,0.877
1574943982.098464,210695.333,36122,3,AY,1,100,0.878
1574943982.137968,210728.667,36122,3,AY,1,100,0.874
1574943982.177472,210762.000,36122,3,AY,1,100,0.880
1574943982.220136,210798.000,36140,3,AY,1,100,0.880
1574943982.262800,210834.000,36140,3,AY,1,100,0.880
1574943982.305465,210870.000,36140,3,AY,1,100,0.876
1574943982.345363,210903.667,36157,3,AY,1,100,0.882
1574943982.385262,210937.333,36157,3,AY,1,100,0.873
1574943982.425161,210971.000,36157,3,AY,1,100,0.876
1574943982.467035,211006.333,36176,3,AY,1,100,0.882
1574943982.508909,211041.667,36176,3,AY,1,100,0.883
1574943982.550783,211077.000,36176,3,AY,1,100,0.877
1574943982.591670,211111.500,36192,2,AY,1,100,0.879
1574943982.632556,211146.000,36192,2,AY,1,100,0.878
1574943982.677590,211184.000,36210,3,AY,1,100,0.877
1574943982.722625,211222.000,36210,3,AY,1,100,0.879
1574943982.767659,211260.000,36210,3,AY,1,100,0.877
1574943982.808743,211294.667,36228,3,AY,1,100,0.878
1574943982.849827,211329.333,36228,3,AY,1,100,0.875
1574943982.890911,211364.000,36228,3,AY,1,100,0.875
1574943982.932785,211399.333,36246,3,AY,1,100,0.876
1574943982.974659,211434.667,36246,3,AY,1,100,0.878
1574943983.016533,211470.000,36246,3,AY,1,100,0.876
1574943983.056432,211503.667,36264,3,AY,1,100,0.881
1574943983.096331,211537.333,36264,3,AY,1,100,0.879
1574943983.136230,211571.000,36264,3,AY,1,100,0.880
1574943983.174153,211603.000,36282,3,AY,1,100,0.882
1574943983.212077,211635.000,36282,3,AY,1,100,0.878
1574943983.250000,211667.000,36282,3,AY,1,100,0.879
1574943983.289504,211700.333,36299,3,AY,1,100,0.887
1574943983.329008,211733.667,36299,3,AY,1,100,0.889
1574943983.368512,211767.000,36299,3,AY,1,100,0.881
1574943983.409991,211802.000,36318,3,AY,1,100,0.884
1574943983.451470,211837.000,36318,3,AY,1,100,0.903
1574943983.492949,211872.000,36318,3,AY,1,100,0.891
1574943983.532453,211905.333,36336,3,AY,1,100,1.117
1574943983.571957,211938.667,36336,3,AY,1,100,0.731
1574943983.611460,211972.000,36336,3,AY,1,100,0.786
1574943983.652544,212006.667,36352,3,AY,1,100,0.894
1574943983.693628,212041.333,36352,3,AY,1,100,0.820
1574943983.734712,212076.000,36352,3,AY,1,100,0.826
1574943983.776191,212111.000,36370,3,AY,1,100,0.786
1574943983.817670,212146.000,36370,3,AY,1,100,0.812
1574943983.859149,212181.000,36370,3,AY,1,100,0.817
1574943983.900036,212215.500,36388,2,AY,1,100,0.824
1574943983.940922,212250.000,36388,2,AY,1,100,0.846
1574943983.981216,212284.000,36406,4,AY,1,100,0.836
1574943984.021510,212318.000,36406,4,AY,1,100,0.825
1574943984.061804,212352.000,36406,4,AY,1,100,0.809
1574943984.102098,212386.000,36406,4,AY,1,100,0.797
1574943984.141602,212419.333,36424,3,AY,1,100,0.814
1574943984.181105,212452.667,36424,3,AY,1,100,0.900
1574943984.220609,212486.000,36424,3,AY,1,100,0.818
1574943984.260903,212520.000,36442,3,AY,1,100,0.840
1574943984.301197,212554.000,36442,3,AY,1,100,0.849
1574943984.341491,212588.000,36442,3,AY,1,100,0.825
1574943984.382180,212622.333,36460,3,AY,1,100,0.843
1574943984.422869,212656.667,36460,3,AY,1,100,0.834
1574943984.463557,212691.000,36460,3,AY,1,100,0.838
1574943984.505629,212726.500,36478,2,AY,1,100,0.861
1574943984.547701,212762.000,36478,2,AY,1,100,0.833
1574943984.585229,212793.667,36496,3,AY,1,100,0.834
1574943984.622758,212825.333,36496,3,AY,1,100,0.842
1574943984.660287,212857.000,36496,3,AY,1,100,0.838
1574943984.701766,212892.000,36514,4,AY,1,100,0.837
1574943984.743245,212927.000,36514,4,AY,1,100,0.851
1574943984.784724,212962.000,36514,4,AY,1,100,0.832
1574943984.826203,212997.000,36514,4,AY,1,100,0.838
1574943984.867089,213031.500,36530,2,AY,1,100,0.844
1574943984.907975,213066.000,36530,2,AY,1,100,0.850
1574943984.949455,213101.000,36548,3,AY,1,100,0.826
1574943984.990933,213136.000,36548,3,AY,1,100,0.837
1574943985.032413,213171.000,36548,3,AY,1,100,0.849
1574943985.074286,213206.333,36566,3,AY,1,100,0.830
1574943985.116161,213241.667,36566,3,AY,1,100,0.842
1574943985.158035,213277.000,36566,3,AY,1,100,0.858
1574943985.195958,213309.000,36584,3,AY,1,100,0.831
1574943985.233882,213341.000,36584,3,AY,1,100,0.843
1574943985.271806,213373.000,36584,3,AY,1,100,0.846
1574943985.309729,213405.000,36602,3,AY,1,100,0.835
1574943985.347653,213437.000,36602,3,AY,1,100,0.839
1574943985.385576,213469.000,36602,3,AY,1,100,0.839
1574943985.429426,213506.000,36621,3,AY,1,100,0.842
1574943985.473275,213543.000,36621,3,AY,1,100,0.841
1574943985.517124,213580.000,36621,3,AY,1,100,0.846
1574943985.558208,213614.667,36639,3,AY,1,100,0.830
1574943985.599292,213649.333,36639,3,AY,1,100,0.836
1574943985.640376,213684.000,36639,3,AY,1,100,0.846
1574943985.681065,213718.333,36656,3,AY,1,100,0.834
1574943985.721754,213752.667,36656,3,AY,1,100,0.842
1574943985.762443,213787.000,36656,3,AY,1,100,0.847
1574943985.801552,213820.000,36674,3,AY,1,100,0.838
1574943985.840660,213853.000,36674,3,AY,1,100,0.843
1574943985.879769,213886.000,36674,3,AY,1,100,0.844
1574943985.916508,213917.000,36692,3,AY,1,100,0.828
1574943985.953246,213948.000,36692,3,AY,1,100,0.845
1574943985.989985,213979.000,36692,3,AY,1,100,0.847
1574943986.030674,214013.333,36708,3,AY,1,100,0.833
1574943986.071363,214047.667,36708,3,AY,1,100,0.829
1574943986.112051,214082.000,36708,3,AY,1,100,0.848
1574943986.157086,214120.000,36726,3,AY,1,100,0.833
1574943986.202120,214158.000,36726,3,AY,1,100,0.814
1574943986.247155,214196.000,36726,3,AY,1,100,0.856
1574943986.285473,214228.333,36744,3,AY,1,100,0.853
1574943986.323792,214260.667,36744,3,AY,1,100,0.835
1574943986.362111,214293.000,36744,3,AY,1,100,0.844
1574943986.403590,214328.000,36764,5,AY,1,100,0.888
1574943986.445069,214363.000,36764,5,AY,1,100,0.864
1574943986.486548,214398.000,36764,5,AY,1,100,0.861
1574943986.528027,214433.000,36764,5,AY,1,100,0.866
1574943986.569506,214468.000,36764,5,AY,1,100,0.845
1574943986.616318,214507.500,36784,2,AY,1,100,0.861
1574943986.663130,214547.000,36784,2,AY,1,100,0.865
1574943986.701053,214579.000,36802,3,AY,1,100,0.872
1574943986.738977,214611.000,36802,3,AY,1,100,0.874
1574943986.776901,214643.000,36802,3,AY,1,100,0.861
1574943986.821540,214680.667,36820,3,AY,1,100,0.883
1574943986.866179,214718.333,36820,3,AY,1,100,0.864
1574943986.910819,214756.000,36820,3,AY,1,100,0.877
1574943986.952693,214791.333,36838,3,AY,1,100,0.865
1574943986.994567,214826.667,36838,3,AY,1,100,0.872
1574943987.036441,214862.000,36838,3,AY,1,100,0.868
1574943987.074759,214894.333,36856,3,AY,1,100,0.873
1574943987.113078,214926.667,36856,3,AY,1,100,0.864
1574943987.151397,214959.000,36856,3,AY,1,100,0.873
1574943987.189715,214991.333,36874,3,AY,1,100,0.869
1574943987.228034,215023.667,36874,3,AY,1,100,0.872
1574943987.266353,215056.000,36874,3,AY,1,100,0.867
1574943987.306647,215090.000,36891,3,AY,1,100,0.869
1574943987.346941,215124.000,36891,3,AY,1,100,0.867
1574943987.387234,215158.000,36891,3,AY,1,100,0.875
1574943987.428714,215193.000,36910,3,AY,1,100,0.872
1574943987.470192,215228.000,36910,3,AY,1,100,0.864
1574943987.511672,215263.000,36910,3,AY,1,100,0.871
1574943987.551965,215297.000,36928,3,AY,1,100,0.868
1574943987.592259,215331.000,36928,3,AY,1,100,0.843
1574943987.632553,215365.000,36928,3,AY,1,100,0.887
1574943987.673637,215399.667,36944,3,AY,1,100,0.865
1574943987.714721,215434.333,36944,3,AY,1,100,0.863
1574943987.755805,215469.000,36944,3,AY,1,100,0.854
1574943987.797284,215504.000,36962,2,AY,1,100,0.894
1574943987.838763,215539.000,36962,2,AY,1,100,0.862
1574943987.880538,215574.250,36980,4,AY,1,100,0.866
1574943987.922314,215609.500,36980,4,AY,1,100,0.857
1574943987.964089,215644.750,36980,4,AY,1,100,0.886
1574943988.005864,215680.000,36980,4,AY,1,100,0.863
1574943988.043393,215711.667,36998,3,AY,1,100,0.869
1574943988.080921,215743.333,36998,3,AY,1,100,0.863
1574943988.118450,215775.000,36998,3,AY,1,100,0.868
1574943988.158744,215809.000,37016,3,AY,1,100,0.882
1574943988.199038,215843.000,37016,3,AY,1,100,0.858
1574943988.239332,215877.000,37016,3,AY,1,100,0.867
1574943988.280021,215911.333,37034,3,AY,1,100,0.868
1574943988.320709,215945.667,37034,3,AY,1,100,0.883
1574943988.361398,215980.000,37034,3,AY,1,100,0.865
1574943988.402483,216014.667,37052,3,AY,1,100,0.871
1574943988.443566,216049.333,37052,3,AY,1,100,0.863
1574943988.484650,216084.000,37052,3,AY,1,100,0.869
1574943988.523759,216117.000,37070,2,AY,1,100,0.868
1574943988.562868,216150.000,37070,2,AY,1,100,0.874
1574943988.603162,216184.000,37088,4,AY,1,100,0.866
1574943988.643456,216218.000,37088,4,AY,1,100,0.862
1574943988.683750,216252.000,37088,4,AY,1,100,0.866
1574943988.724043,216286.000,37088,4,AY,1,100,0.869
1574943988.763942,216319.667,37106,3,AY,1,100,0.876
1574943988.803841,216353.333,37106,3,AY,1,100,0.853
1574943988.843740,216387.000,37106,3,AY,1,100,0.865
1574943988.885219,216422.000,37122,2,AY,1,100,0.870
1574943988.926698,216457.000,37122,2,AY,1,100,0.868
1574943988.967782,216491.667,37140,3,AY,1,100,0.865
1574943989.008866,216526.333,37140,3,AY,1,100,0.870
1574943989.049950,216561.000,37140,3,AY,1,100,0.864
1574943989.090639,216595.333,37158,3,AY,1,100,0.870
1574943989.131328,216629.667,37158,3,AY,1,100,0.870
1574943989.172017,216664.000,37158,3,AY,1,100,0.869
1574943989.209348,216695.500,37176,4,AY,1,100,0.866
1574943989.246679,216727.000,37176,4,AY,1,100,0.863
1574943989.284010,216758.500,37176,4,AY,1,100,0.870
1574943989.321341,216790.000,37176,4,AY,1,100,0.870
1574943989.361042,216823.500,37194,2,AY,1,100,0.872
1574943989.400744,216857.000,37194,2,AY,1,100,0.875
1574943989.445383,216894.667,37213,3,AY,1,100,0.871
1574943989.490022,216932.333,37213,3,AY,1,100,0.860
1574943989.534662,216970.000,37213,3,AY,1,100,0.875
1574943989.575746,217004.667,37231,3,AY,1,100,0.871
1574943989.616830,217039.333,37231,3,AY,1,100,0.854
1574943989.657913,217074.000,37231,3,AY,1,100,0.875
1574943989.697812,217107.667,37248,3,AY,1,100,0.878
1574943989.737711,217141.333,37248,3,AY,1,100,0.870
1574943989.777610,217175.000,37248,3,AY,1,100,0.866
1574943989.815929,217207.333,37266,3,AY,1,100,0.862
1574943989.854248,217239.667,37266,3,AY,1,100,0.862
1574943989.892566,217272.000,37266,3,AY,1,100,0.868
1574943989.930490,217304.000,37284,4,AY,1,100,0.871
1574943989.968414,217336.000,37284,4,AY,1,100,0.866
1574943990.006337,217368.000,37284,4,AY,1,100,0.863
1574943990.044261,217400.000,37284,4,AY,1,100,0.870
1574943990.083765,217433.333,37302,3,AY,1,100,0.866
1574943990.123268,217466.667,37302,3,AY,1,100,0.865
1574943990.162772,217500.000,37302,3,AY,1,100,0.868
1574943990.203659,217534.500,37318,2,AY,1,100,0.865
1574943990.244545,217569.000,37318,2,AY,1,100,0.870
1574943990.289579,217607.000,37336,3,AY,1,100,0.872
1574943990.334614,217645.000,37336,3,AY,1,100,0.860
1574943990.379648,217683.000,37336,3,AY,1,100,0.872
1574943990.420732,217717.667,37355,3,AY,1,100,0.866
1574943990.461816,217752.333,37355,3,AY,1,100,0.863
1574943990.502900,217787.000,37355,3,AY,1,100,0.869
1574943990.545169,217822.667,37373,3,AY,1,100,0.870
1574943990.587438,217858.333,37373,3,AY,1,100,0.866
1574943990.629707,217894.000,37373,3,AY,1,100,0.866
1574943990.668026,217926.333,37391,3,AY,1,100,0.870
1574943990.706345,217958.667,37391,3,AY,1,100,0.872
1574943990.744663,217991.000,37391,3,AY,1,100,0.868
1574943990.789303,218028.667,37408,3,AY,1,100,0.865
1574943990.833942,218066.333,37408,3,AY,1,100,0.868
1574943990.878581,218104.000,37408,3,AY,1,100,0.869
1574943990.920060,218139.000,37426,2,AY,1,100,0.868
1574943990.961539,218174.000,37426,2,AY,1,100,0.868
1574943991.000648,218207.000,37444,4,AY,1,100,0.865
1574943991.039757,218240.000,37444,4,AY,1,100,0.868
1574943991.078866,218273.000,37444,4,AY,1,100,0.868
1574943991.117974,218306.000,37444,4,AY,1,100,0.867
1574943991.155503,218337.667,37460,3,AY,1,100,0.869
1574943991.193032,218369.333,37460,3,AY,1,100,0.866
1574943991.230560,218401.000,37460,3,AY,1,100,0.866
1574943991.270854,218435.000,37478,3,AY,1,100,0.871
1574943991.311148,218469.000,37478,3,AY,1,100,0.865
1574943991.351442,218503.000,37478,3,AY,1,100,0.868
1574943991.392921,218538.000,37496,3,AY,1,100,0.865
1574943991.434400,218573.000,37496,3,AY,1,100,0.865
1574943991.475879,218608.000,37496,3,AY,1,100,0.867
1574943991.523283,218648.000,37515,2,AY,1,100,0.869
1574943991.570688,218688.000,37515,2,AY,1,100,0.864
1574943991.610192,218721.333,37533,3,AY,1,100,0.866
1574943991.649696,218754.667,37533,3,AY,1,100,0.866
1574943991.689199,218788.000,37533,3,AY,1,100,0.867
1574943991.727123,218820.000,37551,4,AY,1,100,0.867
1574943991.765047,218852.000,37551,4,AY,1,100,0.864
1574943991.802970,218884.000,37551,4,AY,1,100,0.872
1574943991.840894,218916.000,37551,4,AY,1,100,0.864
1574943991.880793,218949.667,37569,3,AY,1,100,0.868
1574943991.920692,218983.333,37569,3,AY,1,100,0.868
1574943991.960591,219017.000,37569,3,AY,1,100,0.865
1574943992.002070,219052.000,37586,2,AY,1,100,0.869
1574943992.043549,219087.000,37586,2,AY,1,100,0.866
1574943992.084238,219121.333,37604,3,AY,1,100,0.865
1574943992.124927,219155.667,37604,3,AY,1,100,0.870
1574943992.165615,219190.000,37604,3,AY,1,100,0.865
1574943992.209069,219226.667,37622,3,AY,1,100,0.862
1574943992.252524,219263.333,37622,3,AY,1,100,0.871
1574943992.295978,219300.000,37622,3,AY,1,100,0.870
1574943992.333902,219332.000,37638,3,AY,1,100,0.871
1574943992.371825,219364.000,37638,3,AY,1,100,0.863
1574943992.409749,219396.000,37638,3,AY,1,100,0.871
1574943992.449569,219429.600,37660,5,AY,1,100,0.870
1574943992.489389,219463.200,37660,5,AY,1,100,0.881
1574943992.529208,219496.800,37660,5,AY,1,100,0.862
1574943992.569028,219530.400,37660,5,AY,1,100,0.866
1574943992.608848,219564.000,37660,5,AY,1,100,0.864
1574943992.649537,219598.333,37679,3,AY,1,100,0.864
1574943992.690226,219632.667,37679,3,AY,1,100,0.864
1574943992.730915,219667.000,37679,3,AY,1,100,0.873
1574943992.771999,219701.667,37697,3,AY,1,100,0.865
1574943992.813083,219736.333,37697,3,AY,1,100,0.861
1574943992.854167,219771.000,37697,3,AY,1,100,0.864
1574943992.892880,219803.667,37715,3,AY,1,100,0.871
1574943992.931594,219836.333,37715,3,AY,1,100,0.865
1574943992.970308,219869.000,37715,3,AY,1,100,0.863
1574943993.012182,219904.333,37731,3,AY,1,100,0.868
1574943993.054056,219939.667,37731,3,AY,1,100,0.868
1574943993.095930,219975.000,37731,3,AY,1,100,0.873
1574943993.135039,220008.000,37749,3,AY,1,100,0.863
1574943993.174148,220041.000,37749,3,AY,1,100,0.864
1574943993.213256,220074.000,37749,3,AY,1,100,0.866
1574943993.254735,220109.000,37767,3,AY,1,100,0.870
1574943993.296214,220144.000,37767,3,AY,1,100,0.871
1574943993.337693,220179.000,37767,3,AY,1,100,0.864
1574943993.378777,220213.667,37785,3,AY,1,100,0.864
1574943993.419861,220248.333,37785,3,AY,1,100,0.862
1574943993.460945,220283.000,37785,3,AY,1,100,0.875
1574943993.498869,220315.000,37804,3,AY,1,100,0.875
1574943993.536793,220347.000,37804,3,AY,1,100,0.868
1574943993.574716,220379.000,37804,3,AY,1,100,0.867
1574943993.613430,220411.667,37822,3,AY,1,100,0.866
1574943993.652144,220444.333,37822,3,AY,1,100,0.871
1574943993.690857,220477.000,37822,3,AY,1,100,0.869
1574943993.734312,220513.667,37840,3,AY,1,100,0.871
1574943993.777766,220550.333,37840,3,AY,1,100,0.860
1574943993.821220,220587.000,37840,3,AY,1,100,0.871
1574943993.859934,220619.667,37857,3,AY,1,100,0.870
1574943993.898648,220652.333,37857,3,AY,1,100,0.869
1574943993.937361,220685.000,37857,3,AY,1,100,0.866
1574943993.982396,220723.000,37875,2,AY,1,100,0.870
1574943994.027430,220761.000,37875,2,AY,1,100,0.873
1574943994.065946,220793.500,37892,4,AY,1,100,0.869
1574943994.104462,220826.000,37892,4,AY,1,100,0.869
1574943994.142979,220858.500,37892,4,AY,1,100,0.860
1574943994.181495,220891.000,37892,4,AY,1,100,0.873
1574943994.228307,220930.500,37909,2,AY,1,100,0.865
1574943994.275119,220970.000,37909,2,AY,1,100,0.871
1574943994.312647,221001.667,37927,3,AY,1,100,0.870
1574943994.350176,221033.333,37927,3,AY,1,100,0.867
1574943994.387705,221065.000,37927,3,AY,1,100,0.864
1574943994.432739,221103.000,37946,3,AY,1,100,0.871
1574943994.477773,221141.000,37946,3,AY,1,100,0.859
1574943994.522808,221179.000,37946,3,AY,1,100,0.867
1574943994.563497,221213.333,37964,3,AY,1,100,0.868
1574943994.604186,221247.667,37964,3,AY,1,100,0.875
1574943994.644875,221282.000,37964,3,AY,1,100,0.873
1574943994.687144,221317.667,37982,3,AY,1,100,0.873
1574943994.729413,221353.333,37982,3,AY,1,100,0.867
1574943994.771682,221389.000,37982,3,AY,1,100,0.875
1574943994.813161,221424.000,37999,3,AY,1,100,0.870
1574943994.854640,221459.000,37999,3,AY,1,100,0.873
1574943994.896119,221494.000,37999,3,AY,1,100,0.873
1574943994.936018,221527.667,38017,3,AY,1,100,0.870
1574943994.975916,221561.333,38017,3,AY,1,100,0.881
1574943995.015815,221595.000,38017,3,AY,1,100,0.873
1574943995.054134,221627.333,38035,3,AY,1,100,0.880
1574943995.092453,221659.667,38035,3,AY,1,100,0.873
1574943995.130771,221692.000,38035,3,AY,1,100,0.873
1574943995.169485,221724.667,38051,3,AY,1,100,0.871
1574943995.208199,221757.333,38051,3,AY,1,100,0.875
1574943995.246912,221790.000,38051,3,AY,1,100,0.870
1574943995.287601,221824.333,38069,3,AY,1,100,0.868
1574943995.328290,221858.667,38069,3,AY,1,100,0.874
1574943995.368979,221893.000,38069,3,AY,1,100,0.875
1574943995.409866,221927.500,38087,2,AY,1,100,0.871
1574943995.450752,221962.000,38087,2,AY,1,100,0.871
1574943995.496181,222000.333,38106,3,AY,1,100,0.870
1574943995.541611,222038.667,38106,3,AY,1,100,0.871
1574943995.587040,222077.000,38106,3,AY,1,100,0.872
1574943995.624569,222108.667,38124,3,AY,1,100,0.865
1574943995.662098,222140.333,38124,3,AY,1,100,0.870
1574943995.699626,222172.000,38124,3,AY,1,100,0.867
1574943995.738142,222204.500,38142,4,AY,1,100,0.872
1574943995.776659,222237.000,38142,4,AY,1,100,0.880
1574943995.815175,222269.500,38142,4,AY,1,100,0.876
1574943995.853691,222302.000,38142,4,AY,1,100,0.864
1574943995.893985,222336.000,38160,3,AY,1,100,0.880
1574943995.934279,222370.000,38160,3,AY,1,100,0.881
1574943995.974573,222404.000,38160,3,AY,1,100,0.864
1574943996.016052,222439.000,38177,2,AY,1,100,0.872
1574943996.057531,222474.000,38177,2,AY,1,100,0.871
1574943996.098615,222508.667,38195,3,AY,1,100,0.865
1574943996.139699,222543.333,38195,3,AY,1,100,0.875
1574943996.180783,222578.000,38195,3,AY,1,100,0.874
1574943996.223052,222613.667,38213,3,AY,1,100,0.922
1574943996.265321,222649.333,38213,3,AY,1,100,0.890
1574943996.307590,222685.000,38213,3,AY,1,100,0.809
1574943996.345514,222717.000,38231,3,AY,1,100,0.858
1574943996.383437,222749.000,38231,3,AY,1,100,0.848
1574943996.421361,222781.000,38231,3,AY,1,100,0.840
1574943996.461260,222814.667,38248,3,AY,1,100,0.842
1574943996.501158,222848.333,38248,3,AY,1,100,0.848
1574943996.541057,222882.000,38248,3,AY,1,100,0.874
1574943996.582141,222916.667,38266,3,AY,1,100,0.855
1574943996.623225,222951.333,38266,3,AY,1,100,0.861
1574943996.664309,222986.000,38266,3,AY,1,100,0.859
1574943996.705788,223021.000,38284,3,AY,1,100,0.860
1574943996.747267,223056.000,38284,3,AY,1,100,0.869
1574943996.788746,223091.000,38284,3,AY,1,100,0.860
1574943996.827460,223123.667,38302,3,AY,1,100,0.880
1574943996.866174,223156.333,38302,3,AY,1,100,0.857
1574943996.904887,223189.000,38302,3,AY,1,100,0.864
1574943996.942811,223221.000,38320,3,AY,1,100,0.869
1574943996.980735,223253.000,38320,3,AY,1,100,0.868
1574943997.018658,223285.000,38320,3,AY,1,100,0.866
1574943997.062113,223321.667,38338,3,AY,1,100,0.884
1574943997.105567,223358.333,38338,3,AY,1,100,0.842
1574943997.149021,223395.000,38338,3,AY,1,100,0.866
1574943997.190105,223429.667,38356,3,AY,1,100,0.871
1574943997.231189,223464.333,38356,3,AY,1,100,0.862
1574943997.272273,223499.000,38356,3,AY,1,100,0.871
1574943997.312962,223533.333,38373,3,AY,1,100,0.861
1574943997.353651,223567.667,38373,3,AY,1,100,0.860
1574943997.394340,223602.000,38373,3,AY,1,100,0.863
1574943997.434633,223636.000,38391,3,AY,1,100,0.868
1574943997.474927,223670.000,38391,3,AY,1,100,0.869
1574943997.515221,223704.000,38391,3,AY,1,100,0.859
1574943997.551960,223735.000,38410,3,AY,1,100,0.867
1574943997.588698,223766.000,38410,3,AY,1,100,0.862
1574943997.625437,223797.000,38410,3,AY,1,100,0.867
1574943997.666126,223831.333,38426,3,AY,1,100,0.860
1574943997.706815,223865.667,38426,3,AY,1,100,0.872
1574943997.747504,223900.000,38426,3,AY,1,100,0.857
1574943997.785032,223931.667,38444,3,AY,1,100,0.855
1574943997.822561,223963.333,38444,3,AY,1,100,0.874
1574943997.860090,223995.000,38444,3,AY,1,100,0.864
1574943997.904729,224032.667,38462,3,AY,1,100,0.853
1574943997.949368,224070.333,38462,3,AY,1,100,0.872
1574943997.994007,224108.000,38462,3,AY,1,100,0.862
1574943998.035091,224142.667,38480,3,AY,1,100,0.865
1574943998.076175,224177.333,38480,3,AY,1,100,0.856
1574943998.117259,224212.000,38480,3,AY,1,100,0.859
1574943998.158343,224246.667,38498,3,AY,1,100,0.866
1574943998.199427,224281.333,38498,3,AY,1,100,0.858
1574943998.240511,224316.000,38498,3,AY,1,100,0.865
1574943998.278830,224348.333,38516,3,AY,1,100,0.875
1574943998.317149,224380.667,38516,3,AY,1,100,0.890
1574943998.355467,224413.000,38516,3,AY,1,100,0.834
1574943998.400502,224451.000,38533,2,AY,1,100,0.856
1574943998.445536,224489.000,38533,2,AY,1,100,0.840
1574943998.486778,224523.800,38555,5,AY,1,100,0.829
1574943998.528020,224558.600,38555,5,AY,1,100,0.824
1574943998.569262,224593.400,38555,5,AY,1,100,0.809
1574943998.610504,224628.200,38555,5,AY,1,100,0.879
1574943998.651746,224663.000,38555,5,AY,1,100,0.867
1574943998.691250,224696.333,38575,3,AY,1,100,0.871
1574943998.730753,224729.667,38575,3,AY,1,100,0.849
1574943998.770257,224763.000,38575,3,AY,1,100,0.840
1574943998.808971,224795.667,38593,3,AY,1,100,0.867
1574943998.847685,224828.333,38593,3,AY,1,100,0.849
1574943998.886399,224861.000,38593,3,AY,1,100,0.851
1574943998.925507,224894.000,38611,3,AY,1,100,0.849
1574943998.964616,224927.000,38611,3,AY,1,100,0.884
1574943999.003725,224960.000,38611,3,AY,1,100,0.847
1574943999.042241,224992.500,38629,4,AY,1,100,0.839
1574943999.080757,225025.000,38629,4,AY,1,100,0.860
1574943999.119273,225057.500,38629,4,AY,1,100,0.858
1574943999.157790,225090.000,38629,4,AY,1,100,0.861
1574943999.198084,225124.000,38646,2,AY,1,100,0.846
1574943999.238378,225158.000,38646,2,AY,1,100,0.845
1574943999.279461,225192.667,38664,3,AY,1,100,0.852
1574943999.320545,225227.333,38664,3,AY,1,100,0.830
1574943999.361629,225262.000,38664,3,AY,1,100,0.864
1574943999.406269,225299.667,38680,3,AY,1,100,0.848
1574943999.450908,225337.333,38680,3,AY,1,100,0.854
1574943999.495547,225375.000,38680,3,AY,1,100,0.863
1574943999.534656,225408.000,38699,3,AY,1,100,0.861
1574943999.573765,225441.000,38699,3,AY,1,100,0.830
1574943999.612874,225474.000,38699,3,AY,1,100,0.853
1574943999.650402,225505.667,38717,3,AY,1,100,0.851
1574943999.687931,225537.333,38717,3,AY,1,100,0.853
1574943999.725459,225569.000,38717,3,AY,1,100,0.845
1574943999.765358,225602.667,38735,3,AY,1,100,0.900
1574943999.805257,225636.333,38735,3,AY,1,100,0.802
1574943999.845156,225670.000,38735,3,AY,1,100,0.819
1574943999.885845,225704.333,38753,3,AY,1,100,0.843
1574943999.926534,225738.667,38753,3,AY,1,100,0.863
1574943999.967223,225773.000,38753,3,AY,1,100,0.844
1574944000.008307,225807.667,38771,3,AY,1,100,0.855
1574944000.049391,225842.333,38771,3,AY,1,100,0.869
1574944000.090475,225877.000,38771,3,AY,1,100,0.832
1574944000.133929,225913.667,38789,3,AY,1,100,0.850
1574944000.177383,225950.333,38789,3,AY,1,100,0.865
1574944000.220837,225987.000,38789,3,AY,1,100,0.842
1574944000.257971,226018.333,38807,3,AY,1,100,0.845
1574944000.295105,226049.667,38807,3,AY,1,100,0.860
1574944000.332238,226081.000,38807,3,AY,1,100,0.848
1574944000.372137,226114.667,38824,3,AY,1,100,0.858
1574944000.412036,226148.333,38824,3,AY,1,100,0.851
1574944000.451935,226182.000,38824,3,AY,1,100,0.845
1574944000.493413,226217.000,38843,3,AY,1,100,0.844
1574944000.534893,226252.000,38843,3,AY,1,100,0.855
1574944000.576371,226287.000,38843,3,AY,1,100,0.848
1574944000.617455,226321.667,38859,3,AY,1,100,0.845
1574944000.658540,226356.333,38859,3,AY,1,100,0.858
1574944000.699623,226391.000,38859,3,AY,1,100,0.846
1574944000.739917,226425.000,38877,3,AY,1,100,0.840
1574944000.780211,226459.000,38877,3,AY,1,100,0.852
1574944000.820505,226493.000,38877,3,AY,1,100,0.846
1574944000.861194,226527.333,38895,3,AY,1,100,0.837
1574944000.901883,226561.667,38895,3,AY,1,100,0.855
1574944000.942572,226596.000,38895,3,AY,1,100,0.853
1574944000.980891,226628.333,38913,3,AY,1,100,0.842
1574944001.019209,226660.667,38913,3,AY,1,100,0.859
1574944001.057528,226693.000,38913,3,AY,1,100,0.850
1574944001.098612,226727.667,38931,3,AY,1,100,0.847
1574944001.139696,226762.333,38931,3,AY,1,100,0.846
1574944001.180780,226797.000,38931,3,AY,1,100,0.852
1574944001.221864,226831.667,38949,3,AY,1,100,0.849
1574944001.262948,226866.333,38949,3,AY,1,100,0.849
1574944001.304032,226901.000,38949,3,AY,1,100,0.854
1574944001.343535,226934.333,38967,3,AY,1,100,0.848
1574944001.383039,226967.667,38967,3,AY,1,100,0.845
1574944001.422543,227001.000,38967,3,AY,1,100,0.849
1574944001.460467,227033.000,38986,3,AY,1,100,0.852
1574944001.498390,227065.000,38986,3,AY,1,100,0.854
1574944001.536314,227097.000,38986,3,AY,1,100,0.844
1574944001.578583,227132.667,39004,3,AY,1,100,0.851
1574944001.620852,227168.333,39004,3,AY,1,100,0.844
1574944001.663121,227204.000,39004,3,AY,1,100,0.853
1574944001.699070,227234.333,39021,3,AY,1,100,0.851
1574944001.735018,227264.667,39021,3,AY,1,100,0.864
1574944001.770967,227295.000,39021,3,AY,1,100,0.853
1574944001.815606,227332.667,39039,3,AY,1,100,0.851
1574944001.860245,227370.333,39039,3,AY,1,100,0.837
1574944001.904885,227408.000,39039,3,AY,1,100,0.846
1574944001.939253,227437.000,39056,3,AY,1,100,0.840
1574944001.973621,227466.000,39056,3,AY,1,100,0.834
1574944002.007990,227495.000,39056,3,AY,1,100,0.846
1574944002.049864,227530.333,39073,3,AY,1,100,0.831
1574944002.091738,227565.667,39073,3,AY,1,100,0.847
1574944002.133612,227601.000,39073,3,AY,1,100,0.850
1574944002.171930,227633.333,39091,3,AY,1,100,0.830
1574944002.210249,227665.667,39091,3,AY,1,100,0.834
1574944002.248568,227698.000,39091,3,AY,1,100,0.834
1574944002.293207,227735.667,39109,3,AY,1,100,0.839
1574944002.337846,227773.333,39109,3,AY,1,100,0.838
1574944002.382486,227811.000,39109,3,AY,1,100,0.834
1574944002.423570,227845.667,39127,3,AY,1,100,0.836
1574944002.464654,227880.333,39127,3,AY,1,100,0.835
1574944002.505738,227915.000,39127,3,AY,1,100,0.837
1574944002.547217,227950.000,39146,2,AY,1,100,0.841
1574944002.588696,227985.000,39146,2,AY,1,100,0.830
1574944002.627212,228017.500,39164,4,AY,1,100,0.842
1574944002.665728,228050.000,39164,4,AY,1,100,0.841
1574944002.704244,228082.500,39164,4,AY,1,100,0.836
1574944002.742760,228115.000,39164,4,AY,1,100,0.839
1574944002.781869,228148.000,39182,3,AY,1,100,0.838
1574944002.820978,228181.000,39182,3,AY,1,100,0.838
1574944002.860087,228214.000,39182,3,AY,1,100,0.840
1574944002.899986,228247.667,39199,3,AY,1,100,0.842
1574944002.939884,228281.333,39199,3,AY,1,100,0.842
1574944002.979783,228315.000,39199,3,AY,1,100,0.829
1574944003.019287,228348.333,39217,3,AY,1,100,0.843
1574944003.058791,228381.667,39217,3,AY,1,100,0.839
1574944003.098295,228415.000,39217,3,AY,1,100,0.839
1574944003.138589,228449.000,39233,3,AY,1,100,0.833
1574944003.178883,228483.000,39233,3,AY,1,100,0.850
1574944003.219176,228517.000,39233,3,AY,1,100,0.851
1574944003.260655,228552.000,39251,2,AY,1,100,0.856
1574944003.302134,228587.000,39251,2,AY,1,100,0.843
1574944003.347959,228625.667,39269,3,AY,1,100,0.843
1574944003.393783,228664.333,39269,3,AY,1,100,0.841
1574944003.439608,228703.000,39269,3,AY,1,100,0.844
1574944003.477136,228734.667,39288,3,AY,1,100,0.838
1574944003.514665,228766.333,39288,3,AY,1,100,0.840
1574944003.552193,228798.000,39288,3,AY,1,100,0.841
1574944003.590117,228830.000,39306,4,AY,1,100,0.844
1574944003.628041,228862.000,39306,4,AY,1,100,0.838
1574944003.665964,228894.000,39306,4,AY,1,100,0.841
1574944003.703888,228926.000,39306,4,AY,1,100,0.845
1574944003.744577,228960.333,39324,3,AY,1,100,0.844
1574944003.785266,228994.667,39324,3,AY,1,100,0.841
1574944003.825955,229029.000,39324,3,AY,1,100,0.835
1574944003.866249,229063.000,39342,3,AY,1,100,0.840
1574944003.906543,229097.000,39342,3,AY,1,100,0.842
1574944003.946836,229131.000,39342,3,AY,1,100,0.853
1574944003.993649,229170.500,39359,2,AY,1,100,0.835
1574944004.040461,229210.000,39359,2,AY,1,100,0.844
1574944004.079569,229243.000,39377,3,AY,1,100,0.851
1574944004.118678,229276.000,39377,3,AY,1,100,0.833
1574944004.157787,229309.000,39377,3,AY,1,100,0.842
1574944004.195711,229341.000,39395,3,AY,1,100,0.842
1574944004.233634,229373.000,39395,3,AY,1,100,0.844
1574944004.271558,229405.000,39395,3,AY,1,100,0.838
1574944004.311457,229438.667,39411,3,AY,1,100,0.849
1574944004.351356,229472.333,39411,3,AY,1,100,0.844
1574944004.391254,229506.000,39411,3,AY,1,100,0.840
1574944004.432338,229540.667,39430,3,AY,1,100,0.844
1574944004.473422,229575.333,39430,3,AY,1,100,0.834
1574944004.514506,229610.000,39430,3,AY,1,100,0.846
1574944004.555274,229644.400,39451,5,AY,1,100,0.843
1574944004.596042,229678.800,39451,5,AY,1,100,0.844
1574944004.636810,229713.200,39451,5,AY,1,100,0.841
1574944004.677578,229747.600,39451,5,AY,1,100,0.845
1574944004.718346,229782.000,39451,5,AY,1,100,0.836
1574944004.759430,229816.667,39470,3,AY,1,100,0.847
1574944004.800514,229851.333,39470,3,AY,1,100,0.841
1574944004.841598,229886.000,39470,3,AY,1,100,0.842
1574944004.880311,229918.667,39488,3,AY,1,100,0.844
1574944004.919025,229951.333,39488,3,AY,1,100,0.847
1574944004.957739,229984.000,39488,3,AY,1,100,0.844
1574944004.998428,230018.333,39505,3,AY,1,100,0.841
1574944005.039117,230052.667,39505,3,AY,1,100,0.841
1574944005.079806,230087.000,39505,3,AY,1,100,0.837
1574944005.120495,230121.333,39522,3,AY,1,100,0.847
1574944005.161184,230155.667,39522,3,AY,1,100,0.848
1574944005.201873,230190.000,39522,3,AY,1,100,0.850
1574944005.242957,230224.667,39540,3,AY,1,100,0.842
1574944005.284040,230259.333,39540,3,AY,1,100,0.825
1574944005.325125,230294.000,39540,3,AY,1,100,0.847
1574944005.362258,230325.333,39558,3,AY,1,100,0.847
1574944005.399392,230356.667,39558,3,AY,1,100,0.839
1574944005.436525,230388.000,39558,3,AY,1,100,0.864
1574944005.475634,230421.000,39577,3,AY,1,100,0.853
1574944005.514743,230454.000,39577,3,AY,1,100,0.845
1574944005.553852,230487.000,39577,3,AY,1,100,0.837
1574944005.592170,230519.333,39595,3,AY,1,100,0.847
1574944005.630489,230551.667,39595,3,AY,1,100,0.849
1574944005.668808,230584.000,39595,3,AY,1,100,0.843
1574944005.711867,230620.333,39613,3,AY,1,100,0.841
1574944005.754926,230656.667,39613,3,AY,1,100,0.849
1574944005.797985,230693.000,39613,3,AY,1,100,0.842
1574944005.835909,230725.000,39631,3,AY,1,100,0.841
1574944005.873832,230757.000,39631,3,AY,1,100,0.838
1574944005.911756,230789.000,39631,3,AY,1,100,0.843
1574944005.955605,230826.000,39648,3,AY,1,100,0.849
1574944005.999454,230863.000,39648,3,AY,1,100,0.846
1574944006.043304,230900.000,39648,3,AY,1,100,0.844
1574944006.082808,230933.333,39666,3,AY,1,100,0.843
1574944006.122311,230966.667,39666,3,AY,1,100,0.852
1574944006.161815,231000.000,39666,3,AY,1,100,0.840
1574944006.202504,231034.333,39684,3,AY,1,100,0.824
1574944006.243193,231068.667,39684,3,AY,1,100,0.850
1574944006.283882,231103.000,39684,3,AY,1,100,0.847
1574944006.324176,231137.000,39700,3,AY,1,100,0.847
1574944006.364470,231171.000,39700,3,AY,1,100,0.845
1574944006.404764,231205.000,39700,3,AY,1,100,0.839
1574944006.446243,231240.000,39719,2,AY,1,100,0.839
1574944006.487722,231275.000,39719,2,AY,1,100,0.846
1574944006.527621,231308.667,39737,3,AY,1,100,0.840
1574944006.567519,231342.333,39737,3,AY,1,100,0.852
1574944006.607418,231376.000,39737,3,AY,1,100,0.839
1574944006.648107,231410.333,39755,3,AY,1,100,0.839
1574944006.688796,231444.667,39755,3,AY,1,100,0.840
1574944006.729485,231479.000,39755,3,AY,1,100,0.834
