EpochTimestamp,EmotiBitTimestamp,PacketNumber,DataLength,TypeTag,ProtocolVersion,DataReliability,AZ
1574944569.053217,25054.000,3871,10,AZ,1,100,-0.198
1574944569.053217,25054.000,3871,10,AZ,1,100,-0.194
1574944569.053217,25054.000,3871,10,AZ,1,100,-0.199
1574944569.053217,25054.000,3871,10,AZ,1,100,-0.200
1574944569.053217,25054.000,3871,10,AZ,1,100,-0.197
1574944569.053217,25054.000,3871,10,AZ,1,100,-0.198
1574944569.053217,25054.000,3871,10,AZ,1,100,-0.201
1574944569.053217,25054.000,3871,10,AZ,1,100,-0.204
1574944569.053217,25054.000,3871,10,AZ,1,100,-0.199
1574944569.053217,25054.000,3871,10,AZ,1,100,-0.201
1574944569.095428,25089.500,3889,2,AZ,1,100,-0.196
1574944569.137640,25125.000,3889,2,AZ,1,100,-0.202
1574944569.177671,25158.667,3905,3,AZ,1,100,-0.195
1574944569.217703,25192.333,3905,3,AZ,1,100,-0.194
1574944569.257735,25226.000,3905,3,AZ,1,100,-0.204
1574944569.298955,25260.667,3923,3,AZ,1,100,-0.201
1574944569.340176,25295.333,3923,3,AZ,1,100,-0.200
1574944569.381397,25330.000,3923,3,AZ,1,100,-0.202
1574944569.422617,25364.667,3941,3,AZ,1,100,-0.203
1574944569.463838,25399.333,3941,3,AZ,1,100,-0.213
1574944569.505059,25434.000,3941,3,AZ,1,100,-0.198
1574944569.545090,25467.667,3959,3,AZ,1,100,-0.190
1574944569.585122,25501.333,3959,3,AZ,1,100,-0.202
1574944569.625154,25535.000,3959,3,AZ,1,100,-0.197
1574944569.662807,25566.667,3977,3,AZ,1,100,-0.189
1574944569.700460,25598.333,3977,3,AZ,1,100,-0.196
1574944569.738114,25630.000,3977,3,AZ,1,100,-0.205
1574944569.777749,25663.333,3996,3,AZ,1,100,-0.198
1574944569.817384,25696.667,3996,3,AZ,1,100,-0.191
1574944569.857020,25730.000,3996,3,AZ,1,100,-0.206
1574944569.902204,25768.000,4014,3,AZ,1,100,-0.201
1574944569.947388,25806.000,4014,3,AZ,1,100,-0.200
1574944569.992572,25844.000,4014,3,AZ,1,100,-0.204
1574944570.033793,25878.667,4031,3,AZ,1,100,-0.202
1574944570.075014,25913.333,4031,3,AZ,1,100,-0.196
1574944570.116234,25948.000,4031,3,AZ,1,100,-0.199
1574944570.155473,25981.000,4049,3,AZ,1,100,-0.198
1574944570.194712,26014.000,4049,3,AZ,1,100,-0.205
1574944570.233951,26047.000,4049,3,AZ,1,100,-0.200
1574944570.272397,26079.333,4067,3,AZ,1,100,-0.200
1574944570.310843,26111.667,4067,3,AZ,1,100,-0.206
1574944570.349290,26144.000,4067,3,AZ,1,100,-0.213
1574944570.388132,26176.667,4085,3,AZ,1,100,-0.206
1574944570.426975,26209.333,4085,3,AZ,1,100,-0.203
1574944570.465817,26242.000,4085,3,AZ,1,100,-0.206
1574944570.507038,26276.667,4101,3,AZ,1,100,-0.208
1574944570.548259,26311.333,4101,3,AZ,1,100,-0.216
1574944570.589479,26346.000,4101,3,AZ,1,100,-0.225
1574944570.630304,26380.333,4119,3,AZ,1,100,-0.221
1574944570.671128,26414.667,4119,3,AZ,1,100,-0.204
1574944570.711952,26449.000,4119,3,AZ,1,100,-0.217
1574944570.755551,26485.667,4138,3,AZ,1,100,-0.230
1574944570.799150,26522.333,4138,3,AZ,1,100,-0.231
1574944570.842748,26559.000,4138,3,AZ,1,100,-0.208
1574944570.881195,26591.333,4156,3,AZ,1,100,-0.221
1574944570.919641,26623.667,4156,3,AZ,1,100,-0.227
1574944570.958087,26656.000,4156,3,AZ,1,100,-0.213
1574944570.996930,26688.667,4174,3,AZ,1,100,-0.211
1574944571.035772,26721.333,4174,3,AZ,1,100,-0.231
1574944571.074615,26754.000,4174,3,AZ,1,100,-0.219
1574944571.115439,26788.333,4192,3,AZ,1,100,-0.191
1574944571.156263,26822.667,4192,3,AZ,1,100,-0.227
1574944571.197088,26857.000,4192,3,AZ,1,100,-0.198
1574944571.238308,26891.667,4210,3,AZ,1,100,-0.217
1574944571.279529,26926.333,4210,3,AZ,1,100,-0.222
1574944571.320750,26961.000,4210,3,AZ,1,100,-0.261
1574944571.362367,26996.000,4227,3,AZ,1,100,-0.232
1574944571.403984,27031.000,4227,3,AZ,1,100,-0.207
1574944571.445601,27066.000,4227,3,AZ,1,100,-0.254
1574944571.484047,27098.333,4245,3,AZ,1,100,-0.221
1574944571.522493,27130.667,4245,3,AZ,1,100,-0.231
1574944571.560939,27163.000,4245,3,AZ,1,100,-0.195
1574944571.603349,27198.667,4262,3,AZ,1,100,-0.222
1574944571.645759,27234.333,4262,3,AZ,1,100,-0.207
1574944571.688169,27270.000,4262,3,AZ,1,100,-0.218
1574944571.728993,27304.333,4280,3,AZ,1,100,-0.208
1574944571.769817,27338.667,4280,3,AZ,1,100,-0.209
1574944571.810641,27373.000,4280,3,AZ,1,100,-0.207
1574944571.851466,27407.333,4298,3,AZ,1,100,-0.215
1574944571.892290,27441.667,4298,3,AZ,1,100,-0.208
1574944571.933114,27476.000,4298,3,AZ,1,100,-0.205
1574944571.974731,27511.000,4316,2,AZ,1,100,-0.208
1574944572.016348,27546.000,4316,2,AZ,1,100,-0.199
1574944572.054101,27577.750,4334,4,AZ,1,100,-0.255
1574944572.091853,27609.500,4334,4,AZ,1,100,-0.169
1574944572.129606,27641.250,4334,4,AZ,1,100,-0.191
1574944572.167359,27673.000,4334,4,AZ,1,100,-0.163
1574944572.206201,27705.667,4352,3,AZ,1,100,-0.177
1574944572.245044,27738.333,4352,3,AZ,1,100,-0.153
1574944572.283886,27771.000,4352,3,AZ,1,100,-0.162
1574944572.323522,27804.333,4370,3,AZ,1,100,-0.156
1574944572.363157,27837.667,4370,3,AZ,1,100,-0.125
1574944572.402792,27871.000,4370,3,AZ,1,100,-0.096
1574944572.449760,27910.500,4388,2,AZ,1,100,-0.089
1574944572.496727,27950.000,4388,2,AZ,1,100,-0.134
1574944572.538345,27985.000,4405,3,AZ,1,100,-0.108
1574944572.579962,28020.000,4405,3,AZ,1,100,-0.111
1574944572.621579,28055.000,4405,3,AZ,1,100,-0.100
1574944572.660421,28087.667,4423,3,AZ,1,100,-0.067
1574944572.699264,28120.333,4423,3,AZ,1,100,-0.096
1574944572.738106,28153.000,4423,3,AZ,1,100,-0.173
1574944572.775562,28184.500,4442,4,AZ,1,100,-0.219
1574944572.813017,28216.000,4442,4,AZ,1,100,-0.207
1574944572.850472,28247.500,4442,4,AZ,1,100,-0.228
1574944572.887928,28279.000,4442,4,AZ,1,100,-0.150
1574944572.929544,28314.000,4458,2,AZ,1,100,-0.167
1574944572.971162,28349.000,4458,2,AZ,1,100,-0.223
1574944573.012382,28383.667,4476,3,AZ,1,100,-0.165
1574944573.053603,28418.333,4476,3,AZ,1,100,-0.090
1574944573.094824,28453.000,4476,3,AZ,1,100,-0.035
1574944573.136441,28488.000,4494,3,AZ,1,100,-0.080
1574944573.178058,28523.000,4494,3,AZ,1,100,-0.052
1574944573.219675,28558.000,4494,3,AZ,1,100,-0.109
1574944573.262481,28594.000,4512,3,AZ,1,100,-0.221
1574944573.305287,28630.000,4512,3,AZ,1,100,-0.200
1574944573.348093,28666.000,4512,3,AZ,1,100,-0.225
1574944573.384953,28697.000,4530,3,AZ,1,100,-0.118
1574944573.421814,28728.000,4530,3,AZ,1,100,-0.026
1574944573.458675,28759.000,4530,3,AZ,1,100,-0.027
1574944573.498310,28792.333,4548,3,AZ,1,100,0.232
1574944573.537946,28825.667,4548,3,AZ,1,100,0.883
1574944573.577581,28859.000,4548,3,AZ,1,100,1.224
1574944573.618009,28893.000,4566,3,AZ,1,100,0.366
1574944573.658437,28927.000,4566,3,AZ,1,100,-3.613
1574944573.698865,28961.000,4566,3,AZ,1,100,0.538
1574944573.739689,28995.333,4584,3,AZ,1,100,-0.218
1574944573.780513,29029.667,4584,3,AZ,1,100,-0.267
1574944573.821338,29064.000,4584,3,AZ,1,100,-0.591
1574944573.862558,29098.667,4602,3,AZ,1,100,-0.779
1574944573.903779,29133.333,4602,3,AZ,1,100,-0.297
1574944573.945000,29168.000,4602,3,AZ,1,100,0.641
1574944573.981860,29199.000,4620,3,AZ,1,100,1.207
1574944574.018721,29230.000,4620,3,AZ,1,100,1.083
1574944574.055582,29261.000,4620,3,AZ,1,100,-8.000
1574944574.098388,29297.000,4638,3,AZ,1,100,0.932
1574944574.141194,29333.000,4638,3,AZ,1,100,0.977
1574944574.184000,29369.000,4638,3,AZ,1,100,-0.483
1574944574.224825,29403.333,4654,3,AZ,1,100,-0.565
1574944574.265649,29437.667,4654,3,AZ,1,100,-0.811
1574944574.306473,29472.000,4654,3,AZ,1,100,-0.431
1574944574.347694,29506.667,4672,3,AZ,1,100,0.447
1574944574.388915,29541.333,4672,3,AZ,1,100,1.101
1574944574.430135,29576.000,4672,3,AZ,1,100,1.227
1574944574.471356,29610.667,4690,3,AZ,1,100,-8.000
1574944574.512577,29645.333,4690,3,AZ,1,100,0.662
1574944574.553797,29680.000,4690,3,AZ,1,100,0.467
1574944574.591451,29711.667,4708,3,AZ,1,100,-0.496
1574944574.629104,29743.333,4708,3,AZ,1,100,-0.327
1574944574.666758,29775.000,4708,3,AZ,1,100,-0.110
1574944574.705204,29807.333,4727,3,AZ,1,100,-0.469
1574944574.743650,29839.667,4727,3,AZ,1,100,-0.382
1574944574.782096,29872.000,4727,3,AZ,1,100,-0.196
1574944574.822921,29906.333,4745,3,AZ,1,100,-0.222
1574944574.863745,29940.667,4745,3,AZ,1,100,-0.208
1574944574.904569,29975.000,4745,3,AZ,1,100,-0.212
1574944574.947851,30011.400,4766,5,AZ,1,100,-0.224
1574944574.991132,30047.800,4766,5,AZ,1,100,-0.234
1574944575.034414,30084.200,4766,5,AZ,1,100,-0.251
1574944575.077696,30120.600,4766,5,AZ,1,100,-0.122
1574944575.120978,30157.000,4766,5,AZ,1,100,-0.062
1574944575.161009,30190.667,4786,3,AZ,1,100,-0.147
1574944575.201041,30224.333,4786,3,AZ,1,100,-0.227
1574944575.241072,30258.000,4786,3,AZ,1,100,-0.235
1574944575.278726,30289.667,4804,3,AZ,1,100,-0.210
1574944575.316380,30321.333,4804,3,AZ,1,100,-0.223
1574944575.354033,30353.000,4804,3,AZ,1,100,-0.201
1574944575.394064,30386.667,4822,3,AZ,1,100,-0.214
1574944575.434096,30420.333,4822,3,AZ,1,100,-0.244
1574944575.474128,30454.000,4822,3,AZ,1,100,-0.259
1574944575.514556,30488.000,4840,3,AZ,1,100,-0.158
1574944575.554984,30522.000,4840,3,AZ,1,100,-0.144
1574944575.595412,30556.000,4840,3,AZ,1,100,-0.172
1574944575.636236,30590.333,4858,3,AZ,1,100,-0.228
1574944575.677060,30624.667,4858,3,AZ,1,100,-0.232
1574944575.717885,30659.000,4858,3,AZ,1,100,-0.170
1574944575.758312,30693.000,4876,3,AZ,1,100,-0.193
1574944575.798740,30727.000,4876,3,AZ,1,100,-0.205
1574944575.839168,30761.000,4876,3,AZ,1,100,-0.181
1574944575.880785,30796.000,4894,3,AZ,1,100,-0.189
1574944575.922402,30831.000,4894,3,AZ,1,100,-0.250
1574944575.964020,30866.000,4894,3,AZ,1,100,-0.216
1574944576.004051,30899.667,4912,3,AZ,1,100,-0.208
1574944576.044083,30933.333,4912,3,AZ,1,100,-0.212
1574944576.084114,30967.000,4912,3,AZ,1,100,-0.215
1574944576.125731,31002.000,4928,2,AZ,1,100,-0.222
1574944576.167348,31037.000,4928,2,AZ,1,100,-0.230
1574944576.208569,31071.667,4946,3,AZ,1,100,-0.236
1574944576.249790,31106.333,4946,3,AZ,1,100,-0.224
1574944576.291010,31141.000,4946,3,AZ,1,100,-0.201
1574944576.332627,31176.000,4964,3,AZ,1,100,-0.233
1574944576.374244,31211.000,4964,3,AZ,1,100,-0.247
1574944576.415861,31246.000,4964,3,AZ,1,100,-0.266
1574944576.453515,31277.667,4982,3,AZ,1,100,-0.242
1574944576.491168,31309.333,4982,3,AZ,1,100,-0.229
1574944576.528822,31341.000,4982,3,AZ,1,100,-0.238
1574944576.567664,31373.667,5000,3,AZ,1,100,-0.249
1574944576.606507,31406.333,5000,3,AZ,1,100,-0.231
1574944576.645350,31439.000,5000,3,AZ,1,100,-0.242
1574944576.690137,31476.667,5019,3,AZ,1,100,-0.223
1574944576.734925,31514.333,5019,3,AZ,1,100,-0.235
1574944576.779713,31552.000,5019,3,AZ,1,100,-0.239
1574944576.820934,31586.667,5037,3,AZ,1,100,-0.221
1574944576.862154,31621.333,5037,3,AZ,1,100,-0.212
1574944576.903375,31656.000,5037,3,AZ,1,100,-0.238
1574944576.944199,31690.333,5054,3,AZ,1,100,-0.250
1574944576.985023,31724.667,5054,3,AZ,1,100,-0.231
1574944577.025848,31759.000,5054,3,AZ,1,100,-0.233
1574944577.063898,31791.000,5072,3,AZ,1,100,-0.227
1574944577.101948,31823.000,5072,3,AZ,1,100,-0.230
1574944577.139997,31855.000,5072,3,AZ,1,100,-0.236
1574944577.176858,31886.000,5090,3,AZ,1,100,-0.226
1574944577.213719,31917.000,5090,3,AZ,1,100,-0.232
1574944577.250580,31948.000,5090,3,AZ,1,100,-0.225
1574944577.292197,31983.000,5106,3,AZ,1,100,-0.223
1574944577.333814,32018.000,5106,3,AZ,1,100,-0.219
1574944577.375431,32053.000,5106,3,AZ,1,100,-0.229
1574944577.416651,32087.667,5124,3,AZ,1,100,-0.235
1574944577.457872,32122.333,5124,3,AZ,1,100,-0.235
1574944577.499093,32157.000,5124,3,AZ,1,100,-0.220
1574944577.544277,32195.000,5142,3,AZ,1,100,-0.219
1574944577.589461,32233.000,5142,3,AZ,1,100,-0.238
1574944577.634645,32271.000,5142,3,AZ,1,100,-0.232
1574944577.674281,32304.333,5161,3,AZ,1,100,-0.242
1574944577.713916,32337.667,5161,3,AZ,1,100,-0.238
1574944577.753551,32371.000,5161,3,AZ,1,100,-0.235
1574944577.791205,32402.667,5179,3,AZ,1,100,-0.245
1574944577.828858,32434.333,5179,3,AZ,1,100,-0.241
1574944577.866512,32466.000,5179,3,AZ,1,100,-0.231
1574944577.906147,32499.333,5197,3,AZ,1,100,-0.235
1574944577.945782,32532.667,5197,3,AZ,1,100,-0.232
1574944577.985417,32566.000,5197,3,AZ,1,100,-0.247
1574944578.027034,32601.000,5215,3,AZ,1,100,-0.245
1574944578.068651,32636.000,5215,3,AZ,1,100,-0.236
1574944578.110268,32671.000,5215,3,AZ,1,100,-0.245
1574944578.151886,32706.000,5232,3,AZ,1,100,-0.243
1574944578.193502,32741.000,5232,3,AZ,1,100,-0.240
1574944578.235119,32776.000,5232,3,AZ,1,100,-0.238
1574944578.275548,32810.000,5250,3,AZ,1,100,-0.233
1574944578.315975,32844.000,5250,3,AZ,1,100,-0.239
1574944578.356403,32878.000,5250,3,AZ,1,100,-0.252
1574944578.397624,32912.667,5268,3,AZ,1,100,-0.259
1574944578.438845,32947.333,5268,3,AZ,1,100,-0.253
1574944578.480065,32982.000,5268,3,AZ,1,100,-0.240
1574944578.518908,33014.667,5284,3,AZ,1,100,-0.227
1574944578.557750,33047.333,5284,3,AZ,1,100,-0.240
1574944578.596593,33080.000,5284,3,AZ,1,100,-0.239
1574944578.636625,33113.667,5302,3,AZ,1,100,-0.239
1574944578.676656,33147.333,5302,3,AZ,1,100,-0.245
1574944578.716688,33181.000,5302,3,AZ,1,100,-0.237
1574944578.757908,33215.667,5321,3,AZ,1,100,-0.238
1574944578.799129,33250.333,5321,3,AZ,1,100,-0.244
1574944578.840350,33285.000,5321,3,AZ,1,100,-0.240
1574944578.879985,33318.333,5339,3,AZ,1,100,-0.248
1574944578.919620,33351.667,5339,3,AZ,1,100,-0.249
1574944578.959255,33385.000,5339,3,AZ,1,100,-0.240
1574944578.997702,33417.333,5357,3,AZ,1,100,-0.241
1574944579.036148,33449.667,5357,3,AZ,1,100,-0.240
1574944579.074594,33482.000,5357,3,AZ,1,100,-0.242
1574944579.113040,33514.333,5375,3,AZ,1,100,-0.248
1574944579.151486,33546.667,5375,3,AZ,1,100,-0.254
1574944579.189933,33579.000,5375,3,AZ,1,100,-0.253
1574944579.235117,33617.000,5393,3,AZ,1,100,-0.244
1574944579.280301,33655.000,5393,3,AZ,1,100,-0.237
1574944579.325485,33693.000,5393,3,AZ,1,100,-0.245
1574944579.366508,33727.500,5410,2,AZ,1,100,-0.248
1574944579.407530,33762.000,5410,2,AZ,1,100,-0.245
1574944579.449147,33797.000,5428,3,AZ,1,100,-0.241
1574944579.490764,33832.000,5428,3,AZ,1,100,-0.259
1574944579.532381,33867.000,5428,3,AZ,1,100,-0.245
1574944579.570134,33898.750,5446,4,AZ,1,100,-0.246
1574944579.607886,33930.500,5446,4,AZ,1,100,-0.258
1574944579.645639,33962.250,5446,4,AZ,1,100,-0.231
1574944579.683392,33994.000,5446,4,AZ,1,100,-0.244
1574944579.722631,34027.000,5465,3,AZ,1,100,-0.232
1574944579.761869,34060.000,5465,3,AZ,1,100,-0.242
1574944579.801108,34093.000,5465,3,AZ,1,100,-0.243
1574944579.841933,34127.333,5481,3,AZ,1,100,-0.243
1574944579.882757,34161.667,5481,3,AZ,1,100,-0.256
1574944579.923581,34196.000,5481,3,AZ,1,100,-0.251
1574944579.964802,34230.667,5499,3,AZ,1,100,-0.250
1574944580.006022,34265.333,5499,3,AZ,1,100,-0.242
1574944580.047243,34300.000,5499,3,AZ,1,100,-0.247
1574944580.094211,34339.500,5517,2,AZ,1,100,-0.250
1574944580.141179,34379.000,5517,2,AZ,1,100,-0.241
1574944580.178832,34410.667,5535,3,AZ,1,100,-0.245
1574944580.216486,34442.333,5535,3,AZ,1,100,-0.255
1574944580.254139,34474.000,5535,3,AZ,1,100,-0.251
1574944580.292783,34506.500,5553,4,AZ,1,100,-0.254
1574944580.331428,34539.000,5553,4,AZ,1,100,-0.254
1574944580.370072,34571.500,5553,4,AZ,1,100,-0.251
1574944580.408717,34604.000,5553,4,AZ,1,100,-0.248
1574944580.449739,34638.500,5571,2,AZ,1,100,-0.252
1574944580.490762,34673.000,5571,2,AZ,1,100,-0.250
1574944580.531982,34707.667,5589,3,AZ,1,100,-0.258
1574944580.573203,34742.333,5589,3,AZ,1,100,-0.259
1574944580.614424,34777.000,5589,3,AZ,1,100,-0.248
1574944580.655644,34811.667,5607,3,AZ,1,100,-0.259
1574944580.696865,34846.333,5607,3,AZ,1,100,-0.254
1574944580.738086,34881.000,5607,3,AZ,1,100,-0.190
1574944580.776135,34913.000,5625,3,AZ,1,100,-0.267
1574944580.814185,34945.000,5625,3,AZ,1,100,-0.313
1574944580.852235,34977.000,5625,3,AZ,1,100,-0.276
1574944580.893456,35011.667,5643,3,AZ,1,100,-0.266
1574944580.934676,35046.333,5643,3,AZ,1,100,-0.250
1574944580.975897,35081.000,5643,3,AZ,1,100,-0.235
1574944581.015850,35114.600,5664,5,AZ,1,100,-0.256
1574944581.055802,35148.200,5664,5,AZ,1,100,-0.265
1574944581.095754,35181.800,5664,5,AZ,1,100,-0.262
1574944581.135706,35215.400,5664,5,AZ,1,100,-0.274
1574944581.175659,35249.000,5664,5,AZ,1,100,-0.259
1574944581.216880,35283.667,5683,3,AZ,1,100,-0.261
1574944581.258100,35318.333,5683,3,AZ,1,100,-0.268
1574944581.299321,35353.000,5683,3,AZ,1,100,-0.258
1574944581.340938,35388.000,5701,3,AZ,1,100,-0.258
1574944581.382555,35423.000,5701,3,AZ,1,100,-0.273
1574944581.424172,35458.000,5701,3,AZ,1,100,-0.255
1574944581.462618,35490.333,5719,3,AZ,1,100,-0.272
1574944581.501064,35522.667,5719,3,AZ,1,100,-0.268
1574944581.539510,35555.000,5719,3,AZ,1,100,-0.257
1574944581.578353,35587.667,5737,3,AZ,1,100,-0.255
1574944581.617196,35620.333,5737,3,AZ,1,100,-0.266
1574944581.656038,35653.000,5737,3,AZ,1,100,-0.272
1574944581.697259,35687.667,5754,3,AZ,1,100,-0.267
1574944581.738479,35722.333,5754,3,AZ,1,100,-0.277
1574944581.779700,35757.000,5754,3,AZ,1,100,-0.269
1574944581.818543,35789.667,5772,3,AZ,1,100,-0.269
1574944581.857385,35822.333,5772,3,AZ,1,100,-0.266
1574944581.896228,35855.000,5772,3,AZ,1,100,-0.270
1574944581.941412,35893.000,5790,3,AZ,1,100,-0.291
1574944581.986596,35931.000,5790,3,AZ,1,100,-0.281
1574944582.031780,35969.000,5790,3,AZ,1,100,-0.280
1574944582.068641,36000.000,5808,3,AZ,1,100,-0.292
1574944582.105502,36031.000,5808,3,AZ,1,100,-0.280
1574944582.142363,36062.000,5808,3,AZ,1,100,-0.277
1574944582.187547,36100.000,5826,3,AZ,1,100,-0.277
1574944582.232731,36138.000,5826,3,AZ,1,100,-0.295
1574944582.277915,36176.000,5826,3,AZ,1,100,-0.329
1574944582.315172,36207.333,5844,3,AZ,1,100,-0.329
1574944582.352429,36238.667,5844,3,AZ,1,100,-0.264
1574944582.389687,36270.000,5844,3,AZ,1,100,-0.252
1574944582.428529,36302.667,5862,3,AZ,1,100,-0.286
1574944582.467372,36335.333,5862,3,AZ,1,100,-0.295
1574944582.506214,36368.000,5862,3,AZ,1,100,-0.271
1574944582.547435,36402.667,5879,3,AZ,1,100,-0.281
1574944582.588656,36437.333,5879,3,AZ,1,100,-0.287
1574944582.629876,36472.000,5879,3,AZ,1,100,-0.288
1574944582.669908,36505.667,5898,3,AZ,1,100,-0.295
1574944582.709939,36539.333,5898,3,AZ,1,100,-0.314
1574944582.749971,36573.000,5898,3,AZ,1,100,-0.319
1574944582.792183,36608.500,5914,2,AZ,1,100,-0.294
1574944582.834394,36644.000,5914,2,AZ,1,100,-0.323
1574944582.875714,36678.750,5932,4,AZ,1,100,-0.316
1574944582.917034,36713.500,5932,4,AZ,1,100,-0.311
1574944582.958354,36748.250,5932,4,AZ,1,100,-0.318
1574944582.999673,36783.000,5932,4,AZ,1,100,-0.328
1574944583.038516,36815.667,5950,3,AZ,1,100,-0.318
1574944583.077358,36848.333,5950,3,AZ,1,100,-0.314
1574944583.116201,36881.000,5950,3,AZ,1,100,-0.331
1574944583.156034,36914.500,5968,2,AZ,1,100,-0.325
1574944583.195868,36948.000,5968,2,AZ,1,100,-0.319
1574944583.237187,36982.750,5986,4,AZ,1,100,-0.328
1574944583.278507,37017.500,5986,4,AZ,1,100,-0.332
1574944583.319827,37052.250,5986,4,AZ,1,100,-0.325
1574944583.361147,37087.000,5986,4,AZ,1,100,-0.324
1574944583.403358,37122.500,6004,2,AZ,1,100,-0.334
1574944583.445570,37158.000,6004,2,AZ,1,100,-0.336
1574944583.484412,37190.667,6022,3,AZ,1,100,-0.339
1574944583.523255,37223.333,6022,3,AZ,1,100,-0.331
1574944583.562097,37256.000,6022,3,AZ,1,100,-0.337
1574944583.600147,37288.000,6040,3,AZ,1,100,-0.341
1574944583.638197,37320.000,6040,3,AZ,1,100,-0.340
1574944583.676247,37352.000,6040,3,AZ,1,100,-0.332
1574944583.720242,37389.000,6058,3,AZ,1,100,-0.321
1574944583.764237,37426.000,6058,3,AZ,1,100,-0.337
1574944583.808232,37463.000,6058,3,AZ,1,100,-0.331
1574944583.849849,37498.000,6076,3,AZ,1,100,-0.328
1574944583.891466,37533.000,6076,3,AZ,1,100,-0.334
1574944583.933083,37568.000,6076,3,AZ,1,100,-0.327
1574944583.973908,37602.333,6094,3,AZ,1,100,-0.321
1574944584.014732,37636.667,6094,3,AZ,1,100,-0.334
1574944584.055556,37671.000,6094,3,AZ,1,100,-0.328
1574944584.094399,37703.667,6110,3,AZ,1,100,-0.329
1574944584.133241,37736.333,6110,3,AZ,1,100,-0.361
1574944584.172084,37769.000,6110,3,AZ,1,100,-0.366
1574944584.209738,37800.667,6128,3,AZ,1,100,-0.369
1574944584.247391,37832.333,6128,3,AZ,1,100,-0.322
1574944584.285044,37864.000,6128,3,AZ,1,100,-0.308
1574944584.324680,37897.333,6146,3,AZ,1,100,-0.326
1574944584.364315,37930.667,6146,3,AZ,1,100,-0.322
1574944584.403950,37964.000,6146,3,AZ,1,100,-0.322
1574944584.449531,38002.333,6164,3,AZ,1,100,-0.340
1574944584.495111,38040.667,6164,3,AZ,1,100,-0.352
1574944584.540692,38079.000,6164,3,AZ,1,100,-0.350
1574944584.577949,38110.333,6182,3,AZ,1,100,-0.348
1574944584.615206,38141.667,6182,3,AZ,1,100,-0.347
1574944584.652463,38173.000,6182,3,AZ,1,100,-0.339
1574944584.694080,38208.000,6201,3,AZ,1,100,-0.365
1574944584.735697,38243.000,6201,3,AZ,1,100,-0.331
1574944584.777314,38278.000,6201,3,AZ,1,100,-0.301
1574944584.822102,38315.667,6219,3,AZ,1,100,-0.302
1574944584.866890,38353.333,6219,3,AZ,1,100,-0.336
1574944584.911678,38391.000,6219,3,AZ,1,100,-0.346
1574944584.950917,38424.000,6236,3,AZ,1,100,-0.324
1574944584.990155,38457.000,6236,3,AZ,1,100,-0.322
1574944585.029394,38490.000,6236,3,AZ,1,100,-0.331
1574944585.068237,38522.667,6254,3,AZ,1,100,-0.328
1574944585.107080,38555.333,6254,3,AZ,1,100,-0.335
1574944585.145922,38588.000,6254,3,AZ,1,100,-0.346
1574944585.185954,38621.667,6272,3,AZ,1,100,-0.327
1574944585.225985,38655.333,6272,3,AZ,1,100,-0.312
1574944585.266017,38689.000,6272,3,AZ,1,100,-0.327
1574944585.306841,38723.333,6288,3,AZ,1,100,-0.346
1574944585.347666,38757.667,6288,3,AZ,1,100,-0.336
1574944585.388490,38792.000,6288,3,AZ,1,100,-0.333
1574944585.428918,38826.000,6306,3,AZ,1,100,-0.336
1574944585.469346,38860.000,6306,3,AZ,1,100,-0.326
1574944585.509774,38894.000,6306,3,AZ,1,100,-0.331
1574944585.550994,38928.667,6324,3,AZ,1,100,-0.309
1574944585.592215,38963.333,6324,3,AZ,1,100,-0.345
1574944585.633436,38998.000,6324,3,AZ,1,100,-0.369
1574944585.674656,39032.667,6342,3,AZ,1,100,-0.344
1574944585.715877,39067.333,6342,3,AZ,1,100,-0.335
1574944585.757098,39102.000,6342,3,AZ,1,100,-0.352
1574944585.795940,39134.667,6361,3,AZ,1,100,-0.331
1574944585.834783,39167.333,6361,3,AZ,1,100,-0.325
1574944585.873625,39200.000,6361,3,AZ,1,100,-0.327
1574944585.915242,39235.000,6379,3,AZ,1,100,-0.300
1574944585.956859,39270.000,6379,3,AZ,1,100,-0.323
1574944585.998477,39305.000,6379,3,AZ,1,100,-0.320
1574944586.038112,39338.333,6397,3,AZ,1,100,-0.339
1574944586.077747,39371.667,6397,3,AZ,1,100,-0.338
1574944586.117382,39405.000,6397,3,AZ,1,100,-0.336
1574944586.158405,39439.500,6414,2,AZ,1,100,-0.331
1574944586.199427,39474.000,6414,2,AZ,1,100,-0.324
1574944586.240152,39508.250,6432,4,AZ,1,100,-0.329
1574944586.280878,39542.500,6432,4,AZ,1,100,-0.334
1574944586.321603,39576.750,6432,4,AZ,1,100,-0.332
1574944586.362328,39611.000,6432,4,AZ,1,100,-0.348
1574944586.403945,39646.000,6448,2,AZ,1,100,-0.335
1574944586.445562,39681.000,6448,2,AZ,1,100,-0.332
1574944586.483612,39713.000,6466,4,AZ,1,100,-0.348
1574944586.521662,39745.000,6466,4,AZ,1,100,-0.354
1574944586.559712,39777.000,6466,4,AZ,1,100,-0.333
1574944586.597761,39809.000,6466,4,AZ,1,100,-0.342
1574944586.637000,39842.000,6484,3,AZ,1,100,-0.340
1574944586.676239,39875.000,6484,3,AZ,1,100,-0.335
1574944586.715478,39908.000,6484,3,AZ,1,100,-0.333
1574944586.762446,39947.500,6503,2,AZ,1,100,-0.358
1574944586.809414,39987.000,6503,2,AZ,1,100,-0.334
1574944586.851031,40022.000,6521,3,AZ,1,100,-0.350
1574944586.892648,40057.000,6521,3,AZ,1,100,-0.326
1574944586.934265,40092.000,6521,3,AZ,1,100,-0.372
1574944586.975882,40127.000,6539,3,AZ,1,100,-0.333
1574944587.017499,40162.000,6539,3,AZ,1,100,-0.329
1574944587.059116,40197.000,6539,3,AZ,1,100,-0.324
1574944587.096928,40228.800,6560,5,AZ,1,100,-0.355
1574944587.134740,40260.600,6560,5,AZ,1,100,-0.346
1574944587.172552,40292.400,6560,5,AZ,1,100,-0.341
1574944587.210364,40324.200,6560,5,AZ,1,100,-0.334
1574944587.248176,40356.000,6560,5,AZ,1,100,-0.345
1574944587.288604,40390.000,6578,3,AZ,1,100,-0.338
1574944587.329032,40424.000,6578,3,AZ,1,100,-0.354
1574944587.369460,40458.000,6578,3,AZ,1,100,-0.366
1574944587.411077,40493.000,6598,3,AZ,1,100,-0.350
1574944587.452694,40528.000,6598,3,AZ,1,100,-0.345
1574944587.494311,40563.000,6598,3,AZ,1,100,-0.355
1574944587.535928,40598.000,6616,3,AZ,1,100,-0.346
1574944587.577545,40633.000,6616,3,AZ,1,100,-0.353
1574944587.619162,40668.000,6616,3,AZ,1,100,-0.356
1574944587.661572,40703.667,6634,3,AZ,1,100,-0.335
1574944587.703981,40739.333,6634,3,AZ,1,100,-0.353
1574944587.746391,40775.000,6634,3,AZ,1,100,-0.362
1574944587.783252,40806.000,6653,3,AZ,1,100,-0.341
1574944587.820113,40837.000,6653,3,AZ,1,100,-0.347
1574944587.856973,40868.000,6653,3,AZ,1,100,-0.349
1574944587.898194,40902.667,6671,3,AZ,1,100,-0.350
1574944587.939415,40937.333,6671,3,AZ,1,100,-0.340
1574944587.980635,40972.000,6671,3,AZ,1,100,-0.349
1574944588.021460,41006.333,6688,3,AZ,1,100,-0.346
1574944588.062284,41040.667,6688,3,AZ,1,100,-0.334
1574944588.103108,41075.000,6688,3,AZ,1,100,-0.350
1574944588.143933,41109.333,6706,3,AZ,1,100,-0.350
1574944588.184757,41143.667,6706,3,AZ,1,100,-0.336
1574944588.225581,41178.000,6706,3,AZ,1,100,-0.343
1574944588.264820,41211.000,6722,3,AZ,1,100,-0.337
1574944588.304059,41244.000,6722,3,AZ,1,100,-0.337
1574944588.343298,41277.000,6722,3,AZ,1,100,-0.344
1574944588.383726,41311.000,6740,3,AZ,1,100,-0.342
1574944588.424154,41345.000,6740,3,AZ,1,100,-0.339
1574944588.464582,41379.000,6740,3,AZ,1,100,-0.321
1574944588.501839,41410.333,6758,3,AZ,1,100,-0.281
1574944588.539096,41441.667,6758,3,AZ,1,100,-0.528
1574944588.576353,41473.000,6758,3,AZ,1,100,-0.400
1574944588.614007,41504.667,6776,3,AZ,1,100,-0.300
1574944588.651660,41536.333,6776,3,AZ,1,100,-0.278
1574944588.689314,41568.000,6776,3,AZ,1,100,-0.347
1574944588.734102,41605.667,6795,3,AZ,1,100,-0.375
1574944588.778889,41643.333,6795,3,AZ,1,100,-0.347
1574944588.823677,41681.000,6795,3,AZ,1,100,-0.353
1574944588.864898,41715.667,6813,3,AZ,1,100,-0.359
1574944588.906119,41750.333,6813,3,AZ,1,100,-0.326
1574944588.947339,41785.000,6813,3,AZ,1,100,-0.341
1574944588.987767,41819.000,6831,3,AZ,1,100,-0.364
1574944589.028195,41853.000,6831,3,AZ,1,100,-0.356
1574944589.068623,41887.000,6831,3,AZ,1,100,-0.343
1574944589.109447,41921.333,6849,3,AZ,1,100,-0.351
1574944589.150272,41955.667,6849,3,AZ,1,100,-0.360
1574944589.191096,41990.000,6849,3,AZ,1,100,-0.351
1574944589.232713,42025.000,6866,2,AZ,1,100,-0.353
1574944589.274330,42060.000,6866,2,AZ,1,100,-0.360
1574944589.313569,42093.000,6884,4,AZ,1,100,-0.351
1574944589.352808,42126.000,6884,4,AZ,1,100,-0.343
1574944589.392047,42159.000,6884,4,AZ,1,100,-0.351
1574944589.431286,42192.000,6884,4,AZ,1,100,-0.355
1574944589.470128,42224.667,6902,3,AZ,1,100,-0.356
1574944589.508971,42257.333,6902,3,AZ,1,100,-0.350
1574944589.547813,42290.000,6902,3,AZ,1,100,-0.366
1574944589.587449,42323.333,6918,3,AZ,1,100,-0.352
1574944589.627084,42356.667,6918,3,AZ,1,100,-0.352
1574944589.666719,42390.000,6918,3,AZ,1,100,-0.350
1574944589.707940,42424.667,6937,3,AZ,1,100,-0.331
1574944589.749160,42459.333,6937,3,AZ,1,100,-0.369
1574944589.790381,42494.000,6937,3,AZ,1,100,-0.369
1574944589.837943,42534.000,6955,2,AZ,1,100,-0.352
1574944589.885506,42574.000,6955,2,AZ,1,100,-0.345
1574944589.925141,42607.333,6973,3,AZ,1,100,-0.342
1574944589.964776,42640.667,6973,3,AZ,1,100,-0.371
1574944590.004411,42674.000,6973,3,AZ,1,100,-0.375
1574944590.042164,42705.750,6991,4,AZ,1,100,-0.357
1574944590.079916,42737.500,6991,4,AZ,1,100,-0.336
1574944590.117669,42769.250,6991,4,AZ,1,100,-0.350
1574944590.155422,42801.000,6991,4,AZ,1,100,-0.379
1574944590.195453,42834.667,7009,3,AZ,1,100,-0.370
1574944590.235485,42868.333,7009,3,AZ,1,100,-0.344
1574944590.275517,42902.000,7009,3,AZ,1,100,-0.355
1574944590.315944,42936.000,7027,2,AZ,1,100,-0.360
1574944590.356372,42970.000,7027,2,AZ,1,100,-0.346
1574944590.397990,43005.000,7044,3,AZ,1,100,-0.372
1574944590.439606,43040.000,7044,3,AZ,1,100,-0.362
1574944590.481224,43075.000,7044,3,AZ,1,100,-0.349
1574944590.522048,43109.333,7062,3,AZ,1,100,-0.353
1574944590.562872,43143.667,7062,3,AZ,1,100,-0.364
1574944590.603696,43178.000,7062,3,AZ,1,100,-0.370
1574944590.644917,43212.667,7080,3,AZ,1,100,-0.349
1574944590.686138,43247.333,7080,3,AZ,1,100,-0.363
1574944590.727358,43282.000,7080,3,AZ,1,100,-0.371
1574944590.766201,43314.667,7097,3,AZ,1,100,-0.356
1574944590.805043,43347.333,7097,3,AZ,1,100,-0.343
1574944590.843886,43380.000,7097,3,AZ,1,100,-0.346
1574944590.884710,43414.333,7115,3,AZ,1,100,-0.363
1574944590.925535,43448.667,7115,3,AZ,1,100,-0.360
1574944590.966359,43483.000,7115,3,AZ,1,100,-0.334
1574944591.007580,43517.667,7133,3,AZ,1,100,-0.363
1574944591.048800,43552.333,7133,3,AZ,1,100,-0.371
1574944591.090021,43587.000,7133,3,AZ,1,100,-0.351
1574944591.131638,43622.000,7151,3,AZ,1,100,-0.342
1574944591.173255,43657.000,7151,3,AZ,1,100,-0.371
1574944591.214872,43692.000,7151,3,AZ,1,100,-0.365
1574944591.252129,43723.333,7169,3,AZ,1,100,-0.322
1574944591.289386,43754.667,7169,3,AZ,1,100,-0.330
1574944591.326643,43786.000,7169,3,AZ,1,100,-0.367
1574944591.365486,43818.667,7187,3,AZ,1,100,-0.355
1574944591.404329,43851.333,7187,3,AZ,1,100,-0.351
1574944591.443171,43884.000,7187,3,AZ,1,100,-0.348
1574944591.487563,43921.333,7205,3,AZ,1,100,-0.346
1574944591.531954,43958.667,7205,3,AZ,1,100,-0.360
1574944591.576345,43996.000,7205,3,AZ,1,100,-0.351
1574944591.617170,44030.333,7222,3,AZ,1,100,-0.353
1574944591.657994,44064.667,7222,3,AZ,1,100,-0.346
1574944591.698818,44099.000,7222,3,AZ,1,100,-0.355
1574944591.739643,44133.333,7241,3,AZ,1,100,-0.362
1574944591.780467,44167.667,7241,3,AZ,1,100,-0.350
1574944591.821291,44202.000,7241,3,AZ,1,100,-0.345
1574944591.858945,44233.667,7259,3,AZ,1,100,-0.349
1574944591.896598,44265.333,7259,3,AZ,1,100,-0.367
1574944591.934252,44297.000,7259,3,AZ,1,100,-0.352
1574944591.971509,44328.333,7277,3,AZ,1,100,-0.352
1574944592.008766,44359.667,7277,3,AZ,1,100,-0.360
1574944592.046023,44391.000,7277,3,AZ,1,100,-0.359
1574944592.086848,44425.333,7293,3,AZ,1,100,-0.345
1574944592.127672,44459.667,7293,3,AZ,1,100,-0.351
1574944592.168496,44494.000,7293,3,AZ,1,100,-0.362
1574944592.209717,44528.667,7311,3,AZ,1,100,-0.352
1574944592.250937,44563.333,7311,3,AZ,1,100,-0.356
1574944592.292158,44598.000,7311,3,AZ,1,100,-0.357
1574944592.337342,44636.000,7329,3,AZ,1,100,-0.358
1574944592.382527,44674.000,7329,3,AZ,1,100,-0.354
1574944592.427711,44712.000,7329,3,AZ,1,100,-0.353
1574944592.465364,44743.667,7347,3,AZ,1,100,-0.364
1574944592.503018,44775.333,7347,3,AZ,1,100,-0.376
1574944592.540671,44807.000,7347,3,AZ,1,100,-0.355
1574944592.582288,44842.000,7365,3,AZ,1,100,-0.359
1574944592.623905,44877.000,7365,3,AZ,1,100,-0.369
1574944592.665522,44912.000,7365,3,AZ,1,100,-0.354
1574944592.701590,44942.333,7384,3,AZ,1,100,-0.357
1574944592.737659,44972.667,7384,3,AZ,1,100,-0.354
1574944592.773726,45003.000,7384,3,AZ,1,100,-0.354
1574944592.812965,45036.000,7402,3,AZ,1,100,-0.384
1574944592.852204,45069.000,7402,3,AZ,1,100,-0.377
1574944592.891443,45102.000,7402,3,AZ,1,100,-0.348
1574944592.932267,45136.333,7419,3,AZ,1,100,-0.343
1574944592.973092,45170.667,7419,3,AZ,1,100,-0.378
1574944593.013916,45205.000,7419,3,AZ,1,100,-0.381
1574944593.053948,45238.667,7437,3,AZ,1,100,-0.364
1574944593.093979,45272.333,7437,3,AZ,1,100,-0.351
1574944593.134011,45306.000,7437,3,AZ,1,100,-0.348
1574944593.174915,45340.400,7458,5,AZ,1,100,-0.378
1574944593.215818,45374.800,7458,5,AZ,1,100,-0.380
1574944593.256722,45409.200,7458,5,AZ,1,100,-0.359
1574944593.297625,45443.600,7458,5,AZ,1,100,-0.346
1574944593.338529,45478.000,7458,5,AZ,1,100,-0.349
1574944593.380542,45513.333,7478,3,AZ,1,100,-0.375
1574944593.422556,45548.667,7478,3,AZ,1,100,-0.399
1574944593.464569,45584.000,7478,3,AZ,1,100,-0.373
1574944593.502619,45616.000,7496,3,AZ,1,100,-0.339
1574944593.540669,45648.000,7496,3,AZ,1,100,-0.378
1574944593.578718,45680.000,7496,3,AZ,1,100,-0.375
1574944593.617165,45712.333,7514,3,AZ,1,100,-0.367
1574944593.655611,45744.667,7514,3,AZ,1,100,-0.384
1574944593.694057,45777.000,7514,3,AZ,1,100,-0.349
1574944593.739836,45815.500,7532,2,AZ,1,100,-0.358
1574944593.785614,45854.000,7532,2,AZ,1,100,-0.395
1574944593.826042,45888.000,7550,4,AZ,1,100,-0.364
1574944593.866470,45922.000,7550,4,AZ,1,100,-0.371
1574944593.906898,45956.000,7550,4,AZ,1,100,-0.362
1574944593.947326,45990.000,7550,4,AZ,1,100,-0.367
1574944593.988943,46025.000,7566,2,AZ,1,100,-0.373
1574944594.030560,46060.000,7566,2,AZ,1,100,-0.372
1574944594.069799,46093.000,7584,3,AZ,1,100,-0.363
1574944594.109038,46126.000,7584,3,AZ,1,100,-0.396
1574944594.148277,46159.000,7584,3,AZ,1,100,-0.367
1574944594.186327,46191.000,7602,4,AZ,1,100,-0.344
1574944594.224377,46223.000,7602,4,AZ,1,100,-0.370
1574944594.262427,46255.000,7602,4,AZ,1,100,-0.390
1574944594.300476,46287.000,7602,4,AZ,1,100,-0.384
1574944594.340508,46320.667,7620,3,AZ,1,100,-0.363
1574944594.380540,46354.333,7620,3,AZ,1,100,-0.367
1574944594.420571,46388.000,7620,3,AZ,1,100,-0.376
1574944594.460999,46422.000,7638,3,AZ,1,100,-0.376
1574944594.501427,46456.000,7638,3,AZ,1,100,-0.374
1574944594.541855,46490.000,7638,3,AZ,1,100,-0.360
1574944594.589417,46530.000,7656,2,AZ,1,100,-0.364
1574944594.636980,46570.000,7656,2,AZ,1,100,-0.377
1574944594.677011,46603.667,7675,3,AZ,1,100,-0.371
1574944594.717043,46637.333,7675,3,AZ,1,100,-0.360
1574944594.757075,46671.000,7675,3,AZ,1,100,-0.371
1574944594.795124,46703.000,7693,3,AZ,1,100,-0.368
1574944594.833174,46735.000,7693,3,AZ,1,100,-0.384
1574944594.871224,46767.000,7693,3,AZ,1,100,-0.376
1574944594.910463,46800.000,7710,3,AZ,1,100,-0.361
1574944594.949702,46833.000,7710,3,AZ,1,100,-0.372
1574944594.988941,46866.000,7710,3,AZ,1,100,-0.376
1574944595.030161,46900.667,7728,3,AZ,1,100,-0.370
1574944595.071382,46935.333,7728,3,AZ,1,100,-0.370
1574944595.112603,46970.000,7728,3,AZ,1,100,-0.351
1574944595.153823,47004.667,7744,3,AZ,1,100,-0.374
1574944595.195044,47039.333,7744,3,AZ,1,100,-0.382
1574944595.236265,47074.000,7744,3,AZ,1,100,-0.379
1574944595.277089,47108.333,7762,3,AZ,1,100,-0.353
1574944595.317913,47142.667,7762,3,AZ,1,100,-0.354
1574944595.358738,47177.000,7762,3,AZ,1,100,-0.382
1574944595.399958,47211.667,7780,3,AZ,1,100,-0.385
1574944595.441179,47246.333,7780,3,AZ,1,100,-0.357
1574944595.482400,47281.000,7780,3,AZ,1,100,-0.344
1574944595.520846,47313.333,7798,3,AZ,1,100,-0.367
1574944595.559292,47345.667,7798,3,AZ,1,100,-0.385
1574944595.597738,47378.000,7798,3,AZ,1,100,-0.393
1574944595.638563,47412.333,7817,3,AZ,1,100,-0.335
1574944595.679387,47446.667,7817,3,AZ,1,100,-0.342
1574944595.720211,47481.000,7817,3,AZ,1,100,-0.386
1574944595.761035,47515.333,7835,3,AZ,1,100,-0.387
1574944595.801860,47549.667,7835,3,AZ,1,100,-0.356
1574944595.842684,47584.000,7835,3,AZ,1,100,-0.339
1574944595.884301,47619.000,7853,3,AZ,1,100,-0.358
1574944595.925918,47654.000,7853,3,AZ,1,100,-0.392
1574944595.967535,47689.000,7853,3,AZ,1,100,-0.392
1574944596.004792,47720.333,7871,3,AZ,1,100,-0.363
1574944596.042049,47751.667,7871,3,AZ,1,100,-0.352
1574944596.079307,47783.000,7871,3,AZ,1,100,-0.368
1574944596.117753,47815.333,7889,3,AZ,1,100,-0.389
1574944596.156199,47847.667,7889,3,AZ,1,100,-0.392
1574944596.194645,47880.000,7889,3,AZ,1,100,-0.361
1574944596.239433,47917.667,7906,3,AZ,1,100,-0.362
1574944596.284221,47955.333,7906,3,AZ,1,100,-0.367
1574944596.329009,47993.000,7906,3,AZ,1,100,-0.376
1574944596.364680,48023.000,7924,3,AZ,1,100,-0.379
1574944596.400352,48053.000,7924,3,AZ,1,100,-0.357
1574944596.436024,48083.000,7924,3,AZ,1,100,-0.372
1574944596.481208,48121.000,7940,3,AZ,1,100,-0.374
1574944596.526392,48159.000,7940,3,AZ,1,100,-0.373
1574944596.571576,48197.000,7940,3,AZ,1,100,-0.376
1574944596.612797,48231.667,7958,3,AZ,1,100,-0.372
1574944596.654018,48266.333,7958,3,AZ,1,100,-0.369
1574944596.695238,48301.000,7958,3,AZ,1,100,-0.376
1574944596.733288,48333.000,7977,3,AZ,1,100,-0.382
1574944596.771338,48365.000,7977,3,AZ,1,100,-0.387
1574944596.809388,48397.000,7977,3,AZ,1,100,-0.363
1574944596.854176,48434.667,7995,3,AZ,1,100,-0.369
1574944596.898964,48472.333,7995,3,AZ,1,100,-0.388
1574944596.943751,48510.000,7995,3,AZ,1,100,-0.385
1574944596.983783,48543.667,8013,3,AZ,1,100,-0.376
1574944597.023815,48577.333,8013,3,AZ,1,100,-0.375
1574944597.063846,48611.000,8013,3,AZ,1,100,-0.376
1574944597.101896,48643.000,8031,3,AZ,1,100,-0.372
1574944597.139946,48675.000,8031,3,AZ,1,100,-0.380
1574944597.177996,48707.000,8031,3,AZ,1,100,-0.382
1574944597.217235,48740.000,8049,3,AZ,1,100,-0.365
1574944597.256474,48773.000,8049,3,AZ,1,100,-0.369
1574944597.295712,48806.000,8049,3,AZ,1,100,-0.387
1574944597.336933,48840.667,8066,3,AZ,1,100,-0.369
1574944597.378154,48875.333,8066,3,AZ,1,100,-0.367
1574944597.419374,48910.000,8066,3,AZ,1,100,-0.374
1574944597.460991,48945.000,8084,3,AZ,1,100,-0.381
1574944597.502609,48980.000,8084,3,AZ,1,100,-0.373
1574944597.544225,49015.000,8084,3,AZ,1,100,-0.368
1574944597.585843,49050.000,8100,3,AZ,1,100,-0.383
1574944597.627460,49085.000,8100,3,AZ,1,100,-0.375
1574944597.669076,49120.000,8100,3,AZ,1,100,-0.371
1574944597.710694,49155.000,8119,2,AZ,1,100,-0.382
1574944597.752311,49190.000,8119,2,AZ,1,100,-0.375
1574944597.793531,49224.667,8137,3,AZ,1,100,-0.376
1574944597.834752,49259.333,8137,3,AZ,1,100,-0.389
1574944597.875973,49294.000,8137,3,AZ,1,100,-0.376
1574944597.917193,49328.667,8155,3,AZ,1,100,-0.366
1574944597.958414,49363.333,8155,3,AZ,1,100,-0.382
1574944597.999635,49398.000,8155,3,AZ,1,100,-0.378
1574944598.038477,49430.667,8173,3,AZ,1,100,-0.389
1574944598.077320,49463.333,8173,3,AZ,1,100,-0.365
1574944598.116162,49496.000,8173,3,AZ,1,100,-0.369
1574944598.157383,49530.667,8191,3,AZ,1,100,-0.378
1574944598.198604,49565.333,8191,3,AZ,1,100,-0.382
1574944598.239824,49600.000,8191,3,AZ,1,100,-0.382
1574944598.279856,49633.667,8209,3,AZ,1,100,-0.377
1574944598.319887,49667.333,8209,3,AZ,1,100,-0.364
1574944598.359919,49701.000,8209,3,AZ,1,100,-0.375
1574944598.401932,49736.333,8226,3,AZ,1,100,-0.391
1574944598.443946,49771.667,8226,3,AZ,1,100,-0.376
1574944598.485959,49807.000,8226,3,AZ,1,100,-0.366
1574944598.523216,49838.333,8244,3,AZ,1,100,-0.378
1574944598.560473,49869.667,8244,3,AZ,1,100,-0.384
1574944598.597731,49901.000,8244,3,AZ,1,100,-0.378
1574944598.636375,49933.500,8262,4,AZ,1,100,-0.369
1574944598.675019,49966.000,8262,4,AZ,1,100,-0.379
1574944598.713664,49998.500,8262,4,AZ,1,100,-0.376
1574944598.752308,50031.000,8262,4,AZ,1,100,-0.390
1574944598.799276,50070.500,8279,2,AZ,1,100,-0.376
1574944598.846244,50110.000,8279,2,AZ,1,100,-0.362
1574944598.887068,50144.333,8297,3,AZ,1,100,-0.379
1574944598.927892,50178.667,8297,3,AZ,1,100,-0.379
1574944598.968716,50213.000,8297,3,AZ,1,100,-0.381
1574944599.009937,50247.667,8315,3,AZ,1,100,-0.389
1574944599.051158,50282.333,8315,3,AZ,1,100,-0.367
1574944599.092378,50317.000,8315,3,AZ,1,100,-0.386
1574944599.130428,50349.000,8333,3,AZ,1,100,-0.386
1574944599.168478,50381.000,8333,3,AZ,1,100,-0.361
1574944599.206528,50413.000,8333,3,AZ,1,100,-0.382
1574944599.245767,50446.000,8352,5,AZ,1,100,-0.384
1574944599.285006,50479.000,8352,5,AZ,1,100,-0.369
1574944599.324245,50512.000,8352,5,AZ,1,100,-0.378
1574944599.363484,50545.000,8352,5,AZ,1,100,-0.383
1574944599.402723,50578.000,8352,5,AZ,1,100,-0.374
1574944599.443943,50612.667,8372,3,AZ,1,100,-0.378
1574944599.485164,50647.333,8372,3,AZ,1,100,-0.381
1574944599.526385,50682.000,8372,3,AZ,1,100,-0.371
1574944599.567605,50716.667,8390,3,AZ,1,100,-0.375
1574944599.608826,50751.333,8390,3,AZ,1,100,-0.385
1574944599.650047,50786.000,8390,3,AZ,1,100,-0.386
1574944599.692456,50821.667,8409,3,AZ,1,100,-0.384
1574944599.734866,50857.333,8409,3,AZ,1,100,-0.369
1574944599.777276,50893.000,8409,3,AZ,1,100,-0.374
1574944599.814929,50924.667,8427,3,AZ,1,100,-0.382
1574944599.852583,50956.333,8427,3,AZ,1,100,-0.379
1574944599.890236,50988.000,8427,3,AZ,1,100,-0.378
1574944599.929871,51021.333,8445,3,AZ,1,100,-0.375
1574944599.969507,51054.667,8445,3,AZ,1,100,-0.374
1574944600.009142,51088.000,8445,3,AZ,1,100,-0.377
1574944600.050759,51123.000,8463,3,AZ,1,100,-0.393
1574944600.092376,51158.000,8463,3,AZ,1,100,-0.353
1574944600.133993,51193.000,8463,3,AZ,1,100,-0.361
1574944600.174817,51227.333,8481,3,AZ,1,100,-0.329
1574944600.215641,51261.667,8481,3,AZ,1,100,-0.364
1574944600.256466,51296.000,8481,3,AZ,1,100,-0.375
1574944600.296101,51329.333,8498,3,AZ,1,100,-0.360
1574944600.335736,51362.667,8498,3,AZ,1,100,-0.353
1574944600.375372,51396.000,8498,3,AZ,1,100,-0.358
1574944600.416196,51430.333,8516,3,AZ,1,100,-0.361
1574944600.457020,51464.667,8516,3,AZ,1,100,-0.370
1574944600.497844,51499.000,8516,3,AZ,1,100,-0.382
1574944600.532724,51528.333,8534,3,AZ,1,100,-0.367
1574944600.567603,51557.667,8534,3,AZ,1,100,-0.363
1574944600.602482,51587.000,8534,3,AZ,1,100,-0.367
1574944600.644495,51622.333,8552,3,AZ,1,100,-0.382
1574944600.686508,51657.667,8552,3,AZ,1,100,-0.371
1574944600.728522,51693.000,8552,3,AZ,1,100,-0.370
1574944600.767364,51725.667,8571,3,AZ,1,100,-0.367
1574944600.806207,51758.333,8571,3,AZ,1,100,-0.366
1574944600.845049,51791.000,8571,3,AZ,1,100,-0.378
1574944600.886666,51826.000,8587,3,AZ,1,100,-0.383
1574944600.928283,51861.000,8587,3,AZ,1,100,-0.379
1574944600.969900,51896.000,8587,3,AZ,1,100,-0.366
1574944601.011518,51931.000,8605,3,AZ,1,100,-0.364
1574944601.053134,51966.000,8605,3,AZ,1,100,-0.373
1574944601.094751,52001.000,8605,3,AZ,1,100,-0.383
1574944601.136369,52036.000,8623,3,AZ,1,100,-0.374
1574944601.177985,52071.000,8623,3,AZ,1,100,-0.372
1574944601.219603,52106.000,8623,3,AZ,1,100,-0.362
1574944601.261220,52141.000,8641,2,AZ,1,100,-0.368
1574944601.302836,52176.000,8641,2,AZ,1,100,-0.384
1574944601.342373,52209.250,8659,4,AZ,1,100,-0.372
1574944601.381909,52242.500,8659,4,AZ,1,100,-0.376
1574944601.421445,52275.750,8659,4,AZ,1,100,-0.370
1574944601.460981,52309.000,8659,4,AZ,1,100,-0.371
1574944601.499031,52341.000,8677,3,AZ,1,100,-0.378
1574944601.537081,52373.000,8677,3,AZ,1,100,-0.381
1574944601.575131,52405.000,8677,3,AZ,1,100,-0.376
1574944601.615162,52438.667,8694,3,AZ,1,100,-0.370
1574944601.655194,52472.333,8694,3,AZ,1,100,-0.372
1574944601.695225,52506.000,8694,3,AZ,1,100,-0.373
1574944601.736446,52540.667,8713,3,AZ,1,100,-0.381
1574944601.777667,52575.333,8713,3,AZ,1,100,-0.378
1574944601.818887,52610.000,8713,3,AZ,1,100,-0.375
1574944601.865261,52649.000,8729,2,AZ,1,100,-0.372
1574944601.911634,52688.000,8729,2,AZ,1,100,-0.377
1574944601.952458,52722.333,8747,3,AZ,1,100,-0.378
1574944601.993283,52756.667,8747,3,AZ,1,100,-0.374
1574944602.034107,52791.000,8747,3,AZ,1,100,-0.378
1574944602.071760,52822.667,8765,3,AZ,1,100,-0.373
1574944602.109414,52854.333,8765,3,AZ,1,100,-0.374
1574944602.147067,52886.000,8765,3,AZ,1,100,-0.370
1574944602.186306,52919.000,8783,4,AZ,1,100,-0.375
1574944602.225545,52952.000,8783,4,AZ,1,100,-0.376
1574944602.264784,52985.000,8783,4,AZ,1,100,-0.373
1574944602.304023,53018.000,8783,4,AZ,1,100,-0.370
1574944602.345046,53052.500,8801,2,AZ,1,100,-0.376
1574944602.386068,53087.000,8801,2,AZ,1,100,-0.375
1574944602.426892,53121.333,8819,3,AZ,1,100,-0.376
1574944602.467717,53155.667,8819,3,AZ,1,100,-0.372
1574944602.508541,53190.000,8819,3,AZ,1,100,-0.371
1574944602.550158,53225.000,8837,3,AZ,1,100,-0.374
1574944602.591775,53260.000,8837,3,AZ,1,100,-0.377
1574944602.633392,53295.000,8837,3,AZ,1,100,-0.378
1574944602.674216,53329.333,8856,3,AZ,1,100,-0.374
1574944602.715041,53363.667,8856,3,AZ,1,100,-0.376
1574944602.755865,53398.000,8856,3,AZ,1,100,-0.374
1574944602.794708,53430.667,8874,3,AZ,1,100,-0.373
1574944602.833550,53463.333,8874,3,AZ,1,100,-0.379
1574944602.872392,53496.000,8874,3,AZ,1,100,-0.379
1574944602.913613,53530.667,8891,3,AZ,1,100,-0.371
1574944602.954834,53565.333,8891,3,AZ,1,100,-0.374
1574944602.996054,53600.000,8891,3,AZ,1,100,-0.375
1574944603.037672,53635.000,8907,3,AZ,1,100,-0.374
1574944603.079288,53670.000,8907,3,AZ,1,100,-0.375
1574944603.120906,53705.000,8907,3,AZ,1,100,-0.374
1574944603.162919,53740.333,8925,3,AZ,1,100,-0.374
1574944603.204932,53775.667,8925,3,AZ,1,100,-0.378
1574944603.246946,53811.000,8925,3,AZ,1,100,-0.374
1574944603.283807,53842.000,8943,3,AZ,1,100,-0.371
1574944603.320667,53873.000,8943,3,AZ,1,100,-0.375
1574944603.357528,53904.000,8943,3,AZ,1,100,-0.374
1574944603.395974,53936.333,8961,3,AZ,1,100,-0.371
1574944603.434420,53968.667,8961,3,AZ,1,100,-0.375
1574944603.472867,54001.000,8961,3,AZ,1,100,-0.377
1574944603.518051,54039.000,8979,3,AZ,1,100,-0.375
1574944603.563235,54077.000,8979,3,AZ,1,100,-0.374
1574944603.608419,54115.000,8979,3,AZ,1,100,-0.375
1574944603.650036,54150.000,8997,3,AZ,1,100,-0.379
1574944603.691653,54185.000,8997,3,AZ,1,100,-0.374
1574944603.733270,54220.000,8997,3,AZ,1,100,-0.376
1574944603.774095,54254.333,9016,3,AZ,1,100,-0.380
1574944603.814919,54288.667,9016,3,AZ,1,100,-0.375
1574944603.855743,54323.000,9016,3,AZ,1,100,-0.370
1574944603.893397,54354.667,9034,3,AZ,1,100,-0.375
1574944603.931050,54386.333,9034,3,AZ,1,100,-0.376
1574944603.968704,54418.000,9034,3,AZ,1,100,-0.375
1574944604.006357,54449.667,9052,3,AZ,1,100,-0.376
1574944604.044011,54481.333,9052,3,AZ,1,100,-0.374
1574944604.081664,54513.000,9052,3,AZ,1,100,-0.377
1574944604.121696,54546.667,9069,3,AZ,1,100,-0.375
1574944604.161727,54580.333,9069,3,AZ,1,100,-0.377
1574944604.201759,54614.000,9069,3,AZ,1,100,-0.376
1574944604.242980,54648.667,9087,3,AZ,1,100,-0.377
1574944604.284200,54683.333,9087,3,AZ,1,100,-0.373
1574944604.325421,54718.000,9087,3,AZ,1,100,-0.373
1574944604.370209,54755.667,9103,3,AZ,1,100,-0.376
1574944604.414997,54793.333,9103,3,AZ,1,100,-0.379
1574944604.459785,54831.000,9103,3,AZ,1,100,-0.373
1574944604.496645,54862.000,9121,3,AZ,1,100,-0.371
1574944604.533506,54893.000,9121,3,AZ,1,100,-0.378
1574944604.570367,54924.000,9121,3,AZ,1,100,-0.378
1574944604.617335,54963.500,9139,2,AZ,1,100,-0.373
1574944604.664302,55003.000,9139,2,AZ,1,100,-0.379
1574944604.702352,55035.000,9158,4,AZ,1,100,-0.376
1574944604.740402,55067.000,9158,4,AZ,1,100,-0.377
1574944604.778452,55099.000,9158,4,AZ,1,100,-0.376
1574944604.816502,55131.000,9158,4,AZ,1,100,-0.374
1574944604.858119,55166.000,9176,2,AZ,1,100,-0.376
1574944604.899736,55201.000,9176,2,AZ,1,100,-0.380
1574944604.939866,55234.750,9194,4,AZ,1,100,-0.374
1574944604.979997,55268.500,9194,4,AZ,1,100,-0.374
1574944605.020128,55302.250,9194,4,AZ,1,100,-0.371
1574944605.060258,55336.000,9194,4,AZ,1,100,-0.380
1574944605.099101,55368.667,9212,3,AZ,1,100,-0.376
1574944605.137944,55401.333,9212,3,AZ,1,100,-0.374
1574944605.176786,55434.000,9212,3,AZ,1,100,-0.376
1574944605.217610,55468.333,9229,3,AZ,1,100,-0.380
1574944605.258435,55502.667,9229,3,AZ,1,100,-0.380
1574944605.299259,55537.000,9229,3,AZ,1,100,-0.379
1574944605.340579,55571.750,9250,4,AZ,1,100,-0.376
1574944605.381899,55606.500,9250,4,AZ,1,100,-0.373
1574944605.423218,55641.250,9250,4,AZ,1,100,-0.384
1574944605.464538,55676.000,9250,4,AZ,1,100,-0.380
1574944605.504570,55709.667,9270,3,AZ,1,100,-0.376
1574944605.544601,55743.333,9270,3,AZ,1,100,-0.381
1574944605.584633,55777.000,9270,3,AZ,1,100,-0.381
1574944605.622683,55809.000,9288,3,AZ,1,100,-0.377
1574944605.660733,55841.000,9288,3,AZ,1,100,-0.377
1574944605.698782,55873.000,9288,3,AZ,1,100,-0.374
1574944605.741985,55909.333,9307,3,AZ,1,100,-0.378
1574944605.785187,55945.667,9307,3,AZ,1,100,-0.378
1574944605.828390,55982.000,9307,3,AZ,1,100,-0.371
1574944605.868421,56015.667,9324,3,AZ,1,100,-0.378
1574944605.908453,56049.333,9324,3,AZ,1,100,-0.378
1574944605.948484,56083.000,9324,3,AZ,1,100,-0.373
1574944605.990102,56118.000,9342,3,AZ,1,100,-0.376
1574944606.031718,56153.000,9342,3,AZ,1,100,-0.376
1574944606.073336,56188.000,9342,3,AZ,1,100,-0.373
1574944606.113764,56222.000,9360,3,AZ,1,100,-0.379
1574944606.154191,56256.000,9360,3,AZ,1,100,-0.380
1574944606.194619,56290.000,9360,3,AZ,1,100,-0.379
1574944606.232273,56321.667,9376,3,AZ,1,100,-0.376
1574944606.269926,56353.333,9376,3,AZ,1,100,-0.385
1574944606.307580,56385.000,9376,3,AZ,1,100,-0.379
1574944606.346026,56417.333,9394,3,AZ,1,100,-0.380
1574944606.384472,56449.667,9394,3,AZ,1,100,-0.380
1574944606.422919,56482.000,9394,3,AZ,1,100,-0.385
1574944606.462950,56515.667,9412,3,AZ,1,100,-0.377
1574944606.502982,56549.333,9412,3,AZ,1,100,-0.384
1574944606.543013,56583.000,9412,3,AZ,1,100,-0.380
1574944606.588197,56621.000,9430,3,AZ,1,100,-0.385
1574944606.633382,56659.000,9430,3,AZ,1,100,-0.380
1574944606.678566,56697.000,9430,3,AZ,1,100,-0.381
1574944606.720183,56732.000,9449,3,AZ,1,100,-0.383
1574944606.761800,56767.000,9449,3,AZ,1,100,-0.380
1574944606.803417,56802.000,9449,3,AZ,1,100,-0.377
1574944606.841070,56833.667,9467,3,AZ,1,100,-0.385
1574944606.878724,56865.333,9467,3,AZ,1,100,-0.379
1574944606.916377,56897.000,9467,3,AZ,1,100,-0.383
1574944606.955220,56929.667,9485,3,AZ,1,100,-0.383
1574944606.994062,56962.333,9485,3,AZ,1,100,-0.381
1574944607.032905,56995.000,9485,3,AZ,1,100,-0.384
1574944607.073333,57029.000,9503,3,AZ,1,100,-0.381
1574944607.113761,57063.000,9503,3,AZ,1,100,-0.389
1574944607.154189,57097.000,9503,3,AZ,1,100,-0.383
1574944607.195410,57131.667,9520,3,AZ,1,100,-0.385
1574944607.236630,57166.333,9520,3,AZ,1,100,-0.383
1574944607.277851,57201.000,9520,3,AZ,1,100,-0.383
1574944607.319864,57236.333,9538,3,AZ,1,100,-0.385
1574944607.361878,57271.667,9538,3,AZ,1,100,-0.380
1574944607.403891,57307.000,9538,3,AZ,1,100,-0.378
1574944607.445112,57341.667,9554,3,AZ,1,100,-0.396
1574944607.486332,57376.333,9554,3,AZ,1,100,-0.408
1574944607.527553,57411.000,9554,3,AZ,1,100,-0.366
1574944607.565207,57442.667,9572,3,AZ,1,100,-0.364
1574944607.602860,57474.333,9572,3,AZ,1,100,-0.385
1574944607.640513,57506.000,9572,3,AZ,1,100,-0.383
1574944607.681338,57540.333,9591,3,AZ,1,100,-0.382
1574944607.722162,57574.667,9591,3,AZ,1,100,-0.390
1574944607.762986,57609.000,9591,3,AZ,1,100,-0.380
1574944607.804207,57643.667,9609,3,AZ,1,100,-0.383
1574944607.845428,57678.333,9609,3,AZ,1,100,-0.387
1574944607.886648,57713.000,9609,3,AZ,1,100,-0.386
1574944607.927473,57747.333,9627,3,AZ,1,100,-0.383
1574944607.968297,57781.667,9627,3,AZ,1,100,-0.386
1574944608.009121,57816.000,9627,3,AZ,1,100,-0.388
1574944608.047964,57848.667,9645,3,AZ,1,100,-0.383
1574944608.086806,57881.333,9645,3,AZ,1,100,-0.388
1574944608.125649,57914.000,9645,3,AZ,1,100,-0.385
1574944608.162510,57945.000,9663,3,AZ,1,100,-0.387
1574944608.199370,57976.000,9663,3,AZ,1,100,-0.386
1574944608.236231,58007.000,9663,3,AZ,1,100,-0.387
1574944608.277452,58041.667,9681,3,AZ,1,100,-0.387
1574944608.318673,58076.333,9681,3,AZ,1,100,-0.388
1574944608.359893,58111.000,9681,3,AZ,1,100,-0.384
1574944608.398340,58143.333,9699,3,AZ,1,100,-0.384
1574944608.436786,58175.667,9699,3,AZ,1,100,-0.388
1574944608.475232,58208.000,9699,3,AZ,1,100,-0.388
1574944608.520813,58246.333,9716,3,AZ,1,100,-0.384
1574944608.566393,58284.667,9716,3,AZ,1,100,-0.380
1574944608.611974,58323.000,9716,3,AZ,1,100,-0.386
1574944608.653194,58357.667,9732,3,AZ,1,100,-0.381
1574944608.694415,58392.333,9732,3,AZ,1,100,-0.386
1574944608.735636,58427.000,9732,3,AZ,1,100,-0.384
1574944608.771902,58457.500,9751,2,AZ,1,100,-0.382
1574944608.808168,58488.000,9751,2,AZ,1,100,-0.388
1574944608.852956,58525.667,9769,3,AZ,1,100,-0.379
1574944608.897744,58563.333,9769,3,AZ,1,100,-0.381
1574944608.942532,58601.000,9769,3,AZ,1,100,-0.387
1574944608.984149,58636.000,9787,3,AZ,1,100,-0.388
1574944609.025765,58671.000,9787,3,AZ,1,100,-0.383
1574944609.067383,58706.000,9787,3,AZ,1,100,-0.381
1574944609.105036,58737.667,9805,3,AZ,1,100,-0.389
1574944609.142689,58769.333,9805,3,AZ,1,100,-0.387
1574944609.180343,58801.000,9805,3,AZ,1,100,-0.387
1574944609.218789,58833.333,9823,3,AZ,1,100,-0.388
1574944609.257235,58865.667,9823,3,AZ,1,100,-0.383
1574944609.295681,58898.000,9823,3,AZ,1,100,-0.383
1574944609.336110,58932.000,9841,4,AZ,1,100,-0.383
1574944609.376538,58966.000,9841,4,AZ,1,100,-0.386
1574944609.416965,59000.000,9841,4,AZ,1,100,-0.386
1574944609.457393,59034.000,9841,4,AZ,1,100,-0.389
1574944609.499010,59069.000,9858,2,AZ,1,100,-0.387
1574944609.540627,59104.000,9858,2,AZ,1,100,-0.382
1574944609.582244,59139.000,9876,3,AZ,1,100,-0.385
1574944609.623862,59174.000,9876,3,AZ,1,100,-0.382
1574944609.665478,59209.000,9876,3,AZ,1,100,-0.386
1574944609.707888,59244.667,9895,3,AZ,1,100,-0.386
1574944609.750298,59280.333,9895,3,AZ,1,100,-0.385
1574944609.792708,59316.000,9895,3,AZ,1,100,-0.383
1574944609.830361,59347.667,9911,3,AZ,1,100,-0.385
1574944609.868015,59379.333,9911,3,AZ,1,100,-0.387
1574944609.905668,59411.000,9911,3,AZ,1,100,-0.381
1574944609.946096,59445.000,9929,3,AZ,1,100,-0.388
1574944609.986524,59479.000,9929,3,AZ,1,100,-0.388
1574944610.026952,59513.000,9929,3,AZ,1,100,-0.388
1574944610.067380,59547.000,9947,3,AZ,1,100,-0.385
1574944610.107808,59581.000,9947,3,AZ,1,100,-0.386
1574944610.148236,59615.000,9947,3,AZ,1,100,-0.385
1574944610.189853,59650.000,9965,3,AZ,1,100,-0.384
1574944610.231470,59685.000,9965,3,AZ,1,100,-0.391
1574944610.273087,59720.000,9965,3,AZ,1,100,-0.383
1574944610.311929,59752.667,9983,3,AZ,1,100,-0.376
1574944610.350772,59785.333,9983,3,AZ,1,100,-0.395
1574944610.389615,59818.000,9983,3,AZ,1,100,-0.385
1574944610.427268,59849.667,10001,3,AZ,1,100,-0.394
1574944610.464921,59881.333,10001,3,AZ,1,100,-0.381
1574944610.502575,59913.000,10001,3,AZ,1,100,-0.377
1574944610.545778,59949.333,10019,3,AZ,1,100,-0.393
1574944610.588980,59985.667,10019,3,AZ,1,100,-0.397
1574944610.632182,60022.000,10019,3,AZ,1,100,-0.389
1574944610.673403,60056.667,10038,3,AZ,1,100,-0.385
1574944610.714624,60091.333,10038,3,AZ,1,100,-0.389
1574944610.755844,60126.000,10038,3,AZ,1,100,-0.385
1574944610.797065,60160.667,10055,3,AZ,1,100,-0.399
1574944610.838286,60195.333,10055,3,AZ,1,100,-0.385
1574944610.879506,60230.000,10055,3,AZ,1,100,-0.383
1574944610.919934,60264.000,10073,3,AZ,1,100,-0.390
1574944610.960362,60298.000,10073,3,AZ,1,100,-0.390
1574944611.000790,60332.000,10073,3,AZ,1,100,-0.394
1574944611.038840,60364.000,10090,3,AZ,1,100,-0.384
1574944611.076890,60396.000,10090,3,AZ,1,100,-0.383
1574944611.114940,60428.000,10090,3,AZ,1,100,-0.389
1574944611.154179,60461.000,10107,3,AZ,1,100,-0.361
1574944611.193418,60494.000,10107,3,AZ,1,100,-0.396
1574944611.232656,60527.000,10107,3,AZ,1,100,-0.389
1574944611.273481,60561.333,10125,3,AZ,1,100,-0.391
1574944611.314305,60595.667,10125,3,AZ,1,100,-0.397
1574944611.355129,60630.000,10125,3,AZ,1,100,-0.394
1574944611.399422,60667.250,10146,4,AZ,1,100,-0.391
1574944611.443714,60704.500,10146,4,AZ,1,100,-0.395
1574944611.488007,60741.750,10146,4,AZ,1,100,-0.396
1574944611.532299,60779.000,10146,4,AZ,1,100,-0.398
1574944611.570349,60811.000,10166,4,AZ,1,100,-0.393
1574944611.608399,60843.000,10166,4,AZ,1,100,-0.395
1574944611.646448,60875.000,10166,4,AZ,1,100,-0.392
1574944611.684498,60907.000,10166,4,AZ,1,100,-0.396
1574944611.722944,60939.333,10185,3,AZ,1,100,-0.404
1574944611.761391,60971.667,10185,3,AZ,1,100,-0.393
1574944611.799837,61004.000,10185,3,AZ,1,100,-0.392
1574944611.840661,61038.333,10201,3,AZ,1,100,-0.397
1574944611.881485,61072.667,10201,3,AZ,1,100,-0.399
1574944611.922310,61107.000,10201,3,AZ,1,100,-0.398
1574944611.963134,61141.333,10219,3,AZ,1,100,-0.401
1574944612.003958,61175.667,10219,3,AZ,1,100,-0.395
1574944612.044783,61210.000,10219,3,AZ,1,100,-0.397
1574944612.086400,61245.000,10237,2,AZ,1,100,-0.397
1574944612.128017,61280.000,10237,2,AZ,1,100,-0.404
1574944612.170823,61316.000,10255,3,AZ,1,100,-0.403
1574944612.213629,61352.000,10255,3,AZ,1,100,-0.399
1574944612.256435,61388.000,10255,3,AZ,1,100,-0.396
1574944612.293296,61419.000,10273,4,AZ,1,100,-0.400
1574944612.330157,61450.000,10273,4,AZ,1,100,-0.404
1574944612.367017,61481.000,10273,4,AZ,1,100,-0.399
1574944612.403878,61512.000,10273,4,AZ,1,100,-0.396
1574944612.446684,61548.000,10291,2,AZ,1,100,-0.395
1574944612.489490,61584.000,10291,2,AZ,1,100,-0.400
1574944612.526648,61615.250,10309,4,AZ,1,100,-0.402
1574944612.563806,61646.500,10309,4,AZ,1,100,-0.408
1574944612.600964,61677.750,10309,4,AZ,1,100,-0.397
1574944612.638123,61709.000,10309,4,AZ,1,100,-0.399
1574944612.679739,61744.000,10328,3,AZ,1,100,-0.404
1574944612.721356,61779.000,10328,3,AZ,1,100,-0.404
1574944612.762974,61814.000,10328,3,AZ,1,100,-0.403
1574944612.802212,61847.000,10345,3,AZ,1,100,-0.398
1574944612.841451,61880.000,10345,3,AZ,1,100,-0.405
1574944612.880690,61913.000,10345,3,AZ,1,100,-0.400
1574944612.922307,61948.000,10363,3,AZ,1,100,-0.399
1574944612.963924,61983.000,10363,3,AZ,1,100,-0.400
1574944613.005541,62018.000,10363,3,AZ,1,100,-0.398
1574944613.046564,62052.500,10379,2,AZ,1,100,-0.399
1574944613.087586,62087.000,10379,2,AZ,1,100,-0.404
1574944613.129600,62122.333,10397,3,AZ,1,100,-0.400
1574944613.171613,62157.667,10397,3,AZ,1,100,-0.404
1574944613.213626,62193.000,10397,3,AZ,1,100,-0.401
1574944613.251676,62225.000,10415,4,AZ,1,100,-0.401
1574944613.289726,62257.000,10415,4,AZ,1,100,-0.403
1574944613.327776,62289.000,10415,4,AZ,1,100,-0.402
1574944613.365826,62321.000,10415,4,AZ,1,100,-0.396
1574944613.405461,62354.333,10433,3,AZ,1,100,-0.408
1574944613.445096,62387.667,10433,3,AZ,1,100,-0.404
1574944613.484731,62421.000,10433,3,AZ,1,100,-0.397
1574944613.524763,62454.667,10451,3,AZ,1,100,-0.404
1574944613.564795,62488.333,10451,3,AZ,1,100,-0.407
1574944613.604826,62522.000,10451,3,AZ,1,100,-0.406
1574944613.644858,62555.667,10469,3,AZ,1,100,-0.404
1574944613.684890,62589.333,10469,3,AZ,1,100,-0.404
1574944613.724921,62623.000,10469,3,AZ,1,100,-0.407
1574944613.765349,62657.000,10488,3,AZ,1,100,-0.412
1574944613.805777,62691.000,10488,3,AZ,1,100,-0.401
1574944613.846205,62725.000,10488,3,AZ,1,100,-0.399
1574944613.887822,62760.000,10506,2,AZ,1,100,-0.407
1574944613.929439,62795.000,10506,2,AZ,1,100,-0.401
1574944613.975019,62833.333,10523,3,AZ,1,100,-0.401
1574944614.020600,62871.667,10523,3,AZ,1,100,-0.405
1574944614.066181,62910.000,10523,3,AZ,1,100,-0.406
1574944614.103438,62941.333,10541,3,AZ,1,100,-0.402
1574944614.140695,62972.667,10541,3,AZ,1,100,-0.405
1574944614.177952,63004.000,10541,3,AZ,1,100,-0.398
1574944614.216398,63036.333,10559,3,AZ,1,100,-0.401
1574944614.254844,63068.667,10559,3,AZ,1,100,-0.404
1574944614.293291,63101.000,10559,3,AZ,1,100,-0.412
1574944614.334115,63135.333,10575,3,AZ,1,100,-0.406
1574944614.374939,63169.667,10575,3,AZ,1,100,-0.405
1574944614.415764,63204.000,10575,3,AZ,1,100,-0.407
1574944614.455795,63237.667,10593,3,AZ,1,100,-0.406
1574944614.495827,63271.333,10593,3,AZ,1,100,-0.400
1574944614.535858,63305.000,10593,3,AZ,1,100,-0.404
1574944614.578268,63340.667,10611,3,AZ,1,100,-0.404
1574944614.620678,63376.333,10611,3,AZ,1,100,-0.407
1574944614.663088,63412.000,10611,3,AZ,1,100,-0.396
1574944614.704308,63446.667,10630,3,AZ,1,100,-0.404
1574944614.745529,63481.333,10630,3,AZ,1,100,-0.423
1574944614.786750,63516.000,10630,3,AZ,1,100,-0.379
1574944614.825592,63548.667,10648,3,AZ,1,100,-0.391
1574944614.864434,63581.333,10648,3,AZ,1,100,-0.414
1574944614.903277,63614.000,10648,3,AZ,1,100,-0.415
1574944614.943705,63648.000,10666,3,AZ,1,100,-0.410
1574944614.984133,63682.000,10666,3,AZ,1,100,-0.396
1574944615.024561,63716.000,10666,3,AZ,1,100,-0.402
1574944615.065385,63750.333,10684,3,AZ,1,100,-0.410
1574944615.106210,63784.667,10684,3,AZ,1,100,-0.406
1574944615.147034,63819.000,10684,3,AZ,1,100,-0.410
1574944615.188255,63853.667,10701,3,AZ,1,100,-0.411
1574944615.229475,63888.333,10701,3,AZ,1,100,-0.408
1574944615.270696,63923.000,10701,3,AZ,1,100,-0.405
1574944615.309538,63955.667,10719,3,AZ,1,100,-0.415
1574944615.348381,63988.333,10719,3,AZ,1,100,-0.410
1574944615.387223,64021.000,10719,3,AZ,1,100,-0.406
1574944615.425273,64053.000,10737,3,AZ,1,100,-0.410
1574944615.463323,64085.000,10737,3,AZ,1,100,-0.412
1574944615.501373,64117.000,10737,3,AZ,1,100,-0.412
1574944615.541801,64151.000,10753,3,AZ,1,100,-0.405
1574944615.582229,64185.000,10753,3,AZ,1,100,-0.409
1574944615.622657,64219.000,10753,3,AZ,1,100,-0.409
1574944615.667841,64257.000,10772,3,AZ,1,100,-0.406
1574944615.713025,64295.000,10772,3,AZ,1,100,-0.413
1574944615.758209,64333.000,10772,3,AZ,1,100,-0.409
1574944615.799430,64367.667,10790,3,AZ,1,100,-0.406
1574944615.840651,64402.333,10790,3,AZ,1,100,-0.407
1574944615.881871,64437.000,10790,3,AZ,1,100,-0.411
1574944615.919525,64468.667,10808,3,AZ,1,100,-0.400
1574944615.957179,64500.333,10808,3,AZ,1,100,-0.413
1574944615.994832,64532.000,10808,3,AZ,1,100,-0.407
1574944616.033278,64564.333,10826,3,AZ,1,100,-0.406
1574944616.071724,64596.667,10826,3,AZ,1,100,-0.409
1574944616.110171,64629.000,10826,3,AZ,1,100,-0.407
1574944616.150202,64662.667,10844,3,AZ,1,100,-0.406
1574944616.190234,64696.333,10844,3,AZ,1,100,-0.409
1574944616.230265,64730.000,10844,3,AZ,1,100,-0.410
1574944616.271882,64765.000,10862,3,AZ,1,100,-0.411
1574944616.313499,64800.000,10862,3,AZ,1,100,-0.407
1574944616.355116,64835.000,10862,3,AZ,1,100,-0.406
1574944616.402084,64874.500,10879,2,AZ,1,100,-0.412
1574944616.449052,64914.000,10879,2,AZ,1,100,-0.407
1574944616.488291,64947.000,10897,4,AZ,1,100,-0.410
1574944616.527530,64980.000,10897,4,AZ,1,100,-0.411
1574944616.566769,65013.000,10897,4,AZ,1,100,-0.408
1574944616.606008,65046.000,10897,4,AZ,1,100,-0.407
1574944616.652381,65085.000,10913,2,AZ,1,100,-0.409
1574944616.698754,65124.000,10913,2,AZ,1,100,-0.409
1574944616.739182,65158.000,10932,3,AZ,1,100,-0.410
1574944616.779610,65192.000,10932,3,AZ,1,100,-0.405
1574944616.820038,65226.000,10932,3,AZ,1,100,-0.407
1574944616.858484,65258.333,10950,3,AZ,1,100,-0.417
1574944616.896930,65290.667,10950,3,AZ,1,100,-0.408
1574944616.935377,65323.000,10950,3,AZ,1,100,-0.409
1574944616.974318,65355.750,10968,4,AZ,1,100,-0.411
1574944617.013260,65388.500,10968,4,AZ,1,100,-0.413
1574944617.052202,65421.250,10968,4,AZ,1,100,-0.409
1574944617.091143,65454.000,10968,4,AZ,1,100,-0.410
1574944617.129986,65486.667,10986,3,AZ,1,100,-0.407
1574944617.168828,65519.333,10986,3,AZ,1,100,-0.411
1574944617.207671,65552.000,10986,3,AZ,1,100,-0.410
1574944617.248495,65586.333,11004,3,AZ,1,100,-0.412
1574944617.289319,65620.667,11004,3,AZ,1,100,-0.408
1574944617.330144,65655.000,11004,3,AZ,1,100,-0.412
1574944617.370572,65689.000,11022,3,AZ,1,100,-0.408
1574944617.411000,65723.000,11022,3,AZ,1,100,-0.412
1574944617.451427,65757.000,11022,3,AZ,1,100,-0.410
1574944617.492450,65791.500,11043,4,AZ,1,100,-0.386
1574944617.533473,65826.000,11043,4,AZ,1,100,-0.433
1574944617.574495,65860.500,11043,4,AZ,1,100,-0.411
1574944617.615517,65895.000,11043,4,AZ,1,100,-0.403
1574944617.653964,65927.333,11064,3,AZ,1,100,-0.402
1574944617.692410,65959.667,11064,3,AZ,1,100,-0.414
1574944617.730856,65992.000,11064,3,AZ,1,100,-0.421
1574944617.772869,66027.333,11082,3,AZ,1,100,-0.409
1574944617.814883,66062.667,11082,3,AZ,1,100,-0.413
1574944617.856896,66098.000,11082,3,AZ,1,100,-0.415
1574944617.897324,66132.000,11100,3,AZ,1,100,-0.417
1574944617.937752,66166.000,11100,3,AZ,1,100,-0.411
1574944617.978180,66200.000,11100,3,AZ,1,100,-0.416
1574944618.019401,66234.667,11118,3,AZ,1,100,-0.418
1574944618.060621,66269.333,11118,3,AZ,1,100,-0.419
1574944618.101842,66304.000,11118,3,AZ,1,100,-0.415
1574944618.143459,66339.000,11136,3,AZ,1,100,-0.415
1574944618.185076,66374.000,11136,3,AZ,1,100,-0.417
1574944618.226693,66409.000,11136,3,AZ,1,100,-0.424
1574944618.263554,66440.000,11154,3,AZ,1,100,-0.418
1574944618.300415,66471.000,11154,3,AZ,1,100,-0.417
1574944618.337276,66502.000,11154,3,AZ,1,100,-0.418
1574944618.376118,66534.667,11171,3,AZ,1,100,-0.419
1574944618.414961,66567.333,11171,3,AZ,1,100,-0.418
1574944618.453803,66600.000,11171,3,AZ,1,100,-0.421
1574944618.494231,66634.000,11189,3,AZ,1,100,-0.420
1574944618.534659,66668.000,11189,3,AZ,1,100,-0.419
1574944618.575087,66702.000,11189,3,AZ,1,100,-0.424
1574944618.620271,66740.000,11205,3,AZ,1,100,-0.420
1574944618.665455,66778.000,11205,3,AZ,1,100,-0.420
1574944618.710639,66816.000,11205,3,AZ,1,100,-0.423
1574944618.752653,66851.333,11224,3,AZ,1,100,-0.424
1574944618.794666,66886.667,11224,3,AZ,1,100,-0.416
1574944618.836680,66922.000,11224,3,AZ,1,100,-0.424
1574944618.873540,66953.000,11242,3,AZ,1,100,-0.423
1574944618.910401,66984.000,11242,3,AZ,1,100,-0.420
1574944618.947262,67015.000,11242,3,AZ,1,100,-0.421
1574944618.985708,67047.333,11260,3,AZ,1,100,-0.420
1574944619.024154,67079.667,11260,3,AZ,1,100,-0.422
1574944619.062601,67112.000,11260,3,AZ,1,100,-0.419
1574944619.103425,67146.333,11278,3,AZ,1,100,-0.422
1574944619.144249,67180.667,11278,3,AZ,1,100,-0.419
1574944619.185073,67215.000,11278,3,AZ,1,100,-0.418
1574944619.226691,67250.000,11296,3,AZ,1,100,-0.418
1574944619.268307,67285.000,11296,3,AZ,1,100,-0.418
1574944619.309925,67320.000,11296,3,AZ,1,100,-0.420
1574944619.351938,67355.333,11314,3,AZ,1,100,-0.417
1574944619.393951,67390.667,11314,3,AZ,1,100,-0.417
1574944619.435965,67426.000,11314,3,AZ,1,100,-0.420
1574944619.477185,67460.667,11331,3,AZ,1,100,-0.422
1574944619.518406,67495.333,11331,3,AZ,1,100,-0.420
1574944619.559627,67530.000,11331,3,AZ,1,100,-0.422
1574944619.597280,67561.667,11349,3,AZ,1,100,-0.420
1574944619.634934,67593.333,11349,3,AZ,1,100,-0.424
1574944619.672587,67625.000,11349,3,AZ,1,100,-0.422
1574944619.713808,67659.667,11368,3,AZ,1,100,-0.422
1574944619.755028,67694.333,11368,3,AZ,1,100,-0.423
1574944619.796249,67729.000,11368,3,AZ,1,100,-0.421
1574944619.837470,67763.667,11384,3,AZ,1,100,-0.423
1574944619.878690,67798.333,11384,3,AZ,1,100,-0.419
1574944619.919911,67833.000,11384,3,AZ,1,100,-0.421
1574944619.960735,67867.333,11402,3,AZ,1,100,-0.423
1574944620.001560,67901.667,11402,3,AZ,1,100,-0.421
1574944620.042384,67936.000,11402,3,AZ,1,100,-0.419
1574944620.081623,67969.000,11420,3,AZ,1,100,-0.416
1574944620.120862,68002.000,11420,3,AZ,1,100,-0.418
1574944620.160101,68035.000,11420,3,AZ,1,100,-0.426
1574944620.197754,68066.667,11438,3,AZ,1,100,-0.420
1574944620.235408,68098.333,11438,3,AZ,1,100,-0.424
1574944620.273061,68130.000,11438,3,AZ,1,100,-0.425
1574944620.318840,68168.500,11456,2,AZ,1,100,-0.415
1574944620.364619,68207.000,11456,2,AZ,1,100,-0.422
1574944620.405839,68241.667,11474,3,AZ,1,100,-0.422
1574944620.447060,68276.333,11474,3,AZ,1,100,-0.428
1574944620.488281,68311.000,11474,3,AZ,1,100,-0.423
1574944620.530294,68346.333,11492,3,AZ,1,100,-0.425
1574944620.572307,68381.667,11492,3,AZ,1,100,-0.423
1574944620.614321,68417.000,11492,3,AZ,1,100,-0.425
1574944620.655938,68452.000,11510,3,AZ,1,100,-0.422
1574944620.697555,68487.000,11510,3,AZ,1,100,-0.424
1574944620.739172,68522.000,11510,3,AZ,1,100,-0.427
1574944620.776429,68553.333,11528,3,AZ,1,100,-0.426
1574944620.813686,68584.667,11528,3,AZ,1,100,-0.423
1574944620.850943,68616.000,11528,3,AZ,1,100,-0.426
1574944620.896127,68654.000,11544,3,AZ,1,100,-0.427
1574944620.941312,68692.000,11544,3,AZ,1,100,-0.427
1574944620.986496,68730.000,11544,3,AZ,1,100,-0.425
1574944621.028509,68765.333,11562,3,AZ,1,100,-0.426
1574944621.070523,68800.667,11562,3,AZ,1,100,-0.424
1574944621.112536,68836.000,11562,3,AZ,1,100,-0.426
1574944621.150982,68868.333,11580,3,AZ,1,100,-0.426
1574944621.189428,68900.667,11580,3,AZ,1,100,-0.426
1574944621.227875,68933.000,11580,3,AZ,1,100,-0.426
1574944621.266717,68965.667,11598,3,AZ,1,100,-0.427
1574944621.305559,68998.333,11598,3,AZ,1,100,-0.427
1574944621.344402,69031.000,11598,3,AZ,1,100,-0.426
1574944621.383641,69064.000,11616,3,AZ,1,100,-0.425
1574944621.422880,69097.000,11616,3,AZ,1,100,-0.429
1574944621.462119,69130.000,11616,3,AZ,1,100,-0.424
1574944621.503340,69164.667,11634,3,AZ,1,100,-0.427
1574944621.544560,69199.333,11634,3,AZ,1,100,-0.426
1574944621.585781,69234.000,11634,3,AZ,1,100,-0.429
1574944621.627001,69268.667,11652,3,AZ,1,100,-0.427
1574944621.668222,69303.333,11652,3,AZ,1,100,-0.428
1574944621.709443,69338.000,11652,3,AZ,1,100,-0.428
1574944621.752645,69374.333,11670,3,AZ,1,100,-0.426
1574944621.795848,69410.667,11670,3,AZ,1,100,-0.427
1574944621.839050,69447.000,11670,3,AZ,1,100,-0.427
1574944621.876704,69478.667,11688,3,AZ,1,100,-0.427
1574944621.914357,69510.333,11688,3,AZ,1,100,-0.429
1574944621.952010,69542.000,11688,3,AZ,1,100,-0.429
1574944621.991646,69575.333,11706,3,AZ,1,100,-0.428
1574944622.031281,69608.667,11706,3,AZ,1,100,-0.430
1574944622.070916,69642.000,11706,3,AZ,1,100,-0.425
1574944622.111741,69676.333,11722,3,AZ,1,100,-0.428
1574944622.152565,69710.667,11722,3,AZ,1,100,-0.426
1574944622.193389,69745.000,11722,3,AZ,1,100,-0.432
1574944622.234610,69779.667,11740,3,AZ,1,100,-0.430
1574944622.275831,69814.333,11740,3,AZ,1,100,-0.439
1574944622.317051,69849.000,11740,3,AZ,1,100,-0.427
1574944622.357479,69883.000,11758,3,AZ,1,100,-0.416
1574944622.397907,69917.000,11758,3,AZ,1,100,-0.426
1574944622.438335,69951.000,11758,3,AZ,1,100,-0.429
1574944622.475592,69982.333,11776,3,AZ,1,100,-0.429
1574944622.512849,70013.667,11776,3,AZ,1,100,-0.436
1574944622.550107,70045.000,11776,3,AZ,1,100,-0.417
1574944622.593309,70081.333,11794,3,AZ,1,100,-0.416
1574944622.636511,70117.667,11794,3,AZ,1,100,-0.419
1574944622.679714,70154.000,11794,3,AZ,1,100,-0.438
1574944622.720934,70188.667,11813,3,AZ,1,100,-0.442
1574944622.762155,70223.333,11813,3,AZ,1,100,-0.415
1574944622.803376,70258.000,11813,3,AZ,1,100,-0.423
1574944622.844596,70292.667,11831,3,AZ,1,100,-0.438
1574944622.885817,70327.333,11831,3,AZ,1,100,-0.431
1574944622.927038,70362.000,11831,3,AZ,1,100,-0.427
1574944622.969249,70397.500,11848,2,AZ,1,100,-0.427
1574944623.011461,70433.000,11848,2,AZ,1,100,-0.427
1574944623.048916,70464.500,11866,4,AZ,1,100,-0.431
1574944623.086371,70496.000,11866,4,AZ,1,100,-0.432
1574944623.123827,70527.500,11866,4,AZ,1,100,-0.427
1574944623.161282,70559.000,11866,4,AZ,1,100,-0.429
1574944623.200521,70592.000,11884,3,AZ,1,100,-0.431
1574944623.239760,70625.000,11884,3,AZ,1,100,-0.426
1574944623.278999,70658.000,11884,3,AZ,1,100,-0.431
1574944623.320220,70692.667,11900,3,AZ,1,100,-0.430
1574944623.361440,70727.333,11900,3,AZ,1,100,-0.435
1574944623.402661,70762.000,11900,3,AZ,1,100,-0.429
1574944623.450223,70802.000,11918,2,AZ,1,100,-0.431
1574944623.497785,70842.000,11918,2,AZ,1,100,-0.436
1574944623.537738,70875.600,11939,5,AZ,1,100,-0.431
1574944623.577690,70909.200,11939,5,AZ,1,100,-0.433
1574944623.617642,70942.800,11939,5,AZ,1,100,-0.433
1574944623.657595,70976.400,11939,5,AZ,1,100,-0.433
1574944623.697547,71010.000,11939,5,AZ,1,100,-0.427
1574944623.734408,71041.000,11959,3,AZ,1,100,-0.431
1574944623.771269,71072.000,11959,3,AZ,1,100,-0.427
1574944623.808129,71103.000,11959,3,AZ,1,100,-0.433
1574944623.848161,71136.667,11977,3,AZ,1,100,-0.432
1574944623.888193,71170.333,11977,3,AZ,1,100,-0.430
1574944623.928224,71204.000,11977,3,AZ,1,100,-0.434
1574944623.969049,71238.333,11993,3,AZ,1,100,-0.430
1574944624.009873,71272.667,11993,3,AZ,1,100,-0.430
1574944624.050697,71307.000,11993,3,AZ,1,100,-0.434
1574944624.091918,71341.667,12011,3,AZ,1,100,-0.432
1574944624.133138,71376.333,12011,3,AZ,1,100,-0.429
1574944624.174359,71411.000,12011,3,AZ,1,100,-0.431
1574944624.218354,71448.000,12029,3,AZ,1,100,-0.434
1574944624.262349,71485.000,12029,3,AZ,1,100,-0.429
1574944624.306345,71522.000,12029,3,AZ,1,100,-0.430
1574944624.343602,71553.333,12047,3,AZ,1,100,-0.427
1574944624.380859,71584.667,12047,3,AZ,1,100,-0.430
1574944624.418116,71616.000,12047,3,AZ,1,100,-0.434
1574944624.456562,71648.333,12065,3,AZ,1,100,-0.431
1574944624.495008,71680.667,12065,3,AZ,1,100,-0.433
1574944624.533454,71713.000,12065,3,AZ,1,100,-0.427
1574944624.574675,71747.667,12083,3,AZ,1,100,-0.433
1574944624.615896,71782.333,12083,3,AZ,1,100,-0.437
1574944624.657116,71817.000,12083,3,AZ,1,100,-0.429
1574944624.694770,71848.667,12102,3,AZ,1,100,-0.433
1574944624.732424,71880.333,12102,3,AZ,1,100,-0.430
1574944624.770077,71912.000,12102,3,AZ,1,100,-0.436
1574944624.810901,71946.333,12120,3,AZ,1,100,-0.435
1574944624.851726,71980.667,12120,3,AZ,1,100,-0.432
1574944624.892550,72015.000,12120,3,AZ,1,100,-0.432
1574944624.932978,72049.000,12137,3,AZ,1,100,-0.433
1574944624.973406,72083.000,12137,3,AZ,1,100,-0.434
1574944625.013834,72117.000,12137,3,AZ,1,100,-0.431
1574944625.055054,72151.667,12155,3,AZ,1,100,-0.433
1574944625.096275,72186.333,12155,3,AZ,1,100,-0.432
1574944625.137496,72221.000,12155,3,AZ,1,100,-0.432
1574944625.179113,72256.000,12171,3,AZ,1,100,-0.436
1574944625.220730,72291.000,12171,3,AZ,1,100,-0.436
1574944625.262347,72326.000,12171,3,AZ,1,100,-0.434
1574944625.300793,72358.333,12189,3,AZ,1,100,-0.432
1574944625.339239,72390.667,12189,3,AZ,1,100,-0.434
1574944625.377685,72423.000,12189,3,AZ,1,100,-0.434
1574944625.416131,72455.333,12207,3,AZ,1,100,-0.432
1574944625.454578,72487.667,12207,3,AZ,1,100,-0.431
1574944625.493024,72520.000,12207,3,AZ,1,100,-0.430
1574944625.533056,72553.667,12225,3,AZ,1,100,-0.435
1574944625.573087,72587.333,12225,3,AZ,1,100,-0.430
1574944625.613119,72621.000,12225,3,AZ,1,100,-0.431
1574944625.654339,72655.667,12244,3,AZ,1,100,-0.437
1574944625.695560,72690.333,12244,3,AZ,1,100,-0.433
1574944625.736781,72725.000,12244,3,AZ,1,100,-0.440
1574944625.777209,72759.000,12262,3,AZ,1,100,-0.442
1574944625.817637,72793.000,12262,3,AZ,1,100,-0.436
1574944625.858065,72827.000,12262,3,AZ,1,100,-0.431
1574944625.903249,72865.000,12280,3,AZ,1,100,-0.432
1574944625.948433,72903.000,12280,3,AZ,1,100,-0.437
1574944625.993617,72941.000,12280,3,AZ,1,100,-0.431
1574944626.035234,72976.000,12297,2,AZ,1,100,-0.433
1574944626.076851,73011.000,12297,2,AZ,1,100,-0.432
1574944626.115496,73043.500,12315,4,AZ,1,100,-0.436
1574944626.154140,73076.000,12315,4,AZ,1,100,-0.437
1574944626.192784,73108.500,12315,4,AZ,1,100,-0.432
1574944626.231429,73141.000,12315,4,AZ,1,100,-0.437
1574944626.269082,73172.667,12333,3,AZ,1,100,-0.435
1574944626.306736,73204.333,12333,3,AZ,1,100,-0.438
1574944626.344389,73236.000,12333,3,AZ,1,100,-0.435
1574944626.384817,73270.000,12351,3,AZ,1,100,-0.436
1574944626.425245,73304.000,12351,3,AZ,1,100,-0.434
1574944626.465673,73338.000,12351,3,AZ,1,100,-0.429
1574944626.506497,73372.333,12367,3,AZ,1,100,-0.437
1574944626.547322,73406.667,12367,3,AZ,1,100,-0.437
1574944626.588146,73441.000,12367,3,AZ,1,100,-0.429
1574944626.628970,73475.333,12385,3,AZ,1,100,-0.436
1574944626.669795,73509.667,12385,3,AZ,1,100,-0.435
1574944626.710619,73544.000,12385,3,AZ,1,100,-0.435
1574944626.755803,73582.000,12404,2,AZ,1,100,-0.434
1574944626.800987,73620.000,12404,2,AZ,1,100,-0.430
1574944626.838740,73651.750,12422,4,AZ,1,100,-0.436
1574944626.876493,73683.500,12422,4,AZ,1,100,-0.436
1574944626.914245,73715.250,12422,4,AZ,1,100,-0.432
1574944626.951998,73747.000,12422,4,AZ,1,100,-0.433
1574944626.992029,73780.667,12440,3,AZ,1,100,-0.434
1574944627.032061,73814.333,12440,3,AZ,1,100,-0.432
1574944627.072093,73848.000,12440,3,AZ,1,100,-0.438
1574944627.113709,73883.000,12458,3,AZ,1,100,-0.435
1574944627.155326,73918.000,12458,3,AZ,1,100,-0.432
1574944627.196944,73953.000,12458,3,AZ,1,100,-0.433
1574944627.237966,73987.500,12476,2,AZ,1,100,-0.431
1574944627.278988,74022.000,12476,2,AZ,1,100,-0.434
1574944627.319813,74056.333,12493,3,AZ,1,100,-0.430
1574944627.360637,74090.667,12493,3,AZ,1,100,-0.437
1574944627.401461,74125.000,12493,3,AZ,1,100,-0.437
1574944627.438917,74156.500,12511,4,AZ,1,100,-0.431
1574944627.476372,74188.000,12511,4,AZ,1,100,-0.432
1574944627.513827,74219.500,12511,4,AZ,1,100,-0.436
1574944627.551283,74251.000,12511,4,AZ,1,100,-0.436
1574944627.591711,74285.000,12529,2,AZ,1,100,-0.434
1574944627.632138,74319.000,12529,2,AZ,1,100,-0.437
1574944627.676926,74356.667,12546,3,AZ,1,100,-0.436
1574944627.721714,74394.333,12546,3,AZ,1,100,-0.432
1574944627.766502,74432.000,12546,3,AZ,1,100,-0.438
1574944627.807326,74466.333,12564,3,AZ,1,100,-0.433
1574944627.848151,74500.667,12564,3,AZ,1,100,-0.435
1574944627.888975,74535.000,12564,3,AZ,1,100,-0.439
1574944627.929007,74568.667,12582,3,AZ,1,100,-0.435
1574944627.969038,74602.333,12582,3,AZ,1,100,-0.433
1574944628.009070,74636.000,12582,3,AZ,1,100,-0.435
1574944628.047120,74668.000,12600,3,AZ,1,100,-0.440
1574944628.085170,74700.000,12600,3,AZ,1,100,-0.431
1574944628.123219,74732.000,12600,3,AZ,1,100,-0.436
1574944628.162161,74764.750,12618,4,AZ,1,100,-0.433
1574944628.201102,74797.500,12618,4,AZ,1,100,-0.439
1574944628.240044,74830.250,12618,4,AZ,1,100,-0.437
1574944628.278986,74863.000,12618,4,AZ,1,100,-0.436
1574944628.320603,74898.000,12636,2,AZ,1,100,-0.435
1574944628.362220,74933.000,12636,2,AZ,1,100,-0.436
1574944628.407404,74971.000,12654,3,AZ,1,100,-0.438
1574944628.452588,75009.000,12654,3,AZ,1,100,-0.435
1574944628.497772,75047.000,12654,3,AZ,1,100,-0.437
1574944628.536615,75079.667,12671,3,AZ,1,100,-0.438
1574944628.575458,75112.333,12671,3,AZ,1,100,-0.437
1574944628.614300,75145.000,12671,3,AZ,1,100,-0.438
1574944628.659088,75182.667,12690,3,AZ,1,100,-0.439
1574944628.703876,75220.333,12690,3,AZ,1,100,-0.436
1574944628.748664,75258.000,12690,3,AZ,1,100,-0.438
1574944628.789488,75292.333,12706,3,AZ,1,100,-0.442
1574944628.830312,75326.667,12706,3,AZ,1,100,-0.436
1574944628.871136,75361.000,12706,3,AZ,1,100,-0.438
1574944628.908790,75392.667,12724,3,AZ,1,100,-0.437
1574944628.946444,75424.333,12724,3,AZ,1,100,-0.440
1574944628.984097,75456.000,12724,3,AZ,1,100,-0.440
1574944629.022939,75488.667,12742,3,AZ,1,100,-0.438
1574944629.061782,75521.333,12742,3,AZ,1,100,-0.434
1574944629.100625,75554.000,12742,3,AZ,1,100,-0.440
1574944629.142242,75589.000,12760,3,AZ,1,100,-0.437
1574944629.183859,75624.000,12760,3,AZ,1,100,-0.438
1574944629.225476,75659.000,12760,3,AZ,1,100,-0.437
1574944629.266696,75693.667,12778,3,AZ,1,100,-0.438
1574944629.307917,75728.333,12778,3,AZ,1,100,-0.437
1574944629.349138,75763.000,12778,3,AZ,1,100,-0.436
1574944629.390755,75798.000,12796,3,AZ,1,100,-0.436
1574944629.432372,75833.000,12796,3,AZ,1,100,-0.437
1574944629.473989,75868.000,12796,3,AZ,1,100,-0.436
1574944629.515606,75903.000,12814,3,AZ,1,100,-0.435
1574944629.557223,75938.000,12814,3,AZ,1,100,-0.442
1574944629.598840,75973.000,12814,3,AZ,1,100,-0.439
1574944629.638673,76006.500,12835,4,AZ,1,100,-0.438
1574944629.678507,76040.000,12835,4,AZ,1,100,-0.440
1574944629.718340,76073.500,12835,4,AZ,1,100,-0.435
1574944629.758173,76107.000,12835,4,AZ,1,100,-0.442
1574944629.799394,76141.667,12856,3,AZ,1,100,-0.430
1574944629.840615,76176.333,12856,3,AZ,1,100,-0.424
1574944629.881835,76211.000,12856,3,AZ,1,100,-0.461
1574944629.921471,76244.333,12874,3,AZ,1,100,-0.441
1574944629.961106,76277.667,12874,3,AZ,1,100,-0.432
1574944630.000741,76311.000,12874,3,AZ,1,100,-0.441
1574944630.041566,76345.333,12892,3,AZ,1,100,-0.444
1574944630.082390,76379.667,12892,3,AZ,1,100,-0.428
1574944630.123214,76414.000,12892,3,AZ,1,100,-0.441
1574944630.164831,76449.000,12910,3,AZ,1,100,-0.449
1574944630.206448,76484.000,12910,3,AZ,1,100,-0.437
1574944630.248065,76519.000,12910,3,AZ,1,100,-0.432
1574944630.286511,76551.333,12928,3,AZ,1,100,-0.437
1574944630.324958,76583.667,12928,3,AZ,1,100,-0.435
1574944630.363404,76616.000,12928,3,AZ,1,100,-0.439
1574944630.401850,76648.333,12945,3,AZ,1,100,-0.438
1574944630.440296,76680.667,12945,3,AZ,1,100,-0.440
1574944630.478742,76713.000,12945,3,AZ,1,100,-0.443
1574944630.517981,76746.000,12963,3,AZ,1,100,-0.448
1574944630.557220,76779.000,12963,3,AZ,1,100,-0.424
1574944630.596459,76812.000,12963,3,AZ,1,100,-0.431
1574944630.640851,76849.333,12979,3,AZ,1,100,-0.436
1574944630.685242,76886.667,12979,3,AZ,1,100,-0.434
1574944630.729634,76924.000,12979,3,AZ,1,100,-0.436
1574944630.770854,76958.667,12998,3,AZ,1,100,-0.438
1574944630.812075,76993.333,12998,3,AZ,1,100,-0.431
1574944630.853296,77028.000,12998,3,AZ,1,100,-0.439
1574944630.892534,77061.000,13016,3,AZ,1,100,-0.435
1574944630.931773,77094.000,13016,3,AZ,1,100,-0.449
1574944630.971012,77127.000,13016,3,AZ,1,100,-0.440
1574944631.009062,77159.000,13034,3,AZ,1,100,-0.440
1574944631.047112,77191.000,13034,3,AZ,1,100,-0.442
1574944631.085162,77223.000,13034,3,AZ,1,100,-0.442
1574944631.124797,77256.333,13052,3,AZ,1,100,-0.440
1574944631.164432,77289.667,13052,3,AZ,1,100,-0.439
1574944631.204067,77323.000,13052,3,AZ,1,100,-0.440
1574944631.245288,77357.667,13070,3,AZ,1,100,-0.442
1574944631.286509,77392.333,13070,3,AZ,1,100,-0.438
1574944631.327729,77427.000,13070,3,AZ,1,100,-0.442
1574944631.368950,77461.667,13088,3,AZ,1,100,-0.441
1574944631.410171,77496.333,13088,3,AZ,1,100,-0.444
1574944631.451391,77531.000,13088,3,AZ,1,100,-0.439
1574944631.494594,77567.333,13106,3,AZ,1,100,-0.442
1574944631.537796,77603.667,13106,3,AZ,1,100,-0.440
1574944631.580999,77640.000,13106,3,AZ,1,100,-0.441
1574944631.618652,77671.667,13123,3,AZ,1,100,-0.442
1574944631.656306,77703.333,13123,3,AZ,1,100,-0.439
1574944631.693959,77735.000,13123,3,AZ,1,100,-0.441
1574944631.733594,77768.333,13142,3,AZ,1,100,-0.439
1574944631.773230,77801.667,13142,3,AZ,1,100,-0.439
1574944631.812865,77835.000,13142,3,AZ,1,100,-0.446
1574944631.854482,77870.000,13160,3,AZ,1,100,-0.440
1574944631.896099,77905.000,13160,3,AZ,1,100,-0.447
1574944631.937716,77940.000,13160,3,AZ,1,100,-0.445
1574944631.978540,77974.333,13176,3,AZ,1,100,-0.446
1574944632.019365,78008.667,13176,3,AZ,1,100,-0.444
1574944632.060189,78043.000,13176,3,AZ,1,100,-0.442
1574944632.100617,78077.000,13194,3,AZ,1,100,-0.445
1574944632.141045,78111.000,13194,3,AZ,1,100,-0.446
1574944632.181473,78145.000,13194,3,AZ,1,100,-0.442
1574944632.219126,78176.667,13212,3,AZ,1,100,-0.444
1574944632.256780,78208.333,13212,3,AZ,1,100,-0.441
1574944632.294433,78240.000,13212,3,AZ,1,100,-0.444
1574944632.337240,78276.000,13230,3,AZ,1,100,-0.452
1574944632.380045,78312.000,13230,3,AZ,1,100,-0.447
1574944632.422852,78348.000,13230,3,AZ,1,100,-0.446
1574944632.464468,78383.000,13248,3,AZ,1,100,-0.448
1574944632.506086,78418.000,13248,3,AZ,1,100,-0.448
1574944632.547703,78453.000,13248,3,AZ,1,100,-0.445
1574944632.588130,78487.000,13266,3,AZ,1,100,-0.444
1574944632.628558,78521.000,13266,3,AZ,1,100,-0.449
1574944632.668987,78555.000,13266,3,AZ,1,100,-0.442
1574944632.707036,78587.000,13285,3,AZ,1,100,-0.453
1574944632.745086,78619.000,13285,3,AZ,1,100,-0.449
1574944632.783136,78651.000,13285,3,AZ,1,100,-0.443
1574944632.823564,78685.000,13302,3,AZ,1,100,-0.449
1574944632.863992,78719.000,13302,3,AZ,1,100,-0.451
1574944632.904420,78753.000,13302,3,AZ,1,100,-0.447
1574944632.950793,78792.000,13320,2,AZ,1,100,-0.449
1574944632.997166,78831.000,13320,2,AZ,1,100,-0.446
1574944633.038387,78865.667,13336,3,AZ,1,100,-0.449
1574944633.079608,78900.333,13336,3,AZ,1,100,-0.449
1574944633.120828,78935.000,13336,3,AZ,1,100,-0.448
1574944633.161256,78969.000,13354,3,AZ,1,100,-0.449
1574944633.201684,79003.000,13354,3,AZ,1,100,-0.447
1574944633.242112,79037.000,13354,3,AZ,1,100,-0.450
1574944633.280162,79069.000,13372,3,AZ,1,100,-0.451
1574944633.318212,79101.000,13372,3,AZ,1,100,-0.449
1574944633.356262,79133.000,13372,3,AZ,1,100,-0.448
1574944633.394906,79165.500,13390,4,AZ,1,100,-0.450
1574944633.433550,79198.000,13390,4,AZ,1,100,-0.446
1574944633.472195,79230.500,13390,4,AZ,1,100,-0.448
1574944633.510839,79263.000,13390,4,AZ,1,100,-0.448
1574944633.552060,79297.667,13408,3,AZ,1,100,-0.450
1574944633.593281,79332.333,13408,3,AZ,1,100,-0.442
1574944633.634501,79367.000,13408,3,AZ,1,100,-0.446
1574944633.675524,79401.500,13426,2,AZ,1,100,-0.451
1574944633.716546,79436.000,13426,2,AZ,1,100,-0.442
1574944633.761730,79474.000,13445,3,AZ,1,100,-0.449
1574944633.806915,79512.000,13445,3,AZ,1,100,-0.450
1574944633.852099,79550.000,13445,3,AZ,1,100,-0.446
1574944633.889752,79581.667,13463,3,AZ,1,100,-0.448
1574944633.927406,79613.333,13463,3,AZ,1,100,-0.445
1574944633.965059,79645.000,13463,3,AZ,1,100,-0.445
1574944634.003902,79677.667,13480,3,AZ,1,100,-0.448
1574944634.042744,79710.333,13480,3,AZ,1,100,-0.447
1574944634.081587,79743.000,13480,3,AZ,1,100,-0.450
1574944634.121619,79776.667,13498,3,AZ,1,100,-0.448
1574944634.161650,79810.333,13498,3,AZ,1,100,-0.447
1574944634.201682,79844.000,13498,3,AZ,1,100,-0.448
1574944634.242902,79878.667,13514,3,AZ,1,100,-0.447
1574944634.284123,79913.333,13514,3,AZ,1,100,-0.448
1574944634.325344,79948.000,13514,3,AZ,1,100,-0.446
1574944634.367357,79983.333,13532,3,AZ,1,100,-0.450
1574944634.409370,80018.667,13532,3,AZ,1,100,-0.448
1574944634.451384,80054.000,13532,3,AZ,1,100,-0.446
1574944634.488245,80085.000,13550,3,AZ,1,100,-0.449
1574944634.525105,80116.000,13550,3,AZ,1,100,-0.450
1574944634.561966,80147.000,13550,3,AZ,1,100,-0.453
1574944634.603583,80182.000,13568,3,AZ,1,100,-0.445
1574944634.645200,80217.000,13568,3,AZ,1,100,-0.452
1574944634.686817,80252.000,13568,3,AZ,1,100,-0.446
1574944634.728038,80286.667,13587,3,AZ,1,100,-0.449
1574944634.769258,80321.333,13587,3,AZ,1,100,-0.451
1574944634.810479,80356.000,13587,3,AZ,1,100,-0.450
1574944634.852096,80391.000,13605,3,AZ,1,100,-0.450
1574944634.893713,80426.000,13605,3,AZ,1,100,-0.451
1574944634.935330,80461.000,13605,3,AZ,1,100,-0.444
1574944634.977344,80496.333,13623,3,AZ,1,100,-0.451
1574944635.019357,80531.667,13623,3,AZ,1,100,-0.449
1574944635.061370,80567.000,13623,3,AZ,1,100,-0.450
1574944635.099024,80598.667,13641,3,AZ,1,100,-0.452
1574944635.136677,80630.333,13641,3,AZ,1,100,-0.444
1574944635.174331,80662.000,13641,3,AZ,1,100,-0.452
1574944635.211984,80693.667,13658,3,AZ,1,100,-0.448
1574944635.249638,80725.333,13658,3,AZ,1,100,-0.450
1574944635.287291,80757.000,13658,3,AZ,1,100,-0.453
1574944635.328115,80791.333,13676,3,AZ,1,100,-0.449
1574944635.368940,80825.667,13676,3,AZ,1,100,-0.449
1574944635.409764,80860.000,13676,3,AZ,1,100,-0.450
1574944635.454948,80898.000,13692,3,AZ,1,100,-0.453
1574944635.500133,80936.000,13692,3,AZ,1,100,-0.445
1574944635.545317,80974.000,13692,3,AZ,1,100,-0.452
1574944635.586141,81008.333,13710,3,AZ,1,100,-0.452
1574944635.626965,81042.667,13710,3,AZ,1,100,-0.451
1574944635.667790,81077.000,13710,3,AZ,1,100,-0.456
1574944635.705839,81109.000,13732,5,AZ,1,100,-0.442
1574944635.743889,81141.000,13732,5,AZ,1,100,-0.448
1574944635.781939,81173.000,13732,5,AZ,1,100,-0.449
1574944635.819989,81205.000,13732,5,AZ,1,100,-0.442
1574944635.858039,81237.000,13732,5,AZ,1,100,-0.447
1574944635.898071,81270.667,13751,3,AZ,1,100,-0.451
1574944635.938102,81304.333,13751,3,AZ,1,100,-0.448
1574944635.978134,81338.000,13751,3,AZ,1,100,-0.454
1574944636.018562,81372.000,13769,3,AZ,1,100,-0.444
1574944636.058990,81406.000,13769,3,AZ,1,100,-0.443
1574944636.099418,81440.000,13769,3,AZ,1,100,-0.450
1574944636.140242,81474.333,13787,3,AZ,1,100,-0.445
1574944636.181066,81508.667,13787,3,AZ,1,100,-0.439
1574944636.221890,81543.000,13787,3,AZ,1,100,-0.455
1574944636.270047,81583.500,13803,2,AZ,1,100,-0.456
1574944636.318204,81624.000,13803,2,AZ,1,100,-0.457
1574944636.355461,81655.333,13821,3,AZ,1,100,-0.450
1574944636.392719,81686.667,13821,3,AZ,1,100,-0.454
1574944636.429976,81718.000,13821,3,AZ,1,100,-0.459
1574944636.470800,81752.333,13839,3,AZ,1,100,-0.460
1574944636.511624,81786.667,13839,3,AZ,1,100,-0.458
1574944636.552449,81821.000,13839,3,AZ,1,100,-0.457
1574944636.593273,81855.333,13857,3,AZ,1,100,-0.455
1574944636.634097,81889.667,13857,3,AZ,1,100,-0.457
1574944636.674922,81924.000,13857,3,AZ,1,100,-0.474
1574944636.710989,81954.333,13876,3,AZ,1,100,-0.462
1574944636.747058,81984.667,13876,3,AZ,1,100,-0.457
1574944636.783126,82015.000,13876,3,AZ,1,100,-0.461
1574944636.823950,82049.333,13894,3,AZ,1,100,-0.457
1574944636.864774,82083.667,13894,3,AZ,1,100,-0.462
1574944636.905599,82118.000,13894,3,AZ,1,100,-0.465
1574944636.945135,82151.250,13912,4,AZ,1,100,-0.464
1574944636.984671,82184.500,13912,4,AZ,1,100,-0.484
1574944637.024207,82217.750,13912,4,AZ,1,100,-0.477
1574944637.063743,82251.000,13912,4,AZ,1,100,-0.427
1574944637.105955,82286.500,13929,2,AZ,1,100,-0.435
1574944637.148166,82322.000,13929,2,AZ,1,100,-0.447
1574944637.188991,82356.333,13947,3,AZ,1,100,-0.447
1574944637.229815,82390.667,13947,3,AZ,1,100,-0.458
1574944637.270639,82425.000,13947,3,AZ,1,100,-0.462
1574944637.311067,82459.000,13965,3,AZ,1,100,-0.453
1574944637.351495,82493.000,13965,3,AZ,1,100,-0.454
1574944637.391923,82527.000,13965,3,AZ,1,100,-0.454
1574944637.429973,82559.000,13981,3,AZ,1,100,-0.455
1574944637.468023,82591.000,13981,3,AZ,1,100,-0.450
1574944637.506073,82623.000,13981,3,AZ,1,100,-0.450
1574944637.544519,82655.333,13999,3,AZ,1,100,-0.450
1574944637.582965,82687.667,13999,3,AZ,1,100,-0.440
1574944637.621411,82720.000,13999,3,AZ,1,100,-0.438
1574944637.662235,82754.333,14018,3,AZ,1,100,-0.448
1574944637.703060,82788.667,14018,3,AZ,1,100,-0.456
1574944637.743884,82823.000,14018,3,AZ,1,100,-0.465
1574944637.788672,82860.667,14036,3,AZ,1,100,-0.443
1574944637.833460,82898.333,14036,3,AZ,1,100,-0.433
1574944637.878248,82936.000,14036,3,AZ,1,100,-0.447
1574944637.919468,82970.667,14054,3,AZ,1,100,-0.457
1574944637.960689,83005.333,14054,3,AZ,1,100,-0.453
1574944638.001910,83040.000,14054,3,AZ,1,100,-0.457
1574944638.039563,83071.667,14072,3,AZ,1,100,-0.450
1574944638.077217,83103.333,14072,3,AZ,1,100,-0.435
1574944638.114870,83135.000,14072,3,AZ,1,100,-0.451
1574944638.153713,83167.667,14090,3,AZ,1,100,-0.456
1574944638.192555,83200.333,14090,3,AZ,1,100,-0.453
1574944638.231398,83233.000,14090,3,AZ,1,100,-0.452
1574944638.271430,83266.667,14108,3,AZ,1,100,-0.450
1574944638.311461,83300.333,14108,3,AZ,1,100,-0.457
1574944638.351493,83334.000,14108,3,AZ,1,100,-0.451
1574944638.392713,83368.667,14125,3,AZ,1,100,-0.448
1574944638.433934,83403.333,14125,3,AZ,1,100,-0.446
1574944638.475155,83438.000,14125,3,AZ,1,100,-0.442
1574944638.519943,83475.667,14143,3,AZ,1,100,-0.442
1574944638.564730,83513.333,14143,3,AZ,1,100,-0.429
1574944638.609518,83551.000,14143,3,AZ,1,100,-0.445
1574944638.647172,83582.667,14159,3,AZ,1,100,-0.449
1574944638.684825,83614.333,14159,3,AZ,1,100,-0.447
1574944638.722479,83646.000,14159,3,AZ,1,100,-0.444
1574944638.760925,83678.333,14178,3,AZ,1,100,-0.438
1574944638.799371,83710.667,14178,3,AZ,1,100,-0.431
1574944638.837817,83743.000,14178,3,AZ,1,100,-0.448
1574944638.878245,83777.000,14196,3,AZ,1,100,-0.440
1574944638.918673,83811.000,14196,3,AZ,1,100,-0.448
1574944638.959101,83845.000,14196,3,AZ,1,100,-0.437
1574944639.000718,83880.000,14214,3,AZ,1,100,-0.434
1574944639.042335,83915.000,14214,3,AZ,1,100,-0.452
1574944639.083952,83950.000,14214,3,AZ,1,100,-0.436
1574944639.125965,83985.333,14232,3,AZ,1,100,-0.457
1574944639.167979,84020.667,14232,3,AZ,1,100,-0.433
1574944639.209992,84056.000,14232,3,AZ,1,100,-0.446
1574944639.248042,84088.000,14250,3,AZ,1,100,-0.442
1574944639.286092,84120.000,14250,3,AZ,1,100,-0.458
1574944639.324142,84152.000,14250,3,AZ,1,100,-0.440
1574944639.361399,84183.333,14268,3,AZ,1,100,-0.442
1574944639.398656,84214.667,14268,3,AZ,1,100,-0.438
1574944639.435913,84246.000,14268,3,AZ,1,100,-0.450
1574944639.480305,84283.333,14286,3,AZ,1,100,-0.462
1574944639.524696,84320.667,14286,3,AZ,1,100,-0.447
1574944639.569088,84358.000,14286,3,AZ,1,100,-0.443
1574944639.610308,84392.667,14303,3,AZ,1,100,-0.445
1574944639.651529,84427.333,14303,3,AZ,1,100,-0.450
1574944639.692750,84462.000,14303,3,AZ,1,100,-0.459
1574944639.733574,84496.333,14322,3,AZ,1,100,-0.447
1574944639.774398,84530.667,14322,3,AZ,1,100,-0.440
1574944639.815223,84565.000,14322,3,AZ,1,100,-0.452
1574944639.854461,84598.000,14340,3,AZ,1,100,-0.455
1574944639.893700,84631.000,14340,3,AZ,1,100,-0.449
1574944639.932939,84664.000,14340,3,AZ,1,100,-0.449
1574944639.969800,84695.000,14356,3,AZ,1,100,-0.453
1574944640.006661,84726.000,14356,3,AZ,1,100,-0.447
1574944640.043522,84757.000,14356,3,AZ,1,100,-0.449
1574944640.087913,84794.333,14374,3,AZ,1,100,-0.447
1574944640.132304,84831.667,14374,3,AZ,1,100,-0.449
1574944640.176696,84869.000,14374,3,AZ,1,100,-0.449
1574944640.218313,84904.000,14392,3,AZ,1,100,-0.440
1574944640.259930,84939.000,14392,3,AZ,1,100,-0.449
1574944640.301547,84974.000,14392,3,AZ,1,100,-0.454
1574944640.339993,85006.333,14410,3,AZ,1,100,-0.448
1574944640.378439,85038.667,14410,3,AZ,1,100,-0.457
1574944640.416886,85071.000,14410,3,AZ,1,100,-0.454
1574944640.463853,85110.500,14428,2,AZ,1,100,-0.467
1574944640.510821,85150.000,14428,2,AZ,1,100,-0.457
1574944640.549466,85182.500,14446,4,AZ,1,100,-0.426
1574944640.588110,85215.000,14446,4,AZ,1,100,-0.454
1574944640.626754,85247.500,14446,4,AZ,1,100,-0.448
1574944640.665399,85280.000,14446,4,AZ,1,100,-0.448
1574944640.712366,85319.500,14464,2,AZ,1,100,-0.446
1574944640.759334,85359.000,14464,2,AZ,1,100,-0.455
1574944640.801347,85394.333,14482,3,AZ,1,100,-0.449
1574944640.843361,85429.667,14482,3,AZ,1,100,-0.460
1574944640.885374,85465.000,14482,3,AZ,1,100,-0.456
1574944640.923820,85497.333,14498,3,AZ,1,100,-0.447
1574944640.962267,85529.667,14498,3,AZ,1,100,-0.455
1574944641.000713,85562.000,14498,3,AZ,1,100,-0.441
1574944641.039159,85594.333,14516,3,AZ,1,100,-0.449
1574944641.077605,85626.667,14516,3,AZ,1,100,-0.452
1574944641.116051,85659.000,14516,3,AZ,1,100,-0.452
1574944641.156479,85693.000,14534,3,AZ,1,100,-0.451
1574944641.196908,85727.000,14534,3,AZ,1,100,-0.452
1574944641.237335,85761.000,14534,3,AZ,1,100,-0.450
1574944641.278952,85796.000,14552,3,AZ,1,100,-0.453
1574944641.320570,85831.000,14552,3,AZ,1,100,-0.457
1574944641.362186,85866.000,14552,3,AZ,1,100,-0.449
1574944641.402614,85900.000,14570,3,AZ,1,100,-0.458
1574944641.443042,85934.000,14570,3,AZ,1,100,-0.455
1574944641.483470,85968.000,14570,3,AZ,1,100,-0.444
1574944641.524295,86002.333,14588,3,AZ,1,100,-0.453
1574944641.565119,86036.667,14588,3,AZ,1,100,-0.453
1574944641.605943,86071.000,14588,3,AZ,1,100,-0.458
1574944641.647957,86106.333,14606,3,AZ,1,100,-0.454
1574944641.689970,86141.667,14606,3,AZ,1,100,-0.448
1574944641.731983,86177.000,14606,3,AZ,1,100,-0.443
1574944641.771936,86210.600,14628,5,AZ,1,100,-0.463
1574944641.811888,86244.200,14628,5,AZ,1,100,-0.446
1574944641.851840,86277.800,14628,5,AZ,1,100,-0.449
1574944641.891793,86311.400,14628,5,AZ,1,100,-0.446
1574944641.931745,86345.000,14628,5,AZ,1,100,-0.450
1574944641.971380,86378.333,14648,3,AZ,1,100,-0.460
1574944642.011015,86411.667,14648,3,AZ,1,100,-0.453
1574944642.050651,86445.000,14648,3,AZ,1,100,-0.445
1574944642.091079,86479.000,14666,3,AZ,1,100,-0.460
1574944642.131507,86513.000,14666,3,AZ,1,100,-0.444
1574944642.171935,86547.000,14666,3,AZ,1,100,-0.452
1574944642.213552,86582.000,14684,3,AZ,1,100,-0.478
1574944642.255169,86617.000,14684,3,AZ,1,100,-0.440
1574944642.296786,86652.000,14684,3,AZ,1,100,-0.418
1574944642.336421,86685.333,14702,3,AZ,1,100,-0.444
1574944642.376056,86718.667,14702,3,AZ,1,100,-0.449
1574944642.415691,86752.000,14702,3,AZ,1,100,-0.447
1574944642.453345,86783.667,14720,3,AZ,1,100,-0.451
1574944642.490999,86815.333,14720,3,AZ,1,100,-0.472
1574944642.528652,86847.000,14720,3,AZ,1,100,-0.461
1574944642.568287,86880.333,14737,3,AZ,1,100,-0.460
1574944642.607922,86913.667,14737,3,AZ,1,100,-0.464
1574944642.647558,86947.000,14737,3,AZ,1,100,-0.403
1574944642.693336,86985.500,14756,2,AZ,1,100,-0.412
1574944642.739115,87024.000,14756,2,AZ,1,100,-0.379
1574944642.780336,87058.667,14772,3,AZ,1,100,-0.363
1574944642.821556,87093.333,14772,3,AZ,1,100,-0.400
1574944642.862777,87128.000,14772,3,AZ,1,100,-0.417
1574944642.903998,87162.667,14790,3,AZ,1,100,-0.422
1574944642.945218,87197.333,14790,3,AZ,1,100,-0.428
1574944642.986439,87232.000,14790,3,AZ,1,100,-0.420
1574944643.024093,87263.667,14808,3,AZ,1,100,-0.488
1574944643.061746,87295.333,14808,3,AZ,1,100,-0.420
1574944643.099400,87327.000,14808,3,AZ,1,100,-0.299
1574944643.138638,87360.000,14826,4,AZ,1,100,-0.299
1574944643.177877,87393.000,14826,4,AZ,1,100,-0.320
1574944643.217116,87426.000,14826,4,AZ,1,100,-0.311
1574944643.256355,87459.000,14826,4,AZ,1,100,-0.353
1574944643.297378,87493.500,14844,2,AZ,1,100,-0.370
1574944643.338400,87528.000,14844,2,AZ,1,100,-0.348
1574944643.379621,87562.667,14862,3,AZ,1,100,-0.345
1574944643.420841,87597.333,14862,3,AZ,1,100,-0.356
1574944643.462062,87632.000,14862,3,AZ,1,100,-0.345
1574944643.507246,87670.000,14880,3,AZ,1,100,-0.342
1574944643.552430,87708.000,14880,3,AZ,1,100,-0.370
1574944643.597615,87746.000,14880,3,AZ,1,100,-0.350
1574944643.634872,87777.333,14898,3,AZ,1,100,-0.371
1574944643.672129,87808.667,14898,3,AZ,1,100,-0.369
1574944643.709386,87840.000,14898,3,AZ,1,100,-0.342
1574944643.747040,87871.667,14916,3,AZ,1,100,-0.344
1574944643.784693,87903.333,14916,3,AZ,1,100,-0.349
1574944643.822346,87935.000,14916,3,AZ,1,100,-0.352
1574944643.863964,87970.000,14934,3,AZ,1,100,-0.371
1574944643.905581,88005.000,14934,3,AZ,1,100,-0.403
1574944643.947198,88040.000,14934,3,AZ,1,100,-0.383
1574944643.987626,88074.000,14952,3,AZ,1,100,-0.369
1574944644.028054,88108.000,14952,3,AZ,1,100,-0.361
1574944644.068481,88142.000,14952,3,AZ,1,100,-0.362
1574944644.109702,88176.667,14968,3,AZ,1,100,-0.373
1574944644.150923,88211.333,14968,3,AZ,1,100,-0.362
1574944644.192143,88246.000,14968,3,AZ,1,100,-0.367
1574944644.230193,88278.000,14986,3,AZ,1,100,-0.374
1574944644.268243,88310.000,14986,3,AZ,1,100,-0.355
1574944644.306293,88342.000,14986,3,AZ,1,100,-0.359
1574944644.347910,88377.000,15004,3,AZ,1,100,-0.357
1574944644.389527,88412.000,15004,3,AZ,1,100,-0.362
1574944644.431144,88447.000,15004,3,AZ,1,100,-0.375
1574944644.472761,88482.000,15022,3,AZ,1,100,-0.392
1574944644.514378,88517.000,15022,3,AZ,1,100,-0.361
1574944644.555995,88552.000,15022,3,AZ,1,100,-0.374
1574944644.593649,88583.667,15040,3,AZ,1,100,-0.373
1574944644.631302,88615.333,15040,3,AZ,1,100,-0.373
1574944644.668956,88647.000,15040,3,AZ,1,100,-0.380
1574944644.709383,88681.000,15059,3,AZ,1,100,-0.383
1574944644.749811,88715.000,15059,3,AZ,1,100,-0.372
1574944644.790239,88749.000,15059,3,AZ,1,100,-0.359
1574944644.831856,88784.000,15077,3,AZ,1,100,-0.365
1574944644.873473,88819.000,15077,3,AZ,1,100,-0.387
1574944644.915091,88854.000,15077,3,AZ,1,100,-0.376
1574944644.957104,88889.333,15094,3,AZ,1,100,-0.376
1574944644.999117,88924.667,15094,3,AZ,1,100,-0.368
1574944645.041131,88960.000,15094,3,AZ,1,100,-0.366
1574944645.079973,88992.667,15112,3,AZ,1,100,-0.386
1574944645.118816,89025.333,15112,3,AZ,1,100,-0.374
1574944645.157658,89058.000,15112,3,AZ,1,100,-0.371
1574944645.200068,89093.667,15128,3,AZ,1,100,-0.372
1574944645.242478,89129.333,15128,3,AZ,1,100,-0.363
1574944645.284887,89165.000,15128,3,AZ,1,100,-0.367
1574944645.322541,89196.667,15146,3,AZ,1,100,-0.369
1574944645.360194,89228.333,15146,3,AZ,1,100,-0.368
1574944645.397848,89260.000,15146,3,AZ,1,100,-0.364
1574944645.436690,89292.667,15164,3,AZ,1,100,-0.377
1574944645.475533,89325.333,15164,3,AZ,1,100,-0.404
1574944645.514375,89358.000,15164,3,AZ,1,100,-0.400
1574944645.555200,89392.333,15182,3,AZ,1,100,-0.385
1574944645.596024,89426.667,15182,3,AZ,1,100,-0.392
1574944645.636848,89461.000,15182,3,AZ,1,100,-0.396
1574944645.678069,89495.667,15201,3,AZ,1,100,-0.375
1574944645.719290,89530.333,15201,3,AZ,1,100,-0.373
1574944645.760510,89565.000,15201,3,AZ,1,100,-0.383
1574944645.806487,89603.667,15219,3,AZ,1,100,-0.412
1574944645.852464,89642.333,15219,3,AZ,1,100,-0.409
1574944645.898441,89681.000,15219,3,AZ,1,100,-0.399
1574944645.935698,89712.333,15237,3,AZ,1,100,-0.387
1574944645.972955,89743.667,15237,3,AZ,1,100,-0.387
1574944646.010212,89775.000,15237,3,AZ,1,100,-0.391
1574944646.048262,89807.000,15255,3,AZ,1,100,-0.407
1574944646.086312,89839.000,15255,3,AZ,1,100,-0.384
1574944646.124362,89871.000,15255,3,AZ,1,100,-0.385
1574944646.164790,89905.000,15273,3,AZ,1,100,-0.388
1574944646.205218,89939.000,15273,3,AZ,1,100,-0.406
1574944646.245646,89973.000,15273,3,AZ,1,100,-0.432
1574944646.285677,90006.667,15290,3,AZ,1,100,-0.407
1574944646.325709,90040.333,15290,3,AZ,1,100,-0.393
1574944646.365741,90074.000,15290,3,AZ,1,100,-0.400
1574944646.407754,90109.333,15308,3,AZ,1,100,-0.405
1574944646.449767,90144.667,15308,3,AZ,1,100,-0.407
1574944646.491781,90180.000,15308,3,AZ,1,100,-0.407
1574944646.529831,90212.000,15324,3,AZ,1,100,-0.406
1574944646.567881,90244.000,15324,3,AZ,1,100,-0.409
1574944646.605930,90276.000,15324,3,AZ,1,100,-0.408
1574944646.647547,90311.000,15342,3,AZ,1,100,-0.399
1574944646.689164,90346.000,15342,3,AZ,1,100,-0.406
1574944646.730781,90381.000,15342,3,AZ,1,100,-0.419
1574944646.770813,90414.667,15361,3,AZ,1,100,-0.416
1574944646.810845,90448.333,15361,3,AZ,1,100,-0.414
1574944646.850876,90482.000,15361,3,AZ,1,100,-0.412
1574944646.892097,90516.667,15379,3,AZ,1,100,-0.408
1574944646.933318,90551.333,15379,3,AZ,1,100,-0.415
1574944646.974538,90586.000,15379,3,AZ,1,100,-0.414
1574944647.015759,90620.667,15397,3,AZ,1,100,-0.411
1574944647.056979,90655.333,15397,3,AZ,1,100,-0.421
1574944647.098200,90690.000,15397,3,AZ,1,100,-0.409
1574944647.137836,90723.333,15415,3,AZ,1,100,-0.417
1574944647.177471,90756.667,15415,3,AZ,1,100,-0.417
1574944647.217106,90790.000,15415,3,AZ,1,100,-0.416
1574944647.255156,90822.000,15433,3,AZ,1,100,-0.417
1574944647.293206,90854.000,15433,3,AZ,1,100,-0.414
1574944647.331255,90886.000,15433,3,AZ,1,100,-0.416
1574944647.370891,90919.333,15451,3,AZ,1,100,-0.415
1574944647.410526,90952.667,15451,3,AZ,1,100,-0.420
1574944647.450161,90986.000,15451,3,AZ,1,100,-0.413
1574944647.497724,91026.000,15468,2,AZ,1,100,-0.411
1574944647.545286,91066.000,15468,2,AZ,1,100,-0.424
1574944647.585714,91100.000,15486,3,AZ,1,100,-0.420
1574944647.626142,91134.000,15486,3,AZ,1,100,-0.410
1574944647.666570,91168.000,15486,3,AZ,1,100,-0.417
1574944647.706601,91201.667,15503,3,AZ,1,100,-0.423
1574944647.746633,91235.333,15503,3,AZ,1,100,-0.419
1574944647.786664,91269.000,15503,3,AZ,1,100,-0.418
1574944647.824913,91301.167,15524,6,AZ,1,100,-0.417
1574944647.863161,91333.333,15524,6,AZ,1,100,-0.418
1574944647.901409,91365.500,15524,6,AZ,1,100,-0.417
1574944647.939656,91397.667,15524,6,AZ,1,100,-0.419
1574944647.977905,91429.833,15524,6,AZ,1,100,-0.417
1574944648.016153,91462.000,15524,6,AZ,1,100,-0.416
1574944648.057175,91496.500,15544,2,AZ,1,100,-0.416
1574944648.098198,91531.000,15544,2,AZ,1,100,-0.421
1574944648.139418,91565.667,15561,3,AZ,1,100,-0.427
1574944648.180639,91600.333,15561,3,AZ,1,100,-0.417
1574944648.221860,91635.000,15561,3,AZ,1,100,-0.416
1574944648.267440,91673.333,15579,3,AZ,1,100,-0.418
1574944648.313021,91711.667,15579,3,AZ,1,100,-0.425
1574944648.358601,91750.000,15579,3,AZ,1,100,-0.427
1574944648.397048,91782.333,15595,3,AZ,1,100,-0.423
1574944648.435494,91814.667,15595,3,AZ,1,100,-0.422
1574944648.473940,91847.000,15595,3,AZ,1,100,-0.422
1574944648.518331,91884.333,15613,3,AZ,1,100,-0.424
1574944648.562723,91921.667,15613,3,AZ,1,100,-0.421
1574944648.607114,91959.000,15613,3,AZ,1,100,-0.422
1574944648.645164,91991.000,15631,3,AZ,1,100,-0.422
1574944648.683214,92023.000,15631,3,AZ,1,100,-0.427
1574944648.721264,92055.000,15631,3,AZ,1,100,-0.425
1574944648.758125,92086.000,15650,3,AZ,1,100,-0.422
1574944648.794985,92117.000,15650,3,AZ,1,100,-0.427
1574944648.831846,92148.000,15650,3,AZ,1,100,-0.426
1574944648.873067,92182.667,15668,3,AZ,1,100,-0.428
1574944648.914288,92217.333,15668,3,AZ,1,100,-0.427
1574944648.955508,92252.000,15668,3,AZ,1,100,-0.423
1574944648.993954,92284.333,15686,3,AZ,1,100,-0.425
1574944649.032401,92316.667,15686,3,AZ,1,100,-0.426
1574944649.070847,92349.000,15686,3,AZ,1,100,-0.432
1574944649.111671,92383.333,15704,3,AZ,1,100,-0.432
1574944649.152495,92417.667,15704,3,AZ,1,100,-0.428
1574944649.193320,92452.000,15704,3,AZ,1,100,-0.429
1574944649.234540,92486.667,15722,3,AZ,1,100,-0.432
1574944649.275761,92521.333,15722,3,AZ,1,100,-0.429
1574944649.316982,92556.000,15722,3,AZ,1,100,-0.430
1574944649.358202,92590.667,15739,3,AZ,1,100,-0.430
1574944649.399423,92625.333,15739,3,AZ,1,100,-0.427
1574944649.440644,92660.000,15739,3,AZ,1,100,-0.433
1574944649.479090,92692.333,15757,3,AZ,1,100,-0.428
1574944649.517536,92724.667,15757,3,AZ,1,100,-0.432
1574944649.555982,92757.000,15757,3,AZ,1,100,-0.430
1574944649.594032,92789.000,15775,3,AZ,1,100,-0.430
1574944649.632082,92821.000,15775,3,AZ,1,100,-0.428
1574944649.670132,92853.000,15775,3,AZ,1,100,-0.432
1574944649.714523,92890.333,15792,3,AZ,1,100,-0.434
1574944649.758915,92927.667,15792,3,AZ,1,100,-0.422
1574944649.803306,92965.000,15792,3,AZ,1,100,-0.430
1574944649.844527,92999.667,15810,3,AZ,1,100,-0.438
1574944649.885747,93034.333,15810,3,AZ,1,100,-0.431
1574944649.926968,93069.000,15810,3,AZ,1,100,-0.427
1574944649.968585,93104.000,15828,2,AZ,1,100,-0.432
1574944650.010202,93139.000,15828,2,AZ,1,100,-0.433
1574944650.048549,93171.250,15846,4,AZ,1,100,-0.426
1574944650.086896,93203.500,15846,4,AZ,1,100,-0.430
1574944650.125243,93235.750,15846,4,AZ,1,100,-0.432
1574944650.163591,93268.000,15846,4,AZ,1,100,-0.434
1574944650.202433,93300.667,15864,3,AZ,1,100,-0.414
1574944650.241276,93333.333,15864,3,AZ,1,100,-0.436
1574944650.280118,93366.000,15864,3,AZ,1,100,-0.425
1574944650.320150,93399.667,15882,3,AZ,1,100,-0.428
1574944650.360182,93433.333,15882,3,AZ,1,100,-0.444
1574944650.400213,93467.000,15882,3,AZ,1,100,-0.429
1574944650.441037,93501.333,15900,3,AZ,1,100,-0.439
1574944650.481862,93535.667,15900,3,AZ,1,100,-0.433
1574944650.522686,93570.000,15900,3,AZ,1,100,-0.419
1574944650.570248,93610.000,15917,2,AZ,1,100,-0.417
1574944650.617811,93650.000,15917,2,AZ,1,100,-0.443
1574944650.657049,93683.000,15935,3,AZ,1,100,-0.431
1574944650.696288,93716.000,15935,3,AZ,1,100,-0.419
1574944650.735527,93749.000,15935,3,AZ,1,100,-0.466
1574944650.772983,93780.500,15954,4,AZ,1,100,-0.422
1574944650.810438,93812.000,15954,4,AZ,1,100,-0.404
1574944650.847893,93843.500,15954,4,AZ,1,100,-0.438
1574944650.885349,93875.000,15954,4,AZ,1,100,-0.455
1574944650.926173,93909.333,15970,3,AZ,1,100,-0.444
1574944650.966997,93943.667,15970,3,AZ,1,100,-0.446
1574944651.007822,93978.000,15970,3,AZ,1,100,-0.420
1574944651.049042,94012.667,15988,3,AZ,1,100,-0.406
1574944651.090263,94047.333,15988,3,AZ,1,100,-0.444
1574944651.131484,94082.000,15988,3,AZ,1,100,-0.426
1574944651.173100,94117.000,16006,2,AZ,1,100,-0.480
1574944651.214718,94152.000,16006,2,AZ,1,100,-0.464
1574944651.254749,94185.667,16024,3,AZ,1,100,-0.429
1574944651.294781,94219.333,16024,3,AZ,1,100,-0.419
1574944651.334812,94253.000,16024,3,AZ,1,100,-0.442
1574944651.372070,94284.333,16042,3,AZ,1,100,-0.439
1574944651.409327,94315.667,16042,3,AZ,1,100,-0.467
1574944651.446584,94347.000,16042,3,AZ,1,100,-0.455
1574944651.490183,94383.667,16060,3,AZ,1,100,-0.440
1574944651.533781,94420.333,16060,3,AZ,1,100,-0.435
1574944651.577380,94457.000,16060,3,AZ,1,100,-0.443
1574944651.617808,94491.000,16078,3,AZ,1,100,-0.444
1574944651.658236,94525.000,16078,3,AZ,1,100,-0.453
1574944651.698664,94559.000,16078,3,AZ,1,100,-0.450
1574944651.739488,94593.333,16096,3,AZ,1,100,-0.443
1574944651.780313,94627.667,16096,3,AZ,1,100,-0.446
1574944651.821137,94662.000,16096,3,AZ,1,100,-0.445
1574944651.861565,94696.000,16114,3,AZ,1,100,-0.445
1574944651.901993,94730.000,16114,3,AZ,1,100,-0.444
1574944651.942421,94764.000,16114,3,AZ,1,100,-0.445
1574944651.979876,94795.500,16132,4,AZ,1,100,-0.444
1574944652.017331,94827.000,16132,4,AZ,1,100,-0.443
1574944652.054787,94858.500,16132,4,AZ,1,100,-0.447
1574944652.092242,94890.000,16132,4,AZ,1,100,-0.443
1574944652.131481,94923.000,16150,2,AZ,1,100,-0.444
1574944652.170720,94956.000,16150,2,AZ,1,100,-0.443
1574944652.215111,94993.333,16166,3,AZ,1,100,-0.444
1574944652.259503,95030.667,16166,3,AZ,1,100,-0.450
1574944652.303894,95068.000,16166,3,AZ,1,100,-0.441
1574944652.341944,95100.000,16184,3,AZ,1,100,-0.448
1574944652.379994,95132.000,16184,3,AZ,1,100,-0.452
1574944652.418044,95164.000,16184,3,AZ,1,100,-0.445
1574944652.463624,95202.333,16202,3,AZ,1,100,-0.444
1574944652.509205,95240.667,16202,3,AZ,1,100,-0.448
1574944652.554785,95279.000,16202,3,AZ,1,100,-0.449
1574944652.592043,95310.333,16220,3,AZ,1,100,-0.446
1574944652.629300,95341.667,16220,3,AZ,1,100,-0.449
1574944652.666557,95373.000,16220,3,AZ,1,100,-0.444
1574944652.711345,95410.667,16239,3,AZ,1,100,-0.443
1574944652.756133,95448.333,16239,3,AZ,1,100,-0.454
1574944652.800920,95486.000,16239,3,AZ,1,100,-0.449
1574944652.842537,95521.000,16256,3,AZ,1,100,-0.443
1574944652.884154,95556.000,16256,3,AZ,1,100,-0.447
1574944652.925771,95591.000,16256,3,AZ,1,100,-0.445
1574944652.965010,95624.000,16274,3,AZ,1,100,-0.446
1574944653.004249,95657.000,16274,3,AZ,1,100,-0.450
1574944653.043488,95690.000,16274,3,AZ,1,100,-0.447
1574944653.082331,95722.667,16292,3,AZ,1,100,-0.448
1574944653.121173,95755.333,16292,3,AZ,1,100,-0.442
1574944653.160016,95788.000,16292,3,AZ,1,100,-0.449
1574944653.198858,95820.667,16310,3,AZ,1,100,-0.458
1574944653.237701,95853.333,16310,3,AZ,1,100,-0.451
1574944653.276543,95886.000,16310,3,AZ,1,100,-0.445
1574944653.317764,95920.667,16326,3,AZ,1,100,-0.450
1574944653.358985,95955.333,16326,3,AZ,1,100,-0.453
1574944653.400205,95990.000,16326,3,AZ,1,100,-0.449
1574944653.441822,96025.000,16344,3,AZ,1,100,-0.444
1574944653.483439,96060.000,16344,3,AZ,1,100,-0.448
1574944653.525056,96095.000,16344,3,AZ,1,100,-0.454
1574944653.566079,96129.500,16362,2,AZ,1,100,-0.449
1574944653.607101,96164.000,16362,2,AZ,1,100,-0.447
1574944653.645151,96196.000,16380,4,AZ,1,100,-0.448
1574944653.683201,96228.000,16380,4,AZ,1,100,-0.443
1574944653.721251,96260.000,16380,4,AZ,1,100,-0.435
1574944653.759301,96292.000,16380,4,AZ,1,100,-0.452
1574944653.801710,96327.667,16399,3,AZ,1,100,-0.460
1574944653.844120,96363.333,16399,3,AZ,1,100,-0.449
1574944653.886530,96399.000,16399,3,AZ,1,100,-0.440
1574944653.927255,96433.250,16420,4,AZ,1,100,-0.452
1574944653.967980,96467.500,16420,4,AZ,1,100,-0.447
1574944654.008706,96501.750,16420,4,AZ,1,100,-0.449
1574944654.049431,96536.000,16420,4,AZ,1,100,-0.450
1574944654.090255,96570.333,16440,3,AZ,1,100,-0.455
1574944654.131079,96604.667,16440,3,AZ,1,100,-0.448
1574944654.171904,96639.000,16440,3,AZ,1,100,-0.448
1574944654.211935,96672.667,16458,3,AZ,1,100,-0.456
1574944654.251967,96706.333,16458,3,AZ,1,100,-0.454
1574944654.291999,96740.000,16458,3,AZ,1,100,-0.447
1574944654.329751,96771.750,16476,4,AZ,1,100,-0.455
1574944654.367504,96803.500,16476,4,AZ,1,100,-0.454
1574944654.405256,96835.250,16476,4,AZ,1,100,-0.455
1574944654.443009,96867.000,16476,4,AZ,1,100,-0.453
1574944654.488788,96905.500,16494,2,AZ,1,100,-0.451
1574944654.534566,96944.000,16494,2,AZ,1,100,-0.449
1574944654.576183,96979.000,16512,3,AZ,1,100,-0.456
1574944654.617800,97014.000,16512,3,AZ,1,100,-0.452
1574944654.659417,97049.000,16512,3,AZ,1,100,-0.447
1574944654.700242,97083.333,16531,3,AZ,1,100,-0.455
1574944654.741066,97117.667,16531,3,AZ,1,100,-0.453
1574944654.781890,97152.000,16531,3,AZ,1,100,-0.455
1574944654.821526,97185.333,16548,3,AZ,1,100,-0.449
1574944654.861161,97218.667,16548,3,AZ,1,100,-0.450
1574944654.900796,97252.000,16548,3,AZ,1,100,-0.456
1574944654.939242,97284.333,16566,3,AZ,1,100,-0.460
1574944654.977689,97316.667,16566,3,AZ,1,100,-0.456
1574944655.016135,97349.000,16566,3,AZ,1,100,-0.453
1574944655.055770,97382.333,16584,3,AZ,1,100,-0.453
1574944655.095405,97415.667,16584,3,AZ,1,100,-0.453
1574944655.135040,97449.000,16584,3,AZ,1,100,-0.460
1574944655.176657,97484.000,16600,3,AZ,1,100,-0.449
1574944655.218274,97519.000,16600,3,AZ,1,100,-0.450
1574944655.259892,97554.000,16600,3,AZ,1,100,-0.472
1574944655.304679,97591.667,16618,3,AZ,1,100,-0.451
1574944655.349467,97629.333,16618,3,AZ,1,100,-0.441
1574944655.394255,97667.000,16618,3,AZ,1,100,-0.465
1574944655.433494,97700.000,16636,3,AZ,1,100,-0.460
1574944655.472733,97733.000,16636,3,AZ,1,100,-0.455
1574944655.511972,97766.000,16636,3,AZ,1,100,-0.427
1574944655.548832,97797.000,16654,3,AZ,1,100,-0.454
1574944655.585693,97828.000,16654,3,AZ,1,100,-0.496
1574944655.622554,97859.000,16654,3,AZ,1,100,-0.416
1574944655.663378,97893.333,16673,3,AZ,1,100,-0.424
1574944655.704203,97927.667,16673,3,AZ,1,100,-0.493
1574944655.745027,97962.000,16673,3,AZ,1,100,-0.500
1574944655.785455,97996.000,16691,3,AZ,1,100,-0.425
1574944655.825883,98030.000,16691,3,AZ,1,100,-0.412
1574944655.866311,98064.000,16691,3,AZ,1,100,-0.363
1574944655.907531,98098.667,16709,3,AZ,1,100,-0.396
1574944655.948752,98133.333,16709,3,AZ,1,100,-0.437
1574944655.989973,98168.000,16709,3,AZ,1,100,-0.449
1574944656.030797,98202.333,16726,3,AZ,1,100,-0.417
1574944656.071621,98236.667,16726,3,AZ,1,100,-0.433
1574944656.112446,98271.000,16726,3,AZ,1,100,-0.475
1574944656.153666,98305.667,16744,3,AZ,1,100,-0.461
1574944656.194887,98340.333,16744,3,AZ,1,100,-0.446
1574944656.236108,98375.000,16744,3,AZ,1,100,-0.443
1574944656.276536,98409.000,16762,3,AZ,1,100,-0.444
1574944656.316964,98443.000,16762,3,AZ,1,100,-0.441
1574944656.357392,98477.000,16762,3,AZ,1,100,-0.439
1574944656.395442,98509.000,16780,3,AZ,1,100,-0.448
1574944656.433491,98541.000,16780,3,AZ,1,100,-0.478
1574944656.471541,98573.000,16780,3,AZ,1,100,-0.441
1574944656.509195,98604.667,16796,3,AZ,1,100,-0.424
1574944656.546848,98636.333,16796,3,AZ,1,100,-0.420
1574944656.584502,98668.000,16796,3,AZ,1,100,-0.418
1574944656.622155,98699.667,16814,3,AZ,1,100,-0.445
1574944656.659809,98731.333,16814,3,AZ,1,100,-0.481
1574944656.697462,98763.000,16814,3,AZ,1,100,-0.443
1574944656.741457,98800.000,16833,3,AZ,1,100,-0.431
1574944656.785452,98837.000,16833,3,AZ,1,100,-0.443
1574944656.829448,98874.000,16833,3,AZ,1,100,-0.439
1574944656.870668,98908.667,16851,3,AZ,1,100,-0.445
1574944656.911889,98943.333,16851,3,AZ,1,100,-0.464
1574944656.953110,98978.000,16851,3,AZ,1,100,-0.438
1574944656.994330,99012.667,16869,3,AZ,1,100,-0.438
1574944657.035551,99047.333,16869,3,AZ,1,100,-0.453
1574944657.076771,99082.000,16869,3,AZ,1,100,-0.448
1574944657.116010,99115.000,16887,3,AZ,1,100,-0.455
1574944657.155249,99148.000,16887,3,AZ,1,100,-0.442
1574944657.194488,99181.000,16887,3,AZ,1,100,-0.440
1574944657.232934,99213.333,16905,3,AZ,1,100,-0.453
1574944657.271380,99245.667,16905,3,AZ,1,100,-0.450
1574944657.309827,99278.000,16905,3,AZ,1,100,-0.454
1574944657.349462,99311.333,16922,3,AZ,1,100,-0.456
1574944657.389097,99344.667,16922,3,AZ,1,100,-0.447
1574944657.428732,99378.000,16922,3,AZ,1,100,-0.456
1574944657.470350,99413.000,16940,3,AZ,1,100,-0.457
1574944657.511966,99448.000,16940,3,AZ,1,100,-0.459
1574944657.553584,99483.000,16940,3,AZ,1,100,-0.459
1574944657.599957,99522.000,16956,2,AZ,1,100,-0.447
1574944657.646330,99561.000,16956,2,AZ,1,100,-0.454
1574944657.686163,99594.500,16975,4,AZ,1,100,-0.464
1574944657.725997,99628.000,16975,4,AZ,1,100,-0.450
1574944657.765830,99661.500,16975,4,AZ,1,100,-0.456
1574944657.805664,99695.000,16975,4,AZ,1,100,-0.448
1574944657.843317,99726.667,16993,3,AZ,1,100,-0.460
1574944657.880971,99758.333,16993,3,AZ,1,100,-0.456
1574944657.918624,99790.000,16993,3,AZ,1,100,-0.448
1574944657.958259,99823.333,17011,3,AZ,1,100,-0.451
1574944657.997895,99856.667,17011,3,AZ,1,100,-0.456
1574944658.037530,99890.000,17011,3,AZ,1,100,-0.469
1574944658.077958,99924.000,17029,3,AZ,1,100,-0.455
1574944658.118386,99958.000,17029,3,AZ,1,100,-0.459
1574944658.158814,99992.000,17029,3,AZ,1,100,-0.465
1574944658.200431,100027.000,17047,3,AZ,1,100,-0.447
1574944658.242048,100062.000,17047,3,AZ,1,100,-0.462
1574944658.283665,100097.000,17047,3,AZ,1,100,-0.453
1574944658.324687,100131.500,17065,2,AZ,1,100,-0.463
1574944658.365710,100166.000,17065,2,AZ,1,100,-0.454
1574944658.406435,100200.250,17083,4,AZ,1,100,-0.452
1574944658.447160,100234.500,17083,4,AZ,1,100,-0.466
1574944658.487885,100268.750,17083,4,AZ,1,100,-0.464
1574944658.528611,100303.000,17083,4,AZ,1,100,-0.463
1574944658.567255,100335.500,17100,2,AZ,1,100,-0.461
1574944658.605900,100368.000,17100,2,AZ,1,100,-0.461
1574944658.646625,100402.250,17119,4,AZ,1,100,-0.454
1574944658.687350,100436.500,17119,4,AZ,1,100,-0.455
1574944658.728075,100470.750,17119,4,AZ,1,100,-0.462
1574944658.768800,100505.000,17119,4,AZ,1,100,-0.471
1574944658.810417,100540.000,17135,2,AZ,1,100,-0.469
1574944658.852034,100575.000,17135,2,AZ,1,100,-0.473
1574944658.893255,100609.667,17153,3,AZ,1,100,-0.453
1574944658.934476,100644.333,17153,3,AZ,1,100,-0.468
1574944658.975696,100679.000,17153,3,AZ,1,100,-0.465
1574944659.014044,100711.250,17171,4,AZ,1,100,-0.470
1574944659.052391,100743.500,17171,4,AZ,1,100,-0.465
1574944659.090738,100775.750,17171,4,AZ,1,100,-0.465
1574944659.129085,100808.000,17171,4,AZ,1,100,-0.460
1574944659.167927,100840.667,17189,3,AZ,1,100,-0.466
1574944659.206770,100873.333,17189,3,AZ,1,100,-0.473
1574944659.245612,100906.000,17189,3,AZ,1,100,-0.477
1574944659.292580,100945.500,17207,2,AZ,1,100,-0.459
1574944659.339548,100985.000,17207,2,AZ,1,100,-0.460
1574944659.379976,101019.000,17225,3,AZ,1,100,-0.469
1574944659.420404,101053.000,17225,3,AZ,1,100,-0.461
1574944659.460832,101087.000,17225,3,AZ,1,100,-0.476
1574944659.502053,101121.667,17243,3,AZ,1,100,-0.472
1574944659.543273,101156.333,17243,3,AZ,1,100,-0.456
1574944659.584494,101191.000,17243,3,AZ,1,100,-0.474
1574944659.622940,101223.333,17261,3,AZ,1,100,-0.467
1574944659.661386,101255.667,17261,3,AZ,1,100,-0.463
1574944659.699832,101288.000,17261,3,AZ,1,100,-0.469
1574944659.737090,101319.333,17280,3,AZ,1,100,-0.467
1574944659.774347,101350.667,17280,3,AZ,1,100,-0.463
1574944659.811604,101382.000,17280,3,AZ,1,100,-0.467
1574944659.852032,101416.000,17297,3,AZ,1,100,-0.462
1574944659.892460,101450.000,17297,3,AZ,1,100,-0.471
1574944659.932888,101484.000,17297,3,AZ,1,100,-0.468
1574944659.976407,101520.600,17318,5,AZ,1,100,-0.468
1574944660.019927,101557.200,17318,5,AZ,1,100,-0.468
1574944660.063446,101593.800,17318,5,AZ,1,100,-0.467
1574944660.106966,101630.400,17318,5,AZ,1,100,-0.461
1574944660.150485,101667.000,17318,5,AZ,1,100,-0.471
1574944660.188535,101699.000,17336,3,AZ,1,100,-0.477
1574944660.226585,101731.000,17336,3,AZ,1,100,-0.472
1574944660.264635,101763.000,17336,3,AZ,1,100,-0.478
1574944660.306252,101798.000,17356,2,AZ,1,100,-0.470
1574944660.347869,101833.000,17356,2,AZ,1,100,-0.466
1574944660.390080,101868.500,17373,4,AZ,1,100,-0.480
1574944660.432292,101904.000,17373,4,AZ,1,100,-0.474
1574944660.474504,101939.500,17373,4,AZ,1,100,-0.472
1574944660.516715,101975.000,17373,4,AZ,1,100,-0.468
1574944660.553972,102006.333,17391,3,AZ,1,100,-0.468
1574944660.591229,102037.667,17391,3,AZ,1,100,-0.473
1574944660.628486,102069.000,17391,3,AZ,1,100,-0.473
1574944660.670103,102104.000,17409,3,AZ,1,100,-0.469
1574944660.711720,102139.000,17409,3,AZ,1,100,-0.468
1574944660.753337,102174.000,17409,3,AZ,1,100,-0.477
1574944660.790991,102205.667,17426,3,AZ,1,100,-0.466
1574944660.828645,102237.333,17426,3,AZ,1,100,-0.480
1574944660.866298,102269.000,17426,3,AZ,1,100,-0.473
1574944660.906726,102303.000,17444,3,AZ,1,100,-0.461
1574944660.947154,102337.000,17444,3,AZ,1,100,-0.471
1574944660.987582,102371.000,17444,3,AZ,1,100,-0.477
1574944661.029199,102406.000,17462,3,AZ,1,100,-0.471
1574944661.070816,102441.000,17462,3,AZ,1,100,-0.465
1574944661.112433,102476.000,17462,3,AZ,1,100,-0.471
1574944661.154050,102511.000,17480,3,AZ,1,100,-0.467
1574944661.195667,102546.000,17480,3,AZ,1,100,-0.475
1574944661.237284,102581.000,17480,3,AZ,1,100,-0.470
1574944661.276919,102614.333,17498,3,AZ,1,100,-0.464
1574944661.316554,102647.667,17498,3,AZ,1,100,-0.473
1574944661.356190,102681.000,17498,3,AZ,1,100,-0.475
1574944661.393843,102712.667,17516,3,AZ,1,100,-0.469
1574944661.431497,102744.333,17516,3,AZ,1,100,-0.467
1574944661.469150,102776.000,17516,3,AZ,1,100,-0.470
1574944661.509578,102810.000,17534,2,AZ,1,100,-0.466
1574944661.550006,102844.000,17534,2,AZ,1,100,-0.473
1574944661.594398,102881.333,17551,3,AZ,1,100,-0.480
1574944661.638789,102918.667,17551,3,AZ,1,100,-0.460
1574944661.683181,102956.000,17551,3,AZ,1,100,-0.461
1574944661.724005,102990.333,17570,3,AZ,1,100,-0.484
1574944661.764829,103024.667,17570,3,AZ,1,100,-0.473
1574944661.805653,103059.000,17570,3,AZ,1,100,-0.466
1574944661.846081,103093.000,17586,3,AZ,1,100,-0.473
1574944661.886509,103127.000,17586,3,AZ,1,100,-0.468
1574944661.926937,103161.000,17586,3,AZ,1,100,-0.471
1574944661.964987,103193.000,17604,4,AZ,1,100,-0.473
1574944662.003037,103225.000,17604,4,AZ,1,100,-0.468
1574944662.041087,103257.000,17604,4,AZ,1,100,-0.463
1574944662.079137,103289.000,17604,4,AZ,1,100,-0.473
1574944662.117979,103321.667,17622,3,AZ,1,100,-0.475
1574944662.156822,103354.333,17622,3,AZ,1,100,-0.470
1574944662.195664,103387.000,17622,3,AZ,1,100,-0.465
1574944662.236687,103421.500,17640,2,AZ,1,100,-0.462
1574944662.277709,103456.000,17640,2,AZ,1,100,-0.478
1574944662.322101,103493.333,17658,3,AZ,1,100,-0.479
1574944662.366492,103530.667,17658,3,AZ,1,100,-0.466
1574944662.410884,103568.000,17658,3,AZ,1,100,-0.465
1574944662.452104,103602.667,17676,3,AZ,1,100,-0.469
1574944662.493325,103637.333,17676,3,AZ,1,100,-0.473
1574944662.534546,103672.000,17676,3,AZ,1,100,-0.474
