EpochTimestamp,EmotiBitTimestamp,PacketNumber,DataLength,TypeTag,ProtocolVersion,DataReliability,ER
1574943913.923185,153169.000,26009,3,ER,1,100,1.694271
1574943913.923185,153169.000,26009,3,ER,1,100,1.705994
1574943913.923185,153169.000,26009,3,ER,1,100,1.699065
1574943913.991921,153227.000,26027,1,ER,1,100,1.695520
1574943914.059473,153284.000,26044,2,ER,1,100,1.695278
1574943914.127024,153341.000,26044,2,ER,1,100,1.691089
1574943914.196353,153399.500,26062,2,ER,1,100,1.692418
1574943914.265683,153458.000,26062,2,ER,1,100,1.689880
1574943914.332049,153514.000,26078,2,ER,1,100,1.681300
1574943914.398416,153570.000,26078,2,ER,1,100,1.677715
1574943914.460042,153622.000,26097,1,ER,1,100,1.678883
1574943914.525223,153677.000,26115,2,ER,1,100,1.677352
1574943914.590404,153732.000,26115,2,ER,1,100,1.672720
1574943914.657363,153788.500,26133,2,ER,1,100,1.664744
1574943914.724322,153845.000,26133,2,ER,1,100,1.664744
1574943914.793651,153903.500,26151,2,ER,1,100,1.659869
1574943914.862980,153962.000,26151,2,ER,1,100,1.656325
1574943914.929347,154018.000,26169,2,ER,1,100,1.651893
1574943914.995713,154074.000,26169,2,ER,1,100,1.651893
1574943915.058524,154127.000,26187,1,ER,1,100,1.652981
1574943915.121928,154180.500,26204,2,ER,1,100,1.650161
1574943915.185331,154234.000,26204,2,ER,1,100,1.651209
1574943915.251105,154289.500,26222,2,ER,1,100,1.648590
1574943915.316879,154345.000,26222,2,ER,1,100,1.650765
1574943915.385616,154403.000,26240,2,ER,1,100,1.649275
1574943915.454352,154461.000,26240,2,ER,1,100,1.650362
1574943915.523681,154519.500,26257,2,ER,1,100,1.647422
1574943915.593011,154578.000,26257,2,ER,1,100,1.649879
1574943915.655822,154631.000,26275,1,ER,1,100,1.652095
1574943915.719225,154684.500,26293,2,ER,1,100,1.652699
1574943915.782629,154738.000,26293,2,ER,1,100,1.656566
1574943915.850180,154795.000,26311,2,ER,1,100,1.657009
1574943915.917732,154852.000,26311,2,ER,1,100,1.662004
1574943915.985284,154909.000,26329,2,ER,1,100,1.660071
1574943916.052835,154966.000,26329,2,ER,1,100,1.664945
1574943916.122757,155025.000,26347,2,ER,1,100,1.665308
1574943916.192678,155084.000,26347,2,ER,1,100,1.669417
1574943916.256675,155138.000,26365,1,ER,1,100,1.669698
1574943916.318301,155190.000,26383,2,ER,1,100,1.668772
1574943916.379927,155242.000,26383,2,ER,1,100,1.674009
1574943916.447478,155299.000,26401,2,ER,1,100,1.674855
1574943916.515030,155356.000,26401,2,ER,1,100,1.678641
1574943916.583174,155413.500,26419,2,ER,1,100,1.677433
1574943916.651318,155471.000,26419,2,ER,1,100,1.684926
1574943916.718277,155527.500,26435,2,ER,1,100,1.688712
1574943916.785236,155584.000,26435,2,ER,1,100,1.690686
1574943916.848639,155637.500,26453,2,ER,1,100,1.691129
1574943916.912043,155691.000,26453,2,ER,1,100,1.690364
1574943916.978409,155747.000,26471,1,ER,1,100,1.690202
1574943917.042998,155801.500,26489,2,ER,1,100,1.683757
1574943917.107587,155856.000,26489,2,ER,1,100,1.690082
1574943917.177509,155915.000,26507,2,ER,1,100,1.696567
1574943917.247430,155974.000,26507,2,ER,1,100,1.703133
1574943917.317352,156033.000,26525,2,ER,1,100,1.696205
1574943917.387274,156092.000,26525,2,ER,1,100,1.696567
1574943917.448900,156144.000,26544,2,ER,1,100,1.697051
1574943917.510526,156196.000,26544,2,ER,1,100,1.698702
1574943917.576892,156252.000,26562,1,ER,1,100,1.701361
1574943917.639703,156305.000,26579,2,ER,1,100,1.702046
1574943917.702514,156358.000,26579,2,ER,1,100,1.701442
1574943917.770658,156415.500,26597,2,ER,1,100,1.700676
1574943917.838802,156473.000,26597,2,ER,1,100,1.702207
1574943917.908131,156531.500,26615,2,ER,1,100,1.697252
1574943917.977461,156590.000,26615,2,ER,1,100,1.696366
1574943918.041457,156644.000,26631,2,ER,1,100,1.696124
1574943918.105453,156698.000,26631,2,ER,1,100,1.695439
1574943918.170634,156753.000,26649,1,ER,1,100,1.695883
1574943918.233445,156806.000,26667,2,ER,1,100,1.696044
1574943918.296256,156859.000,26667,2,ER,1,100,1.698904
1574943918.364993,156917.000,26686,2,ER,1,100,1.694916
1574943918.433730,156975.000,26686,2,ER,1,100,1.694714
1574943918.503059,157033.500,26704,2,ER,1,100,1.695963
1574943918.572388,157092.000,26704,2,ER,1,100,1.695077
1574943918.638754,157148.000,26722,2,ER,1,100,1.690082
1574943918.705121,157204.000,26722,2,ER,1,100,1.691331
1574943918.769117,157258.000,26740,1,ER,1,100,1.691210
1574943918.831928,157311.000,26758,2,ER,1,100,1.693022
1574943918.894739,157364.000,26758,2,ER,1,100,1.692982
1574943918.961698,157420.500,26775,2,ER,1,100,1.689276
1574943919.028657,157477.000,26775,2,ER,1,100,1.697051
1574943919.097986,157535.500,26793,2,ER,1,100,1.694352
1574943919.167315,157594.000,26793,2,ER,1,100,1.696567
1574943919.235460,157651.500,26809,2,ER,1,100,1.695319
1574943919.303604,157709.000,26809,2,ER,1,100,1.696406
1574943919.367600,157763.000,26827,1,ER,1,100,1.694311
1574943919.429818,157815.500,26846,2,ER,1,100,1.688712
1574943919.492037,157868.000,26846,2,ER,1,100,1.690082
1574943919.559588,157925.000,26864,2,ER,1,100,1.694271
1574943919.627140,157982.000,26864,2,ER,1,100,1.691008
1574943919.694691,158039.000,26882,2,ER,1,100,1.672841
1574943919.762243,158096.000,26882,2,ER,1,100,1.668329
1574943919.829794,158153.000,26903,3,ER,1,100,1.798605
1574943919.897346,158210.000,26903,3,ER,1,100,1.773629
1574943919.964897,158267.000,26903,3,ER,1,100,1.760255
1574943920.025931,158318.500,26923,2,ER,1,100,1.744988
1574943920.086964,158370.000,26923,2,ER,1,100,1.731211
1574943920.156886,158429.000,26941,1,ER,1,100,1.761021
1574943920.223252,158485.000,26959,2,ER,1,100,1.742893
1574943920.289619,158541.000,26959,2,ER,1,100,1.747808
1574943920.358948,158599.500,26977,2,ER,1,100,1.644199
1574943920.428277,158658.000,26977,2,ER,1,100,1.719126
1574943920.496421,158715.500,26996,2,ER,1,100,1.758966
1574943920.564565,158773.000,26996,2,ER,1,100,1.752521
1574943920.626191,158825.000,27014,2,ER,1,100,1.724846
1574943920.687817,158877.000,27014,2,ER,1,100,1.726417
1574943920.752998,158932.000,27032,1,ER,1,100,1.733547
1574943920.819957,158988.500,27049,2,ER,1,100,1.706316
1574943920.886916,159045.000,27049,2,ER,1,100,1.693063
1574943920.955653,159103.000,27067,2,ER,1,100,1.692056
1574943921.024390,159161.000,27067,2,ER,1,100,1.699186
1574943921.093126,159219.000,27083,2,ER,1,100,1.687624
1574943921.161863,159277.000,27083,2,ER,1,100,1.676144
1574943921.222896,159328.500,27101,2,ER,1,100,1.673686
1574943921.283930,159380.000,27101,2,ER,1,100,1.674412
1574943921.347926,159434.000,27119,1,ER,1,100,1.663132
1574943921.415477,159491.000,27138,2,ER,1,100,1.637432
1574943921.483029,159548.000,27138,2,ER,1,100,1.623292
1574943921.550580,159605.000,27156,2,ER,1,100,1.608186
1574943921.618132,159662.000,27156,2,ER,1,100,1.594127
1574943921.689239,159722.000,27174,2,ER,1,100,1.579424
1574943921.760345,159782.000,27174,2,ER,1,100,1.564640
1574943921.823749,159835.500,27192,2,ER,1,100,1.537529
1574943921.887153,159889.000,27192,2,ER,1,100,1.508485
1574943921.951149,159943.000,27210,1,ER,1,100,1.486531
1574943922.016330,159998.000,27227,2,ER,1,100,1.475654
1574943922.081511,160053.000,27227,2,ER,1,100,1.462723
1574943922.149656,160110.500,27245,2,ER,1,100,1.456278
1574943922.217800,160168.000,27245,2,ER,1,100,1.446127
1574943922.287129,160226.500,27263,2,ER,1,100,1.437425
1574943922.356458,160285.000,27263,2,ER,1,100,1.431504
1574943922.420454,160339.000,27280,2,ER,1,100,1.426751
1574943922.484450,160393.000,27280,2,ER,1,100,1.425703
1574943922.548446,160447.000,27298,1,ER,1,100,1.428644
1574943922.611850,160500.500,27316,2,ER,1,100,1.432350
1574943922.675254,160554.000,27316,2,ER,1,100,1.438433
1574943922.742805,160611.000,27334,2,ER,1,100,1.440769
1574943922.810357,160668.000,27334,2,ER,1,100,1.446368
1574943922.879686,160726.500,27352,2,ER,1,100,1.441534
1574943922.949015,160785.000,27352,2,ER,1,100,1.438715
1574943923.013604,160839.500,27370,2,ER,1,100,1.433760
1574943923.078192,160894.000,27370,2,ER,1,100,1.441373
1574943923.141596,160947.500,27388,2,ER,1,100,1.448866
1574943923.205000,161001.000,27388,2,ER,1,100,1.456641
1574943923.267811,161054.000,27406,1,ER,1,100,1.471545
1574943923.337140,161112.500,27424,2,ER,1,100,1.478031
1574943923.406469,161171.000,27424,2,ER,1,100,1.486732
1574943923.475798,161229.500,27442,2,ER,1,100,1.490479
1574943923.545128,161288.000,27442,2,ER,1,100,1.500831
1574943923.610901,161343.500,27458,2,ER,1,100,1.507438
1574943923.676675,161399.000,27458,2,ER,1,100,1.515212
1574943923.739486,161452.000,27476,2,ER,1,100,1.525686
1574943923.802297,161505.000,27476,2,ER,1,100,1.534709
1574943923.866294,161559.000,27494,1,ER,1,100,1.545223
1574943923.934438,161616.500,27512,2,ER,1,100,1.551830
1574943924.002582,161674.000,27512,2,ER,1,100,1.558879
1574943924.071911,161732.500,27530,2,ER,1,100,1.561014
1574943924.141240,161791.000,27530,2,ER,1,100,1.566815
1574943924.207607,161847.000,27548,2,ER,1,100,1.566694
1574943924.273973,161903.000,27548,2,ER,1,100,1.568950
1574943924.336784,161956.000,27566,2,ER,1,100,1.567097
1574943924.399595,162009.000,27566,2,ER,1,100,1.567419
1574943924.467146,162066.000,27585,1,ER,1,100,1.573583
1574943924.529958,162119.000,27602,2,ER,1,100,1.576161
1574943924.592769,162172.000,27602,2,ER,1,100,1.581519
1574943924.659728,162228.500,27620,2,ER,1,100,1.584217
1574943924.726686,162285.000,27620,2,ER,1,100,1.591106
1574943924.794238,162342.000,27638,2,ER,1,100,1.593241
1574943924.861789,162399.000,27638,2,ER,1,100,1.602063
1574943924.927563,162454.500,27654,2,ER,1,100,1.606172
1574943924.993337,162510.000,27654,2,ER,1,100,1.614390
1574943925.063259,162569.000,27672,1,ER,1,100,1.621479
1574943925.130218,162625.500,27690,2,ER,1,100,1.627683
1574943925.197177,162682.000,27690,2,ER,1,100,1.634571
1574943925.265913,162740.000,27708,2,ER,1,100,1.637472
1574943925.334650,162798.000,27708,2,ER,1,100,1.644884
1574943925.397461,162851.000,27727,2,ER,1,100,1.646616
1574943925.460272,162904.000,27727,2,ER,1,100,1.651450
1574943925.524861,162958.500,27745,2,ER,1,100,1.650524
1574943925.589450,163013.000,27745,2,ER,1,100,1.651289
1574943925.659371,163072.000,27763,1,ER,1,100,1.652618
1574943925.728701,163130.500,27780,2,ER,1,100,1.652941
1574943925.798030,163189.000,27780,2,ER,1,100,1.656365
1574943925.864396,163245.000,27801,3,ER,1,100,1.653787
1574943925.930763,163301.000,27801,3,ER,1,100,1.652739
1574943925.997129,163357.000,27801,3,ER,1,100,1.648993
1574943926.059348,163409.500,27821,2,ER,1,100,1.655277
1574943926.121566,163462.000,27821,2,ER,1,100,1.666033
1574943926.188525,163518.500,27839,2,ER,1,100,1.666919
1574943926.255484,163575.000,27839,2,ER,1,100,1.672841
1574943926.324221,163633.000,27857,1,ER,1,100,1.676627
1574943926.391772,163690.000,27875,2,ER,1,100,1.684644
1574943926.459324,163747.000,27875,2,ER,1,100,1.689840
1574943926.526283,163803.500,27893,2,ER,1,100,1.692660
1574943926.593241,163860.000,27893,2,ER,1,100,1.699387
1574943926.656645,163913.500,27911,2,ER,1,100,1.700999
1574943926.720049,163967.000,27911,2,ER,1,100,1.707968
1574943926.785823,164022.500,27929,2,ER,1,100,1.708854
1574943926.851596,164078.000,27929,2,ER,1,100,1.716266
1574943926.923888,164139.000,27945,1,ER,1,100,1.718522
1574943926.990847,164195.500,27963,2,ER,1,100,1.719166
1574943927.057806,164252.000,27963,2,ER,1,100,1.725249
1574943927.125950,164309.500,27981,2,ER,1,100,1.724484
1574943927.194094,164367.000,27981,2,ER,1,100,1.726457
1574943927.256313,164419.500,27999,2,ER,1,100,1.727062
1574943927.318532,164472.000,27999,2,ER,1,100,1.734232
1574943927.383713,164527.000,28018,2,ER,1,100,1.732218
1574943927.448894,164582.000,28018,2,ER,1,100,1.733265
1574943927.516446,164639.000,28036,2,ER,1,100,1.733829
1574943927.583997,164696.000,28036,2,ER,1,100,1.736448
1574943927.651549,164753.000,28054,1,ER,1,100,1.734353
1574943927.720878,164811.500,28071,2,ER,1,100,1.734595
1574943927.790207,164870.000,28071,2,ER,1,100,1.738261
1574943927.852426,164922.500,28089,2,ER,1,100,1.736891
1574943927.914644,164975.000,28089,2,ER,1,100,1.739066
1574943927.979825,165030.000,28107,2,ER,1,100,1.736125
1574943928.045007,165085.000,28107,2,ER,1,100,1.739107
1574943928.108410,165138.500,28123,2,ER,1,100,1.737334
1574943928.171814,165192.000,28123,2,ER,1,100,1.736649
1574943928.237588,165247.500,28141,2,ER,1,100,1.736448
1574943928.303361,165303.000,28141,2,ER,1,100,1.735521
1574943928.366173,165356.000,28160,1,ER,1,100,1.736246
1574943928.431354,165411.000,28178,2,ER,1,100,1.733829
1574943928.496535,165466.000,28178,2,ER,1,100,1.735360
1574943928.561124,165520.500,28196,2,ER,1,100,1.732581
1574943928.625713,165575.000,28196,2,ER,1,100,1.734514
1574943928.692672,165631.500,28214,2,ER,1,100,1.730566
1574943928.759630,165688.000,28214,2,ER,1,100,1.732903
1574943928.828960,165746.500,28232,2,ER,1,100,1.731694
1574943928.898289,165805.000,28232,2,ER,1,100,1.731291
1574943928.965840,165862.000,28250,1,ER,1,100,1.729841
1574943929.036947,165922.000,28267,2,ER,1,100,1.729197
1574943929.108054,165982.000,28267,2,ER,1,100,1.730204
1574943929.175606,166039.000,28285,2,ER,1,100,1.727344
1574943929.243157,166096.000,28285,2,ER,1,100,1.729841
1574943929.306561,166149.500,28301,2,ER,1,100,1.727384
1574943929.369964,166203.000,28301,2,ER,1,100,1.726417
1574943929.435738,166258.500,28320,2,ER,1,100,1.725692
1574943929.501512,166314.000,28320,2,ER,1,100,1.724524
1574943929.566693,166369.000,28338,1,ER,1,100,1.725330
1574943929.636023,166427.500,28356,2,ER,1,100,1.723114
1574943929.705352,166486.000,28356,2,ER,1,100,1.726296
1574943929.774088,166544.000,28374,2,ER,1,100,1.721865
1574943929.842825,166602.000,28374,2,ER,1,100,1.722872
1574943929.906229,166655.500,28392,2,ER,1,100,1.721623
1574943929.969632,166709.000,28392,2,ER,1,100,1.721019
1574943930.034221,166763.500,28410,2,ER,1,100,1.719609
1574943930.098810,166818.000,28410,2,ER,1,100,1.717917
1574943930.166361,166875.000,28428,1,ER,1,100,1.717676
1574943930.233913,166932.000,28445,2,ER,1,100,1.715662
1574943930.301464,166989.000,28445,2,ER,1,100,1.717152
1574943930.370201,167047.000,28464,2,ER,1,100,1.713527
1574943930.438937,167105.000,28464,2,ER,1,100,1.715138
1574943930.502934,167159.000,28480,2,ER,1,100,1.714534
1574943930.566930,167213.000,28480,2,ER,1,100,1.715057
1574943930.632111,167268.000,28498,2,ER,1,100,1.713285
1574943930.697292,167323.000,28498,2,ER,1,100,1.714131
1574943930.762474,167378.000,28516,1,ER,1,100,1.714010
1574943930.832395,167437.000,28534,2,ER,1,100,1.712117
1574943930.902317,167496.000,28534,2,ER,1,100,1.714292
1574943930.969869,167553.000,28552,2,ER,1,100,1.711271
1574943931.037420,167610.000,28552,2,ER,1,100,1.713084
1574943931.102602,167665.000,28570,2,ER,1,100,1.711553
1574943931.167783,167720.000,28570,2,ER,1,100,1.711110
1574943931.230594,167773.000,28588,2,ER,1,100,1.711714
1574943931.293405,167826.000,28588,2,ER,1,100,1.711794
1574943931.357401,167880.000,28607,1,ER,1,100,1.712761
1574943931.427323,167939.000,28624,2,ER,1,100,1.712801
1574943931.497245,167998.000,28624,2,ER,1,100,1.713728
1574943931.563611,168054.000,28642,2,ER,1,100,1.711029
1574943931.629977,168110.000,28642,2,ER,1,100,1.713406
1574943931.696936,168166.500,28658,2,ER,1,100,1.710989
1574943931.763895,168223.000,28658,2,ER,1,100,1.711875
1574943931.826114,168275.500,28676,2,ER,1,100,1.710586
1574943931.888332,168328.000,28676,2,ER,1,100,1.709821
1574943931.954304,168383.667,28697,3,ER,1,100,1.709538
1574943932.020275,168439.333,28697,3,ER,1,100,1.708491
1574943932.086246,168495.000,28697,3,ER,1,100,1.706880
1574943932.151428,168550.000,28717,1,ER,1,100,1.708290
1574943932.217794,168606.000,28734,2,ER,1,100,1.709579
1574943932.284160,168662.000,28734,2,ER,1,100,1.710586
1574943932.351119,168718.500,28753,2,ER,1,100,1.706598
1574943932.418078,168775.000,28753,2,ER,1,100,1.710143
1574943932.482074,168829.000,28769,2,ER,1,100,1.707726
1574943932.546071,168883.000,28769,2,ER,1,100,1.707645
1574943932.614807,168941.000,28787,1,ER,1,100,1.705027
1574943932.682359,168998.000,28805,2,ER,1,100,1.702368
1574943932.749910,169055.000,28805,2,ER,1,100,1.701965
1574943932.821017,169115.000,28823,2,ER,1,100,1.700596
1574943932.892124,169175.000,28823,2,ER,1,100,1.702207
1574943932.956713,169229.500,28841,2,ER,1,100,1.700555
1574943933.021302,169284.000,28841,2,ER,1,100,1.702771
1574943933.084705,169337.500,28859,2,ER,1,100,1.700918
1574943933.148109,169391.000,28859,2,ER,1,100,1.703939
1574943933.215660,169448.000,28877,1,ER,1,100,1.706316
1574943933.284397,169506.000,28895,2,ER,1,100,1.703375
1574943933.353133,169564.000,28895,2,ER,1,100,1.702731
1574943933.421278,169621.500,28913,2,ER,1,100,1.700314
1574943933.489422,169679.000,28913,2,ER,1,100,1.702529
1574943933.557566,169736.500,28931,2,ER,1,100,1.701200
1574943933.625710,169794.000,28931,2,ER,1,100,1.704221
1574943933.694446,169852.000,28947,1,ER,1,100,1.700676
1574943933.760220,169907.500,28965,2,ER,1,100,1.697937
1574943933.825994,169963.000,28965,2,ER,1,100,1.699226
1574943933.889398,170016.500,28983,2,ER,1,100,1.697252
1574943933.952801,170070.000,28983,2,ER,1,100,1.699991
1574943934.017982,170125.000,29001,2,ER,1,100,1.700273
1574943934.083164,170180.000,29001,2,ER,1,100,1.702771
1574943934.150715,170237.000,29019,2,ER,1,100,1.699427
1574943934.218267,170294.000,29019,2,ER,1,100,1.700757
1574943934.287596,170352.500,29037,2,ER,1,100,1.697091
1574943934.356925,170411.000,29037,2,ER,1,100,1.691008
1574943934.420922,170465.000,29056,1,ER,1,100,1.698904
1574943934.484918,170519.000,29073,2,ER,1,100,1.697897
1574943934.548914,170573.000,29073,2,ER,1,100,1.711915
1574943934.614688,170628.500,29091,2,ER,1,100,1.700918
1574943934.680461,170684.000,29091,2,ER,1,100,1.699508
1574943934.747421,170740.500,29109,2,ER,1,100,1.697373
1574943934.814379,170797.000,29109,2,ER,1,100,1.701119
1574943934.883116,170855.000,29125,2,ER,1,100,1.699226
1574943934.951853,170913.000,29125,2,ER,1,100,1.698420
1574943935.020589,170971.000,29143,1,ER,1,100,1.698944
1574943935.083400,171024.000,29161,2,ER,1,100,1.696930
1574943935.146211,171077.000,29161,2,ER,1,100,1.699790
1574943935.212578,171133.000,29179,2,ER,1,100,1.697091
1574943935.278944,171189.000,29179,2,ER,1,100,1.698018
1574943935.345903,171245.500,29198,2,ER,1,100,1.694231
1574943935.412862,171302.000,29198,2,ER,1,100,1.695601
1574943935.481599,171360.000,29216,2,ER,1,100,1.693264
1574943935.550335,171418.000,29216,2,ER,1,100,1.694875
1574943935.619072,171476.000,29234,1,ER,1,100,1.697212
1574943935.682476,171529.500,29251,2,ER,1,100,1.693465
1574943935.745879,171583.000,29251,2,ER,1,100,1.692700
1574943935.809875,171637.000,29269,2,ER,1,100,1.691975
1574943935.873872,171691.000,29269,2,ER,1,100,1.693989
1574943935.941423,171748.000,29287,2,ER,1,100,1.694755
1574943936.008975,171805.000,29287,2,ER,1,100,1.704705
1574943936.075341,171861.000,29303,2,ER,1,100,1.696084
1574943936.141707,171917.000,29303,2,ER,1,100,1.698823
1574943936.210444,171975.000,29321,1,ER,1,100,1.705430
1574943936.276810,172031.000,29340,2,ER,1,100,1.701039
1574943936.343177,172087.000,29340,2,ER,1,100,1.690887
1574943936.413099,172146.000,29358,2,ER,1,100,1.689316
1574943936.483020,172205.000,29358,2,ER,1,100,1.691532
1574943936.551164,172262.500,29376,2,ER,1,100,1.700555
1574943936.619308,172320.000,29376,2,ER,1,100,1.696366
1574943936.684490,172375.000,29394,2,ER,1,100,1.691653
1574943936.749671,172430.000,29394,2,ER,1,100,1.695117
1574943936.819593,172489.000,29412,1,ER,1,100,1.698380
1574943936.885367,172544.500,29429,2,ER,1,100,1.693949
1574943936.951140,172600.000,29429,2,ER,1,100,1.702207
1574943937.014544,172653.500,29447,2,ER,1,100,1.703013
1574943937.077948,172707.000,29447,2,ER,1,100,1.706719
1574943937.144314,172763.000,29465,2,ER,1,100,1.695198
1574943937.210680,172819.000,29465,2,ER,1,100,1.702811
1574943937.280010,172877.500,29481,2,ER,1,100,1.703778
1574943937.349339,172936.000,29481,2,ER,1,100,1.698138
1574943937.416890,172993.000,29500,1,ER,1,100,1.700193
1574943937.485034,173050.500,29518,2,ER,1,100,1.701240
1574943937.553179,173108.000,29518,2,ER,1,100,1.704060
1574943937.615397,173160.500,29536,2,ER,1,100,1.702489
1574943937.677616,173213.000,29536,2,ER,1,100,1.705188
1574943937.743389,173268.500,29554,2,ER,1,100,1.703254
1574943937.809163,173324.000,29554,2,ER,1,100,1.705631
1574943937.877307,173381.500,29572,2,ER,1,100,1.704141
1574943937.945451,173439.000,29572,2,ER,1,100,1.704624
1574943938.014188,173497.000,29593,2,ER,1,100,1.705107
1574943938.082925,173555.000,29593,2,ER,1,100,1.705591
1574943938.147513,173609.500,29613,2,ER,1,100,1.704866
1574943938.212102,173664.000,29613,2,ER,1,100,1.705309
1574943938.275506,173717.500,29631,2,ER,1,100,1.702167
1574943938.338909,173771.000,29631,2,ER,1,100,1.704664
1574943938.407646,173829.000,29650,2,ER,1,100,1.702650
1574943938.476382,173887.000,29650,2,ER,1,100,1.705631
1574943938.543342,173943.500,29668,2,ER,1,100,1.705349
1574943938.610301,174000.000,29668,2,ER,1,100,1.704503
1574943938.681407,174060.000,29686,1,ER,1,100,1.704987
1574943938.745996,174114.500,29703,2,ER,1,100,1.703818
1574943938.810585,174169.000,29703,2,ER,1,100,1.705631
1574943938.873988,174222.500,29721,2,ER,1,100,1.701361
1574943938.937392,174276.000,29721,2,ER,1,100,1.703577
1574943939.004351,174332.500,29739,2,ER,1,100,1.701683
1574943939.071310,174389.000,29739,2,ER,1,100,1.702167
1574943939.138269,174445.500,29755,2,ER,1,100,1.698984
1574943939.205228,174502.000,29755,2,ER,1,100,1.700435
1574943939.276335,174562.000,29773,1,ER,1,100,1.693264
1574943939.341516,174617.000,29792,2,ER,1,100,1.699870
1574943939.406697,174672.000,29792,2,ER,1,100,1.712600
1574943939.470101,174725.500,29810,2,ER,1,100,1.713084
1574943939.533504,174779.000,29810,2,ER,1,100,1.712640
1574943939.601056,174836.000,29828,2,ER,1,100,1.709176
1574943939.668607,174893.000,29828,2,ER,1,100,1.711230
1574943939.737344,174951.000,29846,2,ER,1,100,1.706034
1574943939.806081,175009.000,29846,2,ER,1,100,1.703859
1574943939.876003,175068.000,29864,1,ER,1,100,1.699468
1574943939.944147,175125.500,29881,2,ER,1,100,1.698420
1574943940.012291,175183.000,29881,2,ER,1,100,1.700837
1574943940.080435,175240.500,29899,2,ER,1,100,1.701119
1574943940.148579,175298.000,29899,2,ER,1,100,1.705631
1574943940.218501,175357.000,29915,2,ER,1,100,1.702932
1574943940.288422,175416.000,29915,2,ER,1,100,1.702529
1574943940.354789,175472.000,29934,1,ER,1,100,1.703496
1574943940.424118,175530.500,29952,2,ER,1,100,1.702570
1574943940.493447,175589.000,29952,2,ER,1,100,1.701482
1574943940.562184,175647.000,29970,2,ER,1,100,1.698420
1574943940.630920,175705.000,29970,2,ER,1,100,1.701361
1574943940.693731,175758.000,29988,2,ER,1,100,1.698420
1574943940.756542,175811.000,29988,2,ER,1,100,1.700757
1574943940.822316,175866.500,30006,2,ER,1,100,1.702328
1574943940.888090,175922.000,30006,2,ER,1,100,1.702570
1574943940.952086,175976.000,30024,1,ER,1,100,1.703617
1574943941.021415,176034.500,30041,2,ER,1,100,1.702167
1574943941.090745,176093.000,30041,2,ER,1,100,1.705027
1574943941.161259,176152.500,30059,2,ER,1,100,1.702328
1574943941.231773,176212.000,30059,2,ER,1,100,1.704664
1574943941.298732,176268.500,30075,2,ER,1,100,1.702932
1574943941.365691,176325.000,30075,2,ER,1,100,1.702932
1574943941.436798,176385.000,30094,1,ER,1,100,1.703577
1574943941.501387,176439.500,30112,2,ER,1,100,1.701160
1574943941.565975,176494.000,30112,2,ER,1,100,1.703456
1574943941.629972,176548.000,30130,2,ER,1,100,1.702046
1574943941.693968,176602.000,30130,2,ER,1,100,1.704825
1574943941.760334,176658.000,30148,2,ER,1,100,1.702972
1574943941.826701,176714.000,30148,2,ER,1,100,1.705752
1574943941.896030,176772.500,30166,2,ER,1,100,1.704624
1574943941.965359,176831.000,30166,2,ER,1,100,1.705953
1574943942.031725,176887.000,30184,1,ER,1,100,1.706316
1574943942.098684,176943.500,30201,2,ER,1,100,1.703859
1574943942.165643,177000.000,30201,2,ER,1,100,1.703859
1574943942.229640,177054.000,30219,2,ER,1,100,1.699307
1574943942.293636,177108.000,30219,2,ER,1,100,1.700918
1574943942.359410,177163.500,30238,2,ER,1,100,1.697856
1574943942.425183,177219.000,30238,2,ER,1,100,1.702610
1574943942.493920,177277.000,30254,2,ER,1,100,1.702811
1574943942.562657,177335.000,30254,2,ER,1,100,1.702126
1574943942.630208,177392.000,30272,1,ER,1,100,1.703979
1574943942.697167,177448.500,30290,2,ER,1,100,1.701361
1574943942.764126,177505.000,30290,2,ER,1,100,1.704423
1574943942.827530,177558.500,30308,2,ER,1,100,1.702207
1574943942.890933,177612.000,30308,2,ER,1,100,1.702368
1574943942.957300,177668.000,30326,2,ER,1,100,1.700394
1574943943.023666,177724.000,30326,2,ER,1,100,1.702852
1574943943.092403,177782.000,30344,2,ER,1,100,1.700112
1574943943.161139,177840.000,30344,2,ER,1,100,1.701442
1574943943.228691,177897.000,30362,1,ER,1,100,1.701079
1574943943.297427,177955.000,30379,2,ER,1,100,1.699427
1574943943.366164,178013.000,30379,2,ER,1,100,1.701764
1574943943.428383,178065.500,30398,2,ER,1,100,1.700112
1574943943.490601,178118.000,30398,2,ER,1,100,1.703899
1574943943.557560,178174.500,30416,2,ER,1,100,1.699629
1574943943.624519,178231.000,30416,2,ER,1,100,1.702368
1574943943.690886,178287.000,30432,2,ER,1,100,1.700797
1574943943.757252,178343.000,30432,2,ER,1,100,1.701563
1574943943.828359,178403.000,30450,1,ER,1,100,1.701160
1574943943.896503,178460.500,30468,2,ER,1,100,1.698582
1574943943.964647,178518.000,30468,2,ER,1,100,1.700958
1574943944.033383,178576.000,30489,3,ER,1,100,1.698541
1574943944.102120,178634.000,30489,3,ER,1,100,1.699629
1574943944.170857,178692.000,30489,3,ER,1,100,1.696648
1574943944.240186,178750.500,30507,2,ER,1,100,1.695923
1574943944.309515,178809.000,30507,2,ER,1,100,1.701200
1574943944.378252,178867.000,30528,1,ER,1,100,1.699911
1574943944.441655,178920.500,30546,2,ER,1,100,1.696890
1574943944.505059,178974.000,30546,2,ER,1,100,1.700354
1574943944.570833,179029.500,30564,2,ER,1,100,1.697937
1574943944.636607,179085.000,30564,2,ER,1,100,1.699347
1574943944.700010,179138.500,30582,2,ER,1,100,1.697091
1574943944.763414,179192.000,30582,2,ER,1,100,1.700032
1574943944.829780,179248.000,30600,2,ER,1,100,1.698018
1574943944.896147,179304.000,30600,2,ER,1,100,1.699589
1574943944.962513,179360.000,30618,1,ER,1,100,1.698380
1574943945.031842,179418.500,30635,2,ER,1,100,1.697615
1574943945.101171,179477.000,30635,2,ER,1,100,1.699669
1574943945.168130,179533.500,30653,2,ER,1,100,1.697736
1574943945.235089,179590.000,30653,2,ER,1,100,1.700072
1574943945.298493,179643.500,30671,2,ER,1,100,1.697413
1574943945.361897,179697.000,30671,2,ER,1,100,1.699911
1574943945.427078,179752.000,30688,2,ER,1,100,1.698984
1574943945.492259,179807.000,30688,2,ER,1,100,1.700555
1574943945.559218,179863.500,30706,2,ER,1,100,1.697252
1574943945.626177,179920.000,30706,2,ER,1,100,1.696487
1574943945.694914,179978.000,30724,1,ER,1,100,1.701079
1574943945.764243,180036.500,30742,2,ER,1,100,1.697292
1574943945.833572,180095.000,30742,2,ER,1,100,1.698984
1574943945.896383,180148.000,30760,2,ER,1,100,1.698541
1574943945.959194,180201.000,30760,2,ER,1,100,1.701442
1574943946.024375,180256.000,30778,2,ER,1,100,1.698783
1574943946.089557,180311.000,30778,2,ER,1,100,1.701925
1574943946.156516,180367.500,30796,2,ER,1,100,1.701563
1574943946.223475,180424.000,30796,2,ER,1,100,1.702006
1574943946.294582,180484.000,30814,1,ER,1,100,1.700596
1574943946.362726,180541.500,30832,2,ER,1,100,1.698300
1574943946.430870,180599.000,30832,2,ER,1,100,1.699387
1574943946.494273,180652.500,30850,2,ER,1,100,1.697091
1574943946.557677,180706.000,30850,2,ER,1,100,1.700112
1574943946.622266,180760.500,30866,2,ER,1,100,1.698984
1574943946.686854,180815.000,30866,2,ER,1,100,1.700716
1574943946.753221,180871.000,30884,2,ER,1,100,1.701079
1574943946.819587,180927.000,30884,2,ER,1,100,1.701039
1574943946.890694,180987.000,30902,1,ER,1,100,1.701119
1574943946.957060,181043.000,30920,2,ER,1,100,1.699870
1574943947.023427,181099.000,30920,2,ER,1,100,1.702690
1574943947.088608,181154.000,30938,2,ER,1,100,1.699629
1574943947.153790,181209.000,30938,2,ER,1,100,1.700314
1574943947.217193,181262.500,30956,2,ER,1,100,1.697212
1574943947.280597,181316.000,30956,2,ER,1,100,1.698823
1574943947.346963,181372.000,30975,2,ER,1,100,1.696608
1574943947.413329,181428.000,30975,2,ER,1,100,1.697937
1574943947.477326,181482.000,30993,1,ER,1,100,1.696366
1574943947.544285,181538.500,31011,2,ER,1,100,1.692378
1574943947.611243,181595.000,31011,2,ER,1,100,1.694795
1574943947.679980,181653.000,31028,2,ER,1,100,1.693103
1574943947.748717,181711.000,31028,2,ER,1,100,1.695117
1574943947.820416,181771.500,31044,2,ER,1,100,1.693425
1574943947.892116,181832.000,31044,2,ER,1,100,1.695601
1574943947.957297,181887.000,31062,1,ER,1,100,1.695399
1574943948.028996,181947.500,31080,2,ER,1,100,1.694352
1574943948.100696,182008.000,31080,2,ER,1,100,1.696165
1574943948.168840,182065.500,31098,2,ER,1,100,1.693345
1574943948.236984,182123.000,31098,2,ER,1,100,1.696044
1574943948.303943,182179.500,31116,2,ER,1,100,1.695117
1574943948.370902,182236.000,31116,2,ER,1,100,1.695480
1574943948.434305,182289.500,31135,2,ER,1,100,1.696608
1574943948.497709,182343.000,31135,2,ER,1,100,1.697695
1574943948.561705,182397.000,31153,1,ER,1,100,1.698259
1574943948.630442,182455.000,31170,2,ER,1,100,1.697051
1574943948.699178,182513.000,31170,2,ER,1,100,1.698259
1574943948.767323,182570.500,31188,2,ER,1,100,1.695842
1574943948.835467,182628.000,31188,2,ER,1,100,1.698300
1574943948.904203,182686.000,31204,2,ER,1,100,1.697051
1574943948.972940,182744.000,31204,2,ER,1,100,1.698823
1574943949.035158,182796.500,31222,2,ER,1,100,1.697615
1574943949.097377,182849.000,31222,2,ER,1,100,1.696608
1574943949.160188,182902.000,31240,1,ER,1,100,1.696970
1574943949.227147,182958.500,31258,2,ER,1,100,1.694231
1574943949.294106,183015.000,31258,2,ER,1,100,1.698138
1574943949.361657,183072.000,31277,2,ER,1,100,1.697333
1574943949.429209,183129.000,31277,2,ER,1,100,1.698944
1574943949.497946,183187.000,31295,2,ER,1,100,1.695923
1574943949.566682,183245.000,31295,2,ER,1,100,1.698058
1574943949.630086,183298.500,31313,2,ER,1,100,1.697091
1574943949.693489,183352.000,31313,2,ER,1,100,1.696326
1574943949.755115,183404.000,31331,1,ER,1,100,1.697816
1574943949.822074,183460.500,31348,2,ER,1,100,1.695480
1574943949.889033,183517.000,31348,2,ER,1,100,1.696205
1574943949.956585,183574.000,31366,2,ER,1,100,1.692136
1574943950.024136,183631.000,31366,2,ER,1,100,1.694755
1574943950.091688,183688.000,31385,3,ER,1,100,1.691733
1574943950.159239,183745.000,31385,3,ER,1,100,1.691935
1574943950.226791,183802.000,31385,3,ER,1,100,1.692217
1574943950.290195,183855.500,31403,2,ER,1,100,1.694311
1574943950.353598,183909.000,31403,2,ER,1,100,1.696608
1574943950.417594,183963.000,31426,1,ER,1,100,1.695923
1574943950.485146,184020.000,31443,2,ER,1,100,1.696084
1574943950.552697,184077.000,31443,2,ER,1,100,1.697011
1574943950.622026,184135.500,31461,2,ER,1,100,1.695037
1574943950.691355,184194.000,31461,2,ER,1,100,1.696044
1574943950.758315,184250.500,31479,2,ER,1,100,1.692740
1574943950.825274,184307.000,31479,2,ER,1,100,1.695923
1574943950.888677,184360.500,31495,2,ER,1,100,1.692861
1574943950.952081,184414.000,31495,2,ER,1,100,1.693022
1574943951.013707,184466.000,31513,1,ER,1,100,1.691733
1574943951.080666,184522.500,31531,2,ER,1,100,1.691693
1574943951.147624,184579.000,31531,2,ER,1,100,1.694634
1574943951.216361,184637.000,31549,2,ER,1,100,1.693224
1574943951.285098,184695.000,31549,2,ER,1,100,1.696285
1574943951.353242,184752.500,31568,2,ER,1,100,1.694594
1574943951.421386,184810.000,31568,2,ER,1,100,1.696285
1574943951.488345,184866.500,31586,2,ER,1,100,1.693949
1574943951.555304,184923.000,31586,2,ER,1,100,1.694271
1574943951.627596,184984.000,31604,1,ER,1,100,1.696809
1574943951.695740,185041.500,31621,2,ER,1,100,1.694755
1574943951.763884,185099.000,31621,2,ER,1,100,1.696688
1574943951.834991,185159.000,31637,2,ER,1,100,1.694553
1574943951.906098,185219.000,31637,2,ER,1,100,1.696044
1574943951.972464,185275.000,31655,1,ER,1,100,1.696205
1574943952.041201,185333.000,31673,2,ER,1,100,1.698904
1574943952.109937,185391.000,31673,2,ER,1,100,1.699709
1574943952.172749,185444.000,31691,2,ER,1,100,1.696245
1574943952.235559,185497.000,31691,2,ER,1,100,1.699750
1574943952.301333,185552.500,31709,2,ER,1,100,1.698058
1574943952.367107,185608.000,31709,2,ER,1,100,1.700596
1574943952.435251,185665.500,31728,2,ER,1,100,1.698340
1574943952.503395,185723.000,31728,2,ER,1,100,1.699911
1574943952.570354,185779.500,31746,2,ER,1,100,1.698541
1574943952.637313,185836.000,31746,2,ER,1,100,1.699508
1574943952.707235,185895.000,31764,1,ER,1,100,1.698461
1574943952.775379,185952.500,31781,2,ER,1,100,1.696326
1574943952.843523,186010.000,31781,2,ER,1,100,1.699548
1574943952.909889,186066.000,31799,2,ER,1,100,1.696567
1574943952.976256,186122.000,31799,2,ER,1,100,1.700475
1574943953.038475,186174.500,31815,2,ER,1,100,1.701280
1574943953.100693,186227.000,31815,2,ER,1,100,1.703295
1574943953.166467,186282.500,31833,2,ER,1,100,1.700918
1574943953.232241,186338.000,31833,2,ER,1,100,1.701724
1574943953.302162,186397.000,31851,1,ER,1,100,1.702247
1574943953.369714,186454.000,31870,2,ER,1,100,1.700314
1574943953.437265,186511.000,31870,2,ER,1,100,1.702489
1574943953.504817,186568.000,31888,2,ER,1,100,1.700475
1574943953.572368,186625.000,31888,2,ER,1,100,1.701885
1574943953.635772,186678.500,31906,2,ER,1,100,1.699548
1574943953.699176,186732.000,31906,2,ER,1,100,1.700475
1574943953.764357,186787.000,31924,2,ER,1,100,1.700475
1574943953.829538,186842.000,31924,2,ER,1,100,1.700112
1574943953.901830,186903.000,31942,1,ER,1,100,1.700555
1574943953.968789,186959.500,31959,2,ER,1,100,1.700032
1574943954.035748,187016.000,31959,2,ER,1,100,1.702006
1574943954.103892,187073.500,31977,2,ER,1,100,1.700193
1574943954.172036,187131.000,31977,2,ER,1,100,1.709901
1574943954.235440,187184.500,31993,2,ER,1,100,1.700716
1574943954.298843,187238.000,31993,2,ER,1,100,1.698783
1574943954.364025,187293.000,32012,2,ER,1,100,1.698138
1574943954.429206,187348.000,32012,2,ER,1,100,1.699468
1574943954.499128,187407.000,32030,1,ER,1,100,1.698219
1574943954.566087,187463.500,32048,2,ER,1,100,1.696084
1574943954.633046,187520.000,32048,2,ER,1,100,1.699991
1574943954.702375,187578.500,32066,2,ER,1,100,1.698138
1574943954.771704,187637.000,32066,2,ER,1,100,1.699387
1574943954.833923,187689.500,32084,2,ER,1,100,1.696487
1574943954.896141,187742.000,32084,2,ER,1,100,1.700153
1574943954.960137,187796.000,32102,2,ER,1,100,1.700273
1574943955.024133,187850.000,32102,2,ER,1,100,1.700596
1574943955.092870,187908.000,32120,1,ER,1,100,1.699991
1574943955.161607,187966.000,32137,2,ER,1,100,1.697655
1574943955.230343,188024.000,32137,2,ER,1,100,1.699830
1574943955.298487,188081.500,32155,2,ER,1,100,1.696648
1574943955.366632,188139.000,32155,2,ER,1,100,1.697977
1574943955.435961,188197.500,32172,2,ER,1,100,1.698984
1574943955.505290,188256.000,32172,2,ER,1,100,1.700555
1574943955.571656,188312.000,32190,1,ER,1,100,1.700354
1574943955.642170,188371.500,32208,2,ER,1,100,1.699145
1574943955.712685,188431.000,32208,2,ER,1,100,1.700999
1574943955.781421,188489.000,32226,2,ER,1,100,1.698541
1574943955.850158,188547.000,32226,2,ER,1,100,1.700314
1574943955.919487,188605.500,32244,2,ER,1,100,1.699186
1574943955.988816,188664.000,32244,2,ER,1,100,1.699589
1574943956.055183,188720.000,32262,1,ER,1,100,1.701482
1574943956.118389,188773.333,32282,3,ER,1,100,1.697736
1574943956.181595,188826.667,32282,3,ER,1,100,1.700153
1574943956.244801,188880.000,32282,3,ER,1,100,1.697977
1574943956.311167,188936.000,32303,2,ER,1,100,1.697937
1574943956.377534,188992.000,32303,2,ER,1,100,1.700676
1574943956.446863,189050.500,32321,2,ER,1,100,1.699226
1574943956.516192,189109.000,32321,2,ER,1,100,1.701079
1574943956.584929,189167.000,32339,2,ER,1,100,1.698098
1574943956.653666,189225.000,32339,2,ER,1,100,1.699669
1574943956.717662,189279.000,32357,1,ER,1,100,1.699427
1574943956.779880,189331.500,32374,2,ER,1,100,1.697373
1574943956.842099,189384.000,32374,2,ER,1,100,1.700072
1574943956.908465,189440.000,32392,2,ER,1,100,1.696970
1574943956.974832,189496.000,32392,2,ER,1,100,1.699468
1574943957.042383,189553.000,32410,2,ER,1,100,1.695278
1574943957.109935,189610.000,32410,2,ER,1,100,1.698783
1574943957.179264,189668.500,32426,2,ER,1,100,1.698420
1574943957.248593,189727.000,32426,2,ER,1,100,1.698138
1574943957.311997,189780.500,32444,2,ER,1,100,1.698420
1574943957.375400,189834.000,32444,2,ER,1,100,1.697534
1574943957.438211,189887.000,32463,1,ER,1,100,1.697937
1574943957.504578,189943.000,32481,2,ER,1,100,1.697131
1574943957.570944,189999.000,32481,2,ER,1,100,1.698541
1574943957.640273,190057.500,32499,2,ER,1,100,1.696003
1574943957.709602,190116.000,32499,2,ER,1,100,1.697212
1574943957.777154,190173.000,32517,2,ER,1,100,1.695601
1574943957.844705,190230.000,32517,2,ER,1,100,1.695762
1574943957.914627,190289.000,32535,1,ER,1,100,1.695842
1574943957.975661,190340.500,32553,2,ER,1,100,1.693989
1574943958.036694,190392.000,32553,2,ER,1,100,1.698058
1574943958.102468,190447.500,32570,2,ER,1,100,1.695278
1574943958.168242,190503.000,32570,2,ER,1,100,1.698582
1574943958.238163,190562.000,32588,2,ER,1,100,1.695883
1574943958.308085,190621.000,32588,2,ER,1,100,1.698702
1574943958.374452,190677.000,32605,2,ER,1,100,1.695681
1574943958.440818,190733.000,32605,2,ER,1,100,1.697051
1574943958.511925,190793.000,32623,1,ER,1,100,1.696326
1574943958.572958,190844.500,32641,2,ER,1,100,1.695923
1574943958.633991,190896.000,32641,2,ER,1,100,1.696849
1574943958.697988,190950.000,32659,2,ER,1,100,1.693989
1574943958.761984,191004.000,32659,2,ER,1,100,1.696527
1574943958.831906,191063.000,32677,2,ER,1,100,1.692700
1574943958.901827,191122.000,32677,2,ER,1,100,1.694392
1574943958.969971,191179.500,32695,2,ER,1,100,1.692015
1574943959.038116,191237.000,32695,2,ER,1,100,1.693909
1574943959.110408,191298.000,32713,1,ER,1,100,1.694795
1574943959.178552,191355.500,32730,2,ER,1,100,1.691774
1574943959.246696,191413.000,32730,2,ER,1,100,1.691814
1574943959.315432,191471.000,32748,2,ER,1,100,1.691693
1574943959.384169,191529.000,32748,2,ER,1,100,1.693748
1574943959.455276,191589.000,32765,2,ER,1,100,1.696285
1574943959.526383,191649.000,32765,2,ER,1,100,1.695278
1574943959.591564,191704.000,32783,1,ER,1,100,1.695037
1574943959.661486,191763.000,32801,2,ER,1,100,1.689478
1574943959.731407,191822.000,32801,2,ER,1,100,1.691612
1574943959.795403,191876.000,32819,2,ER,1,100,1.689437
1574943959.859400,191930.000,32819,2,ER,1,100,1.691008
1574943959.922803,191983.500,32837,2,ER,1,100,1.689518
1574943959.986207,192037.000,32837,2,ER,1,100,1.691975
1574943960.054351,192094.500,32855,2,ER,1,100,1.688994
1574943960.122495,192152.000,32855,2,ER,1,100,1.689961
1574943960.187676,192207.000,32873,1,ER,1,100,1.689115
1574943960.258191,192266.500,32890,2,ER,1,100,1.687463
1574943960.328705,192326.000,32890,2,ER,1,100,1.685852
1574943960.396849,192383.500,32909,2,ER,1,100,1.684402
1574943960.464993,192441.000,32909,2,ER,1,100,1.685973
1574943960.533730,192499.000,32925,2,ER,1,100,1.683234
1574943960.602466,192557.000,32925,2,ER,1,100,1.685812
1574943960.665277,192610.000,32943,1,ER,1,100,1.687544
1574943960.728681,192663.500,32961,2,ER,1,100,1.687181
1574943960.792085,192717.000,32961,2,ER,1,100,1.687624
1574943960.857266,192772.000,32979,2,ER,1,100,1.683234
1574943960.922447,192827.000,32979,2,ER,1,100,1.684321
1574943960.989999,192884.000,32997,2,ER,1,100,1.681542
1574943961.057550,192941.000,32997,2,ER,1,100,1.681018
1574943961.126879,192999.500,33015,2,ER,1,100,1.680776
1574943961.196209,193058.000,33015,2,ER,1,100,1.679286
1574943961.260205,193112.000,33033,2,ER,1,100,1.679608
1574943961.324201,193166.000,33033,2,ER,1,100,1.679487
1574943961.387012,193219.000,33052,1,ER,1,100,1.681340
1574943961.453378,193275.000,33069,2,ER,1,100,1.678279
1574943961.519745,193331.000,33069,2,ER,1,100,1.681864
1574943961.587296,193388.000,33087,2,ER,1,100,1.682186
1574943961.654848,193445.000,33087,2,ER,1,100,1.683838
1574943961.723585,193503.000,33103,2,ER,1,100,1.680575
1574943961.792321,193561.000,33103,2,ER,1,100,1.681421
1574943961.859873,193618.000,33121,1,ER,1,100,1.681381
1574943961.922684,193671.000,33139,2,ER,1,100,1.679608
1574943961.985495,193724.000,33139,2,ER,1,100,1.680333
1574943962.050676,193779.000,33157,2,ER,1,100,1.677030
1574943962.115857,193834.000,33157,2,ER,1,100,1.679769
1574943962.184199,193891.667,33178,3,ER,1,100,1.678762
1574943962.252541,193949.333,33178,3,ER,1,100,1.682509
1574943962.320882,194007.000,33178,3,ER,1,100,1.680655
1574943962.387841,194063.500,33199,2,ER,1,100,1.680535
1574943962.454800,194120.000,33199,2,ER,1,100,1.682750
1574943962.518204,194173.500,33215,2,ER,1,100,1.683032
1574943962.581607,194227.000,33215,2,ER,1,100,1.682710
1574943962.645603,194281.000,33233,2,ER,1,100,1.682347
1574943962.709600,194335.000,33233,2,ER,1,100,1.681944
1574943962.773596,194389.000,33251,1,ER,1,100,1.683073
1574943962.842925,194447.500,33269,2,ER,1,100,1.680776
1574943962.912254,194506.000,33269,2,ER,1,100,1.683032
1574943962.980398,194563.500,33287,2,ER,1,100,1.680535
1574943963.048542,194621.000,33287,2,ER,1,100,1.683354
1574943963.116686,194678.500,33305,2,ER,1,100,1.683395
1574943963.184830,194736.000,33305,2,ER,1,100,1.687060
1574943963.257123,194797.000,33323,1,ER,1,100,1.687987
1574943963.325859,194855.000,33340,2,ER,1,100,1.685973
1574943963.394596,194913.000,33340,2,ER,1,100,1.690082
1574943963.466295,194973.500,33357,2,ER,1,100,1.689961
1574943963.537995,195034.000,33357,2,ER,1,100,1.690605
1574943963.603176,195089.000,33375,1,ER,1,100,1.689518
1574943963.673098,195148.000,33393,2,ER,1,100,1.689880
1574943963.743019,195207.000,33393,2,ER,1,100,1.690565
1574943963.805830,195260.000,33411,2,ER,1,100,1.687383
1574943963.868641,195313.000,33411,2,ER,1,100,1.690807
1574943963.932638,195367.000,33429,2,ER,1,100,1.687222
1574943963.996634,195421.000,33429,2,ER,1,100,1.689921
1574943964.065963,195479.500,33447,2,ER,1,100,1.687141
1574943964.135292,195538.000,33447,2,ER,1,100,1.688712
1574943964.200473,195593.000,33465,1,ER,1,100,1.690726
1574943964.272173,195653.500,33482,2,ER,1,100,1.692378
1574943964.343872,195714.000,33482,2,ER,1,100,1.691089
1574943964.409646,195769.500,33501,2,ER,1,100,1.688390
1574943964.475420,195825.000,33501,2,ER,1,100,1.693345
1574943964.542971,195882.000,33517,2,ER,1,100,1.692056
1574943964.610523,195939.000,33517,2,ER,1,100,1.692217
1574943964.673927,195992.500,33535,2,ER,1,100,1.690847
1574943964.737330,196046.000,33535,2,ER,1,100,1.690283
1574943964.802511,196101.000,33553,1,ER,1,100,1.689598
1574943964.869470,196157.500,33571,2,ER,1,100,1.687786
1574943964.936430,196214.000,33571,2,ER,1,100,1.688511
1574943965.003388,196270.500,33589,2,ER,1,100,1.683354
1574943965.070347,196327.000,33589,2,ER,1,100,1.683717
1574943965.139084,196385.000,33607,2,ER,1,100,1.683153
1574943965.207821,196443.000,33607,2,ER,1,100,1.687343
1574943965.270039,196495.500,33625,2,ER,1,100,1.685087
1574943965.332258,196548.000,33625,2,ER,1,100,1.684966
1574943965.396254,196602.000,33644,2,ER,1,100,1.687987
1574943965.460250,196656.000,33644,2,ER,1,100,1.691532
1574943965.532542,196717.000,33662,1,ER,1,100,1.692982
1574943965.599501,196773.500,33679,2,ER,1,100,1.692499
1574943965.666460,196830.000,33679,2,ER,1,100,1.693748
1574943965.735789,196888.500,33697,2,ER,1,100,1.691854
1574943965.805118,196947.000,33697,2,ER,1,100,1.693949
1574943965.868522,197000.500,33713,2,ER,1,100,1.692418
1574943965.931925,197054.000,33713,2,ER,1,100,1.691451
1574943965.995922,197108.000,33731,2,ER,1,100,1.687665
1574943966.059918,197162.000,33731,2,ER,1,100,1.689921
1574943966.128654,197220.000,33749,1,ER,1,100,1.695077
1574943966.196206,197277.000,33767,2,ER,1,100,1.693304
1574943966.263757,197334.000,33767,2,ER,1,100,1.693385
1574943966.333086,197392.500,33785,2,ER,1,100,1.693748
1574943966.402416,197451.000,33785,2,ER,1,100,1.699629
1574943966.465819,197504.500,33804,2,ER,1,100,1.696527
1574943966.529223,197558.000,33804,2,ER,1,100,1.696849
1574943966.592627,197611.500,33822,2,ER,1,100,1.696124
1574943966.656030,197665.000,33822,2,ER,1,100,1.695560
1574943966.724767,197723.000,33840,1,ER,1,100,1.697333
1574943966.791726,197779.500,33857,2,ER,1,100,1.695399
1574943966.858685,197836.000,33857,2,ER,1,100,1.694553
1574943966.927421,197894.000,33875,2,ER,1,100,1.690162
1574943966.996158,197952.000,33875,2,ER,1,100,1.694674
1574943967.068450,198013.000,33891,1,ER,1,100,1.695037
1574943967.137187,198071.000,33909,2,ER,1,100,1.693465
1574943967.205923,198129.000,33909,2,ER,1,100,1.695681
1574943967.277623,198189.500,33927,2,ER,1,100,1.694191
1574943967.349322,198250.000,33927,2,ER,1,100,1.697736
1574943967.417466,198307.500,33946,2,ER,1,100,1.695802
1574943967.485610,198365.000,33946,2,ER,1,100,1.698662
1574943967.548421,198418.000,33964,2,ER,1,100,1.698018
1574943967.611232,198471.000,33964,2,ER,1,100,1.696245
1574943967.675229,198525.000,33982,1,ER,1,100,1.697252
1574943967.742188,198581.500,33999,2,ER,1,100,1.695681
1574943967.809146,198638.000,33999,2,ER,1,100,1.694996
1574943967.878476,198696.500,34017,2,ER,1,100,1.693868
1574943967.947805,198755.000,34017,2,ER,1,100,1.697453
1574943968.014764,198811.500,34035,2,ER,1,100,1.695681
1574943968.081723,198868.000,34035,2,ER,1,100,1.697292
1574943968.148682,198924.500,34051,2,ER,1,100,1.698098
1574943968.215641,198981.000,34051,2,ER,1,100,1.696205
1574943968.284377,199039.000,34072,2,ER,1,100,1.698823
1574943968.353114,199097.000,34072,2,ER,1,100,1.698461
1574943968.415925,199150.000,34093,2,ER,1,100,1.697695
1574943968.478736,199203.000,34093,2,ER,1,100,1.697736
1574943968.544510,199258.500,34111,2,ER,1,100,1.697856
1574943968.610284,199314.000,34111,2,ER,1,100,1.699145
1574943968.678428,199371.500,34129,2,ER,1,100,1.695359
1574943968.746572,199429.000,34129,2,ER,1,100,1.698380
1574943968.815309,199487.000,34145,2,ER,1,100,1.697856
1574943968.884045,199545.000,34145,2,ER,1,100,1.697695
1574943968.951596,199602.000,34163,1,ER,1,100,1.697252
1574943969.013815,199654.500,34181,2,ER,1,100,1.695641
1574943969.076034,199707.000,34181,2,ER,1,100,1.699669
1574943969.141215,199762.000,34199,2,ER,1,100,1.695681
1574943969.206396,199817.000,34199,2,ER,1,100,1.698179
1574943969.276318,199876.000,34217,2,ER,1,100,1.696648
1574943969.346240,199935.000,34217,2,ER,1,100,1.698743
1574943969.413199,199991.500,34236,2,ER,1,100,1.697131
1574943969.480158,200048.000,34236,2,ER,1,100,1.697212
1574943969.553635,200110.000,34254,1,ER,1,100,1.697292
1574943969.614668,200161.500,34271,2,ER,1,100,1.695641
1574943969.675701,200213.000,34271,2,ER,1,100,1.697655
1574943969.740290,200267.500,34289,2,ER,1,100,1.695883
1574943969.804879,200322.000,34289,2,ER,1,100,1.696769
1574943969.874208,200380.500,34307,2,ER,1,100,1.692861
1574943969.943537,200439.000,34307,2,ER,1,100,1.696245
1574943970.010496,200495.500,34323,2,ER,1,100,1.697494
1574943970.077455,200552.000,34323,2,ER,1,100,1.696688
1574943970.149747,200613.000,34341,1,ER,1,100,1.696406
1574943970.211966,200665.500,34359,2,ER,1,100,1.695399
1574943970.274184,200718.000,34359,2,ER,1,100,1.697695
1574943970.337588,200771.500,34377,2,ER,1,100,1.694634
1574943970.400991,200825.000,34377,2,ER,1,100,1.697333
1574943970.469728,200883.000,34396,2,ER,1,100,1.693667
1574943970.538465,200941.000,34396,2,ER,1,100,1.696688
1574943970.606609,200998.500,34414,2,ER,1,100,1.694835
1574943970.674753,201056.000,34414,2,ER,1,100,1.696165
1574943970.745860,201116.000,34432,1,ER,1,100,1.696285
1574943970.814004,201173.500,34449,2,ER,1,100,1.694191
1574943970.882148,201231.000,34449,2,ER,1,100,1.697373
1574943970.949107,201287.500,34467,2,ER,1,100,1.694311
1574943971.016066,201344.000,34467,2,ER,1,100,1.695721
1574943971.085395,201402.500,34483,2,ER,1,100,1.694352
1574943971.154724,201461.000,34483,2,ER,1,100,1.696124
1574943971.221091,201517.000,34501,1,ER,1,100,1.697534
1574943971.290420,201575.500,34519,2,ER,1,100,1.696608
1574943971.359749,201634.000,34519,2,ER,1,100,1.700314
1574943971.425523,201689.500,34538,2,ER,1,100,1.697695
1574943971.491297,201745.000,34538,2,ER,1,100,1.700716
1574943971.554700,201798.500,34556,2,ER,1,100,1.697051
1574943971.618104,201852.000,34556,2,ER,1,100,1.697534
1574943971.684470,201908.000,34574,2,ER,1,100,1.696930
1574943971.750837,201964.000,34574,2,ER,1,100,1.695520
1574943971.817203,202020.000,34592,1,ER,1,100,1.696648
1574943971.886532,202078.500,34609,2,ER,1,100,1.696567
1574943971.955861,202137.000,34609,2,ER,1,100,1.698541
1574943972.025783,202196.000,34627,2,ER,1,100,1.695439
1574943972.095705,202255.000,34627,2,ER,1,100,1.698501
1574943972.163849,202312.500,34643,2,ER,1,100,1.698058
1574943972.231993,202370.000,34643,2,ER,1,100,1.696044
1574943972.298359,202426.000,34661,1,ER,1,100,1.695359
1574943972.361763,202479.500,34680,2,ER,1,100,1.694110
1574943972.425167,202533.000,34680,2,ER,1,100,1.696165
1574943972.489755,202587.500,34698,2,ER,1,100,1.693264
1574943972.554344,202642.000,34698,2,ER,1,100,1.694352
1574943972.621303,202698.500,34716,2,ER,1,100,1.692700
1574943972.688262,202755.000,34716,2,ER,1,100,1.694795
1574943972.757591,202813.500,34734,2,ER,1,100,1.694352
1574943972.826920,202872.000,34734,2,ER,1,100,1.694311
1574943972.894472,202929.000,34752,1,ER,1,100,1.694956
1574943972.957875,202982.500,34769,2,ER,1,100,1.693868
1574943973.021279,203036.000,34769,2,ER,1,100,1.695439
1574943973.087053,203091.500,34787,2,ER,1,100,1.692136
1574943973.152827,203147.000,34787,2,ER,1,100,1.694150
1574943973.219786,203203.500,34805,2,ER,1,100,1.691331
1574943973.286745,203260.000,34805,2,ER,1,100,1.692499
1574943973.355481,203318.000,34821,2,ER,1,100,1.690485
1574943973.424218,203376.000,34821,2,ER,1,100,1.693465
1574943973.494140,203435.000,34840,1,ER,1,100,1.694311
1574943973.557543,203488.500,34858,2,ER,1,100,1.694070
1574943973.620947,203542.000,34858,2,ER,1,100,1.695319
1574943973.686128,203597.000,34876,2,ER,1,100,1.693063
1574943973.751309,203652.000,34876,2,ER,1,100,1.696003
1574943973.817676,203708.000,34894,2,ER,1,100,1.693627
1574943973.884042,203764.000,34894,2,ER,1,100,1.695319
1574943973.952186,203821.500,34912,2,ER,1,100,1.691170
1574943974.020330,203879.000,34912,2,ER,1,100,1.692378
1574943974.087882,203936.000,34930,1,ER,1,100,1.692579
1574943974.153063,203991.000,34947,2,ER,1,100,1.690807
1574943974.218245,204046.000,34947,2,ER,1,100,1.691532
1574943974.281846,204099.667,34968,3,ER,1,100,1.692177
1574943974.345447,204153.333,34968,3,ER,1,100,1.695359
1574943974.409048,204207.000,34968,3,ER,1,100,1.691693
1574943974.478970,204266.000,34989,2,ER,1,100,1.691612
1574943974.548891,204325.000,34989,2,ER,1,100,1.695963
1574943974.617035,204382.500,35007,2,ER,1,100,1.694634
1574943974.685179,204440.000,35007,2,ER,1,100,1.695359
1574943974.757472,204501.000,35025,1,ER,1,100,1.693506
1574943974.825616,204558.500,35042,2,ER,1,100,1.692579
1574943974.893760,204616.000,35042,2,ER,1,100,1.691975
1574943974.962496,204674.000,35060,2,ER,1,100,1.690323
1574943975.031233,204732.000,35060,2,ER,1,100,1.692056
1574943975.102340,204792.000,35076,2,ER,1,100,1.690041
1574943975.173447,204852.000,35076,2,ER,1,100,1.690847
1574943975.233887,204903.000,35094,1,ER,1,100,1.692418
1574943975.303809,204962.000,35112,2,ER,1,100,1.692539
1574943975.373731,205021.000,35112,2,ER,1,100,1.695278
1574943975.436542,205074.000,35131,2,ER,1,100,1.691895
1574943975.499353,205127.000,35131,2,ER,1,100,1.696245
1574943975.563349,205181.000,35149,2,ER,1,100,1.694473
1574943975.627345,205235.000,35149,2,ER,1,100,1.694513
1574943975.696082,205293.000,35167,2,ER,1,100,1.691210
1574943975.764819,205351.000,35167,2,ER,1,100,1.692217
1574943975.830000,205406.000,35185,1,ER,1,100,1.692620
1574943975.900514,205465.500,35202,2,ER,1,100,1.693707
1574943975.971029,205525.000,35202,2,ER,1,100,1.694634
1574943976.035025,205579.000,35220,2,ER,1,100,1.692338
1574943976.099021,205633.000,35220,2,ER,1,100,1.693546
1574943976.162425,205686.500,35238,2,ER,1,100,1.691653
1574943976.225828,205740.000,35238,2,ER,1,100,1.695439
1574943976.292787,205796.500,35254,2,ER,1,100,1.693345
1574943976.359746,205853.000,35254,2,ER,1,100,1.695238
1574943976.427298,205910.000,35273,1,ER,1,100,1.693546
1574943976.495442,205967.500,35291,2,ER,1,100,1.694271
1574943976.563586,206025.000,35291,2,ER,1,100,1.693627
1574943976.629359,206080.500,35309,2,ER,1,100,1.691451
1574943976.695133,206136.000,35309,2,ER,1,100,1.694070
1574943976.757944,206189.000,35327,2,ER,1,100,1.690686
1574943976.820755,206242.000,35327,2,ER,1,100,1.694594
1574943976.887714,206298.500,35345,2,ER,1,100,1.692257
1574943976.954674,206355.000,35345,2,ER,1,100,1.693989
1574943977.022225,206412.000,35363,2,ER,1,100,1.692942
1574943977.089777,206469.000,35363,2,ER,1,100,1.694553
1574943977.160883,206529.000,35381,1,ER,1,100,1.695439
1574943977.226657,206584.500,35398,2,ER,1,100,1.693868
1574943977.292431,206640.000,35398,2,ER,1,100,1.695601
1574943977.355835,206693.500,35416,2,ER,1,100,1.693063
1574943977.419238,206747.000,35416,2,ER,1,100,1.695117
1574943977.485605,206803.000,35434,2,ER,1,100,1.691935
1574943977.551971,206859.000,35434,2,ER,1,100,1.693949
1574943977.619523,206916.000,35451,2,ER,1,100,1.692700
1574943977.687074,206973.000,35451,2,ER,1,100,1.694029
1574943977.758181,207033.000,35469,1,ER,1,100,1.693224
1574943977.825140,207089.500,35487,2,ER,1,100,1.689961
1574943977.892099,207146.000,35487,2,ER,1,100,1.691814
1574943977.954910,207199.000,35505,2,ER,1,100,1.690243
1574943978.017721,207252.000,35505,2,ER,1,100,1.691451
1574943978.082902,207307.000,35523,2,ER,1,100,1.687343
1574943978.148083,207362.000,35523,2,ER,1,100,1.690082
1574943978.216228,207419.500,35541,2,ER,1,100,1.688470
1574943978.284372,207477.000,35541,2,ER,1,100,1.688188
1574943978.351923,207534.000,35559,1,ER,1,100,1.685731
1574943978.420660,207592.000,35577,2,ER,1,100,1.683878
1574943978.489396,207650.000,35577,2,ER,1,100,1.684120
1574943978.558133,207708.000,35595,2,ER,1,100,1.683556
1574943978.626870,207766.000,35595,2,ER,1,100,1.686335
1574943978.699162,207827.000,35611,1,ER,1,100,1.687423
1574943978.767898,207885.000,35629,2,ER,1,100,1.686134
1574943978.836635,207943.000,35629,2,ER,1,100,1.687584
1574943978.907742,208003.000,35647,2,ER,1,100,1.685892
1574943978.978849,208063.000,35647,2,ER,1,100,1.688309
1574943979.046993,208120.500,35665,2,ER,1,100,1.686174
1574943979.115137,208178.000,35665,2,ER,1,100,1.687101
1574943979.179133,208232.000,35683,2,ER,1,100,1.687181
1574943979.243129,208286.000,35683,2,ER,1,100,1.685651
1574943979.308311,208341.000,35701,1,ER,1,100,1.687463
1574943979.374084,208396.500,35719,2,ER,1,100,1.685530
1574943979.439858,208452.000,35719,2,ER,1,100,1.689679
1574943979.508002,208509.500,35737,2,ER,1,100,1.688793
1574943979.576146,208567.000,35737,2,ER,1,100,1.690767
1574943979.643105,208623.500,35755,2,ER,1,100,1.689115
1574943979.710064,208680.000,35755,2,ER,1,100,1.691170
1574943979.779986,208739.000,35771,1,ER,1,100,1.691532
1574943979.848130,208796.500,35789,2,ER,1,100,1.690485
1574943979.916274,208854.000,35789,2,ER,1,100,1.692015
1574943979.983233,208910.500,35807,2,ER,1,100,1.688994
1574943980.050192,208967.000,35807,2,ER,1,100,1.690767
1574943980.112411,209019.500,35825,2,ER,1,100,1.687665
1574943980.174629,209072.000,35825,2,ER,1,100,1.690847
1574943980.240995,209128.000,35843,2,ER,1,100,1.690404
1574943980.307362,209184.000,35843,2,ER,1,100,1.692982
1574943980.375308,209241.333,35864,3,ER,1,100,1.691854
1574943980.443255,209298.667,35864,3,ER,1,100,1.691975
1574943980.511201,209356.000,35864,3,ER,1,100,1.691774
1574943980.582308,209416.000,35885,1,ER,1,100,1.691895
1574943980.644527,209468.500,35903,2,ER,1,100,1.693022
1574943980.706745,209521.000,35903,2,ER,1,100,1.692338
1574943980.771334,209575.500,35921,2,ER,1,100,1.690041
1574943980.835923,209630.000,35921,2,ER,1,100,1.691935
1574943980.905844,209689.000,35939,2,ER,1,100,1.689437
1574943980.975766,209748.000,35939,2,ER,1,100,1.693184
1574943981.042725,209804.500,35957,2,ER,1,100,1.693586
1574943981.109684,209861.000,35957,2,ER,1,100,1.694674
1574943981.181976,209922.000,35975,1,ER,1,100,1.694634
1574943981.244787,209975.000,35992,2,ER,1,100,1.692056
1574943981.307598,210028.000,35992,2,ER,1,100,1.678279
1574943981.371594,210082.000,36010,2,ER,1,100,1.665187
1574943981.435591,210136.000,36010,2,ER,1,100,1.691170
1574943981.504327,210194.000,36029,2,ER,1,100,1.698823
1574943981.573064,210252.000,36029,2,ER,1,100,1.698300
1574943981.640023,210308.500,36045,2,ER,1,100,1.693143
1574943981.706982,210365.000,36045,2,ER,1,100,1.687020
1574943981.778089,210425.000,36063,1,ER,1,100,1.689639
1574943981.842085,210479.000,36081,2,ER,1,100,1.687705
1574943981.906081,210533.000,36081,2,ER,1,100,1.690041
1574943981.969485,210586.500,36099,2,ER,1,100,1.686940
1574943982.032888,210640.000,36099,2,ER,1,100,1.691250
1574943982.100440,210697.000,36117,2,ER,1,100,1.689276
1574943982.167991,210754.000,36117,2,ER,1,100,1.693506
1574943982.236728,210812.000,36135,2,ER,1,100,1.693748
1574943982.305465,210870.000,36135,2,ER,1,100,1.696970
1574943982.374201,210928.000,36153,1,ER,1,100,1.697695
1574943982.442938,210986.000,36171,2,ER,1,100,1.692177
1574943982.511674,211044.000,36171,2,ER,1,100,1.693143
1574943982.579818,211101.500,36189,2,ER,1,100,1.692297
1574943982.647963,211159.000,36189,2,ER,1,100,1.693788
1574943982.717292,211217.500,36205,2,ER,1,100,1.691693
1574943982.786621,211276.000,36205,2,ER,1,100,1.691290
1574943982.852987,211332.000,36223,1,ER,1,100,1.694714
1574943982.924094,211392.000,36241,2,ER,1,100,1.695923
1574943982.995201,211452.000,36241,2,ER,1,100,1.697655
1574943983.062160,211508.500,36259,2,ER,1,100,1.694795
1574943983.129119,211565.000,36259,2,ER,1,100,1.689840
1574943983.191930,211618.000,36277,2,ER,1,100,1.682549
1574943983.254741,211671.000,36277,2,ER,1,100,1.683475
1574943983.318737,211725.000,36295,1,ER,1,100,1.700233
1574943983.386289,211782.000,36313,2,ER,1,100,1.703416
1574943983.453840,211839.000,36313,2,ER,1,100,1.698904
1574943983.523169,211897.500,36331,2,ER,1,100,1.686899
1574943983.592499,211956.000,36331,2,ER,1,100,1.685006
1574943983.660050,212013.000,36349,2,ER,1,100,1.686658
1574943983.727602,212070.000,36349,2,ER,1,100,1.689921
1574943983.795746,212127.500,36365,2,ER,1,100,1.690767
1574943983.863890,212185.000,36365,2,ER,1,100,1.695641
1574943983.933811,212244.000,36383,1,ER,1,100,1.694714
1574943983.997215,212297.500,36401,2,ER,1,100,1.691451
1574943984.060619,212351.000,36401,2,ER,1,100,1.692740
1574943984.125207,212405.500,36419,2,ER,1,100,1.692620
1574943984.189796,212460.000,36419,2,ER,1,100,1.692902
1574943984.256163,212516.000,36437,2,ER,1,100,1.685651
1574943984.322529,212572.000,36437,2,ER,1,100,1.687101
1574943984.391266,212630.000,36455,2,ER,1,100,1.688108
1574943984.460002,212688.000,36455,2,ER,1,100,1.688511
1574943984.528739,212746.000,36474,1,ER,1,100,1.687544
1574943984.592735,212800.000,36491,2,ER,1,100,1.687745
1574943984.656731,212854.000,36491,2,ER,1,100,1.693707
1574943984.721912,212909.000,36509,2,ER,1,100,1.694150
1574943984.787094,212964.000,36509,2,ER,1,100,1.697413
1574943984.853460,213020.000,36527,2,ER,1,100,1.697574
1574943984.919827,213076.000,36527,2,ER,1,100,1.697373
1574943984.989156,213134.500,36543,2,ER,1,100,1.692861
1574943985.058485,213193.000,36543,2,ER,1,100,1.691612
1574943985.127222,213251.000,36561,1,ER,1,100,1.691854
1574943985.192403,213306.000,36579,2,ER,1,100,1.689719
1574943985.257584,213361.000,36579,2,ER,1,100,1.690364
1574943985.321580,213415.000,36597,2,ER,1,100,1.684724
1574943985.385576,213469.000,36597,2,ER,1,100,1.683636
1574943985.451350,213524.500,36616,2,ER,1,100,1.677433
1574943985.517124,213580.000,36616,2,ER,1,100,1.678158
1574943985.585861,213638.000,36634,2,ER,1,100,1.680132
1574943985.654598,213696.000,36634,2,ER,1,100,1.686899
1574943985.722149,213753.000,36652,1,ER,1,100,1.689115
1574943985.789108,213809.500,36669,2,ER,1,100,1.688632
1574943985.856067,213866.000,36669,2,ER,1,100,1.686174
1574943985.918285,213918.500,36687,2,ER,1,100,1.678762
1574943985.980504,213971.000,36687,2,ER,1,100,1.677030
1574943986.046278,214026.500,36705,2,ER,1,100,1.676103
1574943986.112051,214082.000,36705,2,ER,1,100,1.683959
1574943986.180788,214140.000,36721,2,ER,1,100,1.683193
1574943986.249525,214198.000,36721,2,ER,1,100,1.676023
1574943986.320632,214258.000,36739,1,ER,1,100,1.674492
1574943986.390158,214316.667,36759,3,ER,1,100,1.672881
1574943986.459685,214375.333,36759,3,ER,1,100,1.676265
1574943986.529212,214434.000,36759,3,ER,1,100,1.673686
1574943986.597356,214491.500,36781,2,ER,1,100,1.673767
1574943986.665500,214549.000,36781,2,ER,1,100,1.676909
1574943986.736607,214609.000,36797,1,ER,1,100,1.677675
1574943986.804751,214666.500,36815,2,ER,1,100,1.677836
1574943986.872895,214724.000,36815,2,ER,1,100,1.681381
1574943986.944002,214784.000,36833,2,ER,1,100,1.681582
1574943987.015109,214844.000,36833,2,ER,1,100,1.683032
1574943987.079697,214898.500,36851,2,ER,1,100,1.681300
1574943987.144286,214953.000,36851,2,ER,1,100,1.682186
1574943987.207690,215006.500,36869,2,ER,1,100,1.681824
1574943987.271093,215060.000,36869,2,ER,1,100,1.681944
1574943987.338645,215117.000,36887,1,ER,1,100,1.683314
1574943987.405604,215173.500,36905,2,ER,1,100,1.683959
1574943987.472563,215230.000,36905,2,ER,1,100,1.685409
1574943987.542485,215289.000,36923,2,ER,1,100,1.682952
1574943987.612406,215348.000,36923,2,ER,1,100,1.685852
1574943987.680550,215405.500,36941,2,ER,1,100,1.684926
1574943987.748694,215463.000,36941,2,ER,1,100,1.687947
1574943987.817431,215521.000,36957,1,ER,1,100,1.687262
1574943987.883797,215577.000,36975,2,ER,1,100,1.686940
1574943987.950164,215633.000,36975,2,ER,1,100,1.685812
1574943988.013567,215686.500,36993,2,ER,1,100,1.685167
1574943988.076971,215740.000,36993,2,ER,1,100,1.688229
1574943988.142152,215795.000,37011,2,ER,1,100,1.683918
1574943988.207334,215850.000,37011,2,ER,1,100,1.685610
1574943988.274885,215907.000,37029,2,ER,1,100,1.686819
1574943988.342437,215964.000,37029,2,ER,1,100,1.688954
1574943988.411766,216022.500,37047,2,ER,1,100,1.685973
1574943988.481095,216081.000,37047,2,ER,1,100,1.686497
1574943988.546276,216136.000,37066,1,ER,1,100,1.688672
1574943988.609680,216189.500,37083,2,ER,1,100,1.688350
1574943988.673084,216243.000,37083,2,ER,1,100,1.690646
1574943988.738858,216298.500,37101,2,ER,1,100,1.686980
1574943988.804631,216354.000,37101,2,ER,1,100,1.688430
1574943988.871590,216410.500,37119,2,ER,1,100,1.684321
1574943988.938549,216467.000,37119,2,ER,1,100,1.685490
1574943989.007286,216525.000,37135,2,ER,1,100,1.682106
1574943989.076022,216583.000,37135,2,ER,1,100,1.680655
1574943989.144759,216641.000,37153,1,ER,1,100,1.680051
1574943989.207570,216694.000,37171,2,ER,1,100,1.677151
1574943989.270381,216747.000,37171,2,ER,1,100,1.675378
1574943989.335562,216802.000,37189,2,ER,1,100,1.671834
1574943989.400744,216857.000,37189,2,ER,1,100,1.672518
1574943989.467703,216913.500,37208,2,ER,1,100,1.668530
1574943989.534662,216970.000,37208,2,ER,1,100,1.668490
1574943989.603398,217028.000,37226,2,ER,1,100,1.665791
1574943989.672135,217086.000,37226,2,ER,1,100,1.667241
1574943989.740871,217144.000,37244,1,ER,1,100,1.666073
1574943989.804275,217197.500,37261,2,ER,1,100,1.667483
1574943989.867679,217251.000,37261,2,ER,1,100,1.669457
1574943989.931082,217304.500,37279,2,ER,1,100,1.668409
1574943989.994486,217358.000,37279,2,ER,1,100,1.671592
1574943990.060852,217414.000,37297,2,ER,1,100,1.668893
1574943990.127219,217470.000,37297,2,ER,1,100,1.672639
1574943990.192993,217525.500,37315,2,ER,1,100,1.669658
1574943990.258766,217581.000,37315,2,ER,1,100,1.671793
1574943990.328688,217640.000,37331,2,ER,1,100,1.671310
1574943990.398610,217699.000,37331,2,ER,1,100,1.671189
1574943990.463791,217754.000,37350,1,ER,1,100,1.672720
1574943990.536083,217815.000,37368,2,ER,1,100,1.671632
1574943990.608375,217876.000,37368,2,ER,1,100,1.675822
1574943990.676519,217933.500,37386,2,ER,1,100,1.675822
1574943990.744663,217991.000,37386,2,ER,1,100,1.679366
1574943990.816955,218052.000,37404,1,ER,1,100,1.681099
1574943990.885099,218109.500,37421,2,ER,1,100,1.682388
1574943990.953243,218167.000,37421,2,ER,1,100,1.684764
1574943991.019017,218222.500,37439,2,ER,1,100,1.683717
1574943991.084791,218278.000,37439,2,ER,1,100,1.686819
1574943991.148195,218331.500,37457,2,ER,1,100,1.685127
1574943991.211598,218385.000,37457,2,ER,1,100,1.688914
1574943991.277965,218441.000,37473,2,ER,1,100,1.688954
1574943991.344331,218497.000,37473,2,ER,1,100,1.694271
1574943991.414253,218556.000,37491,1,ER,1,100,1.693868
1574943991.482990,218614.000,37510,2,ER,1,100,1.693989
1574943991.551726,218672.000,37510,2,ER,1,100,1.695641
1574943991.619278,218729.000,37528,2,ER,1,100,1.694231
1574943991.686829,218786.000,37528,2,ER,1,100,1.697252
1574943991.749048,218838.500,37546,2,ER,1,100,1.693989
1574943991.811266,218891.000,37546,2,ER,1,100,1.696366
1574943991.877040,218946.500,37564,2,ER,1,100,1.694191
1574943991.942814,219002.000,37564,2,ER,1,100,1.695560
1574943992.011550,219060.000,37582,1,ER,1,100,1.694432
1574943992.079102,219117.000,37599,2,ER,1,100,1.693949
1574943992.146654,219174.000,37599,2,ER,1,100,1.695117
1574943992.214798,219231.500,37617,2,ER,1,100,1.693063
1574943992.282942,219289.000,37617,2,ER,1,100,1.695802
1574943992.346345,219342.500,37635,2,ER,1,100,1.693063
1574943992.409749,219396.000,37635,2,ER,1,100,1.695238
1574943992.476115,219452.000,37655,3,ER,1,100,1.693546
1574943992.542482,219508.000,37655,3,ER,1,100,1.695037
1574943992.608848,219564.000,37655,3,ER,1,100,1.691774
1574943992.675215,219620.000,37675,1,ER,1,100,1.693063
1574943992.744544,219678.500,37692,2,ER,1,100,1.694432
1574943992.813873,219737.000,37692,2,ER,1,100,1.692579
1574943992.878462,219791.500,37710,2,ER,1,100,1.687584
1574943992.943050,219846.000,37710,2,ER,1,100,1.685852
1574943993.006454,219899.500,37728,2,ER,1,100,1.684039
1574943993.069858,219953.000,37728,2,ER,1,100,1.687665
1574943993.136817,220009.500,37744,2,ER,1,100,1.686295
1574943993.203775,220066.000,37744,2,ER,1,100,1.688551
1574943993.270142,220122.000,37762,1,ER,1,100,1.687826
1574943993.339471,220180.500,37780,2,ER,1,100,1.687987
1574943993.408800,220239.000,37780,2,ER,1,100,1.690162
1574943993.473982,220294.000,37799,2,ER,1,100,1.690122
1574943993.539163,220349.000,37799,2,ER,1,100,1.694070
1574943993.602566,220402.500,37817,2,ER,1,100,1.689760
1574943993.665970,220456.000,37817,2,ER,1,100,1.690444
1574943993.732929,220512.500,37835,2,ER,1,100,1.689276
1574943993.799888,220569.000,37835,2,ER,1,100,1.691895
1574943993.866254,220625.000,37853,1,ER,1,100,1.692982
1574943993.936176,220684.000,37870,2,ER,1,100,1.694029
1574943994.006098,220743.000,37870,2,ER,1,100,1.696165
1574943994.074242,220800.500,37888,2,ER,1,100,1.692861
1574943994.142386,220858.000,37888,2,ER,1,100,1.695963
1574943994.210530,220915.500,37905,2,ER,1,100,1.693143
1574943994.278674,220973.000,37905,2,ER,1,100,1.695158
1574943994.348596,221032.000,37922,1,ER,1,100,1.694070
1574943994.416740,221089.500,37941,2,ER,1,100,1.693425
1574943994.484884,221147.000,37941,2,ER,1,100,1.695158
1574943994.554213,221205.500,37959,2,ER,1,100,1.692942
1574943994.623542,221264.000,37959,2,ER,1,100,1.695963
1574943994.694057,221323.500,37977,2,ER,1,100,1.693022
1574943994.764571,221383.000,37977,2,ER,1,100,1.695842
1574943994.833308,221441.000,37995,1,ER,1,100,1.695601
1574943994.902044,221499.000,38012,2,ER,1,100,1.694432
1574943994.970781,221557.000,38012,2,ER,1,100,1.697494
1574943995.033592,221610.000,38030,2,ER,1,100,1.695278
1574943995.096403,221663.000,38030,2,ER,1,100,1.695721
1574943995.162177,221718.500,38048,2,ER,1,100,1.692177
1574943995.227951,221774.000,38048,2,ER,1,100,1.693022
1574943995.294910,221830.500,38064,2,ER,1,100,1.690887
1574943995.361869,221887.000,38064,2,ER,1,100,1.691049
1574943995.430605,221945.000,38082,1,ER,1,100,1.692136
1574943995.498749,222002.500,38101,2,ER,1,100,1.693063
1574943995.566893,222060.000,38101,2,ER,1,100,1.696044
1574943995.631482,222114.500,38119,2,ER,1,100,1.695802
1574943995.696071,222169.000,38119,2,ER,1,100,1.696205
1574943995.759475,222222.500,38137,2,ER,1,100,1.693103
1574943995.822878,222276.000,38137,2,ER,1,100,1.695842
1574943995.889837,222332.500,38155,2,ER,1,100,1.693627
1574943995.956796,222389.000,38155,2,ER,1,100,1.694674
1574943996.025533,222447.000,38173,1,ER,1,100,1.693949
1574943996.093677,222504.500,38190,2,ER,1,100,1.692781
1574943996.161821,222562.000,38190,2,ER,1,100,1.693748
1574943996.227595,222617.500,38208,2,ER,1,100,1.691250
1574943996.293368,222673.000,38208,2,ER,1,100,1.692821
1574943996.357365,222727.000,38226,2,ER,1,100,1.692338
1574943996.421361,222781.000,38226,2,ER,1,100,1.694916
1574943996.487135,222836.500,38245,2,ER,1,100,1.691089
1574943996.552908,222892.000,38245,2,ER,1,100,1.693788
1574943996.624015,222952.000,38261,1,ER,1,100,1.693184
1574943996.690974,223008.500,38279,2,ER,1,100,1.691774
1574943996.757933,223065.000,38279,2,ER,1,100,1.692418
1574943996.824892,223121.500,38297,2,ER,1,100,1.690726
1574943996.891851,223178.000,38297,2,ER,1,100,1.693385
1574943996.955255,223231.500,38315,2,ER,1,100,1.689800
1574943997.018658,223285.000,38315,2,ER,1,100,1.693264
1574943997.083840,223340.000,38333,2,ER,1,100,1.689800
1574943997.149021,223395.000,38333,2,ER,1,100,1.693707
1574943997.217758,223453.000,38351,2,ER,1,100,1.693949
1574943997.286494,223511.000,38351,2,ER,1,100,1.692297
1574943997.354046,223568.000,38369,1,ER,1,100,1.694594
1574943997.422782,223626.000,38386,2,ER,1,100,1.692700
1574943997.491519,223684.000,38386,2,ER,1,100,1.695681
1574943997.553737,223736.500,38405,2,ER,1,100,1.692861
1574943997.615956,223789.000,38405,2,ER,1,100,1.694432
1574943997.681730,223844.500,38423,2,ER,1,100,1.691814
1574943997.747504,223900.000,38423,2,ER,1,100,1.694634
1574943997.810907,223953.500,38439,2,ER,1,100,1.693788
1574943997.874311,224007.000,38439,2,ER,1,100,1.693103
1574943997.944233,224066.000,38457,1,ER,1,100,1.691814
1574943998.011192,224122.500,38475,2,ER,1,100,1.690243
1574943998.078151,224179.000,38475,2,ER,1,100,1.693345
1574943998.148665,224238.500,38493,2,ER,1,100,1.692217
1574943998.219179,224298.000,38493,2,ER,1,100,1.693989
1574943998.287323,224355.500,38511,2,ER,1,100,1.690928
1574943998.355467,224413.000,38511,2,ER,1,100,1.692982
1574943998.425389,224472.000,38529,1,ER,1,100,1.693224
1574943998.493731,224529.667,38550,3,ER,1,100,1.692177
1574943998.562072,224587.333,38550,3,ER,1,100,1.692539
1574943998.630414,224645.000,38550,3,ER,1,100,1.688672
1574943998.696780,224701.000,38570,2,ER,1,100,1.688148
1574943998.763147,224757.000,38570,2,ER,1,100,1.691612
1574943998.826550,224810.500,38588,2,ER,1,100,1.689357
1574943998.889954,224864.000,38588,2,ER,1,100,1.690968
1574943998.956320,224920.000,38606,2,ER,1,100,1.688873
1574943999.022687,224976.000,38606,2,ER,1,100,1.691492
1574943999.086683,225030.000,38624,2,ER,1,100,1.692096
1574943999.150679,225084.000,38624,2,ER,1,100,1.690968
1574943999.218230,225141.000,38642,1,ER,1,100,1.692338
1574943999.286375,225198.500,38659,2,ER,1,100,1.691492
1574943999.354519,225256.000,38659,2,ER,1,100,1.694432
1574943999.423255,225314.000,38677,2,ER,1,100,1.691331
1574943999.491992,225372.000,38677,2,ER,1,100,1.693627
1574943999.556581,225426.500,38694,2,ER,1,100,1.691532
1574943999.621169,225481.000,38694,2,ER,1,100,1.691814
1574943999.683980,225534.000,38712,2,ER,1,100,1.693707
1574943999.746792,225587.000,38712,2,ER,1,100,1.693022
1574943999.814343,225644.000,38730,1,ER,1,100,1.695278
1574943999.881895,225701.000,38748,2,ER,1,100,1.691814
1574943999.949446,225758.000,38748,2,ER,1,100,1.693425
1574944000.018183,225816.000,38766,2,ER,1,100,1.690001
1574944000.086919,225874.000,38766,2,ER,1,100,1.691612
1574944000.153878,225930.500,38784,2,ER,1,100,1.690767
1574944000.220837,225987.000,38784,2,ER,1,100,1.692660
1574944000.282463,226039.000,38802,2,ER,1,100,1.691693
1574944000.344089,226091.000,38802,2,ER,1,100,1.691492
1574944000.412826,226149.000,38820,1,ER,1,100,1.692499
1574944000.479785,226205.500,38838,2,ER,1,100,1.691331
1574944000.546744,226262.000,38838,2,ER,1,100,1.695117
1574944000.615480,226320.000,38856,2,ER,1,100,1.693345
1574944000.684217,226378.000,38856,2,ER,1,100,1.694795
1574944000.752361,226435.500,38872,2,ER,1,100,1.692458
1574944000.820505,226493.000,38872,2,ER,1,100,1.693264
1574944000.881538,226544.500,38890,2,ER,1,100,1.691854
1574944000.942572,226596.000,38890,2,ER,1,100,1.692458
1574944001.007753,226651.000,38908,1,ER,1,100,1.692660
1574944001.073527,226706.500,38926,2,ER,1,100,1.692781
1574944001.139301,226762.000,38926,2,ER,1,100,1.695399
1574944001.208037,226820.000,38944,2,ER,1,100,1.693465
1574944001.276774,226878.000,38944,2,ER,1,100,1.696849
1574944001.344918,226935.500,38962,2,ER,1,100,1.693345
1574944001.413062,226993.000,38962,2,ER,1,100,1.695399
1574944001.474688,227045.000,38981,2,ER,1,100,1.693949
1574944001.536314,227097.000,38981,2,ER,1,100,1.693063
1574944001.601495,227152.000,38999,2,ER,1,100,1.693425
1574944001.666677,227207.000,38999,2,ER,1,100,1.692660
1574944001.735413,227265.000,39017,1,ER,1,100,1.694231
1574944001.800595,227320.000,39034,2,ER,1,100,1.692418
1574944001.865776,227375.000,39034,2,ER,1,100,1.694150
1574944001.932142,227431.000,39052,2,ER,1,100,1.692217
1574944001.998509,227487.000,39052,2,ER,1,100,1.693707
1574944002.066060,227544.000,39069,2,ER,1,100,1.691854
1574944002.133612,227601.000,39069,2,ER,1,100,1.693748
1574944002.198793,227656.000,39086,2,ER,1,100,1.693828
1574944002.263974,227711.000,39086,2,ER,1,100,1.691854
1574944002.332711,227769.000,39104,1,ER,1,100,1.693989
1574944002.400262,227826.000,39122,2,ER,1,100,1.691170
1574944002.467814,227883.000,39122,2,ER,1,100,1.693465
1574944002.538921,227943.000,39141,2,ER,1,100,1.690887
1574944002.610028,228003.000,39141,2,ER,1,100,1.692015
1574944002.672839,228056.000,39159,2,ER,1,100,1.693103
1574944002.735650,228109.000,39159,2,ER,1,100,1.693586
1574944002.799646,228163.000,39177,2,ER,1,100,1.693909
1574944002.863642,228217.000,39177,2,ER,1,100,1.692257
1574944002.934749,228277.000,39195,1,ER,1,100,1.695802
1574944002.998152,228330.500,39212,2,ER,1,100,1.692418
1574944003.061556,228384.000,39212,2,ER,1,100,1.695198
1574944003.130293,228442.000,39230,2,ER,1,100,1.693063
1574944003.199029,228500.000,39230,2,ER,1,100,1.695319
1574944003.267174,228557.500,39246,2,ER,1,100,1.693304
1574944003.335318,228615.000,39246,2,ER,1,100,1.693586
1574944003.406425,228675.000,39264,1,ER,1,100,1.693667
1574944003.470421,228729.000,39283,2,ER,1,100,1.692499
1574944003.534417,228783.000,39283,2,ER,1,100,1.694795
1574944003.597820,228836.500,39301,2,ER,1,100,1.693103
1574944003.661224,228890.000,39301,2,ER,1,100,1.697373
1574944003.727590,228946.000,39319,2,ER,1,100,1.693304
1574944003.793957,229002.000,39319,2,ER,1,100,1.696245
1574944003.861508,229059.000,39337,2,ER,1,100,1.694311
1574944003.929060,229116.000,39337,2,ER,1,100,1.697615
1574944003.996611,229173.000,39355,1,ER,1,100,1.696890
1574944004.063570,229229.500,39372,2,ER,1,100,1.695037
1574944004.130529,229286.000,39372,2,ER,1,100,1.696688
1574944004.193933,229339.500,39390,2,ER,1,100,1.693788
1574944004.257337,229393.000,39390,2,ER,1,100,1.695681
1574944004.324296,229449.500,39408,2,ER,1,100,1.695117
1574944004.391254,229506.000,39408,2,ER,1,100,1.699105
1574944004.458806,229563.000,39425,2,ER,1,100,1.696044
1574944004.526357,229620.000,39425,2,ER,1,100,1.697736
1574944004.595687,229678.500,39446,2,ER,1,100,1.696809
1574944004.665016,229737.000,39446,2,ER,1,100,1.696366
1574944004.730197,229792.000,39466,2,ER,1,100,1.695077
1574944004.795378,229847.000,39466,2,ER,1,100,1.696608
1574944004.857004,229899.000,39483,2,ER,1,100,1.696165
1574944004.918630,229951.000,39483,2,ER,1,100,1.697212
1574944004.985589,230007.500,39501,2,ER,1,100,1.694755
1574944005.052548,230064.000,39501,2,ER,1,100,1.697051
1574944005.121877,230122.500,39518,2,ER,1,100,1.697977
1574944005.191206,230181.000,39518,2,ER,1,100,1.699387
1574944005.257573,230237.000,39535,1,ER,1,100,1.697011
1574944005.323347,230292.500,39553,2,ER,1,100,1.698219
1574944005.389121,230348.000,39553,2,ER,1,100,1.698863
1574944005.453709,230402.500,39572,2,ER,1,100,1.696366
1574944005.518298,230457.000,39572,2,ER,1,100,1.698622
1574944005.581109,230510.000,39590,2,ER,1,100,1.695802
1574944005.643920,230563.000,39590,2,ER,1,100,1.698259
1574944005.710287,230619.000,39608,2,ER,1,100,1.694996
1574944005.776653,230675.000,39608,2,ER,1,100,1.697131
1574944005.844204,230732.000,39626,2,ER,1,100,1.696285
1574944005.911756,230789.000,39626,2,ER,1,100,1.697816
1574944005.980493,230847.000,39644,1,ER,1,100,1.697937
1574944006.048044,230904.000,39661,2,ER,1,100,1.697091
1574944006.115596,230961.000,39661,2,ER,1,100,1.699145
1574944006.180777,231016.000,39679,2,ER,1,100,1.697011
1574944006.245958,231071.000,39679,2,ER,1,100,1.698259
1574944006.315288,231129.500,39697,2,ER,1,100,1.695037
1574944006.384617,231188.000,39697,2,ER,1,100,1.697252
1574944006.452761,231245.500,39714,2,ER,1,100,1.694875
1574944006.520905,231303.000,39714,2,ER,1,100,1.694956
1574944006.588456,231360.000,39732,1,ER,1,100,1.697413
1574944006.654823,231416.000,39750,2,ER,1,100,1.696205
1574944006.721189,231472.000,39750,2,ER,1,100,1.698501
1574944006.785778,231526.500,39768,2,ER,1,100,1.696245
1574944006.850367,231581.000,39768,2,ER,1,100,1.699186
1574944006.914955,231635.500,39786,2,ER,1,100,1.696769
1574944006.979544,231690.000,39786,2,ER,1,100,1.699186
1574944007.045910,231746.000,39804,2,ER,1,100,1.696809
1574944007.112277,231802.000,39804,2,ER,1,100,1.696970
1574944007.182199,231861.000,39822,1,ER,1,100,1.696487
1574944007.249157,231917.500,39839,2,ER,1,100,1.695319
1574944007.316117,231974.000,39839,2,ER,1,100,1.696648
1574944007.383075,232030.500,39857,2,ER,1,100,1.696165
1574944007.450034,232087.000,39857,2,ER,1,100,1.698702
1574944007.512253,232139.500,39876,2,ER,1,100,1.695560
1574944007.574471,232192.000,39876,2,ER,1,100,1.697413
1574944007.641430,232248.500,39892,2,ER,1,100,1.696003
1574944007.708389,232305.000,39892,2,ER,1,100,1.697091
1574944007.777126,232363.000,39910,1,ER,1,100,1.696245
1574944007.845270,232420.500,39928,2,ER,1,100,1.694875
1574944007.913414,232478.000,39928,2,ER,1,100,1.695842
1574944007.980966,232535.000,39946,2,ER,1,100,1.693224
1574944008.048517,232592.000,39946,2,ER,1,100,1.696406
1574944008.111921,232645.500,39964,2,ER,1,100,1.693184
1574944008.175324,232699.000,39964,2,ER,1,100,1.696326
1574944008.239913,232753.500,39982,2,ER,1,100,1.694110
1574944008.304502,232808.000,39982,2,ER,1,100,1.695037
1574944008.375609,232868.000,40000,1,ER,1,100,1.694271
1574944008.442568,232924.500,40018,2,ER,1,100,1.694513
1574944008.509526,232981.000,40018,2,ER,1,100,1.695641
1574944008.578263,233039.000,40036,2,ER,1,100,1.692539
1574944008.647000,233097.000,40036,2,ER,1,100,1.694674
1574944008.709218,233149.500,40052,2,ER,1,100,1.691371
1574944008.771437,233202.000,40052,2,ER,1,100,1.694594
1574944008.836025,233256.500,40070,2,ER,1,100,1.693425
1574944008.900614,233311.000,40070,2,ER,1,100,1.696044
1574944008.968166,233368.000,40088,2,ER,1,100,1.695439
1574944009.035717,233425.000,40088,2,ER,1,100,1.694674
1574944009.103269,233482.000,40106,1,ER,1,100,1.695158
1574944009.173191,233541.000,40124,2,ER,1,100,1.693586
1574944009.243112,233600.000,40124,2,ER,1,100,1.695520
1574944009.305331,233652.500,40142,2,ER,1,100,1.692257
1574944009.367549,233705.000,40142,2,ER,1,100,1.693707
1574944009.432138,233759.500,40161,2,ER,1,100,1.692257
1574944009.496727,233814.000,40161,2,ER,1,100,1.694875
1574944009.560130,233867.500,40179,2,ER,1,100,1.694714
1574944009.623534,233921.000,40179,2,ER,1,100,1.696245
1574944009.689900,233977.000,40197,1,ER,1,100,1.696809
1574944009.753304,234030.500,40215,2,ER,1,100,1.694271
1574944009.816708,234084.000,40215,2,ER,1,100,1.696487
1574944009.881296,234138.500,40232,2,ER,1,100,1.695520
1574944009.945885,234193.000,40232,2,ER,1,100,1.697413
1574944010.009881,234247.000,40250,2,ER,1,100,1.693506
1574944010.073877,234301.000,40250,2,ER,1,100,1.696285
1574944010.140836,234357.500,40268,2,ER,1,100,1.694191
1574944010.207795,234414.000,40268,2,ER,1,100,1.696446
1574944010.277125,234472.500,40284,2,ER,1,100,1.695077
1574944010.346454,234531.000,40284,2,ER,1,100,1.696688
1574944010.412820,234587.000,40303,1,ER,1,100,1.696044
1574944010.478594,234642.500,40321,2,ER,1,100,1.695560
1574944010.544368,234698.000,40321,2,ER,1,100,1.697373
1574944010.609549,234753.000,40342,3,ER,1,100,1.694916
1574944010.674730,234808.000,40342,3,ER,1,100,1.697252
1574944010.739912,234863.000,40342,3,ER,1,100,1.694070
1574944010.802130,234915.500,40362,2,ER,1,100,1.693385
1574944010.864349,234968.000,40362,2,ER,1,100,1.695399
1574944010.932493,235025.500,40380,2,ER,1,100,1.692700
1574944011.000637,235083.000,40380,2,ER,1,100,1.695560
1574944011.068188,235140.000,40396,2,ER,1,100,1.694956
1574944011.135740,235197.000,40396,2,ER,1,100,1.695278
1574944011.205662,235256.000,40414,1,ER,1,100,1.695842
1574944011.272028,235312.000,40432,2,ER,1,100,1.695560
1574944011.338394,235368.000,40432,2,ER,1,100,1.697574
1574944011.401206,235421.000,40451,2,ER,1,100,1.693989
1574944011.464016,235474.000,40451,2,ER,1,100,1.695117
1574944011.530383,235530.000,40469,2,ER,1,100,1.692177
1574944011.596749,235586.000,40469,2,ER,1,100,1.695439
1574944011.666079,235644.500,40487,2,ER,1,100,1.692942
1574944011.735408,235703.000,40487,2,ER,1,100,1.694070
1574944011.801774,235759.000,40505,1,ER,1,100,1.695399
1574944011.870511,235817.000,40522,2,ER,1,100,1.695560
1574944011.939247,235875.000,40522,2,ER,1,100,1.697816
1574944012.000281,235926.500,40540,2,ER,1,100,1.695560
1574944012.061314,235978.000,40540,2,ER,1,100,1.697212
1574944012.127088,236033.500,40558,2,ER,1,100,1.696326
1574944012.192862,236089.000,40558,2,ER,1,100,1.697736
1574944012.262784,236148.000,40574,2,ER,1,100,1.695601
1574944012.332705,236207.000,40574,2,ER,1,100,1.695560
1574944012.399072,236263.000,40593,1,ER,1,100,1.695238
1574944012.467808,236321.000,40611,2,ER,1,100,1.693506
1574944012.536545,236379.000,40611,2,ER,1,100,1.695439
1574944012.598171,236431.000,40629,2,ER,1,100,1.692257
1574944012.659797,236483.000,40629,2,ER,1,100,1.697816
1574944012.723793,236537.000,40647,2,ER,1,100,1.695278
1574944012.787789,236591.000,40647,2,ER,1,100,1.697937
1574944012.857711,236650.000,40665,2,ER,1,100,1.696205
1574944012.927633,236709.000,40665,2,ER,1,100,1.697333
1574944012.992814,236764.000,40683,1,ER,1,100,1.696849
1574944013.062736,236823.000,40700,2,ER,1,100,1.695923
1574944013.132658,236882.000,40700,2,ER,1,100,1.696728
1574944013.197839,236937.000,40718,2,ER,1,100,1.693143
1574944013.263020,236992.000,40718,2,ER,1,100,1.695037
1574944013.330571,237049.000,40734,2,ER,1,100,1.692700
1574944013.398123,237106.000,40734,2,ER,1,100,1.694513
1574944013.465675,237163.000,40753,1,ER,1,100,1.694110
1574944013.532041,237219.000,40771,2,ER,1,100,1.693224
1574944013.598407,237275.000,40771,2,ER,1,100,1.690122
1574944013.661811,237328.500,40789,2,ER,1,100,1.689558
1574944013.725214,237382.000,40789,2,ER,1,100,1.691411
1574944013.791581,237438.000,40807,2,ER,1,100,1.690202
1574944013.857947,237494.000,40807,2,ER,1,100,1.694029
1574944013.921351,237547.500,40825,2,ER,1,100,1.691049
1574944013.984755,237601.000,40825,2,ER,1,100,1.693989
1574944014.052899,237658.500,40843,2,ER,1,100,1.692579
1574944014.121043,237716.000,40843,2,ER,1,100,1.693707
1574944014.186224,237771.000,40861,1,ER,1,100,1.692539
1574944014.256738,237830.500,40878,2,ER,1,100,1.691653
1574944014.327253,237890.000,40878,2,ER,1,100,1.693788
1574944014.392434,237945.000,40897,2,ER,1,100,1.690243
1574944014.457615,238000.000,40897,2,ER,1,100,1.694311
1574944014.521019,238053.500,40915,2,ER,1,100,1.693546
1574944014.584422,238107.000,40915,2,ER,1,100,1.695963
1574944014.651974,238164.000,40931,2,ER,1,100,1.693506
1574944014.719526,238221.000,40931,2,ER,1,100,1.695560
1574944014.784114,238275.500,40949,2,ER,1,100,1.695560
1574944014.848703,238330.000,40949,2,ER,1,100,1.694311
1574944014.916255,238387.000,40967,1,ER,1,100,1.697011
1574944014.983806,238444.000,40985,2,ER,1,100,1.693788
1574944015.051358,238501.000,40985,2,ER,1,100,1.695278
1574944015.120687,238559.500,41003,2,ER,1,100,1.692458
1574944015.190016,238618.000,41003,2,ER,1,100,1.694835
1574944015.253419,238671.500,41021,2,ER,1,100,1.692579
1574944015.316823,238725.000,41021,2,ER,1,100,1.694755
1574944015.380819,238779.000,41040,2,ER,1,100,1.696205
1574944015.444815,238833.000,41040,2,ER,1,100,1.695641
1574944015.509997,238888.000,41058,1,ER,1,100,1.696567
1574944015.578141,238945.500,41075,2,ER,1,100,1.694352
1574944015.646285,239003.000,41075,2,ER,1,100,1.696567
1574944015.715614,239061.500,41093,2,ER,1,100,1.694271
1574944015.784943,239120.000,41093,2,ER,1,100,1.697212
1574944015.850717,239175.500,41109,2,ER,1,100,1.693143
1574944015.916491,239231.000,41109,2,ER,1,100,1.693748
1574944015.978117,239283.000,41127,2,ER,1,100,1.693143
1574944016.039743,239335.000,41127,2,ER,1,100,1.691975
1574944016.108479,239393.000,41145,1,ER,1,100,1.694110
1574944016.175438,239449.500,41163,2,ER,1,100,1.695319
1574944016.242397,239506.000,41163,2,ER,1,100,1.697977
1574944016.311134,239564.000,41181,2,ER,1,100,1.693949
1574944016.379871,239622.000,41181,2,ER,1,100,1.694231
1574944016.446237,239678.000,41200,2,ER,1,100,1.695681
1574944016.512604,239734.000,41200,2,ER,1,100,1.698058
1574944016.574229,239786.000,41218,2,ER,1,100,1.696406
1574944016.635855,239838.000,41218,2,ER,1,100,1.697011
1574944016.702617,239894.333,41239,3,ER,1,100,1.697413
1574944016.769378,239950.667,41239,3,ER,1,100,1.698420
1574944016.836140,240007.000,41239,3,ER,1,100,1.700394
1574944016.907246,240067.000,41259,1,ER,1,100,1.699387
1574944016.975983,240125.000,41277,2,ER,1,100,1.693909
1574944017.044720,240183.000,41277,2,ER,1,100,1.689518
1574944017.106938,240235.500,41295,2,ER,1,100,1.685369
1574944017.169157,240288.000,41295,2,ER,1,100,1.683193
1574944017.236708,240345.000,41313,2,ER,1,100,1.686295
1574944017.304260,240402.000,41313,2,ER,1,100,1.692338
1574944017.365886,240454.000,41332,1,ER,1,100,1.686980
1574944017.433437,240511.000,41349,2,ER,1,100,1.683798
1574944017.500989,240568.000,41349,2,ER,1,100,1.685006
1574944017.566170,240623.000,41367,2,ER,1,100,1.681340
1574944017.631351,240678.000,41367,2,ER,1,100,1.681461
1574944017.695940,240732.500,41385,2,ER,1,100,1.676909
1574944017.760529,240787.000,41385,2,ER,1,100,1.679286
1574944017.825118,240841.500,41401,2,ER,1,100,1.675862
1574944017.889706,240896.000,41401,2,ER,1,100,1.675298
1574944017.956073,240952.000,41419,2,ER,1,100,1.669296
1574944018.022439,241008.000,41419,2,ER,1,100,1.668288
1574944018.092361,241067.000,41437,1,ER,1,100,1.673284
1574944018.160505,241124.500,41455,2,ER,1,100,1.679890
1574944018.228649,241182.000,41455,2,ER,1,100,1.682509
1574944018.295015,241238.000,41473,2,ER,1,100,1.677634
1574944018.361382,241294.000,41473,2,ER,1,100,1.678802
1574944018.424785,241347.500,41492,2,ER,1,100,1.675701
1574944018.488189,241401.000,41492,2,ER,1,100,1.678520
1574944018.554555,241457.000,41510,2,ER,1,100,1.677956
1574944018.620922,241513.000,41510,2,ER,1,100,1.677272
1574944018.684918,241567.000,41528,1,ER,1,100,1.675499
1574944018.751284,241623.000,41545,2,ER,1,100,1.681904
1574944018.817651,241679.000,41545,2,ER,1,100,1.684885
1574944018.886387,241737.000,41563,2,ER,1,100,1.681018
1574944018.955124,241795.000,41563,2,ER,1,100,1.680696
1574944019.023861,241853.000,41581,2,ER,1,100,1.682589
1574944019.092597,241911.000,41581,2,ER,1,100,1.689478
1574944019.155408,241964.000,41597,2,ER,1,100,1.689800
1574944019.218219,242017.000,41597,2,ER,1,100,1.684885
1574944019.282216,242071.000,41615,2,ER,1,100,1.686094
1574944019.346212,242125.000,41615,2,ER,1,100,1.686416
1574944019.413763,242182.000,41634,1,ER,1,100,1.688632
1574944019.481907,242239.500,41652,2,ER,1,100,1.688430
1574944019.550051,242297.000,41652,2,ER,1,100,1.693345
1574944019.619380,242355.500,41670,2,ER,1,100,1.688068
1574944019.688710,242414.000,41670,2,ER,1,100,1.690686
1574944019.752706,242468.000,41688,2,ER,1,100,1.689397
1574944019.816702,242522.000,41688,2,ER,1,100,1.689155
1574944019.880106,242575.500,41706,2,ER,1,100,1.689478
1574944019.943509,242629.000,41706,2,ER,1,100,1.689639
1574944020.011061,242686.000,41724,1,ER,1,100,1.690565
1574944020.079798,242744.000,41741,2,ER,1,100,1.688511
1574944020.148534,242802.000,41741,2,ER,1,100,1.690283
1574944020.217863,242860.500,41759,2,ER,1,100,1.687302
1574944020.287192,242919.000,41759,2,ER,1,100,1.691895
1574944020.352374,242974.000,41776,2,ER,1,100,1.693385
1574944020.417555,243029.000,41776,2,ER,1,100,1.692579
1574944020.480959,243082.500,41794,2,ER,1,100,1.693989
1574944020.544362,243136.000,41794,2,ER,1,100,1.693224
1574944020.608358,243190.000,41812,1,ER,1,100,1.694150
1574944020.675910,243247.000,41830,2,ER,1,100,1.691250
1574944020.743461,243304.000,41830,2,ER,1,100,1.695117
1574944020.812791,243362.500,41848,2,ER,1,100,1.691975
1574944020.882120,243421.000,41848,2,ER,1,100,1.694473
1574944020.951449,243479.500,41866,2,ER,1,100,1.690968
1574944021.020778,243538.000,41866,2,ER,1,100,1.691854
1574944021.091885,243598.000,41884,1,ER,1,100,1.693627
1574944021.161807,243657.000,41901,2,ER,1,100,1.694191
1574944021.231729,243716.000,41901,2,ER,1,100,1.695520
1574944021.299873,243773.500,41917,2,ER,1,100,1.693949
1574944021.368017,243831.000,41917,2,ER,1,100,1.696366
1574944021.433198,243886.000,41936,2,ER,1,100,1.694634
1574944021.498379,243941.000,41936,2,ER,1,100,1.693506
1574944021.560005,243993.000,41954,1,ER,1,100,1.694110
1574944021.625186,244048.000,41972,2,ER,1,100,1.692982
1574944021.690368,244103.000,41972,2,ER,1,100,1.692902
1574944021.752586,244155.500,41990,2,ER,1,100,1.689357
1574944021.814805,244208.000,41990,2,ER,1,100,1.694795
1574944021.881171,244264.000,42008,2,ER,1,100,1.693586
1574944021.947538,244320.000,42008,2,ER,1,100,1.695963
1574944022.016867,244378.500,42026,2,ER,1,100,1.693143
1574944022.086196,244437.000,42026,2,ER,1,100,1.694432
1574944022.152562,244493.000,42044,1,ER,1,100,1.694432
1574944022.220706,244550.500,42061,2,ER,1,100,1.693586
1574944022.288851,244608.000,42061,2,ER,1,100,1.694271
1574944022.355217,244664.000,42080,2,ER,1,100,1.692700
1574944022.421583,244720.000,42080,2,ER,1,100,1.692660
1574944022.484987,244773.500,42098,2,ER,1,100,1.690847
1574944022.548390,244827.000,42098,2,ER,1,100,1.693103
1574944022.612979,244881.500,42116,2,ER,1,100,1.691129
1574944022.677568,244936.000,42116,2,ER,1,100,1.694916
1574944022.744725,244992.667,42135,3,ER,1,100,1.693103
1574944022.811881,245049.333,42135,3,ER,1,100,1.692861
1574944022.879037,245106.000,42135,3,ER,1,100,1.692177
1574944022.947774,245164.000,42155,1,ER,1,100,1.692982
1574944023.015918,245221.500,42172,2,ER,1,100,1.695238
1574944023.084062,245279.000,42172,2,ER,1,100,1.694311
1574944023.146873,245332.000,42190,2,ER,1,100,1.690041
1574944023.209684,245385.000,42190,2,ER,1,100,1.692458
1574944023.274866,245440.000,42208,2,ER,1,100,1.689558
1574944023.340047,245495.000,42208,2,ER,1,100,1.693788
1574944023.409969,245554.000,42225,2,ER,1,100,1.691935
1574944023.479890,245613.000,42225,2,ER,1,100,1.693506
1574944023.546257,245669.000,42243,1,ER,1,100,1.693465
1574944023.616179,245728.000,42261,2,ER,1,100,1.691572
1574944023.686100,245787.000,42261,2,ER,1,100,1.693022
1574944023.747133,245838.500,42279,2,ER,1,100,1.691008
1574944023.808167,245890.000,42279,2,ER,1,100,1.691895
1574944023.872756,245944.500,42297,2,ER,1,100,1.687222
1574944023.937345,245999.000,42297,2,ER,1,100,1.690162
1574944024.007266,246058.000,42315,2,ER,1,100,1.689760
1574944024.077188,246117.000,42315,2,ER,1,100,1.691170
1574944024.143554,246173.000,42333,1,ER,1,100,1.689800
1574944024.213476,246232.000,42350,2,ER,1,100,1.690162
1574944024.283398,246291.000,42350,2,ER,1,100,1.692700
1574944024.345616,246343.500,42369,2,ER,1,100,1.689639
1574944024.407835,246396.000,42369,2,ER,1,100,1.692821
1574944024.471238,246449.500,42387,2,ER,1,100,1.690323
1574944024.534642,246503.000,42387,2,ER,1,100,1.693103
1574944024.603971,246561.500,42403,2,ER,1,100,1.691371
1574944024.673301,246620.000,42403,2,ER,1,100,1.690928
1574944024.738482,246675.000,42421,1,ER,1,100,1.691008
1574944024.807811,246733.500,42439,2,ER,1,100,1.690364
1574944024.877140,246792.000,42439,2,ER,1,100,1.693506
1574944024.942914,246847.500,42457,2,ER,1,100,1.691975
1574944025.008688,246903.000,42457,2,ER,1,100,1.692660
1574944025.076832,246960.500,42475,2,ER,1,100,1.692499
1574944025.144976,247018.000,42475,2,ER,1,100,1.693506
1574944025.212528,247075.000,42493,1,ER,1,100,1.692418
1574944025.280672,247132.500,42511,2,ER,1,100,1.693868
1574944025.348816,247190.000,42511,2,ER,1,100,1.693788
1574944025.418145,247248.500,42529,2,ER,1,100,1.689558
1574944025.487474,247307.000,42529,2,ER,1,100,1.688994
1574944025.552063,247361.500,42547,2,ER,1,100,1.688148
1574944025.616651,247416.000,42547,2,ER,1,100,1.690001
1574944025.680055,247469.500,42563,2,ER,1,100,1.687866
1574944025.743459,247523.000,42563,2,ER,1,100,1.689760
1574944025.810418,247579.500,42581,2,ER,1,100,1.689800
1574944025.877377,247636.000,42581,2,ER,1,100,1.690364
1574944025.943743,247692.000,42599,1,ER,1,100,1.690928
1574944026.013665,247751.000,42617,2,ER,1,100,1.688954
1574944026.083586,247810.000,42617,2,ER,1,100,1.691008
1574944026.150545,247866.500,42635,2,ER,1,100,1.687020
1574944026.217504,247923.000,42635,2,ER,1,100,1.690847
1574944026.280908,247976.500,42653,2,ER,1,100,1.688108
1574944026.344311,248030.000,42653,2,ER,1,100,1.686497
1574944026.408900,248084.500,42672,2,ER,1,100,1.689357
1574944026.473489,248139.000,42672,2,ER,1,100,1.691049
1574944026.538670,248194.000,42690,1,ER,1,100,1.692177
1574944026.603852,248249.000,42707,2,ER,1,100,1.691371
1574944026.669033,248304.000,42707,2,ER,1,100,1.692781
1574944026.735992,248360.500,42725,2,ER,1,100,1.692056
1574944026.802951,248417.000,42725,2,ER,1,100,1.691049
1574944026.872280,248475.500,42743,2,ER,1,100,1.688954
1574944026.941609,248534.000,42743,2,ER,1,100,1.692378
1574944027.006790,248589.000,42759,2,ER,1,100,1.690082
1574944027.071972,248644.000,42759,2,ER,1,100,1.689115
1574944027.134783,248697.000,42777,1,ER,1,100,1.689639
1574944027.201149,248753.000,42795,2,ER,1,100,1.687665
1574944027.267516,248809.000,42795,2,ER,1,100,1.690323
1574944027.334475,248865.500,42814,2,ER,1,100,1.690162
1574944027.401433,248922.000,42814,2,ER,1,100,1.692781
1574944027.470170,248980.000,42832,2,ER,1,100,1.691532
1574944027.538907,249038.000,42832,2,ER,1,100,1.691492
1574944027.608829,249097.000,42850,1,ER,1,100,1.689437
1574944027.672232,249150.500,42868,2,ER,1,100,1.690646
1574944027.735636,249204.000,42868,2,ER,1,100,1.690767
1574944027.800817,249259.000,42885,2,ER,1,100,1.689155
1574944027.865998,249314.000,42885,2,ER,1,100,1.689397
1574944027.932365,249370.000,42903,2,ER,1,100,1.688551
1574944027.998731,249426.000,42903,2,ER,1,100,1.691371
1574944028.067468,249484.000,42921,2,ER,1,100,1.690202
1574944028.136204,249542.000,42921,2,ER,1,100,1.693063
1574944028.203756,249599.000,42937,2,ER,1,100,1.691170
1574944028.271307,249656.000,42937,2,ER,1,100,1.690767
1574944028.332933,249708.000,42956,1,ER,1,100,1.692781
1574944028.396337,249761.500,42974,2,ER,1,100,1.691008
1574944028.459741,249815.000,42974,2,ER,1,100,1.692499
1574944028.525514,249870.500,42992,2,ER,1,100,1.690807
1574944028.591288,249926.000,42992,2,ER,1,100,1.692136
1574944028.660025,249984.000,43010,2,ER,1,100,1.689639
1574944028.728761,250042.000,43010,2,ER,1,100,1.691733
1574944028.798288,250100.667,43031,3,ER,1,100,1.690605
1574944028.867815,250159.333,43031,3,ER,1,100,1.692297
1574944028.937342,250218.000,43031,3,ER,1,100,1.690605
1574944029.008449,250278.000,43051,1,ER,1,100,1.691693
1574944029.072445,250332.000,43069,2,ER,1,100,1.694432
1574944029.136441,250386.000,43069,2,ER,1,100,1.694513
1574944029.205770,250444.500,43087,2,ER,1,100,1.691250
1574944029.275099,250503.000,43087,2,ER,1,100,1.694271
1574944029.339095,250557.000,43106,2,ER,1,100,1.690968
1574944029.403092,250611.000,43106,2,ER,1,100,1.693022
1574944029.469458,250667.000,43124,2,ER,1,100,1.692338
1574944029.535824,250723.000,43124,2,ER,1,100,1.691693
1574944029.598635,250776.000,43142,1,ER,1,100,1.693345
1574944029.662632,250830.000,43159,2,ER,1,100,1.692539
1574944029.726628,250884.000,43159,2,ER,1,100,1.694755
1574944029.795364,250942.000,43177,2,ER,1,100,1.692418
1574944029.864101,251000.000,43177,2,ER,1,100,1.693909
1574944029.932245,251057.500,43195,2,ER,1,100,1.691854
1574944030.000389,251115.000,43195,2,ER,1,100,1.695399
1574944030.068533,251172.500,43211,2,ER,1,100,1.693748
1574944030.136677,251230.000,43211,2,ER,1,100,1.692982
1574944030.200674,251284.000,43229,1,ER,1,100,1.694674
1574944030.264077,251337.500,43248,2,ER,1,100,1.691532
1574944030.327481,251391.000,43248,2,ER,1,100,1.693868
1574944030.394440,251447.500,43266,2,ER,1,100,1.691371
1574944030.461399,251504.000,43266,2,ER,1,100,1.693586
1574944030.528950,251561.000,43284,2,ER,1,100,1.691612
1574944030.596502,251618.000,43284,2,ER,1,100,1.695762
1574944030.665238,251676.000,43302,2,ER,1,100,1.694231
1574944030.733975,251734.000,43302,2,ER,1,100,1.695077
1574944030.795601,251786.000,43320,1,ER,1,100,1.695520
1574944030.858412,251839.000,43337,2,ER,1,100,1.693546
1574944030.921223,251892.000,43337,2,ER,1,100,1.695278
1574944030.988182,251948.500,43355,2,ER,1,100,1.691532
1574944031.055141,252005.000,43355,2,ER,1,100,1.693868
1574944031.122692,252062.000,43373,2,ER,1,100,1.690525
1574944031.190244,252119.000,43373,2,ER,1,100,1.693868
1574944031.259573,252177.500,43389,2,ER,1,100,1.693304
1574944031.328902,252236.000,43389,2,ER,1,100,1.693627
1574944031.392899,252290.000,43408,1,ER,1,100,1.694513
1574944031.456302,252343.500,43426,2,ER,1,100,1.692620
1574944031.519706,252397.000,43426,2,ER,1,100,1.695158
1574944031.586072,252453.000,43444,2,ER,1,100,1.693143
1574944031.652438,252509.000,43444,2,ER,1,100,1.695077
1574944031.719990,252566.000,43462,2,ER,1,100,1.691532
1574944031.787542,252623.000,43462,2,ER,1,100,1.693667
1574944031.856871,252681.500,43480,2,ER,1,100,1.692338
1574944031.926200,252740.000,43480,2,ER,1,100,1.693748
1574944031.991381,252795.000,43498,1,ER,1,100,1.695520
1574944032.054192,252848.000,43515,2,ER,1,100,1.694029
1574944032.117003,252901.000,43515,2,ER,1,100,1.694795
1574944032.182185,252956.000,43533,2,ER,1,100,1.693385
1574944032.247366,253011.000,43533,2,ER,1,100,1.696165
1574944032.315510,253068.500,43552,2,ER,1,100,1.692942
1574944032.383654,253126.000,43552,2,ER,1,100,1.694191
1574944032.450613,253182.500,43568,2,ER,1,100,1.692136
1574944032.517572,253239.000,43568,2,ER,1,100,1.693627
1574944032.589864,253300.000,43586,1,ER,1,100,1.692902
1574944032.658601,253358.000,43604,2,ER,1,100,1.691371
1574944032.727337,253416.000,43604,2,ER,1,100,1.693667
1574944032.799037,253476.500,43622,2,ER,1,100,1.693465
1574944032.870736,253537.000,43622,2,ER,1,100,1.694875
1574944032.940065,253595.500,43640,2,ER,1,100,1.693707
1574944033.009394,253654.000,43640,2,ER,1,100,1.694674
1574944033.080501,253714.000,43658,1,ER,1,100,1.695158
1574944033.149830,253772.500,43675,2,ER,1,100,1.692781
1574944033.219160,253831.000,43675,2,ER,1,100,1.693748
1574944033.287304,253888.500,43691,2,ER,1,100,1.692056
1574944033.355448,253946.000,43691,2,ER,1,100,1.693304
1574944033.426555,254006.000,43710,1,ER,1,100,1.692902
1574944033.490551,254060.000,43728,2,ER,1,100,1.693264
1574944033.554547,254114.000,43728,2,ER,1,100,1.694070
1574944033.619136,254168.500,43746,2,ER,1,100,1.693667
1574944033.683724,254223.000,43746,2,ER,1,100,1.694996
1574944033.750683,254279.500,43764,2,ER,1,100,1.693465
1574944033.817642,254336.000,43764,2,ER,1,100,1.695923
1574944033.885194,254393.000,43782,2,ER,1,100,1.693103
1574944033.952745,254450.000,43782,2,ER,1,100,1.694714
1574944034.023852,254510.000,43800,1,ER,1,100,1.693909
1574944034.089626,254565.500,43817,2,ER,1,100,1.692418
1574944034.155400,254621.000,43817,2,ER,1,100,1.694150
1574944034.224729,254679.500,43835,2,ER,1,100,1.691814
1574944034.294058,254738.000,43835,2,ER,1,100,1.695077
1574944034.356277,254790.500,43854,2,ER,1,100,1.693022
1574944034.418495,254843.000,43854,2,ER,1,100,1.695923
1574944034.483676,254898.000,43870,2,ER,1,100,1.693506
1574944034.548858,254953.000,43870,2,ER,1,100,1.695641
1574944034.616409,255010.000,43888,2,ER,1,100,1.693465
1574944034.683961,255067.000,43888,2,ER,1,100,1.693224
1574944034.751512,255124.000,43906,1,ER,1,100,1.694634
1574944034.818669,255180.667,43927,3,ER,1,100,1.692378
1574944034.885825,255237.333,43927,3,ER,1,100,1.693667
1574944034.952982,255294.000,43927,3,ER,1,100,1.691975
1574944035.016385,255347.500,43947,2,ER,1,100,1.693627
1574944035.079789,255401.000,43947,2,ER,1,100,1.695721
1574944035.145563,255456.500,43965,2,ER,1,100,1.693788
1574944035.211337,255512.000,43965,2,ER,1,100,1.696044
1574944035.280666,255570.500,43981,2,ER,1,100,1.693828
1574944035.349995,255629.000,43981,2,ER,1,100,1.694231
1574944035.417547,255686.000,44000,1,ER,1,100,1.694271
1574944035.485691,255743.500,44018,2,ER,1,100,1.693465
1574944035.553835,255801.000,44018,2,ER,1,100,1.694795
1574944035.617238,255854.500,44036,2,ER,1,100,1.692015
1574944035.680642,255908.000,44036,2,ER,1,100,1.694996
1574944035.745231,255962.500,44054,2,ER,1,100,1.691572
1574944035.809819,256017.000,44054,2,ER,1,100,1.694875
1574944035.878556,256075.000,44072,2,ER,1,100,1.692257
1574944035.947293,256133.000,44072,2,ER,1,100,1.692418
1574944036.014844,256190.000,44090,1,ER,1,100,1.693627
1574944036.084173,256248.500,44107,2,ER,1,100,1.691492
1574944036.153502,256307.000,44107,2,ER,1,100,1.692539
1574944036.215721,256359.500,44125,2,ER,1,100,1.689195
1574944036.277940,256412.000,44125,2,ER,1,100,1.690646
1574944036.342528,256466.500,44144,2,ER,1,100,1.686497
1574944036.407117,256521.000,44144,2,ER,1,100,1.686899
1574944036.474669,256578.000,44160,2,ER,1,100,1.683032
1574944036.542220,256635.000,44160,2,ER,1,100,1.681864
1574944036.613327,256695.000,44178,1,ER,1,100,1.677030
1574944036.681471,256752.500,44196,2,ER,1,100,1.673364
1574944036.749615,256810.000,44196,2,ER,1,100,1.673042
1574944036.818944,256868.500,44214,2,ER,1,100,1.669497
1574944036.888273,256927.000,44214,2,ER,1,100,1.669094
1574944036.956418,256984.500,44232,2,ER,1,100,1.664985
1574944037.024562,257042.000,44232,2,ER,1,100,1.664260
1574944037.095669,257102.000,44250,1,ER,1,100,1.663092
1574944037.164405,257160.000,44267,2,ER,1,100,1.660151
1574944037.233142,257218.000,44267,2,ER,1,100,1.660917
1574944037.301878,257276.000,44285,2,ER,1,100,1.660796
1574944037.370615,257334.000,44285,2,ER,1,100,1.662246
1574944037.435796,257389.000,44302,2,ER,1,100,1.659467
1574944037.500978,257444.000,44302,2,ER,1,100,1.660917
1574944037.563789,257497.000,44320,2,ER,1,100,1.661964
1574944037.626600,257550.000,44320,2,ER,1,100,1.662125
1574944037.694151,257607.000,44338,1,ER,1,100,1.663414
1574944037.761703,257664.000,44356,2,ER,1,100,1.662649
1574944037.829254,257721.000,44356,2,ER,1,100,1.665912
1574944037.897398,257778.500,44374,2,ER,1,100,1.664059
1574944037.965542,257836.000,44374,2,ER,1,100,1.666677
1574944038.032501,257892.500,44392,2,ER,1,100,1.668127
1574944038.099460,257949.000,44392,2,ER,1,100,1.669578
1574944038.161679,258001.500,44410,2,ER,1,100,1.670061
1574944038.223897,258054.000,44410,2,ER,1,100,1.669658
1574944038.289078,258109.000,44428,1,ER,1,100,1.672236
1574944038.356630,258166.000,44446,2,ER,1,100,1.672599
1574944038.424181,258223.000,44446,2,ER,1,100,1.675741
1574944038.492326,258280.500,44464,2,ER,1,100,1.675177
1574944038.560470,258338.000,44464,2,ER,1,100,1.678359
1574944038.626836,258394.000,44480,2,ER,1,100,1.678520
1574944038.693202,258450.000,44480,2,ER,1,100,1.680454
1574944038.756014,258503.000,44498,2,ER,1,100,1.681502
1574944038.818825,258556.000,44498,2,ER,1,100,1.681058
1574944038.886376,258613.000,44516,1,ER,1,100,1.682388
1574944038.952743,258669.000,44534,2,ER,1,100,1.683314
1574944039.019109,258725.000,44534,2,ER,1,100,1.685409
1574944039.087846,258783.000,44552,2,ER,1,100,1.683918
1574944039.156582,258841.000,44552,2,ER,1,100,1.686577
1574944039.225911,258899.500,44570,2,ER,1,100,1.686053
1574944039.295241,258958.000,44570,2,ER,1,100,1.688551
1574944039.356867,259010.000,44589,2,ER,1,100,1.690283
1574944039.418493,259062.000,44589,2,ER,1,100,1.690162
1574944039.484859,259118.000,44607,1,ER,1,100,1.691814
1574944039.551225,259174.000,44624,2,ER,1,100,1.691008
1574944039.617592,259230.000,44624,2,ER,1,100,1.693989
1574944039.686328,259288.000,44642,2,ER,1,100,1.691492
1574944039.755065,259346.000,44642,2,ER,1,100,1.693586
1574944039.824394,259404.500,44658,2,ER,1,100,1.691895
1574944039.893723,259463.000,44658,2,ER,1,100,1.693909
1574944039.954757,259514.500,44676,2,ER,1,100,1.693788
1574944040.015790,259566.000,44676,2,ER,1,100,1.693304
1574944040.079786,259620.000,44694,1,ER,1,100,1.694150
1574944040.147338,259677.000,44712,2,ER,1,100,1.692902
1574944040.214889,259734.000,44712,2,ER,1,100,1.695721
1574944040.281848,259790.500,44730,2,ER,1,100,1.695198
1574944040.348807,259847.000,44730,2,ER,1,100,1.697373
1574944040.419914,259907.000,44749,2,ER,1,100,1.696769
1574944040.491021,259967.000,44749,2,ER,1,100,1.697453
1574944040.556202,260022.000,44767,1,ER,1,100,1.697051
1574944040.627309,260082.000,44784,2,ER,1,100,1.695037
1574944040.698416,260142.000,44784,2,ER,1,100,1.694594
1574944040.766560,260199.500,44802,2,ER,1,100,1.693385
1574944040.834704,260257.000,44802,2,ER,1,100,1.694875
1574944040.904231,260315.667,44821,3,ER,1,100,1.693184
1574944040.973758,260374.333,44821,3,ER,1,100,1.693184
1574944041.043284,260433.000,44821,3,ER,1,100,1.691170
1574944041.113206,260492.000,44841,1,ER,1,100,1.691492
1574944041.179572,260548.000,44858,2,ER,1,100,1.694513
1574944041.245939,260604.000,44858,2,ER,1,100,1.696003
1574944041.314675,260662.000,44876,2,ER,1,100,1.692700
1574944041.383412,260720.000,44876,2,ER,1,100,1.694875
1574944041.446815,260773.500,44893,2,ER,1,100,1.695158
1574944041.510219,260827.000,44893,2,ER,1,100,1.694392
1574944041.575400,260882.000,44911,2,ER,1,100,1.694352
1574944041.640582,260937.000,44911,2,ER,1,100,1.695158
1574944041.709318,260995.000,44929,1,ER,1,100,1.694352
1574944041.776870,261052.000,44947,2,ER,1,100,1.692781
1574944041.844421,261109.000,44947,2,ER,1,100,1.694594
1574944041.913751,261167.500,44965,2,ER,1,100,1.691049
1574944041.983080,261226.000,44965,2,ER,1,100,1.694352
1574944042.045298,261278.500,44983,2,ER,1,100,1.693425
1574944042.107517,261331.000,44983,2,ER,1,100,1.696406
1574944042.171513,261385.000,45001,2,ER,1,100,1.695037
1574944042.235509,261439.000,45001,2,ER,1,100,1.694674
1574944042.300690,261494.000,45019,1,ER,1,100,1.695359
1574944042.368834,261551.500,45037,2,ER,1,100,1.695721
1574944042.436979,261609.000,45037,2,ER,1,100,1.696648
1574944042.505715,261667.000,45055,2,ER,1,100,1.692982
1574944042.574452,261725.000,45055,2,ER,1,100,1.694231
1574944042.639633,261780.000,45071,2,ER,1,100,1.693989
1574944042.704814,261835.000,45071,2,ER,1,100,1.695721
1574944042.767033,261887.500,45089,2,ER,1,100,1.692942
1574944042.829251,261940.000,45089,2,ER,1,100,1.693748
1574944042.897988,261998.000,45107,1,ER,1,100,1.694191
1574944042.965539,262055.000,45125,2,ER,1,100,1.695077
1574944043.033091,262112.000,45125,2,ER,1,100,1.695560
1574944043.101828,262170.000,45143,2,ER,1,100,1.692942
1574944043.170564,262228.000,45143,2,ER,1,100,1.695923
1574944043.236931,262284.000,45161,2,ER,1,100,1.693022
1574944043.303297,262340.000,45161,2,ER,1,100,1.696165
1574944043.364331,262391.500,45180,2,ER,1,100,1.692740
1574944043.425364,262443.000,45180,2,ER,1,100,1.694271
1574944043.492323,262499.500,45198,2,ER,1,100,1.693546
1574944043.559282,262556.000,45198,2,ER,1,100,1.693264
1574944043.626833,262613.000,45216,1,ER,1,100,1.694271
1574944043.695570,262671.000,45233,2,ER,1,100,1.693184
1574944043.764307,262729.000,45233,2,ER,1,100,1.694553
1574944043.831265,262785.500,45251,2,ER,1,100,1.693627
1574944043.898225,262842.000,45251,2,ER,1,100,1.696809
1574944043.959850,262894.000,45267,2,ER,1,100,1.694634
1574944044.021476,262946.000,45267,2,ER,1,100,1.694835
1574944044.088435,263002.500,45285,2,ER,1,100,1.694311
1574944044.155394,263059.000,45285,2,ER,1,100,1.693506
1574944044.224131,263117.000,45303,1,ER,1,100,1.694311
1574944044.289312,263172.000,45322,2,ER,1,100,1.691895
1574944044.354493,263227.000,45322,2,ER,1,100,1.693385
1574944044.422045,263284.000,45340,2,ER,1,100,1.691733
1574944044.489597,263341.000,45340,2,ER,1,100,1.694070
1574944044.557148,263398.000,45358,2,ER,1,100,1.692620
1574944044.624700,263455.000,45358,2,ER,1,100,1.694432
1574944044.691066,263511.000,45376,2,ER,1,100,1.694110
1574944044.757432,263567.000,45376,2,ER,1,100,1.693345
1574944044.828539,263627.000,45394,1,ER,1,100,1.693667
1574944044.895498,263683.500,45411,2,ER,1,100,1.692217
1574944044.962457,263740.000,45411,2,ER,1,100,1.694553
1574944045.034157,263800.500,45427,2,ER,1,100,1.691774
1574944045.105856,263861.000,45427,2,ER,1,100,1.693586
1574944045.171037,263916.000,45445,1,ER,1,100,1.693063
1574944045.241552,263975.500,45463,2,ER,1,100,1.692136
1574944045.312066,264035.000,45463,2,ER,1,100,1.694996
1574944045.374877,264088.000,45482,2,ER,1,100,1.692297
1574944045.437688,264141.000,45482,2,ER,1,100,1.694392
1574944045.501684,264195.000,45500,2,ER,1,100,1.691451
1574944045.565680,264249.000,45500,2,ER,1,100,1.693788
1574944045.635010,264307.500,45518,2,ER,1,100,1.692177
1574944045.704339,264366.000,45518,2,ER,1,100,1.692539
1574944045.773075,264424.000,45536,1,ER,1,100,1.691693
1574944045.842997,264483.000,45553,2,ER,1,100,1.689558
1574944045.912919,264542.000,45553,2,ER,1,100,1.691371
1574944045.981063,264599.500,45571,2,ER,1,100,1.688994
1574944046.049207,264657.000,45571,2,ER,1,100,1.691935
1574944046.117351,264714.500,45587,2,ER,1,100,1.692136
1574944046.185495,264772.000,45587,2,ER,1,100,1.693063
1574944046.247714,264824.500,45605,2,ER,1,100,1.691170
1574944046.309932,264877.000,45605,2,ER,1,100,1.691371
1574944046.375113,264932.000,45624,1,ER,1,100,1.692579
1574944046.441480,264988.000,45642,2,ER,1,100,1.689800
1574944046.507846,265044.000,45642,2,ER,1,100,1.689598
1574944046.575398,265101.000,45660,2,ER,1,100,1.690767
1574944046.642949,265158.000,45660,2,ER,1,100,1.692861
1574944046.711686,265216.000,45678,2,ER,1,100,1.690122
1574944046.780422,265274.000,45678,2,ER,1,100,1.692338
1574944046.843826,265327.500,45696,2,ER,1,100,1.691411
1574944046.907230,265381.000,45696,2,ER,1,100,1.691290
1574944046.971226,265435.000,45717,2,ER,1,100,1.693506
1574944047.035222,265489.000,45717,2,ER,1,100,1.691572
1574944047.103366,265546.500,45737,2,ER,1,100,1.690686
1574944047.171510,265604.000,45737,2,ER,1,100,1.692740
1574944047.240839,265662.500,45755,2,ER,1,100,1.691250
1574944047.310169,265721.000,45755,2,ER,1,100,1.691975
1574944047.374757,265775.500,45774,2,ER,1,100,1.689276
1574944047.439346,265830.000,45774,2,ER,1,100,1.692781
1574944047.502750,265883.500,45792,2,ER,1,100,1.691814
1574944047.566153,265937.000,45792,2,ER,1,100,1.691411
1574944047.632520,265993.000,45810,2,ER,1,100,1.692338
1574944047.698886,266049.000,45810,2,ER,1,100,1.693425
1574944047.765252,266105.000,45828,1,ER,1,100,1.694352
1574944047.834582,266163.500,45845,2,ER,1,100,1.692700
1574944047.903911,266222.000,45845,2,ER,1,100,1.694835
1574944047.969685,266277.500,45863,2,ER,1,100,1.692096
1574944048.035459,266333.000,45863,2,ER,1,100,1.694674
1574944048.098269,266386.000,45879,2,ER,1,100,1.692781
1574944048.161081,266439.000,45879,2,ER,1,100,1.693707
1574944048.225669,266493.500,45897,2,ER,1,100,1.693063
1574944048.290258,266548.000,45897,2,ER,1,100,1.693264
1574944048.354254,266602.000,45916,2,ER,1,100,1.692660
1574944048.418250,266656.000,45916,2,ER,1,100,1.692539
1574944048.485802,266713.000,45934,1,ER,1,100,1.694835
1574944048.553946,266770.500,45952,2,ER,1,100,1.692015
1574944048.622090,266828.000,45952,2,ER,1,100,1.692257
1574944048.690234,266885.500,45970,2,ER,1,100,1.688229
1574944048.758378,266943.000,45970,2,ER,1,100,1.690323
1574944048.827115,267001.000,45988,1,ER,1,100,1.688632
1574944048.894666,267058.000,46006,2,ER,1,100,1.686940
1574944048.962218,267115.000,46006,2,ER,1,100,1.685892
1574944049.031547,267173.500,46023,2,ER,1,100,1.683032
1574944049.100876,267232.000,46023,2,ER,1,100,1.683838
1574944049.169613,267290.000,46041,2,ER,1,100,1.680333
1574944049.238349,267348.000,46041,2,ER,1,100,1.680655
1574944049.301161,267401.000,46057,2,ER,1,100,1.680333
1574944049.363972,267454.000,46057,2,ER,1,100,1.680696
1574944049.435078,267514.000,46076,1,ER,1,100,1.679085
1574944049.497890,267567.000,46094,2,ER,1,100,1.676345
1574944049.560701,267620.000,46094,2,ER,1,100,1.678359
1574944049.625882,267675.000,46112,2,ER,1,100,1.675580
1574944049.691063,267730.000,46112,2,ER,1,100,1.677795
1574944049.758022,267786.500,46130,2,ER,1,100,1.676829
1574944049.824981,267843.000,46130,2,ER,1,100,1.681260
1574944049.893718,267901.000,46148,2,ER,1,100,1.677352
1574944049.962454,267959.000,46148,2,ER,1,100,1.677352
1574944050.030006,268016.000,46166,1,ER,1,100,1.676708
1574944050.095187,268071.000,46183,2,ER,1,100,1.677393
1574944050.160368,268126.000,46183,2,ER,1,100,1.680817
1574944050.224365,268180.000,46201,2,ER,1,100,1.679769
1574944050.288361,268234.000,46201,2,ER,1,100,1.682509
1574944050.355320,268290.500,46220,2,ER,1,100,1.680817
1574944050.422279,268347.000,46220,2,ER,1,100,1.684241
1574944050.491015,268405.000,46237,2,ER,1,100,1.682992
1574944050.559752,268463.000,46237,2,ER,1,100,1.683757
1574944050.628489,268521.000,46254,1,ER,1,100,1.683234
1574944050.694263,268576.500,46272,2,ER,1,100,1.683677
1574944050.760036,268632.000,46272,2,ER,1,100,1.685288
1574944050.823440,268685.500,46290,2,ER,1,100,1.682911
1574944050.886843,268739.000,46290,2,ER,1,100,1.685610
1574944050.953210,268795.000,46308,2,ER,1,100,1.684200
1574944051.019576,268851.000,46308,2,ER,1,100,1.689115
1574944051.088906,268909.500,46326,2,ER,1,100,1.687584
1574944051.158235,268968.000,46326,2,ER,1,100,1.689478
1574944051.225786,269025.000,46344,1,ER,1,100,1.688954
1574944051.293338,269082.000,46362,2,ER,1,100,1.687745
1574944051.360889,269139.000,46362,2,ER,1,100,1.688793
1574944051.423108,269191.500,46380,2,ER,1,100,1.686456
1574944051.485326,269244.000,46380,2,ER,1,100,1.688873
1574944051.551100,269299.500,46398,2,ER,1,100,1.686416
1574944051.616874,269355.000,46398,2,ER,1,100,1.688470
1574944051.685611,269413.000,46415,2,ER,1,100,1.686859
1574944051.754347,269471.000,46415,2,ER,1,100,1.688994
1574944051.821899,269528.000,46432,1,ER,1,100,1.689155
1574944051.890635,269586.000,46450,2,ER,1,100,1.690041
1574944051.959372,269644.000,46450,2,ER,1,100,1.690082
1574944052.022775,269697.500,46468,2,ER,1,100,1.688511
1574944052.086179,269751.000,46468,2,ER,1,100,1.691210
1574944052.151953,269806.500,46486,2,ER,1,100,1.688793
1574944052.217727,269862.000,46486,2,ER,1,100,1.690202
1574944052.281131,269915.500,46504,2,ER,1,100,1.686497
1574944052.344534,269969.000,46504,2,ER,1,100,1.688672
1574944052.410900,270025.000,46523,2,ER,1,100,1.686456
1574944052.477267,270081.000,46523,2,ER,1,100,1.686295
1574944052.540078,270134.000,46541,1,ER,1,100,1.685812
1574944052.606444,270190.000,46559,2,ER,1,100,1.687141
1574944052.672811,270246.000,46559,2,ER,1,100,1.688511
1574944052.737992,270301.000,46576,2,ER,1,100,1.686698
1574944052.803173,270356.000,46576,2,ER,1,100,1.688914
1574944052.870132,270412.500,46594,2,ER,1,100,1.686577
1574944052.937091,270469.000,46594,2,ER,1,100,1.688954
1574944053.005433,270526.667,46613,3,ER,1,100,1.687665
1574944053.073774,270584.333,46613,3,ER,1,100,1.690605
1574944053.142116,270642.000,46613,3,ER,1,100,1.686013
1574944053.213223,270702.000,46631,1,ER,1,100,1.686094
1574944053.281960,270760.000,46651,2,ER,1,100,1.688229
1574944053.350696,270818.000,46651,2,ER,1,100,1.689276
1574944053.415285,270872.500,46669,2,ER,1,100,1.688188
1574944053.479874,270927.000,46669,2,ER,1,100,1.691733
1574944053.543870,270981.000,46687,2,ER,1,100,1.689155
1574944053.607866,271035.000,46687,2,ER,1,100,1.689397
1574944053.676010,271092.500,46703,2,ER,1,100,1.689075
1574944053.744154,271150.000,46703,2,ER,1,100,1.693063
1574944053.810520,271206.000,46721,1,ER,1,100,1.693465
1574944053.879850,271264.500,46739,2,ER,1,100,1.687866
1574944053.949179,271323.000,46739,2,ER,1,100,1.690082
1574944054.013767,271377.500,46757,2,ER,1,100,1.693304
1574944054.078356,271432.000,46757,2,ER,1,100,1.693022
1574944054.141167,271485.000,46775,2,ER,1,100,1.685449
1574944054.203978,271538.000,46775,2,ER,1,100,1.693143
1574944054.270345,271594.000,46793,2,ER,1,100,1.693667
1574944054.336711,271650.000,46793,2,ER,1,100,1.687383
1574944054.404263,271707.000,46812,1,ER,1,100,1.690726
1574944054.472999,271765.000,46829,2,ER,1,100,1.693546
1574944054.541736,271823.000,46829,2,ER,1,100,1.688068
1574944054.609288,271880.000,46847,2,ER,1,100,1.686013
1574944054.676839,271937.000,46847,2,ER,1,100,1.690928
1574944054.738465,271989.000,46865,2,ER,1,100,1.686778
1574944054.800091,272041.000,46865,2,ER,1,100,1.689034
1574944054.867642,272098.000,46883,2,ER,1,100,1.688027
1574944054.935194,272155.000,46883,2,ER,1,100,1.691129
1574944055.002745,272212.000,46899,1,ER,1,100,1.689397
1574944055.071482,272270.000,46917,2,ER,1,100,1.690202
1574944055.140219,272328.000,46917,2,ER,1,100,1.689961
1574944055.207770,272385.000,46935,2,ER,1,100,1.688390
1574944055.275322,272442.000,46935,2,ER,1,100,1.690283
1574944055.336948,272494.000,46954,2,ER,1,100,1.686174
1574944055.398574,272546.000,46954,2,ER,1,100,1.687383
1574944055.463162,272600.500,46972,2,ER,1,100,1.683596
1574944055.527751,272655.000,46972,2,ER,1,100,1.684321
1574944055.597673,272714.000,46990,2,ER,1,100,1.681300
1574944055.667594,272773.000,46990,2,ER,1,100,1.680897
1574944055.732776,272828.000,47008,1,ER,1,100,1.680011
1574944055.800920,272885.500,47025,2,ER,1,100,1.677191
1574944055.869064,272943.000,47025,2,ER,1,100,1.678037
1574944055.933060,272997.000,47043,2,ER,1,100,1.674371
1574944055.997056,273051.000,47043,2,ER,1,100,1.674049
1574944056.062238,273106.000,47059,2,ER,1,100,1.669819
1574944056.127419,273161.000,47059,2,ER,1,100,1.669819
1574944056.196156,273219.000,47077,1,ER,1,100,1.667040
1574944056.261337,273274.000,47096,2,ER,1,100,1.665187
1574944056.326518,273329.000,47096,2,ER,1,100,1.665992
1574944056.395255,273387.000,47114,2,ER,1,100,1.665992
1574944056.463991,273445.000,47114,2,ER,1,100,1.667523
1574944056.525617,273497.000,47132,2,ER,1,100,1.662770
1574944056.587243,273549.000,47132,2,ER,1,100,1.665308
1574944056.651832,273603.500,47150,2,ER,1,100,1.663696
1574944056.716421,273658.000,47150,2,ER,1,100,1.664542
1574944056.783972,273715.000,47168,2,ER,1,100,1.662447
1574944056.851524,273772.000,47168,2,ER,1,100,1.662206
1574944056.917890,273828.000,47186,2,ER,1,100,1.662246
1574944056.984257,273884.000,47186,2,ER,1,100,1.663092
1574944057.054178,273943.000,47204,1,ER,1,100,1.664744
1574944057.122322,274000.500,47221,2,ER,1,100,1.665549
1574944057.190466,274058.000,47221,2,ER,1,100,1.669578
1574944057.258018,274115.000,47239,2,ER,1,100,1.668007
1574944057.325569,274172.000,47239,2,ER,1,100,1.671471
1574944057.388973,274225.500,47256,2,ER,1,100,1.671995
1574944057.452377,274279.000,47256,2,ER,1,100,1.674492
1574944057.518743,274335.000,47274,1,ER,1,100,1.676103
1574944057.585109,274391.000,47292,2,ER,1,100,1.676829
1574944057.651476,274447.000,47292,2,ER,1,100,1.679044
1574944057.719027,274504.000,47310,2,ER,1,100,1.676949
1574944057.786579,274561.000,47310,2,ER,1,100,1.680857
1574944057.855908,274619.500,47328,2,ER,1,100,1.680293
1574944057.925237,274678.000,47328,2,ER,1,100,1.684845
1574944057.987456,274730.500,47346,2,ER,1,100,1.684402
1574944058.049674,274783.000,47346,2,ER,1,100,1.686738
1574944058.114263,274837.500,47364,2,ER,1,100,1.687463
1574944058.178852,274892.000,47364,2,ER,1,100,1.687947
1574944058.248774,274951.000,47382,1,ER,1,100,1.689518
1574944058.316325,275008.000,47400,2,ER,1,100,1.687504
1574944058.383877,275065.000,47400,2,ER,1,100,1.690082
1574944058.453206,275123.500,47418,2,ER,1,100,1.688350
1574944058.522535,275182.000,47418,2,ER,1,100,1.690887
1574944058.586531,275236.000,47434,2,ER,1,100,1.690404
1574944058.650527,275290.000,47434,2,ER,1,100,1.689155
1574944058.713338,275343.000,47452,2,ER,1,100,1.690525
1574944058.776149,275396.000,47452,2,ER,1,100,1.692378
1574944058.844886,275454.000,47470,1,ER,1,100,1.693465
1574944058.912437,275511.000,47488,2,ER,1,100,1.692821
