EpochTimestamp,EmotiBitTimestamp,PacketNumber,DataLength,TypeTag,ProtocolVersion,DataReliability,T0
1574944569.029436,25034.000,3866,2,T0,1,100,32.736
1574944569.029436,25034.000,3866,2,T0,1,100,32.698
1574944569.157854,25142.000,3884,1,T0,1,100,32.746
1574944569.291028,25254.000,3918,1,T0,1,100,32.736
1574944569.426581,25368.000,3936,1,T0,1,100,32.762
1574944569.568079,25487.000,3954,1,T0,1,100,32.736
1574944569.692930,25592.000,3972,1,T0,1,100,32.709
1574944569.821348,25700.000,3991,1,T0,1,100,32.768
1574944569.960468,25817.000,4009,1,T0,1,100,32.752
1574944570.097209,25932.000,4027,1,T0,1,100,32.757
1574944570.231573,26045.000,4044,1,T0,1,100,32.762
1574944570.357613,26151.000,4062,1,T0,1,100,32.746
1574944570.487220,26260.000,4080,1,T0,1,100,32.730
1574944570.626340,26377.000,4114,1,T0,1,100,32.746
1574944570.763082,26492.000,4133,1,T0,1,100,32.752
1574944570.892689,26601.000,4151,1,T0,1,100,32.741
1574944571.019918,26708.000,4169,1,T0,1,100,32.725
1574944571.157849,26824.000,4187,1,T0,1,100,32.762
1574944571.291023,26936.000,4205,1,T0,1,100,32.778
1574944571.431332,27054.000,4223,1,T0,1,100,32.752
1574944571.560939,27163.000,4240,1,T0,1,100,32.725
1574944571.688169,27270.000,4276,1,T0,1,100,32.714
1574944571.826099,27386.000,4293,1,T0,1,100,32.730
1574944571.964030,27502.000,4311,1,T0,1,100,32.741
1574944572.094826,27612.000,4329,1,T0,1,100,32.746
1574944572.220866,27718.000,4347,1,T0,1,100,32.773
1574944572.352852,27829.000,4365,1,T0,1,100,32.730
1574944572.489593,27944.000,4383,1,T0,1,100,32.741
1574944572.623957,28057.000,4401,1,T0,1,100,32.752
1574944572.755942,28168.000,4418,1,T0,1,100,32.741
1574944572.880793,28273.000,4437,1,T0,1,100,32.725
1574944573.016346,28387.000,4471,1,T0,1,100,32.725
1574944573.155465,28504.000,4489,1,T0,1,100,32.746
1574944573.294585,28621.000,4507,1,T0,1,100,32.709
1574944573.418247,28725.000,4525,1,T0,1,100,32.741
1574944573.546665,28833.000,4543,1,T0,1,100,32.773
1574944573.681029,28946.000,4561,1,T0,1,100,32.720
1574944573.817770,29061.000,4580,1,T0,1,100,32.736
1574944573.953323,29175.000,4597,1,T0,1,100,32.752
1574944574.078174,29280.000,4615,1,T0,1,100,32.757
1574944574.210160,29391.000,4633,1,T0,1,100,32.736
1574944574.349279,29508.000,4667,1,T0,1,100,32.762
1574944574.482454,29620.000,4685,1,T0,1,100,32.730
1574944574.615628,29732.000,4703,1,T0,1,100,32.757
1574944574.745235,29841.000,4722,1,T0,1,100,32.752
1574944574.874843,29950.000,4740,1,T0,1,100,32.752
1574944575.012774,30066.000,4761,1,T0,1,100,32.720
1574944575.153082,30184.000,4781,1,T0,1,100,32.762
1574944575.279122,30290.000,4799,1,T0,1,100,32.714
1574944575.407541,30398.000,4817,1,T0,1,100,32.730
1574944575.544282,30513.000,4835,1,T0,1,100,32.730
1574944575.677457,30625.000,4853,1,T0,1,100,32.746
1574944575.815387,30741.000,4872,1,T0,1,100,32.714
1574944575.943805,30849.000,4889,1,T0,1,100,32.714
1574944576.076980,30961.000,4907,1,T0,1,100,32.714
1574944576.211344,31074.000,4941,1,T0,1,100,32.703
1574944576.351652,31192.000,4959,1,T0,1,100,32.725
1574944576.483638,31303.000,4977,1,T0,1,100,32.741
1574944576.609678,31409.000,4995,1,T0,1,100,32.730
1574944576.746419,31524.000,5014,1,T0,1,100,32.730
1574944576.884350,31640.000,5032,1,T0,1,100,32.698
1574944577.022281,31756.000,5050,1,T0,1,100,32.725
1574944577.147132,31861.000,5067,1,T0,1,100,32.725
1574944577.273172,31967.000,5085,1,T0,1,100,32.709
1574944577.413481,32085.000,5119,1,T0,1,100,32.714
1574944577.551411,32201.000,5137,1,T0,1,100,32.730
1574944577.689342,32317.000,5156,1,T0,1,100,32.714
1574944577.816571,32424.000,5174,1,T0,1,100,32.714
1574944577.947367,32534.000,5192,1,T0,1,100,32.698
1574944578.080542,32646.000,5210,1,T0,1,100,32.682
1574944578.220851,32764.000,5228,1,T0,1,100,32.720
1574944578.356403,32878.000,5245,1,T0,1,100,32.714
1574944578.480065,32982.000,5263,1,T0,1,100,32.736
1574944578.613240,33094.000,5297,1,T0,1,100,32.698
1574944578.747603,33207.000,5316,1,T0,1,100,32.698
1574944578.881967,33320.000,5334,1,T0,1,100,32.709
1574944579.013952,33431.000,5352,1,T0,1,100,32.698
1574944579.139992,33537.000,5370,1,T0,1,100,32.730
1574944579.275545,33651.000,5388,1,T0,1,100,32.687
1574944579.411097,33765.000,5406,1,T0,1,100,32.682
1574944579.551406,33883.000,5423,1,T0,1,100,32.720
1574944579.677446,33989.000,5441,1,T0,1,100,32.709
1574944579.805865,34097.000,5460,1,T0,1,100,32.725
1574944579.942606,34212.000,5494,1,T0,1,100,32.757
1574944580.080537,34328.000,5512,1,T0,1,100,32.687
1574944580.213711,34440.000,5530,1,T0,1,100,32.671
1574944580.338562,34545.000,5548,1,T0,1,100,32.714
1574944580.471737,34657.000,5566,1,T0,1,100,32.720
1574944580.610857,34774.000,5584,1,T0,1,100,32.709
1574944580.745220,34887.000,5603,1,T0,1,100,32.725
1574944580.873638,34995.000,5620,1,T0,1,100,32.698
1574944581.002056,35103.000,5638,1,T0,1,100,32.698
1574944581.136420,35216.000,5659,1,T0,1,100,32.709
1574944581.269594,35328.000,5678,1,T0,1,100,32.725
1574944581.411092,35447.000,5697,1,T0,1,100,32.698
1574944581.539510,35555.000,5714,1,T0,1,100,32.730
1574944581.666740,35662.000,5732,1,T0,1,100,32.709
1574944581.805859,35779.000,5767,1,T0,1,100,32.741
1574944581.937845,35890.000,5785,1,T0,1,100,32.730
1574944582.072208,36003.000,5803,1,T0,1,100,32.682
1574944582.212517,36121.000,5821,1,T0,1,100,32.693
1574944582.342124,36230.000,5839,1,T0,1,100,32.661
1574944582.466975,36335.000,5857,1,T0,1,100,32.693
1574944582.603717,36450.000,5875,1,T0,1,100,32.644
1574944582.740459,36565.000,5893,1,T0,1,100,32.725
1574944582.879578,36682.000,5927,1,T0,1,100,32.682
1574944583.004429,36787.000,5945,1,T0,1,100,32.698
1574944583.134037,36896.000,5963,1,T0,1,100,32.671
1574944583.271967,37012.000,5981,1,T0,1,100,32.720
1574944583.407520,37126.000,5999,1,T0,1,100,32.709
1574944583.544261,37241.000,6017,1,T0,1,100,32.677
1574944583.669113,37346.000,6035,1,T0,1,100,32.725
1574944583.805854,37461.000,6054,1,T0,1,100,32.682
1574944583.940218,37574.000,6071,1,T0,1,100,32.703
1574944584.078148,37690.000,6089,1,T0,1,100,32.720
1574944584.205378,37797.000,6123,1,T0,1,100,32.730
1574944584.331418,37903.000,6141,1,T0,1,100,32.682
1574944584.466970,38017.000,6159,1,T0,1,100,32.687
1574944584.609657,38137.000,6177,1,T0,1,100,32.720
1574944584.744021,38250.000,6196,1,T0,1,100,32.698
1574944584.881951,38366.000,6214,1,T0,1,100,32.709
1574944585.017504,38480.000,6232,1,T0,1,100,32.720
1574944585.145922,38588.000,6249,1,T0,1,100,32.693
1574944585.276718,38698.000,6267,1,T0,1,100,32.671
1574944585.417027,38816.000,6301,1,T0,1,100,32.655
1574944585.552580,38930.000,6319,1,T0,1,100,32.709
1574944585.685754,39042.000,6337,1,T0,1,100,32.703
1574944585.823685,39158.000,6356,1,T0,1,100,32.687
1574944585.950914,39265.000,6374,1,T0,1,100,32.698
1574944586.078143,39372.000,6392,1,T0,1,100,32.714
1574944586.214885,39487.000,6410,1,T0,1,100,32.655
1574944586.352816,39603.000,6427,1,T0,1,100,32.693
1574944586.483612,39713.000,6461,1,T0,1,100,32.687
1574944586.613219,39822.000,6479,1,T0,1,100,32.703
1574944586.746394,39934.000,6498,1,T0,1,100,32.682
1574944586.885513,40051.000,6516,1,T0,1,100,32.671
1574944587.023444,40167.000,6534,1,T0,1,100,32.682
1574944587.153051,40276.000,6555,1,T0,1,100,32.693
1574944587.280281,40383.000,6573,1,T0,1,100,32.671
1574944587.415833,40497.000,6593,1,T0,1,100,32.703
1574944587.556142,40615.000,6611,1,T0,1,100,32.682
1574944587.692883,40730.000,6629,1,T0,1,100,32.714
1574944587.816545,40834.000,6648,1,T0,1,100,32.677
1574944587.947342,40944.000,6666,1,T0,1,100,32.655
1574944588.084083,41059.000,6684,1,T0,1,100,32.661
1574944588.222014,41175.000,6701,1,T0,1,100,32.639
1574944588.351621,41284.000,6735,1,T0,1,100,32.682
1574944588.475283,41388.000,6753,1,T0,1,100,32.671
1574944588.609647,41501.000,6771,1,T0,1,100,32.677
1574944588.741632,41612.000,6790,1,T0,1,100,32.720
1574944588.874807,41724.000,6808,1,T0,1,100,32.682
1574944589.016304,41843.000,6826,1,T0,1,100,32.693
1574944589.151857,41957.000,6844,1,T0,1,100,32.644
1574944589.287410,42071.000,6862,1,T0,1,100,32.644
1574944589.419395,42182.000,6879,1,T0,1,100,32.687
1574944589.547813,42290.000,6897,1,T0,1,100,32.666
1574944589.678610,42400.000,6932,1,T0,1,100,32.666
1574944589.817729,42517.000,6950,1,T0,1,100,32.709
1574944589.956849,42634.000,6968,1,T0,1,100,32.687
1574944590.080511,42738.000,6986,1,T0,1,100,32.682
1574944590.212497,42849.000,7004,1,T0,1,100,32.682
1574944590.346860,42962.000,7022,1,T0,1,100,32.687
1574944590.481224,43075.000,7040,1,T0,1,100,32.655
1574944590.619154,43191.000,7057,1,T0,1,100,32.677
1574944590.746383,43298.000,7075,1,T0,1,100,32.693
1574944590.875991,43407.000,7110,1,T0,1,100,32.677
1574944591.011543,43521.000,7128,1,T0,1,100,32.661
1574944591.153041,43640.000,7146,1,T0,1,100,32.666
1574944591.282648,43749.000,7164,1,T0,1,100,32.661
1574944591.407499,43854.000,7182,1,T0,1,100,32.644
1574944591.543052,43968.000,7200,1,T0,1,100,32.655
1574944591.679794,44083.000,7218,1,T0,1,100,32.703
1574944591.817724,44199.000,7236,1,T0,1,100,32.682
1574944591.942575,44304.000,7254,1,T0,1,100,32.671
1574944592.067426,44409.000,7272,1,T0,1,100,32.677
1574944592.206546,44526.000,7306,1,T0,1,100,32.687
1574944592.342099,44640.000,7324,1,T0,1,100,32.666
1574944592.475273,44752.000,7342,1,T0,1,100,32.661
1574944592.610826,44866.000,7360,1,T0,1,100,32.671
1574944592.740433,44975.000,7379,1,T0,1,100,32.687
1574944592.874796,45088.000,7397,1,T0,1,100,32.687
1574944593.002026,45195.000,7415,1,T0,1,100,32.677
1574944593.134011,45306.000,7432,1,T0,1,100,32.644
1574944593.267185,45418.000,7453,1,T0,1,100,32.650
1574944593.407494,45536.000,7473,1,T0,1,100,32.682
1574944593.541858,45649.000,7491,1,T0,1,100,32.677
1574944593.666709,45754.000,7509,1,T0,1,100,32.644
1574944593.802261,45868.000,7528,1,T0,1,100,32.661
1574944593.937814,45982.000,7545,1,T0,1,100,32.703
1574944594.073366,46096.000,7579,1,T0,1,100,32.698
1574944594.202974,46205.000,7597,1,T0,1,100,32.666
1574944594.332581,46314.000,7615,1,T0,1,100,32.682
1574944594.460999,46422.000,7633,1,T0,1,100,32.720
1574944594.598930,46538.000,7651,1,T0,1,100,32.671
1574944594.739239,46656.000,7670,1,T0,1,100,32.677
1574944594.864090,46761.000,7688,1,T0,1,100,32.682
1574944594.993697,46870.000,7706,1,T0,1,100,32.677
1574944595.132817,46987.000,7723,1,T0,1,100,32.666
1574944595.269558,47102.000,7757,1,T0,1,100,32.682
1574944595.402733,47214.000,7775,1,T0,1,100,32.671
1574944595.529962,47321.000,7793,1,T0,1,100,32.687
1574944595.658380,47429.000,7812,1,T0,1,100,32.661
1574944595.797500,47546.000,7830,1,T0,1,100,32.698
1574944595.935431,47662.000,7848,1,T0,1,100,32.677
1574944596.062660,47769.000,7866,1,T0,1,100,32.655
1574944596.192267,47878.000,7884,1,T0,1,100,32.677
1574944596.329009,47993.000,7902,1,T0,1,100,32.666
1574944596.458616,48102.000,7919,1,T0,1,100,32.682
1574944596.597736,48219.000,7953,1,T0,1,100,32.661
1574944596.736856,48336.000,7972,1,T0,1,100,32.639
1574944596.872408,48450.000,7990,1,T0,1,100,32.666
1574944597.013906,48569.000,8008,1,T0,1,100,32.666
1574944597.141135,48676.000,8026,1,T0,1,100,32.687
1574944597.267175,48782.000,8044,1,T0,1,100,32.655
1574944597.405106,48898.000,8062,1,T0,1,100,32.655
1574944597.544225,49015.000,8079,1,T0,1,100,32.693
1574944597.680967,49130.000,8114,1,T0,1,100,32.709
1574944597.822465,49249.000,8132,1,T0,1,100,32.682
1574944597.952072,49358.000,8150,1,T0,1,100,32.650
1574944598.076923,49463.000,8168,1,T0,1,100,32.671
1574944598.213665,49578.000,8186,1,T0,1,100,32.671
1574944598.350407,49693.000,8204,1,T0,1,100,32.655
1574944598.485959,49807.000,8222,1,T0,1,100,32.666
1574944598.613188,49914.000,8239,1,T0,1,100,32.671
1574944598.742795,50023.000,8257,1,T0,1,100,32.682
1574944598.879537,50138.000,8292,1,T0,1,100,32.666
1574944599.013901,50251.000,8310,1,T0,1,100,32.687
1574944599.148264,50364.000,8328,1,T0,1,100,32.682
1574944599.277871,50473.000,8347,2,T0,1,100,32.682
1574944599.407479,50582.000,8347,2,T0,1,100,32.693
1574944599.546598,50699.000,8385,1,T0,1,100,32.677
1574944599.683340,50814.000,8404,1,T0,1,100,32.693
1574944599.810569,50921.000,8422,1,T0,1,100,32.634
1574944599.936609,51027.000,8440,1,T0,1,100,32.655
1574944600.072162,51141.000,8458,1,T0,1,100,32.687
1574944600.211282,51258.000,8476,1,T0,1,100,32.650
1574944600.345645,51371.000,8494,1,T0,1,100,32.677
1574944600.470496,51476.000,8511,1,T0,1,100,32.698
1574944600.600103,51585.000,8529,1,T0,1,100,32.644
1574944600.728522,51693.000,8547,1,T0,1,100,32.677
1574944600.856940,51801.000,8566,1,T0,1,100,32.703
1574944600.996060,51918.000,8600,1,T0,1,100,32.698
1574944601.136369,52036.000,8618,1,T0,1,100,32.693
1574944601.273110,52151.000,8636,1,T0,1,100,32.655
1574944601.411041,52267.000,8654,1,T0,1,100,32.698
1574944601.538270,52374.000,8672,1,T0,1,100,32.666
1574944601.666688,52482.000,8690,1,T0,1,100,32.687
1574944601.804619,52598.000,8708,1,T0,1,100,32.687
1574944601.942549,52714.000,8742,1,T0,1,100,32.703
1574944602.072157,52823.000,8760,1,T0,1,100,32.703
1574944602.201764,52932.000,8778,1,T0,1,100,32.677
1574944602.334939,53044.000,8796,1,T0,1,100,32.693
1574944602.469302,53157.000,8814,1,T0,1,100,32.698
1574944602.608422,53274.000,8832,1,T0,1,100,32.671
1574944602.738029,53383.000,8851,1,T0,1,100,32.682
1574944602.865258,53490.000,8869,1,T0,1,100,32.698
1574944603.000811,53604.000,8887,1,T0,1,100,32.682
1574944603.141119,53722.000,8920,1,T0,1,100,32.655
1574944603.276672,53836.000,8938,1,T0,1,100,32.703
1574944603.401523,53941.000,8956,1,T0,1,100,32.677
1574944603.534698,54053.000,8974,1,T0,1,100,32.687
1574944603.672628,54169.000,8992,1,T0,1,100,32.682
1574944603.810559,54285.000,9011,1,T0,1,100,32.687
1574944603.938977,54393.000,9029,1,T0,1,100,32.682
1574944604.063828,54498.000,9047,1,T0,1,100,32.666
1574944604.199381,54612.000,9065,1,T0,1,100,32.666
1574944604.333744,54725.000,9082,1,T0,1,100,32.687
1574944604.470486,54840.000,9116,1,T0,1,100,32.693
1574944604.607228,54955.000,9134,1,T0,1,100,32.682
1574944604.742780,55069.000,9153,1,T0,1,100,32.703
1574944604.880711,55185.000,9171,1,T0,1,100,32.671
1574944605.010318,55294.000,9189,1,T0,1,100,32.687
1574944605.138736,55402.000,9207,1,T0,1,100,32.687
1574944605.269533,55512.000,9225,1,T0,1,100,32.698
1574944605.408652,55629.000,9245,1,T0,1,100,32.709
1574944605.547772,55746.000,9265,1,T0,1,100,32.666
1574944605.672623,55851.000,9283,1,T0,1,100,32.682
1574944605.804609,55962.000,9302,1,T0,1,100,32.709
1574944605.938972,56075.000,9320,1,T0,1,100,32.687
1574944606.073336,56188.000,9337,1,T0,1,100,32.714
1574944606.210077,56303.000,9355,1,T0,1,100,32.677
1574944606.337306,56410.000,9389,1,T0,1,100,32.682
1574944606.462157,56515.000,9407,1,T0,1,100,32.677
1574944606.600088,56631.000,9425,1,T0,1,100,32.671
1574944606.741586,56750.000,9444,1,T0,1,100,32.682
1574944606.871193,56859.000,9462,1,T0,1,100,32.671
1574944606.997233,56965.000,9480,1,T0,1,100,32.677
1574944607.133975,57080.000,9498,1,T0,1,100,32.693
1574944607.270716,57195.000,9516,1,T0,1,100,32.682
1574944607.408647,57311.000,9533,1,T0,1,100,32.709
1574944607.534687,57417.000,9567,1,T0,1,100,32.730
1574944607.661916,57524.000,9586,1,T0,1,100,32.677
1574944607.801036,57641.000,9604,1,T0,1,100,32.693
1574944607.936589,57755.000,9622,1,T0,1,100,32.666
1574944608.070952,57868.000,9640,1,T0,1,100,32.698
1574944608.195803,57973.000,9658,1,T0,1,100,32.693
1574944608.330167,58086.000,9676,1,T0,1,100,32.703
1574944608.456207,58192.000,9694,1,T0,1,100,32.703
1574944608.596516,58310.000,9712,1,T0,1,100,32.661
1574944608.735636,58427.000,9746,1,T0,1,100,32.682
1574944608.871188,58541.000,9764,1,T0,1,100,32.703
1574944609.010308,58658.000,9782,1,T0,1,100,32.703
1574944609.143482,58770.000,9800,1,T0,1,100,32.698
1574944609.268333,58875.000,9818,1,T0,1,100,32.677
1574944609.403886,58989.000,9836,1,T0,1,100,32.661
1574944609.540627,59104.000,9854,1,T0,1,100,32.666
1574944609.678558,59220.000,9871,1,T0,1,100,32.677
1574944609.808165,59329.000,9890,1,T0,1,100,32.687
1574944609.937773,59438.000,9924,1,T0,1,100,32.730
1574944610.067380,59547.000,9942,1,T0,1,100,32.644
1574944610.205311,59663.000,9960,1,T0,1,100,32.693
1574944610.343241,59779.000,9978,1,T0,1,100,32.644
1574944610.465714,59882.000,9996,1,T0,1,100,32.677
1574944610.596511,59992.000,10014,1,T0,1,100,32.725
1574944610.735630,60109.000,10033,1,T0,1,100,32.720
1574944610.872372,60224.000,10051,1,T0,1,100,32.698
1574944611.005546,60336.000,10068,1,T0,1,100,32.687
1574944611.133965,60444.000,10103,1,T0,1,100,32.682
1574944611.264761,60554.000,10120,1,T0,1,100,32.698
1574944611.403286,60670.500,10141,2,T0,1,100,32.677
1574944611.541811,60787.000,10141,2,T0,1,100,32.650
1574944611.667851,60893.000,10161,1,T0,1,100,32.677
1574944611.797459,61002.000,10180,1,T0,1,100,32.714
1574944611.930633,61114.000,10214,1,T0,1,100,32.677
1574944612.067375,61229.000,10232,1,T0,1,100,32.677
1574944612.205306,61345.000,10250,1,T0,1,100,32.666
1574944612.332535,61452.000,10268,1,T0,1,100,32.666
1574944612.462142,61561.000,10286,1,T0,1,100,32.687
1574944612.598884,61676.000,10304,1,T0,1,100,32.703
1574944612.722546,61780.000,10323,1,T0,1,100,32.682
1574944612.852153,61889.000,10341,1,T0,1,100,32.650
1574944612.991272,62006.000,10358,1,T0,1,100,32.655
1574944613.129203,62122.000,10392,1,T0,1,100,32.687
1574944613.263567,62235.000,10410,1,T0,1,100,32.687
1574944613.390796,62342.000,10428,1,T0,1,100,32.703
1574944613.527538,62457.000,10446,1,T0,1,100,32.677
1574944613.654767,62564.000,10464,1,T0,1,100,32.655
1574944613.792697,62680.000,10483,1,T0,1,100,32.666
1574944613.929439,62795.000,10501,1,T0,1,100,32.650
1574944614.066181,62910.000,10519,1,T0,1,100,32.666
1574944614.193410,63017.000,10536,1,T0,1,100,32.666
1574944614.323017,63126.000,10554,1,T0,1,100,32.677
1574944614.456192,63238.000,10588,1,T0,1,100,32.698
1574944614.594122,63354.000,10606,1,T0,1,100,32.687
1574944614.728486,63467.000,10625,1,T0,1,100,32.687
1574944614.854526,63573.000,10643,1,T0,1,100,32.639
1574944614.987700,63685.000,10661,1,T0,1,100,32.703
1574944615.126820,63802.000,10679,1,T0,1,100,32.677
1574944615.263561,63917.000,10697,1,T0,1,100,32.682
1574944615.391980,64025.000,10714,1,T0,1,100,32.703
1574944615.521587,64134.000,10732,1,T0,1,100,32.687
1574944615.655951,64247.000,10767,1,T0,1,100,32.671
1574944615.795070,64364.000,10785,1,T0,1,100,32.693
1574944615.929434,64477.000,10803,1,T0,1,100,32.693
1574944616.054285,64582.000,10821,1,T0,1,100,32.655
1574944616.187459,64694.000,10839,1,T0,1,100,32.709
1574944616.321823,64807.000,10857,1,T0,1,100,32.698
1574944616.459754,64923.000,10875,1,T0,1,100,32.661
1574944616.602440,65043.000,10892,1,T0,1,100,32.693
1574944616.741560,65160.000,10927,1,T0,1,100,32.644
1574944616.868789,65267.000,10945,1,T0,1,100,32.661
1574944617.003153,65380.000,10963,1,T0,1,100,32.677
1574944617.130382,65487.000,10981,1,T0,1,100,32.693
1574944617.258800,65595.000,10999,1,T0,1,100,32.655
1574944617.396731,65711.000,11017,1,T0,1,100,32.671
1574944617.534662,65827.000,11038,1,T0,1,100,32.709
1574944617.665458,65937.000,11059,1,T0,1,100,32.655
1574944617.793876,66045.000,11077,1,T0,1,100,32.698
1574944617.927051,66157.000,11095,1,T0,1,100,32.671
1574944618.061414,66270.000,11113,1,T0,1,100,32.644
1574944618.202912,66389.000,11131,1,T0,1,100,32.720
1574944618.328952,66495.000,11149,1,T0,1,100,32.687
1574944618.453803,66600.000,11167,1,T0,1,100,32.677
1574944618.591734,66716.000,11184,1,T0,1,100,32.687
1574944618.730854,66833.000,11219,1,T0,1,100,32.687
1574944618.866406,66947.000,11237,1,T0,1,100,32.677
1574944618.991257,67052.000,11255,1,T0,1,100,32.720
1574944619.124432,67164.000,11273,1,T0,1,100,32.687
1574944619.261173,67279.000,11291,1,T0,1,100,32.671
1574944619.397915,67394.000,11309,1,T0,1,100,32.687
1574944619.529900,67505.000,11327,1,T0,1,100,32.671
1574944619.654751,67610.000,11344,1,T0,1,100,32.677
1574944619.793871,67727.000,11363,1,T0,1,100,32.698
1574944619.928235,67840.000,11397,1,T0,1,100,32.720
1574944620.066165,67956.000,11415,1,T0,1,100,32.709
1574944620.193394,68063.000,11433,1,T0,1,100,32.687
1574944620.323002,68172.000,11451,1,T0,1,100,32.709
1574944620.457365,68285.000,11469,1,T0,1,100,32.682
1574944620.600052,68405.000,11487,1,T0,1,100,32.693
1574944620.739172,68522.000,11506,1,T0,1,100,32.703
1574944620.873535,68635.000,11523,1,T0,1,100,32.677
1574944621.013844,68753.000,11557,1,T0,1,100,32.714
1574944621.152964,68870.000,11575,1,T0,1,100,32.741
1574944621.277815,68975.000,11593,1,T0,1,100,32.682
1574944621.410989,69087.000,11611,1,T0,1,100,32.682
1574944621.546542,69201.000,11629,1,T0,1,100,32.703
1574944621.679716,69313.000,11647,1,T0,1,100,32.677
1574944621.816458,69428.000,11666,1,T0,1,100,32.698
1574944621.942498,69534.000,11683,1,T0,1,100,32.703
1574944622.070916,69642.000,11701,1,T0,1,100,32.709
1574944622.208847,69758.000,11735,1,T0,1,100,32.693
1574944622.350345,69877.000,11753,1,T0,1,100,32.677
1574944622.476385,69983.000,11771,1,T0,1,100,32.736
1574944622.604803,70091.000,11789,1,T0,1,100,32.693
1574944622.741545,70206.000,11808,1,T0,1,100,32.725
1574944622.878286,70321.000,11826,1,T0,1,100,32.687
1574944623.016217,70437.000,11844,1,T0,1,100,32.720
1574944623.143446,70544.000,11861,1,T0,1,100,32.698
1574944623.271864,70652.000,11879,1,T0,1,100,32.720
1574944623.407417,70766.000,11913,1,T0,1,100,32.741
1574944623.544158,70881.000,11934,2,T0,1,100,32.698
1574944623.680900,70996.000,11934,2,T0,1,100,32.741
1574944623.805751,71101.000,11955,1,T0,1,100,32.709
1574944623.936548,71211.000,11972,1,T0,1,100,32.693
1574944624.073289,71326.000,12006,1,T0,1,100,32.725
1574944624.211220,71442.000,12024,1,T0,1,100,32.703
1574944624.344394,71554.000,12042,1,T0,1,100,32.687
1574944624.479947,71668.000,12060,1,T0,1,100,32.682
1574944624.605987,71774.000,12078,1,T0,1,100,32.703
1574944624.740350,71887.000,12097,1,T0,1,100,32.693
1574944624.864012,71991.000,12115,1,T0,1,100,32.677
1574944625.000754,72106.000,12133,1,T0,1,100,32.736
1574944625.137496,72221.000,12150,1,T0,1,100,32.714
1574944625.275426,72337.000,12184,1,T0,1,100,32.698
1574944625.403845,72445.000,12202,1,T0,1,100,32.725
1574944625.534641,72555.000,12220,1,T0,1,100,32.730
1574944625.665437,72665.000,12239,1,T0,1,100,32.741
1574944625.805746,72783.000,12257,1,T0,1,100,32.714
1574944625.942488,72898.000,12275,1,T0,1,100,32.677
1574944626.076851,73011.000,12293,1,T0,1,100,32.730
1574944626.208837,73122.000,12310,1,T0,1,100,32.709
1574944626.334877,73228.000,12328,1,T0,1,100,32.730
1574944626.465673,73338.000,12346,1,T0,1,100,32.709
1574944626.603604,73454.000,12380,1,T0,1,100,32.714
1574944626.742723,73571.000,12399,1,T0,1,100,32.693
1574944626.868764,73677.000,12417,1,T0,1,100,32.698
1574944626.997182,73785.000,12435,1,T0,1,100,32.720
1574944627.133924,73900.000,12453,1,T0,1,100,32.730
1574944627.271854,74016.000,12471,1,T0,1,100,32.719
1574944627.406218,74129.000,12489,1,T0,1,100,32.714
1574944627.533447,74236.000,12506,1,T0,1,100,32.741
1574944627.664243,74346.000,12524,1,T0,1,100,32.768
1574944627.803363,74463.000,12559,1,T0,1,100,32.730
1574944627.937726,74576.000,12577,1,T0,1,100,32.703
1574944628.067334,74685.000,12595,1,T0,1,100,32.714
1574944628.194563,74792.000,12613,1,T0,1,100,32.752
1574944628.328926,74905.000,12631,1,T0,1,100,32.714
1574944628.466857,75021.000,12649,1,T0,1,100,32.746
1574944628.610733,75142.000,12667,1,T0,1,100,32.730
1574944628.748664,75258.000,12685,1,T0,1,100,32.741
1574944628.883027,75371.000,12719,1,T0,1,100,32.730
1574944629.010256,75478.000,12737,1,T0,1,100,32.687
1574944629.142242,75589.000,12755,1,T0,1,100,32.677
1574944629.276605,75702.000,12773,1,T0,1,100,32.720
1574944629.419292,75822.000,12791,1,T0,1,100,32.714
1574944629.557223,75938.000,12809,1,T0,1,100,32.703
1574944629.693964,76053.000,12830,1,T0,1,100,32.730
1574944629.821193,76160.000,12851,1,T0,1,100,32.720
1574944629.950801,76269.000,12869,1,T0,1,100,32.762
1574944630.083975,76381.000,12887,1,T0,1,100,32.730
1574944630.221906,76497.000,12905,1,T0,1,100,32.730
1574944630.355080,76609.000,12923,1,T0,1,100,32.741
1574944630.478742,76713.000,12941,1,T0,1,100,32.741
1574944630.613106,76826.000,12958,1,T0,1,100,32.709
1574944630.748658,76940.000,12993,1,T0,1,100,32.757
1574944630.886589,77056.000,13011,1,T0,1,100,32.741
1574944631.015007,77164.000,13029,1,T0,1,100,32.730
1574944631.144615,77273.000,13047,1,T0,1,100,32.741
1574944631.277789,77385.000,13065,1,T0,1,100,32.762
1574944631.413342,77499.000,13083,1,T0,1,100,32.709
1574944631.551272,77615.000,13101,1,T0,1,100,32.714
1574944631.676123,77720.000,13119,1,T0,1,100,32.741
1574944631.810487,77833.000,13137,1,T0,1,100,32.720
1574944631.944850,77946.000,13155,1,T0,1,100,32.746
1574944632.082781,78062.000,13189,1,T0,1,100,32.698
1574944632.214767,78173.000,13207,1,T0,1,100,32.741
1574944632.341996,78280.000,13225,1,T0,1,100,32.746
1574944632.473981,78391.000,13243,1,T0,1,100,32.703
1574944632.614290,78509.000,13261,1,T0,1,100,32.714
1574944632.753410,78626.000,13280,1,T0,1,100,32.746
1574944632.885395,78737.000,13298,1,T0,1,100,32.741
1574944633.024515,78854.000,13315,1,T0,1,100,32.773
1574944633.162445,78970.000,13349,1,T0,1,100,32.778
1574944633.292053,79079.000,13367,1,T0,1,100,32.698
1574944633.419282,79186.000,13385,1,T0,1,100,32.725
1574944633.553645,79299.000,13403,1,T0,1,100,32.746
1574944633.686820,79411.000,13421,1,T0,1,100,32.741
1574944633.828318,79530.000,13440,1,T0,1,100,32.730
1574944633.955547,79637.000,13458,1,T0,1,100,32.725
1574944634.081587,79743.000,13476,1,T0,1,100,32.762
1574944634.218328,79858.000,13493,1,T0,1,100,32.736
1574944634.357448,79975.000,13527,1,T0,1,100,32.741
1574944634.489434,80086.000,13545,1,T0,1,100,32.778
1574944634.616663,80193.000,13563,1,T0,1,100,32.784
1574944634.748648,80304.000,13582,1,T0,1,100,32.725
1574944634.886579,80420.000,13600,1,T0,1,100,32.773
1574944635.023320,80535.000,13618,1,T0,1,100,32.773
1574944635.156495,80647.000,13636,1,T0,1,100,32.719
1574944635.280157,80751.000,13654,1,T0,1,100,32.730
1574944635.414521,80864.000,13671,1,T0,1,100,32.752
1574944635.552451,80980.000,13705,1,T0,1,100,32.725
1574944635.685031,81091.500,13727,2,T0,1,100,32.762
1574944635.817611,81203.000,13727,2,T0,1,100,32.736
1574944635.947218,81312.000,13747,1,T0,1,100,32.757
1574944636.080393,81424.000,13764,1,T0,1,100,32.746
1574944636.218323,81540.000,13782,1,T0,1,100,32.795
1574944636.356254,81656.000,13816,1,T0,1,100,32.736
1574944636.494185,81772.000,13834,1,T0,1,100,32.768
1574944636.623792,81881.000,13852,1,T0,1,100,32.741
1574944636.753399,81990.000,13871,1,T0,1,100,32.768
1574944636.878250,82095.000,13889,1,T0,1,100,32.757
1574944637.011425,82207.000,13907,1,T0,1,100,32.757
1574944637.148166,82322.000,13925,1,T0,1,100,32.720
1574944637.282530,82435.000,13942,1,T0,1,100,32.746
1574944637.418082,82549.000,13960,1,T0,1,100,32.795
1574944637.545312,82656.000,13994,1,T0,1,100,32.773
1574944637.672541,82763.000,14013,1,T0,1,100,32.757
1574944637.810472,82879.000,14031,1,T0,1,100,32.752
1574944637.951969,82998.000,14049,1,T0,1,100,32.768
1574944638.078009,83104.000,14067,1,T0,1,100,32.746
1574944638.207617,83213.000,14085,1,T0,1,100,32.757
1574944638.343169,83327.000,14103,1,T0,1,100,32.752
1574944638.475155,83438.000,14121,1,T0,1,100,32.736
1574944638.614274,83555.000,14138,1,T0,1,100,32.789
1574944638.741503,83662.000,14173,1,T0,1,100,32.725
1574944638.869922,83770.000,14191,1,T0,1,100,32.746
1574944639.005474,83884.000,14209,1,T0,1,100,32.725
1574944639.145783,84002.000,14227,1,T0,1,100,32.741
1574944639.280147,84115.000,14245,1,T0,1,100,32.778
1574944639.404998,84220.000,14263,1,T0,1,100,32.816
1574944639.536983,84331.000,14281,1,T0,1,100,32.752
1574944639.673725,84446.000,14299,1,T0,1,100,32.752
1574944639.811655,84562.000,14317,1,T0,1,100,32.752
1574944639.941263,84671.000,14335,1,T0,1,100,32.768
1574944640.064925,84775.000,14369,1,T0,1,100,32.789
1574944640.204044,84892.000,14387,1,T0,1,100,32.752
1574944640.343164,85009.000,14405,1,T0,1,100,32.757
1574944640.479906,85124.000,14423,1,T0,1,100,32.746
1574944640.622593,85244.000,14441,1,T0,1,100,32.746
1574944640.759334,85359.000,14460,1,T0,1,100,32.746
1574944640.898454,85476.000,14477,1,T0,1,100,32.768
1574944641.026872,85584.000,14511,1,T0,1,100,32.789
1574944641.157669,85694.000,14529,1,T0,1,100,32.762
1574944641.289654,85805.000,14547,1,T0,1,100,32.757
1574944641.431152,85924.000,14565,1,T0,1,100,32.784
1574944641.566704,86038.000,14583,1,T0,1,100,32.752
1574944641.702257,86152.000,14601,1,T0,1,100,32.746
1574944641.834242,86263.000,14623,1,T0,1,100,32.725
1574944641.960282,86369.000,14643,1,T0,1,100,32.757
1574944642.091079,86479.000,14661,1,T0,1,100,32.768
1574944642.229009,86595.000,14679,1,T0,1,100,32.800
1574944642.368129,86712.000,14697,1,T0,1,100,32.795
1574944642.491791,86816.000,14715,1,T0,1,100,32.768
1574944642.623776,86927.000,14733,1,T0,1,100,32.768
1574944642.758140,87040.000,14751,1,T0,1,100,32.741
1574944642.896071,87156.000,14785,1,T0,1,100,32.773
1574944643.030434,87269.000,14803,1,T0,1,100,32.795
1574944643.156474,87375.000,14821,1,T0,1,100,32.805
1574944643.288460,87486.000,14839,1,T0,1,100,32.800
1574944643.424012,87600.000,14857,1,T0,1,100,32.773
1574944643.565510,87719.000,14875,1,T0,1,100,32.768
1574944643.692739,87826.000,14893,1,T0,1,100,32.805
1574944643.819968,87933.000,14912,1,T0,1,100,32.778
1574944643.954332,88046.000,14929,1,T0,1,100,32.789
1574944644.091074,88161.000,14947,1,T0,1,100,32.757
1574944644.229004,88277.000,14981,1,T0,1,100,32.768
1574944644.351477,88380.000,14999,1,T0,1,100,32.768
1574944644.482274,88490.000,15017,1,T0,1,100,32.805
1574944644.619015,88605.000,15035,1,T0,1,100,32.784
1574944644.751001,88716.000,15054,1,T0,1,100,32.795
1574944644.885364,88829.000,15072,1,T0,1,100,32.821
1574944645.026862,88948.000,15090,1,T0,1,100,32.730
1574944645.157658,89058.000,15107,1,T0,1,100,32.795
1574944645.296778,89175.000,15141,1,T0,1,100,32.773
1574944645.424007,89282.000,15159,1,T0,1,100,32.778
1574944645.555993,89393.000,15177,1,T0,1,100,32.752
1574944645.689167,89505.000,15196,1,T0,1,100,32.789
1574944645.829476,89623.000,15214,1,T0,1,100,32.805
1574944645.962650,89735.000,15232,1,T0,1,100,32.795
1574944646.086312,89839.000,15250,1,T0,1,100,32.795
1574944646.220676,89952.000,15268,1,T0,1,100,32.811
1574944646.356228,90066.000,15286,1,T0,1,100,32.800
1574944646.491781,90180.000,15303,1,T0,1,100,32.784
1574944646.621388,90289.000,15337,1,T0,1,100,32.837
1574944646.748617,90396.000,15356,1,T0,1,100,32.800
1574944646.884170,90510.000,15374,1,T0,1,100,32.832
1574944647.019722,90624.000,15392,1,T0,1,100,32.800
1574944647.160031,90742.000,15410,1,T0,1,100,32.752
1574944647.284882,90847.000,15428,1,T0,1,100,32.778
1574944647.414490,90956.000,15446,1,T0,1,100,32.789
1574944647.552420,91072.000,15464,1,T0,1,100,32.821
1574944647.689162,91187.000,15481,1,T0,1,100,32.795
1574944647.817580,91295.000,15519,2,T0,1,100,32.805
1574944647.945998,91403.000,15519,2,T0,1,100,32.800
1574944648.079173,91515.000,15539,1,T0,1,100,32.800
1574944648.218292,91632.000,15557,1,T0,1,100,32.805
1574944648.358601,91750.000,15574,1,T0,1,100,32.832
1574944648.496532,91866.000,15608,1,T0,1,100,32.800
1574944648.633274,91981.000,15626,1,T0,1,100,32.821
1574944648.761692,92089.000,15645,1,T0,1,100,32.811
1574944648.890110,92197.000,15663,1,T0,1,100,32.811
1574944649.019717,92306.000,15681,1,T0,1,100,32.800
1574944649.154081,92419.000,15699,1,T0,1,100,32.795
1574944649.287255,92531.000,15717,1,T0,1,100,32.854
1574944649.428753,92650.000,15735,1,T0,1,100,32.784
1574944649.555982,92757.000,15752,1,T0,1,100,32.870
1574944649.682022,92863.000,15770,1,T0,1,100,32.821
1574944649.819953,92979.000,15805,1,T0,1,100,32.837
1574944649.957884,93095.000,15823,1,T0,1,100,32.821
1574944650.091058,93207.000,15841,1,T0,1,100,32.827
1574944650.218287,93314.000,15859,1,T0,1,100,32.816
1574944650.349084,93424.000,15877,1,T0,1,100,32.811
1574944650.483447,93537.000,15895,1,T0,1,100,32.832
1574944650.622567,93654.000,15913,1,T0,1,100,32.854
1574944650.754552,93765.000,15930,1,T0,1,100,32.805
1574944650.878214,93869.000,15949,1,T0,1,100,32.811
1574944651.012578,93982.000,15983,1,T0,1,100,32.805
1574944651.151697,94099.000,16001,1,T0,1,100,32.821
1574944651.289628,94215.000,16019,1,T0,1,100,32.843
1574944651.415668,94321.000,16037,1,T0,1,100,32.832
1574944651.544086,94429.000,16055,1,T0,1,100,32.811
1574944651.679639,94543.000,16073,1,T0,1,100,32.821
1574944651.817570,94659.000,16092,1,T0,1,100,32.864
1574944651.950744,94771.000,16109,1,T0,1,100,32.773
1574944652.074406,94875.000,16127,1,T0,1,100,32.859
1574944652.207581,94987.000,16145,1,T0,1,100,32.837
1574944652.346700,95104.000,16179,1,T0,1,100,32.827
1574944652.481064,95217.000,16197,1,T0,1,100,32.843
1574944652.623751,95337.000,16215,1,T0,1,100,32.816
1574944652.758114,95450.000,16234,1,T0,1,100,32.854
1574944652.896045,95566.000,16252,1,T0,1,100,32.821
1574944653.031598,95680.000,16269,1,T0,1,100,32.827
1574944653.160016,95788.000,16287,1,T0,1,100,32.821
1574944653.288434,95896.000,16305,1,T0,1,100,32.821
1574944653.427554,96013.000,16339,1,T0,1,100,32.859
1574944653.567863,96131.000,16357,1,T0,1,100,32.848
1574944653.693902,96237.000,16375,1,T0,1,100,32.859
1574944653.823510,96346.000,16394,1,T0,1,100,32.837
1574944653.956684,96458.000,16415,1,T0,1,100,32.843
1574944654.091048,96571.000,16435,1,T0,1,100,32.816
1574944654.231357,96689.000,16453,1,T0,1,100,32.827
1574944654.357397,96795.000,16471,1,T0,1,100,32.832
1574944654.485815,96903.000,16489,1,T0,1,100,32.789
1574944654.621367,97017.000,16507,1,T0,1,100,32.854
1574944654.761676,97135.000,16526,1,T0,1,100,32.832
1574944654.894851,97247.000,16544,1,T0,1,100,32.821
1574944655.020891,97353.000,16561,1,T0,1,100,32.832
1574944655.155254,97466.000,16579,1,T0,1,100,32.848
1574944655.293185,97582.000,16613,1,T0,1,100,32.805
1574944655.431116,97698.000,16631,1,T0,1,100,32.800
1574944655.557156,97804.000,16649,1,T0,1,100,32.827
1574944655.683196,97910.000,16668,1,T0,1,100,32.827
1574944655.823505,98028.000,16686,1,T0,1,100,32.870
1574944655.957868,98141.000,16704,1,T0,1,100,32.854
1574944656.095799,98257.000,16722,1,T0,1,100,32.880
1574944656.223028,98364.000,16739,1,T0,1,100,32.848
1574944656.357392,98477.000,16757,1,T0,1,100,32.827
1574944656.482243,98582.000,16775,1,T0,1,100,32.854
1574944656.617795,98696.000,16809,1,T0,1,100,32.859
1574944656.749781,98807.000,16828,1,T0,1,100,32.859
1574944656.881766,98918.000,16846,1,T0,1,100,32.843
1574944657.020886,99035.000,16864,1,T0,1,100,32.843
1574944657.157627,99150.000,16882,1,T0,1,100,32.854
1574944657.282478,99255.000,16900,1,T0,1,100,32.870
1574944657.416842,99368.000,16918,1,T0,1,100,32.848
1574944657.553584,99483.000,16935,1,T0,1,100,32.864
1574944657.687947,99596.000,16970,1,T0,1,100,32.837
1574944657.821121,99708.000,16988,1,T0,1,100,32.875
1574944657.947162,99814.000,17006,1,T0,1,100,32.870
1574944658.077958,99924.000,17024,1,T0,1,100,32.886
1574944658.215889,100040.000,17042,1,T0,1,100,32.816
1574944658.357386,100159.000,17060,1,T0,1,100,32.821
1574944658.483427,100265.000,17078,1,T0,1,100,32.848
1574944658.610656,100372.000,17096,1,T0,1,100,32.848
1574944658.748586,100488.000,17114,1,T0,1,100,32.880
1574944658.885328,100603.000,17148,1,T0,1,100,32.864
1574944659.020880,100717.000,17166,1,T0,1,100,32.891
1574944659.148110,100824.000,17184,1,T0,1,100,32.859
1574944659.277717,100933.000,17202,1,T0,1,100,32.886
1574944659.416837,101050.000,17220,1,T0,1,100,32.832
1574944659.552389,101164.000,17238,1,T0,1,100,32.854
1574944659.683186,101274.000,17256,1,T0,1,100,32.875
1574944659.809226,101380.000,17275,1,T0,1,100,32.918
1574944659.941211,101491.000,17293,1,T0,1,100,32.870
1574944660.077953,101606.000,17313,1,T0,1,100,32.880
1574944660.220640,101726.000,17331,1,T0,1,100,32.875
1574944660.355003,101839.000,17351,1,T0,1,100,32.875
1574944660.489367,101952.000,17369,1,T0,1,100,32.859
1574944660.624919,102066.000,17386,1,T0,1,100,32.880
1574944660.753337,102174.000,17404,1,T0,1,100,32.870
1574944660.878189,102279.000,17439,1,T0,1,100,32.886
1574944661.016119,102395.000,17457,1,T0,1,100,32.896
1574944661.154050,102511.000,17475,1,T0,1,100,32.934
1574944661.291981,102627.000,17493,1,T0,1,100,32.902
1574944661.419210,102734.000,17511,1,T0,1,100,32.870
1574944661.550006,102844.000,17529,1,T0,1,100,32.875
1574944661.683181,102956.000,17547,1,T0,1,100,32.896
1574944661.821111,103072.000,17565,1,T0,1,100,32.896
1574944661.956664,103186.000,17599,1,T0,1,100,32.891
1574944662.079137,103289.000,17617,1,T0,1,100,32.870
1574944662.212311,103401.000,17635,1,T0,1,100,32.891
1574944662.349053,103516.000,17653,1,T0,1,100,32.913
1574944662.485794,103631.000,17671,1,T0,1,100,32.902
1574944662.615402,103740.000,17689,1,T0,1,100,32.907
1574944662.745009,103849.000,17708,1,T0,1,100,32.918
1574944662.878183,103961.000,17726,1,T0,1,100,32.870
1574944663.013736,104075.000,17744,1,T0,1,100,32.870
1574944663.145721,104186.000,17778,2,T0,1,100,32.896
1574944663.277707,104297.000,17778,2,T0,1,100,32.870
1574944663.408503,104407.000,17812,1,T0,1,100,32.891
1574944663.541677,104519.000,17830,1,T0,1,100,32.896
1574944663.677230,104633.000,17849,1,T0,1,100,32.913
1574944663.811594,104746.000,17867,1,T0,1,100,32.923
1574944663.937634,104852.000,17885,1,T0,1,100,32.896
1574944664.067241,104961.000,17903,1,T0,1,100,32.907
1574944664.206361,105078.000,17921,1,T0,1,100,32.886
1574944664.345480,105195.000,17938,1,T0,1,100,32.896
1574944664.476277,105305.000,17956,1,T0,1,100,32.945
1574944664.615396,105422.000,17990,1,T0,1,100,32.891
1574944664.753327,105538.000,18009,1,T0,1,100,32.902
1574944664.884124,105648.000,18027,1,T0,1,100,32.902
1574944665.012542,105756.000,18045,1,T0,1,100,32.870
1574944665.149283,105871.000,18063,1,T0,1,100,32.886
1574944665.277702,105979.000,18081,1,T0,1,100,32.923
1574944665.416821,106096.000,18099,1,T0,1,100,32.896
1574944665.554752,106212.000,18116,1,T0,1,100,32.939
1574944665.687927,106324.000,18151,1,T0,1,100,32.934
1574944665.815156,106431.000,18169,1,T0,1,100,32.902
1574944665.945952,106541.000,18187,1,T0,1,100,32.913
1574944666.082694,106656.000,18208,2,T0,1,100,32.907
1574944666.219435,106771.000,18208,2,T0,1,100,32.902
1574944666.350231,106881.000,18242,1,T0,1,100,32.907
1574944666.473893,106985.000,18262,1,T0,1,100,32.902
1574944666.609446,107099.000,18280,1,T0,1,100,32.913
1574944666.748566,107216.000,18299,1,T0,1,100,32.945
1574944666.887686,107333.000,18317,1,T0,1,100,32.902
1574944667.012537,107438.000,18335,1,T0,1,100,32.902
1574944667.143333,107548.000,18353,1,T0,1,100,32.918
1574944667.278885,107662.000,18371,1,T0,1,100,32.972
1574944667.416816,107778.000,18388,1,T0,1,100,32.939
1574944667.547612,107888.000,18423,1,T0,1,100,32.950
1574944667.672463,107993.000,18441,1,T0,1,100,32.939
1574944667.808016,108107.000,18459,1,T0,1,100,32.945
1574944667.942379,108220.000,18477,1,T0,1,100,32.945
1574944668.080310,108336.000,18495,1,T0,1,100,32.902
1574944668.208729,108444.000,18513,1,T0,1,100,32.880
1574944668.338336,108553.000,18531,1,T0,1,100,32.891
1574944668.463187,108658.000,18549,1,T0,1,100,32.896
1574944668.595172,108769.000,18567,1,T0,1,100,32.907
1574944668.730725,108883.000,18586,1,T0,1,100,32.918
1574944668.865088,108996.000,18603,1,T0,1,100,32.955
1574944669.007775,109116.000,18637,1,T0,1,100,32.923
1574944669.148084,109234.000,18655,1,T0,1,100,32.902
1574944669.275313,109341.000,18673,1,T0,1,100,32.918
1574944669.404920,109450.000,18691,1,T0,1,100,32.961
1574944669.540473,109564.000,18709,1,T0,1,100,32.945
1574944669.673647,109676.000,18727,1,T0,1,100,32.934
1574944669.812767,109793.000,18746,1,T0,1,100,32.955
1574944669.938807,109899.000,18763,1,T0,1,100,32.923
1574944670.066036,110006.000,18781,1,T0,1,100,32.923
1574944670.202778,110121.000,18815,1,T0,1,100,32.939
1574944670.340709,110237.000,18833,1,T0,1,100,32.950
1574944670.475072,110350.000,18851,1,T0,1,100,32.955
1574944670.602301,110457.000,18869,1,T0,1,100,32.966
1574944670.736665,110570.000,18888,1,T0,1,100,32.945
1574944670.874596,110686.000,18906,1,T0,1,100,32.939
1574944671.011337,110801.000,18924,1,T0,1,100,32.950
1574944671.140944,110910.000,18941,1,T0,1,100,32.961
1574944671.266985,111016.000,18959,1,T0,1,100,32.913
1574944671.407293,111134.000,18993,1,T0,1,100,32.923
1574944671.541657,111247.000,19011,1,T0,1,100,32.955
1574944671.678399,111362.000,19029,1,T0,1,100,32.934
1574944671.802061,111466.000,19048,1,T0,1,100,32.945
1574944671.932857,111576.000,19066,1,T0,1,100,32.966
1574944672.068409,111690.000,19084,1,T0,1,100,32.993
1574944672.211096,111810.000,19105,1,T0,1,100,32.929
1574944672.344271,111922.000,19123,1,T0,1,100,32.939
1574944672.483391,112039.000,19143,1,T0,1,100,32.972
1574944672.620132,112154.000,19161,1,T0,1,100,32.939
1574944672.755685,112268.000,19180,1,T0,1,100,32.939
1574944672.880536,112373.000,19197,1,T0,1,100,32.961
1574944673.014899,112486.000,19215,1,T0,1,100,32.955
1574944673.151641,112601.000,19249,1,T0,1,100,32.966
1574944673.287193,112715.000,19267,1,T0,1,100,32.966
1574944673.420368,112827.000,19285,1,T0,1,100,32.934
1574944673.546408,112933.000,19303,1,T0,1,100,32.966
1574944673.677204,113043.000,19321,1,T0,1,100,32.988
1574944673.815135,113159.000,19340,1,T0,1,100,32.939
1574944673.955444,113277.000,19358,1,T0,1,100,32.972
1574944674.079106,113381.000,19375,1,T0,1,100,32.972
1574944674.208713,113490.000,19393,1,T0,1,100,32.972
1574944674.344266,113604.000,19427,1,T0,1,100,32.961
1574944674.481007,113719.000,19445,1,T0,1,100,32.972
1574944674.616560,113833.000,19463,1,T0,1,100,32.988
1574944674.743789,113940.000,19482,1,T0,1,100,32.955
1574944674.879342,114054.000,19500,3,T0,1,100,32.950
1574944675.014894,114168.000,19500,3,T0,1,100,32.961
1574944675.150447,114282.000,19500,3,T0,1,100,32.934
1574944675.282432,114393.000,19518,5,T0,1,100,32.998
1574944675.414418,114504.000,19518,5,T0,1,100,32.988
1574944675.546403,114615.000,19518,5,T0,1,100,32.982
1574944675.678388,114726.000,19518,5,T0,1,100,32.977
1574944675.810374,114837.000,19518,5,T0,1,100,32.977
1574944675.943378,114948.857,19537,7,T0,1,100,32.988
1574944676.076383,115060.714,19537,7,T0,1,100,32.982
1574944676.209387,115172.571,19537,7,T0,1,100,32.988
1574944676.342392,115284.429,19537,7,T0,1,100,32.982
1574944676.475397,115396.286,19537,7,T0,1,100,32.972
1574944676.608401,115508.143,19537,7,T0,1,100,32.988
1574944676.741406,115620.000,19537,7,T0,1,100,32.988
1574944676.873986,115731.500,19556,8,T0,1,100,32.966
1574944677.006566,115843.000,19556,8,T0,1,100,32.966
1574944677.139145,115954.500,19556,8,T0,1,100,33.020
1574944677.271725,116066.000,19556,8,T0,1,100,32.982
1574944677.404305,116177.500,19556,8,T0,1,100,33.020
1574944677.536885,116289.000,19556,8,T0,1,100,32.961
1574944677.669465,116400.500,19556,8,T0,1,100,32.977
1574944677.802045,116512.000,19556,8,T0,1,100,32.966
1574944677.935715,116624.417,19578,12,T0,1,100,33.031
1574944678.069385,116736.833,19578,12,T0,1,100,32.955
1574944678.203055,116849.250,19578,12,T0,1,100,33.014
1574944678.336725,116961.667,19578,12,T0,1,100,32.998
1574944678.470395,117074.083,19578,12,T0,1,100,32.993
1574944678.604064,117186.500,19578,12,T0,1,100,32.988
1574944678.737734,117298.917,19578,12,T0,1,100,32.998
1574944678.871404,117411.333,19578,12,T0,1,100,32.982
1574944679.005074,117523.750,19578,12,T0,1,100,33.025
1574944679.138744,117636.167,19578,12,T0,1,100,32.977
1574944679.272414,117748.583,19578,12,T0,1,100,32.955
1574944679.406084,117861.000,19578,12,T0,1,100,32.977
1574944679.537277,117971.333,19598,3,T0,1,100,32.966
1574944679.668469,118081.667,19598,3,T0,1,100,33.009
1574944679.799662,118192.000,19598,3,T0,1,100,33.020
1574944679.939970,118310.000,19617,1,T0,1,100,32.993
1574944680.077901,118426.000,19634,1,T0,1,100,32.939
1574944680.214643,118541.000,19668,1,T0,1,100,32.982
1574944680.341872,118648.000,19686,1,T0,1,100,32.977
1574944680.471479,118757.000,19704,1,T0,1,100,33.020
1574944680.599898,118865.000,19722,1,T0,1,100,32.988
1574944680.734261,118978.000,19741,1,T0,1,100,32.988
1574944680.868624,119091.000,19759,1,T0,1,100,33.009
1574944681.010122,119210.000,19777,1,T0,1,100,32.993
1574944681.138541,119318.000,19794,1,T0,1,100,33.041
1574944681.275282,119433.000,19812,1,T0,1,100,32.977
1574944681.402511,119540.000,19846,1,T0,1,100,33.020
1574944681.534497,119651.000,19864,1,T0,1,100,33.014
1574944681.668860,119764.000,19883,1,T0,1,100,33.014
1574944681.807980,119881.000,19901,1,T0,1,100,33.014
1574944681.937587,119990.000,19919,1,T0,1,100,33.031
1574944682.061249,120094.000,19937,1,T0,1,100,32.993
1574944682.196802,120208.000,19955,1,T0,1,100,32.977
1574944682.333544,120323.000,19973,1,T0,1,100,33.014
1574944682.472663,120440.000,19990,1,T0,1,100,33.025
1574944682.597514,120545.000,20008,1,T0,1,100,33.009
1574944682.729500,120656.000,20043,1,T0,1,100,33.025
1574944682.865052,120770.000,20061,1,T0,1,100,32.993
1574944682.999416,120883.000,20079,1,T0,1,100,32.993
1574944683.136157,120998.000,20097,1,T0,1,100,33.009
1574944683.261009,121103.000,20115,1,T0,1,100,33.020
1574944683.396561,121217.000,20133,1,T0,1,100,33.041
1574944683.530925,121330.000,20151,1,T0,1,100,32.998
1574944683.668855,121446.000,20168,1,T0,1,100,33.057
1574944683.797273,121554.000,20187,1,T0,1,100,33.009
1574944683.924503,121661.000,20222,1,T0,1,100,33.036
1574944684.056488,121772.000,20239,1,T0,1,100,33.031
1574944684.199175,121892.000,20257,1,T0,1,100,33.020
1574944684.338295,122009.000,20275,1,T0,1,100,33.036
1574944684.472658,122122.000,20293,1,T0,1,100,33.014
1574944684.611778,122239.000,20311,1,T0,1,100,33.014
1574944684.750898,122356.000,20329,1,T0,1,100,33.031
1574944684.876938,122462.000,20347,1,T0,1,100,33.031
1574944685.006545,122571.000,20382,1,T0,1,100,33.041
1574944685.142097,122685.000,20399,1,T0,1,100,33.031
1574944685.276461,122798.000,20417,1,T0,1,100,33.009
1574944685.409041,122909.500,20436,2,T0,1,100,33.025
1574944685.541621,123021.000,20436,2,T0,1,100,33.036
1574944685.668850,123128.000,20475,1,T0,1,100,33.063
1574944685.805592,123243.000,20493,1,T0,1,100,33.052
1574944685.943522,123359.000,20511,1,T0,1,100,33.036
1574944686.074319,123469.000,20529,1,T0,1,100,33.009
1574944686.202737,123577.000,20547,1,T0,1,100,33.004
1574944686.337100,123690.000,20565,1,T0,1,100,33.041
1574944686.475031,123806.000,20583,1,T0,1,100,33.047
1574944686.611773,123921.000,20600,1,T0,1,100,33.031
1574944686.741380,124030.000,20635,1,T0,1,100,33.041
1574944686.868609,124137.000,20653,1,T0,1,100,33.047
1574944687.004162,124251.000,20671,1,T0,1,100,33.079
1574944687.143281,124368.000,20689,1,T0,1,100,33.041
1574944687.278834,124482.000,20707,1,T0,1,100,33.052
1574944687.402496,124586.000,20725,1,T0,1,100,33.068
1574944687.532103,124695.000,20743,1,T0,1,100,33.041
1574944687.667656,124809.000,20761,1,T0,1,100,33.073
1574944687.805587,124925.000,20779,1,T0,1,100,33.031
1574944687.941139,125039.000,20814,1,T0,1,100,33.041
1574944688.079070,125155.000,20831,1,T0,1,100,33.106
1574944688.203921,125260.000,20849,1,T0,1,100,33.057
1574944688.337095,125372.000,20867,1,T0,1,100,33.041
1574944688.461946,125477.000,20885,1,T0,1,100,33.041
1574944688.596310,125590.000,20903,1,T0,1,100,33.020
1574944688.733051,125705.000,20922,1,T0,1,100,33.014
1574944688.868604,125819.000,20940,1,T0,1,100,33.025
1574944689.000589,125930.000,20958,1,T0,1,100,33.057
1574944689.129008,126038.000,20975,1,T0,1,100,33.047
1574944689.259804,126148.000,20993,1,T0,1,100,33.073
1574944689.398924,126265.000,21027,1,T0,1,100,33.057
1574944689.540421,126384.000,21045,1,T0,1,100,33.047
1574944689.662894,126487.000,21064,1,T0,1,100,33.047
1574944689.793691,126597.000,21082,1,T0,1,100,33.057
1574944689.929243,126711.000,21100,1,T0,1,100,33.052
1574944690.062418,126823.000,21118,1,T0,1,100,33.084
1574944690.200348,126939.000,21136,1,T0,1,100,33.047
1574944690.327578,127046.000,21153,1,T0,1,100,33.041
1574944690.458374,127156.000,21171,1,T0,1,100,33.052
1574944690.593926,127270.000,21205,1,T0,1,100,33.041
1574944690.734235,127388.000,21224,1,T0,1,100,33.116
1574944690.865032,127498.000,21242,1,T0,1,100,33.047
1574944690.993450,127606.000,21260,1,T0,1,100,33.031
1574944691.126624,127718.000,21278,1,T0,1,100,33.047
1574944691.263366,127833.000,21296,1,T0,1,100,33.020
1574944691.401297,127949.000,21314,1,T0,1,100,33.090
1574944691.528526,128056.000,21334,1,T0,1,100,33.036
1574944691.652188,128160.000,21355,1,T0,1,100,33.047
1574944691.791307,128277.000,21373,1,T0,1,100,33.057
1574944691.929238,128393.000,21391,1,T0,1,100,33.052
1574944692.065980,128508.000,21409,1,T0,1,100,33.036
1574944692.208667,128628.000,21426,1,T0,1,100,33.041
1574944692.343030,128741.000,21460,1,T0,1,100,33.020
1574944692.482150,128858.000,21478,1,T0,1,100,33.100
1574944692.609379,128965.000,21496,1,T0,1,100,33.090
1574944692.741364,129076.000,21515,1,T0,1,100,33.106
1574944692.873350,129187.000,21533,1,T0,1,100,33.100
1574944693.012470,129304.000,21551,1,T0,1,100,32.998
1574944693.144455,129415.000,21569,1,T0,1,100,33.073
1574944693.285953,129534.000,21586,1,T0,1,100,33.052
1574944693.414371,129642.000,21604,1,T0,1,100,33.079
1574944693.542789,129750.000,21638,1,T0,1,100,33.052
1574944693.674775,129861.000,21657,1,T0,1,100,33.068
1574944693.811516,129976.000,21675,1,T0,1,100,33.073
1574944693.947069,130090.000,21693,1,T0,1,100,33.079
1574944694.070731,130194.000,21711,1,T0,1,100,33.095
1574944694.202716,130305.000,21729,1,T0,1,100,33.079
1574944694.338269,130419.000,21747,1,T0,1,100,33.095
1574944694.476200,130535.000,21765,1,T0,1,100,33.025
1574944694.608185,130646.000,21782,1,T0,1,100,33.073
1574944694.736603,130754.000,21817,1,T0,1,100,33.068
1574944694.869778,130866.000,21835,1,T0,1,100,33.084
1574944695.005330,130980.000,21853,1,T0,1,100,33.052
1574944695.146828,131099.000,21871,1,T0,1,100,33.079
1574944695.271679,131204.000,21889,1,T0,1,100,33.073
1574944695.402475,131314.000,21907,1,T0,1,100,33.090
1574944695.536839,131427.000,21925,1,T0,1,100,33.068
1574944695.673580,131542.000,21943,1,T0,1,100,33.106
1574944695.809133,131656.000,21961,1,T0,1,100,33.095
1574944695.932795,131760.000,21979,1,T0,1,100,33.068
1574944696.065969,131872.000,22013,1,T0,1,100,33.057
1574944696.202711,131987.000,22031,1,T0,1,100,33.068
1574944696.338264,132101.000,22049,1,T0,1,100,33.090
1574944696.471438,132213.000,22067,1,T0,1,100,33.095
1574944696.615314,132334.000,22085,1,T0,1,100,33.111
1574944696.753245,132450.000,22104,1,T0,1,100,33.063
1574944696.886419,132562.000,22121,1,T0,1,100,33.052
1574944697.014838,132670.000,22139,1,T0,1,100,33.090
1574944697.146823,132781.000,22173,1,T0,1,100,33.057
1574944697.281186,132894.000,22191,1,T0,1,100,33.068
1574944697.422684,133013.000,22209,1,T0,1,100,33.079
1574944697.549913,133120.000,22230,2,T0,1,100,33.063
1574944697.677143,133227.000,22230,2,T0,1,100,33.095
1574944697.813884,133342.000,22267,1,T0,1,100,33.063
1574944697.949437,133456.000,22285,1,T0,1,100,33.073
1574944698.083800,133569.000,22303,1,T0,1,100,33.084
1574944698.211029,133676.000,22321,1,T0,1,100,33.068
1574944698.343015,133787.000,22339,1,T0,1,100,33.100
1574944698.479756,133902.000,22357,1,T0,1,100,33.084
1574944698.615309,134016.000,22375,1,T0,1,100,33.084
1574944698.752051,134131.000,22393,1,T0,1,100,33.063
1574944698.876902,134236.000,22411,1,T0,1,100,33.063
1574944699.010076,134348.000,22445,1,T0,1,100,33.111
1574944699.149196,134465.000,22463,1,T0,1,100,33.073
1574944699.287127,134581.000,22481,1,T0,1,100,33.100
1574944699.414356,134688.000,22499,1,T0,1,100,33.073
1574944699.540396,134794.000,22517,1,T0,1,100,33.079
1574944699.672381,134905.000,22535,1,T0,1,100,33.090
1574944699.811501,135022.000,22554,1,T0,1,100,33.068
1574944699.951810,135140.000,22572,1,T0,1,100,33.057
1574944700.089740,135256.000,22589,1,T0,1,100,33.106
1574944700.232427,135376.000,22623,1,T0,1,100,33.084
1574944700.367980,135490.000,22641,1,T0,1,100,33.079
1574944700.494020,135596.000,22659,1,T0,1,100,33.073
1574944700.623627,135705.000,22677,1,T0,1,100,33.073
1574944700.759180,135819.000,22696,1,T0,1,100,33.073
1574944700.893543,135932.000,22714,1,T0,1,100,33.084
1574944701.031474,136048.000,22732,1,T0,1,100,33.068
1574944701.158703,136155.000,22749,1,T0,1,100,33.073
1574944701.285932,136262.000,22767,1,T0,1,100,33.095
1574944701.422674,136377.000,22801,1,T0,1,100,33.073
1574944701.560605,136493.000,22819,1,T0,1,100,33.068
1574944701.691401,136603.000,22837,1,T0,1,100,33.084
1574944701.819819,136711.000,22856,1,T0,1,100,33.052
1574944701.952994,136823.000,22874,1,T0,1,100,33.106
1574944702.086168,136935.000,22892,1,T0,1,100,33.079
1574944702.227666,137054.000,22910,1,T0,1,100,33.063
1574944702.356084,137162.000,22927,1,T0,1,100,33.079
1574944702.483313,137269.000,22945,1,T0,1,100,33.073
1574944702.618866,137383.000,22979,1,T0,1,100,33.084
1574944702.759175,137501.000,22998,1,T0,1,100,33.090
1574944702.895916,137616.000,23016,1,T0,1,100,33.106
1574944703.020767,137721.000,23034,1,T0,1,100,33.041
1574944703.151564,137831.000,23052,1,T0,1,100,33.084
1574944703.287116,137945.000,23070,1,T0,1,100,33.090
1574944703.425047,138061.000,23088,1,T0,1,100,33.057
1574944703.558221,138173.000,23105,1,T0,1,100,33.095
1574944703.681883,138277.000,23126,1,T0,1,100,33.095
1574944703.819814,138393.000,23147,1,T0,1,100,33.084
1574944703.957745,138509.000,23165,1,T0,1,100,33.090
1574944704.092108,138622.000,23183,1,T0,1,100,33.031
1574944704.233606,138741.000,23200,1,T0,1,100,33.100
1574944704.370348,138856.000,23234,1,T0,1,100,33.100
1574944704.505900,138970.000,23252,1,T0,1,100,33.079
1574944704.637886,139081.000,23270,1,T0,1,100,33.084
1574944704.766304,139189.000,23289,1,T0,1,100,33.057
1574944704.897100,139299.000,23307,1,T0,1,100,33.106
1574944705.036220,139416.000,23325,1,T0,1,100,33.090
1574944705.175340,139533.000,23343,1,T0,1,100,33.100
1574944705.299002,139637.000,23360,1,T0,1,100,33.111
1574944705.429798,139747.000,23378,1,T0,1,100,33.100
1574944705.565351,139861.000,23412,1,T0,1,100,33.057
1574944705.697336,139972.000,23431,1,T0,1,100,33.063
1574944705.835267,140088.000,23449,1,T0,1,100,33.057
1574944705.962496,140195.000,23467,1,T0,1,100,33.025
1574944706.092103,140304.000,23485,1,T0,1,100,33.041
1574944706.227656,140418.000,23503,1,T0,1,100,33.079
1574944706.369153,140537.000,23521,1,T0,1,100,33.095
1574944706.498761,140646.000,23539,1,T0,1,100,33.068
1574944706.624801,140752.000,23556,1,T0,1,100,33.090
1574944706.761542,140867.000,23574,1,T0,1,100,33.057
1574944706.898284,140982.000,23609,1,T0,1,100,33.079
1574944707.036215,141098.000,23627,1,T0,1,100,33.090
1574944707.163444,141205.000,23645,1,T0,1,100,33.079
1574944707.288295,141310.000,23663,1,T0,1,100,33.100
1574944707.427415,141427.000,23681,1,T0,1,100,33.079
1574944707.562967,141541.000,23699,1,T0,1,100,33.068
1574944707.696142,141653.000,23717,1,T0,1,100,33.095
1574944707.831694,141767.000,23735,1,T0,1,100,33.106
1574944707.961302,141876.000,23753,1,T0,1,100,33.084
1574944708.095665,141989.000,23787,1,T0,1,100,33.041
1574944708.220516,142094.000,23805,1,T0,1,100,33.084
1574944708.352501,142205.000,23823,1,T0,1,100,33.084
1574944708.485676,142317.000,23841,1,T0,1,100,33.079
1574944708.625985,142435.000,23859,1,T0,1,100,33.079
1574944708.757970,142546.000,23878,1,T0,1,100,33.090
1574944708.899468,142665.000,23896,1,T0,1,100,33.079
1574944709.026697,142772.000,23913,1,T0,1,100,33.106
1574944709.157493,142882.000,23931,1,T0,1,100,33.084
1574944709.290668,142994.000,23965,1,T0,1,100,33.090
1574944709.430977,143112.000,23983,1,T0,1,100,33.057
1574944709.566529,143226.000,24001,1,T0,1,100,33.073
1574944709.694947,143334.000,24023,2,T0,1,100,33.047
1574944709.823366,143442.000,24023,2,T0,1,100,33.041
1574944709.958918,143556.000,24059,1,T0,1,100,33.106
1574944710.093282,143669.000,24077,1,T0,1,100,33.079
1574944710.226456,143781.000,24095,1,T0,1,100,33.068
1574944710.354874,143889.000,24113,1,T0,1,100,33.063
1574944710.488049,144001.000,24131,1,T0,1,100,33.090
1574944710.623601,144115.000,24149,1,T0,1,100,33.100
1574944710.765099,144234.000,24168,1,T0,1,100,33.073
1574944710.891140,144340.000,24185,1,T0,1,100,33.063
1574944711.020747,144449.000,24203,1,T0,1,100,33.095
1574944711.155110,144562.000,24221,1,T0,1,100,33.095
1574944711.293041,144678.000,24255,1,T0,1,100,33.063
1574944711.427404,144791.000,24273,1,T0,1,100,33.068
1574944711.552255,144896.000,24291,1,T0,1,100,33.073
1574944711.679485,145003.000,24310,1,T0,1,100,33.090
1574944711.817415,145119.000,24328,1,T0,1,100,33.073
1574944711.956535,145236.000,24346,1,T0,1,100,33.063
1574944712.092088,145350.000,24364,1,T0,1,100,33.068
1574944712.233585,145469.000,24381,1,T0,1,100,33.073
1574944712.371516,145585.000,24415,1,T0,1,100,33.068
1574944712.504691,145697.000,24433,1,T0,1,100,33.068
1574944712.633109,145805.000,24451,1,T0,1,100,33.079
1574944712.766283,145917.000,24470,1,T0,1,100,33.063
1574944712.900647,146030.000,24488,1,T0,1,100,33.095
1574944713.042145,146149.000,24506,1,T0,1,100,33.084
1574944713.171752,146258.000,24523,1,T0,1,100,33.084
1574944713.296603,146363.000,24541,1,T0,1,100,33.052
1574944713.433345,146478.000,24559,1,T0,1,100,33.047
1574944713.570086,146593.000,24593,1,T0,1,100,33.084
1574944713.705639,146707.000,24612,1,T0,1,100,33.079
1574944713.832868,146814.000,24630,1,T0,1,100,33.079
1574944713.964853,146925.000,24648,1,T0,1,100,33.100
1574944714.101595,147040.000,24666,1,T0,1,100,33.057
1574944714.237147,147154.000,24684,1,T0,1,100,33.079
1574944714.372700,147268.000,24702,1,T0,1,100,33.052
1574944714.497551,147373.000,24719,1,T0,1,100,33.073
1574944714.630726,147485.000,24737,1,T0,1,100,33.068
1574944714.769845,147602.000,24772,1,T0,1,100,33.057
1574944714.906587,147717.000,24790,1,T0,1,100,33.057
1574944715.036194,147826.000,24808,1,T0,1,100,33.041
1574944715.163423,147933.000,24826,1,T0,1,100,33.014
1574944715.295409,148044.000,24844,1,T0,1,100,33.063
1574944715.434528,148161.000,24862,1,T0,1,100,33.079
1574944715.572459,148277.000,24880,1,T0,1,100,33.073
1574944715.696121,148381.000,24897,1,T0,1,100,33.084
1574944715.825728,148490.000,24919,1,T0,1,100,33.041
1574944715.955336,148599.000,24939,1,T0,1,100,33.052
1574944716.080187,148704.000,24957,1,T0,1,100,33.068
1574944716.210983,148814.000,24975,1,T0,1,100,33.068
1574944716.346536,148928.000,24993,1,T0,1,100,33.057
1574944716.480899,149041.000,25011,1,T0,1,100,33.063
1574944716.618830,149157.000,25028,1,T0,1,100,33.084
1574944716.746059,149264.000,25046,1,T0,1,100,33.073
1574944716.874477,149372.000,25081,1,T0,1,100,33.073
1574944717.012408,149488.000,25099,1,T0,1,100,33.063
1574944717.151528,149605.000,25117,1,T0,1,100,33.079
1574944717.287080,149719.000,25135,1,T0,1,100,33.068
1574944717.428578,149838.000,25153,1,T0,1,100,33.073
1574944717.554618,149944.000,25171,1,T0,1,100,33.068
1574944717.681847,150051.000,25189,1,T0,1,100,33.036
1574944717.819778,150167.000,25207,1,T0,1,100,33.068
1574944717.957709,150283.000,25241,1,T0,1,100,33.100
1574944718.089694,150394.000,25259,1,T0,1,100,33.079
1574944718.216923,150501.000,25277,1,T0,1,100,33.047
1574944718.348909,150612.000,25295,1,T0,1,100,33.063
1574944718.488028,150729.000,25313,1,T0,1,100,33.052
1574944718.624770,150844.000,25331,1,T0,1,100,33.041
1574944718.756755,150955.000,25350,1,T0,1,100,33.079
1574944718.882795,151061.000,25368,1,T0,1,100,33.052
1574944719.020726,151177.000,25385,1,T0,1,100,33.068
1574944719.156279,151291.000,25419,1,T0,1,100,33.041
1574944719.294209,151407.000,25437,1,T0,1,100,33.090
1574944719.417871,151511.000,25455,1,T0,1,100,33.052
1574944719.547479,151620.000,25473,1,T0,1,100,33.047
1574944719.684220,151735.000,25491,1,T0,1,100,33.084
1574944719.822151,151851.000,25510,1,T0,1,100,33.090
1574944719.957703,151965.000,25528,1,T0,1,100,33.073
1574944720.095634,152081.000,25545,1,T0,1,100,33.068
1574944720.226430,152191.000,25563,1,T0,1,100,33.047
1574944720.357227,152301.000,25597,1,T0,1,100,33.047
1574944720.484456,152408.000,25615,1,T0,1,100,33.063
1574944720.616441,152519.000,25633,1,T0,1,100,33.084
1574944720.753183,152634.000,25652,1,T0,1,100,33.068
1574944720.887547,152747.000,25670,1,T0,1,100,33.106
1574944721.021910,152860.000,25688,1,T0,1,100,33.063
1574944721.150328,152968.000,25706,1,T0,1,100,33.095
1574944721.278746,153076.000,25724,1,T0,1,100,33.073
1574944721.416677,153192.000,25741,1,T0,1,100,33.052
1574944721.556986,153310.000,25775,1,T0,1,100,33.052
1574944721.683026,153416.000,25794,1,T0,1,100,33.079
1574944721.815606,153527.500,25815,2,T0,1,100,33.090
1574944721.948186,153639.000,25815,2,T0,1,100,33.057
1574944722.086117,153755.000,25835,1,T0,1,100,33.068
1574944722.222858,153870.000,25869,1,T0,1,100,33.073
1574944722.350087,153977.000,25886,1,T0,1,100,33.025
1574944722.479695,154086.000,25904,1,T0,1,100,33.073
1574944722.614058,154199.000,25922,1,T0,1,100,33.095
1574944722.754367,154317.000,25941,1,T0,1,100,33.041
1574944722.887541,154429.000,25959,1,T0,1,100,33.041
1574944723.014771,154536.000,25977,1,T0,1,100,33.090
1574944723.147945,154648.000,25995,1,T0,1,100,33.057
1574944723.285876,154764.000,26013,1,T0,1,100,33.095
1574944723.423806,154880.000,26030,1,T0,1,100,33.073
1574944723.552225,154988.000,26064,1,T0,1,100,33.079
1574944723.675887,155092.000,26083,1,T0,1,100,33.090
1574944723.812628,155207.000,26101,1,T0,1,100,33.090
1574944723.949370,155322.000,26119,1,T0,1,100,33.068
1574944724.074221,155427.000,26137,1,T0,1,100,33.100
1574944724.214530,155545.000,26155,1,T0,1,100,33.095
1574944724.352460,155661.000,26173,1,T0,1,100,33.063
1574944724.491580,155778.000,26190,1,T0,1,100,33.084
1574944724.618809,155885.000,26208,1,T0,1,100,33.073
1574944724.749605,155995.000,26243,1,T0,1,100,33.073
1574944724.881591,156106.000,26261,1,T0,1,100,33.084
1574944725.020711,156223.000,26279,1,T0,1,100,33.047
1574944725.156263,156337.000,26297,1,T0,1,100,33.068
1574944725.279925,156441.000,26315,1,T0,1,100,33.036
1574944725.414289,156554.000,26333,1,T0,1,100,33.090
1574944725.551030,156669.000,26351,1,T0,1,100,33.073
1574944725.684205,156781.000,26369,1,T0,1,100,33.079
1574944725.817379,156893.000,26387,1,T0,1,100,33.084
1574944725.946986,157002.000,26421,1,T0,1,100,33.041
1574944726.080161,157114.000,26439,1,T0,1,100,33.063
1574944726.215714,157228.000,26457,1,T0,1,100,33.079
1574944726.358400,157348.000,26475,1,T0,1,100,33.052
1574944726.483252,157453.000,26493,1,T0,1,100,33.106
1574944726.610481,157560.000,26511,1,T0,1,100,33.095
1574944726.748411,157676.000,26530,1,T0,1,100,33.106
1574944726.885153,157791.000,26548,1,T0,1,100,33.084
1574944727.020705,157905.000,26565,1,T0,1,100,33.073
1574944727.146746,158011.000,26600,1,T0,1,100,33.090
1574944727.275164,158119.000,26617,1,T0,1,100,33.073
1574944727.414284,158236.000,26635,1,T0,1,100,33.073
1574944727.553403,158353.000,26653,1,T0,1,100,33.063
1574944727.688956,158467.000,26671,1,T0,1,100,33.063
1574944727.828076,158584.000,26690,1,T0,1,100,33.084
1574944727.955305,158691.000,26711,1,T0,1,100,33.095
1574944728.086101,158801.000,26731,1,T0,1,100,33.095
1574944728.214519,158909.000,26749,1,T0,1,100,33.052
1574944728.347694,159021.000,26767,1,T0,1,100,33.100
1574944728.482057,159134.000,26785,1,T0,1,100,33.095
1574944728.624744,159254.000,26803,1,T0,1,100,33.063
1574944728.762675,159370.000,26821,1,T0,1,100,33.084
1574944728.898227,159484.000,26855,1,T0,1,100,33.068
1574944729.025457,159591.000,26873,1,T0,1,100,33.052
1574944729.157442,159702.000,26891,1,T0,1,100,33.052
1574944729.291806,159815.000,26909,1,T0,1,100,33.100
1574944729.429736,159931.000,26927,1,T0,1,100,33.100
1574944729.561722,160042.000,26945,1,T0,1,100,33.090
1574944729.685384,160146.000,26963,1,T0,1,100,33.095
1574944729.820936,160260.000,26982,1,T0,1,100,33.116
1574944729.956489,160374.000,27000,1,T0,1,100,33.100
1574944730.094419,160490.000,27017,1,T0,1,100,33.036
1574944730.220459,160596.000,27051,1,T0,1,100,33.057
1574944730.351256,160706.000,27069,1,T0,1,100,33.073
1574944730.485619,160819.000,27087,1,T0,1,100,33.047
1574944730.619983,160932.000,27105,1,T0,1,100,33.095
1574944730.759103,161049.000,27124,1,T0,1,100,33.079
1574944730.883954,161154.000,27142,1,T0,1,100,33.090
1574944731.018317,161267.000,27160,1,T0,1,100,33.073
1574944731.152681,161380.000,27178,1,T0,1,100,33.079
1574944731.290611,161496.000,27195,1,T0,1,100,33.073
1574944731.420218,161605.000,27229,1,T0,1,100,33.079
1574944731.546259,161711.000,27247,1,T0,1,100,33.127
1574944731.677055,161821.000,27266,1,T0,1,100,33.106
1574944731.818553,161940.000,27284,1,T0,1,100,33.106
1574944731.957673,162057.000,27302,1,T0,1,100,33.073
1574944732.089658,162168.000,27320,1,T0,1,100,33.095
1574944732.228778,162285.000,27338,1,T0,1,100,33.095
1574944732.367898,162402.000,27355,1,T0,1,100,33.084
1574944732.496316,162510.000,27373,1,T0,1,100,33.079
1574944732.627112,162620.000,27407,1,T0,1,100,33.095
1574944732.761476,162733.000,27426,1,T0,1,100,33.073
1574944732.894650,162845.000,27444,1,T0,1,100,33.079
1574944733.034959,162963.000,27462,1,T0,1,100,33.068
1574944733.160999,163069.000,27480,1,T0,1,100,33.084
1574944733.287039,163175.000,27498,1,T0,1,100,33.090
1574944733.424970,163291.000,27516,1,T0,1,100,33.057
1574944733.562900,163407.000,27534,1,T0,1,100,33.068
1574944733.694886,163518.000,27551,1,T0,1,100,33.025
1574944733.822115,163625.000,27586,1,T0,1,100,33.100
1574944733.958262,163739.500,27607,2,T0,1,100,33.090
1574944734.094409,163854.000,27607,2,T0,1,100,33.068
1574944734.231151,163969.000,27627,1,T0,1,100,33.111
1574944734.361947,164079.000,27644,1,T0,1,100,33.068
1574944734.487987,164185.000,27662,1,T0,1,100,33.041
1574944734.623540,164299.000,27696,1,T0,1,100,33.090
1574944734.762659,164416.000,27715,1,T0,1,100,33.084
1574944734.900590,164532.000,27733,1,T0,1,100,33.068
1574944735.024252,164636.000,27751,1,T0,1,100,33.106
1574944735.153859,164745.000,27769,1,T0,1,100,33.111
1574944735.288223,164858.000,27787,1,T0,1,100,33.063
1574944735.426153,164974.000,27805,1,T0,1,100,33.063
1574944735.562895,165089.000,27822,1,T0,1,100,33.084
1574944735.700826,165205.000,27857,1,T0,1,100,33.084
1574944735.826866,165311.000,27875,1,T0,1,100,33.079
1574944735.958851,165422.000,27893,1,T0,1,100,33.052
1574944736.083702,165527.000,27911,1,T0,1,100,33.052
1574944736.216877,165639.000,27929,1,T0,1,100,33.063
1574944736.353618,165754.000,27947,1,T0,1,100,33.106
1574944736.487982,165867.000,27965,1,T0,1,100,33.068
1574944736.622345,165980.000,27983,1,T0,1,100,33.100
1574944736.750764,166088.000,28001,1,T0,1,100,33.095
1574944736.880371,166197.000,28019,1,T0,1,100,33.036
1574944737.019491,166314.000,28053,1,T0,1,100,33.063
1574944737.160989,166433.000,28071,1,T0,1,100,33.079
1574944737.284651,166537.000,28089,1,T0,1,100,33.057
1574944737.413069,166645.000,28107,1,T0,1,100,33.052
1574944737.548621,166759.000,28125,1,T0,1,100,33.063
1574944737.680607,166870.000,28143,1,T0,1,100,33.052
1574944737.819726,166987.000,28162,1,T0,1,100,33.073
1574944737.946956,167094.000,28179,1,T0,1,100,33.073
1574944738.076563,167203.000,28197,1,T0,1,100,33.073
1574944738.210926,167316.000,28215,1,T0,1,100,33.063
1574944738.351235,167434.000,28249,1,T0,1,100,33.095
1574944738.483221,167545.000,28267,1,T0,1,100,33.079
1574944738.611639,167653.000,28285,1,T0,1,100,33.057
1574944738.743624,167764.000,28304,1,T0,1,100,33.073
1574944738.880366,167879.000,28322,1,T0,1,100,33.068
1574944739.018296,167995.000,28340,1,T0,1,100,33.052
1574944739.146715,168103.000,28357,1,T0,1,100,33.052
1574944739.270377,168207.000,28375,1,T0,1,100,33.047
1574944739.409497,168324.000,28393,1,T0,1,100,33.052
1574944739.548616,168441.000,28427,1,T0,1,100,33.068
1574944739.685358,168556.000,28446,1,T0,1,100,33.095
1574944739.828045,168676.000,28464,1,T0,1,100,33.047
1574944739.961219,168788.000,28482,1,T0,1,100,33.068
1574944740.100339,168905.000,28503,1,T0,1,100,33.047
1574944740.227568,169012.000,28521,1,T0,1,100,33.052
1574944740.358364,169122.000,28541,1,T0,1,100,33.063
1574944740.492728,169235.000,28559,1,T0,1,100,33.100
1574944740.634226,169354.000,28577,1,T0,1,100,33.052
1574944740.770967,169469.000,28596,1,T0,1,100,33.084
1574944740.907709,169584.000,28613,1,T0,1,100,33.057
1574944741.037316,169693.000,28631,1,T0,1,100,33.052
1574944741.164546,169800.000,28649,1,T0,1,100,33.068
1574944741.295342,169910.000,28683,1,T0,1,100,33.079
1574944741.433272,170026.000,28701,1,T0,1,100,33.084
1574944741.571203,170142.000,28719,1,T0,1,100,33.052
1574944741.694865,170246.000,28737,1,T0,1,100,33.031
1574944741.826850,170357.000,28756,1,T0,1,100,33.047
1574944741.963592,170472.000,28774,1,T0,1,100,33.047
1574944742.101523,170588.000,28792,1,T0,1,100,33.068
1574944742.234697,170700.000,28809,1,T0,1,100,33.047
1574944742.363116,170808.000,28827,1,T0,1,100,33.047
1574944742.493912,170918.000,28861,1,T0,1,100,33.041
1574944742.629464,171032.000,28879,1,T0,1,100,33.068
1574944742.768584,171149.000,28898,1,T0,1,100,33.047
1574944742.895813,171256.000,28916,1,T0,1,100,33.052
1574944743.025420,171365.000,28934,1,T0,1,100,33.036
1574944743.159784,171478.000,28952,1,T0,1,100,33.063
1574944743.296526,171593.000,28970,1,T0,1,100,33.073
1574944743.434456,171709.000,28987,1,T0,1,100,33.063
1574944743.562875,171817.000,29005,1,T0,1,100,33.047
1574944743.693671,171927.000,29040,1,T0,1,100,33.073
1574944743.820900,172034.000,29058,1,T0,1,100,32.998
1574944743.958831,172150.000,29076,1,T0,1,100,33.047
1574944744.086060,172257.000,29094,1,T0,1,100,33.047
1574944744.223991,172373.000,29112,1,T0,1,100,33.009
1574944744.361921,172489.000,29130,1,T0,1,100,33.041
1574944744.497474,172603.000,29148,1,T0,1,100,33.020
1574944744.624703,172710.000,29165,1,T0,1,100,33.009
1574944744.756688,172821.000,29184,1,T0,1,100,33.052
1574944744.891052,172934.000,29218,1,T0,1,100,33.041
1574944745.032550,173053.000,29236,1,T0,1,100,33.014
1574944745.163346,173163.000,29254,1,T0,1,100,33.031
1574944745.287008,173267.000,29272,1,T0,1,100,33.036
1574944745.423750,173382.000,29290,1,T0,1,100,33.047
1574944745.560491,173497.000,29308,1,T0,1,100,32.998
1574944745.696044,173611.000,29326,1,T0,1,100,32.998
1574944745.824462,173719.000,29344,1,T0,1,100,33.047
1574944745.955258,173829.000,29362,1,T0,1,100,33.036
1574944746.089622,173942.000,29399,2,T0,1,100,33.057
1574944746.223985,174055.000,29399,2,T0,1,100,33.009
1574944746.361916,174171.000,29417,1,T0,1,100,33.025
1574944746.486767,174276.000,29437,1,T0,1,100,32.993
1574944746.619942,174388.000,29454,1,T0,1,100,32.998
1574944746.755494,174502.000,29473,1,T0,1,100,32.993
1574944746.892236,174617.000,29507,1,T0,1,100,32.988
1574944747.024221,174728.000,29525,1,T0,1,100,33.020
1574944747.151450,174835.000,29543,1,T0,1,100,33.041
1574944747.283436,174946.000,29561,1,T0,1,100,33.036
1574944747.422555,175063.000,29579,1,T0,1,100,33.020
1574944747.562864,175181.000,29597,1,T0,1,100,33.014
1574944747.699606,175296.000,29615,1,T0,1,100,33.014
1574944747.842293,175416.000,29649,1,T0,1,100,33.009
1574944747.981413,175533.000,29667,1,T0,1,100,32.972
1574944748.108642,175640.000,29685,1,T0,1,100,32.982
1574944748.239438,175750.000,29703,1,T0,1,100,32.982
1574944748.373801,175863.000,29721,1,T0,1,100,33.031
1574944748.508165,175976.000,29739,1,T0,1,100,32.972
1574944748.650852,176096.000,29757,1,T0,1,100,33.004
1574944748.788783,176212.000,29775,1,T0,1,100,32.966
1574944748.919579,176322.000,29810,1,T0,1,100,33.025
1574944749.047997,176430.000,29827,1,T0,1,100,32.993
1574944749.181172,176542.000,29845,1,T0,1,100,32.982
1574944749.315535,176655.000,29863,1,T0,1,100,33.020
1574944749.455844,176773.000,29881,1,T0,1,100,32.993
1574944749.584262,176881.000,29899,1,T0,1,100,32.998
1574944749.709113,176986.000,29917,1,T0,1,100,33.020
1574944749.845855,177101.000,29936,1,T0,1,100,32.972
1574944749.982596,177216.000,29953,1,T0,1,100,33.004
1574944750.119338,177331.000,29971,1,T0,1,100,33.004
1574944750.244189,177436.000,30005,1,T0,1,100,33.009
1574944750.376174,177547.000,30023,1,T0,1,100,33.004
1574944750.514105,177663.000,30041,1,T0,1,100,32.982
1574944750.649658,177777.000,30059,1,T0,1,100,32.998
1574944750.781643,177888.000,30078,1,T0,1,100,32.998
1574944750.906494,177993.000,30096,1,T0,1,100,33.009
1574944751.044425,178109.000,30114,1,T0,1,100,33.020
1574944751.177599,178221.000,30132,1,T0,1,100,32.988
1574944751.316719,178338.000,30149,1,T0,1,100,32.982
1574944751.443948,178445.000,30183,1,T0,1,100,32.982
1574944751.575934,178556.000,30201,1,T0,1,100,32.977
1574944751.700785,178661.000,30220,1,T0,1,100,32.982
1574944751.836337,178775.000,30238,1,T0,1,100,32.988
1574944751.975457,178892.000,30256,1,T0,1,100,32.993
1574944752.109820,179005.000,30274,1,T0,1,100,32.972
1574944752.248940,179122.000,30293,1,T0,1,100,32.993
1574944752.388060,179239.000,30315,1,T0,1,100,33.020
1574944752.512911,179344.000,30333,1,T0,1,100,32.993
1574944752.644896,179455.000,30351,1,T0,1,100,32.966
1574944752.780449,179569.000,30370,1,T0,1,100,32.966
1574944752.914812,179682.000,30388,1,T0,1,100,32.982
1574944753.051554,179797.000,30406,1,T0,1,100,33.004
1574944753.178783,179904.000,30423,1,T0,1,100,32.961
1574944753.303634,180009.000,30441,1,T0,1,100,32.945
1574944753.441565,180125.000,30475,1,T0,1,100,32.982
1574944753.581874,180243.000,30493,1,T0,1,100,33.025
1574944753.709103,180350.000,30512,1,T0,1,100,33.031
1574944753.837521,180458.000,30530,1,T0,1,100,32.993
1574944753.974263,180573.000,30548,1,T0,1,100,32.950
1574944754.111004,180688.000,30566,1,T0,1,100,32.961
1574944754.248935,180804.000,30584,1,T0,1,100,32.961
1574944754.374975,180910.000,30601,1,T0,1,100,32.982
1574944754.503393,181018.000,30619,1,T0,1,100,32.988
1574944754.642513,181135.000,30653,1,T0,1,100,32.950
1574944754.778066,181249.000,30672,1,T0,1,100,33.031
1574944754.912429,181362.000,30690,1,T0,1,100,32.972
1574944755.037280,181467.000,30708,1,T0,1,100,32.950
1574944755.168077,181577.000,30726,1,T0,1,100,32.961
1574944755.304818,181692.000,30744,1,T0,1,100,32.998
1574944755.443938,181809.000,30762,1,T0,1,100,32.950
1574944755.574734,181919.000,30779,1,T0,1,100,32.993
1574944755.711476,182034.000,30797,1,T0,1,100,32.961
1574944755.845839,182147.000,30832,1,T0,1,100,32.977
1574944755.976636,182257.000,30850,1,T0,1,100,32.982
1574944756.101487,182362.000,30868,1,T0,1,100,32.977
1574944756.237039,182476.000,30886,1,T0,1,100,32.977
1574944756.374970,182592.000,30904,1,T0,1,100,32.993
1574944756.510523,182706.000,30922,1,T0,1,100,32.993
1574944756.650831,182824.000,30940,1,T0,1,100,33.014
1574944756.786384,182938.000,30958,1,T0,1,100,32.972
1574944756.911235,183043.000,30976,1,T0,1,100,32.977
1574944757.045599,183156.000,31010,1,T0,1,100,32.988
1574944757.181151,183270.000,31028,1,T0,1,100,32.966
1574944757.315515,183383.000,31046,1,T0,1,100,32.945
1574944757.448689,183495.000,31064,1,T0,1,100,32.934
1574944757.574729,183601.000,31082,1,T0,1,100,32.950
1574944757.705525,183711.000,31100,1,T0,1,100,33.014
1574944757.843456,183827.000,31119,1,T0,1,100,32.972
1574944757.986143,183947.000,31136,1,T0,1,100,32.950
1574944758.110994,184052.000,31154,1,T0,1,100,32.945
1574944758.238223,184159.000,31172,1,T0,1,100,32.955
1574944758.376154,184275.000,31193,1,T0,1,100,32.972
1574944758.512896,184390.000,31213,1,T0,1,100,32.998
1574944758.648448,184504.000,31230,1,T0,1,100,32.972
1574944758.774488,184610.000,31248,1,T0,1,100,32.977
1574944758.906474,184721.000,31283,1,T0,1,100,32.950
1574944759.045593,184838.000,31301,1,T0,1,100,32.950
1574944759.182335,184953.000,31319,1,T0,1,100,32.982
1574944759.311942,185062.000,31337,1,T0,1,100,32.977
1574944759.436793,185167.000,31355,1,T0,1,100,32.955
1574944759.573535,185282.000,31373,1,T0,1,100,32.982
1574944759.701953,185390.000,31391,1,T0,1,100,32.982
1574944759.838695,185505.000,31410,1,T0,1,100,32.950
1574944759.971869,185617.000,31427,1,T0,1,100,32.993
1574944760.109800,185733.000,31461,1,T0,1,100,32.950
1574944760.251298,185852.000,31479,1,T0,1,100,32.950
1574944760.380905,185961.000,31497,1,T0,1,100,32.998
1574944760.505756,186066.000,31515,1,T0,1,100,32.966
1574944760.643687,186182.000,31533,1,T0,1,100,32.977
1574944760.781617,186298.000,31552,1,T0,1,100,32.988
1574944760.917170,186412.000,31570,1,T0,1,100,32.945
1574944761.044399,186519.000,31587,1,T0,1,100,32.988
1574944761.176384,186630.000,31605,1,T0,1,100,32.993
1574944761.307181,186740.000,31639,1,T0,1,100,33.014
1574944761.445112,186856.000,31657,1,T0,1,100,32.945
1574944761.580664,186970.000,31675,1,T0,1,100,32.998
1574944761.706704,187076.000,31694,1,T0,1,100,32.982
1574944761.839879,187188.000,31712,1,T0,1,100,32.950
1574944761.978998,187305.000,31730,1,T0,1,100,32.961
1574944762.115740,187420.000,31748,1,T0,1,100,32.982
1574944762.244158,187528.000,31765,1,T0,1,100,32.939
1574944762.373765,187637.000,31783,1,T0,1,100,32.966
1574944762.506940,187749.000,31801,1,T0,1,100,32.955
1574944762.646060,187866.000,31835,1,T0,1,100,32.982
1574944762.782801,187981.000,31854,1,T0,1,100,32.955
1574944762.906463,188085.000,31872,1,T0,1,100,32.972
1574944763.038449,188196.000,31890,1,T0,1,100,32.982
1574944763.172812,188309.000,31908,1,T0,1,100,32.982
1574944763.309554,188424.000,31926,1,T0,1,100,32.961
1574944763.453430,188545.000,31944,1,T0,1,100,32.966
1574944763.588982,188659.000,31978,1,T0,1,100,32.923
1574944763.716212,188766.000,31996,1,T0,1,100,32.966
1574944763.848197,188877.000,32014,1,T0,1,100,32.961
1574944763.975426,188984.000,32032,1,T0,1,100,32.939
1574944764.103844,189092.000,32050,1,T0,1,100,32.961
1574944764.241775,189208.000,32068,1,T0,1,100,32.977
1574944764.380895,189325.000,32087,1,T0,1,100,32.939
1574944764.517636,189440.000,32109,1,T0,1,100,32.966
1574944764.657945,189558.000,32127,1,T0,1,100,32.923
1574944764.785174,189665.000,32146,1,T0,1,100,32.988
1574944764.911214,189771.000,32164,1,T0,1,100,32.982
1574944765.050334,189888.000,32182,1,T0,1,100,32.977
1574944765.188265,190004.000,32200,1,T0,1,100,32.982
1574944765.320250,190115.000,32218,1,T0,1,100,32.934
1574944765.448668,190223.000,32235,1,T0,1,100,32.972
1574944765.579465,190333.000,32270,1,T0,1,100,32.988
1574944765.713828,190446.000,32288,1,T0,1,100,32.966
1574944765.852948,190563.000,32306,1,T0,1,100,32.950
1574944765.983744,190673.000,32324,1,T0,1,100,32.939
1574944766.109784,190779.000,32342,1,T0,1,100,32.966
1574944766.245337,190893.000,32360,1,T0,1,100,32.966
1574944766.385646,191011.000,32378,1,T0,1,100,32.955
1574944766.523576,191127.000,32396,1,T0,1,100,32.982
1574944766.648427,191232.000,32413,1,T0,1,100,32.955
1574944766.779224,191342.000,32431,1,T0,1,100,32.972
1574944766.914776,191456.000,32466,1,T0,1,100,32.929
1574944767.052707,191572.000,32484,1,T0,1,100,32.939
1574944767.187071,191685.000,32502,1,T0,1,100,32.907
1574944767.310733,191789.000,32520,1,T0,1,100,32.955
1574944767.446285,191903.000,32538,1,T0,1,100,32.945
1574944767.584216,192019.000,32556,1,T0,1,100,32.961
1574944767.718579,192132.000,32574,1,T0,1,100,32.988
1574944767.861266,192252.000,32592,1,T0,1,100,32.955
1574944767.995630,192365.000,32626,1,T0,1,100,32.988
1574944768.133560,192481.000,32644,1,T0,1,100,32.934
1574944768.267924,192594.000,32662,1,T0,1,100,33.004
1574944768.396342,192702.000,32680,1,T0,1,100,32.988
1574944768.525949,192811.000,32698,1,T0,1,100,32.950
1574944768.665069,192928.000,32716,1,T0,1,100,32.950
1574944768.804189,193045.000,32735,1,T0,1,100,32.998
1574944768.929040,193150.000,32752,1,T0,1,100,32.945
1574944769.058647,193259.000,32770,1,T0,1,100,32.966
1574944769.193011,193372.000,32804,1,T0,1,100,33.009
1574944769.327374,193485.000,32822,1,T0,1,100,32.950
1574944769.466494,193602.000,32840,1,T0,1,100,32.977
1574944769.593723,193709.000,32858,1,T0,1,100,32.993
1574944769.723330,193818.000,32876,1,T0,1,100,32.939
1574944769.857694,193931.000,32895,1,T0,1,100,32.945
1574944769.998003,194049.000,32913,1,T0,1,100,32.955
1574944770.129988,194160.000,32930,1,T0,1,100,32.961
1574944770.256028,194266.000,32948,1,T0,1,100,32.988
1574944770.392770,194381.000,32985,2,T0,1,100,32.966
1574944770.529511,194496.000,32985,2,T0,1,100,33.009
1574944770.667442,194612.000,33005,1,T0,1,100,32.950
1574944770.795860,194720.000,33023,1,T0,1,100,32.972
1574944770.919522,194824.000,33041,1,T0,1,100,32.982
1574944771.058642,194941.000,33075,1,T0,1,100,32.982
1574944771.194195,195055.000,33093,1,T0,1,100,32.966
1574944771.330936,195170.000,33111,1,T0,1,100,32.961
1574944771.466489,195284.000,33129,1,T0,1,100,32.961
1574944771.593718,195391.000,33147,1,T0,1,100,32.966
1574944771.717380,195495.000,33165,1,T0,1,100,32.972
1574944771.854122,195610.000,33184,1,T0,1,100,32.961
1574944771.984918,195720.000,33202,1,T0,1,100,33.031
1574944772.118092,195832.000,33219,1,T0,1,100,32.982
1574944772.257212,195949.000,33253,1,T0,1,100,32.955
1574944772.392765,196063.000,33271,1,T0,1,100,32.977
1574944772.517616,196168.000,33289,1,T0,1,100,33.014
1574944772.653168,196282.000,33307,1,T0,1,100,32.966
1574944772.782776,196391.000,33326,1,T0,1,100,32.977
1574944772.913572,196501.000,33344,1,T0,1,100,32.993
1574944773.053881,196619.000,33362,1,T0,1,100,32.993
1574944773.191811,196735.000,33380,1,T0,1,100,32.998
1574944773.315473,196839.000,33397,1,T0,1,100,32.977
1574944773.447459,196950.000,33415,1,T0,1,100,32.961
1574944773.583011,197064.000,33449,1,T0,1,100,32.945
1574944773.716186,197176.000,33468,1,T0,1,100,32.988
1574944773.851738,197290.000,33486,1,T0,1,100,32.966
1574944773.978967,197397.000,33504,1,T0,1,100,32.961
1574944774.112142,197509.000,33522,1,T0,1,100,33.009
1574944774.247694,197623.000,33540,1,T0,1,100,32.972
1574944774.389192,197742.000,33558,1,T0,1,100,32.966
1574944774.517611,197850.000,33575,1,T0,1,100,32.982
1574944774.644840,197957.000,33593,1,T0,1,100,33.009
1574944774.781581,198072.000,33628,1,T0,1,100,32.982
1574944774.918323,198187.000,33646,1,T0,1,100,33.004
1574944775.055065,198302.000,33664,1,T0,1,100,32.966
1574944775.178727,198406.000,33682,1,T0,1,100,32.998
1574944775.307145,198514.000,33700,1,T0,1,100,33.009
1574944775.447453,198632.000,33718,1,T0,1,100,33.009
1574944775.586573,198749.000,33736,1,T0,1,100,32.993
1574944775.723315,198864.000,33753,1,T0,1,100,32.982
1574944775.862435,198981.000,33788,1,T0,1,100,32.998
1574944775.990853,199089.000,33806,1,T0,1,100,32.998
1574944776.126405,199203.000,33824,1,T0,1,100,32.988
1574944776.253635,199310.000,33842,1,T0,1,100,32.982
1574944776.385620,199421.000,33860,1,T0,1,100,33.020
1574944776.519984,199534.000,33881,1,T0,1,100,32.988
1574944776.660292,199652.000,33901,1,T0,1,100,32.972
1574944776.792278,199763.000,33920,1,T0,1,100,33.020
1574944776.915940,199867.000,33938,1,T0,1,100,32.977
1574944777.051492,199981.000,33956,1,T0,1,100,32.988
1574944777.187045,200095.000,33974,1,T0,1,100,33.004
1574944777.323786,200210.000,33992,1,T0,1,100,33.004
1574944777.452205,200318.000,34010,1,T0,1,100,33.009
1574944777.581812,200427.000,34028,1,T0,1,100,32.993
1574944777.714986,200539.000,34045,1,T0,1,100,33.009
1574944777.849350,200652.000,34080,1,T0,1,100,32.998
1574944777.987281,200768.000,34098,1,T0,1,100,32.950
1574944778.112132,200873.000,34116,1,T0,1,100,32.998
1574944778.242928,200983.000,34134,1,T0,1,100,32.998
1574944778.382048,201100.000,34152,1,T0,1,100,32.998
1574944778.518789,201215.000,34170,1,T0,1,100,32.998
1574944778.650775,201326.000,34188,1,T0,1,100,32.988
1574944778.778004,201433.000,34207,1,T0,1,100,32.972
1574944778.909989,201544.000,34224,1,T0,1,100,33.004
1574944779.049109,201661.000,34259,1,T0,1,100,32.982
1574944779.188229,201778.000,34276,1,T0,1,100,32.982
1574944779.313080,201883.000,34294,1,T0,1,100,33.014
1574944779.445065,201994.000,34312,1,T0,1,100,33.014
1574944779.569916,202099.000,34330,1,T0,1,100,32.977
1574944779.703091,202211.000,34348,1,T0,1,100,33.004
1574944779.842211,202328.000,34367,1,T0,1,100,33.014
1574944779.977763,202442.000,34385,1,T0,1,100,32.988
1574944780.112127,202555.000,34403,1,T0,1,100,33.004
1574944780.251246,202672.000,34436,1,T0,1,100,33.025
1574944780.377286,202778.000,34454,1,T0,1,100,32.988
1574944780.510461,202890.000,34472,1,T0,1,100,32.993
1574944780.638879,202998.000,34490,1,T0,1,100,32.982
1574944780.773242,203111.000,34509,1,T0,1,100,32.988
1574944780.907606,203224.000,34527,1,T0,1,100,32.982
1574944781.049104,203343.000,34545,1,T0,1,100,32.966
1574944781.177522,203451.000,34563,1,T0,1,100,33.036
1574944781.302373,203556.000,34581,1,T0,1,100,33.031
1574944781.439115,203671.000,34598,1,T0,1,100,32.945
1574944781.575856,203786.000,34632,1,T0,1,100,32.966
1574944781.710220,203899.000,34651,1,T0,1,100,33.004
1574944781.837449,204006.000,34669,1,T0,1,100,32.982
1574944781.969434,204117.000,34687,1,T0,1,100,32.982
1574944782.107365,204233.000,34705,1,T0,1,100,33.025
1574944782.242918,204347.000,34723,1,T0,1,100,33.014
1574944782.377281,204460.000,34741,1,T0,1,100,33.009
1574944782.502132,204565.000,34759,1,T0,1,100,33.031
1574944782.641252,204682.000,34779,1,T0,1,100,33.020
1574944782.775615,204795.000,34800,1,T0,1,100,32.988
1574944782.913546,204911.000,34818,1,T0,1,100,32.993
1574944783.040775,205018.000,34836,1,T0,1,100,32.988
1574944783.169194,205126.000,34854,1,T0,1,100,32.977
1574944783.301179,205237.000,34871,1,T0,1,100,32.988
1574944783.440299,205354.000,34906,1,T0,1,100,33.031
1574944783.578229,205470.000,34923,1,T0,1,100,33.025
1574944783.716160,205586.000,34942,1,T0,1,100,32.955
1574944783.856469,205704.000,34960,1,T0,1,100,33.041
1574944783.995589,205821.000,34978,1,T0,1,100,33.004
1574944784.120440,205926.000,34996,1,T0,1,100,32.998
1574944784.252425,206037.000,35014,1,T0,1,100,33.047
1574944784.387978,206151.000,35031,1,T0,1,100,32.988
1574944784.522341,206264.000,35066,1,T0,1,100,33.025
1574944784.665028,206384.000,35083,1,T0,1,100,33.009
1574944784.804148,206501.000,35102,1,T0,1,100,33.009
1574944784.931377,206608.000,35120,1,T0,1,100,33.020
1574944785.060984,206717.000,35138,1,T0,1,100,33.036
1574944785.195348,206830.000,35156,1,T0,1,100,33.036
1574944785.329711,206943.000,35174,1,T0,1,100,33.020
1574944785.468831,207060.000,35191,1,T0,1,100,33.014
1574944785.594871,207166.000,35209,1,T0,1,100,33.068
1574944785.722100,207273.000,35244,1,T0,1,100,33.031
1574944785.858842,207388.000,35262,1,T0,1,100,33.057
1574944785.999151,207506.000,35280,1,T0,1,100,33.020
1574944786.132325,207618.000,35298,1,T0,1,100,33.031
1574944786.258365,207724.000,35316,1,T0,1,100,33.020
1574944786.393918,207838.000,35334,1,T0,1,100,32.977
1574944786.531848,207954.000,35352,1,T0,1,100,33.031
1574944786.670968,208071.000,35369,1,T0,1,100,32.988
1574944786.795819,208176.000,35387,1,T0,1,100,32.998
1574944786.921859,208282.000,35406,1,T0,1,100,32.998
1574944787.062168,208400.000,35440,1,T0,1,100,33.004
1574944787.197721,208514.000,35458,1,T0,1,100,33.047
1574944787.335651,208630.000,35476,1,T0,1,100,33.025
1574944787.460502,208735.000,35494,1,T0,1,100,33.036
1574944787.594866,208848.000,35512,1,T0,1,100,33.014
1574944787.719717,208953.000,35530,1,T0,1,100,33.031
1574944787.855269,209067.000,35549,1,T0,1,100,33.020
1574944787.984877,209176.000,35566,1,T0,1,100,33.031
1574944788.121618,209291.000,35584,1,T0,1,100,33.041
1574944788.260738,209408.000,35618,1,T0,1,100,33.036
1574944788.396291,209522.000,35636,1,T0,1,100,33.031
1574944788.521142,209627.000,35654,1,T0,1,100,33.047
1574944788.656100,209740.500,35675,2,T0,1,100,32.998
1574944788.791058,209854.000,35675,2,T0,1,100,33.031
1574944788.925421,209967.000,35712,1,T0,1,100,33.014
1574944789.058596,210079.000,35730,1,T0,1,100,33.079
1574944789.185825,210186.000,35748,1,T0,1,100,33.020
1574944789.314243,210294.000,35766,1,T0,1,100,33.057
1574944789.452174,210410.000,35784,1,T0,1,100,33.041
1574944789.593672,210529.000,35802,1,T0,1,100,33.031
1574944789.718523,210634.000,35820,1,T0,1,100,33.041
1574944789.845752,210741.000,35839,1,T0,1,100,33.057
1574944789.983683,210857.000,35856,1,T0,1,100,33.041
1574944790.120424,210972.000,35890,1,T0,1,100,33.052
1574944790.255977,211086.000,35908,1,T0,1,100,33.073
1574944790.383206,211193.000,35926,1,T0,1,100,33.063
1574944790.514002,211303.000,35944,1,T0,1,100,33.052
1574944790.653122,211420.000,35962,1,T0,1,100,33.047
1574944790.789864,211535.000,35981,1,T0,1,100,33.090
1574944790.919471,211644.000,35999,1,T0,1,100,33.041
1574944791.045511,211750.000,36017,1,T0,1,100,33.041
1574944791.177496,211861.000,36034,1,T0,1,100,33.057
1574944791.314238,211976.000,36052,1,T0,1,100,33.009
1574944791.456925,212096.000,36086,1,T0,1,100,33.014
1574944791.591288,212209.000,36104,1,T0,1,100,33.036
1574944791.724463,212321.000,36122,1,T0,1,100,33.084
1574944791.860015,212435.000,36141,1,T0,1,100,33.095
1574944791.988434,212543.000,36159,1,T0,1,100,33.031
1574944792.113285,212648.000,36177,1,T0,1,100,33.090
1574944792.251215,212764.000,36195,1,T0,1,100,33.041
1574944792.390335,212881.000,36212,1,T0,1,100,33.041
1574944792.527077,212996.000,36246,1,T0,1,100,33.041
1574944792.667386,213114.000,36264,1,T0,1,100,33.063
1574944792.800560,213226.000,36283,1,T0,1,100,33.057
1574944792.924222,213330.000,36301,1,T0,1,100,33.031
1574944793.060964,213445.000,36319,1,T0,1,100,33.090
1574944793.196516,213559.000,36337,1,T0,1,100,33.100
1574944793.333258,213674.000,36355,1,T0,1,100,33.095
1574944793.461676,213782.000,36372,1,T0,1,100,33.068
1574944793.588905,213889.000,36390,1,T0,1,100,33.052
1574944793.719702,213999.000,36425,1,T0,1,100,33.079
1574944793.856443,214114.000,36443,1,T0,1,100,33.068
1574944793.995563,214231.000,36461,1,T0,1,100,33.057
1574944794.120414,214336.000,36479,1,T0,1,100,33.100
1574944794.251210,214446.000,36497,1,T0,1,100,33.095
1574944794.390330,214563.000,36515,1,T0,1,100,33.100
1574944794.527071,214678.000,36533,1,T0,1,100,33.068
1574944794.661435,214791.000,36550,1,T0,1,100,33.106
1574944794.786286,214896.000,36571,1,T0,1,100,33.095
1574944794.920650,215009.000,36592,1,T0,1,100,33.079
1574944795.059769,215126.000,36610,1,T0,1,100,33.073
1574944795.197700,215242.000,36628,1,T0,1,100,33.100
1574944795.323740,215348.000,36645,1,T0,1,100,33.106
1574944795.453347,215457.000,36663,1,T0,1,100,33.084
1574944795.592467,215574.000,36697,1,T0,1,100,33.057
1574944795.723264,215684.000,36716,1,T0,1,100,33.095
1574944795.862383,215801.000,36734,1,T0,1,100,33.079
1574944795.996747,215914.000,36752,1,T0,1,100,33.063
1574944796.133488,216029.000,36770,1,T0,1,100,33.116
1574944796.273797,216147.000,36788,1,T0,1,100,33.073
1574944796.399837,216253.000,36806,1,T0,1,100,33.090
1574944796.525877,216359.000,36823,1,T0,1,100,33.100
1574944796.664997,216476.000,36841,1,T0,1,100,33.090
1574944796.802928,216592.000,36876,1,T0,1,100,33.106
1574944796.936102,216704.000,36894,1,T0,1,100,33.111
1574944797.063331,216811.000,36912,1,T0,1,100,33.079
1574944797.196506,216923.000,36930,1,T0,1,100,33.100
1574944797.329680,217035.000,36948,1,T0,1,100,33.106
1574944797.468800,217152.000,36966,1,T0,1,100,33.116
1574944797.599596,217262.000,36984,1,T0,1,100,33.106
1574944797.724447,217367.000,37001,1,T0,1,100,33.090
1574944797.860000,217481.000,37020,1,T0,1,100,33.127
1574944797.999120,217598.000,37054,1,T0,1,100,33.079
1574944798.135861,217713.000,37072,1,T0,1,100,33.100
1574944798.260712,217818.000,37090,1,T0,1,100,33.106
1574944798.392698,217929.000,37108,1,T0,1,100,33.127
1574944798.529439,218044.000,37126,1,T0,1,100,33.116
1574944798.667370,218160.000,37144,1,T0,1,100,33.138
1574944798.801733,218273.000,37163,1,T0,1,100,33.132
1574944798.925395,218377.000,37180,1,T0,1,100,33.132
1574944799.060948,218491.000,37198,1,T0,1,100,33.127
1574944799.195312,218604.000,37232,1,T0,1,100,33.100
1574944799.332053,218719.000,37250,1,T0,1,100,33.143
1574944799.472362,218837.000,37268,1,T0,1,100,33.106
1574944799.610293,218953.000,37286,1,T0,1,100,33.106
1574944799.748223,219069.000,37304,1,T0,1,100,33.138
1574944799.877831,219178.000,37323,1,T0,1,100,33.149
1574944800.006249,219286.000,37341,1,T0,1,100,33.095
1574944800.135856,219395.000,37358,1,T0,1,100,33.106
1574944800.277354,219514.000,37392,1,T0,1,100,33.149
1574944800.412907,219628.000,37410,1,T0,1,100,33.111
1574944800.547270,219741.000,37428,1,T0,1,100,33.149
1574944800.685201,219857.000,37446,1,T0,1,100,33.159
1574944800.812430,219964.000,37468,2,T0,1,100,33.132
1574944800.939659,220071.000,37468,2,T0,1,100,33.132
1574944801.078779,220188.000,37504,1,T0,1,100,33.138
1574944801.216709,220304.000,37522,1,T0,1,100,33.106
1574944801.345128,220412.000,37540,1,T0,1,100,33.127
1574944801.473546,220520.000,37558,1,T0,1,100,33.095
1574944801.606720,220632.000,37576,1,T0,1,100,33.111
1574944801.739895,220744.000,37594,1,T0,1,100,33.149
1574944801.881393,220863.000,37613,1,T0,1,100,33.143
1574944802.009811,220971.000,37630,1,T0,1,100,33.122
1574944802.138229,221079.000,37648,1,T0,1,100,33.186
1574944802.273782,221193.000,37682,1,T0,1,100,33.143
1574944802.414090,221311.000,37700,1,T0,1,100,33.159
1574944802.548454,221424.000,37718,1,T0,1,100,33.154
1574944802.673305,221529.000,37736,1,T0,1,100,33.170
1574944802.805290,221640.000,37755,1,T0,1,100,33.154
1574944802.943221,221756.000,37773,1,T0,1,100,33.165
1574944803.081152,221872.000,37791,1,T0,1,100,33.143
1574944803.213137,221983.000,37808,1,T0,1,100,33.154
1574944803.335610,222086.000,37826,1,T0,1,100,33.154
1574944803.474730,222203.000,37860,1,T0,1,100,33.159
1574944803.612660,222319.000,37878,1,T0,1,100,33.191
1574944803.749402,222434.000,37896,1,T0,1,100,33.175
1574944803.892089,222554.000,37915,1,T0,1,100,33.181
1574944804.028831,222669.000,37933,1,T0,1,100,33.154
1574944804.165572,222784.000,37951,1,T0,1,100,33.175
1574944804.295180,222893.000,37968,1,T0,1,100,33.154
1574944804.424787,223002.000,38002,1,T0,1,100,33.170
1574944804.555583,223112.000,38020,1,T0,1,100,33.186
1574944804.695892,223230.000,38038,1,T0,1,100,33.186
1574944804.835012,223347.000,38057,1,T0,1,100,33.197
1574944804.974131,223464.000,38075,1,T0,1,100,33.138
1574944805.107306,223576.000,38093,1,T0,1,100,33.181
1574944805.233346,223682.000,38111,1,T0,1,100,33.197
1574944805.362953,223791.000,38128,1,T0,1,100,33.191
1574944805.500884,223907.000,38146,1,T0,1,100,33.181
1574944805.641193,224025.000,38180,1,T0,1,100,33.170
1574944805.766044,224130.000,38199,1,T0,1,100,33.170
1574944805.896840,224240.000,38217,1,T0,1,100,33.202
1574944806.033582,224355.000,38235,1,T0,1,100,33.213
1574944806.171512,224471.000,38253,1,T0,1,100,33.149
1574944806.307065,224585.000,38271,1,T0,1,100,33.159
1574944806.434294,224692.000,38289,1,T0,1,100,33.202
1574944806.563901,224801.000,38307,1,T0,1,100,33.202
1574944806.698265,224914.000,38324,1,T0,1,100,33.175
1574944806.833223,225027.500,38362,2,T0,1,100,33.218
1574944806.968181,225141.000,38362,2,T0,1,100,33.213
1574944807.095410,225248.000,38382,1,T0,1,100,33.202
1574944807.229774,225361.000,38400,1,T0,1,100,33.202
1574944807.367704,225477.000,38417,1,T0,1,100,33.170
1574944807.505635,225593.000,38451,1,T0,1,100,33.207
1574944807.635242,225702.000,38469,1,T0,1,100,33.191
1574944807.768417,225814.000,38488,1,T0,1,100,33.186
1574944807.896835,225922.000,38506,1,T0,1,100,33.266
1574944808.033576,226037.000,38524,1,T0,1,100,33.213
1574944808.158428,226142.000,38542,1,T0,1,100,33.240
1574944808.296358,226258.000,38560,1,T0,1,100,33.191
1574944808.434289,226374.000,38578,1,T0,1,100,33.261
1574944808.572220,226490.000,38595,1,T0,1,100,33.240
1574944808.699449,226597.000,38629,1,T0,1,100,33.207
1574944808.830245,226707.000,38648,1,T0,1,100,33.213
1574944808.962231,226818.000,38666,1,T0,1,100,33.261
1574944809.100161,226934.000,38684,1,T0,1,100,33.218
1574944809.234525,227047.000,38702,1,T0,1,100,33.250
1574944809.358187,227151.000,38720,1,T0,1,100,33.224
1574944809.492550,227264.000,38738,1,T0,1,100,33.207
1574944809.629292,227379.000,38756,1,T0,1,100,33.202
1574944809.766033,227494.000,38773,1,T0,1,100,33.191
1574944809.895641,227603.000,38792,1,T0,1,100,33.229
1574944810.025248,227712.000,38826,1,T0,1,100,33.240
1574944810.158422,227824.000,38844,1,T0,1,100,33.213
1574944810.293975,227938.000,38862,1,T0,1,100,33.218
1574944810.435473,228057.000,38880,1,T0,1,100,33.229
1574944810.560324,228162.000,38898,1,T0,1,100,33.218
1574944810.691120,228272.000,38916,1,T0,1,100,33.234
1574944810.824295,228384.000,38935,1,T0,1,100,33.256
1574944810.961036,228499.000,38952,1,T0,1,100,33.256
1574944811.095400,228612.000,38970,1,T0,1,100,33.240
1574944811.221440,228718.000,39004,1,T0,1,100,33.229
1574944811.349858,228826.000,39022,1,T0,1,100,33.229
1574944811.488978,228943.000,39040,1,T0,1,100,33.234
1574944811.628098,229060.000,39058,1,T0,1,100,33.229
1574944811.758894,229170.000,39076,1,T0,1,100,33.234
1574944811.898014,229287.000,39095,1,T0,1,100,33.218
1574944812.035944,229403.000,39113,1,T0,1,100,33.240
1574944812.165552,229512.000,39130,1,T0,1,100,33.234
1574944812.304672,229629.000,39164,1,T0,1,100,33.250
1574944812.430712,229735.000,39182,1,T0,1,100,33.250
1574944812.556752,229841.000,39200,1,T0,1,100,33.261
1574944812.695871,229958.000,39218,1,T0,1,100,33.202
1574944812.833802,230074.000,39237,1,T0,1,100,33.250
1574944812.968166,230187.000,39258,1,T0,1,100,33.256
1574944813.095395,230294.000,39278,1,T0,1,100,33.293
1574944813.226191,230404.000,39296,1,T0,1,100,33.218
1574944813.360554,230517.000,39314,1,T0,1,100,33.234
1574944813.499674,230634.000,39332,1,T0,1,100,33.272
1574944813.631660,230745.000,39350,1,T0,1,100,33.277
1574944813.754133,230848.000,39368,1,T0,1,100,33.261
1574944813.892063,230964.000,39387,1,T0,1,100,33.277
1574944814.031183,231081.000,39404,1,T0,1,100,33.250
1574944814.167925,231196.000,39422,1,T0,1,100,33.256
1574944814.292776,231301.000,39456,1,T0,1,100,33.250
1574944814.423572,231411.000,39474,1,T0,1,100,33.261
1574944814.559125,231525.000,39492,1,T0,1,100,33.256
1574944814.697055,231641.000,39510,1,T0,1,100,33.277
1574944814.832608,231755.000,39529,1,T0,1,100,33.261
1574944814.956270,231859.000,39547,1,T0,1,100,33.234
1574944815.091822,231973.000,39565,1,T0,1,100,33.261
1574944815.226186,232086.000,39583,1,T0,1,100,33.272
1574944815.362927,232201.000,39600,1,T0,1,100,33.272
1574944815.504425,232320.000,39634,1,T0,1,100,33.256
1574944815.638789,232433.000,39652,1,T0,1,100,33.304
1574944815.766018,232540.000,39671,1,T0,1,100,33.288
1574944815.895625,232649.000,39689,1,T0,1,100,33.266
1574944816.024044,232757.000,39707,1,T0,1,100,33.272
1574944816.152462,232865.000,39725,1,T0,1,100,33.256
1574944816.291581,232982.000,39743,1,T0,1,100,33.261
1574944816.431890,233100.000,39761,1,T0,1,100,33.299
1574944816.569821,233216.000,39778,1,T0,1,100,33.277
1574944816.707752,233332.000,39812,1,T0,1,100,33.283
1574944816.834981,233439.000,39831,1,T0,1,100,33.299
1574944816.963399,233547.000,39849,1,T0,1,100,33.261
1574944817.101330,233663.000,39867,1,T0,1,100,33.266
1574944817.239260,233779.000,39885,1,T0,1,100,33.325
1574944817.368868,233888.000,39903,1,T0,1,100,33.288
1574944817.497286,233996.000,39921,1,T0,1,100,33.272
1574944817.630460,234108.000,39939,1,T0,1,100,33.261
1574944817.764824,234221.000,39956,1,T0,1,100,33.261
1574944817.906322,234340.000,39991,1,T0,1,100,33.234
1574944818.034740,234448.000,40009,1,T0,1,100,33.299
1574944818.161969,234555.000,40027,1,T0,1,100,33.283
1574944818.297522,234669.000,40045,1,T0,1,100,33.309
1574944818.437830,234787.000,40063,1,T0,1,100,33.256
1574944818.573383,234901.000,40081,1,T0,1,100,33.304
1574944818.698234,235006.000,40099,1,T0,1,100,33.325
1574944818.829030,235116.000,40118,1,T0,1,100,33.325
1574944818.964583,235230.000,40135,1,T0,1,100,33.315
1574944819.102514,235346.000,40156,1,T0,1,100,33.315
1574944819.234499,235457.000,40176,1,T0,1,100,33.293
1574944819.358161,235561.000,40194,1,T0,1,100,33.325
1574944819.492525,235674.000,40212,1,T0,1,100,33.320
1574944819.622132,235783.000,40229,1,T0,1,100,33.288
1574944819.758873,235898.000,40247,1,T0,1,100,33.315
1574944819.901560,236018.000,40282,1,T0,1,100,33.288
1574944820.038302,236133.000,40300,1,T0,1,100,33.315
1574944820.175044,236248.000,40318,1,T0,1,100,33.325
1574944820.305840,236358.000,40336,1,T0,1,100,33.325
1574944820.437825,236469.000,40354,1,T0,1,100,33.347
1574944820.565054,236576.000,40372,1,T0,1,100,33.320
1574944820.697040,236687.000,40390,1,T0,1,100,33.261
1574944820.833781,236802.000,40408,1,T0,1,100,33.352
1574944820.968145,236915.000,40442,1,T0,1,100,33.336
1574944821.102509,237028.000,40460,1,T0,1,100,33.325
1574944821.228549,237134.000,40478,1,T0,1,100,33.293
1574944821.358156,237243.000,40496,1,T0,1,100,33.320
1574944821.496087,237359.000,40514,1,T0,1,100,33.325
1574944821.636395,237477.000,40532,1,T0,1,100,33.320
1574944821.761246,237582.000,40550,1,T0,1,100,33.315
1574944821.889665,237690.000,40569,1,T0,1,100,33.299
1574944822.027595,237806.000,40586,1,T0,1,100,33.342
1574944822.164337,237921.000,40604,1,T0,1,100,33.363
1574944822.301079,238036.000,40638,1,T0,1,100,33.320
1574944822.428308,238143.000,40656,1,T0,1,100,33.325
1574944822.557915,238252.000,40674,1,T0,1,100,33.309
1574944822.695846,238368.000,40692,1,T0,1,100,33.299
1574944822.831398,238482.000,40711,1,T0,1,100,33.315
1574944822.963384,238593.000,40729,1,T0,1,100,33.293
1574944823.089424,238699.000,40747,1,T0,1,100,33.288
1574944823.221409,238810.000,40765,1,T0,1,100,33.331
1574944823.358151,238925.000,40782,1,T0,1,100,33.315
1574944823.497270,239042.000,40816,1,T0,1,100,33.336
1574944823.625689,239150.000,40834,1,T0,1,100,33.320
1574944823.758863,239262.000,40853,1,T0,1,100,33.347
1574944823.894416,239376.000,40871,1,T0,1,100,33.315
1574944824.022834,239484.000,40889,1,T0,1,100,33.347
1574944824.147685,239589.000,40907,1,T0,1,100,33.293
1574944824.285616,239705.000,40925,1,T0,1,100,33.315
1574944824.423546,239821.000,40943,1,T0,1,100,33.304
1574944824.561477,239937.000,40960,1,T0,1,100,33.374
1574944824.688706,240044.000,40994,1,T0,1,100,33.320
1574944824.823070,240157.000,41013,1,T0,1,100,33.304
1574944824.950299,240264.000,41031,1,T0,1,100,33.331
1574944825.085851,240378.000,41052,2,T0,1,100,33.347
1574944825.221404,240492.000,41052,2,T0,1,100,33.325
1574944825.356956,240606.000,41088,1,T0,1,100,33.342
1574944825.486564,240715.000,41106,1,T0,1,100,33.336
1574944825.613793,240822.000,41124,1,T0,1,100,33.352
1574944825.744589,240932.000,41143,1,T0,1,100,33.320
1574944825.882520,241048.000,41161,1,T0,1,100,33.320
1574944826.021640,241165.000,41179,1,T0,1,100,33.325
1574944826.147680,241271.000,41197,1,T0,1,100,33.347
1574944826.277287,241380.000,41215,1,T0,1,100,33.342
1574944826.416407,241497.000,41233,1,T0,1,100,33.347
1574944826.553149,241612.000,41250,1,T0,1,100,33.363
1574944826.688701,241726.000,41284,1,T0,1,100,33.336
1574944826.813552,241831.000,41303,1,T0,1,100,33.331
1574944826.946727,241943.000,41321,1,T0,1,100,33.342
1574944827.085846,242060.000,41339,1,T0,1,100,33.325
1574944827.223777,242176.000,41357,1,T0,1,100,33.336
1574944827.351006,242283.000,41375,1,T0,1,100,33.325
1574944827.480613,242392.000,41393,1,T0,1,100,33.352
1574944827.619733,242509.000,41411,1,T0,1,100,33.325
1574944827.749340,242618.000,41428,1,T0,1,100,33.336
1574944827.887271,242734.000,41463,1,T0,1,100,33.352
1574944828.021635,242847.000,41481,1,T0,1,100,33.368
1574944828.158376,242962.000,41499,1,T0,1,100,33.347
1574944828.299874,243081.000,41517,1,T0,1,100,33.347
1574944828.425914,243187.000,41535,1,T0,1,100,33.352
1574944828.551954,243293.000,41553,1,T0,1,100,33.342
1574944828.689885,243409.000,41571,1,T0,1,100,33.336
1574944828.827816,243525.000,41589,1,T0,1,100,33.325
1574944828.962179,243638.000,41623,1,T0,1,100,33.347
1574944829.089408,243745.000,41641,1,T0,1,100,33.352
1574944829.222583,243857.000,41659,1,T0,1,100,33.347
1574944829.355757,243969.000,41677,1,T0,1,100,33.320
1574944829.494877,244086.000,41695,1,T0,1,100,33.320
1574944829.626862,244197.000,41713,1,T0,1,100,33.336
1574944829.750524,244301.000,41731,1,T0,1,100,33.342
1574944829.884888,244414.000,41750,1,T0,1,100,33.368
1574944830.024008,244531.000,41767,1,T0,1,100,33.347
1574944830.160749,244646.000,41801,1,T0,1,100,33.331
1574944830.286789,244752.000,41819,1,T0,1,100,33.358
1574944830.417586,244862.000,41837,1,T0,1,100,33.358
1574944830.551949,244975.000,41855,1,T0,1,100,33.368
1574944830.689880,245091.000,41873,1,T0,1,100,33.368
1574944830.825432,245205.000,41892,1,T0,1,100,33.352
1574944830.949094,245309.000,41910,1,T0,1,100,33.342
1574944831.082269,245421.000,41928,1,T0,1,100,33.347
1574944831.216632,245534.000,41949,1,T0,1,100,33.358
1574944831.353374,245649.000,41969,1,T0,1,100,33.347
1574944831.494872,245768.000,41987,1,T0,1,100,33.336
1574944831.633991,245885.000,42005,1,T0,1,100,33.342
1574944831.770733,246000.000,42023,1,T0,1,100,33.358
1574944831.913420,246120.000,42057,1,T0,1,100,33.374
1574944832.048973,246234.000,42075,1,T0,1,100,33.331
1574944832.173824,246339.000,42093,1,T0,1,100,33.336
1574944832.303431,246448.000,42111,1,T0,1,100,33.384
1574944832.438983,246562.000,42129,1,T0,1,100,33.374
1574944832.573347,246675.000,42147,1,T0,1,100,33.368
1574944832.711278,246791.000,42165,1,T0,1,100,33.374
1574944832.838507,246898.000,42184,1,T0,1,100,33.363
1574944832.966925,247006.000,42202,1,T0,1,100,33.347
1574944833.103667,247121.000,42219,1,T0,1,100,33.390
1574944833.242786,247238.000,42253,1,T0,1,100,33.352
1574944833.371205,247346.000,42271,1,T0,1,100,33.342
1574944833.498434,247453.000,42289,1,T0,1,100,33.379
1574944833.631608,247565.000,42307,1,T0,1,100,33.390
1574944833.769539,247681.000,42325,1,T0,1,100,33.342
1574944833.907470,247797.000,42344,1,T0,1,100,33.384
1574944834.037077,247906.000,42362,1,T0,1,100,33.379
1574944834.164306,248013.000,42380,1,T0,1,100,33.384
1574944834.299859,248127.000,42397,1,T0,1,100,33.379
1574944834.440167,248245.000,42431,1,T0,1,100,33.363
1574944834.575720,248359.000,42449,1,T0,1,100,33.390
1574944834.700571,248464.000,42467,1,T0,1,100,33.358
1574944834.831367,248574.000,42486,1,T0,1,100,33.358
1574944834.966920,248688.000,42504,1,T0,1,100,33.347
1574944835.104851,248804.000,42522,1,T0,1,100,33.358
1574944835.238025,248916.000,42540,1,T0,1,100,33.374
1574944835.361687,249020.000,42558,1,T0,1,100,33.368
1574944835.497240,249134.000,42575,1,T0,1,100,33.390
1574944835.630414,249246.000,42593,1,T0,1,100,33.395
1574944835.755265,249351.000,42629,1,T0,1,100,33.363
1574944835.893196,249467.000,42646,1,T0,1,100,33.379
1574944836.031126,249583.000,42664,1,T0,1,100,33.363
1574944836.165490,249696.000,42682,1,T0,1,100,33.374
1574944836.303421,249812.000,42700,1,T0,1,100,33.352
1574944836.441351,249928.000,42718,1,T0,1,100,33.401
1574944836.566202,250033.000,42736,1,T0,1,100,33.379
1574944836.698188,250144.000,42753,1,T0,1,100,33.374
1574944836.834929,250259.000,42788,1,T0,1,100,33.363
1574944836.969293,250372.000,42806,1,T0,1,100,33.358
1574944837.103656,250485.000,42824,1,T0,1,100,33.384
1574944837.231480,250592.500,42844,2,T0,1,100,33.390
1574944837.359304,250700.000,42844,2,T0,1,100,33.401
1574944837.497234,250816.000,42863,1,T0,1,100,33.390
1574944837.638732,250935.000,42899,1,T0,1,100,33.438
1574944837.767150,251043.000,42918,1,T0,1,100,33.384
1574944837.893191,251149.000,42936,1,T0,1,100,33.374
1574944838.031121,251265.000,42954,1,T0,1,100,33.390
1574944838.167863,251380.000,42972,1,T0,1,100,33.384
1574944838.304605,251495.000,42990,1,T0,1,100,33.374
1574944838.431834,251602.000,43008,1,T0,1,100,33.390
1574944838.561441,251711.000,43026,1,T0,1,100,33.401
1574944838.699372,251827.000,43043,1,T0,1,100,33.379
1574944838.834924,251941.000,43078,1,T0,1,100,33.384
1574944838.966910,252052.000,43096,1,T0,1,100,33.390
1574944839.092950,252158.000,43114,1,T0,1,100,33.406
1574944839.224935,252269.000,43132,1,T0,1,100,33.352
1574944839.361677,252384.000,43150,1,T0,1,100,33.395
1574944839.504364,252504.000,43168,1,T0,1,100,33.406
1574944839.638727,252617.000,43186,1,T0,1,100,33.411
1574944839.774280,252731.000,43203,1,T0,1,100,33.368
1574944839.909832,252845.000,43238,1,T0,1,100,33.368
1574944840.039439,252954.000,43256,1,T0,1,100,33.390
1574944840.164291,253059.000,43274,1,T0,1,100,33.395
1574944840.303410,253176.000,43292,1,T0,1,100,33.358
1574944840.435396,253287.000,43310,1,T0,1,100,33.390
1574944840.568570,253399.000,43328,1,T0,1,100,33.374
1574944840.708879,253517.000,43346,1,T0,1,100,33.384
1574944840.843242,253630.000,43364,1,T0,1,100,33.384
1574944840.968093,253735.000,43382,1,T0,1,100,33.395
1574944841.103646,253849.000,43400,1,T0,1,100,33.411
1574944841.239199,253963.000,43434,1,T0,1,100,33.422
1574944841.373562,254076.000,43452,1,T0,1,100,33.374
1574944841.504359,254186.000,43470,1,T0,1,100,33.352
1574944841.633966,254295.000,43488,1,T0,1,100,33.384
1574944841.762384,254403.000,43506,1,T0,1,100,33.427
1574944841.900315,254519.000,43525,1,T0,1,100,33.401
1574944842.040623,254637.000,43543,1,T0,1,100,33.390
1574944842.165474,254742.000,43560,1,T0,1,100,33.411
1574944842.295082,254851.000,43578,1,T0,1,100,33.401
1574944842.434201,254968.000,43612,1,T0,1,100,33.417
1574944842.570943,255083.000,43630,1,T0,1,100,33.417
1574944842.704118,255195.000,43648,1,T0,1,100,33.374
1574944842.831347,255302.000,43667,1,T0,1,100,33.406
1574944842.959765,255410.000,43685,1,T0,1,100,33.411
1574944843.098885,255527.000,43703,1,T0,1,100,33.438
1574944843.236815,255643.000,43721,1,T0,1,100,33.449
1574944843.364044,255750.000,43741,1,T0,1,100,33.401
1574944843.498408,255863.000,43761,1,T0,1,100,33.401
1574944843.622070,255967.000,43779,1,T0,1,100,33.422
1574944843.752866,256077.000,43797,1,T0,1,100,33.395
1574944843.889608,256192.000,43816,1,T0,1,100,33.379
1574944844.025161,256306.000,43834,1,T0,1,100,33.422
1574944844.158335,256418.000,43851,1,T0,1,100,33.406
1574944844.299833,256537.000,43885,1,T0,1,100,33.411
1574944844.428251,256645.000,43903,1,T0,1,100,33.395
1574944844.563804,256759.000,43921,1,T0,1,100,33.411
1574944844.692222,256867.000,43939,1,T0,1,100,33.401
1574944844.824207,256978.000,43958,1,T0,1,100,33.406
1574944844.958571,257091.000,43976,1,T0,1,100,33.401
1574944845.100069,257210.000,43994,1,T0,1,100,33.401
1574944845.229676,257319.000,44012,1,T0,1,100,33.395
1574944845.354527,257424.000,44029,1,T0,1,100,33.395
1574944845.491269,257539.000,44047,1,T0,1,100,33.427
1574944845.628010,257654.000,44081,1,T0,1,100,33.422
1574944845.763563,257768.000,44100,1,T0,1,100,33.411
1574944845.890792,257875.000,44118,1,T0,1,100,33.454
1574944846.022777,257986.000,44136,1,T0,1,100,33.422
1574944846.159519,258101.000,44154,1,T0,1,100,33.417
1574944846.295071,258215.000,44172,1,T0,1,100,33.384
1574944846.431813,258330.000,44190,1,T0,1,100,33.417
1574944846.556664,258435.000,44207,1,T0,1,100,33.401
1574944846.692217,258549.000,44225,1,T0,1,100,33.422
1574944846.828958,258664.000,44260,1,T0,1,100,33.417
1574944846.966889,258780.000,44278,1,T0,1,100,33.470
1574944847.096496,258889.000,44296,1,T0,1,100,33.449
1574944847.223725,258996.000,44314,1,T0,1,100,33.449
1574944847.355711,259107.000,44332,1,T0,1,100,33.406
1574944847.494831,259224.000,44350,1,T0,1,100,33.427
1574944847.635139,259342.000,44368,1,T0,1,100,33.401
1574944847.771881,259457.000,44385,1,T0,1,100,33.427
1574944847.914568,259577.000,44420,1,T0,1,100,33.417
1574944848.054877,259695.000,44438,1,T0,1,100,33.427
1574944848.180917,259801.000,44456,1,T0,1,100,33.454
1574944848.310524,259910.000,44474,1,T0,1,100,33.443
1574944848.446077,260024.000,44492,1,T0,1,100,33.460
1574944848.580440,260137.000,44510,1,T0,1,100,33.427
1574944848.723127,260257.000,44528,1,T0,1,100,33.438
1574944848.861058,260373.000,44562,1,T0,1,100,33.390
1574944848.990665,260482.000,44580,1,T0,1,100,33.470
1574944849.120272,260591.000,44598,1,T0,1,100,33.422
1574944849.253447,260703.000,44616,1,T0,1,100,33.422
1574944849.390783,260818.500,44637,2,T0,1,100,33.470
1574944849.528119,260934.000,44637,2,T0,1,100,33.427
1574944849.654159,261040.000,44673,1,T0,1,100,33.438
1574944849.780199,261146.000,44692,1,T0,1,100,33.443
1574944849.916941,261261.000,44710,1,T0,1,100,33.427
1574944850.057250,261379.000,44728,1,T0,1,100,33.443
1574944850.191613,261492.000,44746,1,T0,1,100,33.449
1574944850.316464,261597.000,44764,1,T0,1,100,33.438
1574944850.450828,261710.000,44782,1,T0,1,100,33.427
1574944850.588758,261826.000,44800,1,T0,1,100,33.443
1574944850.725500,261941.000,44817,1,T0,1,100,33.427
1574944850.855107,262050.000,44852,1,T0,1,100,33.454
1574944850.978769,262154.000,44870,1,T0,1,100,33.454
1574944851.117889,262271.000,44888,1,T0,1,100,33.438
1574944851.252253,262384.000,44906,1,T0,1,100,33.486
1574944851.390183,262500.000,44924,1,T0,1,100,33.454
1574944851.516223,262606.000,44942,1,T0,1,100,33.481
1574944851.649398,262718.000,44960,1,T0,1,100,33.443
1574944851.774249,262823.000,44978,1,T0,1,100,33.449
1574944851.908612,262936.000,44997,1,T0,1,100,33.427
1574944852.037030,263044.000,45014,1,T0,1,100,33.454
1574944852.171394,263157.000,45032,1,T0,1,100,33.449
1574944852.310514,263274.000,45066,1,T0,1,100,33.465
1574944852.448444,263390.000,45084,1,T0,1,100,33.443
1574944852.573295,263495.000,45102,1,T0,1,100,33.417
1574944852.705281,263606.000,45120,1,T0,1,100,33.519
1574944852.842022,263721.000,45139,1,T0,1,100,33.460
1574944852.976386,263834.000,45157,1,T0,1,100,33.443
1574944853.111938,263948.000,45174,1,T0,1,100,33.438
1574944853.239168,264055.000,45192,1,T0,1,100,33.422
1574944853.366397,264162.000,45210,1,T0,1,100,33.449
1574944853.504328,264278.000,45244,1,T0,1,100,33.443
1574944853.645825,264397.000,45262,1,T0,1,100,33.449
1574944853.773055,264504.000,45280,1,T0,1,100,33.443
1574944853.900284,264611.000,45299,1,T0,1,100,33.476
1574944854.038214,264727.000,45317,1,T0,1,100,33.460
1574944854.174956,264842.000,45335,1,T0,1,100,33.502
1574944854.311698,264957.000,45353,1,T0,1,100,33.476
1574944854.437738,265063.000,45370,1,T0,1,100,33.449
1574944854.567345,265172.000,45388,1,T0,1,100,33.438
1574944854.706465,265289.000,45422,1,T0,1,100,33.417
1574944854.842017,265403.000,45441,1,T0,1,100,33.454
1574944854.974003,265514.000,45459,1,T0,1,100,33.460
1574944855.100043,265620.000,45477,1,T0,1,100,33.470
1574944855.230839,265730.000,45495,1,T0,1,100,33.481
1574944855.367581,265845.000,45513,1,T0,1,100,33.497
1574944855.510268,265965.000,45534,1,T0,1,100,33.449
1574944855.649387,266082.000,45554,1,T0,1,100,33.502
1574944855.786129,266197.000,45572,1,T0,1,100,33.454
1574944855.925249,266314.000,45591,1,T0,1,100,33.481
1574944856.056045,266424.000,45609,1,T0,1,100,33.454
1574944856.192787,266539.000,45626,1,T0,1,100,33.454
1574944856.320016,266646.000,45644,1,T0,1,100,33.433
1574944856.450812,266756.000,45678,1,T0,1,100,33.470
1574944856.583987,266868.000,45696,1,T0,1,100,33.481
1574944856.724295,266986.000,45714,1,T0,1,100,33.481
1574944856.859848,267100.000,45733,1,T0,1,100,33.460
1574944856.984699,267205.000,45751,1,T0,1,100,33.454
1574944857.120252,267319.000,45769,1,T0,1,100,33.433
1574944857.255804,267433.000,45787,1,T0,1,100,33.486
1574944857.390168,267546.000,45804,1,T0,1,100,33.476
1574944857.520964,267656.000,45822,1,T0,1,100,33.460
1574944857.649382,267764.000,45856,1,T0,1,100,33.502
1574944857.777801,267872.000,45875,1,T0,1,100,33.460
1574944857.915731,267988.000,45893,1,T0,1,100,33.460
1574944858.057229,268107.000,45911,1,T0,1,100,33.481
1574944858.182080,268212.000,45929,1,T0,1,100,33.476
1574944858.310498,268320.000,45947,1,T0,1,100,33.476
1574944858.449618,268437.000,45965,1,T0,1,100,33.492
1574944858.586360,268552.000,45983,1,T0,1,100,33.497
1574944858.719534,268664.000,46000,1,T0,1,100,33.465
1574944858.845574,268770.000,46018,1,T0,1,100,33.449
1574944858.973992,268878.000,46053,1,T0,1,100,33.497
1574944859.113112,268995.000,46071,1,T0,1,100,33.465
1574944859.251043,269111.000,46089,1,T0,1,100,33.481
1574944859.379461,269219.000,46107,1,T0,1,100,33.508
1574944859.509068,269328.000,46125,1,T0,1,100,33.465
1574944859.648188,269445.000,46143,1,T0,1,100,33.449
1574944859.776606,269553.000,46161,1,T0,1,100,33.481
1574944859.913348,269668.000,46179,1,T0,1,100,33.481
1574944860.050090,269783.000,46213,1,T0,1,100,33.508
1574944860.184453,269896.000,46231,1,T0,1,100,33.497
1574944860.325951,270015.000,46249,1,T0,1,100,33.486
1574944860.454369,270123.000,46267,1,T0,1,100,33.492
1574944860.591111,270238.000,46285,1,T0,1,100,33.465
1574944860.718340,270345.000,46303,1,T0,1,100,33.492
1574944860.850325,270456.000,46322,1,T0,1,100,33.497
1574944860.984689,270569.000,46340,1,T0,1,100,33.486
1574944861.126187,270688.000,46357,1,T0,1,100,33.449
1574944861.255794,270797.000,46391,1,T0,1,100,33.465
1574944861.379456,270901.000,46409,1,T0,1,100,33.497
1574944861.515603,271015.500,46430,2,T0,1,100,33.470
1574944861.651750,271130.000,46430,2,T0,1,100,33.492
1574944861.788492,271245.000,46450,1,T0,1,100,33.508
1574944861.915721,271352.000,46469,1,T0,1,100,33.486
1574944862.047706,271463.000,46503,1,T0,1,100,33.460
1574944862.184448,271578.000,46521,1,T0,1,100,33.492
1574944862.320000,271692.000,46539,1,T0,1,100,33.470
1574944862.456742,271807.000,46557,1,T0,1,100,33.470
1574944862.581593,271912.000,46575,1,T0,1,100,33.476
1574944862.712389,272022.000,46593,1,T0,1,100,33.481
1574944862.850320,272138.000,46612,1,T0,1,100,33.465
1574944862.988251,272254.000,46629,1,T0,1,100,33.481
1574944863.116669,272362.000,46647,1,T0,1,100,33.481
1574944863.243898,272469.000,46681,1,T0,1,100,33.481
1574944863.375884,272580.000,46699,1,T0,1,100,33.470
1574944863.515003,272697.000,46717,1,T0,1,100,33.486
1574944863.655312,272815.000,46735,1,T0,1,100,33.481
1574944863.792054,272930.000,46753,1,T0,1,100,33.502
1574944863.925228,273042.000,46772,1,T0,1,100,33.486
1574944864.054836,273151.000,46790,1,T0,1,100,33.476
1574944864.180876,273257.000,46807,1,T0,1,100,33.460
1574944864.310483,273366.000,46825,1,T0,1,100,33.460
1574944864.446035,273480.000,46859,1,T0,1,100,33.449
1574944864.580399,273593.000,46877,1,T0,1,100,33.481
1574944864.719519,273710.000,46895,1,T0,1,100,33.486
1574944864.846748,273817.000,46914,1,T0,1,100,33.454
1574944864.973977,273924.000,46932,1,T0,1,100,33.508
1574944865.110718,274039.000,46950,1,T0,1,100,33.476
1574944865.248649,274155.000,46968,1,T0,1,100,33.449
1574944865.379446,274265.000,46985,1,T0,1,100,33.454
1574944865.506675,274372.000,47003,1,T0,1,100,33.476
1574944865.639849,274484.000,47038,1,T0,1,100,33.465
1574944865.773024,274596.000,47056,1,T0,1,100,33.497
1574944865.913332,274714.000,47074,1,T0,1,100,33.502
1574944866.042940,274823.000,47092,1,T0,1,100,33.460
1574944866.170169,274930.000,47110,1,T0,1,100,33.508
1574944866.305722,275044.000,47128,1,T0,1,100,33.502
1574944866.446030,275162.000,47146,1,T0,1,100,33.465
1574944866.582772,275277.000,47164,1,T0,1,100,33.481
1574944866.707623,275382.000,47181,1,T0,1,100,33.486
1574944866.837230,275491.000,47199,1,T0,1,100,33.465
1574944866.971594,275604.000,47234,1,T0,1,100,33.492
1574944867.109524,275720.000,47252,1,T0,1,100,33.497
1574944867.242699,275832.000,47270,1,T0,1,100,33.470
1574944867.366361,275936.000,47288,1,T0,1,100,33.465
1574944867.504292,276052.000,47306,1,T0,1,100,33.497
1574944867.642222,276168.000,47327,1,T0,1,100,33.486
1574944867.776586,276281.000,47348,1,T0,1,100,33.524
1574944867.918084,276400.000,47366,1,T0,1,100,33.476
1574944868.056014,276516.000,47384,1,T0,1,100,33.497
1574944868.191567,276630.000,47402,1,T0,1,100,33.486
1574944868.323552,276741.000,47420,1,T0,1,100,33.508
1574944868.451970,276849.000,47437,1,T0,1,100,33.476
1574944868.582767,276959.000,47455,1,T0,1,100,33.465
1574944868.721886,277076.000,47489,1,T0,1,100,33.502
1574944868.861006,277193.000,47508,1,T0,1,100,33.476
1574944868.998937,277309.000,47526,1,T0,1,100,33.470
1574944869.134490,277423.000,47544,1,T0,1,100,33.433
1574944869.260530,277529.000,47562,1,T0,1,100,33.465
1574944869.388948,277637.000,47580,1,T0,1,100,33.465
1574944869.526878,277753.000,47598,1,T0,1,100,33.497
1574944869.667187,277871.000,47615,1,T0,1,100,33.492
1574944869.794416,277978.000,47650,1,T0,1,100,33.492
1574944869.925213,278088.000,47668,1,T0,1,100,33.519
1574944870.060765,278202.000,47686,1,T0,1,100,33.486
1574944870.198696,278318.000,47704,1,T0,1,100,33.519
1574944870.335438,278433.000,47722,1,T0,1,100,33.476
1574944870.461478,278539.000,47740,1,T0,1,100,33.486
1574944870.589896,278647.000,47758,1,T0,1,100,33.486
1574944870.725449,278761.000,47776,1,T0,1,100,33.476
1574944870.864568,278878.000,47793,1,T0,1,100,33.502
1574944870.996554,278989.000,47828,1,T0,1,100,33.433
1574944871.122594,279095.000,47846,1,T0,1,100,33.529
1574944871.254579,279206.000,47864,1,T0,1,100,33.470
1574944871.392510,279322.000,47882,1,T0,1,100,33.465
1574944871.530441,279438.000,47900,1,T0,1,100,33.508
1574944871.661237,279548.000,47918,1,T0,1,100,33.486
1574944871.796789,279662.000,47936,1,T0,1,100,33.481
1574944871.922829,279768.000,47955,1,T0,1,100,33.486
1574944872.058382,279882.000,47972,1,T0,1,100,33.486
1574944872.182044,279986.000,47990,1,T0,1,100,33.492
1574944872.318786,280101.000,48024,1,T0,1,100,33.508
1574944872.455527,280216.000,48042,1,T0,1,100,33.481
1574944872.594647,280333.000,48060,1,T0,1,100,33.492
1574944872.723065,280441.000,48078,1,T0,1,100,33.460
1574944872.853862,280551.000,48097,1,T0,1,100,33.529
