EpochTimestamp,EmotiBitTimestamp,PacketNumber,DataLength,TypeTag,ProtocolVersion,DataReliability,EA
1576863843.733826,41339.000,6803,3,EA,1,100,0.592789
1576863843.733826,41339.000,6803,3,EA,1,100,0.593005
1576863843.733826,41339.000,6803,3,EA,1,100,0.593204
1576863843.797890,41393.000,6821,2,EA,1,100,0.593806
1576863843.861955,41447.000,6821,2,EA,1,100,0.593283
1576863843.930171,41504.500,6837,2,EA,1,100,0.592083
1576863843.998388,41562.000,6837,2,EA,1,100,0.592021
1576863844.066012,41619.000,6855,1,EA,1,100,0.591880
1576863844.135415,41677.500,6873,2,EA,1,100,0.591060
1576863844.204818,41736.000,6873,2,EA,1,100,0.590825
1576863844.270662,41791.500,6892,2,EA,1,100,0.591709
1576863844.336506,41847.000,6892,2,EA,1,100,0.592962
1576863844.399977,41900.500,6910,2,EA,1,100,0.593726
1576863844.463448,41954.000,6910,2,EA,1,100,0.594571
1576863844.529885,42010.000,6928,2,EA,1,100,0.594120
1576863844.596322,42066.000,6928,2,EA,1,100,0.593776
1576863844.662759,42122.000,6946,1,EA,1,100,0.594170
1576863844.732162,42180.500,6963,2,EA,1,100,0.594326
1576863844.801565,42239.000,6963,2,EA,1,100,0.594732
1576863844.869189,42296.000,6981,2,EA,1,100,0.594961
1576863844.936812,42353.000,6981,2,EA,1,100,0.594967
1576863844.999690,42406.000,6997,2,EA,1,100,0.595007
1576863845.062568,42459.000,6997,2,EA,1,100,0.595033
1576863845.128412,42514.500,7015,2,EA,1,100,0.595059
1576863845.194256,42570.000,7015,2,EA,1,100,0.595270
1576863845.259507,42625.000,7034,1,EA,1,100,0.595333
1576863845.328910,42683.500,7052,2,EA,1,100,0.595215
1576863845.398313,42742.000,7052,2,EA,1,100,0.595186
1576863845.466529,42799.500,7070,2,EA,1,100,0.595395
1576863845.534746,42857.000,7070,2,EA,1,100,0.595557
1576863845.599997,42912.000,7088,2,EA,1,100,0.595370
1576863845.665247,42967.000,7088,2,EA,1,100,0.595599
1576863845.729312,43021.000,7106,2,EA,1,100,0.595768
1576863845.793376,43075.000,7106,2,EA,1,100,0.595812
1576863845.861000,43132.000,7124,1,EA,1,100,0.595822
1576863845.929216,43189.500,7141,2,EA,1,100,0.595687
1576863845.997433,43247.000,7141,2,EA,1,100,0.595890
1576863846.065056,43304.000,7159,2,EA,1,100,0.595774
1576863846.132680,43361.000,7159,2,EA,1,100,0.596079
1576863846.197931,43416.000,7175,2,EA,1,100,0.596351
1576863846.263181,43471.000,7175,2,EA,1,100,0.596745
1576863846.326652,43524.500,7194,2,EA,1,100,0.597462
1576863846.390124,43578.000,7194,2,EA,1,100,0.597717
1576863846.460120,43637.000,7212,1,EA,1,100,0.596494
1576863846.530116,43696.000,7230,2,EA,1,100,0.596116
1576863846.600112,43755.000,7230,2,EA,1,100,0.594674
1576863846.666549,43811.000,7248,2,EA,1,100,0.593721
1576863846.732986,43867.000,7248,2,EA,1,100,0.594030
1576863846.799423,43923.000,7266,2,EA,1,100,0.594897
1576863846.865861,43979.000,7266,2,EA,1,100,0.595521
1576863846.929925,44033.000,7284,2,EA,1,100,0.593604
1576863846.993989,44087.000,7284,2,EA,1,100,0.595157
1576863847.059240,44142.000,7302,1,EA,1,100,0.595014
1576863847.129236,44201.000,7319,2,EA,1,100,0.595942
1576863847.199232,44260.000,7319,2,EA,1,100,0.598846
1576863847.266263,44316.500,7338,2,EA,1,100,0.599474
1576863847.333293,44373.000,7338,2,EA,1,100,0.595583
1576863847.399730,44429.000,7354,2,EA,1,100,0.595534
1576863847.466167,44485.000,7354,2,EA,1,100,0.595208
1576863847.528452,44537.500,7372,2,EA,1,100,0.593718
1576863847.590737,44590.000,7372,2,EA,1,100,0.591626
1576863847.654801,44644.000,7390,1,EA,1,100,0.590102
1576863847.724204,44702.500,7408,2,EA,1,100,0.589164
1576863847.793607,44761.000,7408,2,EA,1,100,0.588060
1576863847.861231,44818.000,7426,2,EA,1,100,0.586691
1576863847.928854,44875.000,7426,2,EA,1,100,0.585854
1576863847.997664,44933.000,7444,2,EA,1,100,0.584827
1576863848.066474,44991.000,7444,2,EA,1,100,0.584545
1576863848.129945,45044.500,7462,2,EA,1,100,0.584587
1576863848.193416,45098.000,7462,2,EA,1,100,0.584015
1576863848.256294,45151.000,7481,1,EA,1,100,0.583635
1576863848.323917,45208.000,7498,2,EA,1,100,0.583410
1576863848.391541,45265.000,7498,2,EA,1,100,0.581665
1576863848.460351,45323.000,7516,2,EA,1,100,0.579259
1576863848.529161,45381.000,7516,2,EA,1,100,0.579723
1576863848.599157,45440.000,7532,2,EA,1,100,0.579745
1576863848.669153,45499.000,7532,2,EA,1,100,0.579202
1576863848.730845,45551.000,7550,1,EA,1,100,0.579072
1576863848.794316,45604.500,7568,2,EA,1,100,0.578597
1576863848.857787,45658.000,7568,2,EA,1,100,0.578830
1576863848.923038,45713.000,7586,2,EA,1,100,0.577937
1576863848.988288,45768.000,7586,2,EA,1,100,0.577874
1576863849.055912,45825.000,7604,2,EA,1,100,0.578503
1576863849.123535,45882.000,7604,2,EA,1,100,0.577979
1576863849.192345,45940.000,7622,2,EA,1,100,0.577623
1576863849.261155,45998.000,7622,2,EA,1,100,0.578388
1576863849.325813,46052.500,7641,2,EA,1,100,0.578499
1576863849.390470,46107.000,7641,2,EA,1,100,0.576622
1576863849.455721,46162.000,7659,1,EA,1,100,0.577112
1576863849.522158,46218.000,7676,2,EA,1,100,0.576971
1576863849.588595,46274.000,7676,2,EA,1,100,0.576230
1576863849.657009,46331.667,7697,3,EA,1,100,0.575856
1576863849.725424,46389.333,7697,3,EA,1,100,0.577802
1576863849.793838,46447.000,7697,3,EA,1,100,0.578833
1576863849.860868,46503.500,7717,2,EA,1,100,0.580002
1576863849.927899,46560.000,7717,2,EA,1,100,0.581453
1576863849.991370,46613.500,7735,2,EA,1,100,0.582405
1576863850.054841,46667.000,7735,2,EA,1,100,0.583182
1576863850.117719,46720.000,7753,1,EA,1,100,0.583076
1576863850.185936,46777.500,7771,2,EA,1,100,0.582589
1576863850.254152,46835.000,7771,2,EA,1,100,0.582211
1576863850.323555,46893.500,7789,2,EA,1,100,0.582309
1576863850.392958,46952.000,7789,2,EA,1,100,0.582374
1576863850.459989,47008.500,7807,2,EA,1,100,0.582676
1576863850.527019,47065.000,7807,2,EA,1,100,0.582746
1576863850.590490,47118.500,7823,2,EA,1,100,0.582601
1576863850.653961,47172.000,7823,2,EA,1,100,0.583008
1576863850.715653,47224.000,7841,1,EA,1,100,0.583073
1576863850.782090,47280.000,7859,2,EA,1,100,0.583446
1576863850.848527,47336.000,7859,2,EA,1,100,0.583918
1576863850.918523,47395.000,7877,2,EA,1,100,0.584434
1576863850.988519,47454.000,7877,2,EA,1,100,0.584741
1576863851.056736,47511.500,7895,2,EA,1,100,0.585121
1576863851.124953,47569.000,7895,2,EA,1,100,0.585358
1576863851.197322,47630.000,7913,1,EA,1,100,0.585305
1576863851.265538,47687.500,7932,2,EA,1,100,0.585582
1576863851.333755,47745.000,7932,2,EA,1,100,0.585813
1576863851.399599,47800.500,7949,2,EA,1,100,0.585729
1576863851.465443,47856.000,7949,2,EA,1,100,0.585805
1576863851.529507,47910.000,7967,2,EA,1,100,0.586060
1576863851.593572,47964.000,7967,2,EA,1,100,0.585955
1576863851.660009,48020.000,7984,2,EA,1,100,0.585834
1576863851.726446,48076.000,7984,2,EA,1,100,0.586148
1576863851.796442,48135.000,8001,1,EA,1,100,0.586423
1576863851.864659,48192.500,8019,2,EA,1,100,0.586369
1576863851.932875,48250.000,8019,2,EA,1,100,0.586643
1576863852.000499,48307.000,8037,2,EA,1,100,0.586840
1576863852.068122,48364.000,8037,2,EA,1,100,0.586825
1576863852.130407,48416.500,8055,2,EA,1,100,0.586819
1576863852.192692,48469.000,8055,2,EA,1,100,0.587129
1576863852.259129,48525.000,8074,2,EA,1,100,0.587129
1576863852.325566,48581.000,8074,2,EA,1,100,0.587108
1576863852.393189,48638.000,8092,1,EA,1,100,0.586799
1576863852.460813,48695.000,8110,2,EA,1,100,0.586987
1576863852.528436,48752.000,8110,2,EA,1,100,0.587068
1576863852.596060,48809.000,8127,2,EA,1,100,0.586902
1576863852.663683,48866.000,8127,2,EA,1,100,0.586877
1576863852.727154,48919.500,8145,2,EA,1,100,0.587304
1576863852.790626,48973.000,8145,2,EA,1,100,0.587475
1576863852.855876,49028.000,8163,2,EA,1,100,0.587622
1576863852.921127,49083.000,8163,2,EA,1,100,0.587724
1576863852.991123,49142.000,8179,1,EA,1,100,0.588004
1576863853.058154,49198.500,8197,2,EA,1,100,0.588752
1576863853.125184,49255.000,8197,2,EA,1,100,0.587835
1576863853.193994,49313.000,8215,2,EA,1,100,0.587588
1576863853.262804,49371.000,8215,2,EA,1,100,0.587558
1576863853.326275,49424.500,8234,2,EA,1,100,0.587390
1576863853.389746,49478.000,8234,2,EA,1,100,0.587704
1576863853.453217,49531.500,8252,2,EA,1,100,0.588131
1576863853.516688,49585.000,8252,2,EA,1,100,0.587798
1576863853.584312,49642.000,8270,2,EA,1,100,0.587764
1576863853.651935,49699.000,8270,2,EA,1,100,0.587970
1576863853.719558,49756.000,8288,1,EA,1,100,0.587820
1576863853.788962,49814.500,8305,2,EA,1,100,0.587645
1576863853.858365,49873.000,8305,2,EA,1,100,0.587915
1576863853.921836,49926.500,8323,2,EA,1,100,0.589189
1576863853.985307,49980.000,8323,2,EA,1,100,0.588830
1576863854.048185,50033.000,8341,2,EA,1,100,0.587431
1576863854.111063,50086.000,8341,2,EA,1,100,0.587680
1576863854.179280,50143.500,8357,2,EA,1,100,0.587790
1576863854.247496,50201.000,8357,2,EA,1,100,0.587642
1576863854.318679,50261.000,8376,1,EA,1,100,0.587531
1576863854.386895,50318.500,8394,2,EA,1,100,0.587734
1576863854.455112,50376.000,8394,2,EA,1,100,0.587352
1576863854.525702,50435.500,8412,2,EA,1,100,0.586876
1576863854.596291,50495.000,8412,2,EA,1,100,0.587391
1576863854.664508,50552.500,8430,2,EA,1,100,0.587580
1576863854.732724,50610.000,8430,2,EA,1,100,0.586149
1576863854.801534,50668.000,8448,1,EA,1,100,0.587685
1576863854.869751,50725.500,8465,2,EA,1,100,0.586544
1576863854.937967,50783.000,8465,2,EA,1,100,0.586055
1576863855.000845,50836.000,8483,2,EA,1,100,0.580785
1576863855.063723,50889.000,8483,2,EA,1,100,0.568416
1576863855.130754,50945.500,8499,2,EA,1,100,0.575099
1576863855.197784,51002.000,8499,2,EA,1,100,0.594631
1576863855.260069,51054.500,8518,2,EA,1,100,0.607617
1576863855.322353,51107.000,8518,2,EA,1,100,0.592588
1576863855.388791,51163.000,8536,2,EA,1,100,0.584955
1576863855.455228,51219.000,8536,2,EA,1,100,0.587511
1576863855.525224,51278.000,8554,1,EA,1,100,0.586957
1576863855.594627,51336.500,8572,2,EA,1,100,0.586296
1576863855.664030,51395.000,8572,2,EA,1,100,0.586124
1576863855.729281,51450.000,8593,3,EA,1,100,0.585440
1576863855.794531,51505.000,8593,3,EA,1,100,0.585766
1576863855.859782,51560.000,8593,3,EA,1,100,0.586613
1576863855.923846,51614.000,8613,2,EA,1,100,0.586505
1576863855.987911,51668.000,8613,2,EA,1,100,0.586071
1576863856.054348,51724.000,8631,2,EA,1,100,0.586996
1576863856.120785,51780.000,8631,2,EA,1,100,0.585939
1576863856.189595,51838.000,8649,1,EA,1,100,0.585629
1576863856.257812,51895.500,8668,2,EA,1,100,0.585512
1576863856.326028,51953.000,8668,2,EA,1,100,0.586727
1576863856.391872,52008.500,8686,2,EA,1,100,0.587928
1576863856.457716,52064.000,8686,2,EA,1,100,0.589190
1576863856.522373,52118.500,8704,2,EA,1,100,0.590590
1576863856.587031,52173.000,8704,2,EA,1,100,0.590239
1576863856.653468,52229.000,8722,2,EA,1,100,0.589882
1576863856.719905,52285.000,8722,2,EA,1,100,0.589895
1576863856.792274,52346.000,8740,1,EA,1,100,0.589728
1576863856.859304,52402.500,8757,2,EA,1,100,0.590946
1576863856.926335,52459.000,8757,2,EA,1,100,0.588627
1576863856.992772,52515.000,8775,2,EA,1,100,0.585913
1576863857.059209,52571.000,8775,2,EA,1,100,0.586028
1576863857.122680,52624.500,8791,2,EA,1,100,0.588294
1576863857.186151,52678.000,8791,2,EA,1,100,0.589261
1576863857.251995,52733.500,8810,2,EA,1,100,0.589181
1576863857.317839,52789.000,8810,2,EA,1,100,0.589555
1576863857.389022,52849.000,8828,1,EA,1,100,0.589483
1576863857.455459,52905.000,8846,2,EA,1,100,0.589441
1576863857.521896,52961.000,8846,2,EA,1,100,0.589362
1576863857.590112,53018.500,8864,2,EA,1,100,0.589268
1576863857.658329,53076.000,8864,2,EA,1,100,0.589529
1576863857.720614,53128.500,8882,2,EA,1,100,0.589467
1576863857.782899,53181.000,8882,2,EA,1,100,0.589690
1576863857.848742,53236.500,8900,2,EA,1,100,0.589634
1576863857.914587,53292.000,8900,2,EA,1,100,0.589414
1576863857.978651,53346.000,8918,1,EA,1,100,0.589332
1576863858.046274,53403.000,8936,2,EA,1,100,0.589013
1576863858.113898,53460.000,8936,2,EA,1,100,0.590322
1576863858.180335,53516.000,8953,2,EA,1,100,0.590574
1576863858.246772,53572.000,8953,2,EA,1,100,0.591087
1576863858.317361,53631.500,8970,2,EA,1,100,0.591278
1576863858.387951,53691.000,8970,2,EA,1,100,0.591237
1576863858.453202,53746.000,8988,1,EA,1,100,0.591218
1576863858.523198,53805.000,9006,2,EA,1,100,0.591371
1576863858.593194,53864.000,9006,2,EA,1,100,0.591442
1576863858.658445,53919.000,9024,2,EA,1,100,0.591486
1576863858.723695,53974.000,9024,2,EA,1,100,0.591595
1576863858.787167,54027.500,9042,2,EA,1,100,0.591947
1576863858.850638,54081.000,9042,2,EA,1,100,0.591804
1576863858.917668,54137.500,9060,2,EA,1,100,0.591952
1576863858.984698,54194.000,9060,2,EA,1,100,0.592912
1576863859.051135,54250.000,9078,1,EA,1,100,0.594132
1576863859.121131,54309.000,9095,2,EA,1,100,0.594482
1576863859.191128,54368.000,9095,2,EA,1,100,0.594471
1576863859.259938,54426.000,9114,2,EA,1,100,0.595518
1576863859.328748,54484.000,9114,2,EA,1,100,0.595496
1576863859.398150,54542.500,9130,2,EA,1,100,0.595529
1576863859.467554,54601.000,9130,2,EA,1,100,0.595532
1576863859.531025,54654.500,9148,2,EA,1,100,0.595357
1576863859.594496,54708.000,9148,2,EA,1,100,0.595506
1576863859.657374,54761.000,9166,1,EA,1,100,0.595925
1576863859.722625,54816.000,9184,2,EA,1,100,0.596206
1576863859.787875,54871.000,9184,2,EA,1,100,0.595900
1576863859.854906,54927.500,9202,2,EA,1,100,0.595536
1576863859.921936,54984.000,9202,2,EA,1,100,0.596051
1576863859.991339,55042.500,9220,2,EA,1,100,0.596626
1576863860.060742,55101.000,9220,2,EA,1,100,0.597022
1576863860.127179,55157.000,9238,2,EA,1,100,0.596997
1576863860.193616,55213.000,9238,2,EA,1,100,0.597671
1576863860.255308,55265.000,9257,1,EA,1,100,0.597667
1576863860.321745,55321.000,9275,2,EA,1,100,0.597471
1576863860.388182,55377.000,9275,2,EA,1,100,0.597784
1576863860.455212,55433.500,9292,2,EA,1,100,0.598169
1576863860.522242,55490.000,9292,2,EA,1,100,0.598044
1576863860.591052,55548.000,9310,2,EA,1,100,0.598243
1576863860.659862,55606.000,9310,2,EA,1,100,0.598461
1576863860.729858,55665.000,9326,1,EA,1,100,0.598475
1576863860.792736,55718.000,9344,2,EA,1,100,0.598396
1576863860.855614,55771.000,9344,2,EA,1,100,0.598358
1576863860.920865,55826.000,9362,2,EA,1,100,0.598865
1576863860.986116,55881.000,9362,2,EA,1,100,0.598840
1576863861.053146,55937.500,9380,2,EA,1,100,0.598892
1576863861.120176,55994.000,9380,2,EA,1,100,0.598811
1576863861.188393,56051.500,9398,2,EA,1,100,0.599140
1576863861.256609,56109.000,9398,2,EA,1,100,0.599154
1576863861.324233,56166.000,9417,2,EA,1,100,0.599075
1576863861.391856,56223.000,9417,2,EA,1,100,0.599132
1576863861.453548,56275.000,9435,1,EA,1,100,0.599158
1576863861.517019,56328.500,9453,2,EA,1,100,0.599134
1576863861.580490,56382.000,9453,2,EA,1,100,0.599031
1576863861.648114,56439.000,9470,2,EA,1,100,0.599170
1576863861.715737,56496.000,9470,2,EA,1,100,0.599033
1576863861.782570,56552.333,9491,3,EA,1,100,0.598844
1576863861.849402,56608.667,9491,3,EA,1,100,0.599030
1576863861.916235,56665.000,9491,3,EA,1,100,0.599118
1576863861.982079,56720.500,9509,2,EA,1,100,0.599062
1576863862.047923,56776.000,9509,2,EA,1,100,0.598910
1576863862.116733,56834.000,9529,1,EA,1,100,0.598700
1576863862.184356,56891.000,9547,2,EA,1,100,0.598899
1576863862.251980,56948.000,9547,2,EA,1,100,0.598887
1576863862.323162,57008.000,9565,2,EA,1,100,0.598671
1576863862.394345,57068.000,9565,2,EA,1,100,0.598790
1576863862.456630,57120.500,9583,2,EA,1,100,0.598881
1576863862.518914,57173.000,9583,2,EA,1,100,0.598720
1576863862.582979,57227.000,9599,2,EA,1,100,0.598631
1576863862.647043,57281.000,9599,2,EA,1,100,0.598687
1576863862.715853,57339.000,9617,1,EA,1,100,0.598751
1576863862.785256,57397.500,9635,2,EA,1,100,0.598691
1576863862.854659,57456.000,9635,2,EA,1,100,0.598684
1576863862.924062,57514.500,9653,2,EA,1,100,0.598854
1576863862.993465,57573.000,9653,2,EA,1,100,0.598911
1576863863.056936,57626.500,9671,2,EA,1,100,0.598795
1576863863.120407,57680.000,9671,2,EA,1,100,0.598958
1576863863.184472,57734.000,9689,2,EA,1,100,0.599134
1576863863.248536,57788.000,9689,2,EA,1,100,0.599035
1576863863.316159,57845.000,9708,1,EA,1,100,0.598939
1576863863.383190,57901.500,9726,2,EA,1,100,0.599254
1576863863.450220,57958.000,9726,2,EA,1,100,0.599284
1576863863.518437,58015.500,9743,2,EA,1,100,0.599176
1576863863.586653,58073.000,9743,2,EA,1,100,0.599297
1576863863.651904,58128.000,9761,2,EA,1,100,0.599482
1576863863.717155,58183.000,9761,2,EA,1,100,0.599412
1576863863.780626,58236.500,9777,2,EA,1,100,0.599245
1576863863.844097,58290.000,9777,2,EA,1,100,0.599454
1576863863.910534,58346.000,9795,1,EA,1,100,0.599628
1576863863.978751,58403.500,9813,2,EA,1,100,0.599375
1576863864.046968,58461.000,9813,2,EA,1,100,0.599405
1576863864.116370,58519.500,9831,2,EA,1,100,0.599653
1576863864.185774,58578.000,9831,2,EA,1,100,0.599562
1576863864.251024,58633.000,9850,2,EA,1,100,0.599550
1576863864.316275,58688.000,9850,2,EA,1,100,0.599449
1576863864.379746,58741.500,9868,2,EA,1,100,0.599719
1576863864.443217,58795.000,9868,2,EA,1,100,0.599647
1576863864.509654,58851.000,9886,2,EA,1,100,0.599607
1576863864.576092,58907.000,9886,2,EA,1,100,0.599598
1576863864.642529,58963.000,9904,1,EA,1,100,0.599794
1576863864.711931,59021.500,9921,2,EA,1,100,0.599520
1576863864.781335,59080.000,9921,2,EA,1,100,0.599471
1576863864.847178,59135.500,9939,2,EA,1,100,0.599793
1576863864.913022,59191.000,9939,2,EA,1,100,0.599598
1576863864.975900,59244.000,9955,2,EA,1,100,0.599393
1576863865.038778,59297.000,9955,2,EA,1,100,0.599694
1576863865.105808,59353.500,9973,2,EA,1,100,0.599744
1576863865.172839,59410.000,9973,2,EA,1,100,0.599586
1576863865.239276,59466.000,9992,1,EA,1,100,0.599599
1576863865.309272,59525.000,10010,2,EA,1,100,0.599740
1576863865.379268,59584.000,10010,2,EA,1,100,0.599668
1576863865.446892,59641.000,10028,2,EA,1,100,0.599461
1576863865.514515,59698.000,10028,2,EA,1,100,0.599667
1576863865.582732,59755.500,10046,2,EA,1,100,0.599811
1576863865.650949,59813.000,10046,2,EA,1,100,0.599657
1576863865.720945,59872.000,10064,1,EA,1,100,0.599513
1576863865.788568,59929.000,10081,2,EA,1,100,0.599760
1576863865.856192,59986.000,10081,2,EA,1,100,0.599728
1576863865.923815,60043.000,10099,2,EA,1,100,0.599559
1576863865.991439,60100.000,10099,2,EA,1,100,0.599690
1576863866.057876,60156.000,10115,2,EA,1,100,0.599777
1576863866.124313,60212.000,10115,2,EA,1,100,0.599549
1576863866.187191,60265.000,10133,2,EA,1,100,0.599540
1576863866.250069,60318.000,10133,2,EA,1,100,0.599702
1576863866.314133,60372.000,10152,1,EA,1,100,0.599741
1576863866.379384,60427.000,10170,2,EA,1,100,0.599463
1576863866.444635,60482.000,10170,2,EA,1,100,0.599564
1576863866.514038,60540.500,10188,2,EA,1,100,0.599698
1576863866.583441,60599.000,10188,2,EA,1,100,0.599678
1576863866.651657,60656.500,10206,2,EA,1,100,0.599474
1576863866.719874,60714.000,10206,2,EA,1,100,0.599408
1576863866.785125,60769.000,10224,2,EA,1,100,0.599642
1576863866.850375,60824.000,10224,2,EA,1,100,0.599536
1576863866.912067,60876.000,10242,1,EA,1,100,0.599357
1576863866.977911,60931.500,10260,2,EA,1,100,0.599444
1576863867.043755,60987.000,10260,2,EA,1,100,0.599430
1576863867.111972,61044.500,10277,2,EA,1,100,0.599209
1576863867.180188,61102.000,10277,2,EA,1,100,0.599324
1576863867.247812,61159.000,10296,2,EA,1,100,0.599510
1576863867.315435,61216.000,10296,2,EA,1,100,0.599245
1576863867.381872,61272.000,10312,2,EA,1,100,0.599031
1576863867.448309,61328.000,10312,2,EA,1,100,0.599283
1576863867.511187,61381.000,10330,1,EA,1,100,0.599399
1576863867.576438,61436.000,10348,2,EA,1,100,0.599039
1576863867.641689,61491.000,10348,2,EA,1,100,0.599121
1576863867.711685,61550.000,10366,2,EA,1,100,0.599267
1576863867.781681,61609.000,10366,2,EA,1,100,0.599167
1576863867.850887,61667.333,10387,3,EA,1,100,0.598961
1576863867.920092,61725.667,10387,3,EA,1,100,0.598914
1576863867.989297,61784.000,10387,3,EA,1,100,0.599233
1576863868.050989,61836.000,10407,2,EA,1,100,0.599061
1576863868.112680,61888.000,10407,2,EA,1,100,0.598844
1576863868.177338,61942.500,10425,2,EA,1,100,0.598681
1576863868.241995,61997.000,10425,2,EA,1,100,0.598845
1576863868.309619,62054.000,10444,1,EA,1,100,0.598992
1576863868.377836,62111.500,10462,2,EA,1,100,0.598736
1576863868.446052,62169.000,10462,2,EA,1,100,0.598786
1576863868.515455,62227.500,10480,2,EA,1,100,0.598958
1576863868.584858,62286.000,10480,2,EA,1,100,0.598821
1576863868.647143,62338.500,10498,2,EA,1,100,0.598695
1576863868.709428,62391.000,10498,2,EA,1,100,0.598838
1576863868.772899,62444.500,10516,2,EA,1,100,0.599056
1576863868.836370,62498.000,10516,2,EA,1,100,0.598653
1576863868.907553,62558.000,10534,1,EA,1,100,0.598550
1576863868.973990,62614.000,10551,2,EA,1,100,0.598845
1576863869.040427,62670.000,10551,2,EA,1,100,0.598754
1576863869.111016,62729.500,10569,2,EA,1,100,0.598581
1576863869.181606,62789.000,10569,2,EA,1,100,0.598641
1576863869.249822,62846.500,10586,2,EA,1,100,0.598746
1576863869.318039,62904.000,10586,2,EA,1,100,0.598481
1576863869.388035,62963.000,10604,1,EA,1,100,0.598248
1576863869.455659,63020.000,10622,2,EA,1,100,0.598509
1576863869.523282,63077.000,10622,2,EA,1,100,0.598328
1576863869.592092,63135.000,10640,2,EA,1,100,0.598128
1576863869.660902,63193.000,10640,2,EA,1,100,0.598276
1576863869.724966,63247.000,10658,2,EA,1,100,0.598469
1576863869.789031,63301.000,10658,2,EA,1,100,0.598163
1576863869.853095,63355.000,10676,2,EA,1,100,0.598129
1576863869.917159,63409.000,10676,2,EA,1,100,0.598287
1576863869.984783,63466.000,10694,1,EA,1,100,0.598225
1576863870.052999,63523.500,10711,2,EA,1,100,0.597921
1576863870.121216,63581.000,10711,2,EA,1,100,0.597970
1576863870.190026,63639.000,10729,2,EA,1,100,0.598235
1576863870.258836,63697.000,10729,2,EA,1,100,0.597906
1576863870.322900,63751.000,10746,2,EA,1,100,0.597748
1576863870.386964,63805.000,10746,2,EA,1,100,0.597945
1576863870.450435,63858.500,10764,2,EA,1,100,0.597953
1576863870.513907,63912.000,10764,2,EA,1,100,0.597570
1576863870.579157,63967.000,10782,1,EA,1,100,0.597646
1576863870.646781,64024.000,10800,2,EA,1,100,0.597707
1576863870.714404,64081.000,10800,2,EA,1,100,0.597738
1576863870.783214,64139.000,10818,2,EA,1,100,0.597497
1576863870.852024,64197.000,10818,2,EA,1,100,0.597563
1576863870.919054,64253.500,10836,2,EA,1,100,0.597595
1576863870.986084,64310.000,10836,2,EA,1,100,0.597418
1576863871.047183,64361.500,10854,2,EA,1,100,0.597231
1576863871.108281,64413.000,10854,2,EA,1,100,0.597312
1576863871.177091,64471.000,10872,1,EA,1,100,0.597468
1576863871.244122,64527.500,10890,2,EA,1,100,0.597162
1576863871.311152,64584.000,10890,2,EA,1,100,0.597110
1576863871.379961,64642.000,10908,2,EA,1,100,0.597277
1576863871.448771,64700.000,10908,2,EA,1,100,0.597061
1576863871.516988,64757.500,10924,2,EA,1,100,0.596971
1576863871.585205,64815.000,10924,2,EA,1,100,0.597008
1576863871.646303,64866.500,10942,2,EA,1,100,0.597139
1576863871.707402,64918.000,10942,2,EA,1,100,0.596860
1576863871.772059,64972.500,10960,2,EA,1,100,0.596674
1576863871.836717,65027.000,10960,2,EA,1,100,0.596913
1576863871.904340,65084.000,10978,1,EA,1,100,0.596963
1576863871.972557,65141.500,10996,2,EA,1,100,0.596567
1576863872.040773,65199.000,10996,2,EA,1,100,0.596682
1576863872.108990,65256.500,11014,2,EA,1,100,0.596816
1576863872.177207,65314.000,11014,2,EA,1,100,0.596695
1576863872.238898,65366.000,11033,2,EA,1,100,0.596413
1576863872.300590,65418.000,11033,2,EA,1,100,0.596593
1576863872.366434,65473.500,11051,2,EA,1,100,0.596722
1576863872.432278,65529.000,11051,2,EA,1,100,0.596405
1576863872.501087,65587.000,11069,1,EA,1,100,0.596186
1576863872.566338,65642.000,11086,2,EA,1,100,0.596466
1576863872.631589,65697.000,11086,2,EA,1,100,0.596414
1576863872.698026,65753.000,11104,2,EA,1,100,0.596095
1576863872.764463,65809.000,11104,2,EA,1,100,0.596231
1576863872.832680,65866.500,11122,2,EA,1,100,0.596299
1576863872.900897,65924.000,11122,2,EA,1,100,0.596154
1576863872.970893,65983.000,11138,1,EA,1,100,0.596055
1576863873.039109,66040.500,11156,2,EA,1,100,0.596389
1576863873.107326,66098.000,11156,2,EA,1,100,0.596258
1576863873.173763,66154.000,11174,2,EA,1,100,0.596183
1576863873.240200,66210.000,11174,2,EA,1,100,0.596248
1576863873.310790,66269.500,11193,2,EA,1,100,0.596501
1576863873.381379,66329.000,11193,2,EA,1,100,0.596201
1576863873.444257,66382.000,11211,2,EA,1,100,0.596154
1576863873.507135,66435.000,11211,2,EA,1,100,0.596290
1576863873.571199,66489.000,11229,2,EA,1,100,0.596443
1576863873.635264,66543.000,11229,2,EA,1,100,0.596323
1576863873.702887,66600.000,11247,1,EA,1,100,0.596311
1576863873.770511,66657.000,11264,2,EA,1,100,0.596551
1576863873.838134,66714.000,11264,2,EA,1,100,0.596560
1576863873.907735,66772.667,11283,3,EA,1,100,0.596303
1576863873.977335,66831.333,11283,3,EA,1,100,0.596463
1576863874.046936,66890.000,11283,3,EA,1,100,0.596717
1576863874.109221,66942.500,11305,2,EA,1,100,0.596822
1576863874.171506,66995.000,11305,2,EA,1,100,0.596637
1576863874.235570,67049.000,11324,2,EA,1,100,0.596596
1576863874.299634,67103.000,11324,2,EA,1,100,0.596874
1576863874.368444,67161.000,11342,1,EA,1,100,0.597052
1576863874.435475,67217.500,11359,2,EA,1,100,0.596659
1576863874.502505,67274.000,11359,2,EA,1,100,0.596826
1576863874.571908,67332.500,11377,2,EA,1,100,0.597103
1576863874.641311,67391.000,11377,2,EA,1,100,0.596992
1576863874.704782,67444.500,11393,2,EA,1,100,0.596794
1576863874.768253,67498.000,11393,2,EA,1,100,0.597203
1576863874.832318,67552.000,11411,2,EA,1,100,0.597223
1576863874.896382,67606.000,11411,2,EA,1,100,0.597061
1576863874.965192,67664.000,11429,1,EA,1,100,0.597053
1576863875.032815,67721.000,11447,2,EA,1,100,0.597331
1576863875.100439,67778.000,11447,2,EA,1,100,0.597253
1576863875.169842,67836.500,11465,2,EA,1,100,0.597034
1576863875.239245,67895.000,11465,2,EA,1,100,0.597155
1576863875.303902,67949.500,11484,2,EA,1,100,0.597385
1576863875.368560,68004.000,11484,2,EA,1,100,0.597178
1576863875.432031,68057.500,11502,2,EA,1,100,0.597093
1576863875.495502,68111.000,11502,2,EA,1,100,0.597391
1576863875.565498,68170.000,11520,1,EA,1,100,0.597530
1576863875.632529,68226.500,11537,2,EA,1,100,0.597273
1576863875.699559,68283.000,11537,2,EA,1,100,0.597274
1576863875.768962,68341.500,11555,2,EA,1,100,0.597551
1576863875.838365,68400.000,11555,2,EA,1,100,0.597459
1576863875.903616,68455.000,11571,2,EA,1,100,0.597228
1576863875.968867,68510.000,11571,2,EA,1,100,0.597484
1576863876.030558,68562.000,11589,2,EA,1,100,0.597796
1576863876.092250,68614.000,11589,2,EA,1,100,0.597481
1576863876.162246,68673.000,11607,1,EA,1,100,0.597354
1576863876.229869,68730.000,11626,2,EA,1,100,0.597531
1576863876.297493,68787.000,11626,2,EA,1,100,0.597543
1576863876.365710,68844.500,11644,2,EA,1,100,0.597272
1576863876.433926,68902.000,11644,2,EA,1,100,0.597439
1576863876.503329,68960.500,11662,2,EA,1,100,0.597767
1576863876.572732,69019.000,11662,2,EA,1,100,0.597470
1576863876.639169,69075.000,11680,1,EA,1,100,0.597413
1576863876.708572,69133.500,11697,2,EA,1,100,0.597651
1576863876.777975,69192.000,11697,2,EA,1,100,0.597686
1576863876.846785,69250.000,11715,2,EA,1,100,0.597369
1576863876.915595,69308.000,11715,2,EA,1,100,0.597517
1576863876.979066,69361.500,11731,2,EA,1,100,0.597668
1576863877.042537,69415.000,11731,2,EA,1,100,0.597496
1576863877.107195,69469.500,11749,2,EA,1,100,0.597322
1576863877.171852,69524.000,11749,2,EA,1,100,0.597725
1576863877.235917,69578.000,11768,1,EA,1,100,0.597752
1576863877.305320,69636.500,11786,2,EA,1,100,0.597299
1576863877.374723,69695.000,11786,2,EA,1,100,0.597493
1576863877.443533,69753.000,11804,2,EA,1,100,0.597667
1576863877.512342,69811.000,11804,2,EA,1,100,0.597588
1576863877.577593,69866.000,11822,2,EA,1,100,0.597359
1576863877.642844,69921.000,11822,2,EA,1,100,0.597517
1576863877.705722,69974.000,11840,2,EA,1,100,0.597569
1576863877.768600,70027.000,11840,2,EA,1,100,0.597556
1576863877.835037,70083.000,11858,1,EA,1,100,0.597340
1576863877.903254,70140.500,11875,2,EA,1,100,0.597584
1576863877.971470,70198.000,11875,2,EA,1,100,0.597645
1576863878.039094,70255.000,11893,2,EA,1,100,0.597356
1576863878.106717,70312.000,11893,2,EA,1,100,0.597534
1576863878.173154,70368.000,11911,2,EA,1,100,0.597661
1576863878.239591,70424.000,11911,2,EA,1,100,0.597447
1576863878.303063,70477.500,11928,2,EA,1,100,0.597406
1576863878.366534,70531.000,11928,2,EA,1,100,0.597538
1576863878.432378,70586.500,11946,2,EA,1,100,0.597721
1576863878.498222,70642.000,11946,2,EA,1,100,0.597392
1576863878.570590,70703.000,11964,1,EA,1,100,0.597333
1576863878.637621,70759.500,11982,2,EA,1,100,0.597540
1576863878.704651,70816.000,11982,2,EA,1,100,0.597501
1576863878.772868,70873.500,12000,2,EA,1,100,0.597294
1576863878.841084,70931.000,12000,2,EA,1,100,0.597464
1576863878.903369,70983.500,12018,2,EA,1,100,0.597568
1576863878.965654,71036.000,12018,2,EA,1,100,0.597405
1576863879.030312,71090.500,12036,2,EA,1,100,0.597228
1576863879.094969,71145.000,12036,2,EA,1,100,0.597594
1576863879.166152,71205.000,12054,1,EA,1,100,0.597550
1576863879.232589,71261.000,12072,2,EA,1,100,0.597385
1576863879.299026,71317.000,12072,2,EA,1,100,0.597366
1576863879.367836,71375.000,12090,2,EA,1,100,0.597466
1576863879.436646,71433.000,12090,2,EA,1,100,0.597309
1576863879.498930,71485.500,12106,2,EA,1,100,0.597244
1576863879.561215,71538.000,12106,2,EA,1,100,0.597461
1576863879.627059,71593.500,12124,2,EA,1,100,0.597552
1576863879.692903,71649.000,12124,2,EA,1,100,0.597187
1576863879.756967,71703.000,12142,1,EA,1,100,0.597196
1576863879.823997,71759.500,12160,2,EA,1,100,0.597429
1576863879.891028,71816.000,12160,2,EA,1,100,0.597436
1576863879.959442,71873.667,12181,3,EA,1,100,0.597132
1576863880.027857,71931.333,12181,3,EA,1,100,0.597187
1576863880.096271,71989.000,12181,3,EA,1,100,0.597562
1576863880.163894,72046.000,12201,2,EA,1,100,0.597516
1576863880.231518,72103.000,12201,2,EA,1,100,0.597338
1576863880.302701,72163.000,12219,1,EA,1,100,0.597100
1576863880.370917,72220.500,12237,2,EA,1,100,0.597298
1576863880.439134,72278.000,12237,2,EA,1,100,0.597222
1576863880.509130,72337.000,12255,2,EA,1,100,0.597086
1576863880.579126,72396.000,12255,2,EA,1,100,0.597273
1576863880.646157,72452.500,12273,2,EA,1,100,0.597321
1576863880.713187,72509.000,12273,2,EA,1,100,0.597214
1576863880.776658,72562.500,12291,2,EA,1,100,0.596977
1576863880.840129,72616.000,12291,2,EA,1,100,0.597254
1576863880.905380,72671.000,12309,1,EA,1,100,0.597230
1576863880.971817,72727.000,12326,2,EA,1,100,0.596903
1576863881.038254,72783.000,12326,2,EA,1,100,0.596954
1576863881.107657,72841.500,12344,2,EA,1,100,0.597246
1576863881.177060,72900.000,12344,2,EA,1,100,0.597052
1576863881.244684,72957.000,12361,2,EA,1,100,0.596850
1576863881.312307,73014.000,12361,2,EA,1,100,0.597017
1576863881.375778,73067.500,12379,2,EA,1,100,0.597174
1576863881.439249,73121.000,12379,2,EA,1,100,0.596838
1576863881.500941,73173.000,12397,1,EA,1,100,0.596760
1576863881.568564,73230.000,12415,2,EA,1,100,0.597105
1576863881.636188,73287.000,12415,2,EA,1,100,0.597006
1576863881.703811,73344.000,12433,2,EA,1,100,0.596729
1576863881.771435,73401.000,12433,2,EA,1,100,0.596906
1576863881.841431,73460.000,12451,2,EA,1,100,0.597034
1576863881.911427,73519.000,12451,2,EA,1,100,0.596886
1576863881.974305,73572.000,12469,2,EA,1,100,0.596869
1576863882.037183,73625.000,12469,2,EA,1,100,0.596955
1576863882.100061,73678.000,12487,1,EA,1,100,0.597157
1576863882.166498,73734.000,12505,2,EA,1,100,0.596800
1576863882.232935,73790.000,12505,2,EA,1,100,0.596703
1576863882.302338,73848.500,12523,2,EA,1,100,0.597110
1576863882.371741,73907.000,12523,2,EA,1,100,0.597068
1576863882.439365,73964.000,12541,2,EA,1,100,0.596855
1576863882.506988,74021.000,12541,2,EA,1,100,0.596994
1576863882.571646,74075.500,12557,2,EA,1,100,0.597186
1576863882.636303,74130.000,12557,2,EA,1,100,0.596874
1576863882.697995,74182.000,12575,1,EA,1,100,0.596792
1576863882.762652,74236.500,12593,2,EA,1,100,0.597116
1576863882.827310,74291.000,12593,2,EA,1,100,0.597290
1576863882.897306,74350.000,12611,2,EA,1,100,0.596912
1576863882.967303,74409.000,12611,2,EA,1,100,0.597267
1576863883.033740,74465.000,12629,2,EA,1,100,0.597377
1576863883.100177,74521.000,12629,2,EA,1,100,0.597359
1576863883.166021,74576.500,12647,2,EA,1,100,0.597232
1576863883.231864,74632.000,12647,2,EA,1,100,0.597456
1576863883.294149,74684.500,12666,2,EA,1,100,0.597600
1576863883.356434,74737.000,12666,2,EA,1,100,0.597365
1576863883.422871,74793.000,12684,1,EA,1,100,0.597488
1576863883.489308,74849.000,12701,2,EA,1,100,0.597861
1576863883.555745,74905.000,12701,2,EA,1,100,0.597813
1576863883.623369,74962.000,12719,2,EA,1,100,0.597634
1576863883.690992,75019.000,12719,2,EA,1,100,0.597883
1576863883.756243,75074.000,12735,2,EA,1,100,0.598032
1576863883.821494,75129.000,12735,2,EA,1,100,0.598019
1576863883.890304,75187.000,12753,1,EA,1,100,0.597882
1576863883.957927,75244.000,12771,2,EA,1,100,0.598173
1576863884.025550,75301.000,12771,2,EA,1,100,0.598228
1576863884.096733,75361.000,12789,2,EA,1,100,0.597953
1576863884.167916,75421.000,12789,2,EA,1,100,0.598131
1576863884.234353,75477.000,12808,2,EA,1,100,0.598467
1576863884.300790,75533.000,12808,2,EA,1,100,0.598243
1576863884.368413,75590.000,12826,2,EA,1,100,0.598069
1576863884.436037,75647.000,12826,2,EA,1,100,0.598275
1576863884.498915,75700.000,12844,1,EA,1,100,0.598453
1576863884.562386,75753.500,12861,2,EA,1,100,0.598268
1576863884.625857,75807.000,12861,2,EA,1,100,0.598355
1576863884.694667,75865.000,12879,2,EA,1,100,0.598491
1576863884.763477,75923.000,12879,2,EA,1,100,0.598463
1576863884.831693,75980.500,12897,2,EA,1,100,0.598312
1576863884.899910,76038.000,12897,2,EA,1,100,0.598405
1576863884.971093,76098.000,12913,1,EA,1,100,0.598593
1576863885.035750,76152.500,12931,2,EA,1,100,0.598450
1576863885.100408,76207.000,12931,2,EA,1,100,0.598245
1576863885.163879,76260.500,12950,2,EA,1,100,0.598732
1576863885.227350,76314.000,12950,2,EA,1,100,0.598542
1576863885.293194,76369.500,12968,2,EA,1,100,0.598372
1576863885.359038,76425.000,12968,2,EA,1,100,0.598361
1576863885.427254,76482.500,12986,2,EA,1,100,0.598594
1576863885.495471,76540.000,12986,2,EA,1,100,0.598417
1576863885.564874,76598.500,13004,2,EA,1,100,0.598323
1576863885.634277,76657.000,13004,2,EA,1,100,0.598673
1576863885.697155,76710.000,13022,1,EA,1,100,0.598657
1576863885.760626,76763.500,13039,2,EA,1,100,0.598337
1576863885.824097,76817.000,13039,2,EA,1,100,0.598429
1576863885.890535,76873.000,13057,2,EA,1,100,0.598749
1576863885.956972,76929.000,13057,2,EA,1,100,0.598652
1576863886.025781,76987.000,13078,3,EA,1,100,0.598490
1576863886.094591,77045.000,13078,3,EA,1,100,0.598541
1576863886.163401,77103.000,13078,3,EA,1,100,0.598852
1576863886.230432,77159.500,13099,2,EA,1,100,0.598818
1576863886.297462,77216.000,13099,2,EA,1,100,0.598592
1576863886.360340,77269.000,13117,2,EA,1,100,0.598409
1576863886.423218,77322.000,13117,2,EA,1,100,0.598672
1576863886.486096,77375.000,13135,1,EA,1,100,0.598657
1576863886.553126,77431.500,13152,2,EA,1,100,0.598500
1576863886.620156,77488.000,13152,2,EA,1,100,0.598488
1576863886.689559,77546.500,13170,2,EA,1,100,0.598717
1576863886.758962,77605.000,13170,2,EA,1,100,0.598643
1576863886.825993,77661.500,13186,2,EA,1,100,0.598432
1576863886.893023,77718.000,13186,2,EA,1,100,0.598657
1576863886.955901,77771.000,13204,2,EA,1,100,0.598781
1576863887.018779,77824.000,13204,2,EA,1,100,0.598421
1576863887.087589,77882.000,13222,1,EA,1,100,0.598526
1576863887.149873,77934.500,13241,2,EA,1,100,0.598765
1576863887.212158,77987.000,13241,2,EA,1,100,0.598562
1576863887.279188,78043.500,13259,2,EA,1,100,0.598542
1576863887.346219,78100.000,13259,2,EA,1,100,0.598561
1576863887.413842,78157.000,13277,2,EA,1,100,0.598707
1576863887.481466,78214.000,13277,2,EA,1,100,0.598539
1576863887.546716,78269.000,13295,2,EA,1,100,0.598392
1576863887.611967,78324.000,13295,2,EA,1,100,0.598657
1576863887.681963,78383.000,13313,1,EA,1,100,0.598654
1576863887.748994,78439.500,13330,2,EA,1,100,0.598426
1576863887.816024,78496.000,13330,2,EA,1,100,0.598452
1576863887.885427,78554.500,13348,2,EA,1,100,0.598569
1576863887.954830,78613.000,13348,2,EA,1,100,0.598583
1576863888.021267,78669.000,13364,2,EA,1,100,0.598331
1576863888.087704,78725.000,13364,2,EA,1,100,0.598643
1576863888.152362,78779.500,13382,2,EA,1,100,0.598685
1576863888.217019,78834.000,13382,2,EA,1,100,0.598410
1576863888.281084,78888.000,13401,1,EA,1,100,0.598375
1576863888.345741,78942.500,13419,2,EA,1,100,0.598597
1576863888.410398,78997.000,13419,2,EA,1,100,0.598572
1576863888.479802,79055.500,13437,2,EA,1,100,0.598267
1576863888.549205,79114.000,13437,2,EA,1,100,0.598384
1576863888.616828,79171.000,13455,2,EA,1,100,0.598637
1576863888.684452,79228.000,13455,2,EA,1,100,0.598463
1576863888.751482,79284.500,13473,2,EA,1,100,0.598434
1576863888.818512,79341.000,13473,2,EA,1,100,0.598571
1576863888.880204,79393.000,13491,1,EA,1,100,0.598622
1576863888.945454,79448.000,13508,2,EA,1,100,0.598353
1576863889.010705,79503.000,13508,2,EA,1,100,0.598243
1576863889.078329,79560.000,13526,2,EA,1,100,0.598520
1576863889.145952,79617.000,13526,2,EA,1,100,0.598505
1576863889.213576,79674.000,13545,2,EA,1,100,0.598369
1576863889.281199,79731.000,13545,2,EA,1,100,0.598442
1576863889.348823,79788.000,13561,2,EA,1,100,0.598517
1576863889.416446,79845.000,13561,2,EA,1,100,0.598424
1576863889.478137,79897.000,13579,1,EA,1,100,0.598209
1576863889.541609,79950.500,13597,2,EA,1,100,0.598477
1576863889.605080,80004.000,13597,2,EA,1,100,0.598455
1576863889.673890,80062.000,13615,2,EA,1,100,0.598193
1576863889.742700,80120.000,13615,2,EA,1,100,0.598243
1576863889.809730,80176.500,13633,2,EA,1,100,0.598533
1576863889.876760,80233.000,13633,2,EA,1,100,0.598371
1576863889.944977,80290.500,13651,2,EA,1,100,0.598114
1576863890.013193,80348.000,13651,2,EA,1,100,0.598380
1576863890.075478,80400.500,13669,2,EA,1,100,0.598405
1576863890.137763,80453.000,13669,2,EA,1,100,0.598157
1576863890.200641,80506.000,13688,1,EA,1,100,0.597986
1576863890.268858,80563.500,13705,2,EA,1,100,0.598422
1576863890.337074,80621.000,13705,2,EA,1,100,0.598304
1576863890.403511,80677.000,13723,2,EA,1,100,0.598078
1576863890.469949,80733.000,13723,2,EA,1,100,0.598127
1576863890.539945,80792.000,13739,2,EA,1,100,0.598464
1576863890.609941,80851.000,13739,2,EA,1,100,0.598222
1576863890.672226,80903.500,13757,2,EA,1,100,0.597951
1576863890.734510,80956.000,13757,2,EA,1,100,0.598251
1576863890.797389,81009.000,13775,1,EA,1,100,0.598297
1576863890.862639,81064.000,13793,2,EA,1,100,0.597974
1576863890.927890,81119.000,13793,2,EA,1,100,0.598006
1576863890.992548,81173.500,13811,2,EA,1,100,0.598384
1576863891.057205,81228.000,13811,2,EA,1,100,0.598359
1576863891.120676,81281.500,13829,2,EA,1,100,0.598088
1576863891.184147,81335.000,13829,2,EA,1,100,0.598050
1576863891.250584,81391.000,13848,2,EA,1,100,0.598391
1576863891.317021,81447.000,13848,2,EA,1,100,0.598230
1576863891.385238,81504.500,13866,2,EA,1,100,0.597969
1576863891.453455,81562.000,13866,2,EA,1,100,0.598225
1576863891.522264,81620.000,13884,1,EA,1,100,0.598318
1576863891.589888,81677.000,13901,2,EA,1,100,0.598081
1576863891.657511,81734.000,13901,2,EA,1,100,0.598245
1576863891.720983,81787.500,13919,2,EA,1,100,0.598514
1576863891.784454,81841.000,13919,2,EA,1,100,0.598260
1576863891.850298,81896.500,13935,2,EA,1,100,0.598148
1576863891.916142,81952.000,13935,2,EA,1,100,0.598226
1576863891.978426,82004.500,13953,2,EA,1,100,0.598450
1576863892.040711,82057.000,13953,2,EA,1,100,0.598235
1576863892.107939,82113.667,13974,3,EA,1,100,0.598106
1576863892.175167,82170.333,13974,3,EA,1,100,0.598363
1576863892.242395,82227.000,13974,3,EA,1,100,0.598430
1576863892.311205,82285.000,13995,1,EA,1,100,0.598415
1576863892.380608,82343.500,14012,2,EA,1,100,0.598282
1576863892.450011,82402.000,14012,2,EA,1,100,0.598151
1576863892.513482,82455.500,14030,2,EA,1,100,0.598427
1576863892.576953,82509.000,14030,2,EA,1,100,0.598273
1576863892.641611,82563.500,14046,2,EA,1,100,0.598058
1576863892.706269,82618.000,14046,2,EA,1,100,0.598194
1576863892.772706,82674.000,14064,2,EA,1,100,0.598372
1576863892.839143,82730.000,14064,2,EA,1,100,0.598121
1576863892.911512,82791.000,14082,1,EA,1,100,0.598038
1576863892.979135,82848.000,14100,2,EA,1,100,0.598414
1576863893.046759,82905.000,14100,2,EA,1,100,0.598326
1576863893.110823,82959.000,14118,2,EA,1,100,0.598046
1576863893.174887,83013.000,14118,2,EA,1,100,0.598098
1576863893.239545,83067.500,14137,2,EA,1,100,0.598293
1576863893.304202,83122.000,14137,2,EA,1,100,0.597954
1576863893.370639,83178.000,14155,2,EA,1,100,0.597978
1576863893.437077,83234.000,14155,2,EA,1,100,0.598069
1576863893.509445,83295.000,14173,1,EA,1,100,0.598297
1576863893.576476,83351.500,14190,2,EA,1,100,0.597965
1576863893.643506,83408.000,14190,2,EA,1,100,0.597888
1576863893.708163,83462.500,14208,2,EA,1,100,0.598247
1576863893.772821,83517.000,14208,2,EA,1,100,0.598015
1576863893.835106,83569.500,14226,2,EA,1,100,0.597910
1576863893.897391,83622.000,14226,2,EA,1,100,0.598100
1576863893.963235,83677.500,14242,2,EA,1,100,0.598214
1576863894.029078,83733.000,14242,2,EA,1,100,0.597992
1576863894.101447,83794.000,14260,1,EA,1,100,0.597747
1576863894.167885,83850.000,14279,2,EA,1,100,0.598188
1576863894.234322,83906.000,14279,2,EA,1,100,0.598155
1576863894.301352,83962.500,14297,2,EA,1,100,0.597830
1576863894.368382,84019.000,14297,2,EA,1,100,0.597942
1576863894.437785,84077.500,14315,2,EA,1,100,0.598134
1576863894.507188,84136.000,14315,2,EA,1,100,0.597888
1576863894.571253,84190.000,14333,2,EA,1,100,0.597780
1576863894.635317,84244.000,14333,2,EA,1,100,0.598110
1576863894.706500,84304.000,14351,1,EA,1,100,0.598065
1576863894.768191,84356.000,14368,2,EA,1,100,0.597698
1576863894.829883,84408.000,14368,2,EA,1,100,0.597818
1576863894.893354,84461.500,14386,2,EA,1,100,0.598139
1576863894.956825,84515.000,14386,2,EA,1,100,0.597981
1576863895.025635,84573.000,14404,2,EA,1,100,0.597756
1576863895.094445,84631.000,14404,2,EA,1,100,0.597875
1576863895.162661,84688.500,14421,2,EA,1,100,0.597998
1576863895.230878,84746.000,14421,2,EA,1,100,0.597868
1576863895.302061,84806.000,14439,1,EA,1,100,0.597789
1576863895.366718,84860.500,14457,2,EA,1,100,0.598032
1576863895.431376,84915.000,14457,2,EA,1,100,0.597972
1576863895.494847,84968.500,14475,2,EA,1,100,0.597734
1576863895.558318,85022.000,14475,2,EA,1,100,0.597826
1576863895.625942,85079.000,14493,2,EA,1,100,0.597945
1576863895.693565,85136.000,14493,2,EA,1,100,0.598059
1576863895.758816,85191.000,14511,2,EA,1,100,0.597769
1576863895.824066,85246.000,14511,2,EA,1,100,0.598020
1576863895.891690,85303.000,14529,1,EA,1,100,0.598035
1576863895.958720,85359.500,14547,2,EA,1,100,0.597801
1576863896.025750,85416.000,14547,2,EA,1,100,0.597727
1576863896.095153,85474.500,14565,2,EA,1,100,0.598023
1576863896.164557,85533.000,14565,2,EA,1,100,0.597812
1576863896.227434,85586.000,14583,2,EA,1,100,0.597621
1576863896.290312,85639.000,14583,2,EA,1,100,0.597696
1576863896.353190,85692.000,14600,2,EA,1,100,0.597887
1576863896.416068,85745.000,14600,2,EA,1,100,0.597743
1576863896.484285,85802.500,14617,2,EA,1,100,0.597642
1576863896.552502,85860.000,14617,2,EA,1,100,0.597713
1576863896.618939,85916.000,14635,1,EA,1,100,0.597920
1576863896.688935,85975.000,14653,2,EA,1,100,0.597592
1576863896.758931,86034.000,14653,2,EA,1,100,0.597615
1576863896.824182,86089.000,14671,2,EA,1,100,0.597749
1576863896.889433,86144.000,14671,2,EA,1,100,0.597670
1576863896.951124,86196.000,14689,2,EA,1,100,0.597457
1576863897.012816,86248.000,14689,2,EA,1,100,0.597774
1576863897.080439,86305.000,14707,2,EA,1,100,0.597883
1576863897.148063,86362.000,14707,2,EA,1,100,0.597563
1576863897.215686,86419.000,14726,1,EA,1,100,0.597424
1576863897.284496,86477.000,14743,2,EA,1,100,0.597552
1576863897.353306,86535.000,14743,2,EA,1,100,0.597717
1576863897.418557,86590.000,14761,2,EA,1,100,0.597619
1576863897.483807,86645.000,14761,2,EA,1,100,0.597640
1576863897.546092,86697.500,14779,2,EA,1,100,0.597600
1576863897.608377,86750.000,14779,2,EA,1,100,0.597393
1576863897.676594,86807.500,14795,2,EA,1,100,0.597497
1576863897.744810,86865.000,14795,2,EA,1,100,0.597542
1576863897.812434,86922.000,14813,1,EA,1,100,0.597538
1576863897.881243,86980.000,14831,2,EA,1,100,0.597272
1576863897.950053,87038.000,14831,2,EA,1,100,0.597204
1576863898.016490,87094.000,14849,2,EA,1,100,0.597579
1576863898.082927,87150.000,14849,2,EA,1,100,0.597364
1576863898.148178,87205.000,14871,3,EA,1,100,0.597275
1576863898.213429,87260.000,14871,3,EA,1,100,0.597364
1576863898.278680,87315.000,14871,3,EA,1,100,0.597528
1576863898.343930,87370.000,14891,2,EA,1,100,0.597518
1576863898.409181,87425.000,14891,2,EA,1,100,0.597270
1576863898.472652,87478.500,14907,2,EA,1,100,0.597050
1576863898.536124,87532.000,14907,2,EA,1,100,0.597260
1576863898.600188,87586.000,14925,1,EA,1,100,0.597302
1576863898.664845,87640.500,14943,2,EA,1,100,0.597109
1576863898.729503,87695.000,14943,2,EA,1,100,0.597033
1576863898.799499,87754.000,14961,2,EA,1,100,0.597351
1576863898.869495,87813.000,14961,2,EA,1,100,0.597176
1576863898.937712,87870.500,14979,2,EA,1,100,0.596955
1576863899.005929,87928.000,14979,2,EA,1,100,0.597148
1576863899.071773,87983.500,14997,2,EA,1,100,0.597382
1576863899.137616,88039.000,14997,2,EA,1,100,0.596934
1576863899.200494,88092.000,15016,1,EA,1,100,0.596830
1576863899.265745,88147.000,15033,2,EA,1,100,0.597102
1576863899.330996,88202.000,15033,2,EA,1,100,0.597149
1576863899.399212,88259.500,15051,2,EA,1,100,0.596781
1576863899.467429,88317.000,15051,2,EA,1,100,0.596862
1576863899.535053,88374.000,15069,2,EA,1,100,0.597018
1576863899.602676,88431.000,15069,2,EA,1,100,0.596801
1576863899.669706,88487.500,15085,2,EA,1,100,0.596700
1576863899.736737,88544.000,15085,2,EA,1,100,0.596948
1576863899.798428,88596.000,15103,1,EA,1,100,0.596932
1576863899.862493,88650.000,15121,2,EA,1,100,0.596578
1576863899.926557,88704.000,15121,2,EA,1,100,0.596565
1576863899.996553,88763.000,15139,2,EA,1,100,0.596983
1576863900.066549,88822.000,15139,2,EA,1,100,0.596702
1576863900.133579,88878.500,15158,2,EA,1,100,0.596603
1576863900.200610,88935.000,15158,2,EA,1,100,0.596591
1576863900.268826,88992.500,15176,2,EA,1,100,0.596901
1576863900.337043,89050.000,15176,2,EA,1,100,0.596470
1576863900.398735,89102.000,15194,1,EA,1,100,0.596426
1576863900.462799,89156.000,15211,2,EA,1,100,0.596663
1576863900.526864,89210.000,15211,2,EA,1,100,0.596554
1576863900.595673,89268.000,15229,2,EA,1,100,0.596595
1576863900.664483,89326.000,15229,2,EA,1,100,0.596665
1576863900.731514,89382.500,15247,2,EA,1,100,0.596726
1576863900.798544,89439.000,15247,2,EA,1,100,0.596531
1576863900.867947,89497.500,15263,2,EA,1,100,0.596508
1576863900.937350,89556.000,15263,2,EA,1,100,0.596821
1576863900.997855,89607.000,15281,1,EA,1,100,0.596801
1576863901.061326,89660.500,15300,2,EA,1,100,0.596541
1576863901.124797,89714.000,15300,2,EA,1,100,0.596526
1576863901.192421,89771.000,15318,2,EA,1,100,0.596796
1576863901.260044,89828.000,15318,2,EA,1,100,0.596702
1576863901.327075,89884.500,15336,2,EA,1,100,0.596491
1576863901.394105,89941.000,15336,2,EA,1,100,0.596551
1576863901.462915,89999.000,15354,2,EA,1,100,0.596753
1576863901.531724,90057.000,15354,2,EA,1,100,0.596605
1576863901.601721,90116.000,15372,1,EA,1,100,0.596399
1576863901.670531,90174.000,15389,2,EA,1,100,0.596784
1576863901.739340,90232.000,15389,2,EA,1,100,0.596821
1576863901.809930,90291.500,15407,2,EA,1,100,0.596577
1576863901.880519,90351.000,15407,2,EA,1,100,0.596726
1576863901.946956,90407.000,15423,1,EA,1,100,0.596842
1576863902.018139,90467.000,15441,2,EA,1,100,0.596560
1576863902.089322,90527.000,15441,2,EA,1,100,0.596433
1576863902.154572,90582.000,15460,2,EA,1,100,0.596676
1576863902.219823,90637.000,15460,2,EA,1,100,0.596676
1576863902.282701,90690.000,15478,2,EA,1,100,0.596720
1576863902.345579,90743.000,15478,2,EA,1,100,0.596689
1576863902.411423,90798.500,15496,2,EA,1,100,0.596781
1576863902.477267,90854.000,15496,2,EA,1,100,0.596643
1576863902.544890,90911.000,15514,2,EA,1,100,0.596494
1576863902.612514,90968.000,15514,2,EA,1,100,0.596614
1576863902.681324,91026.000,15532,1,EA,1,100,0.596659
1576863902.750133,91084.000,15549,2,EA,1,100,0.596483
1576863902.818943,91142.000,15549,2,EA,1,100,0.596423
1576863902.883008,91196.000,15567,2,EA,1,100,0.596709
1576863902.947072,91250.000,15567,2,EA,1,100,0.596507
1576863903.011136,91304.000,15585,2,EA,1,100,0.596455
1576863903.075201,91358.000,15585,2,EA,1,100,0.596651
1576863903.142824,91415.000,15602,2,EA,1,100,0.596736
1576863903.210448,91472.000,15602,2,EA,1,100,0.596446
1576863903.278071,91529.000,15620,1,EA,1,100,0.596328
1576863903.346881,91587.000,15638,2,EA,1,100,0.596643
1576863903.415691,91645.000,15638,2,EA,1,100,0.596610
1576863903.479162,91698.500,15656,2,EA,1,100,0.596336
1576863903.542633,91752.000,15656,2,EA,1,100,0.596453
1576863903.607884,91807.000,15674,2,EA,1,100,0.596731
1576863903.673134,91862.000,15674,2,EA,1,100,0.596590
1576863903.739572,91918.000,15692,2,EA,1,100,0.596544
1576863903.806009,91974.000,15692,2,EA,1,100,0.596530
1576863903.877191,92034.000,15710,1,EA,1,100,0.596904
1576863903.944815,92091.000,15727,2,EA,1,100,0.596539
1576863904.012438,92148.000,15727,2,EA,1,100,0.596516
1576863904.077689,92203.000,15745,2,EA,1,100,0.596747
1576863904.142940,92258.000,15745,2,EA,1,100,0.596688
1576863904.207795,92312.667,15767,3,EA,1,100,0.596497
1576863904.272650,92367.333,15767,3,EA,1,100,0.596695
1576863904.337505,92422.000,15767,3,EA,1,100,0.596810
1576863904.407501,92481.000,15785,2,EA,1,100,0.596838
1576863904.477498,92540.000,15785,2,EA,1,100,0.596605
1576863904.543935,92596.000,15805,1,EA,1,100,0.596630
1576863904.613338,92654.500,15822,2,EA,1,100,0.596763
1576863904.682741,92713.000,15822,2,EA,1,100,0.596860
1576863904.743839,92764.500,15840,2,EA,1,100,0.596701
1576863904.804938,92816.000,15840,2,EA,1,100,0.596823
1576863904.869002,92870.000,15858,2,EA,1,100,0.596929
1576863904.933066,92924.000,15858,2,EA,1,100,0.596771
1576863905.003063,92983.000,15874,2,EA,1,100,0.596713
1576863905.073059,93042.000,15874,2,EA,1,100,0.596710
1576863905.138309,93097.000,15893,1,EA,1,100,0.596853
1576863905.209492,93157.000,15911,2,EA,1,100,0.596755
1576863905.280675,93217.000,15911,2,EA,1,100,0.596720
1576863905.348891,93274.500,15929,2,EA,1,100,0.596972
1576863905.417108,93332.000,15929,2,EA,1,100,0.596933
1576863905.481766,93386.500,15947,2,EA,1,100,0.596783
1576863905.546423,93441.000,15947,2,EA,1,100,0.596687
1576863905.614047,93498.000,15965,1,EA,1,100,0.596944
1576863905.681077,93554.500,15982,2,EA,1,100,0.596615
1576863905.748107,93611.000,15982,2,EA,1,100,0.596568
1576863905.817510,93669.500,16000,2,EA,1,100,0.596901
1576863905.886913,93728.000,16000,2,EA,1,100,0.596697
1576863905.950978,93782.000,16018,2,EA,1,100,0.596592
1576863906.015042,93836.000,16018,2,EA,1,100,0.596693
1576863906.078513,93889.500,16034,2,EA,1,100,0.596808
1576863906.141984,93943.000,16034,2,EA,1,100,0.596538
1576863906.210201,94000.500,16053,2,EA,1,100,0.596411
1576863906.278418,94058.000,16053,2,EA,1,100,0.596597
1576863906.343668,94113.000,16071,1,EA,1,100,0.596850
1576863906.413665,94172.000,16089,2,EA,1,100,0.596591
1576863906.483661,94231.000,16089,2,EA,1,100,0.596638
1576863906.549505,94286.500,16107,2,EA,1,100,0.596867
1576863906.615349,94342.000,16107,2,EA,1,100,0.596513
1576863906.678820,94395.500,16125,2,EA,1,100,0.596519
1576863906.742291,94449.000,16125,2,EA,1,100,0.596491
1576863906.808135,94504.500,16143,2,EA,1,100,0.596770
1576863906.873979,94560.000,16143,2,EA,1,100,0.596537
1576863906.942788,94618.000,16161,1,EA,1,100,0.596486
1576863907.010412,94675.000,16178,2,EA,1,100,0.596689
1576863907.078035,94732.000,16178,2,EA,1,100,0.596726
1576863907.145066,94788.500,16197,2,EA,1,100,0.596440
1576863907.212096,94845.000,16197,2,EA,1,100,0.596423
1576863907.274974,94898.000,16213,2,EA,1,100,0.596689
1576863907.337852,94951.000,16213,2,EA,1,100,0.596446
1576863907.404289,95007.000,16231,2,EA,1,100,0.596328
1576863907.470726,95063.000,16231,2,EA,1,100,0.596612
1576863907.538350,95120.000,16249,1,EA,1,100,0.596564
1576863907.607753,95178.500,16267,2,EA,1,100,0.596320
1576863907.677155,95237.000,16267,2,EA,1,100,0.596367
1576863907.744186,95293.500,16285,2,EA,1,100,0.596620
1576863907.811216,95350.000,16285,2,EA,1,100,0.596402
1576863907.874094,95403.000,16303,2,EA,1,100,0.596282
1576863907.936972,95456.000,16303,2,EA,1,100,0.596451
1576863908.002816,95511.500,16321,2,EA,1,100,0.596606
1576863908.068660,95567.000,16321,2,EA,1,100,0.596341
1576863908.135097,95623.000,16340,1,EA,1,100,0.596312
1576863908.204500,95681.500,16357,2,EA,1,100,0.596481
1576863908.273903,95740.000,16357,2,EA,1,100,0.596518
1576863908.341527,95797.000,16375,2,EA,1,100,0.596321
1576863908.409150,95854.000,16375,2,EA,1,100,0.596352
1576863908.472028,95907.000,16391,2,EA,1,100,0.596644
1576863908.534906,95960.000,16391,2,EA,1,100,0.596393
1576863908.599563,96014.500,16409,2,EA,1,100,0.596224
1576863908.664221,96069.000,16409,2,EA,1,100,0.596435
1576863908.730065,96124.500,16427,2,EA,1,100,0.596736
1576863908.795909,96180.000,16427,2,EA,1,100,0.596550
1576863908.867091,96240.000,16445,1,EA,1,100,0.596306
1576863908.935308,96297.500,16463,2,EA,1,100,0.596580
1576863909.003525,96355.000,16463,2,EA,1,100,0.596407
1576863909.071741,96412.500,16481,2,EA,1,100,0.596384
1576863909.139958,96470.000,16481,2,EA,1,100,0.596414
1576863909.212327,96531.000,16500,1,EA,1,100,0.596472
1576863909.280544,96588.500,16517,2,EA,1,100,0.596186
1576863909.348760,96646.000,16517,2,EA,1,100,0.596417
1576863909.420536,96706.500,16535,2,EA,1,100,0.596572
1576863909.492312,96767.000,16535,2,EA,1,100,0.596392
1576863909.560529,96824.500,16551,2,EA,1,100,0.596386
1576863909.628745,96882.000,16551,2,EA,1,100,0.596341
1576863909.697555,96940.000,16569,1,EA,1,100,0.596623
1576863909.759840,96992.500,16587,2,EA,1,100,0.596189
1576863909.822125,97045.000,16587,2,EA,1,100,0.596135
1576863909.886189,97099.000,16605,2,EA,1,100,0.596514
1576863909.950253,97153.000,16605,2,EA,1,100,0.596444
1576863910.019656,97211.500,16623,2,EA,1,100,0.596331
1576863910.089059,97270.000,16623,2,EA,1,100,0.596466
1576863910.157276,97327.500,16642,2,EA,1,100,0.596527
1576863910.225493,97385.000,16642,2,EA,1,100,0.596200
1576863910.290743,97440.000,16663,3,EA,1,100,0.596203
1576863910.355994,97495.000,16663,3,EA,1,100,0.596390
1576863910.421245,97550.000,16663,3,EA,1,100,0.596391
1576863910.485309,97604.000,16683,1,EA,1,100,0.596481
1576863910.551746,97660.000,16701,2,EA,1,100,0.596158
1576863910.618183,97716.000,16701,2,EA,1,100,0.596056
1576863910.686400,97773.500,16719,2,EA,1,100,0.596412
1576863910.754617,97831.000,16719,2,EA,1,100,0.596182
1576863910.823426,97889.000,16737,2,EA,1,100,0.596140
1576863910.892236,97947.000,16737,2,EA,1,100,0.596199
1576863910.955708,98000.500,16755,2,EA,1,100,0.596264
1576863911.019179,98054.000,16755,2,EA,1,100,0.596083
1576863911.084430,98109.000,16773,1,EA,1,100,0.595913
1576863911.149680,98164.000,16792,2,EA,1,100,0.596255
1576863911.214931,98219.000,16792,2,EA,1,100,0.596315
1576863911.283148,98276.500,16809,2,EA,1,100,0.596078
1576863911.351364,98334.000,16809,2,EA,1,100,0.596089
1576863911.420767,98392.500,16826,2,EA,1,100,0.596295
1576863911.490170,98451.000,16826,2,EA,1,100,0.596096
1576863911.554235,98505.000,16843,2,EA,1,100,0.595938
1576863911.618299,98559.000,16843,2,EA,1,100,0.596187
1576863911.683550,98614.000,16861,1,EA,1,100,0.596217
1576863911.747614,98668.000,16879,2,EA,1,100,0.596012
1576863911.811678,98722.000,16879,2,EA,1,100,0.595977
1576863911.879895,98779.500,16897,2,EA,1,100,0.596184
1576863911.948112,98837.000,16897,2,EA,1,100,0.596239
1576863912.017515,98895.500,16915,2,EA,1,100,0.595880
1576863912.086918,98954.000,16915,2,EA,1,100,0.595993
1576863912.152168,99009.000,16934,2,EA,1,100,0.596104
1576863912.217419,99064.000,16934,2,EA,1,100,0.595860
1576863912.281483,99118.000,16952,1,EA,1,100,0.595797
1576863912.344954,99171.500,16970,2,EA,1,100,0.596149
1576863912.408426,99225.000,16970,2,EA,1,100,0.596039
1576863912.476049,99282.000,16987,2,EA,1,100,0.595818
1576863912.543673,99339.000,16987,2,EA,1,100,0.595764
1576863912.614262,99398.500,17005,2,EA,1,100,0.596040
1576863912.684851,99458.000,17005,2,EA,1,100,0.595859
1576863912.751289,99514.000,17021,1,EA,1,100,0.595784
1576863912.821878,99573.500,17039,2,EA,1,100,0.596044
1576863912.892467,99633.000,17039,2,EA,1,100,0.595869
1576863912.960684,99690.500,17057,2,EA,1,100,0.595673
1576863913.028901,99748.000,17057,2,EA,1,100,0.595721
1576863913.095931,99804.500,17075,2,EA,1,100,0.595931
1576863913.162961,99861.000,17075,2,EA,1,100,0.595784
1576863913.235330,99922.000,17094,1,EA,1,100,0.595667
1576863913.304733,99980.500,17111,2,EA,1,100,0.595823
1576863913.374136,100039.000,17111,2,EA,1,100,0.595893
1576863913.440573,100095.000,17129,2,EA,1,100,0.595607
1576863913.507010,100151.000,17129,2,EA,1,100,0.595569
1576863913.569295,100203.500,17147,2,EA,1,100,0.595893
1576863913.631580,100256.000,17147,2,EA,1,100,0.595691
1576863913.698017,100312.000,17163,2,EA,1,100,0.595459
1576863913.764454,100368.000,17163,2,EA,1,100,0.595670
1576863913.834450,100427.000,17181,1,EA,1,100,0.595734
1576863913.902074,100484.000,17199,2,EA,1,100,0.595450
1576863913.969697,100541.000,17199,2,EA,1,100,0.595470
1576863914.037914,100598.500,17217,2,EA,1,100,0.595791
1576863914.106131,100656.000,17217,2,EA,1,100,0.595657
1576863914.169009,100709.000,17236,2,EA,1,100,0.595463
1576863914.231887,100762.000,17236,2,EA,1,100,0.595574
1576863914.298324,100818.000,17254,2,EA,1,100,0.595703
1576863914.364761,100874.000,17254,2,EA,1,100,0.595411
1576863914.432384,100931.000,17272,1,EA,1,100,0.595472
1576863914.500601,100988.500,17290,2,EA,1,100,0.595642
1576863914.568818,101046.000,17290,2,EA,1,100,0.595659
1576863914.636441,101103.000,17307,2,EA,1,100,0.595429
1576863914.704065,101160.000,17307,2,EA,1,100,0.595523
1576863914.766943,101213.000,17325,2,EA,1,100,0.595618
1576863914.829820,101266.000,17325,2,EA,1,100,0.595606
1576863914.895664,101321.500,17343,2,EA,1,100,0.595409
1576863914.961508,101377.000,17343,2,EA,1,100,0.595521
1576863915.029132,101434.000,17359,1,EA,1,100,0.595679
1576863915.098535,101492.500,17378,2,EA,1,100,0.595406
1576863915.167938,101551.000,17378,2,EA,1,100,0.595312
1576863915.237934,101610.000,17396,2,EA,1,100,0.595690
1576863915.307930,101669.000,17396,2,EA,1,100,0.595487
1576863915.369029,101720.500,17414,2,EA,1,100,0.595323
1576863915.430127,101772.000,17414,2,EA,1,100,0.595469
1576863915.495378,101827.000,17432,2,EA,1,100,0.595644
1576863915.560629,101882.000,17432,2,EA,1,100,0.595430
1576863915.628252,101939.000,17450,1,EA,1,100,0.595239
1576863915.697062,101997.000,17467,2,EA,1,100,0.595477
1576863915.765872,102055.000,17467,2,EA,1,100,0.595429
1576863915.835868,102114.000,17485,2,EA,1,100,0.595326
1576863915.905864,102173.000,17485,2,EA,1,100,0.595241
1576863915.967556,102225.000,17503,2,EA,1,100,0.595498
1576863916.029247,102277.000,17503,2,EA,1,100,0.595356
1576863916.092718,102330.500,17519,2,EA,1,100,0.595288
1576863916.156190,102384.000,17519,2,EA,1,100,0.595292
1576863916.222627,102440.000,17538,2,EA,1,100,0.595551
1576863916.289064,102496.000,17538,2,EA,1,100,0.595149
1576863916.356094,102552.500,17559,2,EA,1,100,0.595179
1576863916.423124,102609.000,17559,2,EA,1,100,0.595298
1576863916.489562,102665.000,17577,2,EA,1,100,0.595436
1576863916.555999,102721.000,17577,2,EA,1,100,0.595409
1576863916.627774,102781.500,17596,2,EA,1,100,0.595090
1576863916.699550,102842.000,17596,2,EA,1,100,0.595138
1576863916.767767,102899.500,17612,2,EA,1,100,0.595374
1576863916.835984,102957.000,17612,2,EA,1,100,0.595191
1576863916.907166,103017.000,17630,1,EA,1,100,0.594943
1576863916.975383,103074.500,17648,2,EA,1,100,0.595408
1576863917.043599,103132.000,17648,2,EA,1,100,0.595306
1576863917.111816,103189.500,17666,2,EA,1,100,0.595204
1576863917.180033,103247.000,17666,2,EA,1,100,0.595263
1576863917.243504,103300.500,17685,2,EA,1,100,0.595387
1576863917.306975,103354.000,17685,2,EA,1,100,0.595179
1576863917.371633,103408.500,17703,2,EA,1,100,0.595038
1576863917.436290,103463.000,17703,2,EA,1,100,0.595271
1576863917.503913,103520.000,17721,1,EA,1,100,0.595259
1576863917.572130,103577.500,17738,2,EA,1,100,0.595130
1576863917.640347,103635.000,17738,2,EA,1,100,0.594990
1576863917.709750,103693.500,17756,2,EA,1,100,0.595379
1576863917.779153,103752.000,17756,2,EA,1,100,0.595084
1576863917.842624,103805.500,17772,2,EA,1,100,0.595055
1576863917.906095,103859.000,17772,2,EA,1,100,0.595260
1576863917.969566,103912.500,17790,2,EA,1,100,0.595361
1576863918.033037,103966.000,17790,2,EA,1,100,0.595068
1576863918.098288,104021.000,17808,1,EA,1,100,0.595108
1576863918.166505,104078.500,17827,2,EA,1,100,0.595301
1576863918.234721,104136.000,17827,2,EA,1,100,0.595321
1576863918.303531,104194.000,17845,2,EA,1,100,0.595169
1576863918.372341,104252.000,17845,2,EA,1,100,0.595015
1576863918.438185,104307.500,17863,2,EA,1,100,0.595307
1576863918.504029,104363.000,17863,2,EA,1,100,0.595113
1576863918.566314,104415.500,17881,2,EA,1,100,0.595145
1576863918.628599,104468.000,17881,2,EA,1,100,0.595368
1576863918.697408,104526.000,17899,1,EA,1,100,0.595527
1576863918.764439,104582.500,17917,2,EA,1,100,0.595279
1576863918.831469,104639.000,17917,2,EA,1,100,0.595191
1576863918.900279,104697.000,17934,2,EA,1,100,0.595544
1576863918.969089,104755.000,17934,2,EA,1,100,0.595331
1576863919.036712,104812.000,17950,2,EA,1,100,0.595094
1576863919.104336,104869.000,17950,2,EA,1,100,0.595373
1576863919.165434,104920.500,17969,2,EA,1,100,0.595446
1576863919.226532,104972.000,17969,2,EA,1,100,0.595346
1576863919.295342,105030.000,17987,1,EA,1,100,0.595153
1576863919.361779,105086.000,18005,2,EA,1,100,0.595518
1576863919.428216,105142.000,18005,2,EA,1,100,0.595426
1576863919.496433,105199.500,18023,2,EA,1,100,0.595286
1576863919.564650,105257.000,18023,2,EA,1,100,0.595306
1576863919.632273,105314.000,18041,2,EA,1,100,0.595604
1576863919.699897,105371.000,18041,2,EA,1,100,0.595295
1576863919.762775,105424.000,18059,2,EA,1,100,0.595166
1576863919.825653,105477.000,18059,2,EA,1,100,0.595460
1576863919.890903,105532.000,18077,2,EA,1,100,0.595552
1576863919.956154,105587.000,18077,2,EA,1,100,0.595380
1576863920.024964,105645.000,18095,1,EA,1,100,0.595211
1576863920.090808,105700.500,18113,2,EA,1,100,0.595534
1576863920.156652,105756.000,18113,2,EA,1,100,0.595440
1576863920.223682,105812.500,18131,2,EA,1,100,0.595267
1576863920.290712,105869.000,18131,2,EA,1,100,0.595314
1576863920.358336,105926.000,18149,2,EA,1,100,0.595488
1576863920.425959,105983.000,18149,2,EA,1,100,0.595301
1576863920.491210,106038.000,18165,2,EA,1,100,0.595132
1576863920.556461,106093.000,18165,2,EA,1,100,0.595426
1576863920.625271,106151.000,18183,1,EA,1,100,0.595482
1576863920.692894,106208.000,18201,2,EA,1,100,0.595247
1576863920.760517,106265.000,18201,2,EA,1,100,0.595350
1576863920.831700,106325.000,18219,2,EA,1,100,0.595482
1576863920.902883,106385.000,18219,2,EA,1,100,0.595350
1576863920.965168,106437.500,18237,2,EA,1,100,0.595254
1576863921.027452,106490.000,18237,2,EA,1,100,0.595291
1576863921.091516,106544.000,18255,2,EA,1,100,0.595460
1576863921.155581,106598.000,18255,2,EA,1,100,0.595237
1576863921.224391,106656.000,18274,1,EA,1,100,0.595123
1576863921.292607,106713.500,18291,2,EA,1,100,0.595287
1576863921.360824,106771.000,18291,2,EA,1,100,0.595374
1576863921.430820,106830.000,18309,2,EA,1,100,0.595170
1576863921.500817,106889.000,18309,2,EA,1,100,0.595040
1576863921.568440,106946.000,18325,2,EA,1,100,0.595329
1576863921.636063,107003.000,18325,2,EA,1,100,0.595022
1576863921.707246,107063.000,18343,1,EA,1,100,0.595026
1576863921.770124,107116.000,18361,2,EA,1,100,0.595206
1576863921.833002,107169.000,18361,2,EA,1,100,0.595139
1576863921.897066,107223.000,18379,2,EA,1,100,0.594939
1576863921.961131,107277.000,18379,2,EA,1,100,0.595019
1576863922.027568,107333.000,18397,2,EA,1,100,0.595265
1576863922.094005,107389.000,18397,2,EA,1,100,0.595196
1576863922.161035,107445.500,18416,2,EA,1,100,0.594858
1576863922.228065,107502.000,18416,2,EA,1,100,0.595138
1576863922.301621,107564.000,18434,1,EA,1,100,0.595095
1576863922.366081,107618.333,18454,3,EA,1,100,0.594856
1576863922.430540,107672.667,18454,3,EA,1,100,0.594815
1576863922.495000,107727.000,18454,3,EA,1,100,0.595049
1576863922.559064,107781.000,18474,2,EA,1,100,0.595096
1576863922.623129,107835.000,18474,2,EA,1,100,0.595035
1576863922.691939,107893.000,18492,2,EA,1,100,0.594882
1576863922.760749,107951.000,18492,2,EA,1,100,0.594930
1576863922.830152,108009.500,18510,2,EA,1,100,0.595094
1576863922.899554,108068.000,18510,2,EA,1,100,0.594907
1576863922.967178,108125.000,18528,1,EA,1,100,0.594758
1576863923.030056,108178.000,18545,2,EA,1,100,0.595107
1576863923.092934,108231.000,18545,2,EA,1,100,0.595051
1576863923.156998,108285.000,18564,2,EA,1,100,0.594794
1576863923.221063,108339.000,18564,2,EA,1,100,0.594753
1576863923.289279,108396.500,18582,2,EA,1,100,0.594942
1576863923.357496,108454.000,18582,2,EA,1,100,0.594939
1576863923.426899,108512.500,18598,2,EA,1,100,0.594670
1576863923.496302,108571.000,18598,2,EA,1,100,0.594874
1576863923.563926,108628.000,18616,1,EA,1,100,0.595189
1576863923.628583,108682.500,18634,2,EA,1,100,0.594657
1576863923.693241,108737.000,18634,2,EA,1,100,0.594691
1576863923.757305,108791.000,18652,2,EA,1,100,0.594973
1576863923.821369,108845.000,18652,2,EA,1,100,0.595063
1576863923.884247,108898.000,18670,2,EA,1,100,0.594665
1576863923.947125,108951.000,18670,2,EA,1,100,0.594652
1576863924.012376,109006.000,18688,2,EA,1,100,0.594966
1576863924.077627,109061.000,18688,2,EA,1,100,0.594893
1576863924.141098,109114.500,18707,2,EA,1,100,0.594579
1576863924.204569,109168.000,18707,2,EA,1,100,0.594793
1576863924.271006,109224.000,18725,2,EA,1,100,0.595079
1576863924.337443,109280.000,18725,2,EA,1,100,0.594747
1576863924.407439,109339.000,18743,1,EA,1,100,0.594456
1576863924.475063,109396.000,18760,2,EA,1,100,0.594843
1576863924.542686,109453.000,18760,2,EA,1,100,0.594762
1576863924.610310,109510.000,18778,2,EA,1,100,0.594597
1576863924.677933,109567.000,18778,2,EA,1,100,0.594821
1576863924.740811,109620.000,18794,2,EA,1,100,0.594969
1576863924.803689,109673.000,18794,2,EA,1,100,0.594691
1576863924.871906,109730.500,18812,2,EA,1,100,0.594709
1576863924.940122,109788.000,18812,2,EA,1,100,0.594790
1576863925.007746,109845.000,18830,1,EA,1,100,0.594818
1576863925.072997,109900.000,18849,2,EA,1,100,0.594670
1576863925.138247,109955.000,18849,2,EA,1,100,0.594682
1576863925.207650,110013.500,18867,2,EA,1,100,0.594822
1576863925.277053,110072.000,18867,2,EA,1,100,0.594727
1576863925.345270,110129.500,18885,2,EA,1,100,0.594633
1576863925.413487,110187.000,18885,2,EA,1,100,0.594756
1576863925.481110,110244.000,18903,1,EA,1,100,0.594852
1576863925.543395,110296.500,18920,2,EA,1,100,0.594743
1576863925.605680,110349.000,18920,2,EA,1,100,0.594752
1576863925.670930,110404.000,18938,2,EA,1,100,0.595017
1576863925.736181,110459.000,18938,2,EA,1,100,0.595021
1576863925.803805,110516.000,18956,2,EA,1,100,0.594823
1576863925.871428,110573.000,18956,2,EA,1,100,0.594819
1576863925.939645,110630.500,18972,2,EA,1,100,0.595150
1576863926.007861,110688.000,18972,2,EA,1,100,0.595100
1576863926.074299,110744.000,18990,2,EA,1,100,0.594957
1576863926.140736,110800.000,18990,2,EA,1,100,0.595241
1576863926.202427,110852.000,19009,1,EA,1,100,0.595437
1576863926.267678,110907.000,19027,2,EA,1,100,0.595338
1576863926.332929,110962.000,19027,2,EA,1,100,0.595242
1576863926.402925,111021.000,19045,2,EA,1,100,0.595504
1576863926.472921,111080.000,19045,2,EA,1,100,0.595500
1576863926.539951,111136.500,19063,2,EA,1,100,0.595490
1576863926.606982,111193.000,19063,2,EA,1,100,0.595540
1576863926.679351,111254.000,19081,1,EA,1,100,0.595815
1576863926.739856,111305.000,19099,2,EA,1,100,0.595645
1576863926.800361,111356.000,19099,2,EA,1,100,0.595762
1576863926.863832,111409.500,19116,2,EA,1,100,0.596008
1576863926.927303,111463.000,19116,2,EA,1,100,0.596079
1576863926.996706,111521.500,19134,2,EA,1,100,0.595885
1576863927.066109,111580.000,19134,2,EA,1,100,0.595947
1576863927.132546,111636.000,19153,2,EA,1,100,0.596239
1576863927.198984,111692.000,19153,2,EA,1,100,0.596184
1576863927.267793,111750.000,19169,2,EA,1,100,0.595943
1576863927.336603,111808.000,19169,2,EA,1,100,0.596328
1576863927.404227,111865.000,19187,1,EA,1,100,0.596446
1576863927.471850,111922.000,19205,2,EA,1,100,0.596124
1576863927.539474,111979.000,19205,2,EA,1,100,0.596242
1576863927.602945,112032.500,19223,2,EA,1,100,0.596556
1576863927.666416,112086.000,19223,2,EA,1,100,0.596431
1576863927.732260,112141.500,19241,2,EA,1,100,0.596233
1576863927.798104,112197.000,19241,2,EA,1,100,0.596574
1576863927.860982,112250.000,19259,2,EA,1,100,0.596713
1576863927.923860,112303.000,19259,2,EA,1,100,0.596448
1576863927.991483,112360.000,19277,1,EA,1,100,0.596185
1576863928.058513,112416.500,19296,2,EA,1,100,0.596688
1576863928.125544,112473.000,19296,2,EA,1,100,0.596575
1576863928.194947,112531.500,19313,2,EA,1,100,0.596380
1576863928.264350,112590.000,19313,2,EA,1,100,0.596510
1576863928.333160,112648.000,19331,2,EA,1,100,0.596747
1576863928.401969,112706.000,19331,2,EA,1,100,0.596549
1576863928.469593,112763.000,19350,3,EA,1,100,0.596352
1576863928.537216,112820.000,19350,3,EA,1,100,0.596703
1576863928.604840,112877.000,19350,3,EA,1,100,0.596649
1576863928.668904,112931.000,19370,1,EA,1,100,0.596746
1576863928.732969,112985.000,19387,2,EA,1,100,0.596496
1576863928.797033,113039.000,19387,2,EA,1,100,0.596359
1576863928.865250,113096.500,19405,2,EA,1,100,0.596529
1576863928.933466,113154.000,19405,2,EA,1,100,0.596619
1576863929.001090,113211.000,19421,2,EA,1,100,0.596431
1576863929.068713,113268.000,19421,2,EA,1,100,0.596531
1576863929.137523,113326.000,19440,1,EA,1,100,0.596743
1576863929.202181,113380.500,19458,2,EA,1,100,0.596514
1576863929.266838,113435.000,19458,2,EA,1,100,0.596451
1576863929.330309,113488.500,19476,2,EA,1,100,0.596696
1576863929.393780,113542.000,19476,2,EA,1,100,0.596572
1576863929.460811,113598.500,19494,2,EA,1,100,0.596472
1576863929.527841,113655.000,19494,2,EA,1,100,0.596511
1576863929.597244,113713.500,19512,2,EA,1,100,0.596723
1576863929.666647,113772.000,19512,2,EA,1,100,0.596684
1576863929.734864,113829.500,19530,2,EA,1,100,0.596418
1576863929.803080,113887.000,19530,2,EA,1,100,0.596539
1576863929.868331,113942.000,19548,1,EA,1,100,0.596545
1576863929.930023,113994.000,19565,2,EA,1,100,0.596329
1576863929.991714,114046.000,19565,2,EA,1,100,0.596403
1576863930.059338,114103.000,19584,2,EA,1,100,0.596660
1576863930.126961,114160.000,19584,2,EA,1,100,0.596491
1576863930.196364,114218.500,19602,2,EA,1,100,0.596367
1576863930.265767,114277.000,19602,2,EA,1,100,0.596483
1576863930.333391,114334.000,19618,2,EA,1,100,0.596589
1576863930.401014,114391.000,19618,2,EA,1,100,0.596366
1576863930.467451,114447.000,19636,1,EA,1,100,0.596261
1576863930.529143,114499.000,19654,2,EA,1,100,0.596507
1576863930.590834,114551.000,19654,2,EA,1,100,0.596408
1576863930.655492,114605.500,19672,2,EA,1,100,0.596179
1576863930.720150,114660.000,19672,2,EA,1,100,0.596195
1576863930.790146,114719.000,19690,2,EA,1,100,0.596416
1576863930.860142,114778.000,19690,2,EA,1,100,0.596459
1576863930.928359,114835.500,19708,2,EA,1,100,0.596186
1576863930.996575,114893.000,19708,2,EA,1,100,0.596540
1576863931.068944,114954.000,19726,1,EA,1,100,0.596409
1576863931.137161,115011.500,19744,2,EA,1,100,0.596258
1576863931.205378,115069.000,19744,2,EA,1,100,0.596087
1576863931.268849,115122.500,19762,2,EA,1,100,0.596380
1576863931.332320,115176.000,19762,2,EA,1,100,0.596106
1576863931.402316,115235.000,19778,2,EA,1,100,0.596053
1576863931.472312,115294.000,19778,2,EA,1,100,0.596170
1576863931.534597,115346.500,19796,2,EA,1,100,0.596299
1576863931.596882,115399.000,19796,2,EA,1,100,0.595985
1576863931.660946,115453.000,19814,1,EA,1,100,0.595951
1576863931.729756,115511.000,19832,2,EA,1,100,0.596112
1576863931.798566,115569.000,19832,2,EA,1,100,0.595977
1576863931.862630,115623.000,19850,2,EA,1,100,0.595873
1576863931.926695,115677.000,19850,2,EA,1,100,0.595862
1576863931.996098,115735.500,19868,2,EA,1,100,0.596179
1576863932.065501,115794.000,19868,2,EA,1,100,0.595951
1576863932.130751,115849.000,19887,1,EA,1,100,0.595823
1576863932.201934,115909.000,19905,2,EA,1,100,0.595955
1576863932.273117,115969.000,19905,2,EA,1,100,0.596046
1576863932.336588,116022.500,19922,2,EA,1,100,0.595758
1576863932.400059,116076.000,19922,2,EA,1,100,0.595678
1576863932.464716,116130.500,19940,2,EA,1,100,0.595996
1576863932.529374,116185.000,19940,2,EA,1,100,0.595898
1576863932.596404,116241.500,19957,2,EA,1,100,0.595610
1576863932.663435,116298.000,19957,2,EA,1,100,0.595681
1576863932.731058,116355.000,19974,1,EA,1,100,0.596024
1576863932.799868,116413.000,19992,2,EA,1,100,0.595594
1576863932.868678,116471.000,19992,2,EA,1,100,0.595502
1576863932.933335,116525.500,20010,2,EA,1,100,0.595869
1576863932.997993,116580.000,20010,2,EA,1,100,0.595745
1576863933.060871,116633.000,20028,2,EA,1,100,0.595570
1576863933.123749,116686.000,20028,2,EA,1,100,0.595493
1576863933.192559,116744.000,20047,2,EA,1,100,0.595681
1576863933.261368,116802.000,20047,2,EA,1,100,0.595415
1576863933.328399,116858.500,20065,2,EA,1,100,0.595518
1576863933.395429,116915.000,20065,2,EA,1,100,0.595588
1576863933.466612,116975.000,20083,1,EA,1,100,0.595671
1576863933.531862,117030.000,20100,2,EA,1,100,0.595470
1576863933.597113,117085.000,20100,2,EA,1,100,0.595352
1576863933.660584,117138.500,20118,2,EA,1,100,0.595436
1576863933.724055,117192.000,20118,2,EA,1,100,0.595368
1576863933.791085,117248.500,20136,2,EA,1,100,0.595159
1576863933.858116,117305.000,20136,2,EA,1,100,0.595424
1576863933.925739,117362.000,20152,2,EA,1,100,0.595518
1576863933.993363,117419.000,20152,2,EA,1,100,0.595329
1576863934.064545,117479.000,20170,1,EA,1,100,0.595230
1576863934.129796,117534.000,20189,2,EA,1,100,0.595569
1576863934.195047,117589.000,20189,2,EA,1,100,0.595377
1576863934.257925,117642.000,20207,2,EA,1,100,0.595155
1576863934.320803,117695.000,20207,2,EA,1,100,0.595236
1576863934.386647,117750.500,20225,2,EA,1,100,0.595384
1576863934.452491,117806.000,20225,2,EA,1,100,0.595188
1576863934.520905,117863.667,20246,3,EA,1,100,0.595179
1576863934.589319,117921.333,20246,3,EA,1,100,0.595125
1576863934.657734,117979.000,20246,3,EA,1,100,0.595381
1576863934.724171,118035.000,20266,1,EA,1,100,0.595381
1576863934.793574,118093.500,20284,2,EA,1,100,0.595066
1576863934.862977,118152.000,20284,2,EA,1,100,0.594989
1576863934.932380,118210.500,20302,2,EA,1,100,0.595242
1576863935.001783,118269.000,20302,2,EA,1,100,0.595125
1576863935.070000,118326.500,20320,2,EA,1,100,0.594951
1576863935.138216,118384.000,20320,2,EA,1,100,0.594990
1576863935.210585,118445.000,20339,1,EA,1,100,0.595102
1576863935.279395,118503.000,20356,2,EA,1,100,0.594915
1576863935.348205,118561.000,20356,2,EA,1,100,0.594889
1576863935.415828,118618.000,20374,2,EA,1,100,0.595047
1576863935.483452,118675.000,20374,2,EA,1,100,0.594990
1576863935.546330,118728.000,20390,2,EA,1,100,0.594674
1576863935.609208,118781.000,20390,2,EA,1,100,0.594963
1576863935.674459,118836.000,20408,2,EA,1,100,0.595114
1576863935.739709,118891.000,20408,2,EA,1,100,0.594686
1576863935.809705,118950.000,20426,1,EA,1,100,0.594689
1576863935.876736,119006.500,20444,2,EA,1,100,0.594889
1576863935.943766,119063.000,20444,2,EA,1,100,0.594863
1576863936.013169,119121.500,20462,2,EA,1,100,0.594694
1576863936.082572,119180.000,20462,2,EA,1,100,0.594678
1576863936.145450,119233.000,20481,2,EA,1,100,0.594856
1576863936.208328,119286.000,20481,2,EA,1,100,0.594595
1576863936.272985,119340.500,20499,2,EA,1,100,0.594608
1576863936.337643,119395.000,20499,2,EA,1,100,0.594752
1576863936.405267,119452.000,20517,1,EA,1,100,0.594782
1576863936.474076,119510.000,20534,2,EA,1,100,0.594453
1576863936.542886,119568.000,20534,2,EA,1,100,0.594550
1576863936.611103,119625.500,20552,2,EA,1,100,0.594776
1576863936.679320,119683.000,20552,2,EA,1,100,0.594772
1576863936.741604,119735.500,20568,2,EA,1,100,0.594387
1576863936.803889,119788.000,20568,2,EA,1,100,0.594553
1576863936.869140,119843.000,20586,2,EA,1,100,0.594713
1576863936.934391,119898.000,20586,2,EA,1,100,0.594473
1576863937.002014,119955.000,20604,1,EA,1,100,0.594480
1576863937.071417,120013.500,20623,2,EA,1,100,0.594584
1576863937.140820,120072.000,20623,2,EA,1,100,0.594519
1576863937.211410,120131.500,20641,2,EA,1,100,0.594318
1576863937.281999,120191.000,20641,2,EA,1,100,0.594308
1576863937.343690,120243.000,20659,2,EA,1,100,0.594549
1576863937.405382,120295.000,20659,2,EA,1,100,0.594217
1576863937.470040,120349.500,20677,2,EA,1,100,0.594229
1576863937.534697,120404.000,20677,2,EA,1,100,0.594525
1576863937.602321,120461.000,20695,1,EA,1,100,0.594487
1576863937.671130,120519.000,20712,2,EA,1,100,0.594344
1576863937.739940,120577.000,20712,2,EA,1,100,0.594225
1576863937.809937,120636.000,20730,2,EA,1,100,0.594528
1576863937.879933,120695.000,20730,2,EA,1,100,0.594276
1576863937.942811,120748.000,20746,2,EA,1,100,0.594204
1576863938.005689,120801.000,20746,2,EA,1,100,0.594301
1576863938.069160,120854.500,20764,2,EA,1,100,0.594424
1576863938.132631,120908.000,20764,2,EA,1,100,0.594214
1576863938.202627,120967.000,20783,1,EA,1,100,0.594043
1576863938.269064,121023.000,20801,2,EA,1,100,0.594372
1576863938.335501,121079.000,20801,2,EA,1,100,0.594335
1576863938.406091,121138.500,20819,2,EA,1,100,0.594086
1576863938.476680,121198.000,20819,2,EA,1,100,0.594266
1576863938.544897,121255.500,20837,2,EA,1,100,0.594389
1576863938.613113,121313.000,20837,2,EA,1,100,0.594126
1576863938.683110,121372.000,20855,1,EA,1,100,0.593980
1576863938.751326,121429.500,20872,2,EA,1,100,0.594172
1576863938.819543,121487.000,20872,2,EA,1,100,0.594204
1576863938.887760,121544.500,20890,2,EA,1,100,0.593902
1576863938.955976,121602.000,20890,2,EA,1,100,0.594034
1576863939.025379,121660.500,20906,2,EA,1,100,0.594164
1576863939.094782,121719.000,20906,2,EA,1,100,0.594093
1576863939.163592,121777.000,20925,1,EA,1,100,0.593874
1576863939.227657,121831.000,20943,2,EA,1,100,0.594180
1576863939.291721,121885.000,20943,2,EA,1,100,0.594144
1576863939.355785,121939.000,20961,2,EA,1,100,0.593847
1576863939.419850,121993.000,20961,2,EA,1,100,0.593971
1576863939.486880,122049.500,20979,2,EA,1,100,0.594129
1576863939.553910,122106.000,20979,2,EA,1,100,0.594048
1576863939.623906,122165.000,20997,2,EA,1,100,0.593735
1576863939.693903,122224.000,20997,2,EA,1,100,0.593944
1576863939.760340,122280.000,21015,1,EA,1,100,0.594097
1576863939.829743,122338.500,21032,2,EA,1,100,0.593846
1576863939.899146,122397.000,21032,2,EA,1,100,0.593880
1576863939.966769,122454.000,21050,2,EA,1,100,0.594041
1576863940.034393,122511.000,21050,2,EA,1,100,0.593870
1576863940.097864,122564.500,21066,2,EA,1,100,0.593744
1576863940.161335,122618.000,21066,2,EA,1,100,0.593829
1576863940.225993,122672.500,21085,2,EA,1,100,0.594017
1576863940.290650,122727.000,21085,2,EA,1,100,0.593741
1576863940.358274,122784.000,21103,1,EA,1,100,0.593639
1576863940.425897,122841.000,21121,2,EA,1,100,0.593917
1576863940.493520,122898.000,21121,2,EA,1,100,0.593888
1576863940.561935,122955.667,21142,3,EA,1,100,0.593634
1576863940.630349,123013.333,21142,3,EA,1,100,0.593533
1576863940.698764,123071.000,21142,3,EA,1,100,0.593823
1576863940.760455,123123.000,21162,2,EA,1,100,0.593975
1576863940.822147,123175.000,21162,2,EA,1,100,0.593766
1576863940.889770,123232.000,21178,2,EA,1,100,0.593651
1576863940.957394,123289.000,21178,2,EA,1,100,0.593728
1576863941.025017,123346.000,21196,1,EA,1,100,0.593737
1576863941.093827,123404.000,21215,2,EA,1,100,0.593636
1576863941.162637,123462.000,21215,2,EA,1,100,0.593579
1576863941.230854,123519.500,21233,2,EA,1,100,0.593819
1576863941.299070,123577.000,21233,2,EA,1,100,0.593634
1576863941.360762,123629.000,21251,2,EA,1,100,0.593504
1576863941.422453,123681.000,21251,2,EA,1,100,0.593528
1576863941.488297,123736.500,21269,2,EA,1,100,0.593688
1576863941.554141,123792.000,21269,2,EA,1,100,0.593542
1576863941.621765,123849.000,21287,1,EA,1,100,0.593441
1576863941.690575,123907.000,21304,2,EA,1,100,0.593522
1576863941.759384,123965.000,21304,2,EA,1,100,0.593669
1576863941.828194,124023.000,21322,2,EA,1,100,0.593393
1576863941.897004,124081.000,21322,2,EA,1,100,0.593553
1576863941.958102,124132.500,21339,2,EA,1,100,0.593758
1576863942.019201,124184.000,21339,2,EA,1,100,0.593412
1576863942.084452,124239.000,21356,2,EA,1,100,0.593305
1576863942.149702,124294.000,21356,2,EA,1,100,0.593568
1576863942.216139,124350.000,21375,2,EA,1,100,0.593666
1576863942.282577,124406.000,21375,2,EA,1,100,0.593364
1576863942.349014,124462.000,21393,1,EA,1,100,0.593301
1576863942.415451,124518.000,21411,2,EA,1,100,0.593612
1576863942.481888,124574.000,21411,2,EA,1,100,0.593393
1576863942.549511,124631.000,21429,2,EA,1,100,0.593285
1576863942.617135,124688.000,21429,2,EA,1,100,0.593309
1576863942.684758,124745.000,21447,2,EA,1,100,0.593558
1576863942.752382,124802.000,21447,2,EA,1,100,0.593414
1576863942.823564,124862.000,21465,1,EA,1,100,0.593214
1576863942.890594,124918.500,21482,2,EA,1,100,0.593410
1576863942.957625,124975.000,21482,2,EA,1,100,0.593446
1576863943.028214,125034.500,21500,2,EA,1,100,0.593227
1576863943.098804,125094.000,21500,2,EA,1,100,0.593242
1576863943.162275,125147.500,21517,2,EA,1,100,0.593546
1576863943.225746,125201.000,21517,2,EA,1,100,0.593367
1576863943.289217,125254.500,21535,2,EA,1,100,0.593179
1576863943.352688,125308.000,21535,2,EA,1,100,0.593418
1576863943.420312,125365.000,21553,1,EA,1,100,0.593402
1576863943.489715,125423.500,21571,2,EA,1,100,0.593080
1576863943.559118,125482.000,21571,2,EA,1,100,0.593211
1576863943.628521,125540.500,21589,2,EA,1,100,0.593318
1576863943.697924,125599.000,21589,2,EA,1,100,0.593302
1576863943.761988,125653.000,21607,2,EA,1,100,0.593116
1576863943.826053,125707.000,21607,2,EA,1,100,0.593360
1576863943.889524,125760.500,21625,2,EA,1,100,0.593348
1576863943.952995,125814.000,21625,2,EA,1,100,0.593231
1576863944.017059,125868.000,21643,1,EA,1,100,0.592999
1576863944.084683,125925.000,21661,2,EA,1,100,0.593427
1576863944.152306,125982.000,21661,2,EA,1,100,0.593264
1576863944.221709,126040.500,21679,2,EA,1,100,0.593036
1576863944.291112,126099.000,21679,2,EA,1,100,0.593115
1576863944.356363,126154.000,21697,2,EA,1,100,0.593333
1576863944.421614,126209.000,21697,2,EA,1,100,0.593074
1576863944.485085,126262.500,21713,2,EA,1,100,0.593013
1576863944.548556,126316.000,21713,2,EA,1,100,0.593168
1576863944.613807,126371.000,21731,1,EA,1,100,0.593191
1576863944.682023,126428.500,21749,2,EA,1,100,0.593173
1576863944.750240,126486.000,21749,2,EA,1,100,0.593006
1576863944.819643,126544.500,21767,2,EA,1,100,0.593260
1576863944.889046,126603.000,21767,2,EA,1,100,0.593205
1576863944.954890,126658.500,21785,2,EA,1,100,0.593003
1576863945.020734,126714.000,21785,2,EA,1,100,0.593181
1576863945.083612,126767.000,21803,2,EA,1,100,0.593222
1576863945.146490,126820.000,21803,2,EA,1,100,0.593024
1576863945.212334,126875.500,21822,2,EA,1,100,0.593002
1576863945.278177,126931.000,21822,2,EA,1,100,0.593198
1576863945.343428,126986.000,21840,1,EA,1,100,0.593230
1576863945.412831,127044.500,21857,2,EA,1,100,0.593032
1576863945.482234,127103.000,21857,2,EA,1,100,0.593002
1576863945.549265,127159.500,21875,2,EA,1,100,0.593273
1576863945.616295,127216.000,21875,2,EA,1,100,0.593189
1576863945.679173,127269.000,21891,2,EA,1,100,0.593125
1576863945.742051,127322.000,21891,2,EA,1,100,0.593213
1576863945.807895,127377.500,21909,2,EA,1,100,0.593378
1576863945.873739,127433.000,21909,2,EA,1,100,0.593112
1576863945.935430,127485.000,21927,1,EA,1,100,0.593057
1576863946.001274,127540.500,21945,2,EA,1,100,0.593334
1576863946.067118,127596.000,21945,2,EA,1,100,0.593282
1576863946.129996,127649.000,21964,2,EA,1,100,0.593034
1576863946.192874,127702.000,21964,2,EA,1,100,0.593092
1576863946.259311,127758.000,21982,2,EA,1,100,0.593283
1576863946.325748,127814.000,21982,2,EA,1,100,0.593309
1576863946.394558,127872.000,22000,2,EA,1,100,0.593098
1576863946.463368,127930.000,22000,2,EA,1,100,0.593307
1576863946.527432,127984.000,22018,1,EA,1,100,0.593491
1576863946.595451,128041.333,22039,3,EA,1,100,0.593081
1576863946.663470,128098.667,22039,3,EA,1,100,0.593152
1576863946.731489,128156.000,22039,3,EA,1,100,0.593382
1576863946.800892,128214.500,22059,2,EA,1,100,0.593345
1576863946.870295,128273.000,22059,2,EA,1,100,0.593493
1576863946.933173,128326.000,22077,2,EA,1,100,0.593198
1576863946.996051,128379.000,22077,2,EA,1,100,0.593222
1576863947.062488,128435.000,22095,2,EA,1,100,0.593513
1576863947.128925,128491.000,22095,2,EA,1,100,0.593276
1576863947.195362,128547.000,22114,1,EA,1,100,0.593222
1576863947.264765,128605.500,22132,2,EA,1,100,0.593374
1576863947.334168,128664.000,22132,2,EA,1,100,0.593386
1576863947.402385,128721.500,22149,2,EA,1,100,0.593131
1576863947.470602,128779.000,22149,2,EA,1,100,0.593235
1576863947.532887,128831.500,22167,2,EA,1,100,0.593581
1576863947.595171,128884.000,22167,2,EA,1,100,0.593406
1576863947.659829,128938.500,22183,2,EA,1,100,0.593185
1576863947.724486,128993.000,22183,2,EA,1,100,0.593380
1576863947.792110,129050.000,22201,1,EA,1,100,0.593344
1576863947.861513,129108.500,22219,2,EA,1,100,0.593248
1576863947.930916,129167.000,22219,2,EA,1,100,0.593261
1576863948.001505,129226.500,22237,2,EA,1,100,0.593523
1576863948.072095,129286.000,22237,2,EA,1,100,0.593388
1576863948.133786,129338.000,22256,2,EA,1,100,0.593276
1576863948.195478,129390.000,22256,2,EA,1,100,0.593328
1576863948.260135,129444.500,22274,2,EA,1,100,0.593409
1576863948.324793,129499.000,22274,2,EA,1,100,0.593344
1576863948.392416,129556.000,22292,1,EA,1,100,0.593073
1576863948.461819,129614.500,22309,2,EA,1,100,0.593339
1576863948.531222,129673.000,22309,2,EA,1,100,0.593470
1576863948.601219,129732.000,22327,2,EA,1,100,0.593147
1576863948.671215,129791.000,22327,2,EA,1,100,0.593334
1576863948.734093,129844.000,22345,2,EA,1,100,0.593553
1576863948.796971,129897.000,22345,2,EA,1,100,0.593286
1576863948.860442,129950.500,22361,2,EA,1,100,0.593142
1576863948.923913,130004.000,22361,2,EA,1,100,0.593407
1576863948.990350,130060.000,22379,1,EA,1,100,0.593544
1576863949.058567,130117.500,22398,2,EA,1,100,0.593234
1576863949.126783,130175.000,22398,2,EA,1,100,0.593148
1576863949.196187,130233.500,22416,2,EA,1,100,0.593459
1576863949.265589,130292.000,22416,2,EA,1,100,0.593328
1576863949.332620,130348.500,22434,2,EA,1,100,0.593144
1576863949.399650,130405.000,22434,2,EA,1,100,0.593231
1576863949.469053,130463.500,22452,2,EA,1,100,0.593436
1576863949.538456,130522.000,22452,2,EA,1,100,0.593260
1576863949.606080,130579.000,22470,1,EA,1,100,0.593154
1576863949.674890,130637.000,22487,2,EA,1,100,0.593338
1576863949.743699,130695.000,22487,2,EA,1,100,0.593067
1576863949.813696,130754.000,22505,2,EA,1,100,0.593084
1576863949.883692,130813.000,22505,2,EA,1,100,0.593227
1576863949.948349,130867.500,22521,2,EA,1,100,0.593418
1576863950.013007,130922.000,22521,2,EA,1,100,0.593197
1576863950.076478,130975.500,22539,2,EA,1,100,0.593054
1576863950.139949,131029.000,22539,2,EA,1,100,0.593271
1576863950.205200,131084.000,22558,1,EA,1,100,0.593397
1576863950.272230,131140.500,22576,2,EA,1,100,0.593089
1576863950.339260,131197.000,22576,2,EA,1,100,0.593137
1576863950.408664,131255.500,22594,2,EA,1,100,0.593333
1576863950.478066,131314.000,22594,2,EA,1,100,0.593384
1576863950.545690,131371.000,22612,2,EA,1,100,0.593130
1576863950.613313,131428.000,22612,2,EA,1,100,0.593162
1576863950.677378,131482.000,22630,1,EA,1,100,0.593308
1576863950.742035,131536.500,22648,2,EA,1,100,0.593165
1576863950.806693,131591.000,22648,2,EA,1,100,0.593132
1576863950.869571,131644.000,22665,2,EA,1,100,0.593438
1576863950.932449,131697.000,22665,2,EA,1,100,0.593189
1576863950.997699,131752.000,22683,2,EA,1,100,0.593119
1576863951.062950,131807.000,22683,2,EA,1,100,0.593258
1576863951.129981,131863.500,22702,2,EA,1,100,0.593286
1576863951.197011,131920.000,22702,2,EA,1,100,0.593265
1576863951.266414,131978.500,22718,2,EA,1,100,0.593115
1576863951.335817,132037.000,22718,2,EA,1,100,0.593195
1576863951.404627,132095.000,22736,1,EA,1,100,0.593392
1576863951.468098,132148.500,22754,2,EA,1,100,0.593233
1576863951.531569,132202.000,22754,2,EA,1,100,0.593264
1576863951.596226,132256.500,22772,2,EA,1,100,0.593308
1576863951.660884,132311.000,22772,2,EA,1,100,0.593345
1576863951.729101,132368.500,22790,2,EA,1,100,0.593128
1576863951.797317,132426.000,22790,2,EA,1,100,0.593206
1576863951.866127,132484.000,22808,2,EA,1,100,0.593404
1576863951.934937,132542.000,22808,2,EA,1,100,0.593302
1576863952.003747,132600.000,22826,1,EA,1,100,0.593293
1576863952.067811,132654.000,22843,2,EA,1,100,0.593452
1576863952.131876,132708.000,22843,2,EA,1,100,0.593373
1576863952.196533,132762.500,22862,2,EA,1,100,0.593419
1576863952.261191,132817.000,22862,2,EA,1,100,0.593273
1576863952.327628,132873.000,22880,2,EA,1,100,0.593644
1576863952.394065,132929.000,22880,2,EA,1,100,0.593575
1576863952.463468,132987.500,22896,2,EA,1,100,0.593495
1576863952.532871,133046.000,22896,2,EA,1,100,0.593483
1576863952.600494,133103.000,22914,1,EA,1,100,0.593368
1576863952.664559,133157.000,22935,3,EA,1,100,0.593533
1576863952.728623,133211.000,22935,3,EA,1,100,0.593967
1576863952.792687,133265.000,22935,3,EA,1,100,0.594293
1576863952.856752,133319.000,22953,2,EA,1,100,0.594111
1576863952.920816,133373.000,22953,2,EA,1,100,0.594163
1576863952.990812,133432.000,22973,2,EA,1,100,0.594117
1576863953.060808,133491.000,22973,2,EA,1,100,0.593857
1576863953.129025,133548.500,22990,2,EA,1,100,0.593861
1576863953.197242,133606.000,22990,2,EA,1,100,0.592576
1576863953.268425,133666.000,23008,1,EA,1,100,0.592070
1576863953.336641,133723.500,23026,2,EA,1,100,0.593068
1576863953.404858,133781.000,23026,2,EA,1,100,0.593505
1576863953.473074,133838.500,23044,2,EA,1,100,0.593327
1576863953.541291,133896.000,23044,2,EA,1,100,0.593318
1576863953.611881,133955.500,23062,2,EA,1,100,0.593625
1576863953.682470,134015.000,23062,2,EA,1,100,0.593736
1576863953.745348,134068.000,23080,1,EA,1,100,0.593556
1576863953.808819,134121.500,23097,2,EA,1,100,0.593550
1576863953.872290,134175.000,23097,2,EA,1,100,0.593608
1576863953.939914,134232.000,23115,2,EA,1,100,0.593726
1576863954.007537,134289.000,23115,2,EA,1,100,0.594400
1576863954.071008,134342.500,23133,2,EA,1,100,0.593962
1576863954.134479,134396.000,23133,2,EA,1,100,0.593754
1576863954.202696,134453.500,23150,2,EA,1,100,0.593851
1576863954.270913,134511.000,23150,2,EA,1,100,0.593891
1576863954.336164,134566.000,23168,1,EA,1,100,0.593680
1576863954.406753,134625.500,23186,2,EA,1,100,0.593261
1576863954.477342,134685.000,23186,2,EA,1,100,0.593350
1576863954.542000,134739.500,23204,2,EA,1,100,0.593716
1576863954.606657,134794.000,23204,2,EA,1,100,0.593538
1576863954.670128,134847.500,23222,2,EA,1,100,0.592974
1576863954.733600,134901.000,23222,2,EA,1,100,0.593313
1576863954.799443,134956.500,23240,2,EA,1,100,0.593959
1576863954.865287,135012.000,23240,2,EA,1,100,0.593758
1576863954.932911,135069.000,23258,2,EA,1,100,0.593795
1576863955.000534,135126.000,23258,2,EA,1,100,0.594223
1576863955.068158,135183.000,23276,1,EA,1,100,0.594582
1576863955.134595,135239.000,23294,2,EA,1,100,0.594242
1576863955.201032,135295.000,23294,2,EA,1,100,0.594507
1576863955.264503,135348.500,23312,2,EA,1,100,0.595202
1576863955.327974,135402.000,23312,2,EA,1,100,0.595319
1576863955.395005,135458.500,23330,2,EA,1,100,0.595477
1576863955.462035,135515.000,23330,2,EA,1,100,0.595870
1576863955.529658,135572.000,23346,2,EA,1,100,0.596126
1576863955.597282,135629.000,23346,2,EA,1,100,0.596011
1576863955.668464,135689.000,23364,1,EA,1,100,0.596248
1576863955.734901,135745.000,23382,2,EA,1,100,0.596741
1576863955.801339,135801.000,23382,2,EA,1,100,0.596912
1576863955.864217,135854.000,23400,2,EA,1,100,0.596888
1576863955.927094,135907.000,23400,2,EA,1,100,0.596912
1576863955.992939,135962.500,23418,2,EA,1,100,0.597241
1576863956.058782,136018.000,23418,2,EA,1,100,0.597325
1576863956.125219,136074.000,23437,2,EA,1,100,0.596665
1576863956.191657,136130.000,23437,2,EA,1,100,0.596933
1576863956.262839,136190.000,23455,1,EA,1,100,0.597373
1576863956.329870,136246.500,23472,2,EA,1,100,0.595841
1576863956.396900,136303.000,23472,2,EA,1,100,0.595654
1576863956.459778,136356.000,23490,2,EA,1,100,0.597500
1576863956.522655,136409.000,23490,2,EA,1,100,0.597188
1576863956.587906,136464.000,23508,2,EA,1,100,0.595452
1576863956.653157,136519.000,23508,2,EA,1,100,0.596105
1576863956.720187,136575.500,23526,2,EA,1,100,0.597420
1576863956.787218,136632.000,23526,2,EA,1,100,0.596866
1576863956.856027,136690.000,23542,1,EA,1,100,0.597078
1576863956.923651,136747.000,23560,5,EA,1,100,0.597814
1576863956.991274,136804.000,23560,5,EA,1,100,0.597726
1576863957.058898,136861.000,23560,5,EA,1,100,0.597748
1576863957.126521,136918.000,23560,5,EA,1,100,0.597651
1576863957.194145,136975.000,23560,5,EA,1,100,0.598256
1576863957.262362,137032.500,23579,4,EA,1,100,0.597985
1576863957.330578,137090.000,23579,4,EA,1,100,0.598084
1576863957.398795,137147.500,23579,4,EA,1,100,0.598088
1576863957.467011,137205.000,23579,4,EA,1,100,0.598202
1576863957.535228,137262.500,23597,2,EA,1,100,0.598530
1576863957.603445,137320.000,23597,2,EA,1,100,0.598689
1576863957.668102,137374.500,23613,2,EA,1,100,0.598498
1576863957.732760,137429.000,23613,2,EA,1,100,0.598734
1576863957.795638,137482.000,23631,1,EA,1,100,0.598612
1576863957.860295,137536.500,23649,2,EA,1,100,0.598682
1576863957.924953,137591.000,23649,2,EA,1,100,0.598828
1576863957.994949,137650.000,23667,2,EA,1,100,0.599093
1576863958.064945,137709.000,23667,2,EA,1,100,0.598880
1576863958.133755,137767.000,23686,2,EA,1,100,0.598833
1576863958.202565,137825.000,23686,2,EA,1,100,0.598977
1576863958.271375,137883.000,23704,1,EA,1,100,0.599151
1576863958.333660,137935.500,23722,2,EA,1,100,0.598840
1576863958.395944,137988.000,23722,2,EA,1,100,0.598907
1576863958.460602,138042.500,23739,2,EA,1,100,0.599215
1576863958.525259,138097.000,23739,2,EA,1,100,0.599209
1576863958.593476,138154.500,23757,2,EA,1,100,0.598948
1576863958.661693,138212.000,23757,2,EA,1,100,0.599160
1576863958.731293,138270.667,23778,3,EA,1,100,0.599336
1576863958.800894,138329.333,23778,3,EA,1,100,0.599171
1576863958.870495,138388.000,23778,3,EA,1,100,0.598942
1576863958.932187,138440.000,23798,2,EA,1,100,0.599036
1576863958.993878,138492.000,23798,2,EA,1,100,0.599129
1576863959.057943,138546.000,23816,2,EA,1,100,0.599366
1576863959.122007,138600.000,23816,2,EA,1,100,0.599086
1576863959.191410,138658.500,23835,2,EA,1,100,0.599118
1576863959.260813,138717.000,23835,2,EA,1,100,0.599228
1576863959.327250,138773.000,23853,1,EA,1,100,0.599375
1576863959.396653,138831.500,23870,2,EA,1,100,0.599221
1576863959.466056,138890.000,23870,2,EA,1,100,0.599087
1576863959.528341,138942.500,23888,2,EA,1,100,0.599304
1576863959.590626,138995.000,23888,2,EA,1,100,0.599160
1576863959.654097,139048.500,23906,2,EA,1,100,0.599003
1576863959.717568,139102.000,23906,2,EA,1,100,0.599162
1576863959.786971,139160.500,23922,2,EA,1,100,0.599325
1576863959.856374,139219.000,23922,2,EA,1,100,0.599133
1576863959.921625,139274.000,23940,1,EA,1,100,0.599031
1576863959.991028,139332.500,23958,2,EA,1,100,0.599215
1576863960.060431,139391.000,23958,2,EA,1,100,0.599263
1576863960.125088,139445.500,23977,2,EA,1,100,0.599185
1576863960.189746,139500.000,23977,2,EA,1,100,0.599091
1576863960.253217,139553.500,23995,2,EA,1,100,0.599278
1576863960.316688,139607.000,23995,2,EA,1,100,0.599073
1576863960.382532,139662.500,24013,2,EA,1,100,0.599005
1576863960.448376,139718.000,24013,2,EA,1,100,0.599039
1576863960.513034,139772.500,24031,2,EA,1,100,0.599296
1576863960.577691,139827.000,24031,2,EA,1,100,0.598893
1576863960.641755,139881.000,24049,1,EA,1,100,0.598981
1576863960.706413,139935.500,24067,2,EA,1,100,0.599107
1576863960.771070,139990.000,24067,2,EA,1,100,0.599105
1576863960.833948,140043.000,24084,2,EA,1,100,0.598924
1576863960.896826,140096.000,24084,2,EA,1,100,0.598886
1576863960.963857,140152.500,24102,2,EA,1,100,0.599157
1576863961.030887,140209.000,24102,2,EA,1,100,0.599198
1576863961.099104,140266.500,24121,2,EA,1,100,0.598785
1576863961.167320,140324.000,24121,2,EA,1,100,0.598969
1576863961.236130,140382.000,24137,1,EA,1,100,0.598985
1576863961.307313,140442.000,24155,2,EA,1,100,0.598778
1576863961.378495,140502.000,24155,2,EA,1,100,0.598875
1576863961.446712,140559.500,24173,2,EA,1,100,0.598971
1576863961.514929,140617.000,24173,2,EA,1,100,0.598890
1576863961.580772,140672.500,24191,2,EA,1,100,0.598651
1576863961.646616,140728.000,24191,2,EA,1,100,0.598787
1576863961.709494,140781.000,24209,2,EA,1,100,0.598873
1576863961.772372,140834.000,24209,2,EA,1,100,0.598674
1576863961.839996,140891.000,24227,1,EA,1,100,0.598511
1576863961.907619,140948.000,24244,2,EA,1,100,0.598868
1576863961.975243,141005.000,24244,2,EA,1,100,0.598871
1576863962.044053,141063.000,24262,2,EA,1,100,0.598508
1576863962.112862,141121.000,24262,2,EA,1,100,0.598510
1576863962.179300,141177.000,24279,2,EA,1,100,0.598739
1576863962.245737,141233.000,24279,2,EA,1,100,0.598641
1576863962.309208,141286.500,24297,2,EA,1,100,0.598453
1576863962.372679,141340.000,24297,2,EA,1,100,0.598651
1576863962.437930,141395.000,24315,1,EA,1,100,0.598670
1576863962.505553,141452.000,24333,2,EA,1,100,0.598451
1576863962.573177,141509.000,24333,2,EA,1,100,0.598214
1576863962.641986,141567.000,24351,2,EA,1,100,0.598546
1576863962.710796,141625.000,24351,2,EA,1,100,0.598464
1576863962.779013,141682.500,24369,2,EA,1,100,0.598380
1576863962.847229,141740.000,24369,2,EA,1,100,0.598466
1576863962.908921,141792.000,24387,2,EA,1,100,0.598582
1576863962.970613,141844.000,24387,2,EA,1,100,0.598298
1576863963.037050,141900.000,24405,1,EA,1,100,0.598252
1576863963.102894,141955.500,24424,2,EA,1,100,0.598500
1576863963.168738,142011.000,24424,2,EA,1,100,0.598460
1576863963.238141,142069.500,24441,2,EA,1,100,0.598203
1576863963.307544,142128.000,24441,2,EA,1,100,0.598226
1576863963.376354,142186.000,24457,2,EA,1,100,0.598393
1576863963.445163,142244.000,24457,2,EA,1,100,0.598286
1576863963.506262,142295.500,24475,2,EA,1,100,0.598105
1576863963.567360,142347.000,24475,2,EA,1,100,0.598204
1576863963.631425,142401.000,24493,2,EA,1,100,0.598352
1576863963.695489,142455.000,24493,2,EA,1,100,0.598179
1576863963.763112,142512.000,24511,1,EA,1,100,0.598023
1576863963.831922,142570.000,24529,2,EA,1,100,0.598372
1576863963.900732,142628.000,24529,2,EA,1,100,0.598284
1576863963.970728,142687.000,24547,2,EA,1,100,0.598135
1576863964.040725,142746.000,24547,2,EA,1,100,0.598110
1576863964.105382,142800.500,24566,2,EA,1,100,0.598352
1576863964.170040,142855.000,24566,2,EA,1,100,0.598070
1576863964.242409,142916.000,24584,1,EA,1,100,0.597974
1576863964.307659,142971.000,24601,2,EA,1,100,0.598230
1576863964.372910,143026.000,24601,2,EA,1,100,0.598058
1576863964.438754,143081.500,24619,2,EA,1,100,0.597911
1576863964.504598,143137.000,24619,2,EA,1,100,0.597968
1576863964.574001,143195.500,24635,2,EA,1,100,0.598208
1576863964.643404,143254.000,24635,2,EA,1,100,0.597948
1576863964.705689,143306.500,24653,2,EA,1,100,0.597943
1576863964.767973,143359.000,24653,2,EA,1,100,0.598134
1576863964.832829,143413.667,24674,3,EA,1,100,0.598302
1576863964.897684,143468.333,24674,3,EA,1,100,0.597910
1576863964.962539,143523.000,24674,3,EA,1,100,0.597841
1576863965.032535,143582.000,24694,1,EA,1,100,0.597905
1576863965.100752,143639.500,24712,2,EA,1,100,0.598088
1576863965.168969,143697.000,24712,2,EA,1,100,0.598084
1576863965.237779,143755.000,24730,2,EA,1,100,0.597866
1576863965.306588,143813.000,24730,2,EA,1,100,0.598054
1576863965.370059,143866.500,24746,2,EA,1,100,0.598106
1576863965.433531,143920.000,24746,2,EA,1,100,0.597910
1576863965.498781,143975.000,24764,1,EA,1,100,0.597895
1576863965.564625,144030.500,24782,2,EA,1,100,0.598116
1576863965.630469,144086.000,24782,2,EA,1,100,0.598165
1576863965.695720,144141.000,24800,2,EA,1,100,0.597898
1576863965.760971,144196.000,24800,2,EA,1,100,0.597786
1576863965.829187,144253.500,24818,2,EA,1,100,0.598313
1576863965.897404,144311.000,24818,2,EA,1,100,0.598098
1576863965.965028,144368.000,24836,2,EA,1,100,0.597890
1576863966.032651,144425.000,24836,2,EA,1,100,0.597989
1576863966.102647,144484.000,24855,1,EA,1,100,0.598206
1576863966.165525,144537.000,24873,2,EA,1,100,0.597967
1576863966.228403,144590.000,24873,2,EA,1,100,0.597866
1576863966.291281,144643.000,24890,2,EA,1,100,0.598252
1576863966.354159,144696.000,24890,2,EA,1,100,0.598167
1576863966.422969,144754.000,24908,2,EA,1,100,0.597862
1576863966.491779,144812.000,24908,2,EA,1,100,0.598000
1576863966.561182,144870.500,24924,2,EA,1,100,0.598210
1576863966.630585,144929.000,24924,2,EA,1,100,0.597995
1576863966.698208,144986.000,24942,1,EA,1,100,0.597902
1576863966.762273,145040.000,24960,3,EA,1,100,0.598281
1576863966.826337,145094.000,24960,3,EA,1,100,0.598346
1576863966.890401,145148.000,24960,3,EA,1,100,0.598272
1576863966.957135,145204.250,24978,8,EA,1,100,0.598162
1576863967.023869,145260.500,24978,8,EA,1,100,0.598058
1576863967.090602,145316.750,24978,8,EA,1,100,0.597957
1576863967.157336,145373.000,24978,8,EA,1,100,0.598011
1576863967.224070,145429.250,24978,8,EA,1,100,0.598038
1576863967.290803,145485.500,24978,8,EA,1,100,0.597895
1576863967.357537,145541.750,24978,8,EA,1,100,0.597985
1576863967.424271,145598.000,24978,8,EA,1,100,0.598015
1576863967.492092,145655.167,24997,12,EA,1,100,0.598384
1576863967.559913,145712.333,24997,12,EA,1,100,0.598184
1576863967.627734,145769.500,24997,12,EA,1,100,0.598207
1576863967.695555,145826.667,24997,12,EA,1,100,0.598236
1576863967.763377,145883.833,24997,12,EA,1,100,0.598085
1576863967.831198,145941.000,24997,12,EA,1,100,0.598315
1576863967.899019,145998.167,24997,12,EA,1,100,0.598276
1576863967.966840,146055.333,24997,12,EA,1,100,0.598318
1576863968.034662,146112.500,24997,12,EA,1,100,0.598118
1576863968.102483,146169.667,24997,12,EA,1,100,0.598243
1576863968.170304,146226.833,24997,12,EA,1,100,0.598148
1576863968.238125,146284.000,24997,12,EA,1,100,0.598058
1576863968.305081,146340.438,25016,16,EA,1,100,0.597946
1576863968.372037,146396.875,25016,16,EA,1,100,0.597836
1576863968.438993,146453.313,25016,16,EA,1,100,0.597953
1576863968.505950,146509.750,25016,16,EA,1,100,0.597782
1576863968.572906,146566.188,25016,16,EA,1,100,0.597797
1576863968.639862,146622.625,25016,16,EA,1,100,0.597778
1576863968.706818,146679.063,25016,16,EA,1,100,0.597898
1576863968.773774,146735.500,25016,16,EA,1,100,0.597664
1576863968.840730,146791.938,25016,16,EA,1,100,0.597742
1576863968.907686,146848.375,25016,16,EA,1,100,0.597767
1576863968.974643,146904.813,25016,16,EA,1,100,0.597728
1576863969.041599,146961.250,25016,16,EA,1,100,0.597686
1576863969.108555,147017.688,25016,16,EA,1,100,0.597783
1576863969.175511,147074.125,25016,16,EA,1,100,0.597678
1576863969.242467,147130.563,25016,16,EA,1,100,0.597602
1576863969.309423,147187.000,25016,16,EA,1,100,0.597757
1576863969.375514,147242.708,25035,24,EA,1,100,0.597932
1576863969.441605,147298.417,25035,24,EA,1,100,0.597899
1576863969.507696,147354.125,25035,24,EA,1,100,0.597795
1576863969.573787,147409.833,25035,24,EA,1,100,0.597889
1576863969.639879,147465.542,25035,24,EA,1,100,0.597856
1576863969.705970,147521.250,25035,24,EA,1,100,0.597858
1576863969.772061,147576.958,25035,24,EA,1,100,0.597820
1576863969.838152,147632.667,25035,24,EA,1,100,0.597551
1576863969.904243,147688.375,25035,24,EA,1,100,0.597677
1576863969.970334,147744.083,25035,24,EA,1,100,0.597775
1576863970.036425,147799.792,25035,24,EA,1,100,0.597609
1576863970.102516,147855.500,25035,24,EA,1,100,0.597614
1576863970.168607,147911.208,25035,24,EA,1,100,0.597596
1576863970.234698,147966.917,25035,24,EA,1,100,0.597528
1576863970.300789,148022.625,25035,24,EA,1,100,0.597546
1576863970.366880,148078.333,25035,24,EA,1,100,0.597401
1576863970.432971,148134.042,25035,24,EA,1,100,0.597514
1576863970.499063,148189.750,25035,24,EA,1,100,0.597596
1576863970.565154,148245.458,25035,24,EA,1,100,0.597478
1576863970.631245,148301.167,25035,24,EA,1,100,0.597492
1576863970.697336,148356.875,25035,24,EA,1,100,0.597492
1576863970.763427,148412.583,25035,24,EA,1,100,0.597405
1576863970.829518,148468.292,25035,24,EA,1,100,0.597381
1576863970.895609,148524.000,25035,24,EA,1,100,0.597087
1576863970.962676,148580.531,25057,32,EA,1,100,0.597144
1576863971.029744,148637.063,25057,32,EA,1,100,0.597191
1576863971.096811,148693.594,25057,32,EA,1,100,0.597114
1576863971.163878,148750.125,25057,32,EA,1,100,0.596821
1576863971.230946,148806.656,25057,32,EA,1,100,0.596585
1576863971.298013,148863.188,25057,32,EA,1,100,0.596720
1576863971.365080,148919.719,25057,32,EA,1,100,0.596734
1576863971.432148,148976.250,25057,32,EA,1,100,0.596571
1576863971.499215,149032.781,25057,32,EA,1,100,0.596379
1576863971.566283,149089.313,25057,32,EA,1,100,0.596046
1576863971.633350,149145.844,25057,32,EA,1,100,0.596060
1576863971.700417,149202.375,25057,32,EA,1,100,0.596151
1576863971.767484,149258.906,25057,32,EA,1,100,0.596145
1576863971.834552,149315.438,25057,32,EA,1,100,0.596227
1576863971.901619,149371.969,25057,32,EA,1,100,0.596347
1576863971.968687,149428.500,25057,32,EA,1,100,0.596322
1576863972.035754,149485.031,25057,32,EA,1,100,0.596237
1576863972.102821,149541.563,25057,32,EA,1,100,0.596060
1576863972.169889,149598.094,25057,32,EA,1,100,0.596224
1576863972.236956,149654.625,25057,32,EA,1,100,0.596174
1576863972.304023,149711.156,25057,32,EA,1,100,0.596087
1576863972.371091,149767.688,25057,32,EA,1,100,0.595990
1576863972.438158,149824.219,25057,32,EA,1,100,0.595984
1576863972.505225,149880.750,25057,32,EA,1,100,0.596155
1576863972.572293,149937.281,25057,32,EA,1,100,0.596024
1576863972.639360,149993.813,25057,32,EA,1,100,0.595965
1576863972.706428,150050.344,25057,32,EA,1,100,0.595997
1576863972.773495,150106.875,25057,32,EA,1,100,0.595932
1576863972.840562,150163.406,25057,32,EA,1,100,0.596075
1576863972.907629,150219.938,25057,32,EA,1,100,0.596443
1576863972.974697,150276.469,25057,32,EA,1,100,0.596664
1576863973.041764,150333.000,25057,32,EA,1,100,0.596800
1576863973.108951,150389.632,25077,38,EA,1,100,0.597098
1576863973.176137,150446.263,25077,38,EA,1,100,0.597002
1576863973.243323,150502.895,25077,38,EA,1,100,0.597067
1576863973.310510,150559.526,25077,38,EA,1,100,0.597219
1576863973.377696,150616.158,25077,38,EA,1,100,0.597288
1576863973.444883,150672.789,25077,38,EA,1,100,0.597442
1576863973.512069,150729.421,25077,38,EA,1,100,0.597325
1576863973.579255,150786.053,25077,38,EA,1,100,0.596736
1576863973.646442,150842.684,25077,38,EA,1,100,0.596361
1576863973.713628,150899.316,25077,38,EA,1,100,0.596291
1576863973.780814,150955.947,25077,38,EA,1,100,0.595991
1576863973.848001,151012.579,25077,38,EA,1,100,0.595702
1576863973.915187,151069.211,25077,38,EA,1,100,0.595706
1576863973.982374,151125.842,25077,38,EA,1,100,0.595891
1576863974.049560,151182.474,25077,38,EA,1,100,0.595221
1576863974.116746,151239.105,25077,38,EA,1,100,0.595113
1576863974.183933,151295.737,25077,38,EA,1,100,0.595040
1576863974.251119,151352.368,25077,38,EA,1,100,0.594886
1576863974.318305,151409.000,25077,38,EA,1,100,0.595214
1576863974.385492,151465.632,25077,38,EA,1,100,0.595196
1576863974.452678,151522.263,25077,38,EA,1,100,0.595252
1576863974.519865,151578.895,25077,38,EA,1,100,0.595171
1576863974.587051,151635.526,25077,38,EA,1,100,0.595175
1576863974.654238,151692.158,25077,38,EA,1,100,0.595175
1576863974.721424,151748.789,25077,38,EA,1,100,0.595019
1576863974.788610,151805.421,25077,38,EA,1,100,0.595123
1576863974.855797,151862.053,25077,38,EA,1,100,0.594835
1576863974.922983,151918.684,25077,38,EA,1,100,0.594959
1576863974.990169,151975.316,25077,38,EA,1,100,0.595118
1576863975.057356,152031.947,25077,38,EA,1,100,0.595065
1576863975.124542,152088.579,25077,38,EA,1,100,0.595162
1576863975.191729,152145.211,25077,38,EA,1,100,0.595074
1576863975.258915,152201.842,25077,38,EA,1,100,0.595039
1576863975.326101,152258.474,25077,38,EA,1,100,0.595139
1576863975.393288,152315.105,25077,38,EA,1,100,0.595053
1576863975.460474,152371.737,25077,38,EA,1,100,0.595216
1576863975.527660,152428.368,25077,38,EA,1,100,0.595515
1576863975.594847,152485.000,25077,38,EA,1,100,0.594931
1576863975.662619,152542.125,25096,8,EA,1,100,0.594959
1576863975.730390,152599.250,25096,8,EA,1,100,0.594359
1576863975.798162,152656.375,25096,8,EA,1,100,0.594603
1576863975.865934,152713.500,25096,8,EA,1,100,0.594492
1576863975.933706,152770.625,25096,8,EA,1,100,0.594424
1576863976.001477,152827.750,25096,8,EA,1,100,0.594336
1576863976.069249,152884.875,25096,8,EA,1,100,0.594722
1576863976.137021,152942.000,25096,8,EA,1,100,0.594483
1576863976.208204,153002.000,25115,1,EA,1,100,0.594993
1576863976.275234,153058.500,25133,2,EA,1,100,0.594560
1576863976.342264,153115.000,25133,2,EA,1,100,0.594375
1576863976.405735,153168.500,25151,2,EA,1,100,0.595357
1576863976.469206,153222.000,25151,2,EA,1,100,0.594628
1576863976.535050,153277.500,25169,2,EA,1,100,0.593994
1576863976.600894,153333.000,25169,2,EA,1,100,0.594342
1576863976.670891,153392.000,25187,1,EA,1,100,0.594884
1576863976.738514,153449.000,25204,2,EA,1,100,0.594153
1576863976.806137,153506.000,25204,2,EA,1,100,0.594411
1576863976.874947,153564.000,25222,2,EA,1,100,0.595106
1576863976.943757,153622.000,25222,2,EA,1,100,0.594512
1576863977.006042,153674.500,25238,2,EA,1,100,0.594229
1576863977.068327,153727.000,25238,2,EA,1,100,0.594750
1576863977.133577,153782.000,25257,2,EA,1,100,0.595169
1576863977.198828,153837.000,25257,2,EA,1,100,0.594443
1576863977.265265,153893.000,25275,1,EA,1,100,0.594301
1576863977.332889,153950.000,25293,2,EA,1,100,0.594786
1576863977.400512,154007.000,25293,2,EA,1,100,0.594788
1576863977.469915,154065.500,25311,2,EA,1,100,0.594260
1576863977.539318,154124.000,25311,2,EA,1,100,0.594508
1576863977.602789,154177.500,25329,2,EA,1,100,0.595092
1576863977.666260,154231.000,25329,2,EA,1,100,0.594524
1576863977.729732,154284.500,25347,2,EA,1,100,0.594431
1576863977.793203,154338.000,25347,2,EA,1,100,0.594920
1576863977.862013,154396.000,25365,1,EA,1,100,0.595045
1576863977.929636,154453.000,25382,2,EA,1,100,0.594688
1576863977.997260,154510.000,25382,2,EA,1,100,0.595312
1576863978.066663,154568.500,25400,2,EA,1,100,0.595349
1576863978.136066,154627.000,25400,2,EA,1,100,0.595125
1576863978.199537,154680.500,25417,2,EA,1,100,0.595063
1576863978.263008,154734.000,25417,2,EA,1,100,0.595525
1576863978.326479,154787.500,25435,2,EA,1,100,0.594718
1576863978.389950,154841.000,25435,2,EA,1,100,0.593425
1576863978.458760,154899.000,25453,1,EA,1,100,0.595091
1576863978.525790,154955.500,25471,2,EA,1,100,0.595548
1576863978.592821,155012.000,25471,2,EA,1,100,0.595474
1576863978.662224,155070.500,25489,2,EA,1,100,0.595331
1576863978.731627,155129.000,25489,2,EA,1,100,0.595481
1576863978.796877,155184.000,25507,2,EA,1,100,0.595789
1576863978.862128,155239.000,25507,2,EA,1,100,0.595589
1576863978.926193,155293.000,25528,3,EA,1,100,0.595430
1576863978.990257,155347.000,25528,3,EA,1,100,0.596010
1576863979.054321,155401.000,25528,3,EA,1,100,0.596042
1576863979.118979,155455.500,25549,2,EA,1,100,0.596009
1576863979.183636,155510.000,25549,2,EA,1,100,0.596110
1576863979.246514,155563.000,25567,2,EA,1,100,0.595800
1576863979.309392,155616.000,25567,2,EA,1,100,0.596104
1576863979.377016,155673.000,25585,1,EA,1,100,0.596171
1576863979.439894,155726.000,25603,2,EA,1,100,0.595774
1576863979.502772,155779.000,25603,2,EA,1,100,0.595904
1576863979.568615,155834.500,25621,2,EA,1,100,0.596303
1576863979.634459,155890.000,25621,2,EA,1,100,0.596050
1576863979.701490,155946.500,25639,2,EA,1,100,0.595629
1576863979.768520,156003.000,25639,2,EA,1,100,0.595969
1576863979.836143,156060.000,25657,2,EA,1,100,0.596274
1576863979.903767,156117.000,25657,2,EA,1,100,0.596060
1576863979.978509,156180.000,25675,1,EA,1,100,0.595990
1576863980.045539,156236.500,25693,2,EA,1,100,0.596154
1576863980.112569,156293.000,25693,2,EA,1,100,0.596067
1576863980.181379,156351.000,25711,2,EA,1,100,0.596024
1576863980.250189,156409.000,25711,2,EA,1,100,0.596216
1576863980.313067,156462.000,25727,2,EA,1,100,0.596299
1576863980.375945,156515.000,25727,2,EA,1,100,0.596187
1576863980.441789,156570.500,25745,2,EA,1,100,0.595874
1576863980.507632,156626.000,25745,2,EA,1,100,0.596242
1576863980.574070,156682.000,25763,1,EA,1,100,0.596083
1576863980.643473,156740.500,25781,2,EA,1,100,0.595700
1576863980.712876,156799.000,25781,2,EA,1,100,0.595980
1576863980.781092,156856.500,25799,2,EA,1,100,0.596049
1576863980.849309,156914.000,25799,2,EA,1,100,0.595894
1576863980.912187,156967.000,25817,2,EA,1,100,0.595771
1576863980.975065,157020.000,25817,2,EA,1,100,0.596095
1576863981.039722,157074.500,25835,2,EA,1,100,0.596138
1576863981.104380,157129.000,25835,2,EA,1,100,0.595809
1576863981.172004,157186.000,25854,1,EA,1,100,0.595782
1576863981.240813,157244.000,25871,2,EA,1,100,0.596051
1576863981.309623,157302.000,25871,2,EA,1,100,0.596077
1576863981.380213,157361.500,25889,2,EA,1,100,0.595841
1576863981.450802,157421.000,25889,2,EA,1,100,0.596067
1576863981.511900,157472.500,25905,2,EA,1,100,0.596357
1576863981.572999,157524.000,25905,2,EA,1,100,0.595956
1576863981.637656,157578.500,25923,2,EA,1,100,0.595943
1576863981.702314,157633.000,25923,2,EA,1,100,0.596226
1576863981.769937,157690.000,25941,1,EA,1,100,0.596328
1576863981.839340,157748.500,25959,2,EA,1,100,0.595920
1576863981.908743,157807.000,25959,2,EA,1,100,0.596146
1576863981.978740,157866.000,25977,2,EA,1,100,0.596359
1576863982.048736,157925.000,25977,2,EA,1,100,0.596187
1576863982.111614,157978.000,25996,2,EA,1,100,0.595909
1576863982.174492,158031.000,25996,2,EA,1,100,0.596143
1576863982.237963,158084.500,26014,2,EA,1,100,0.596209
1576863982.301434,158138.000,26014,2,EA,1,100,0.595960
1576863982.369058,158195.000,26032,1,EA,1,100,0.595967
1576863982.436681,158252.000,26049,2,EA,1,100,0.596249
1576863982.504305,158309.000,26049,2,EA,1,100,0.596203
1576863982.573708,158367.500,26067,2,EA,1,100,0.595843
1576863982.643111,158426.000,26067,2,EA,1,100,0.596043
1576863982.709548,158482.000,26083,2,EA,1,100,0.596392
1576863982.775985,158538.000,26083,2,EA,1,100,0.595897
1576863982.847167,158598.000,26101,1,EA,1,100,0.595805
1576863982.914198,158654.500,26119,2,EA,1,100,0.596161
1576863982.981228,158711.000,26119,2,EA,1,100,0.595720
1576863983.050038,158769.000,26137,2,EA,1,100,0.595662
1576863983.118848,158827.000,26137,2,EA,1,100,0.596020
1576863983.188251,158885.500,26156,2,EA,1,100,0.596228
1576863983.257654,158944.000,26156,2,EA,1,100,0.595785
1576863983.324091,159000.000,26174,1,EA,1,100,0.595928
1576863983.388155,159054.000,26192,2,EA,1,100,0.596203
1576863983.452219,159108.000,26192,2,EA,1,100,0.596201
1576863983.516284,159162.000,26209,2,EA,1,100,0.595763
1576863983.580348,159216.000,26209,2,EA,1,100,0.595819
1576863983.647378,159272.500,26227,2,EA,1,100,0.596237
1576863983.714409,159329.000,26227,2,EA,1,100,0.596097
1576863983.783812,159387.500,26243,2,EA,1,100,0.595826
1576863983.853215,159446.000,26243,2,EA,1,100,0.596118
1576863983.920838,159503.000,26261,1,EA,1,100,0.596385
1576863983.986089,159558.000,26279,2,EA,1,100,0.595837
1576863984.051340,159613.000,26279,2,EA,1,100,0.596041
1576863984.115404,159667.000,26298,2,EA,1,100,0.596299
1576863984.179468,159721.000,26298,2,EA,1,100,0.596098
1576863984.242939,159774.500,26316,2,EA,1,100,0.595938
1576863984.306411,159828.000,26316,2,EA,1,100,0.595948
1576863984.371068,159882.500,26334,2,EA,1,100,0.596177
1576863984.435726,159937.000,26334,2,EA,1,100,0.596025
1576863984.502756,159993.500,26352,2,EA,1,100,0.595897
1576863984.569786,160050.000,26352,2,EA,1,100,0.596139
1576863984.638596,160108.000,26370,1,EA,1,100,0.596140
1576863984.707406,160166.000,26387,2,EA,1,100,0.595989
1576863984.776216,160224.000,26387,2,EA,1,100,0.595827
1576863984.839687,160277.500,26405,2,EA,1,100,0.596199
1576863984.903158,160331.000,26405,2,EA,1,100,0.596083
1576863984.969595,160387.000,26426,3,EA,1,100,0.595765
1576863985.036032,160443.000,26426,3,EA,1,100,0.595790
1576863985.102469,160499.000,26426,3,EA,1,100,0.596099
1576863985.171872,160557.500,26447,2,EA,1,100,0.596257
1576863985.241276,160616.000,26447,2,EA,1,100,0.596150
1576863985.307713,160672.000,26465,1,EA,1,100,0.596218
1576863985.375929,160729.500,26482,2,EA,1,100,0.596278
1576863985.444146,160787.000,26482,2,EA,1,100,0.596067
1576863985.505837,160839.000,26500,2,EA,1,100,0.595871
1576863985.567529,160891.000,26500,2,EA,1,100,0.596096
1576863985.633966,160947.000,26518,2,EA,1,100,0.596336
1576863985.700403,161003.000,26518,2,EA,1,100,0.595889
1576863985.770400,161062.000,26536,2,EA,1,100,0.594649
1576863985.840396,161121.000,26536,2,EA,1,100,0.594693
1576863985.905646,161176.000,26552,1,EA,1,100,0.595334
1576863985.973863,161233.500,26570,2,EA,1,100,0.593249
1576863986.042080,161291.000,26570,2,EA,1,100,0.593086
1576863986.103771,161343.000,26589,2,EA,1,100,0.595613
1576863986.165463,161395.000,26589,2,EA,1,100,0.595311
1576863986.229527,161449.000,26607,2,EA,1,100,0.594102
1576863986.293591,161503.000,26607,2,EA,1,100,0.594146
1576863986.363588,161562.000,26625,2,EA,1,100,0.595628
1576863986.433584,161621.000,26625,2,EA,1,100,0.594946
1576863986.501801,161678.500,26643,2,EA,1,100,0.594641
1576863986.570017,161736.000,26643,2,EA,1,100,0.595988
1576863986.642386,161797.000,26661,1,EA,1,100,0.595508
1576863986.710603,161854.500,26678,2,EA,1,100,0.593706
1576863986.778820,161912.000,26678,2,EA,1,100,0.595000
1576863986.847630,161970.000,26694,2,EA,1,100,0.596977
1576863986.916439,162028.000,26694,2,EA,1,100,0.595686
1576863986.987622,162088.000,26712,1,EA,1,100,0.596522
1576863987.054652,162144.500,26731,2,EA,1,100,0.598340
1576863987.121682,162201.000,26731,2,EA,1,100,0.594902
1576863987.185154,162254.500,26749,2,EA,1,100,0.593181
1576863987.248625,162308.000,26749,2,EA,1,100,0.592907
1576863987.316841,162365.500,26767,2,EA,1,100,0.594873
1576863987.385058,162423.000,26767,2,EA,1,100,0.594092
1576863987.448529,162476.500,26785,2,EA,1,100,0.596316
1576863987.512000,162530.000,26785,2,EA,1,100,0.597633
1576863987.580217,162587.500,26803,2,EA,1,100,0.595935
1576863987.648434,162645.000,26803,2,EA,1,100,0.595271
1576863987.713685,162700.000,26821,1,EA,1,100,0.595700
1576863987.784867,162760.000,26838,2,EA,1,100,0.596701
1576863987.856050,162820.000,26838,2,EA,1,100,0.596089
1576863987.920114,162874.000,26856,2,EA,1,100,0.595519
1576863987.984178,162928.000,26856,2,EA,1,100,0.595638
1576863988.048243,162982.000,26872,2,EA,1,100,0.595846
1576863988.112307,163036.000,26872,2,EA,1,100,0.595400
1576863988.178744,163092.000,26891,2,EA,1,100,0.595241
1576863988.245181,163148.000,26891,2,EA,1,100,0.595366
1576863988.312805,163205.000,26909,1,EA,1,100,0.595461
1576863988.380428,163262.000,26927,2,EA,1,100,0.595388
1576863988.448052,163319.000,26927,2,EA,1,100,0.595416
1576863988.513896,163374.500,26945,2,EA,1,100,0.595622
1576863988.579739,163430.000,26945,2,EA,1,100,0.595455
1576863988.643211,163483.500,26963,2,EA,1,100,0.595308
1576863988.706682,163537.000,26963,2,EA,1,100,0.595462
1576863988.773712,163593.500,26981,2,EA,1,100,0.595544
1576863988.840742,163650.000,26981,2,EA,1,100,0.595205
1576863988.908366,163707.000,26999,1,EA,1,100,0.595241
1576863988.977769,163765.500,27016,2,EA,1,100,0.595481
1576863989.047172,163824.000,27016,2,EA,1,100,0.595394
1576863989.113609,163880.000,27035,2,EA,1,100,0.595088
1576863989.180046,163936.000,27035,2,EA,1,100,0.595325
1576863989.243517,163989.500,27051,2,EA,1,100,0.595474
1576863989.306988,164043.000,27051,2,EA,1,100,0.595199
1576863989.373425,164099.000,27069,2,EA,1,100,0.595042
1576863989.439862,164155.000,27069,2,EA,1,100,0.595284
1576863989.506299,164211.000,27087,1,EA,1,100,0.595344
1576863989.575703,164269.500,27105,2,EA,1,100,0.595092
1576863989.645106,164328.000,27105,2,EA,1,100,0.595128
1576863989.712136,164384.500,27123,2,EA,1,100,0.595445
1576863989.779166,164441.000,27123,2,EA,1,100,0.595150
1576863989.842044,164494.000,27141,2,EA,1,100,0.595037
1576863989.904922,164547.000,27141,2,EA,1,100,0.595259
1576863989.970766,164602.500,27159,2,EA,1,100,0.595371
1576863990.036610,164658.000,27159,2,EA,1,100,0.595080
1576863990.103047,164714.000,27178,1,EA,1,100,0.595051
1576863990.171857,164772.000,27195,2,EA,1,100,0.595365
