EpochTimestamp,EmotiBitTimestamp,PacketNumber,DataLength,TypeTag,ProtocolVersion,DataReliability,GY
1576863843.762299,41363.000,6813,12,GY,1,100,0.977
1576863843.762299,41363.000,6813,12,GY,1,100,0.946
1576863843.762299,41363.000,6813,12,GY,1,100,-0.031
1576863843.762299,41363.000,6813,12,GY,1,100,-1.923
1576863843.762299,41363.000,6813,12,GY,1,100,-3.235
1576863843.762299,41363.000,6813,12,GY,1,100,-5.554
1576863843.762299,41363.000,6813,12,GY,1,100,-3.601
1576863843.762299,41363.000,6813,12,GY,1,100,-4.333
1576863843.762299,41363.000,6813,12,GY,1,100,-3.235
1576863843.762299,41363.000,6813,12,GY,1,100,0.641
1576863843.762299,41363.000,6813,12,GY,1,100,-1.404
1576863843.762299,41363.000,6813,12,GY,1,100,-4.730
1576863843.800263,41395.000,6829,3,GY,1,100,-7.141
1576863843.838227,41427.000,6829,3,GY,1,100,-13.245
1576863843.876191,41459.000,6829,3,GY,1,100,-8.392
1576863843.916924,41493.333,6847,3,GY,1,100,-10.040
1576863843.957656,41527.667,6847,3,GY,1,100,-7.202
1576863843.998388,41562.000,6847,3,GY,1,100,1.984
1576863844.039516,41596.667,6865,3,GY,1,100,6.226
1576863844.080644,41631.333,6865,3,GY,1,100,9.369
1576863844.121771,41666.000,6865,3,GY,1,100,14.191
1576863844.163295,41701.000,6883,2,GY,1,100,14.374
1576863844.204818,41736.000,6883,2,GY,1,100,15.808
1576863844.248714,41773.000,6902,3,GY,1,100,14.099
1576863844.292610,41810.000,6902,3,GY,1,100,12.665
1576863844.336506,41847.000,6902,3,GY,1,100,15.778
1576863844.374173,41878.750,6920,4,GY,1,100,13.611
1576863844.411840,41910.500,6920,4,GY,1,100,13.611
1576863844.449508,41942.250,6920,4,GY,1,100,15.198
1576863844.487175,41974.000,6920,4,GY,1,100,13.458
1576863844.526326,42007.000,6938,3,GY,1,100,9.705
1576863844.565476,42040.000,6938,3,GY,1,100,5.249
1576863844.604627,42073.000,6938,3,GY,1,100,1.434
1576863844.646743,42108.500,6955,2,GY,1,100,-1.617
1576863844.688859,42144.000,6955,2,GY,1,100,-1.068
1576863844.729493,42178.250,6973,4,GY,1,100,-1.221
1576863844.770126,42212.500,6973,4,GY,1,100,-1.495
1576863844.810760,42246.750,6973,4,GY,1,100,2.472
1576863844.851393,42281.000,6973,4,GY,1,100,2.930
1576863844.897662,42320.000,6989,2,GY,1,100,1.892
1576863844.943930,42359.000,6989,2,GY,1,100,2.319
1576863844.981894,42391.000,7007,3,GY,1,100,2.930
1576863845.019859,42423.000,7007,3,GY,1,100,0.397
1576863845.057822,42455.000,7007,3,GY,1,100,-0.275
1576863845.096577,42487.667,7025,3,GY,1,100,-0.214
1576863845.135333,42520.333,7025,3,GY,1,100,0.305
1576863845.174088,42553.000,7025,3,GY,1,100,1.556
1576863845.215215,42587.667,7044,3,GY,1,100,2.441
1576863845.256343,42622.333,7044,3,GY,1,100,1.556
1576863845.297471,42657.000,7044,3,GY,1,100,1.526
1576863845.337807,42691.000,7062,3,GY,1,100,-0.122
1576863845.378144,42725.000,7062,3,GY,1,100,0.244
1576863845.418481,42759.000,7062,3,GY,1,100,-0.336
1576863845.460004,42794.000,7080,3,GY,1,100,-0.824
1576863845.501527,42829.000,7080,3,GY,1,100,1.465
1576863845.543051,42864.000,7080,3,GY,1,100,0.671
1576863845.584969,42899.333,7098,3,GY,1,100,0.244
1576863845.626888,42934.667,7098,3,GY,1,100,-0.854
1576863845.668807,42970.000,7098,3,GY,1,100,-1.434
1576863845.707561,43002.667,7116,3,GY,1,100,-0.671
1576863845.746316,43035.333,7116,3,GY,1,100,-0.549
1576863845.785071,43068.000,7116,3,GY,1,100,-2.075
1576863845.825013,43101.667,7133,3,GY,1,100,-2.441
1576863845.864954,43135.333,7133,3,GY,1,100,-0.824
1576863845.904896,43169.000,7133,3,GY,1,100,-2.563
1576863845.946419,43204.000,7151,3,GY,1,100,-2.960
1576863845.987942,43239.000,7151,3,GY,1,100,-2.563
1576863846.029465,43274.000,7151,3,GY,1,100,-3.479
1576863846.070593,43308.667,7167,3,GY,1,100,-2.472
1576863846.111721,43343.333,7167,3,GY,1,100,-0.336
1576863846.152848,43378.000,7167,3,GY,1,100,-1.221
1576863846.190812,43410.000,7185,3,GY,1,100,-1.587
1576863846.228776,43442.000,7185,3,GY,1,100,-2.594
1576863846.266740,43474.000,7185,3,GY,1,100,-1.984
1576863846.305100,43506.333,7204,3,GY,1,100,0.122
1576863846.343459,43538.667,7204,3,GY,1,100,1.740
1576863846.381819,43571.000,7204,3,GY,1,100,-0.549
1576863846.426506,43608.667,7222,3,GY,1,100,-15.045
1576863846.471193,43646.333,7222,3,GY,1,100,-22.736
1576863846.515879,43684.000,7222,3,GY,1,100,-20.538
1576863846.557403,43719.000,7240,3,GY,1,100,-19.379
1576863846.598926,43754.000,7240,3,GY,1,100,-10.956
1576863846.640449,43789.000,7240,3,GY,1,100,-0.122
1576863846.681972,43824.000,7258,3,GY,1,100,12.512
1576863846.723495,43859.000,7258,3,GY,1,100,15.564
1576863846.765018,43894.000,7258,3,GY,1,100,11.536
1576863846.802983,43926.000,7276,3,GY,1,100,10.681
1576863846.840947,43958.000,7276,3,GY,1,100,13.702
1576863846.878911,43990.000,7276,3,GY,1,100,16.052
1576863846.917270,44022.333,7294,3,GY,1,100,13.214
1576863846.955630,44054.667,7294,3,GY,1,100,7.904
1576863846.993989,44087.000,7294,3,GY,1,100,3.052
1576863847.034326,44121.000,7311,3,GY,1,100,3.693
1576863847.074663,44155.000,7311,3,GY,1,100,4.974
1576863847.115000,44189.000,7311,3,GY,1,100,-1.709
1576863847.157116,44224.500,7329,2,GY,1,100,-10.529
1576863847.199232,44260.000,7329,2,GY,1,100,-14.191
1576863847.243919,44297.667,7346,3,GY,1,100,-17.944
1576863847.288606,44335.333,7346,3,GY,1,100,-25.970
1576863847.333293,44373.000,7346,3,GY,1,100,-39.093
1576863847.373234,44406.667,7364,3,GY,1,100,-57.495
1576863847.413176,44440.333,7364,3,GY,1,100,-79.010
1576863847.453117,44474.000,7364,3,GY,1,100,-93.597
1576863847.489895,44505.000,7382,4,GY,1,100,-82.428
1576863847.526672,44536.000,7382,4,GY,1,100,-54.779
1576863847.563450,44567.000,7382,4,GY,1,100,-35.767
1576863847.600228,44598.000,7382,4,GY,1,100,-16.815
1576863847.640960,44632.333,7400,3,GY,1,100,5.188
1576863847.681692,44666.667,7400,3,GY,1,100,18.066
1576863847.722425,44701.000,7400,3,GY,1,100,19.012
1576863847.763157,44735.333,7418,3,GY,1,100,15.015
1576863847.803889,44769.667,7418,3,GY,1,100,-2.350
1576863847.844621,44804.000,7418,3,GY,1,100,-6.531
1576863847.890890,44843.000,7436,2,GY,1,100,-11.871
1576863847.937159,44882.000,7436,2,GY,1,100,-7.843
1576863847.978682,44917.000,7454,3,GY,1,100,-5.768
1576863848.020205,44952.000,7454,3,GY,1,100,-1.923
1576863848.061728,44987.000,7454,3,GY,1,100,0.580
1576863848.099297,45018.667,7472,3,GY,1,100,4.822
1576863848.136865,45050.333,7472,3,GY,1,100,10.406
1576863848.174434,45082.000,7472,3,GY,1,100,12.024
1576863848.213980,45115.333,7490,3,GY,1,100,6.439
1576863848.253526,45148.667,7490,3,GY,1,100,10.620
1576863848.293072,45182.000,7490,3,GY,1,100,3.326
1576863848.332618,45215.333,7508,3,GY,1,100,13.611
1576863848.372164,45248.667,7508,3,GY,1,100,-4.028
1576863848.411709,45282.000,7508,3,GY,1,100,-14.832
1576863848.453233,45317.000,7524,3,GY,1,100,1.617
1576863848.494756,45352.000,7524,3,GY,1,100,1.190
1576863848.536279,45387.000,7524,3,GY,1,100,-23.743
1576863848.581757,45425.333,7542,3,GY,1,100,-14.771
1576863848.627234,45463.667,7542,3,GY,1,100,0.092
1576863848.672712,45502.000,7542,3,GY,1,100,10.986
1576863848.710676,45534.000,7560,3,GY,1,100,10.773
1576863848.748640,45566.000,7560,3,GY,1,100,12.421
1576863848.786604,45598.000,7560,3,GY,1,100,8.331
1576863848.824173,45629.667,7578,3,GY,1,100,18.311
1576863848.861742,45661.333,7578,3,GY,1,100,-0.702
1576863848.899310,45693.000,7578,3,GY,1,100,2.106
1576863848.939647,45727.000,7596,3,GY,1,100,-8.026
1576863848.979984,45761.000,7596,3,GY,1,100,-35.309
1576863849.020321,45795.000,7596,3,GY,1,100,-28.778
1576863849.061053,45829.333,7614,3,GY,1,100,-7.721
1576863849.101785,45863.667,7614,3,GY,1,100,8.026
1576863849.142517,45898.000,7614,3,GY,1,100,12.604
1576863849.183250,45932.333,7632,3,GY,1,100,17.853
1576863849.223982,45966.667,7632,3,GY,1,100,20.874
1576863849.264714,46001.000,7632,3,GY,1,100,35.797
1576863849.303865,46034.000,7651,3,GY,1,100,5.157
1576863849.343015,46067.000,7651,3,GY,1,100,-20.966
1576863849.382165,46100.000,7651,3,GY,1,100,19.409
1576863849.424084,46135.333,7668,3,GY,1,100,-6.653
1576863849.466003,46170.667,7668,3,GY,1,100,-17.334
1576863849.507921,46206.000,7668,3,GY,1,100,-12.054
1576863849.547863,46239.667,7686,3,GY,1,100,-9.338
1576863849.587804,46273.333,7686,3,GY,1,100,2.869
1576863849.627745,46307.000,7686,3,GY,1,100,7.721
1576863849.669031,46341.800,7707,5,GY,1,100,7.385
1576863849.710317,46376.600,7707,5,GY,1,100,9.399
1576863849.751603,46411.400,7707,5,GY,1,100,6.805
1576863849.792889,46446.200,7707,5,GY,1,100,9.888
1576863849.834175,46481.000,7707,5,GY,1,100,19.928
1576863849.875698,46516.000,7727,2,GY,1,100,19.012
1576863849.917221,46551.000,7727,2,GY,1,100,13.214
1576863849.955185,46583.000,7745,4,GY,1,100,20.325
1576863849.993150,46615.000,7745,4,GY,1,100,23.773
1576863850.031114,46647.000,7745,4,GY,1,100,21.240
1576863850.069077,46679.000,7745,4,GY,1,100,33.569
1576863850.108624,46712.333,7762,3,GY,1,100,22.430
1576863850.148169,46745.667,7762,3,GY,1,100,15.289
1576863850.187715,46779.000,7762,3,GY,1,100,15.106
1576863850.234577,46818.500,7781,2,GY,1,100,14.496
1576863850.281439,46858.000,7781,2,GY,1,100,8.118
1576863850.322171,46892.333,7799,3,GY,1,100,5.829
1576863850.362904,46926.667,7799,3,GY,1,100,4.974
1576863850.403636,46961.000,7799,3,GY,1,100,4.150
1576863850.444763,46995.667,7815,3,GY,1,100,6.012
1576863850.485891,47030.333,7815,3,GY,1,100,3.693
1576863850.527019,47065.000,7815,3,GY,1,100,4.852
1576863850.564588,47096.667,7833,3,GY,1,100,7.233
1576863850.602156,47128.333,7833,3,GY,1,100,12.512
1576863850.639725,47160.000,7833,3,GY,1,100,10.712
1576863850.676898,47191.333,7851,3,GY,1,100,5.859
1576863850.714071,47222.667,7851,3,GY,1,100,3.113
1576863850.751244,47254.000,7851,3,GY,1,100,-0.336
1576863850.792767,47289.000,7869,3,GY,1,100,-0.031
1576863850.834291,47324.000,7869,3,GY,1,100,-1.190
1576863850.875814,47359.000,7869,3,GY,1,100,1.007
1576863850.920501,47396.667,7887,3,GY,1,100,5.646
1576863850.965187,47434.333,7887,3,GY,1,100,4.028
1576863851.009874,47472.000,7887,3,GY,1,100,2.380
1576863851.048234,47504.333,7905,3,GY,1,100,2.686
1576863851.086593,47536.667,7905,3,GY,1,100,0.153
1576863851.124953,47569.000,7905,3,GY,1,100,-2.960
1576863851.169640,47606.667,7923,3,GY,1,100,-3.021
1576863851.214327,47644.333,7923,3,GY,1,100,-0.061
1576863851.259013,47682.000,7923,3,GY,1,100,1.434
1576863851.300932,47717.333,7941,3,GY,1,100,-1.373
1576863851.342851,47752.667,7941,3,GY,1,100,0.549
1576863851.384769,47788.000,7941,3,GY,1,100,-0.061
1576863851.423129,47820.333,7959,3,GY,1,100,-0.183
1576863851.461488,47852.667,7959,3,GY,1,100,-1.373
1576863851.499848,47885.000,7959,3,GY,1,100,-4.578
1576863851.537416,47916.667,7976,3,GY,1,100,-2.960
1576863851.574985,47948.333,7976,3,GY,1,100,-4.425
1576863851.612554,47980.000,7976,3,GY,1,100,-3.693
1576863851.652890,48014.000,7993,3,GY,1,100,-2.289
1576863851.693227,48048.000,7993,3,GY,1,100,-1.068
1576863851.733564,48082.000,7993,3,GY,1,100,-0.244
1576863851.775087,48117.000,8011,3,GY,1,100,-1.099
1576863851.816610,48152.000,8011,3,GY,1,100,0.519
1576863851.858134,48187.000,8011,3,GY,1,100,-0.854
1576863851.905589,48227.000,8029,2,GY,1,100,-0.885
1576863851.953044,48267.000,8029,2,GY,1,100,0.183
1576863851.991601,48299.500,8047,4,GY,1,100,-0.183
1576863852.030158,48332.000,8047,4,GY,1,100,-0.397
1576863852.068715,48364.500,8047,4,GY,1,100,2.167
1576863852.107273,48397.000,8047,4,GY,1,100,4.150
1576863852.145632,48429.333,8065,3,GY,1,100,2.777
1576863852.183992,48461.667,8065,3,GY,1,100,4.608
1576863852.222351,48494.000,8065,3,GY,1,100,1.923
1576863852.262688,48528.000,8084,3,GY,1,100,-2.014
1576863852.303025,48562.000,8084,3,GY,1,100,-5.737
1576863852.343362,48596.000,8084,3,GY,1,100,-3.113
1576863852.383698,48630.000,8102,3,GY,1,100,-4.150
1576863852.424035,48664.000,8102,3,GY,1,100,-3.815
1576863852.464372,48698.000,8102,3,GY,1,100,-2.899
1576863852.505500,48732.667,8119,3,GY,1,100,-7.141
1576863852.546628,48767.333,8119,3,GY,1,100,-7.050
1576863852.587755,48802.000,8119,3,GY,1,100,-6.500
1576863852.632244,48839.500,8137,2,GY,1,100,-6.714
1576863852.676733,48877.000,8137,2,GY,1,100,-3.876
1576863852.714401,48908.750,8155,4,GY,1,100,-6.897
1576863852.752069,48940.500,8155,4,GY,1,100,-5.585
1576863852.789736,48972.250,8155,4,GY,1,100,-2.594
1576863852.827403,49004.000,8155,4,GY,1,100,0.885
1576863852.868333,49038.500,8171,2,GY,1,100,1.678
1576863852.909263,49073.000,8171,2,GY,1,100,1.984
1576863852.949996,49107.333,8189,3,GY,1,100,3.143
1576863852.990728,49141.667,8189,3,GY,1,100,1.221
1576863853.031460,49176.000,8189,3,GY,1,100,-2.655
1576863853.072588,49210.667,8207,3,GY,1,100,-6.195
1576863853.113716,49245.333,8207,3,GY,1,100,-8.728
1576863853.154843,49280.000,8207,3,GY,1,100,-7.629
1576863853.195180,49314.000,8225,3,GY,1,100,-4.425
1576863853.235517,49348.000,8225,3,GY,1,100,-0.702
1576863853.275854,49382.000,8225,3,GY,1,100,8.942
1576863853.313818,49414.000,8244,3,GY,1,100,15.839
1576863853.351782,49446.000,8244,3,GY,1,100,14.435
1576863853.389746,49478.000,8244,3,GY,1,100,14.435
1576863853.432060,49513.667,8262,3,GY,1,100,18.127
1576863853.474374,49549.333,8262,3,GY,1,100,13.367
1576863853.516688,49585.000,8262,3,GY,1,100,10.834
1576863853.556629,49618.667,8280,3,GY,1,100,17.578
1576863853.596571,49652.333,8280,3,GY,1,100,19.928
1576863853.636512,49686.000,8280,3,GY,1,100,20.935
1576863853.677640,49720.667,8297,3,GY,1,100,20.935
1576863853.718768,49755.333,8297,3,GY,1,100,21.881
1576863853.759895,49790.000,8297,3,GY,1,100,19.348
1576863853.801419,49825.000,8315,3,GY,1,100,9.796
1576863853.842942,49860.000,8315,3,GY,1,100,4.150
1576863853.884465,49895.000,8315,3,GY,1,100,2.869
1576863853.921243,49926.000,8333,3,GY,1,100,-4.242
1576863853.958020,49957.000,8333,3,GY,1,100,-21.088
1576863853.994798,49988.000,8333,3,GY,1,100,-17.853
1576863854.033553,50020.667,8349,3,GY,1,100,-13.763
1576863854.072308,50053.333,8349,3,GY,1,100,-1.312
1576863854.111063,50086.000,8349,3,GY,1,100,6.775
1576863854.155354,50123.333,8367,3,GY,1,100,10.834
1576863854.199646,50160.667,8367,3,GY,1,100,17.426
1576863854.243937,50198.000,8367,3,GY,1,100,19.287
1576863854.281901,50230.000,8386,3,GY,1,100,17.242
1576863854.319865,50262.000,8386,3,GY,1,100,16.418
1576863854.357829,50294.000,8386,3,GY,1,100,13.000
1576863854.403307,50332.333,8404,3,GY,1,100,9.674
1576863854.448785,50370.667,8404,3,GY,1,100,-14.954
1576863854.494262,50409.000,8404,3,GY,1,100,-36.652
1576863854.531436,50440.333,8422,3,GY,1,100,-27.252
1576863854.568609,50471.667,8422,3,GY,1,100,-23.071
1576863854.605782,50503.000,8422,3,GY,1,100,-14.343
1576863854.650469,50540.667,8440,3,GY,1,100,-17.670
1576863854.695156,50578.333,8440,3,GY,1,100,-16.907
1576863854.739842,50616.000,8440,3,GY,1,100,-7.141
1576863854.781366,50651.000,8457,2,GY,1,100,-4.425
1576863854.822889,50686.000,8457,2,GY,1,100,3.479
1576863854.863226,50720.000,8475,4,GY,1,100,17.944
1576863854.903563,50754.000,8475,4,GY,1,100,22.644
1576863854.943899,50788.000,8475,4,GY,1,100,37.598
1576863854.984236,50822.000,8475,4,GY,1,100,47.241
1576863855.022596,50854.333,8491,3,GY,1,100,40.161
1576863855.060955,50886.667,8491,3,GY,1,100,39.520
1576863855.099315,50919.000,8491,3,GY,1,100,22.552
1576863855.138465,50952.000,8509,3,GY,1,100,2.350
1576863855.177615,50985.000,8509,3,GY,1,100,5.371
1576863855.216766,51018.000,8509,3,GY,1,100,-2.747
1576863855.254334,51049.667,8528,3,GY,1,100,-12.756
1576863855.291903,51081.333,8528,3,GY,1,100,-15.930
1576863855.329472,51113.000,8528,3,GY,1,100,-8.942
1576863855.369808,51147.000,8546,3,GY,1,100,5.280
1576863855.410145,51181.000,8546,3,GY,1,100,12.787
1576863855.450482,51215.000,8546,3,GY,1,100,8.392
1576863855.491610,51249.667,8564,3,GY,1,100,-8.209
1576863855.532737,51284.333,8564,3,GY,1,100,-10.651
1576863855.573865,51319.000,8564,3,GY,1,100,-9.277
1576863855.615388,51354.000,8582,3,GY,1,100,-8.759
1576863855.656912,51389.000,8582,3,GY,1,100,-7.751
1576863855.698435,51424.000,8582,3,GY,1,100,-5.188
1576863855.739661,51458.750,8603,4,GY,1,100,-5.554
1576863855.780888,51493.500,8603,4,GY,1,100,-6.866
1576863855.822115,51528.250,8603,4,GY,1,100,-11.017
1576863855.863341,51563.000,8603,4,GY,1,100,-16.693
1576863855.902096,51595.667,8623,3,GY,1,100,-11.536
1576863855.940851,51628.333,8623,3,GY,1,100,-16.907
1576863855.979606,51661.000,8623,3,GY,1,100,-11.749
1576863856.019152,51694.333,8641,3,GY,1,100,-13.275
1576863856.058698,51727.667,8641,3,GY,1,100,-20.752
1576863856.098244,51761.000,8641,3,GY,1,100,-16.754
1576863856.139371,51795.667,8659,3,GY,1,100,-22.400
1576863856.180499,51830.333,8659,3,GY,1,100,-12.085
1576863856.221627,51865.000,8659,3,GY,1,100,-17.639
1576863856.263150,51900.000,8678,3,GY,1,100,-18.768
1576863856.304673,51935.000,8678,3,GY,1,100,-14.526
1576863856.346196,51970.000,8678,3,GY,1,100,-16.083
1576863856.388115,52005.333,8696,3,GY,1,100,-9.705
1576863856.430034,52040.667,8696,3,GY,1,100,-4.822
1576863856.471952,52076.000,8696,3,GY,1,100,-10.498
1576863856.510312,52108.333,8714,3,GY,1,100,-8.820
1576863856.548671,52140.667,8714,3,GY,1,100,-9.979
1576863856.587031,52173.000,8714,3,GY,1,100,-0.031
1576863856.627368,52207.000,8732,3,GY,1,100,9.155
1576863856.667705,52241.000,8732,3,GY,1,100,8.698
1576863856.708041,52275.000,8732,3,GY,1,100,-2.502
1576863856.749565,52310.000,8749,3,GY,1,100,-8.575
1576863856.791088,52345.000,8749,3,GY,1,100,-6.836
1576863856.832611,52380.000,8749,3,GY,1,100,-5.920
1576863856.874134,52415.000,8767,3,GY,1,100,-3.540
1576863856.915657,52450.000,8767,3,GY,1,100,-4.578
1576863856.957181,52485.000,8767,3,GY,1,100,6.531
1576863856.995540,52517.333,8783,3,GY,1,100,19.775
1576863857.033900,52549.667,8783,3,GY,1,100,10.529
1576863857.072259,52582.000,8783,3,GY,1,100,12.146
1576863857.110223,52614.000,8801,3,GY,1,100,13.062
1576863857.148187,52646.000,8801,3,GY,1,100,17.670
1576863857.186151,52678.000,8801,3,GY,1,100,10.925
1576863857.230047,52715.000,8820,3,GY,1,100,8.850
1576863857.273943,52752.000,8820,3,GY,1,100,9.766
1576863857.317839,52789.000,8820,3,GY,1,100,-1.495
1576863857.358571,52823.333,8838,3,GY,1,100,4.761
1576863857.399303,52857.667,8838,3,GY,1,100,2.930
1576863857.440036,52892.000,8838,3,GY,1,100,14.923
1576863857.480768,52926.333,8856,3,GY,1,100,3.296
1576863857.521500,52960.667,8856,3,GY,1,100,-2.960
1576863857.562232,52995.000,8856,3,GY,1,100,7.904
1576863857.602174,53028.667,8874,3,GY,1,100,3.510
1576863857.642115,53062.333,8874,3,GY,1,100,6.927
1576863857.682057,53096.000,8874,3,GY,1,100,11.444
1576863857.718834,53127.000,8892,3,GY,1,100,11.322
1576863857.755612,53158.000,8892,3,GY,1,100,10.864
1576863857.792390,53189.000,8892,3,GY,1,100,12.665
1576863857.833122,53223.333,8910,3,GY,1,100,10.040
1576863857.873854,53257.667,8910,3,GY,1,100,7.172
1576863857.914587,53292.000,8910,3,GY,1,100,0.458
1576863857.952155,53323.667,8928,3,GY,1,100,-12.939
1576863857.989724,53355.333,8928,3,GY,1,100,-8.453
1576863858.027292,53387.000,8928,3,GY,1,100,-12.329
1576863858.072375,53425.000,8945,3,GY,1,100,-10.223
1576863858.117457,53463.000,8945,3,GY,1,100,1.251
1576863858.162539,53501.000,8945,3,GY,1,100,0.549
1576863858.203667,53535.667,8961,3,GY,1,100,12.085
1576863858.244795,53570.333,8961,3,GY,1,100,19.348
1576863858.285922,53605.000,8961,3,GY,1,100,11.047
1576863858.326655,53639.333,8980,3,GY,1,100,32.471
1576863858.367387,53673.667,8980,3,GY,1,100,1.801
1576863858.408119,53708.000,8980,3,GY,1,100,2.167
1576863858.449642,53743.000,8998,2,GY,1,100,-1.007
1576863858.491165,53778.000,8998,2,GY,1,100,0.885
1576863858.532293,53812.667,9016,3,GY,1,100,5.432
1576863858.573421,53847.333,9016,3,GY,1,100,-6.073
1576863858.614549,53882.000,9016,3,GY,1,100,2.502
1576863858.653106,53914.500,9034,4,GY,1,100,-8.423
1576863858.691663,53947.000,9034,4,GY,1,100,-15.076
1576863858.730220,53979.500,9034,4,GY,1,100,-19.836
1576863858.768778,54012.000,9034,4,GY,1,100,-17.822
1576863858.807928,54045.000,9052,3,GY,1,100,-17.456
1576863858.847079,54078.000,9052,3,GY,1,100,-29.999
1576863858.886229,54111.000,9052,3,GY,1,100,-23.315
1576863858.925775,54144.333,9070,3,GY,1,100,-14.099
1576863858.965321,54177.667,9070,3,GY,1,100,-9.186
1576863859.004867,54211.000,9070,3,GY,1,100,29.877
1576863859.047576,54247.000,9087,2,GY,1,100,14.221
1576863859.090286,54283.000,9087,2,GY,1,100,-15.228
1576863859.130623,54317.000,9105,3,GY,1,100,-5.615
1576863859.170959,54351.000,9105,3,GY,1,100,17.487
1576863859.211296,54385.000,9105,3,GY,1,100,7.812
1576863859.252819,54420.000,9122,3,GY,1,100,-25.085
1576863859.294343,54455.000,9122,3,GY,1,100,-21.484
1576863859.335866,54490.000,9122,3,GY,1,100,-18.646
1576863859.380948,54528.000,9140,3,GY,1,100,-37.750
1576863859.426030,54566.000,9140,3,GY,1,100,-62.805
1576863859.471113,54604.000,9140,3,GY,1,100,-67.810
1576863859.509472,54636.333,9158,3,GY,1,100,-53.680
1576863859.547832,54668.667,9158,3,GY,1,100,-48.615
1576863859.586191,54701.000,9158,3,GY,1,100,-40.375
1576863859.623760,54732.667,9176,3,GY,1,100,-36.987
1576863859.661328,54764.333,9176,3,GY,1,100,-22.736
1576863859.698897,54796.000,9176,3,GY,1,100,-15.808
1576863859.738838,54829.667,9194,3,GY,1,100,-19.958
1576863859.778780,54863.333,9194,3,GY,1,100,-4.974
1576863859.818721,54897.000,9194,3,GY,1,100,13.550
1576863859.859453,54931.333,9212,3,GY,1,100,16.205
1576863859.900186,54965.667,9212,3,GY,1,100,1.038
1576863859.940918,55000.000,9212,3,GY,1,100,-7.294
1576863859.982045,55034.667,9230,3,GY,1,100,-15.259
1576863860.023173,55069.333,9230,3,GY,1,100,0.000
1576863860.064301,55104.000,9230,3,GY,1,100,4.669
1576863860.107406,55140.333,9248,3,GY,1,100,-8.423
1576863860.150511,55176.667,9248,3,GY,1,100,6.836
1576863860.193616,55213.000,9248,3,GY,1,100,27.863
1576863860.231580,55245.000,9267,3,GY,1,100,26.703
1576863860.269544,55277.000,9267,3,GY,1,100,20.172
1576863860.307508,55309.000,9267,3,GY,1,100,15.137
1576863860.347450,55342.667,9284,3,GY,1,100,0.916
1576863860.387391,55376.333,9284,3,GY,1,100,2.319
1576863860.427332,55410.000,9284,3,GY,1,100,7.416
1576863860.468855,55445.000,9302,3,GY,1,100,16.022
1576863860.510379,55480.000,9302,3,GY,1,100,8.179
1576863860.551902,55515.000,9302,3,GY,1,100,14.465
1576863860.593029,55549.667,9318,3,GY,1,100,23.376
1576863860.634157,55584.333,9318,3,GY,1,100,13.489
1576863860.675285,55619.000,9318,3,GY,1,100,1.160
1576863860.715226,55652.667,9336,3,GY,1,100,-4.913
1576863860.755168,55686.333,9336,3,GY,1,100,-4.303
1576863860.795109,55720.000,9336,3,GY,1,100,-1.923
1576863860.836237,55754.667,9354,3,GY,1,100,-0.793
1576863860.877364,55789.333,9354,3,GY,1,100,0.946
1576863860.918492,55824.000,9354,3,GY,1,100,0.214
1576863860.958038,55857.333,9372,3,GY,1,100,-1.373
1576863860.997584,55890.667,9372,3,GY,1,100,-5.676
1576863861.037130,55924.000,9372,3,GY,1,100,-2.167
1576863861.078258,55958.667,9390,3,GY,1,100,-3.571
1576863861.119385,55993.333,9390,3,GY,1,100,-4.578
1576863861.160513,56028.000,9390,3,GY,1,100,0.122
1576863861.201641,56062.667,9408,3,GY,1,100,-0.153
1576863861.242769,56097.333,9408,3,GY,1,100,-1.434
1576863861.283896,56132.000,9408,3,GY,1,100,1.190
1576863861.323047,56165.000,9427,3,GY,1,100,0.122
1576863861.362197,56198.000,9427,3,GY,1,100,-0.153
1576863861.401347,56231.000,9427,3,GY,1,100,-1.160
1576863861.439312,56263.000,9445,3,GY,1,100,-1.404
1576863861.477276,56295.000,9445,3,GY,1,100,0.580
1576863861.515240,56327.000,9445,3,GY,1,100,-1.282
1576863861.558542,56363.500,9462,2,GY,1,100,-0.092
1576863861.601845,56400.000,9462,2,GY,1,100,0.153
1576863861.639216,56431.500,9480,4,GY,1,100,0.153
1576863861.676587,56463.000,9480,4,GY,1,100,-2.197
1576863861.713958,56494.500,9480,4,GY,1,100,-2.258
1576863861.751328,56526.000,9480,4,GY,1,100,0.702
1576863861.791428,56559.800,9501,5,GY,1,100,-0.397
1576863861.831528,56593.600,9501,5,GY,1,100,-0.031
1576863861.871627,56627.400,9501,5,GY,1,100,-0.275
1576863861.911727,56661.200,9501,5,GY,1,100,0.641
1576863861.951826,56695.000,9501,5,GY,1,100,0.183
1576863861.992163,56729.000,9519,2,GY,1,100,-2.289
1576863862.032500,56763.000,9519,2,GY,1,100,-0.122
1576863862.077187,56800.667,9538,3,GY,1,100,3.235
1576863862.121874,56838.333,9538,3,GY,1,100,1.312
1576863862.166560,56876.000,9538,3,GY,1,100,-0.671
1576863862.207688,56910.667,9557,3,GY,1,100,0.946
1576863862.248816,56945.333,9557,3,GY,1,100,3.326
1576863862.289944,56980.000,9557,3,GY,1,100,2.411
1576863862.331071,57014.667,9575,3,GY,1,100,1.465
1576863862.372199,57049.333,9575,3,GY,1,100,0.763
1576863862.413327,57084.000,9575,3,GY,1,100,-0.122
1576863862.450895,57115.667,9591,3,GY,1,100,1.465
1576863862.488464,57147.333,9591,3,GY,1,100,2.777
1576863862.526032,57179.000,9591,3,GY,1,100,0.977
1576863862.564788,57211.667,9609,3,GY,1,100,0.244
1576863862.603543,57244.333,9609,3,GY,1,100,-0.977
1576863862.642298,57277.000,9609,3,GY,1,100,0.427
1576863862.683425,57311.667,9627,3,GY,1,100,1.801
1576863862.724553,57346.333,9627,3,GY,1,100,1.678
1576863862.765681,57381.000,9627,3,GY,1,100,-1.068
1576863862.806808,57415.667,9645,3,GY,1,100,-0.580
1576863862.847936,57450.333,9645,3,GY,1,100,0.488
1576863862.889064,57485.000,9645,3,GY,1,100,-0.580
1576863862.934541,57523.333,9663,3,GY,1,100,-0.092
1576863862.980019,57561.667,9663,3,GY,1,100,1.160
1576863863.025497,57600.000,9663,3,GY,1,100,0.214
1576863863.062670,57631.333,9681,3,GY,1,100,-1.190
1576863863.099844,57662.667,9681,3,GY,1,100,-0.488
1576863863.137017,57694.000,9681,3,GY,1,100,0.031
1576863863.175376,57726.333,9699,3,GY,1,100,0.061
1576863863.213736,57758.667,9699,3,GY,1,100,-0.519
1576863863.252095,57791.000,9699,3,GY,1,100,-1.343
1576863863.292827,57825.333,9718,3,GY,1,100,-0.641
1576863863.333560,57859.667,9718,3,GY,1,100,-0.763
1576863863.374292,57894.000,9718,3,GY,1,100,-1.465
1576863863.414233,57927.667,9735,3,GY,1,100,-1.251
1576863863.454175,57961.333,9735,3,GY,1,100,0.488
1576863863.494116,57995.000,9735,3,GY,1,100,0.885
1576863863.539594,58033.333,9753,3,GY,1,100,-0.793
1576863863.585072,58071.667,9753,3,GY,1,100,-0.916
1576863863.630549,58110.000,9753,3,GY,1,100,0.458
1576863863.668513,58142.000,9769,3,GY,1,100,0.488
1576863863.706477,58174.000,9769,3,GY,1,100,-1.251
1576863863.744441,58206.000,9769,3,GY,1,100,-0.946
1576863863.782801,58238.333,9787,3,GY,1,100,0.488
1576863863.821160,58270.667,9787,3,GY,1,100,0.183
1576863863.859520,58303.000,9787,3,GY,1,100,-0.641
1576863863.899857,58337.000,9805,3,GY,1,100,-0.153
1576863863.940193,58371.000,9805,3,GY,1,100,0.092
1576863863.980530,58405.000,9805,3,GY,1,100,-0.092
1576863864.021263,58439.333,9823,3,GY,1,100,-0.305
1576863864.061995,58473.667,9823,3,GY,1,100,0.031
1576863864.102727,58508.000,9823,3,GY,1,100,-0.092
1576863864.143855,58542.667,9841,3,GY,1,100,-0.488
1576863864.184983,58577.333,9841,3,GY,1,100,-0.305
1576863864.226110,58612.000,9841,3,GY,1,100,-0.458
1576863864.265261,58645.000,9860,2,GY,1,100,-0.427
1576863864.304411,58678.000,9860,2,GY,1,100,-0.244
1576863864.345341,58712.500,9878,4,GY,1,100,-0.458
1576863864.386271,58747.000,9878,4,GY,1,100,0.000
1576863864.427201,58781.500,9878,4,GY,1,100,-0.610
1576863864.468131,58816.000,9878,4,GY,1,100,-0.977
1576863864.507282,58849.000,9896,3,GY,1,100,0.183
1576863864.546432,58882.000,9896,3,GY,1,100,-0.244
1576863864.585582,58915.000,9896,3,GY,1,100,-0.916
1576863864.627699,58950.500,9913,2,GY,1,100,0.092
1576863864.669815,58986.000,9913,2,GY,1,100,-0.122
1576863864.710547,59020.333,9931,3,GY,1,100,-0.183
1576863864.751280,59054.667,9931,3,GY,1,100,0.641
1576863864.792012,59089.000,9931,3,GY,1,100,-0.580
1576863864.832349,59123.000,9947,3,GY,1,100,-0.977
1576863864.872686,59157.000,9947,3,GY,1,100,0.671
1576863864.913022,59191.000,9947,3,GY,1,100,0.061
1576863864.950690,59222.750,9965,4,GY,1,100,-0.793
1576863864.988357,59254.500,9965,4,GY,1,100,0.061
1576863865.026025,59286.250,9965,4,GY,1,100,-0.183
1576863865.063692,59318.000,9965,4,GY,1,100,-0.305
1576863865.108774,59356.000,9983,2,GY,1,100,0.153
1576863865.153857,59394.000,9983,2,GY,1,100,-0.031
1576863865.195380,59429.000,10002,3,GY,1,100,0.031
1576863865.236903,59464.000,10002,3,GY,1,100,-0.275
1576863865.278426,59499.000,10002,3,GY,1,100,-0.427
1576863865.319159,59533.333,10020,3,GY,1,100,-0.153
1576863865.359891,59567.667,10020,3,GY,1,100,-0.275
1576863865.400623,59602.000,10020,3,GY,1,100,-0.092
1576863865.438587,59634.000,10038,3,GY,1,100,0.153
1576863865.476551,59666.000,10038,3,GY,1,100,0.031
1576863865.514515,59698.000,10038,3,GY,1,100,0.092
1576863865.558411,59735.000,10056,3,GY,1,100,-0.702
1576863865.602307,59772.000,10056,3,GY,1,100,-0.488
1576863865.646203,59809.000,10056,3,GY,1,100,0.488
1576863865.687331,59843.667,10073,3,GY,1,100,-0.366
1576863865.728459,59878.333,10073,3,GY,1,100,-0.946
1576863865.769586,59913.000,10073,3,GY,1,100,0.488
1576863865.811110,59948.000,10091,3,GY,1,100,0.031
1576863865.852633,59983.000,10091,3,GY,1,100,-0.732
1576863865.894156,60018.000,10091,3,GY,1,100,0.244
1576863865.932911,60050.667,10107,3,GY,1,100,0.092
1576863865.971666,60083.333,10107,3,GY,1,100,-0.244
1576863866.010421,60116.000,10107,3,GY,1,100,-0.061
1576863866.050758,60150.000,10125,3,GY,1,100,0.092
1576863866.091094,60184.000,10125,3,GY,1,100,-0.153
1576863866.131431,60218.000,10125,3,GY,1,100,-0.397
1576863866.169395,60250.000,10143,3,GY,1,100,0.214
1576863866.207359,60282.000,10143,3,GY,1,100,-0.427
1576863866.245323,60314.000,10143,3,GY,1,100,-0.854
1576863866.283683,60346.333,10162,3,GY,1,100,0.275
1576863866.322042,60378.667,10162,3,GY,1,100,0.183
1576863866.360402,60411.000,10162,3,GY,1,100,-0.214
1576863866.401134,60445.333,10180,3,GY,1,100,-0.092
1576863866.441866,60479.667,10180,3,GY,1,100,0.153
1576863866.482599,60514.000,10180,3,GY,1,100,0.214
1576863866.522936,60548.000,10198,3,GY,1,100,-0.305
1576863866.563272,60582.000,10198,3,GY,1,100,-0.153
1576863866.603609,60616.000,10198,3,GY,1,100,0.000
1576863866.649087,60654.333,10216,3,GY,1,100,0.061
1576863866.694565,60692.667,10216,3,GY,1,100,0.031
1576863866.740042,60731.000,10216,3,GY,1,100,-0.153
1576863866.777611,60762.667,10234,3,GY,1,100,0.092
1576863866.815180,60794.333,10234,3,GY,1,100,0.031
1576863866.852748,60826.000,10234,3,GY,1,100,-0.336
1576863866.891503,60858.667,10252,3,GY,1,100,0.244
1576863866.930258,60891.333,10252,3,GY,1,100,-0.092
1576863866.969013,60924.000,10252,3,GY,1,100,-0.305
1576863867.008559,60957.333,10269,3,GY,1,100,0.122
1576863867.048105,60990.667,10269,3,GY,1,100,0.153
1576863867.087651,61024.000,10269,3,GY,1,100,0.275
1576863867.129174,61059.000,10287,3,GY,1,100,-0.153
1576863867.170697,61094.000,10287,3,GY,1,100,-0.336
1576863867.212220,61129.000,10287,3,GY,1,100,-0.092
1576863867.253348,61163.667,10304,3,GY,1,100,-0.366
1576863867.294476,61198.333,10304,3,GY,1,100,-0.427
1576863867.335603,61233.000,10304,3,GY,1,100,0.092
1576863867.377918,61268.667,10322,3,GY,1,100,-0.275
1576863867.420232,61304.333,10322,3,GY,1,100,-0.549
1576863867.462546,61340.000,10322,3,GY,1,100,-0.122
1576863867.500510,61372.000,10340,3,GY,1,100,-0.061
1576863867.538474,61404.000,10340,3,GY,1,100,-0.122
1576863867.576438,61436.000,10340,3,GY,1,100,-0.305
1576863867.616775,61470.000,10358,3,GY,1,100,-0.671
1576863867.657112,61504.000,10358,3,GY,1,100,-0.092
1576863867.697448,61538.000,10358,3,GY,1,100,0.214
1576863867.738972,61573.000,10376,3,GY,1,100,-0.366
1576863867.780495,61608.000,10376,3,GY,1,100,-0.031
1576863867.822018,61643.000,10376,3,GY,1,100,0.488
1576863867.863838,61678.250,10397,4,GY,1,100,-0.061
1576863867.905658,61713.500,10397,4,GY,1,100,0.122
1576863867.947477,61748.750,10397,4,GY,1,100,0.732
1576863867.989297,61784.000,10397,4,GY,1,100,0.549
1576863868.026470,61815.333,10417,3,GY,1,100,-0.061
1576863868.063643,61846.667,10417,3,GY,1,100,-0.488
1576863868.100816,61878.000,10417,3,GY,1,100,-0.244
1576863868.142735,61913.333,10435,3,GY,1,100,0.031
1576863868.184654,61948.667,10435,3,GY,1,100,-0.458
1576863868.226573,61984.000,10435,3,GY,1,100,-0.519
1576863868.267700,62018.667,10454,3,GY,1,100,-0.366
1576863868.308828,62053.333,10454,3,GY,1,100,0.153
1576863868.349956,62088.000,10454,3,GY,1,100,-0.031
1576863868.391083,62122.667,10472,3,GY,1,100,-0.549
1576863868.432211,62157.333,10472,3,GY,1,100,0.336
1576863868.473339,62192.000,10472,3,GY,1,100,0.092
1576863868.514071,62226.333,10490,3,GY,1,100,-0.183
1576863868.554803,62260.667,10490,3,GY,1,100,0.122
1576863868.595536,62295.000,10490,3,GY,1,100,-0.427
1576863868.633500,62327.000,10508,3,GY,1,100,-0.519
1576863868.671464,62359.000,10508,3,GY,1,100,0.183
1576863868.709428,62391.000,10508,3,GY,1,100,0.427
1576863868.746996,62422.667,10526,3,GY,1,100,-0.305
1576863868.784565,62454.333,10526,3,GY,1,100,-0.397
1576863868.822134,62486.000,10526,3,GY,1,100,0.336
1576863868.866820,62523.667,10543,3,GY,1,100,0.153
1576863868.911507,62561.333,10543,3,GY,1,100,-0.549
1576863868.956194,62599.000,10543,3,GY,1,100,-0.275
1576863868.997322,62633.667,10561,3,GY,1,100,0.214
1576863869.038450,62668.333,10561,3,GY,1,100,0.153
1576863869.079577,62703.000,10561,3,GY,1,100,0.305
1576863869.120705,62737.667,10577,3,GY,1,100,0.122
1576863869.161833,62772.333,10577,3,GY,1,100,-0.336
1576863869.202960,62807.000,10577,3,GY,1,100,-0.061
1576863869.241320,62839.333,10596,3,GY,1,100,0.824
1576863869.279680,62871.667,10596,3,GY,1,100,0.336
1576863869.318039,62904.000,10596,3,GY,1,100,-0.854
1576863869.361935,62941.000,10614,3,GY,1,100,-0.885
1576863869.405831,62978.000,10614,3,GY,1,100,0.183
1576863869.449727,63015.000,10614,3,GY,1,100,-0.061
1576863869.490459,63049.333,10632,3,GY,1,100,-0.366
1576863869.531191,63083.667,10632,3,GY,1,100,0.244
1576863869.571923,63118.000,10632,3,GY,1,100,1.007
1576863869.614040,63153.500,10650,2,GY,1,100,0.031
1576863869.656156,63189.000,10650,2,GY,1,100,-0.336
1576863869.694120,63221.000,10668,4,GY,1,100,-0.092
1576863869.732085,63253.000,10668,4,GY,1,100,-0.214
1576863869.770048,63285.000,10668,4,GY,1,100,0.732
1576863869.808012,63317.000,10668,4,GY,1,100,2.411
1576863869.846767,63349.667,10686,3,GY,1,100,2.258
1576863869.885522,63382.333,10686,3,GY,1,100,0.305
1576863869.924277,63415.000,10686,3,GY,1,100,-0.824
1576863869.965010,63449.333,10703,3,GY,1,100,-0.244
1576863870.005742,63483.667,10703,3,GY,1,100,-0.305
1576863870.046474,63518.000,10703,3,GY,1,100,-0.580
1576863870.087404,63552.500,10721,2,GY,1,100,0.977
1576863870.128334,63587.000,10721,2,GY,1,100,1.556
1576863870.173021,63624.667,10737,3,GY,1,100,0.763
1576863870.217708,63662.333,10737,3,GY,1,100,0.336
1576863870.262395,63700.000,10737,3,GY,1,100,-0.366
1576863870.301150,63732.667,10756,3,GY,1,100,-0.153
1576863870.339905,63765.333,10756,3,GY,1,100,-0.366
1576863870.378660,63798.000,10756,3,GY,1,100,-0.824
1576863870.415833,63829.333,10774,3,GY,1,100,-0.305
1576863870.453006,63860.667,10774,3,GY,1,100,-0.427
1576863870.490179,63892.000,10774,3,GY,1,100,-0.641
1576863870.530219,63925.750,10792,4,GY,1,100,0.031
1576863870.570260,63959.500,10792,4,GY,1,100,0.153
1576863870.610300,63993.250,10792,4,GY,1,100,0.061
1576863870.650340,64027.000,10792,4,GY,1,100,0.183
1576863870.691270,64061.500,10810,2,GY,1,100,0.061
1576863870.732200,64096.000,10810,2,GY,1,100,-0.366
1576863870.773328,64130.667,10828,3,GY,1,100,0.061
1576863870.814455,64165.333,10828,3,GY,1,100,0.122
1576863870.855583,64200.000,10828,3,GY,1,100,-0.397
1576863870.899084,64236.667,10846,3,GY,1,100,-0.214
1576863870.942584,64273.333,10846,3,GY,1,100,0.122
1576863870.986084,64310.000,10846,3,GY,1,100,0.092
1576863871.023258,64341.333,10864,3,GY,1,100,-0.397
1576863871.060431,64372.667,10864,3,GY,1,100,-0.275
1576863871.097604,64404.000,10864,3,GY,1,100,-0.092
1576863871.137150,64437.333,10881,3,GY,1,100,-0.092
1576863871.176696,64470.667,10881,3,GY,1,100,-0.183
1576863871.216242,64504.000,10881,3,GY,1,100,-0.366
1576863871.257765,64539.000,10900,3,GY,1,100,-0.031
1576863871.299288,64574.000,10900,3,GY,1,100,0.092
1576863871.340811,64609.000,10900,3,GY,1,100,-0.183
1576863871.381939,64643.667,10916,3,GY,1,100,-0.244
1576863871.423067,64678.333,10916,3,GY,1,100,0.122
1576863871.464194,64713.000,10916,3,GY,1,100,0.092
1576863871.504531,64747.000,10934,3,GY,1,100,-0.519
1576863871.544868,64781.000,10934,3,GY,1,100,-0.885
1576863871.585205,64815.000,10934,3,GY,1,100,-0.275
1576863871.625937,64849.333,10952,3,GY,1,100,0.214
1576863871.666669,64883.667,10952,3,GY,1,100,0.122
1576863871.707402,64918.000,10952,3,GY,1,100,-0.214
1576863871.745761,64950.333,10970,3,GY,1,100,-0.336
1576863871.784121,64982.667,10970,3,GY,1,100,-0.183
1576863871.822480,65015.000,10970,3,GY,1,100,-0.031
1576863871.863212,65049.333,10988,3,GY,1,100,0.214
1576863871.903945,65083.667,10988,3,GY,1,100,-0.061
1576863871.944677,65118.000,10988,3,GY,1,100,-0.336
1576863871.985805,65152.667,11006,3,GY,1,100,-0.122
1576863872.026932,65187.333,11006,3,GY,1,100,0.061
1576863872.068060,65222.000,11006,3,GY,1,100,-0.153
1576863872.107606,65255.333,11024,3,GY,1,100,-0.244
1576863872.147152,65288.667,11024,3,GY,1,100,-0.092
1576863872.186698,65322.000,11024,3,GY,1,100,-0.061
1576863872.224662,65354.000,11043,3,GY,1,100,-0.061
1576863872.262626,65386.000,11043,3,GY,1,100,-0.275
1576863872.300590,65418.000,11043,3,GY,1,100,-0.244
1576863872.343299,65454.000,11061,3,GY,1,100,-0.153
1576863872.386009,65490.000,11061,3,GY,1,100,-0.488
1576863872.428719,65526.000,11061,3,GY,1,100,0.000
1576863872.464705,65556.333,11078,3,GY,1,100,0.183
1576863872.500692,65586.667,11078,3,GY,1,100,-0.366
1576863872.536679,65617.000,11078,3,GY,1,100,-0.183
1576863872.581366,65654.667,11096,3,GY,1,100,0.061
1576863872.626053,65692.333,11096,3,GY,1,100,-0.366
1576863872.670739,65730.000,11096,3,GY,1,100,-0.275
1576863872.705144,65759.000,11114,3,GY,1,100,0.397
1576863872.739549,65788.000,11114,3,GY,1,100,0.244
1576863872.773954,65817.000,11114,3,GY,1,100,-0.061
1576863872.818641,65854.667,11130,3,GY,1,100,-0.244
1576863872.863328,65892.333,11130,3,GY,1,100,-0.183
1576863872.908015,65930.000,11130,3,GY,1,100,0.061
1576863872.949538,65965.000,11148,3,GY,1,100,0.061
1576863872.991061,66000.000,11148,3,GY,1,100,-0.183
1576863873.032584,66035.000,11148,3,GY,1,100,-0.397
1576863873.074503,66070.333,11166,3,GY,1,100,-0.336
1576863873.116421,66105.667,11166,3,GY,1,100,0.000
1576863873.158340,66141.000,11166,3,GY,1,100,-0.275
1576863873.197095,66173.667,11184,3,GY,1,100,-0.305
1576863873.235850,66206.333,11184,3,GY,1,100,-0.244
1576863873.274605,66239.000,11184,3,GY,1,100,-0.244
1576863873.316919,66274.667,11203,3,GY,1,100,-0.061
1576863873.359233,66310.333,11203,3,GY,1,100,0.031
1576863873.401547,66346.000,11203,3,GY,1,100,-0.458
1576863873.439116,66377.667,11221,3,GY,1,100,-0.244
1576863873.476685,66409.333,11221,3,GY,1,100,-0.061
1576863873.514253,66441.000,11221,3,GY,1,100,-0.031
1576863873.553008,66473.667,11239,3,GY,1,100,0.092
1576863873.591763,66506.333,11239,3,GY,1,100,-0.122
1576863873.630518,66539.000,11239,3,GY,1,100,-0.061
1576863873.671250,66573.333,11256,3,GY,1,100,0.000
1576863873.711983,66607.667,11256,3,GY,1,100,-0.061
1576863873.752715,66642.000,11256,3,GY,1,100,-0.092
1576863873.793843,66676.667,11274,3,GY,1,100,0.122
1576863873.834970,66711.333,11274,3,GY,1,100,-0.214
1576863873.876098,66746.000,11274,3,GY,1,100,-0.275
1576863873.919401,66782.500,11293,4,GY,1,100,0.153
1576863873.962703,66819.000,11293,4,GY,1,100,-0.366
1576863874.006006,66855.500,11293,4,GY,1,100,-0.397
1576863874.049309,66892.000,11293,4,GY,1,100,0.305
1576863874.087273,66924.000,11315,3,GY,1,100,0.000
1576863874.125237,66956.000,11315,3,GY,1,100,-0.580
1576863874.163201,66988.000,11315,3,GY,1,100,-0.183
1576863874.201561,67020.333,11334,3,GY,1,100,0.244
1576863874.239920,67052.667,11334,3,GY,1,100,-0.031
1576863874.278280,67085.000,11334,3,GY,1,100,-0.275
1576863874.319012,67119.333,11351,3,GY,1,100,-0.122
1576863874.359744,67153.667,11351,3,GY,1,100,-0.031
1576863874.400476,67188.000,11351,3,GY,1,100,-0.122
1576863874.440813,67222.000,11369,3,GY,1,100,-0.153
1576863874.481150,67256.000,11369,3,GY,1,100,-0.092
1576863874.521487,67290.000,11369,3,GY,1,100,-0.122
1576863874.565778,67327.333,11385,3,GY,1,100,-0.183
1576863874.610070,67364.667,11385,3,GY,1,100,-0.092
1576863874.654361,67402.000,11385,3,GY,1,100,-0.092
1576863874.692325,67434.000,11403,3,GY,1,100,-0.275
1576863874.730289,67466.000,11403,3,GY,1,100,-0.275
1576863874.768253,67498.000,11403,3,GY,1,100,-0.061
1576863874.807008,67530.667,11421,3,GY,1,100,-0.061
1576863874.845763,67563.333,11421,3,GY,1,100,-0.305
1576863874.884518,67596.000,11421,3,GY,1,100,-0.305
1576863874.924855,67630.000,11439,3,GY,1,100,-0.153
1576863874.965192,67664.000,11439,3,GY,1,100,-0.122
1576863875.005529,67698.000,11439,3,GY,1,100,-0.031
1576863875.047052,67733.000,11457,3,GY,1,100,-0.122
1576863875.088575,67768.000,11457,3,GY,1,100,-0.244
1576863875.130098,67803.000,11457,3,GY,1,100,-0.305
1576863875.171621,67838.000,11475,3,GY,1,100,-0.031
1576863875.213145,67873.000,11475,3,GY,1,100,-0.092
1576863875.254668,67908.000,11475,3,GY,1,100,-0.397
1576863875.292632,67940.000,11494,3,GY,1,100,-0.580
1576863875.330596,67972.000,11494,3,GY,1,100,-0.244
1576863875.368560,68004.000,11494,3,GY,1,100,0.000
1576863875.410874,68039.667,11512,3,GY,1,100,0.000
1576863875.453188,68075.333,11512,3,GY,1,100,-0.122
1576863875.495502,68111.000,11512,3,GY,1,100,-0.549
1576863875.535839,68145.000,11529,3,GY,1,100,-0.183
1576863875.576176,68179.000,11529,3,GY,1,100,0.366
1576863875.616513,68213.000,11529,3,GY,1,100,-0.244
1576863875.657640,68247.667,11547,3,GY,1,100,-0.397
1576863875.698768,68282.333,11547,3,GY,1,100,0.122
1576863875.739896,68317.000,11547,3,GY,1,100,0.000
1576863875.781815,68352.333,11563,3,GY,1,100,-0.214
1576863875.823733,68387.667,11563,3,GY,1,100,-0.031
1576863875.865652,68423.000,11563,3,GY,1,100,0.061
1576863875.903220,68454.667,11581,3,GY,1,100,-0.031
1576863875.940789,68486.333,11581,3,GY,1,100,-0.122
1576863875.978358,68518.000,11581,3,GY,1,100,-0.031
1576863876.016322,68550.000,11599,3,GY,1,100,-0.092
1576863876.054286,68582.000,11599,3,GY,1,100,0.031
1576863876.092250,68614.000,11599,3,GY,1,100,0.275
1576863876.136541,68651.333,11617,3,GY,1,100,-0.092
1576863876.180832,68688.667,11617,3,GY,1,100,-0.183
1576863876.225124,68726.000,11617,3,GY,1,100,0.153
1576863876.262297,68757.333,11636,3,GY,1,100,0.122
1576863876.299470,68788.667,11636,3,GY,1,100,-0.092
1576863876.336643,68820.000,11636,3,GY,1,100,0.153
1576863876.383505,68859.500,11654,2,GY,1,100,0.458
1576863876.430367,68899.000,11654,2,GY,1,100,0.519
1576863876.468331,68931.000,11672,4,GY,1,100,0.031
1576863876.506295,68963.000,11672,4,GY,1,100,0.031
1576863876.544259,68995.000,11672,4,GY,1,100,0.031
1576863876.582223,69027.000,11672,4,GY,1,100,-0.549
1576863876.629678,69067.000,11689,2,GY,1,100,-0.610
1576863876.677133,69107.000,11689,2,GY,1,100,0.000
1576863876.717866,69141.333,11707,3,GY,1,100,-0.397
1576863876.758598,69175.667,11707,3,GY,1,100,-0.336
1576863876.799330,69210.000,11707,3,GY,1,100,-0.244
1576863876.840853,69245.000,11723,3,GY,1,100,-0.061
1576863876.882377,69280.000,11723,3,GY,1,100,0.275
1576863876.923900,69315.000,11723,3,GY,1,100,0.366
1576863876.961864,69347.000,11741,3,GY,1,100,-0.183
1576863876.999828,69379.000,11741,3,GY,1,100,-0.366
1576863877.037792,69411.000,11741,3,GY,1,100,0.366
1576863877.075756,69443.000,11759,3,GY,1,100,0.336
1576863877.113720,69475.000,11759,3,GY,1,100,-0.275
1576863877.151684,69507.000,11759,3,GY,1,100,-0.031
1576863877.192416,69541.333,11778,3,GY,1,100,0.061
1576863877.233149,69575.667,11778,3,GY,1,100,-0.214
1576863877.273881,69610.000,11778,3,GY,1,100,0.031
1576863877.318172,69647.333,11796,3,GY,1,100,0.061
1576863877.362464,69684.667,11796,3,GY,1,100,-0.275
1576863877.406755,69722.000,11796,3,GY,1,100,-0.214
1576863877.448278,69757.000,11814,3,GY,1,100,-0.031
1576863877.489801,69792.000,11814,3,GY,1,100,-0.183
1576863877.531325,69827.000,11814,3,GY,1,100,-0.305
1576863877.569684,69859.333,11832,3,GY,1,100,-0.092
1576863877.608044,69891.667,11832,3,GY,1,100,-0.366
1576863877.646403,69924.000,11832,3,GY,1,100,-0.458
1576863877.684367,69956.000,11850,3,GY,1,100,-0.092
1576863877.722331,69988.000,11850,3,GY,1,100,-0.366
1576863877.760295,70020.000,11850,3,GY,1,100,-0.214
1576863877.799841,70053.333,11867,3,GY,1,100,0.061
1576863877.839387,70086.667,11867,3,GY,1,100,-0.366
1576863877.878933,70120.000,11867,3,GY,1,100,-0.183
1576863877.920456,70155.000,11885,3,GY,1,100,0.000
1576863877.961979,70190.000,11885,3,GY,1,100,-0.336
1576863878.003503,70225.000,11885,3,GY,1,100,0.061
1576863878.044235,70259.333,11903,3,GY,1,100,-0.061
1576863878.084967,70293.667,11903,3,GY,1,100,-0.488
1576863878.125699,70328.000,11903,3,GY,1,100,-0.092
1576863878.168013,70363.667,11919,3,GY,1,100,-0.061
1576863878.210327,70399.333,11919,3,GY,1,100,-0.427
1576863878.252642,70435.000,11919,3,GY,1,100,-0.397
1576863878.290606,70467.000,11938,3,GY,1,100,-0.397
1576863878.328570,70499.000,11938,3,GY,1,100,-0.214
1576863878.366534,70531.000,11938,3,GY,1,100,0.000
1576863878.406475,70564.667,11956,3,GY,1,100,-0.305
1576863878.446416,70598.333,11956,3,GY,1,100,-0.458
1576863878.486358,70632.000,11956,3,GY,1,100,-0.031
1576863878.527881,70667.000,11974,3,GY,1,100,0.122
1576863878.569404,70702.000,11974,3,GY,1,100,-0.244
1576863878.610927,70737.000,11974,3,GY,1,100,-0.305
1576863878.652451,70772.000,11992,3,GY,1,100,-0.183
1576863878.693974,70807.000,11992,3,GY,1,100,-0.336
1576863878.735497,70842.000,11992,3,GY,1,100,-0.183
1576863878.775043,70875.333,12010,3,GY,1,100,0.031
1576863878.814589,70908.667,12010,3,GY,1,100,-0.336
1576863878.854135,70942.000,12010,3,GY,1,100,-0.183
1576863878.891308,70973.333,12028,3,GY,1,100,0.305
1576863878.928481,71004.667,12028,3,GY,1,100,0.061
1576863878.965654,71036.000,12028,3,GY,1,100,-0.366
1576863879.008759,71072.333,12046,3,GY,1,100,-0.244
1576863879.051864,71108.667,12046,3,GY,1,100,-0.244
1576863879.094969,71145.000,12046,3,GY,1,100,-0.031
1576863879.135701,71179.333,12063,3,GY,1,100,0.061
1576863879.176434,71213.667,12063,3,GY,1,100,-0.732
1576863879.217166,71248.000,12063,3,GY,1,100,-0.397
1576863879.257898,71282.333,12082,3,GY,1,100,0.275
1576863879.298630,71316.667,12082,3,GY,1,100,-0.153
1576863879.339363,71351.000,12082,3,GY,1,100,-0.397
1576863879.379699,71385.000,12098,3,GY,1,100,-0.214
1576863879.420036,71419.000,12098,3,GY,1,100,-0.061
1576863879.460373,71453.000,12098,3,GY,1,100,0.000
1576863879.497151,71484.000,12116,3,GY,1,100,0.122
1576863879.533928,71515.000,12116,3,GY,1,100,-0.183
1576863879.570706,71546.000,12116,3,GY,1,100,-0.153
1576863879.611438,71580.333,12134,3,GY,1,100,0.000
1576863879.652171,71614.667,12134,3,GY,1,100,-0.092
1576863879.692903,71649.000,12134,3,GY,1,100,-0.244
1576863879.730471,71680.667,12152,3,GY,1,100,-0.153
1576863879.768040,71712.333,12152,3,GY,1,100,-0.092
1576863879.805609,71744.000,12152,3,GY,1,100,0.000
1576863879.850296,71781.667,12170,3,GY,1,100,0.183
1576863879.894982,71819.333,12170,3,GY,1,100,-0.275
1576863879.939669,71857.000,12170,3,GY,1,100,-0.427
1576863879.978820,71890.000,12191,4,GY,1,100,0.183
1576863880.017970,71923.000,12191,4,GY,1,100,0.000
1576863880.057121,71956.000,12191,4,GY,1,100,-0.244
1576863880.096271,71989.000,12191,4,GY,1,100,0.031
1576863880.139771,72025.667,12210,3,GY,1,100,0.031
1576863880.183272,72062.333,12210,3,GY,1,100,-0.275
1576863880.226772,72099.000,12210,3,GY,1,100,-0.122
1576863880.265132,72131.333,12229,3,GY,1,100,-0.092
1576863880.303491,72163.667,12229,3,GY,1,100,-0.183
1576863880.341851,72196.000,12229,3,GY,1,100,-0.031
1576863880.386933,72234.000,12247,3,GY,1,100,0.000
1576863880.432015,72272.000,12247,3,GY,1,100,-0.305
1576863880.477098,72310.000,12247,3,GY,1,100,-0.183
1576863880.518226,72344.667,12265,3,GY,1,100,0.000
1576863880.559353,72379.333,12265,3,GY,1,100,-0.183
1576863880.600481,72414.000,12265,3,GY,1,100,-0.275
1576863880.640422,72447.667,12283,3,GY,1,100,-0.244
1576863880.680364,72481.333,12283,3,GY,1,100,-0.214
1576863880.720305,72515.000,12283,3,GY,1,100,-0.214
1576863880.758665,72547.333,12301,3,GY,1,100,-0.305
1576863880.797024,72579.667,12301,3,GY,1,100,-0.305
1576863880.835384,72612.000,12301,3,GY,1,100,-0.061
1576863880.874534,72645.000,12318,3,GY,1,100,-0.092
1576863880.913684,72678.000,12318,3,GY,1,100,-0.397
1576863880.952835,72711.000,12318,3,GY,1,100,-0.366
1576863880.993963,72745.667,12336,3,GY,1,100,0.031
1576863881.035090,72780.333,12336,3,GY,1,100,-0.092
1576863881.076218,72815.000,12336,3,GY,1,100,-0.519
1576863881.120509,72852.333,12352,3,GY,1,100,-0.336
1576863881.164801,72889.667,12352,3,GY,1,100,-0.275
1576863881.209092,72927.000,12352,3,GY,1,100,-0.336
1576863881.249429,72961.000,12371,3,GY,1,100,0.031
1576863881.289766,72995.000,12371,3,GY,1,100,-0.153
1576863881.330103,73029.000,12371,3,GY,1,100,-0.671
1576863881.367671,73060.667,12389,3,GY,1,100,-0.336
1576863881.405240,73092.333,12389,3,GY,1,100,-0.061
1576863881.442808,73124.000,12389,3,GY,1,100,-0.183
1576863881.481959,73157.000,12407,3,GY,1,100,-0.214
1576863881.521109,73190.000,12407,3,GY,1,100,-0.458
1576863881.560260,73223.000,12407,3,GY,1,100,-0.397
1576863881.600201,73256.667,12425,3,GY,1,100,-0.183
1576863881.640142,73290.333,12425,3,GY,1,100,-0.183
1576863881.680084,73324.000,12425,3,GY,1,100,-0.061
1576863881.721607,73359.000,12443,3,GY,1,100,-0.336
1576863881.763130,73394.000,12443,3,GY,1,100,-0.061
1576863881.804653,73429.000,12443,3,GY,1,100,0.031
1576863881.851515,73468.500,12461,2,GY,1,100,-0.336
1576863881.898377,73508.000,12461,2,GY,1,100,-0.153
1576863881.936638,73540.250,12479,4,GY,1,100,-0.092
1576863881.974898,73572.500,12479,4,GY,1,100,-0.275
1576863882.013159,73604.750,12479,4,GY,1,100,-0.336
1576863882.051420,73637.000,12479,4,GY,1,100,-0.305
1576863882.090175,73669.667,12496,3,GY,1,100,-0.305
1576863882.128930,73702.333,12496,3,GY,1,100,-0.031
1576863882.167685,73735.000,12496,3,GY,1,100,-0.244
1576863882.208021,73769.000,12515,3,GY,1,100,-0.275
1576863882.248358,73803.000,12515,3,GY,1,100,0.061
1576863882.288695,73837.000,12515,3,GY,1,100,0.061
1576863882.329823,73871.667,12533,3,GY,1,100,-0.244
1576863882.370950,73906.333,12533,3,GY,1,100,-0.122
1576863882.412078,73941.000,12533,3,GY,1,100,-0.031
1576863882.453008,73975.500,12549,2,GY,1,100,-0.122
1576863882.493938,74010.000,12549,2,GY,1,100,0.000
1576863882.536648,74046.000,12567,3,GY,1,100,-0.122
1576863882.579357,74082.000,12567,3,GY,1,100,-0.305
1576863882.622067,74118.000,12567,3,GY,1,100,-0.092
1576863882.659240,74149.333,12585,3,GY,1,100,-0.427
1576863882.696413,74180.667,12585,3,GY,1,100,-0.336
1576863882.733586,74212.000,12585,3,GY,1,100,-0.031
1576863882.773923,74246.000,12603,3,GY,1,100,-0.183
1576863882.814260,74280.000,12603,3,GY,1,100,-0.031
1576863882.854597,74314.000,12603,3,GY,1,100,-0.153
1576863882.895329,74348.333,12621,3,GY,1,100,-0.183
1576863882.936061,74382.667,12621,3,GY,1,100,0.122
1576863882.976794,74417.000,12621,3,GY,1,100,-0.061
1576863883.017921,74451.667,12639,3,GY,1,100,-0.366
1576863883.059049,74486.333,12639,3,GY,1,100,-0.183
1576863883.100177,74521.000,12639,3,GY,1,100,-0.244
1576863883.139327,74554.000,12657,3,GY,1,100,-0.671
1576863883.178478,74587.000,12657,3,GY,1,100,-0.153
1576863883.217628,74620.000,12657,3,GY,1,100,0.031
1576863883.257965,74654.000,12676,3,GY,1,100,-0.336
1576863883.298301,74688.000,12676,3,GY,1,100,0.000
1576863883.338638,74722.000,12676,3,GY,1,100,-0.244
1576863883.379766,74756.667,12693,3,GY,1,100,-0.610
1576863883.420894,74791.333,12693,3,GY,1,100,-0.092
1576863883.462022,74826.000,12693,3,GY,1,100,-0.183
1576863883.496426,74855.000,12711,3,GY,1,100,-0.122
1576863883.530831,74884.000,12711,3,GY,1,100,0.092
1576863883.565236,74913.000,12711,3,GY,1,100,0.122
1576863883.605573,74947.000,12727,4,GY,1,100,0.336
1576863883.645910,74981.000,12727,4,GY,1,100,0.092
1576863883.686247,75015.000,12727,4,GY,1,100,-0.031
1576863883.726583,75049.000,12727,4,GY,1,100,0.366
1576863883.766327,75082.500,12745,2,GY,1,100,0.275
1576863883.806071,75116.000,12745,2,GY,1,100,-0.488
1576863883.850758,75153.667,12763,3,GY,1,100,-0.214
1576863883.895444,75191.333,12763,3,GY,1,100,0.000
1576863883.940131,75229.000,12763,3,GY,1,100,-0.183
1576863883.981259,75263.667,12781,3,GY,1,100,0.092
1576863884.022387,75298.333,12781,3,GY,1,100,-0.336
1576863884.063514,75333.000,12781,3,GY,1,100,-0.458
1576863884.105433,75368.333,12799,3,GY,1,100,0.305
1576863884.147352,75403.667,12799,3,GY,1,100,0.214
1576863884.189270,75439.000,12799,3,GY,1,100,-0.275
1576863884.229212,75472.667,12818,3,GY,1,100,-0.092
1576863884.269153,75506.333,12818,3,GY,1,100,0.000
1576863884.309094,75540.000,12818,3,GY,1,100,0.061
1576863884.349827,75574.333,12836,3,GY,1,100,0.000
1576863884.390559,75608.667,12836,3,GY,1,100,-0.366
1576863884.431291,75643.000,12836,3,GY,1,100,-0.214
1576863884.468860,75674.667,12853,3,GY,1,100,0.031
1576863884.506428,75706.333,12853,3,GY,1,100,-0.214
1576863884.543997,75738.000,12853,3,GY,1,100,-0.397
1576863884.583543,75771.333,12871,3,GY,1,100,-0.061
1576863884.623089,75804.667,12871,3,GY,1,100,-0.153
1576863884.662635,75838.000,12871,3,GY,1,100,-0.244
1576863884.702971,75872.000,12889,3,GY,1,100,-0.214
1576863884.743308,75906.000,12889,3,GY,1,100,-0.122
1576863884.783645,75940.000,12889,3,GY,1,100,0.092
1576863884.829123,75978.333,12905,3,GY,1,100,-0.244
1576863884.874601,76016.667,12905,3,GY,1,100,-0.122
1576863884.920079,76055.000,12905,3,GY,1,100,-0.153
1576863884.960811,76089.333,12923,3,GY,1,100,-0.488
1576863885.001543,76123.667,12923,3,GY,1,100,-0.305
1576863885.042275,76158.000,12923,3,GY,1,100,-0.092
1576863885.080239,76190.000,12941,3,GY,1,100,-0.366
1576863885.118203,76222.000,12941,3,GY,1,100,-0.458
1576863885.156168,76254.000,12941,3,GY,1,100,-0.214
1576863885.194131,76286.000,12960,3,GY,1,100,0.092
1576863885.232095,76318.000,12960,3,GY,1,100,0.031
1576863885.270060,76350.000,12960,3,GY,1,100,-0.458
1576863885.310396,76384.000,12978,3,GY,1,100,-0.519
1576863885.350733,76418.000,12978,3,GY,1,100,0.000
1576863885.391070,76452.000,12978,3,GY,1,100,0.153
1576863885.431802,76486.333,12996,3,GY,1,100,-0.153
1576863885.472534,76520.667,12996,3,GY,1,100,-0.427
1576863885.513267,76555.000,12996,3,GY,1,100,-0.275
1576863885.560129,76594.500,13014,2,GY,1,100,-0.092
1576863885.606991,76634.000,13014,2,GY,1,100,-0.275
1576863885.645844,76666.750,13031,4,GY,1,100,-0.458
1576863885.684698,76699.500,13031,4,GY,1,100,-0.183
1576863885.723552,76732.250,13031,4,GY,1,100,-0.031
1576863885.762406,76765.000,13031,4,GY,1,100,-0.153
1576863885.800370,76797.000,13049,3,GY,1,100,-0.214
1576863885.838334,76829.000,13049,3,GY,1,100,-0.183
1576863885.876298,76861.000,13049,3,GY,1,100,-0.183
1576863885.916635,76895.000,13067,3,GY,1,100,-0.153
1576863885.956972,76929.000,13067,3,GY,1,100,-0.214
1576863885.997308,76963.000,13067,3,GY,1,100,-0.275
1576863886.038832,76998.000,13088,4,GY,1,100,-0.305
1576863886.080355,77033.000,13088,4,GY,1,100,-0.153
1576863886.121878,77068.000,13088,4,GY,1,100,-0.092
1576863886.163401,77103.000,13088,4,GY,1,100,-0.214
1576863886.204134,77137.333,13109,3,GY,1,100,-0.031
1576863886.244866,77171.667,13109,3,GY,1,100,-0.153
1576863886.285598,77206.000,13109,3,GY,1,100,-0.214
1576863886.326726,77240.667,13127,3,GY,1,100,-0.122
1576863886.367853,77275.333,13127,3,GY,1,100,-0.031
1576863886.408981,77310.000,13127,3,GY,1,100,-0.092
1576863886.447736,77342.667,13144,3,GY,1,100,-0.183
1576863886.486491,77375.333,13144,3,GY,1,100,-0.031
1576863886.525246,77408.000,13144,3,GY,1,100,0.061
1576863886.565978,77442.333,13162,3,GY,1,100,-0.183
1576863886.606711,77476.667,13162,3,GY,1,100,-0.092
1576863886.647443,77511.000,13162,3,GY,1,100,0.092
1576863886.688175,77545.333,13178,3,GY,1,100,-0.244
1576863886.728907,77579.667,13178,3,GY,1,100,-0.366
1576863886.769640,77614.000,13178,3,GY,1,100,-0.305
1576863886.810767,77648.667,13196,3,GY,1,100,-0.336
1576863886.851895,77683.333,13196,3,GY,1,100,0.061
1576863886.893023,77718.000,13196,3,GY,1,100,0.031
1576863886.930196,77749.333,13214,3,GY,1,100,-0.427
1576863886.967369,77780.667,13214,3,GY,1,100,-0.092
1576863887.004542,77812.000,13214,3,GY,1,100,0.305
1576863887.044088,77845.333,13232,3,GY,1,100,0.092
1576863887.083634,77878.667,13232,3,GY,1,100,-0.214
1576863887.123180,77912.000,13232,3,GY,1,100,-0.122
1576863887.161144,77944.000,13251,3,GY,1,100,-0.061
1576863887.199108,77976.000,13251,3,GY,1,100,-0.031
1576863887.237072,78008.000,13251,3,GY,1,100,-0.031
1576863887.280573,78044.667,13269,3,GY,1,100,-0.122
1576863887.324073,78081.333,13269,3,GY,1,100,0.000
1576863887.367573,78118.000,13269,3,GY,1,100,-0.031
1576863887.405538,78150.000,13287,3,GY,1,100,-0.061
1576863887.443502,78182.000,13287,3,GY,1,100,0.031
1576863887.481466,78214.000,13287,3,GY,1,100,-0.061
1576863887.523384,78249.333,13305,3,GY,1,100,-0.061
1576863887.565303,78284.667,13305,3,GY,1,100,-0.061
1576863887.607222,78320.000,13305,3,GY,1,100,-0.031
1576863887.648349,78354.667,13322,3,GY,1,100,-0.061
1576863887.689477,78389.333,13322,3,GY,1,100,-0.061
1576863887.730605,78424.000,13322,3,GY,1,100,-0.153
1576863887.771733,78458.667,13340,3,GY,1,100,-0.092
1576863887.812860,78493.333,13340,3,GY,1,100,-0.122
1576863887.853988,78528.000,13340,3,GY,1,100,-0.153
1576863887.893929,78561.667,13356,3,GY,1,100,0.000
1576863887.933871,78595.333,13356,3,GY,1,100,0.000
1576863887.973812,78629.000,13356,3,GY,1,100,-0.153
1576863888.014544,78663.333,13374,3,GY,1,100,-0.122
1576863888.055276,78697.667,13374,3,GY,1,100,0.092
1576863888.096009,78732.000,13374,3,GY,1,100,-0.397
1576863888.134764,78764.667,13392,3,GY,1,100,-0.366
1576863888.173519,78797.333,13392,3,GY,1,100,0.092
1576863888.212274,78830.000,13392,3,GY,1,100,-0.305
1576863888.250238,78862.000,13411,3,GY,1,100,-0.549
1576863888.288202,78894.000,13411,3,GY,1,100,-0.366
1576863888.326166,78926.000,13411,3,GY,1,100,-0.458
1576863888.366503,78960.000,13429,3,GY,1,100,-0.122
1576863888.406839,78994.000,13429,3,GY,1,100,0.275
1576863888.447176,79028.000,13429,3,GY,1,100,-0.366
1576863888.491863,79065.667,13447,3,GY,1,100,-0.702
1576863888.536550,79103.333,13447,3,GY,1,100,-0.183
1576863888.581237,79141.000,13447,3,GY,1,100,0.122
1576863888.622365,79175.667,13465,3,GY,1,100,-0.092
1576863888.663492,79210.333,13465,3,GY,1,100,-0.153
1576863888.704620,79245.000,13465,3,GY,1,100,-0.244
1576863888.743375,79277.667,13483,3,GY,1,100,-0.244
1576863888.782130,79310.333,13483,3,GY,1,100,-0.122
1576863888.820885,79343.000,13483,3,GY,1,100,-0.153
1576863888.859244,79375.333,13500,3,GY,1,100,-0.397
1576863888.897604,79407.667,13500,3,GY,1,100,-0.153
1576863888.935963,79440.000,13500,3,GY,1,100,0.000
1576863888.975114,79473.000,13518,3,GY,1,100,-0.244
1576863889.014264,79506.000,13518,3,GY,1,100,-0.275
1576863889.053415,79539.000,13518,3,GY,1,100,-0.244
1576863889.094938,79574.000,13536,3,GY,1,100,-0.122
1576863889.136461,79609.000,13536,3,GY,1,100,-0.153
1576863889.177984,79644.000,13536,3,GY,1,100,-0.275
1576863889.223660,79682.500,13553,2,GY,1,100,-0.244
1576863889.269335,79721.000,13553,2,GY,1,100,-0.153
1576863889.309376,79754.750,13571,4,GY,1,100,-0.092
1576863889.349416,79788.500,13571,4,GY,1,100,-0.153
1576863889.389456,79822.250,13571,4,GY,1,100,-0.153
1576863889.429496,79856.000,13571,4,GY,1,100,-0.092
1576863889.467460,79888.000,13589,3,GY,1,100,-0.092
1576863889.505424,79920.000,13589,3,GY,1,100,-0.153
1576863889.543388,79952.000,13589,3,GY,1,100,-0.153
1576863889.582539,79985.000,13607,3,GY,1,100,0.092
1576863889.621689,80018.000,13607,3,GY,1,100,-0.092
1576863889.660840,80051.000,13607,3,GY,1,100,-0.305
1576863889.701572,80085.333,13625,3,GY,1,100,-0.275
1576863889.742304,80119.667,13625,3,GY,1,100,-0.122
1576863889.783036,80154.000,13625,3,GY,1,100,-0.366
1576863889.824560,80189.000,13643,3,GY,1,100,-0.427
1576863889.866083,80224.000,13643,3,GY,1,100,-0.214
1576863889.907606,80259.000,13643,3,GY,1,100,-0.061
1576863889.953875,80298.000,13661,2,GY,1,100,-0.092
1576863890.000143,80337.000,13661,2,GY,1,100,-0.458
1576863890.036921,80368.000,13679,4,GY,1,100,-0.458
1576863890.073699,80399.000,13679,4,GY,1,100,0.183
1576863890.110476,80430.000,13679,4,GY,1,100,0.183
1576863890.147254,80461.000,13679,4,GY,1,100,-0.397
1576863890.187195,80494.667,13697,3,GY,1,100,-0.336
1576863890.227137,80528.333,13697,3,GY,1,100,-0.092
1576863890.267078,80562.000,13697,3,GY,1,100,0.000
1576863890.307415,80596.000,13715,3,GY,1,100,-0.031
1576863890.347752,80630.000,13715,3,GY,1,100,-0.153
1576863890.388088,80664.000,13715,3,GY,1,100,0.061
1576863890.429018,80698.500,13731,2,GY,1,100,0.000
1576863890.469949,80733.000,13731,2,GY,1,100,-0.153
1576863890.511472,80768.000,13749,3,GY,1,100,-0.031
1576863890.552995,80803.000,13749,3,GY,1,100,-0.031
1576863890.594518,80838.000,13749,3,GY,1,100,-0.122
1576863890.635250,80872.333,13767,3,GY,1,100,0.000
1576863890.675982,80906.667,13767,3,GY,1,100,-0.275
1576863890.716715,80941.000,13767,3,GY,1,100,-0.183
1576863890.753493,80972.000,13785,4,GY,1,100,0.061
1576863890.790270,81003.000,13785,4,GY,1,100,-0.183
1576863890.827048,81034.000,13785,4,GY,1,100,0.000
1576863890.863826,81065.000,13785,4,GY,1,100,-0.031
1576863890.905942,81100.500,13803,2,GY,1,100,-0.244
1576863890.948058,81136.000,13803,2,GY,1,100,-0.031
1576863890.984243,81166.500,13821,4,GY,1,100,-0.061
1576863891.020427,81197.000,13821,4,GY,1,100,-0.183
1576863891.056612,81227.500,13821,4,GY,1,100,-0.122
1576863891.092796,81258.000,13821,4,GY,1,100,-0.061
1576863891.134715,81293.333,13839,3,GY,1,100,-0.183
1576863891.176634,81328.667,13839,3,GY,1,100,-0.153
1576863891.218552,81364.000,13839,3,GY,1,100,-0.153
1576863891.258098,81397.333,13858,3,GY,1,100,-0.427
1576863891.297644,81430.667,13858,3,GY,1,100,-0.580
1576863891.337190,81464.000,13858,3,GY,1,100,0.031
1576863891.378318,81498.667,13876,3,GY,1,100,0.092
1576863891.419445,81533.333,13876,3,GY,1,100,-0.549
1576863891.460573,81568.000,13876,3,GY,1,100,-0.488
1576863891.502096,81603.000,13893,2,GY,1,100,-0.092
1576863891.543619,81638.000,13893,2,GY,1,100,0.000
1576863891.583660,81671.750,13911,4,GY,1,100,0.000
1576863891.623700,81705.500,13911,4,GY,1,100,-0.214
1576863891.663740,81739.250,13911,4,GY,1,100,-0.366
1576863891.703780,81773.000,13911,4,GY,1,100,-0.122
1576863891.742535,81805.667,13927,3,GY,1,100,-0.153
1576863891.781290,81838.333,13927,3,GY,1,100,-0.397
1576863891.820045,81871.000,13927,3,GY,1,100,-0.214
1576863891.858405,81903.333,13945,3,GY,1,100,-0.092
1576863891.896764,81935.667,13945,3,GY,1,100,-0.275
1576863891.935124,81968.000,13945,3,GY,1,100,-0.244
1576863891.972692,81999.667,13963,3,GY,1,100,-0.214
1576863892.010261,82031.333,13963,3,GY,1,100,-0.305
1576863892.047829,82063.000,13963,3,GY,1,100,-0.122
1576863892.090539,82099.000,13984,5,GY,1,100,-0.153
1576863892.133249,82135.000,13984,5,GY,1,100,-0.397
1576863892.175958,82171.000,13984,5,GY,1,100,-0.153
1576863892.218668,82207.000,13984,5,GY,1,100,-0.092
1576863892.261377,82243.000,13984,5,GY,1,100,-0.275
1576863892.302900,82278.000,14004,2,GY,1,100,-0.092
1576863892.344424,82313.000,14004,2,GY,1,100,0.000
1576863892.385551,82347.667,14022,3,GY,1,100,-0.153
1576863892.426679,82382.333,14022,3,GY,1,100,-0.183
1576863892.467807,82417.000,14022,3,GY,1,100,-0.122
1576863892.505375,82448.667,14038,3,GY,1,100,-0.275
1576863892.542944,82480.333,14038,3,GY,1,100,-0.305
1576863892.580513,82512.000,14038,3,GY,1,100,-0.275
1576863892.619663,82545.000,14056,3,GY,1,100,0.031
1576863892.658813,82578.000,14056,3,GY,1,100,0.000
1576863892.697964,82611.000,14056,3,GY,1,100,-0.153
1576863892.737510,82644.333,14074,3,GY,1,100,-0.305
1576863892.777056,82677.667,14074,3,GY,1,100,-0.183
1576863892.816602,82711.000,14074,3,GY,1,100,0.214
1576863892.861684,82749.000,14092,3,GY,1,100,0.000
1576863892.906766,82787.000,14092,3,GY,1,100,-0.336
1576863892.951849,82825.000,14092,3,GY,1,100,-0.183
1576863892.993372,82860.000,14110,3,GY,1,100,0.000
1576863893.034895,82895.000,14110,3,GY,1,100,-0.183
1576863893.076418,82930.000,14110,3,GY,1,100,-0.244
1576863893.113986,82961.667,14128,3,GY,1,100,-0.031
1576863893.151555,82993.333,14128,3,GY,1,100,-0.061
1576863893.189124,83025.000,14128,3,GY,1,100,-0.122
1576863893.227483,83057.333,14147,3,GY,1,100,-0.183
1576863893.265843,83089.667,14147,3,GY,1,100,-0.153
1576863893.304202,83122.000,14147,3,GY,1,100,0.122
1576863893.344539,83156.000,14165,3,GY,1,100,-0.122
1576863893.384876,83190.000,14165,3,GY,1,100,-0.275
1576863893.425213,83224.000,14165,3,GY,1,100,-0.061
1576863893.466736,83259.000,14182,3,GY,1,100,-0.061
1576863893.508259,83294.000,14182,3,GY,1,100,-0.031
1576863893.549782,83329.000,14182,3,GY,1,100,0.031
1576863893.594469,83366.667,14200,3,GY,1,100,0.000
1576863893.639156,83404.333,14200,3,GY,1,100,-0.153
1576863893.683843,83442.000,14200,3,GY,1,100,-0.092
1576863893.721411,83473.667,14218,3,GY,1,100,-0.122
1576863893.758980,83505.333,14218,3,GY,1,100,-0.183
1576863893.796549,83537.000,14218,3,GY,1,100,-0.061
1576863893.833326,83568.000,14234,3,GY,1,100,-0.336
1576863893.870104,83599.000,14234,3,GY,1,100,-0.214
1576863893.906882,83630.000,14234,3,GY,1,100,0.183
1576863893.947614,83664.333,14252,3,GY,1,100,-0.183
1576863893.988346,83698.667,14252,3,GY,1,100,-0.427
1576863894.029078,83733.000,14252,3,GY,1,100,-0.092
1576863894.070206,83767.667,14270,3,GY,1,100,0.122
1576863894.111334,83802.333,14270,3,GY,1,100,0.000
1576863894.152462,83837.000,14270,3,GY,1,100,-0.244
1576863894.193194,83871.333,14289,3,GY,1,100,-0.244
1576863894.233926,83905.667,14289,3,GY,1,100,0.031
1576863894.274658,83940.000,14289,3,GY,1,100,-0.092
1576863894.317368,83976.000,14307,3,GY,1,100,-0.122
1576863894.360078,84012.000,14307,3,GY,1,100,0.000
1576863894.402787,84048.000,14307,3,GY,1,100,-0.183
1576863894.441147,84080.333,14325,3,GY,1,100,-0.275
1576863894.479506,84112.667,14325,3,GY,1,100,-0.214
1576863894.517866,84145.000,14325,3,GY,1,100,-0.061
1576863894.557016,84178.000,14343,3,GY,1,100,-0.153
1576863894.596167,84211.000,14343,3,GY,1,100,-0.244
1576863894.635317,84244.000,14343,3,GY,1,100,-0.214
1576863894.674863,84277.333,14360,3,GY,1,100,-0.061
1576863894.714409,84310.667,14360,3,GY,1,100,-0.122
1576863894.753955,84344.000,14360,3,GY,1,100,-0.427
1576863894.794291,84378.000,14378,3,GY,1,100,-0.275
1576863894.834628,84412.000,14378,3,GY,1,100,-0.214
1576863894.874965,84446.000,14378,3,GY,1,100,-0.305
1576863894.914511,84479.333,14396,3,GY,1,100,-0.336
1576863894.954057,84512.667,14396,3,GY,1,100,-0.214
1576863894.993603,84546.000,14396,3,GY,1,100,0.183
1576863895.033940,84580.000,14412,3,GY,1,100,0.000
1576863895.074276,84614.000,14412,3,GY,1,100,-0.519
1576863895.114613,84648.000,14412,3,GY,1,100,-0.397
1576863895.156136,84683.000,14431,3,GY,1,100,-0.031
1576863895.197659,84718.000,14431,3,GY,1,100,-0.061
1576863895.239183,84753.000,14431,3,GY,1,100,-0.183
1576863895.280706,84788.000,14449,3,GY,1,100,-0.336
1576863895.322229,84823.000,14449,3,GY,1,100,-0.214
1576863895.363752,84858.000,14449,3,GY,1,100,-0.153
1576863895.401716,84890.000,14467,3,GY,1,100,-0.122
1576863895.439680,84922.000,14467,3,GY,1,100,-0.183
1576863895.477644,84954.000,14467,3,GY,1,100,-0.275
1576863895.517586,84987.667,14485,3,GY,1,100,-0.183
1576863895.557527,85021.333,14485,3,GY,1,100,-0.092
1576863895.597468,85055.000,14485,3,GY,1,100,-0.092
1576863895.635828,85087.333,14503,3,GY,1,100,-0.244
1576863895.674187,85119.667,14503,3,GY,1,100,-0.183
1576863895.712547,85152.000,14503,3,GY,1,100,-0.153
1576863895.756047,85188.667,14521,3,GY,1,100,-0.244
1576863895.799548,85225.333,14521,3,GY,1,100,-0.183
1576863895.843048,85262.000,14521,3,GY,1,100,-0.122
1576863895.882990,85295.667,14539,3,GY,1,100,-0.061
1576863895.922931,85329.333,14539,3,GY,1,100,-0.244
1576863895.962873,85363.000,14539,3,GY,1,100,-0.244
1576863896.004000,85397.667,14556,3,GY,1,100,-0.092
1576863896.045128,85432.333,14556,3,GY,1,100,-0.183
1576863896.086256,85467.000,14556,3,GY,1,100,-0.153
1576863896.125802,85500.333,14575,3,GY,1,100,-0.214
1576863896.165347,85533.667,14575,3,GY,1,100,-0.244
1576863896.204893,85567.000,14575,3,GY,1,100,-0.031
1576863896.243253,85599.333,14592,3,GY,1,100,-0.214
1576863896.281612,85631.667,14592,3,GY,1,100,-0.244
1576863896.319972,85664.000,14592,3,GY,1,100,0.092
1576863896.358331,85696.333,14609,3,GY,1,100,-0.153
1576863896.396691,85728.667,14609,3,GY,1,100,-0.244
1576863896.435050,85761.000,14609,3,GY,1,100,0.031
1576863896.479342,85798.333,14627,3,GY,1,100,-0.153
1576863896.523633,85835.667,14627,3,GY,1,100,0.092
1576863896.567924,85873.000,14627,3,GY,1,100,-0.061
1576863896.608855,85907.500,14645,2,GY,1,100,-0.427
1576863896.649785,85942.000,14645,2,GY,1,100,-0.122
1576863896.691308,85977.000,14663,3,GY,1,100,-0.244
1576863896.732831,86012.000,14663,3,GY,1,100,-0.305
1576863896.774354,86047.000,14663,3,GY,1,100,0.092
1576863896.812021,86078.750,14681,4,GY,1,100,0.061
1576863896.849689,86110.500,14681,4,GY,1,100,-0.397
1576863896.887357,86142.250,14681,4,GY,1,100,-0.275
1576863896.925024,86174.000,14681,4,GY,1,100,0.122
1576863896.963779,86206.667,14699,3,GY,1,100,0.183
1576863897.002534,86239.333,14699,3,GY,1,100,-0.061
1576863897.041289,86272.000,14699,3,GY,1,100,-0.092
1576863897.082021,86306.333,14717,3,GY,1,100,0.061
1576863897.122753,86340.667,14717,3,GY,1,100,-0.092
1576863897.163486,86375.000,14717,3,GY,1,100,-0.092
1576863897.204416,86409.500,14735,2,GY,1,100,-0.031
1576863897.245346,86444.000,14735,2,GY,1,100,-0.153
1576863897.290428,86482.000,14753,3,GY,1,100,-0.061
1576863897.335510,86520.000,14753,3,GY,1,100,-0.122
1576863897.380593,86558.000,14753,3,GY,1,100,-0.092
1576863897.418161,86589.667,14771,3,GY,1,100,-0.031
1576863897.455730,86621.333,14771,3,GY,1,100,-0.092
1576863897.493298,86653.000,14771,3,GY,1,100,-0.122
1576863897.531658,86685.333,14787,3,GY,1,100,-0.122
1576863897.570017,86717.667,14787,3,GY,1,100,-0.122
1576863897.608377,86750.000,14787,3,GY,1,100,-0.031
1576863897.648714,86784.000,14805,3,GY,1,100,-0.092
1576863897.689050,86818.000,14805,3,GY,1,100,-0.153
1576863897.729387,86852.000,14805,3,GY,1,100,0.092
1576863897.770515,86886.667,14823,3,GY,1,100,0.000
1576863897.811643,86921.333,14823,3,GY,1,100,-0.183
1576863897.852771,86956.000,14823,3,GY,1,100,0.031
1576863897.894294,86991.000,14841,3,GY,1,100,0.061
1576863897.935817,87026.000,14841,3,GY,1,100,-0.183
1576863897.977340,87061.000,14841,3,GY,1,100,0.061
1576863898.019259,87096.333,14859,3,GY,1,100,0.122
1576863898.061177,87131.667,14859,3,GY,1,100,-0.153
1576863898.103096,87167.000,14859,3,GY,1,100,-0.183
1576863898.142246,87200.000,14881,5,GY,1,100,-0.031
1576863898.181397,87233.000,14881,5,GY,1,100,-0.153
1576863898.220547,87266.000,14881,5,GY,1,100,-0.305
1576863898.259698,87299.000,14881,5,GY,1,100,-0.244
1576863898.298848,87332.000,14881,5,GY,1,100,-0.427
1576863898.335626,87363.000,14899,3,GY,1,100,-0.427
1576863898.372403,87394.000,14899,3,GY,1,100,0.092
1576863898.409181,87425.000,14899,3,GY,1,100,-0.092
1576863898.449913,87459.333,14917,3,GY,1,100,-0.763
1576863898.490646,87493.667,14917,3,GY,1,100,-0.641
1576863898.531378,87528.000,14917,3,GY,1,100,0.183
1576863898.569342,87560.000,14935,3,GY,1,100,0.183
1576863898.607306,87592.000,14935,3,GY,1,100,-0.336
1576863898.645270,87624.000,14935,3,GY,1,100,-0.336
1576863898.686002,87658.333,14953,3,GY,1,100,-0.275
1576863898.726735,87692.667,14953,3,GY,1,100,-0.183
1576863898.767467,87727.000,14953,3,GY,1,100,-0.153
1576863898.808199,87761.333,14971,3,GY,1,100,-0.244
1576863898.848931,87795.667,14971,3,GY,1,100,-0.153
1576863898.889664,87830.000,14971,3,GY,1,100,-0.183
1576863898.931187,87865.000,14989,3,GY,1,100,-0.244
1576863898.972710,87900.000,14989,3,GY,1,100,-0.244
1576863899.014233,87935.000,14989,3,GY,1,100,-0.183
1576863899.053779,87968.333,15007,3,GY,1,100,-0.153
1576863899.093325,88001.667,15007,3,GY,1,100,-0.122
1576863899.132871,88035.000,15007,3,GY,1,100,-0.336
1576863899.173999,88069.667,15025,3,GY,1,100,-0.153
1576863899.215126,88104.333,15025,3,GY,1,100,-0.061
1576863899.256254,88139.000,15025,3,GY,1,100,-0.275
1576863899.295800,88172.333,15043,3,GY,1,100,-0.214
1576863899.335346,88205.667,15043,3,GY,1,100,-0.275
1576863899.374892,88239.000,15043,3,GY,1,100,-0.244
1576863899.416415,88274.000,15061,3,GY,1,100,-0.153
1576863899.457938,88309.000,15061,3,GY,1,100,-0.305
1576863899.499461,88344.000,15061,3,GY,1,100,-0.153
1576863899.540194,88378.333,15077,3,GY,1,100,-0.122
1576863899.580926,88412.667,15077,3,GY,1,100,-0.275
1576863899.621658,88447.000,15077,3,GY,1,100,0.031
1576863899.660809,88480.000,15095,3,GY,1,100,-0.092
1576863899.699959,88513.000,15095,3,GY,1,100,-0.275
1576863899.739109,88546.000,15095,3,GY,1,100,-0.092
1576863899.777073,88578.000,15113,3,GY,1,100,-0.183
1576863899.815037,88610.000,15113,3,GY,1,100,-0.275
1576863899.853002,88642.000,15113,3,GY,1,100,-0.153
1576863899.896106,88678.333,15131,3,GY,1,100,-0.275
1576863899.939212,88714.667,15131,3,GY,1,100,-0.031
1576863899.982316,88751.000,15131,3,GY,1,100,0.031
1576863900.023840,88786.000,15149,3,GY,1,100,-0.336
1576863900.065363,88821.000,15149,3,GY,1,100,-0.336
1576863900.106886,88856.000,15149,3,GY,1,100,0.061
1576863900.147816,88890.500,15168,2,GY,1,100,0.122
1576863900.188746,88925.000,15168,2,GY,1,100,-0.336
1576863900.229874,88959.667,15186,3,GY,1,100,-0.214
1576863900.271002,88994.333,15186,3,GY,1,100,-0.061
1576863900.312129,89029.000,15186,3,GY,1,100,-0.122
1576863900.350093,89061.000,15203,4,GY,1,100,-0.061
1576863900.388057,89093.000,15203,4,GY,1,100,-0.031
1576863900.426021,89125.000,15203,4,GY,1,100,-0.031
1576863900.463985,89157.000,15203,4,GY,1,100,-0.092
1576863900.503136,89190.000,15221,3,GY,1,100,-0.031
1576863900.542286,89223.000,15221,3,GY,1,100,0.000
1576863900.581437,89256.000,15221,3,GY,1,100,-0.183
1576863900.622960,89291.000,15239,2,GY,1,100,-0.366
1576863900.664483,89326.000,15239,2,GY,1,100,-0.122
1576863900.709170,89363.667,15255,3,GY,1,100,0.061
1576863900.753857,89401.333,15255,3,GY,1,100,-0.061
1576863900.798544,89439.000,15255,3,GY,1,100,0.031
1576863900.840067,89474.000,15273,3,GY,1,100,0.000
1576863900.881590,89509.000,15273,3,GY,1,100,-0.214
1576863900.923113,89544.000,15273,3,GY,1,100,0.092
1576863900.959891,89575.000,15291,3,GY,1,100,-0.061
1576863900.996669,89606.000,15291,3,GY,1,100,0.031
1576863901.033446,89637.000,15291,3,GY,1,100,0.061
1576863901.072597,89670.000,15310,3,GY,1,100,-0.244
1576863901.111747,89703.000,15310,3,GY,1,100,0.122
1576863901.150898,89736.000,15310,3,GY,1,100,0.061
1576863901.190444,89769.333,15328,3,GY,1,100,-0.183
1576863901.229989,89802.667,15328,3,GY,1,100,0.000
1576863901.269535,89836.000,15328,3,GY,1,100,-0.214
1576863901.311059,89871.000,15346,3,GY,1,100,-0.214
1576863901.352582,89906.000,15346,3,GY,1,100,-0.153
1576863901.394105,89941.000,15346,3,GY,1,100,-0.214
1576863901.439187,89979.000,15364,3,GY,1,100,-0.336
1576863901.484269,90017.000,15364,3,GY,1,100,-0.244
1576863901.529352,90055.000,15364,3,GY,1,100,-0.519
1576863901.566920,90086.667,15381,3,GY,1,100,0.153
1576863901.604489,90118.333,15381,3,GY,1,100,0.000
1576863901.642057,90150.000,15381,3,GY,1,100,-0.824
1576863901.686744,90187.667,15399,3,GY,1,100,-0.427
1576863901.731431,90225.333,15399,3,GY,1,100,0.122
1576863901.776118,90263.000,15399,3,GY,1,100,-0.061
1576863901.814478,90295.333,15415,3,GY,1,100,-0.244
1576863901.852837,90327.667,15415,3,GY,1,100,-0.366
1576863901.891197,90360.000,15415,3,GY,1,100,-0.397
1576863901.933511,90395.667,15433,3,GY,1,100,-0.092
1576863901.975825,90431.333,15433,3,GY,1,100,-0.214
1576863902.018139,90467.000,15433,3,GY,1,100,-0.183
1576863902.058871,90501.333,15451,3,GY,1,100,-0.183
1576863902.099603,90535.667,15451,3,GY,1,100,-0.305
1576863902.140336,90570.000,15451,3,GY,1,100,-0.183
1576863902.181859,90605.000,15470,3,GY,1,100,-0.214
1576863902.223382,90640.000,15470,3,GY,1,100,-0.214
1576863902.264905,90675.000,15470,3,GY,1,100,-0.061
1576863902.303265,90707.333,15488,3,GY,1,100,-0.214
1576863902.341624,90739.667,15488,3,GY,1,100,-0.305
1576863902.379984,90772.000,15488,3,GY,1,100,-0.092
1576863902.418739,90804.667,15506,3,GY,1,100,-0.275
1576863902.457494,90837.333,15506,3,GY,1,100,-0.153
1576863902.496249,90870.000,15506,3,GY,1,100,-0.061
1576863902.537376,90904.667,15524,3,GY,1,100,-0.214
1576863902.578504,90939.333,15524,3,GY,1,100,-0.092
1576863902.619632,90974.000,15524,3,GY,1,100,-0.061
1576863902.661155,91009.000,15541,3,GY,1,100,-0.183
1576863902.702678,91044.000,15541,3,GY,1,100,-0.183
1576863902.744201,91079.000,15541,3,GY,1,100,-0.214
1576863902.784143,91112.667,15559,3,GY,1,100,-0.336
1576863902.824084,91146.333,15559,3,GY,1,100,-0.366
1576863902.864026,91180.000,15559,3,GY,1,100,-0.244
1576863902.902385,91212.333,15577,3,GY,1,100,-0.183
1576863902.940744,91244.667,15577,3,GY,1,100,0.031
1576863902.979104,91277.000,15577,3,GY,1,100,-0.061
1576863903.023000,91314.000,15593,2,GY,1,100,-0.366
1576863903.066896,91351.000,15593,2,GY,1,100,-0.244
1576863903.106837,91384.667,15612,3,GY,1,100,0.092
1576863903.146779,91418.333,15612,3,GY,1,100,0.061
1576863903.186720,91452.000,15612,3,GY,1,100,-0.275
1576863903.227848,91486.667,15630,3,GY,1,100,-0.244
1576863903.268975,91521.333,15630,3,GY,1,100,-0.183
1576863903.310103,91556.000,15630,3,GY,1,100,-0.031
1576863903.351231,91590.667,15648,3,GY,1,100,-0.153
1576863903.392359,91625.333,15648,3,GY,1,100,-0.092
1576863903.433486,91660.000,15648,3,GY,1,100,-0.153
1576863903.470857,91691.500,15666,4,GY,1,100,-0.061
1576863903.508228,91723.000,15666,4,GY,1,100,0.305
1576863903.545599,91754.500,15666,4,GY,1,100,0.122
1576863903.582970,91786.000,15666,4,GY,1,100,-0.336
1576863903.628052,91824.000,15684,2,GY,1,100,-0.031
1576863903.673134,91862.000,15684,2,GY,1,100,-0.092
1576863903.713471,91896.000,15702,3,GY,1,100,-0.641
1576863903.753808,91930.000,15702,3,GY,1,100,-0.549
1576863903.794145,91964.000,15702,3,GY,1,100,-0.183
1576863903.835273,91998.667,15719,3,GY,1,100,-0.061
1576863903.876400,92033.333,15719,3,GY,1,100,-0.244
1576863903.917528,92068.000,15719,3,GY,1,100,-0.153
1576863903.959447,92103.333,15737,3,GY,1,100,0.000
1576863904.001365,92138.667,15737,3,GY,1,100,-0.031
1576863904.043284,92174.000,15737,3,GY,1,100,0.122
1576863904.081248,92206.000,15755,3,GY,1,100,-0.092
1576863904.119212,92238.000,15755,3,GY,1,100,-0.031
1576863904.157176,92270.000,15755,3,GY,1,100,0.183
1576863904.196326,92303.000,15777,5,GY,1,100,-0.061
1576863904.235477,92336.000,15777,5,GY,1,100,-0.031
1576863904.274627,92369.000,15777,5,GY,1,100,-0.122
1576863904.313778,92402.000,15777,5,GY,1,100,-0.122
1576863904.352928,92435.000,15777,5,GY,1,100,-0.031
1576863904.394451,92470.000,15795,3,GY,1,100,-0.061
1576863904.435975,92505.000,15795,3,GY,1,100,-0.153
1576863904.477498,92540.000,15795,3,GY,1,100,-0.183
1576863904.522185,92577.667,15814,3,GY,1,100,-0.214
1576863904.566871,92615.333,15814,3,GY,1,100,-0.305
1576863904.611558,92653.000,15814,3,GY,1,100,-0.305
1576863904.651104,92686.333,15832,3,GY,1,100,-0.153
1576863904.690650,92719.667,15832,3,GY,1,100,0.244
1576863904.730196,92753.000,15832,3,GY,1,100,-0.031
1576863904.766974,92784.000,15850,3,GY,1,100,-0.488
1576863904.803751,92815.000,15850,3,GY,1,100,-0.397
1576863904.840529,92846.000,15850,3,GY,1,100,0.122
1576863904.880470,92879.667,15866,3,GY,1,100,-0.153
1576863904.920412,92913.333,15866,3,GY,1,100,-0.305
1576863904.960353,92947.000,15866,3,GY,1,100,-0.122
1576863905.001085,92981.333,15884,3,GY,1,100,-0.122
1576863905.041818,93015.667,15884,3,GY,1,100,-0.214
1576863905.082550,93050.000,15884,3,GY,1,100,-0.122
1576863905.124864,93085.667,15903,3,GY,1,100,-0.183
1576863905.167178,93121.333,15903,3,GY,1,100,-0.153
1576863905.209492,93157.000,15903,3,GY,1,100,-0.092
1576863905.250224,93191.333,15921,3,GY,1,100,-0.153
1576863905.290957,93225.667,15921,3,GY,1,100,-0.092
1576863905.331689,93260.000,15921,3,GY,1,100,-0.305
1576863905.377958,93299.000,15939,2,GY,1,100,-0.275
1576863905.424226,93338.000,15939,2,GY,1,100,-0.153
1576863905.464168,93371.667,15957,3,GY,1,100,-0.336
1576863905.504109,93405.333,15957,3,GY,1,100,-0.305
1576863905.544050,93439.000,15957,3,GY,1,100,-0.183
1576863905.584783,93473.333,15974,3,GY,1,100,-0.214
1576863905.625515,93507.667,15974,3,GY,1,100,-0.183
1576863905.666247,93542.000,15974,3,GY,1,100,-0.275
1576863905.705002,93574.667,15992,3,GY,1,100,-0.336
1576863905.743757,93607.333,15992,3,GY,1,100,-0.122
1576863905.782512,93640.000,15992,3,GY,1,100,-0.061
1576863905.824431,93675.333,16010,3,GY,1,100,-0.183
1576863905.866349,93710.667,16010,3,GY,1,100,-0.183
1576863905.908268,93746.000,16010,3,GY,1,100,0.000
1576863905.946232,93778.000,16026,3,GY,1,100,0.000
1576863905.984196,93810.000,16026,3,GY,1,100,-0.214
1576863906.022160,93842.000,16026,3,GY,1,100,0.031
1576863906.060520,93874.333,16044,3,GY,1,100,-0.061
1576863906.098879,93906.667,16044,3,GY,1,100,-0.244
1576863906.137239,93939.000,16044,3,GY,1,100,-0.153
1576863906.177576,93973.000,16063,3,GY,1,100,-0.061
1576863906.217912,94007.000,16063,3,GY,1,100,-0.336
1576863906.258249,94041.000,16063,3,GY,1,100,-0.427
1576863906.299377,94075.667,16081,3,GY,1,100,-0.244
1576863906.340505,94110.333,16081,3,GY,1,100,-0.153
1576863906.381632,94145.000,16081,3,GY,1,100,-0.031
1576863906.422760,94179.667,16099,3,GY,1,100,-0.305
1576863906.463888,94214.333,16099,3,GY,1,100,-0.427
1576863906.505015,94249.000,16099,3,GY,1,100,-0.183
1576863906.547725,94285.000,16117,3,GY,1,100,0.092
1576863906.590435,94321.000,16117,3,GY,1,100,0.092
1576863906.633144,94357.000,16117,3,GY,1,100,-0.183
1576863906.670713,94388.667,16135,3,GY,1,100,-0.244
1576863906.708281,94420.333,16135,3,GY,1,100,-0.061
1576863906.745850,94452.000,16135,3,GY,1,100,-0.122
1576863906.785791,94485.667,16153,3,GY,1,100,-0.122
1576863906.825733,94519.333,16153,3,GY,1,100,-0.122
1576863906.865674,94553.000,16153,3,GY,1,100,-0.061
1576863906.906011,94587.000,16170,3,GY,1,100,-0.122
1576863906.946347,94621.000,16170,3,GY,1,100,-0.092
1576863906.986684,94655.000,16170,3,GY,1,100,-0.153
1576863907.028208,94690.000,16188,3,GY,1,100,-0.122
1576863907.069731,94725.000,16188,3,GY,1,100,0.122
1576863907.111254,94760.000,16188,3,GY,1,100,-0.214
1576863907.150404,94793.000,16205,3,GY,1,100,-0.092
1576863907.189555,94826.000,16205,3,GY,1,100,0.092
1576863907.228705,94859.000,16205,3,GY,1,100,-0.183
1576863907.269833,94893.667,16223,3,GY,1,100,-0.031
1576863907.310961,94928.333,16223,3,GY,1,100,-0.061
1576863907.352088,94963.000,16223,3,GY,1,100,-0.122
1576863907.391634,94996.333,16241,3,GY,1,100,-0.031
1576863907.431180,95029.667,16241,3,GY,1,100,-0.092
1576863907.470726,95063.000,16241,3,GY,1,100,0.000
1576863907.511854,95097.667,16259,3,GY,1,100,-0.031
1576863907.552982,95132.333,16259,3,GY,1,100,0.031
1576863907.594109,95167.000,16259,3,GY,1,100,0.031
1576863907.635237,95201.667,16277,3,GY,1,100,-0.122
1576863907.676365,95236.333,16277,3,GY,1,100,-0.061
1576863907.717492,95271.000,16277,3,GY,1,100,0.061
1576863907.757829,95305.000,16295,3,GY,1,100,-0.244
1576863907.798166,95339.000,16295,3,GY,1,100,-0.061
1576863907.838503,95373.000,16295,3,GY,1,100,-0.092
1576863907.876071,95404.667,16313,3,GY,1,100,-0.305
1576863907.913640,95436.333,16313,3,GY,1,100,-0.244
1576863907.951209,95468.000,16313,3,GY,1,100,-0.214
1576863907.990359,95501.000,16331,3,GY,1,100,-0.244
1576863908.029510,95534.000,16331,3,GY,1,100,0.031
1576863908.068660,95567.000,16331,3,GY,1,100,-0.031
1576863908.113347,95604.667,16349,3,GY,1,100,-0.366
1576863908.158034,95642.333,16349,3,GY,1,100,-0.305
1576863908.202720,95680.000,16349,3,GY,1,100,0.092
1576863908.243848,95714.667,16367,3,GY,1,100,-0.061
1576863908.284976,95749.333,16367,3,GY,1,100,-0.305
1576863908.326104,95784.000,16367,3,GY,1,100,-0.336
1576863908.365649,95817.333,16383,3,GY,1,100,-0.153
1576863908.405195,95850.667,16383,3,GY,1,100,-0.092
1576863908.444741,95884.000,16383,3,GY,1,100,-0.153
1576863908.483101,95916.333,16401,3,GY,1,100,-0.183
1576863908.521460,95948.667,16401,3,GY,1,100,-0.092
1576863908.559820,95981.000,16401,3,GY,1,100,-0.122
1576863908.597784,96013.000,16419,3,GY,1,100,-0.244
1576863908.635748,96045.000,16419,3,GY,1,100,-0.275
1576863908.673712,96077.000,16419,3,GY,1,100,-0.305
1576863908.714444,96111.333,16437,3,GY,1,100,-0.122
1576863908.755177,96145.667,16437,3,GY,1,100,-0.336
1576863908.795909,96180.000,16437,3,GY,1,100,-0.275
1576863908.842177,96219.000,16455,2,GY,1,100,-0.061
1576863908.888446,96258.000,16455,2,GY,1,100,-0.183
1576863908.927300,96290.750,16473,4,GY,1,100,-0.092
1576863908.966154,96323.500,16473,4,GY,1,100,-0.092
1576863909.005008,96356.250,16473,4,GY,1,100,-0.397
1576863909.043862,96389.000,16473,4,GY,1,100,-0.153
1576863909.090724,96428.500,16491,2,GY,1,100,-0.061
1576863909.137585,96468.000,16491,2,GY,1,100,-0.214
1576863909.175945,96500.333,16509,3,GY,1,100,0.031
1576863909.214304,96532.667,16509,3,GY,1,100,-0.122
1576863909.252664,96565.000,16509,3,GY,1,100,-0.244
1576863909.297746,96603.000,16527,3,GY,1,100,-0.092
1576863909.342829,96641.000,16527,3,GY,1,100,-0.183
1576863909.387911,96679.000,16527,3,GY,1,100,-0.214
1576863909.425875,96711.000,16543,3,GY,1,100,-0.214
1576863909.463839,96743.000,16543,3,GY,1,100,-0.244
1576863909.501803,96775.000,16543,3,GY,1,100,-0.336
1576863909.546885,96813.000,16561,3,GY,1,100,-0.336
1576863909.591968,96851.000,16561,3,GY,1,100,-0.244
1576863909.637050,96889.000,16561,3,GY,1,100,-0.122
1576863909.676200,96922.000,16579,3,GY,1,100,0.031
1576863909.715351,96955.000,16579,3,GY,1,100,-0.336
1576863909.754501,96988.000,16579,3,GY,1,100,-0.549
1576863909.792070,97019.667,16597,3,GY,1,100,0.000
1576863909.829638,97051.333,16597,3,GY,1,100,0.275
1576863909.867207,97083.000,16597,3,GY,1,100,-0.092
1576863909.907148,97116.667,16615,3,GY,1,100,-0.305
1576863909.947090,97150.333,16615,3,GY,1,100,-0.153
1576863909.987031,97184.000,16615,3,GY,1,100,-0.122
1576863910.027763,97218.333,16633,3,GY,1,100,-0.061
1576863910.068496,97252.667,16633,3,GY,1,100,-0.153
1576863910.109228,97287.000,16633,3,GY,1,100,-0.153
1576863910.150751,97322.000,16652,3,GY,1,100,-0.183
1576863910.192274,97357.000,16652,3,GY,1,100,-0.153
1576863910.233797,97392.000,16652,3,GY,1,100,-0.092
1576863910.274846,97426.600,16673,5,GY,1,100,-0.122
1576863910.315895,97461.200,16673,5,GY,1,100,-0.183
1576863910.356943,97495.800,16673,5,GY,1,100,-0.183
1576863910.397992,97530.400,16673,5,GY,1,100,-0.092
1576863910.439040,97565.000,16673,5,GY,1,100,-0.214
1576863910.477795,97597.667,16693,3,GY,1,100,-0.061
1576863910.516551,97630.333,16693,3,GY,1,100,-0.061
1576863910.555305,97663.000,16693,3,GY,1,100,-0.214
1576863910.595642,97697.000,16711,2,GY,1,100,0.000
1576863910.635979,97731.000,16711,2,GY,1,100,-0.122
1576863910.676711,97765.333,16729,3,GY,1,100,-0.122
1576863910.717443,97799.667,16729,3,GY,1,100,0.000
1576863910.758176,97834.000,16729,3,GY,1,100,-0.031
1576863910.799699,97869.000,16747,3,GY,1,100,-0.031
1576863910.841222,97904.000,16747,3,GY,1,100,-0.092
1576863910.882745,97939.000,16747,3,GY,1,100,-0.122
1576863910.920709,97971.000,16765,3,GY,1,100,0.031
1576863910.958673,98003.000,16765,3,GY,1,100,-0.061
1576863910.996638,98035.000,16765,3,GY,1,100,-0.244
1576863911.038161,98070.000,16783,3,GY,1,100,-0.153
1576863911.079684,98105.000,16783,3,GY,1,100,-0.061
1576863911.121207,98140.000,16783,3,GY,1,100,-0.275
1576863911.161939,98174.333,16801,3,GY,1,100,-0.122
1576863911.202672,98208.667,16801,3,GY,1,100,-0.122
1576863911.243404,98243.000,16801,3,GY,1,100,-0.092
1576863911.284532,98277.667,16818,3,GY,1,100,0.183
1576863911.325659,98312.333,16818,3,GY,1,100,0.061
1576863911.366787,98347.000,16818,3,GY,1,100,-0.275
1576863911.407915,98381.667,16835,3,GY,1,100,-0.031
1576863911.449043,98416.333,16835,3,GY,1,100,0.183
1576863911.490170,98451.000,16835,3,GY,1,100,0.153
1576863911.528925,98483.667,16853,3,GY,1,100,-0.061
1576863911.567680,98516.333,16853,3,GY,1,100,-0.275
1576863911.606435,98549.000,16853,3,GY,1,100,0.031
1576863911.644399,98581.000,16871,3,GY,1,100,-0.061
1576863911.682363,98613.000,16871,3,GY,1,100,-0.183
1576863911.720327,98645.000,16871,3,GY,1,100,-0.092
1576863911.763828,98681.667,16889,3,GY,1,100,-0.183
1576863911.807328,98718.333,16889,3,GY,1,100,-0.153
1576863911.850829,98755.000,16889,3,GY,1,100,-0.183
1576863911.892352,98790.000,16907,3,GY,1,100,-0.366
1576863911.933875,98825.000,16907,3,GY,1,100,-0.183
1576863911.975398,98860.000,16907,3,GY,1,100,-0.031
1576863912.016130,98894.333,16925,3,GY,1,100,-0.183
1576863912.056863,98928.667,16925,3,GY,1,100,-0.305
1576863912.097595,98963.000,16925,3,GY,1,100,-0.061
1576863912.137536,98996.667,16944,3,GY,1,100,0.000
1576863912.177478,99030.333,16944,3,GY,1,100,-0.336
1576863912.217419,99064.000,16944,3,GY,1,100,-0.305
1576863912.254988,99095.667,16962,3,GY,1,100,0.000
1576863912.292556,99127.333,16962,3,GY,1,100,-0.122
1576863912.330125,99159.000,16962,3,GY,1,100,-0.214
1576863912.369275,99192.000,16979,3,GY,1,100,-0.214
1576863912.408426,99225.000,16979,3,GY,1,100,-0.336
1576863912.447576,99258.000,16979,3,GY,1,100,-0.214
1576863912.492658,99296.000,16997,3,GY,1,100,-0.153
1576863912.537741,99334.000,16997,3,GY,1,100,-0.366
1576863912.582823,99372.000,16997,3,GY,1,100,-0.092
1576863912.619996,99403.333,17013,3,GY,1,100,-0.305
1576863912.657169,99434.667,17013,3,GY,1,100,-0.336
1576863912.694343,99466.000,17013,3,GY,1,100,-0.214
1576863912.737052,99502.000,17031,3,GY,1,100,-0.336
1576863912.779762,99538.000,17031,3,GY,1,100,-0.305
1576863912.822471,99574.000,17031,3,GY,1,100,-0.244
1576863912.862808,99608.000,17049,3,GY,1,100,-0.427
1576863912.903145,99642.000,17049,3,GY,1,100,0.031
1576863912.943482,99676.000,17049,3,GY,1,100,0.122
1576863912.989750,99715.000,17067,2,GY,1,100,-0.427
1576863913.036019,99754.000,17067,2,GY,1,100,-0.488
1576863913.077542,99789.000,17085,3,GY,1,100,0.122
1576863913.119065,99824.000,17085,3,GY,1,100,0.183
1576863913.160589,99859.000,17085,3,GY,1,100,-0.214
1576863913.202507,99894.333,17103,3,GY,1,100,-0.183
1576863913.244426,99929.667,17103,3,GY,1,100,-0.336
1576863913.286345,99965.000,17103,3,GY,1,100,-0.153
1576863913.328263,100000.333,17121,3,GY,1,100,-0.061
1576863913.370182,100035.667,17121,3,GY,1,100,-0.366
1576863913.412100,100071.000,17121,3,GY,1,100,-0.214
1576863913.450064,100103.000,17139,3,GY,1,100,0.000
1576863913.488029,100135.000,17139,3,GY,1,100,-0.214
1576863913.525993,100167.000,17139,3,GY,1,100,-0.153
1576863913.563561,100198.667,17155,3,GY,1,100,-0.092
1576863913.601130,100230.333,17155,3,GY,1,100,-0.305
1576863913.638698,100262.000,17155,3,GY,1,100,-0.061
1576863913.679035,100296.000,17173,3,GY,1,100,-0.153
1576863913.719372,100330.000,17173,3,GY,1,100,-0.275
1576863913.759709,100364.000,17173,3,GY,1,100,0.031
1576863913.800837,100398.667,17191,3,GY,1,100,-0.122
1576863913.841964,100433.333,17191,3,GY,1,100,-0.092
1576863913.883092,100468.000,17191,3,GY,1,100,-0.153
1576863913.924615,100503.000,17209,3,GY,1,100,-0.336
1576863913.966138,100538.000,17209,3,GY,1,100,-0.122
1576863914.007662,100573.000,17209,3,GY,1,100,-0.153
1576863914.050371,100609.000,17227,3,GY,1,100,-0.122
1576863914.093081,100645.000,17227,3,GY,1,100,-0.031
1576863914.135790,100681.000,17227,3,GY,1,100,-0.153
1576863914.173754,100713.000,17246,3,GY,1,100,-0.061
1576863914.211718,100745.000,17246,3,GY,1,100,-0.031
1576863914.249682,100777.000,17246,3,GY,1,100,-0.092
1576863914.289228,100810.333,17264,3,GY,1,100,-0.183
1576863914.328774,100843.667,17264,3,GY,1,100,-0.061
1576863914.368320,100877.000,17264,3,GY,1,100,-0.153
1576863914.409448,100911.667,17282,3,GY,1,100,-0.214
1576863914.450575,100946.333,17282,3,GY,1,100,-0.214
1576863914.491703,100981.000,17282,3,GY,1,100,-0.153
1576863914.532040,101015.000,17299,3,GY,1,100,-0.183
1576863914.572377,101049.000,17299,3,GY,1,100,-0.031
1576863914.612714,101083.000,17299,3,GY,1,100,-0.031
1576863914.656214,101119.667,17317,3,GY,1,100,-0.336
1576863914.699714,101156.333,17317,3,GY,1,100,-0.214
1576863914.743215,101193.000,17317,3,GY,1,100,0.183
1576863914.781179,101225.000,17335,3,GY,1,100,0.153
1576863914.819143,101257.000,17335,3,GY,1,100,0.031
1576863914.857107,101289.000,17335,3,GY,1,100,-0.122
1576863914.897048,101322.667,17351,3,GY,1,100,-0.092
1576863914.936990,101356.333,17351,3,GY,1,100,0.000
1576863914.976931,101390.000,17351,3,GY,1,100,-0.092
1576863915.018454,101425.000,17369,3,GY,1,100,0.000
1576863915.059978,101460.000,17369,3,GY,1,100,-0.122
1576863915.101501,101495.000,17369,3,GY,1,100,-0.092
1576863915.142233,101529.333,17388,3,GY,1,100,0.061
1576863915.182965,101563.667,17388,3,GY,1,100,-0.153
1576863915.223698,101598.000,17388,3,GY,1,100,-0.122
1576863915.263639,101631.667,17406,3,GY,1,100,-0.092
1576863915.303580,101665.333,17406,3,GY,1,100,-0.153
1576863915.343522,101699.000,17406,3,GY,1,100,-0.122
1576863915.384649,101733.667,17424,3,GY,1,100,-0.153
1576863915.425777,101768.333,17424,3,GY,1,100,-0.183
1576863915.466905,101803.000,17424,3,GY,1,100,-0.031
1576863915.507241,101837.000,17442,3,GY,1,100,-0.092
1576863915.547578,101871.000,17442,3,GY,1,100,-0.092
1576863915.587915,101905.000,17442,3,GY,1,100,-0.122
1576863915.628845,101939.500,17459,2,GY,1,100,-0.275
1576863915.669775,101974.000,17459,2,GY,1,100,-0.183
1576863915.710903,102008.667,17477,3,GY,1,100,0.000
1576863915.752031,102043.333,17477,3,GY,1,100,-0.122
1576863915.793158,102078.000,17477,3,GY,1,100,-0.214
1576863915.834286,102112.667,17495,3,GY,1,100,-0.153
1576863915.875414,102147.333,17495,3,GY,1,100,-0.336
1576863915.916542,102182.000,17495,3,GY,1,100,-0.183
1576863915.953616,102213.250,17511,4,GY,1,100,-0.092
1576863915.990690,102244.500,17511,4,GY,1,100,-0.305
1576863916.027764,102275.750,17511,4,GY,1,100,-0.366
1576863916.064839,102307.000,17511,4,GY,1,100,-0.366
1576863916.103396,102339.500,17529,2,GY,1,100,-0.366
1576863916.141953,102372.000,17529,2,GY,1,100,0.153
1576863916.181103,102405.000,17548,4,GY,1,100,-0.214
1576863916.220254,102438.000,17548,4,GY,1,100,-0.732
1576863916.259404,102471.000,17548,4,GY,1,100,-0.397
1576863916.298555,102504.000,17548,4,GY,1,100,0.153
1576863916.341858,102540.500,17569,4,GY,1,100,0.153
1576863916.385160,102577.000,17569,4,GY,1,100,-0.183
1576863916.428463,102613.500,17569,4,GY,1,100,-0.244
1576863916.471766,102650.000,17569,4,GY,1,100,-0.183
1576863916.512893,102684.667,17586,3,GY,1,100,-0.061
1576863916.554021,102719.333,17586,3,GY,1,100,-0.214
1576863916.595149,102754.000,17586,3,GY,1,100,-0.183
1576863916.637068,102789.333,17604,3,GY,1,100,-0.031
1576863916.678986,102824.667,17604,3,GY,1,100,-0.214
1576863916.720905,102860.000,17604,3,GY,1,100,-0.092
1576863916.759264,102892.333,17622,3,GY,1,100,-0.244
1576863916.797624,102924.667,17622,3,GY,1,100,-0.427
1576863916.835984,102957.000,17622,3,GY,1,100,-0.061
1576863916.880275,102994.333,17640,3,GY,1,100,-0.153
1576863916.924566,103031.667,17640,3,GY,1,100,-0.366
1576863916.968858,103069.000,17640,3,GY,1,100,-0.244
1576863917.009985,103103.667,17658,3,GY,1,100,-0.061
1576863917.051113,103138.333,17658,3,GY,1,100,-0.183
1576863917.092241,103173.000,17658,3,GY,1,100,-0.244
1576863917.133764,103208.000,17676,2,GY,1,100,-0.153
1576863917.175287,103243.000,17676,2,GY,1,100,-0.122
1576863917.212955,103274.750,17695,4,GY,1,100,-0.061
1576863917.250622,103306.500,17695,4,GY,1,100,-0.153
1576863917.288290,103338.250,17695,4,GY,1,100,-0.153
1576863917.325957,103370.000,17695,4,GY,1,100,0.092
1576863917.365108,103403.000,17713,3,GY,1,100,-0.183
1576863917.404258,103436.000,17713,3,GY,1,100,-0.122
1576863917.443408,103469.000,17713,3,GY,1,100,0.000
1576863917.484141,103503.333,17730,3,GY,1,100,-0.244
1576863917.524873,103537.667,17730,3,GY,1,100,-0.122
1576863917.565605,103572.000,17730,3,GY,1,100,-0.214
1576863917.612467,103611.500,17748,2,GY,1,100,-0.214
1576863917.659329,103651.000,17748,2,GY,1,100,-0.183
1576863917.700457,103685.667,17764,3,GY,1,100,-0.336
1576863917.741584,103720.333,17764,3,GY,1,100,-0.153
1576863917.782712,103755.000,17764,3,GY,1,100,0.122
1576863917.821072,103787.333,17782,3,GY,1,100,-0.061
1576863917.859431,103819.667,17782,3,GY,1,100,-0.427
1576863917.897791,103852.000,17782,3,GY,1,100,-0.275
1576863917.935755,103884.000,17800,4,GY,1,100,0.275
1576863917.973719,103916.000,17800,4,GY,1,100,0.092
1576863918.011683,103948.000,17800,4,GY,1,100,-0.153
1576863918.049647,103980.000,17800,4,GY,1,100,-0.244
1576863918.089984,104014.000,17818,3,GY,1,100,-0.092
1576863918.130320,104048.000,17818,3,GY,1,100,-0.031
1576863918.170657,104082.000,17818,3,GY,1,100,-0.153
1576863918.211587,104116.500,17837,2,GY,1,100,-0.214
1576863918.252517,104151.000,17837,2,GY,1,100,-0.122
1576863918.297600,104189.000,17855,3,GY,1,100,-0.092
1576863918.342682,104227.000,17855,3,GY,1,100,-0.153
1576863918.387764,104265.000,17855,3,GY,1,100,-0.061
1576863918.426519,104297.667,17873,3,GY,1,100,-0.153
1576863918.465274,104330.333,17873,3,GY,1,100,-0.153
1576863918.504029,104363.000,17873,3,GY,1,100,-0.092
1576863918.541598,104394.667,17891,3,GY,1,100,-0.061
1576863918.579166,104426.333,17891,3,GY,1,100,-0.092
1576863918.616735,104458.000,17891,3,GY,1,100,0.000
1576863918.656676,104491.667,17909,3,GY,1,100,0.000
1576863918.696618,104525.333,17909,3,GY,1,100,0.000
1576863918.736559,104559.000,17909,3,GY,1,100,-0.122
1576863918.778082,104594.000,17926,3,GY,1,100,-0.092
1576863918.819605,104629.000,17926,3,GY,1,100,-0.092
1576863918.861128,104664.000,17926,3,GY,1,100,-0.122
1576863918.902256,104698.667,17942,3,GY,1,100,-0.061
1576863918.943384,104733.333,17942,3,GY,1,100,-0.031
1576863918.984512,104768.000,17942,3,GY,1,100,-0.031
1576863919.024453,104801.667,17960,3,GY,1,100,-0.092
1576863919.064394,104835.333,17960,3,GY,1,100,0.000
1576863919.104336,104869.000,17960,3,GY,1,100,0.031
1576863919.145068,104903.333,17979,3,GY,1,100,-0.214
1576863919.185800,104937.667,17979,3,GY,1,100,-0.153
1576863919.226532,104972.000,17979,3,GY,1,100,-0.092
1576863919.266078,105005.333,17997,3,GY,1,100,-0.183
1576863919.305624,105038.667,17997,3,GY,1,100,-0.183
1576863919.345170,105072.000,17997,3,GY,1,100,-0.244
1576863919.386298,105106.667,18015,3,GY,1,100,-0.305
1576863919.427426,105141.333,18015,3,GY,1,100,0.061
1576863919.468553,105176.000,18015,3,GY,1,100,0.031
1576863919.509681,105210.667,18033,3,GY,1,100,-0.305
1576863919.550809,105245.333,18033,3,GY,1,100,-0.488
1576863919.591936,105280.000,18033,3,GY,1,100,-0.092
1576863919.631087,105313.000,18051,3,GY,1,100,0.122
1576863919.670237,105346.000,18051,3,GY,1,100,-0.244
1576863919.709388,105379.000,18051,3,GY,1,100,-0.366
1576863919.750515,105413.667,18069,3,GY,1,100,-0.244
1576863919.791643,105448.333,18069,3,GY,1,100,-0.122
1576863919.832771,105483.000,18069,3,GY,1,100,-0.092
1576863919.872712,105516.667,18087,3,GY,1,100,-0.183
1576863919.912654,105550.333,18087,3,GY,1,100,-0.183
1576863919.952595,105584.000,18087,3,GY,1,100,-0.183
1576863919.992141,105617.333,18104,3,GY,1,100,-0.153
1576863920.031687,105650.667,18104,3,GY,1,100,-0.183
1576863920.071233,105684.000,18104,3,GY,1,100,-0.183
1576863920.112756,105719.000,18123,3,GY,1,100,-0.153
1576863920.154279,105754.000,18123,3,GY,1,100,-0.244
1576863920.195802,105789.000,18123,3,GY,1,100,-0.153
1576863920.234557,105821.667,18141,3,GY,1,100,-0.183
1576863920.273312,105854.333,18141,3,GY,1,100,-0.244
1576863920.312067,105887.000,18141,3,GY,1,100,-0.092
1576863920.350031,105919.000,18157,3,GY,1,100,-0.244
1576863920.387995,105951.000,18157,3,GY,1,100,-0.305
1576863920.425959,105983.000,18157,3,GY,1,100,-0.031
1576863920.467878,106018.333,18175,3,GY,1,100,-0.244
1576863920.509797,106053.667,18175,3,GY,1,100,-0.275
1576863920.551715,106089.000,18175,3,GY,1,100,-0.122
1576863920.592843,106123.667,18193,3,GY,1,100,-0.183
1576863920.633970,106158.333,18193,3,GY,1,100,-0.183
1576863920.675098,106193.000,18193,3,GY,1,100,-0.031
1576863920.716226,106227.667,18211,3,GY,1,100,-0.214
1576863920.757354,106262.333,18211,3,GY,1,100,-0.275
1576863920.798481,106297.000,18211,3,GY,1,100,-0.092
1576863920.839609,106331.667,18229,3,GY,1,100,-0.183
1576863920.880737,106366.333,18229,3,GY,1,100,-0.305
1576863920.921865,106401.000,18229,3,GY,1,100,-0.244
1576863920.959433,106432.667,18247,3,GY,1,100,-0.366
1576863920.997002,106464.333,18247,3,GY,1,100,0.031
1576863921.034570,106496.000,18247,3,GY,1,100,0.122
1576863921.073325,106528.667,18265,3,GY,1,100,-0.458
1576863921.112080,106561.333,18265,3,GY,1,100,-0.519
1576863921.150835,106594.000,18265,3,GY,1,100,0.092
1576863921.195522,106631.667,18283,3,GY,1,100,0.244
1576863921.240209,106669.333,18283,3,GY,1,100,-0.153
1576863921.284896,106707.000,18283,3,GY,1,100,-0.305
1576863921.322069,106738.333,18301,3,GY,1,100,-0.153
1576863921.359242,106769.667,18301,3,GY,1,100,-0.122
1576863921.396415,106801.000,18301,3,GY,1,100,-0.153
1576863921.438532,106836.500,18317,2,GY,1,100,-0.092
1576863921.480648,106872.000,18317,2,GY,1,100,-0.122
1576863921.521380,106906.333,18335,3,GY,1,100,-0.153
1576863921.562113,106940.667,18335,3,GY,1,100,-0.122
1576863921.602845,106975.000,18335,3,GY,1,100,-0.183
1576863921.648323,107013.333,18353,3,GY,1,100,-0.214
1576863921.693800,107051.667,18353,3,GY,1,100,-0.122
1576863921.739278,107090.000,18353,3,GY,1,100,-0.183
1576863921.776451,107121.333,18371,3,GY,1,100,-0.183
1576863921.813624,107152.667,18371,3,GY,1,100,0.031
1576863921.850798,107184.000,18371,3,GY,1,100,0.000
1576863921.889058,107216.250,18389,4,GY,1,100,-0.427
1576863921.927319,107248.500,18389,4,GY,1,100,-0.458
1576863921.965580,107280.750,18389,4,GY,1,100,0.183
1576863922.003840,107313.000,18389,4,GY,1,100,0.336
1576863922.044572,107347.333,18407,3,GY,1,100,0.366
1576863922.085305,107381.667,18407,3,GY,1,100,0.305
1576863922.126037,107416.000,18407,3,GY,1,100,0.031
1576863922.165781,107449.500,18426,2,GY,1,100,0.153
1576863922.205524,107483.000,18426,2,GY,1,100,0.366
1576863922.251002,107521.333,18443,3,GY,1,100,-0.183
1576863922.296480,107559.667,18443,3,GY,1,100,-0.458
1576863922.341958,107598.000,18443,3,GY,1,100,-0.610
1576863922.379922,107630.000,18464,5,GY,1,100,-0.641
1576863922.417886,107662.000,18464,5,GY,1,100,-0.305
1576863922.455850,107694.000,18464,5,GY,1,100,-0.214
1576863922.493814,107726.000,18464,5,GY,1,100,-0.275
1576863922.531778,107758.000,18464,5,GY,1,100,-0.061
1576863922.571719,107791.667,18484,3,GY,1,100,-0.031
1576863922.611660,107825.333,18484,3,GY,1,100,-0.244
1576863922.651602,107859.000,18484,3,GY,1,100,-0.214
1576863922.693125,107894.000,18502,3,GY,1,100,-0.275
1576863922.734648,107929.000,18502,3,GY,1,100,-0.305
1576863922.776171,107964.000,18502,3,GY,1,100,0.336
1576863922.817299,107998.667,18520,3,GY,1,100,0.244
1576863922.858427,108033.333,18520,3,GY,1,100,-0.061
1576863922.899554,108068.000,18520,3,GY,1,100,0.244
1576863922.942660,108104.333,18537,3,GY,1,100,0.183
1576863922.985765,108140.667,18537,3,GY,1,100,-0.183
1576863923.028870,108177.000,18537,3,GY,1,100,-0.214
1576863923.066438,108208.667,18555,3,GY,1,100,-0.061
1576863923.104007,108240.333,18555,3,GY,1,100,-0.061
1576863923.141575,108272.000,18555,3,GY,1,100,-0.122
1576863923.181121,108305.333,18574,3,GY,1,100,-0.092
1576863923.220667,108338.667,18574,3,GY,1,100,-0.092
1576863923.260213,108372.000,18574,3,GY,1,100,-0.305
1576863923.301736,108407.000,18590,3,GY,1,100,-0.519
1576863923.343259,108442.000,18590,3,GY,1,100,-0.153
1576863923.384783,108477.000,18590,3,GY,1,100,0.153
1576863923.425515,108511.333,18608,3,GY,1,100,-0.031
1576863923.466247,108545.667,18608,3,GY,1,100,-0.061
1576863923.506979,108580.000,18608,3,GY,1,100,0.153
1576863923.547712,108614.333,18626,3,GY,1,100,0.244
1576863923.588444,108648.667,18626,3,GY,1,100,0.183
1576863923.629176,108683.000,18626,3,GY,1,100,-0.031
1576863923.670304,108717.667,18644,3,GY,1,100,-0.427
1576863923.711432,108752.333,18644,3,GY,1,100,-0.458
1576863923.752559,108787.000,18644,3,GY,1,100,-0.458
1576863923.787360,108816.333,18662,3,GY,1,100,-0.397
1576863923.822160,108845.667,18662,3,GY,1,100,-0.336
1576863923.856961,108875.000,18662,3,GY,1,100,-0.061
1576863923.898879,108910.333,18680,3,GY,1,100,-0.488
1576863923.940798,108945.667,18680,3,GY,1,100,-0.641
1576863923.982717,108981.000,18680,3,GY,1,100,-0.214
1576863924.017517,109010.333,18698,3,GY,1,100,-0.214
1576863924.052317,109039.667,18698,3,GY,1,100,-0.519
1576863924.087118,109069.000,18698,3,GY,1,100,-0.336
1576863924.128641,109104.000,18717,3,GY,1,100,-0.336
1576863924.170164,109139.000,18717,3,GY,1,100,0.061
1576863924.211687,109174.000,18717,3,GY,1,100,-0.092
1576863924.252024,109208.000,18735,3,GY,1,100,-0.427
1576863924.292361,109242.000,18735,3,GY,1,100,-0.488
1576863924.332698,109276.000,18735,3,GY,1,100,-0.122
1576863924.373825,109310.667,18752,3,GY,1,100,0.092
1576863924.414953,109345.333,18752,3,GY,1,100,-0.153
1576863924.456081,109380.000,18752,3,GY,1,100,-0.275
1576863924.497604,109415.000,18770,3,GY,1,100,-0.214
1576863924.539127,109450.000,18770,3,GY,1,100,-0.214
1576863924.580650,109485.000,18770,3,GY,1,100,-0.092
1576863924.619405,109517.667,18786,3,GY,1,100,-0.183
1576863924.658160,109550.333,18786,3,GY,1,100,-0.214
1576863924.696915,109583.000,18786,3,GY,1,100,-0.244
1576863924.734879,109615.000,18804,3,GY,1,100,-0.244
1576863924.772843,109647.000,18804,3,GY,1,100,-0.244
1576863924.810807,109679.000,18804,3,GY,1,100,-0.275
1576863924.855099,109716.333,18822,3,GY,1,100,-0.153
1576863924.899390,109753.667,18822,3,GY,1,100,-0.153
1576863924.943681,109791.000,18822,3,GY,1,100,-0.397
1576863924.980459,109822.000,18840,3,GY,1,100,-0.214
1576863925.017237,109853.000,18840,3,GY,1,100,-0.153
1576863925.054015,109884.000,18840,3,GY,1,100,-0.275
1576863925.094747,109918.333,18859,3,GY,1,100,-0.183
1576863925.135479,109952.667,18859,3,GY,1,100,0.061
1576863925.176211,109987.000,18859,3,GY,1,100,-0.275
1576863925.220503,110024.333,18877,3,GY,1,100,-0.427
1576863925.264794,110061.667,18877,3,GY,1,100,-0.244
1576863925.309086,110099.000,18877,3,GY,1,100,-0.275
1576863925.349422,110133.000,18895,2,GY,1,100,0.061
1576863925.389759,110167.000,18895,2,GY,1,100,-0.183
1576863925.429206,110200.250,18912,4,GY,1,100,-0.366
1576863925.468653,110233.500,18912,4,GY,1,100,-0.061
1576863925.508100,110266.750,18912,4,GY,1,100,-0.183
1576863925.547547,110300.000,18912,4,GY,1,100,-0.397
1576863925.585511,110332.000,18930,3,GY,1,100,-0.244
1576863925.623475,110364.000,18930,3,GY,1,100,-0.183
1576863925.661439,110396.000,18930,3,GY,1,100,-0.153
1576863925.700590,110429.000,18948,3,GY,1,100,-0.183
1576863925.739740,110462.000,18948,3,GY,1,100,-0.488
1576863925.778891,110495.000,18948,3,GY,1,100,-0.366
1576863925.821007,110530.500,18964,2,GY,1,100,-0.061
1576863925.863123,110566.000,18964,2,GY,1,100,0.000
1576863925.907415,110603.333,18982,3,GY,1,100,-0.183
1576863925.951706,110640.667,18982,3,GY,1,100,-0.031
1576863925.995998,110678.000,18982,3,GY,1,100,0.244
1576863926.035939,110711.667,19000,3,GY,1,100,0.031
1576863926.075880,110745.333,19000,3,GY,1,100,-0.275
1576863926.115822,110779.000,19000,3,GY,1,100,-0.671
1576863926.153786,110811.000,19019,4,GY,1,100,-0.793
1576863926.191750,110843.000,19019,4,GY,1,100,-0.397
1576863926.229714,110875.000,19019,4,GY,1,100,-0.427
1576863926.267678,110907.000,19019,4,GY,1,100,-0.610
1576863926.308015,110941.000,19037,3,GY,1,100,-0.366
1576863926.348351,110975.000,19037,3,GY,1,100,-0.153
1576863926.388688,111009.000,19037,3,GY,1,100,0.122
1576863926.430805,111044.500,19055,2,GY,1,100,0.275
1576863926.472921,111080.000,19055,2,GY,1,100,0.061
1576863926.513653,111114.333,19073,3,GY,1,100,-0.031
1576863926.554386,111148.667,19073,3,GY,1,100,-0.427
1576863926.595118,111183.000,19073,3,GY,1,100,-0.732
1576863926.639014,111220.000,19091,3,GY,1,100,0.000
1576863926.682910,111257.000,19091,3,GY,1,100,0.031
1576863926.726806,111294.000,19091,3,GY,1,100,-0.122
1576863926.763188,111324.667,19108,3,GY,1,100,0.061
1576863926.799570,111355.333,19108,3,GY,1,100,-0.061
1576863926.835952,111386.000,19108,3,GY,1,100,0.000
1576863926.875498,111419.333,19126,3,GY,1,100,0.397
1576863926.915044,111452.667,19126,3,GY,1,100,0.153
1576863926.954590,111486.000,19126,3,GY,1,100,-0.061
1576863926.994927,111520.000,19144,3,GY,1,100,0.061
1576863927.035264,111554.000,19144,3,GY,1,100,-0.153
1576863927.075600,111588.000,19144,3,GY,1,100,-0.244
1576863927.116728,111622.667,19161,3,GY,1,100,-0.153
1576863927.157856,111657.333,19161,3,GY,1,100,-0.305
1576863927.198984,111692.000,19161,3,GY,1,100,-0.275
1576863927.240111,111726.667,19179,3,GY,1,100,-0.061
1576863927.281239,111761.333,19179,3,GY,1,100,-0.183
1576863927.322367,111796.000,19179,3,GY,1,100,-0.244
1576863927.363099,111830.333,19197,3,GY,1,100,-0.031
1576863927.403831,111864.667,19197,3,GY,1,100,0.305
1576863927.444564,111899.000,19197,3,GY,1,100,0.214
1576863927.484109,111932.333,19215,3,GY,1,100,-0.214
1576863927.523655,111965.667,19215,3,GY,1,100,-0.153
1576863927.563201,111999.000,19215,3,GY,1,100,-0.061
1576863927.604329,112033.667,19233,3,GY,1,100,-0.214
1576863927.645457,112068.333,19233,3,GY,1,100,-0.244
1576863927.686584,112103.000,19233,3,GY,1,100,-0.183
1576863927.723758,112134.333,19251,3,GY,1,100,-0.214
1576863927.760931,112165.667,19251,3,GY,1,100,0.061
1576863927.798104,112197.000,19251,3,GY,1,100,-0.183
1576863927.838441,112231.000,19269,3,GY,1,100,-0.153
1576863927.878778,112265.000,19269,3,GY,1,100,0.000
1576863927.919114,112299.000,19269,3,GY,1,100,-0.122
1576863927.959056,112332.667,19287,3,GY,1,100,-0.183
1576863927.998997,112366.333,19287,3,GY,1,100,-0.275
1576863928.038938,112400.000,19287,3,GY,1,100,-0.153
1576863928.080462,112435.000,19305,3,GY,1,100,-0.183
1576863928.121985,112470.000,19305,3,GY,1,100,-0.122
1576863928.163508,112505.000,19305,3,GY,1,100,0.061
1576863928.204636,112539.667,19323,3,GY,1,100,-0.305
1576863928.245763,112574.333,19323,3,GY,1,100,-0.244
1576863928.286891,112609.000,19323,3,GY,1,100,0.000
1576863928.327623,112643.333,19339,3,GY,1,100,-0.305
1576863928.368356,112677.667,19339,3,GY,1,100,-0.397
1576863928.409088,112712.000,19339,3,GY,1,100,-0.275
1576863928.449662,112746.200,19360,5,GY,1,100,-0.366
1576863928.490236,112780.400,19360,5,GY,1,100,-0.122
1576863928.530810,112814.600,19360,5,GY,1,100,-0.153
1576863928.571384,112848.800,19360,5,GY,1,100,-0.519
1576863928.611958,112883.000,19360,5,GY,1,100,-0.458
1576863928.650318,112915.333,19379,3,GY,1,100,0.122
1576863928.688677,112947.667,19379,3,GY,1,100,0.092
1576863928.727037,112980.000,19379,3,GY,1,100,-0.275
1576863928.771526,113017.500,19397,2,GY,1,100,-0.305
1576863928.816015,113055.000,19397,2,GY,1,100,-0.183
1576863928.856352,113089.000,19413,3,GY,1,100,-0.183
1576863928.896689,113123.000,19413,3,GY,1,100,-0.153
1576863928.937025,113157.000,19413,3,GY,1,100,-0.183
1576863928.978153,113191.667,19431,3,GY,1,100,-0.214
1576863929.019281,113226.333,19431,3,GY,1,100,-0.305
1576863929.060409,113261.000,19431,3,GY,1,100,-0.183
1576863929.100745,113295.000,19450,3,GY,1,100,-0.153
1576863929.141082,113329.000,19450,3,GY,1,100,-0.183
1576863929.181419,113363.000,19450,3,GY,1,100,-0.153
1576863929.219383,113395.000,19468,4,GY,1,100,-0.153
1576863929.257347,113427.000,19468,4,GY,1,100,-0.244
1576863929.295311,113459.000,19468,4,GY,1,100,-0.092
1576863929.333275,113491.000,19468,4,GY,1,100,0.061
1576863929.372426,113524.000,19486,3,GY,1,100,-0.153
1576863929.411576,113557.000,19486,3,GY,1,100,-0.061
1576863929.450727,113590.000,19486,3,GY,1,100,-0.153
1576863929.496995,113629.000,19504,2,GY,1,100,-0.275
1576863929.543264,113668.000,19504,2,GY,1,100,-0.031
1576863929.584392,113702.667,19522,3,GY,1,100,-0.183
1576863929.625519,113737.333,19522,3,GY,1,100,-0.244
1576863929.666647,113772.000,19522,3,GY,1,100,-0.275
1576863929.707775,113806.667,19540,3,GY,1,100,-0.336
1576863929.748903,113841.333,19540,3,GY,1,100,-0.092
1576863929.790030,113876.000,19540,3,GY,1,100,0.092
1576863929.827994,113908.000,19557,3,GY,1,100,-0.153
1576863929.865958,113940.000,19557,3,GY,1,100,-0.366
1576863929.903922,113972.000,19557,3,GY,1,100,-0.122
1576863929.942677,114004.667,19575,3,GY,1,100,0.366
1576863929.981432,114037.333,19575,3,GY,1,100,0.092
1576863930.020187,114070.000,19575,3,GY,1,100,-0.122
1576863930.060920,114104.333,19594,3,GY,1,100,-0.092
1576863930.101652,114138.667,19594,3,GY,1,100,-0.061
1576863930.142384,114173.000,19594,3,GY,1,100,-0.061
1576863930.183512,114207.667,19610,3,GY,1,100,-0.092
1576863930.224640,114242.333,19610,3,GY,1,100,-0.092
1576863930.265767,114277.000,19610,3,GY,1,100,-0.153
1576863930.310850,114315.000,19628,3,GY,1,100,-0.092
1576863930.355932,114353.000,19628,3,GY,1,100,-0.031
1576863930.401014,114391.000,19628,3,GY,1,100,-0.122
1576863930.438978,114423.000,19646,3,GY,1,100,-0.092
1576863930.476942,114455.000,19646,3,GY,1,100,-0.061
1576863930.514906,114487.000,19646,3,GY,1,100,-0.122
1576863930.552079,114518.333,19664,3,GY,1,100,-0.092
1576863930.589253,114549.667,19664,3,GY,1,100,-0.061
1576863930.626426,114581.000,19664,3,GY,1,100,0.031
1576863930.666763,114615.000,19682,3,GY,1,100,-0.092
1576863930.707099,114649.000,19682,3,GY,1,100,-0.122
1576863930.747436,114683.000,19682,3,GY,1,100,0.000
1576863930.788168,114717.333,19700,3,GY,1,100,-0.092
1576863930.828901,114751.667,19700,3,GY,1,100,0.000
1576863930.869633,114786.000,19700,3,GY,1,100,-0.061
1576863930.911947,114821.667,19718,3,GY,1,100,-0.183
1576863930.954261,114857.333,19718,3,GY,1,100,-0.061
1576863930.996575,114893.000,19718,3,GY,1,100,0.000
1576863931.037703,114927.667,19735,3,GY,1,100,-0.122
1576863931.078831,114962.333,19735,3,GY,1,100,-0.122
1576863931.119958,114997.000,19735,3,GY,1,100,-0.244
1576863931.166820,115036.500,19754,2,GY,1,100,-0.153
1576863931.213682,115076.000,19754,2,GY,1,100,-0.183
1576863931.252239,115108.500,19770,4,GY,1,100,-0.336
1576863931.290797,115141.000,19770,4,GY,1,100,-0.305
1576863931.329354,115173.500,19770,4,GY,1,100,-0.305
1576863931.367911,115206.000,19770,4,GY,1,100,-0.153
1576863931.410028,115241.500,19788,2,GY,1,100,0.183
1576863931.452144,115277.000,19788,2,GY,1,100,-0.336
1576863931.490108,115309.000,19806,4,GY,1,100,-0.702
1576863931.528072,115341.000,19806,4,GY,1,100,-0.092
1576863931.566036,115373.000,19806,4,GY,1,100,0.275
1576863931.604000,115405.000,19806,4,GY,1,100,-0.122
1576863931.643941,115438.667,19824,3,GY,1,100,-0.214
1576863931.683883,115472.333,19824,3,GY,1,100,-0.092
1576863931.723824,115506.000,19824,3,GY,1,100,-0.122
1576863931.763766,115539.667,19842,3,GY,1,100,-0.153
1576863931.803707,115573.333,19842,3,GY,1,100,0.000
1576863931.843648,115607.000,19842,3,GY,1,100,-0.214
1576863931.883590,115640.667,19860,3,GY,1,100,-0.275
1576863931.923531,115674.333,19860,3,GY,1,100,-0.122
1576863931.963472,115708.000,19860,3,GY,1,100,-0.244
1576863932.004205,115742.333,19878,3,GY,1,100,-0.122
1576863932.044937,115776.667,19878,3,GY,1,100,-0.092
1576863932.085669,115811.000,19878,3,GY,1,100,-0.122
1576863932.127192,115846.000,19897,2,GY,1,100,-0.275
1576863932.168715,115881.000,19897,2,GY,1,100,-0.214
1576863932.210634,115916.333,19914,3,GY,1,100,-0.153
1576863932.252553,115951.667,19914,3,GY,1,100,-0.183
1576863932.294471,115987.000,19914,3,GY,1,100,-0.122
1576863932.335599,116021.667,19932,3,GY,1,100,-0.122
1576863932.376727,116056.333,19932,3,GY,1,100,-0.214
1576863932.417855,116091.000,19932,3,GY,1,100,-0.244
1576863932.456214,116123.333,19949,3,GY,1,100,-0.153
1576863932.494574,116155.667,19949,3,GY,1,100,-0.122
1576863932.532933,116188.000,19949,3,GY,1,100,-0.244
1576863932.573665,116222.333,19966,3,GY,1,100,-0.092
1576863932.614398,116256.667,19966,3,GY,1,100,-0.183
1576863932.655130,116291.000,19966,3,GY,1,100,-0.214
1576863932.695071,116324.667,19984,3,GY,1,100,-0.122
1576863932.735013,116358.333,19984,3,GY,1,100,-0.244
1576863932.774954,116392.000,19984,3,GY,1,100,-0.305
1576863932.817268,116427.667,20002,3,GY,1,100,-0.244
1576863932.859582,116463.333,20002,3,GY,1,100,-0.244
1576863932.901896,116499.000,20002,3,GY,1,100,0.031
1576863932.939465,116530.667,20020,3,GY,1,100,0.000
1576863932.977033,116562.333,20020,3,GY,1,100,-0.366
1576863933.014602,116594.000,20020,3,GY,1,100,-0.397
1576863933.056125,116629.000,20038,3,GY,1,100,0.031
1576863933.097648,116664.000,20038,3,GY,1,100,0.275
1576863933.139172,116699.000,20038,3,GY,1,100,0.000
1576863933.179904,116733.333,20057,3,GY,1,100,-0.275
1576863933.220636,116767.667,20057,3,GY,1,100,-0.153
1576863933.261368,116802.000,20057,3,GY,1,100,0.000
1576863933.302101,116836.333,20075,3,GY,1,100,-0.244
1576863933.342833,116870.667,20075,3,GY,1,100,-0.153
1576863933.383565,116905.000,20075,3,GY,1,100,-0.031
1576863933.424693,116939.667,20092,3,GY,1,100,-0.061
1576863933.465821,116974.333,20092,3,GY,1,100,-0.092
1576863933.506948,117009.000,20092,3,GY,1,100,-0.092
1576863933.546099,117042.000,20110,3,GY,1,100,-0.061
1576863933.585249,117075.000,20110,3,GY,1,100,-0.092
1576863933.624400,117108.000,20110,3,GY,1,100,-0.122
1576863933.662364,117140.000,20128,3,GY,1,100,-0.122
1576863933.700328,117172.000,20128,3,GY,1,100,-0.061
1576863933.738292,117204.000,20128,3,GY,1,100,-0.122
1576863933.778233,117237.667,20144,3,GY,1,100,-0.122
1576863933.818174,117271.333,20144,3,GY,1,100,-0.092
1576863933.858116,117305.000,20144,3,GY,1,100,-0.122
1576863933.903198,117343.000,20162,3,GY,1,100,0.000
1576863933.948280,117381.000,20162,3,GY,1,100,-0.061
1576863933.993363,117419.000,20162,3,GY,1,100,-0.092
1576863934.034095,117453.333,20180,3,GY,1,100,0.031
1576863934.074827,117487.667,20180,3,GY,1,100,0.031
1576863934.115560,117522.000,20180,3,GY,1,100,-0.031
1576863934.153919,117554.333,20199,3,GY,1,100,-0.031
1576863934.192279,117586.667,20199,3,GY,1,100,-0.031
1576863934.230638,117619.000,20199,3,GY,1,100,-0.153
1576863934.268998,117651.333,20217,3,GY,1,100,-0.092
1576863934.307357,117683.667,20217,3,GY,1,100,-0.183
1576863934.345717,117716.000,20217,3,GY,1,100,-0.275
1576863934.384472,117748.667,20235,3,GY,1,100,-0.183
1576863934.423227,117781.333,20235,3,GY,1,100,0.183
1576863934.461982,117814.000,20235,3,GY,1,100,-0.031
1576863934.503030,117848.600,20256,5,GY,1,100,-0.397
1576863934.544079,117883.200,20256,5,GY,1,100,-0.214
1576863934.585127,117917.800,20256,5,GY,1,100,0.214
1576863934.626176,117952.400,20256,5,GY,1,100,0.061
1576863934.667225,117987.000,20256,5,GY,1,100,-0.122
1576863934.709341,118022.500,20276,2,GY,1,100,-0.153
1576863934.751457,118058.000,20276,2,GY,1,100,-0.061
1576863934.796144,118095.667,20294,3,GY,1,100,-0.061
1576863934.840831,118133.333,20294,3,GY,1,100,-0.214
1576863934.885518,118171.000,20294,3,GY,1,100,-0.122
1576863934.924273,118203.667,20312,3,GY,1,100,-0.061
1576863934.963028,118236.333,20312,3,GY,1,100,-0.153
1576863935.001783,118269.000,20312,3,GY,1,100,-0.153
1576863935.046470,118306.667,20330,3,GY,1,100,-0.214
1576863935.091157,118344.333,20330,3,GY,1,100,-0.122
1576863935.135844,118382.000,20330,3,GY,1,100,-0.153
1576863935.174203,118414.333,20348,3,GY,1,100,-0.153
1576863935.212563,118446.667,20348,3,GY,1,100,-0.305
1576863935.250922,118479.000,20348,3,GY,1,100,-0.214
1576863935.296004,118517.000,20366,3,GY,1,100,-0.122
1576863935.341087,118555.000,20366,3,GY,1,100,-0.214
1576863935.386169,118593.000,20366,3,GY,1,100,-0.244
1576863935.424924,118625.667,20382,3,GY,1,100,-0.153
1576863935.463679,118658.333,20382,3,GY,1,100,-0.183
1576863935.502434,118691.000,20382,3,GY,1,100,-0.122
1576863935.540398,118723.000,20400,3,GY,1,100,-0.092
1576863935.578362,118755.000,20400,3,GY,1,100,-0.397
1576863935.616326,118787.000,20400,3,GY,1,100,-0.061
1576863935.655872,118820.333,20418,3,GY,1,100,-0.153
1576863935.695418,118853.667,20418,3,GY,1,100,-0.366
1576863935.734964,118887.000,20418,3,GY,1,100,-0.244
1576863935.776091,118921.667,20436,3,GY,1,100,-0.336
1576863935.817219,118956.333,20436,3,GY,1,100,-0.244
1576863935.858347,118991.000,20436,3,GY,1,100,0.153
1576863935.899475,119025.667,20454,3,GY,1,100,-0.122
1576863935.940602,119060.333,20454,3,GY,1,100,-0.610
1576863935.981730,119095.000,20454,3,GY,1,100,-0.244
1576863936.027999,119134.000,20472,2,GY,1,100,0.275
1576863936.074267,119173.000,20472,2,GY,1,100,0.061
1576863936.111935,119204.750,20491,4,GY,1,100,-0.305
1576863936.149602,119236.500,20491,4,GY,1,100,-0.305
1576863936.187270,119268.250,20491,4,GY,1,100,-0.153
1576863936.224937,119300.000,20491,4,GY,1,100,0.000
1576863936.263692,119332.667,20509,3,GY,1,100,0.000
1576863936.302447,119365.333,20509,3,GY,1,100,-0.214
1576863936.341202,119398.000,20509,3,GY,1,100,-0.153
1576863936.382725,119433.000,20526,3,GY,1,100,0.000
1576863936.424248,119468.000,20526,3,GY,1,100,-0.153
1576863936.465772,119503.000,20526,3,GY,1,100,-0.275
1576863936.506109,119537.000,20544,3,GY,1,100,-0.122
1576863936.546445,119571.000,20544,3,GY,1,100,-0.061
1576863936.586782,119605.000,20544,3,GY,1,100,-0.275
1576863936.628899,119640.500,20560,2,GY,1,100,-0.275
1576863936.671015,119676.000,20560,2,GY,1,100,-0.214
1576863936.711055,119709.750,20578,4,GY,1,100,-0.031
