EpochTimestamp,EmotiBitTimestamp,PacketNumber,DataLength,TypeTag,ProtocolVersion,DataReliability,H0
1576864522.147248,51395.000,8493,1,H0,1,100,98.992
1576864522.285319,51511.000,8511,1,H0,1,100,98.988
1576864522.418629,51623.000,8529,1,H0,1,100,98.996
1576864522.554320,51737.000,8547,1,H0,1,100,98.988
1576864522.684059,51846.000,8566,1,H0,1,100,98.984
1576864522.811418,51953.000,8583,1,H0,1,100,98.984
1576864522.950679,52070.000,8601,1,H0,1,100,98.984
1576864523.089941,52187.000,8635,1,H0,1,100,98.984
1576864523.214919,52292.000,8653,1,H0,1,100,98.977
1576864523.344658,52401.000,8671,1,H0,1,100,98.992
1576864523.482729,52517.000,8689,1,H0,1,100,98.977
1576864523.616040,52629.000,8707,1,H0,1,100,98.988
1576864523.751730,52743.000,8726,1,H0,1,100,98.988
1576864523.877899,52849.000,8744,1,H0,1,100,98.977
1576864524.007638,52958.000,8762,1,H0,1,100,98.977
1576864524.143329,53072.000,8779,1,H0,1,100,98.984
1576864524.283780,53190.000,8797,1,H0,1,100,98.977
1576864524.417090,53302.000,8831,1,H0,1,100,98.977
1576864524.544449,53409.000,8849,1,H0,1,100,98.977
1576864524.677759,53521.000,8868,1,H0,1,100,98.969
1576864524.814640,53636.000,8886,1,H0,1,100,98.977
1576864524.952711,53752.000,8904,1,H0,1,100,98.977
1576864525.082451,53861.000,8922,1,H0,1,100,98.977
1576864525.207429,53966.000,8940,1,H0,1,100,98.980
1576864525.343119,54080.000,8957,1,H0,1,100,98.973
1576864525.478810,54194.000,8975,1,H0,1,100,98.980
1576864525.618072,54311.000,9010,1,H0,1,100,98.969
1576864525.744240,54417.000,9028,1,H0,1,100,98.977
1576864525.877550,54529.000,9046,1,H0,1,100,98.969
1576864526.010860,54641.000,9064,1,H0,1,100,98.977
1576864526.148931,54757.000,9082,1,H0,1,100,98.965
1576864526.284622,54871.000,9100,1,H0,1,100,98.973
1576864526.408410,54975.000,9118,1,H0,1,100,98.969
1576864526.541720,55087.000,9135,1,H0,1,100,98.973
1576864526.679791,55203.000,9154,1,H0,1,100,98.980
1576864526.814291,55316.000,9188,1,H0,1,100,98.980
1576864526.941650,55423.000,9206,1,H0,1,100,98.969
1576864527.069009,55530.000,9224,1,H0,1,100,98.969
1576864527.203509,55643.000,9242,1,H0,1,100,98.977
1576864527.338010,55756.000,9260,1,H0,1,100,98.973
1576864527.478461,55874.000,9278,1,H0,1,100,98.977
1576864527.603440,55979.000,9296,1,H0,1,100,98.969
1576864527.731989,56087.000,9315,1,H0,1,100,98.977
1576864527.871250,56204.000,9332,1,H0,1,100,98.969
1576864528.009321,56320.000,9350,1,H0,1,100,98.973
1576864528.139060,56429.000,9387,2,H0,1,100,98.973
1576864528.268800,56538.000,9387,2,H0,1,100,98.977
1576864528.400919,56649.000,9407,1,H0,1,100,98.973
1576864528.537801,56764.000,9424,1,H0,1,100,98.965
1576864528.674681,56879.000,9443,1,H0,1,100,98.973
1576864528.805611,56989.000,9477,1,H0,1,100,98.977
1576864528.934160,57097.000,9495,1,H0,1,100,98.965
1576864529.071041,57212.000,9513,1,H0,1,100,98.965
1576864529.205541,57325.000,9531,1,H0,1,100,98.961
1576864529.345993,57443.000,9549,1,H0,1,100,98.973
1576864529.475732,57552.000,9567,1,H0,1,100,98.977
1576864529.601901,57658.000,9585,1,H0,1,100,98.973
1576864529.738781,57773.000,9603,1,H0,1,100,98.969
1576864529.876853,57889.000,9621,1,H0,1,100,98.977
1576864530.012543,58003.000,9655,1,H0,1,100,98.961
1576864530.138712,58109.000,9673,1,H0,1,100,98.961
1576864530.269641,58219.000,9691,1,H0,1,100,98.969
1576864530.402951,58331.000,9709,1,H0,1,100,98.969
1576864530.539832,58446.000,9727,1,H0,1,100,98.965
1576864530.671952,58557.000,9746,1,H0,1,100,98.969
1576864530.798120,58663.000,9764,1,H0,1,100,98.961
1576864530.933811,58777.000,9781,1,H0,1,100,98.965
1576864531.073073,58894.000,9799,1,H0,1,100,98.958
1576864531.212334,59011.000,9833,1,H0,1,100,98.954
1576864531.336122,59115.000,9851,1,H0,1,100,98.961
1576864531.464671,59223.000,9869,1,H0,1,100,98.958
1576864531.599171,59336.000,9888,1,H0,1,100,98.973
1576864531.737242,59452.000,9906,1,H0,1,100,98.965
1576864531.872933,59566.000,9924,1,H0,1,100,98.958
1576864531.997911,59671.000,9942,1,H0,1,100,98.961
1576864532.130031,59782.000,9960,1,H0,1,100,98.954
1576864532.269293,59899.000,9977,1,H0,1,100,98.961
1576864532.402603,60011.000,9995,1,H0,1,100,98.958
1576864532.537103,60124.000,10029,1,H0,1,100,98.958
1576864532.666842,60233.000,10048,1,H0,1,100,98.954
1576864532.796582,60342.000,10066,1,H0,1,100,98.954
1576864532.935843,60459.000,10084,1,H0,1,100,98.954
1576864533.075104,60576.000,10102,1,H0,1,100,98.954
1576864533.201273,60682.000,10120,1,H0,1,100,98.939
1576864533.332202,60792.000,10138,1,H0,1,100,98.942
1576864533.466703,60905.000,10155,1,H0,1,100,98.946
1576864533.600013,61017.000,10173,1,H0,1,100,98.946
1576864533.740465,61135.000,10208,1,H0,1,100,98.939
1576864533.866633,61241.000,10226,1,H0,1,100,98.942
1576864533.998753,61352.000,10244,1,H0,1,100,98.946
1576864534.134444,61466.000,10262,1,H0,1,100,98.946
1576864534.270729,61580.500,10283,2,H0,1,100,98.935
1576864534.407015,61695.000,10283,2,H0,1,100,98.939
1576864534.533184,61801.000,10319,1,H0,1,100,98.935
1576864534.668874,61915.000,10338,1,H0,1,100,98.946
1576864534.808136,62032.000,10356,1,H0,1,100,98.950
1576864534.946207,62148.000,10374,1,H0,1,100,98.939
1576864535.072375,62254.000,10392,1,H0,1,100,98.939
1576864535.197354,62359.000,10410,1,H0,1,100,98.935
1576864535.337805,62477.000,10427,1,H0,1,100,98.942
1576864535.472306,62590.000,10445,1,H0,1,100,98.946
1576864535.609186,62705.000,10480,1,H0,1,100,98.942
1576864535.735355,62811.000,10498,1,H0,1,100,98.935
1576864535.866285,62921.000,10516,1,H0,1,100,98.942
1576864535.999595,63033.000,10534,1,H0,1,100,98.931
1576864536.138856,63150.000,10552,1,H0,1,100,98.931
1576864536.274547,63264.000,10570,1,H0,1,100,98.942
1576864536.399525,63369.000,10588,1,H0,1,100,98.931
1576864536.532835,63481.000,10606,1,H0,1,100,98.935
1576864536.668525,63595.000,10624,1,H0,1,100,98.935
1576864536.803026,63708.000,10642,1,H0,1,100,98.919
1576864536.935146,63819.000,10676,1,H0,1,100,98.931
1576864537.061314,63925.000,10694,1,H0,1,100,98.919
1576864537.192244,64035.000,10712,1,H0,1,100,98.923
1576864537.330315,64151.000,10730,1,H0,1,100,98.931
1576864537.471957,64270.000,10748,1,H0,1,100,98.916
1576864537.598125,64376.000,10766,1,H0,1,100,98.919
1576864537.726674,64484.000,10785,1,H0,1,100,98.923
1576864537.863555,64599.000,10802,1,H0,1,100,98.923
1576864538.001626,64715.000,10820,1,H0,1,100,98.919
1576864538.136127,64828.000,10854,1,H0,1,100,98.908
1576864538.262295,64934.000,10872,1,H0,1,100,98.908
1576864538.394415,65045.000,10890,1,H0,1,100,98.912
1576864538.533677,65162.000,10908,1,H0,1,100,98.919
1576864538.668177,65275.000,10927,1,H0,1,100,98.912
1576864538.797916,65384.000,10945,1,H0,1,100,98.916
1576864538.925275,65491.000,10963,1,H0,1,100,98.916
1576864539.062156,65606.000,10980,1,H0,1,100,98.916
1576864539.196656,65719.000,10998,1,H0,1,100,98.916
1576864539.338298,65838.000,11032,1,H0,1,100,98.919
1576864539.466847,65946.000,11050,1,H0,1,100,98.912
1576864539.591825,66051.000,11069,1,H0,1,100,98.908
1576864539.729897,66167.000,11087,1,H0,1,100,98.916
1576864539.866777,66282.000,11105,1,H0,1,100,98.904
1576864540.002468,66396.000,11123,1,H0,1,100,98.908
1576864540.129827,66503.000,11141,1,H0,1,100,98.916
1576864540.259566,66612.000,11159,1,H0,1,100,98.908
1576864540.394066,66725.000,11180,1,H0,1,100,98.897
1576864540.532138,66841.000,11200,1,H0,1,100,98.904
1576864540.665448,66953.000,11219,1,H0,1,100,98.912
1576864540.790426,67058.000,11237,1,H0,1,100,98.916
1576864540.924926,67171.000,11255,1,H0,1,100,98.908
1576864541.064188,67288.000,11272,1,H0,1,100,98.908
1576864541.202259,67404.000,11290,1,H0,1,100,98.912
1576864541.329618,67511.000,11324,1,H0,1,100,98.908
1576864541.459357,67620.000,11342,1,H0,1,100,98.904
1576864541.593857,67733.000,11361,1,H0,1,100,98.908
1576864541.733119,67850.000,11379,1,H0,1,100,98.908
1576864541.865238,67961.000,11397,1,H0,1,100,98.912
1576864541.990217,68066.000,11415,1,H0,1,100,98.908
1576864542.124717,68179.000,11433,1,H0,1,100,98.908
1576864542.259218,68292.000,11450,1,H0,1,100,98.908
1576864542.397289,68408.000,11468,1,H0,1,100,98.900
1576864542.540121,68528.000,11502,1,H0,1,100,98.900
1576864542.674621,68641.000,11521,1,H0,1,100,98.904
1576864542.801980,68748.000,11539,1,H0,1,100,98.904
1576864542.931719,68857.000,11557,1,H0,1,100,98.897
1576864543.067410,68971.000,11575,1,H0,1,100,98.893
1576864543.201910,69084.000,11593,1,H0,1,100,98.904
1576864543.339981,69200.000,11610,1,H0,1,100,98.904
1576864543.468530,69308.000,11628,1,H0,1,100,98.908
1576864543.599460,69418.000,11646,1,H0,1,100,98.904
1576864543.729199,69527.000,11665,1,H0,1,100,98.900
1576864543.863699,69640.000,11699,1,H0,1,100,98.904
1576864543.997010,69752.000,11717,1,H0,1,100,98.900
1576864544.138652,69871.000,11735,1,H0,1,100,98.897
1576864544.263630,69976.000,11753,1,H0,1,100,98.900
1576864544.389798,70082.000,11771,1,H0,1,100,98.900
1576864544.527869,70198.000,11789,1,H0,1,100,98.900
1576864544.665941,70314.000,11807,1,H0,1,100,98.897
1576864544.800441,70427.000,11825,1,H0,1,100,98.897
1576864544.926610,70533.000,11843,1,H0,1,100,98.889
1576864545.058729,70644.000,11877,1,H0,1,100,98.897
1576864545.197991,70761.000,11895,1,H0,1,100,98.885
1576864545.334872,70876.000,11913,1,H0,1,100,98.897
1576864545.465801,70986.000,11931,1,H0,1,100,98.889
1576864545.590779,71091.000,11949,1,H0,1,100,98.889
1576864545.731231,71209.000,11968,1,H0,1,100,98.897
1576864545.864541,71321.000,11985,1,H0,1,100,98.893
1576864546.002612,71437.000,12003,1,H0,1,100,98.900
1576864546.126400,71541.000,12021,1,H0,1,100,98.889
1576864546.256140,71650.000,12038,1,H0,1,100,98.893
1576864546.394211,71766.000,12076,2,H0,1,100,98.893
1576864546.532282,71882.000,12076,2,H0,1,100,98.897
1576864546.669163,71997.000,12096,1,H0,1,100,98.897
1576864546.794141,72102.000,12114,1,H0,1,100,98.889
1576864546.928641,72215.000,12148,1,H0,1,100,98.897
1576864547.057190,72323.000,12166,1,H0,1,100,98.897
1576864547.188120,72433.000,12184,1,H0,1,100,98.889
1576864547.327381,72550.000,12202,1,H0,1,100,98.897
1576864547.466643,72667.000,12220,1,H0,1,100,98.900
1576864547.590431,72771.000,12238,1,H0,1,100,98.893
1576864547.721360,72881.000,12257,1,H0,1,100,98.904
1576864547.855860,72994.000,12274,1,H0,1,100,98.893
1576864547.990361,73107.000,12292,1,H0,1,100,98.889
1576864548.127242,73222.000,12326,1,H0,1,100,98.889
1576864548.253410,73328.000,12344,1,H0,1,100,98.897
1576864548.381959,73436.000,12362,1,H0,1,100,98.893
1576864548.520030,73552.000,12380,1,H0,1,100,98.897
1576864548.660482,73670.000,12399,1,H0,1,100,98.900
1576864548.791412,73780.000,12417,1,H0,1,100,98.908
1576864548.918771,73887.000,12435,1,H0,1,100,98.900
1576864549.054461,74001.000,12453,1,H0,1,100,98.900
1576864549.192532,74117.000,12470,1,H0,1,100,98.908
1576864549.332984,74235.000,12504,1,H0,1,100,98.904
1576864549.455582,74338.000,12522,1,H0,1,100,98.897
1576864549.584131,74446.000,12541,1,H0,1,100,98.897
1576864549.724582,74564.000,12559,1,H0,1,100,98.904
1576864549.859083,74677.000,12577,1,H0,1,100,98.900
1576864549.992393,74789.000,12595,1,H0,1,100,98.897
1576864550.117371,74894.000,12613,1,H0,1,100,98.900
1576864550.253062,75008.000,12631,1,H0,1,100,98.900
1576864550.379230,75114.000,12648,1,H0,1,100,98.889
1576864550.518492,75231.000,12666,1,H0,1,100,98.893
1576864550.656563,75347.000,12701,1,H0,1,100,98.897
1576864550.794634,75463.000,12719,1,H0,1,100,98.900
1576864550.921993,75570.000,12737,1,H0,1,100,98.897
1576864551.051732,75679.000,12755,1,H0,1,100,98.900
1576864551.185042,75791.000,12773,1,H0,1,100,98.900
1576864551.325494,75909.000,12791,1,H0,1,100,98.893
1576864551.459994,76022.000,12809,1,H0,1,100,98.900
1576864551.583782,76126.000,12826,1,H0,1,100,98.900
1576864551.717092,76238.000,12845,1,H0,1,100,98.893
1576864551.851592,76351.000,12863,1,H0,1,100,98.897
1576864551.986093,76464.000,12897,1,H0,1,100,98.893
1576864552.118213,76575.000,12915,1,H0,1,100,98.897
1576864552.246762,76683.000,12933,1,H0,1,100,98.897
1576864552.382452,76797.000,12951,1,H0,1,100,98.897
1576864552.518143,76911.000,12972,1,H0,1,100,98.897
1576864552.658595,77029.000,12993,1,H0,1,100,98.897
1576864552.784763,77135.000,13011,1,H0,1,100,98.900
1576864552.913312,77243.000,13029,1,H0,1,100,98.893
1576864553.050193,77358.000,13047,1,H0,1,100,98.897
1576864553.188264,77474.000,13065,1,H0,1,100,98.900
1576864553.321574,77586.000,13083,1,H0,1,100,98.893
1576864553.446553,77691.000,13101,1,H0,1,100,98.900
1576864553.578672,77802.000,13118,1,H0,1,100,98.893
1576864553.717934,77919.000,13137,1,H0,1,100,98.897
1576864553.852434,78032.000,13171,1,H0,1,100,98.897
1576864553.980983,78140.000,13189,1,H0,1,100,98.889
1576864554.116674,78254.000,13207,1,H0,1,100,98.893
1576864554.241652,78359.000,13225,1,H0,1,100,98.900
1576864554.367820,78465.000,13243,1,H0,1,100,98.893
1576864554.507082,78582.000,13261,1,H0,1,100,98.900
1576864554.645153,78698.000,13280,1,H0,1,100,98.900
1576864554.778463,78810.000,13297,1,H0,1,100,98.900
1576864554.907012,78918.000,13315,1,H0,1,100,98.900
1576864555.039132,79029.000,13333,1,H0,1,100,98.904
1576864555.173632,79142.000,13367,1,H0,1,100,98.900
1576864555.312894,79259.000,13385,1,H0,1,100,98.900
1576864555.442633,79368.000,13403,1,H0,1,100,98.889
1576864555.566421,79472.000,13422,1,H0,1,100,98.897
1576864555.703302,79587.000,13440,1,H0,1,100,98.889
1576864555.838992,79701.000,13458,1,H0,1,100,98.900
1576864555.975873,79816.000,13476,1,H0,1,100,98.897
1576864556.100852,79921.000,13493,1,H0,1,100,98.897
1576864556.230591,80030.000,13511,1,H0,1,100,98.893
1576864556.368662,80146.000,13529,1,H0,1,100,98.897
1576864556.504353,80260.000,13563,1,H0,1,100,98.900
1576864556.641233,80375.000,13582,1,H0,1,100,98.904
1576864556.766212,80480.000,13600,1,H0,1,100,98.897
1576864556.901902,80594.000,13618,1,H0,1,100,98.904
1576864557.036403,80707.000,13636,1,H0,1,100,98.897
1576864557.174474,80823.000,13654,1,H0,1,100,98.900
1576864557.301832,80930.000,13671,1,H0,1,100,98.893
1576864557.426811,81035.000,13689,1,H0,1,100,98.900
1576864557.562501,81149.000,13707,1,H0,1,100,98.893
1576864557.701763,81266.000,13742,1,H0,1,100,98.893
1576864557.842215,81384.000,13760,1,H0,1,100,98.885
1576864557.980286,81500.000,13778,1,H0,1,100,98.897
1576864558.115976,81614.000,13796,1,H0,1,100,98.897
1576864558.244525,81722.000,13814,1,H0,1,100,98.900
1576864558.371884,81829.000,13832,1,H0,1,100,98.893
1576864558.511146,81946.000,13849,1,H0,1,100,98.889
1576864558.649217,82062.000,13869,1,H0,1,100,98.893
1576864558.777766,82170.000,13887,1,H0,1,100,98.893
1576864558.907505,82279.000,13905,1,H0,1,100,98.900
1576864559.040815,82391.000,13927,1,H0,1,100,98.900
1576864559.174125,82503.000,13944,1,H0,1,100,98.904
1576864559.314577,82621.000,13962,1,H0,1,100,98.897
1576864559.440745,82727.000,13980,1,H0,1,100,98.900
1576864559.568104,82834.000,14015,1,H0,1,100,98.893
1576864559.706175,82950.000,14033,1,H0,1,100,98.900
1576864559.845437,83067.000,14051,1,H0,1,100,98.904
1576864559.981127,83181.000,14069,1,H0,1,100,98.897
1576864560.106106,83286.000,14087,1,H0,1,100,98.897
1576864560.240606,83399.000,14105,1,H0,1,100,98.900
1576864560.378677,83515.000,14122,1,H0,1,100,98.897
1576864560.515558,83630.000,14140,1,H0,1,100,98.900
1576864560.645297,83739.000,14158,1,H0,1,100,98.893
1576864560.770275,83844.000,14193,1,H0,1,100,98.897
1576864560.909537,83961.000,14211,1,H0,1,100,98.893
1576864561.044037,84074.000,14229,1,H0,1,100,98.897
1576864561.182108,84190.000,14247,1,H0,1,100,98.897
1576864561.305896,84294.000,14265,1,H0,1,100,98.897
1576864561.439206,84406.000,14283,1,H0,1,100,98.897
1576864561.564185,84511.000,14301,1,H0,1,100,98.893
1576864561.702256,84627.000,14319,1,H0,1,100,98.897
1576864561.839137,84742.000,14337,1,H0,1,100,98.893
1576864561.974827,84856.000,14371,1,H0,1,100,98.893
1576864562.105757,84966.000,14389,1,H0,1,100,98.889
1576864562.234306,85074.000,14407,1,H0,1,100,98.897
1576864562.365235,85184.000,14425,1,H0,1,100,98.889
1576864562.505687,85302.000,14443,1,H0,1,100,98.893
1576864562.643758,85418.000,14462,1,H0,1,100,98.897
1576864562.781829,85534.000,14479,1,H0,1,100,98.889
1576864562.916330,85647.000,14497,1,H0,1,100,98.889
1576864563.042498,85753.000,14515,1,H0,1,100,98.893
1576864563.172237,85862.000,14549,1,H0,1,100,98.900
1576864563.310309,85978.000,14567,1,H0,1,100,98.897
1576864563.450760,86096.000,14585,1,H0,1,100,98.893
1576864563.575739,86201.000,14603,1,H0,1,100,98.904
1576864563.706668,86311.000,14622,1,H0,1,100,98.900
1576864563.843549,86426.000,14640,1,H0,1,100,98.897
1576864563.981620,86542.000,14657,1,H0,1,100,98.904
1576864564.118501,86657.000,14675,1,H0,1,100,98.904
1576864564.244670,86763.000,14693,1,H0,1,100,98.897
1576864564.376789,86874.000,14727,1,H0,1,100,98.893
1576864564.514861,86990.000,14745,1,H0,1,100,98.897
1576864564.648171,87102.000,14767,2,H0,1,100,98.889
1576864564.781481,87214.000,14767,2,H0,1,100,98.900
1576864564.908839,87321.000,14787,1,H0,1,100,98.889
1576864565.042150,87433.000,14805,1,H0,1,100,98.897
1576864565.180221,87549.000,14839,1,H0,1,100,98.897
1576864565.318292,87665.000,14857,1,H0,1,100,98.889
1576864565.448031,87774.000,14875,1,H0,1,100,98.885
1576864565.581341,87886.000,14893,1,H0,1,100,98.900
1576864565.709890,87994.000,14912,1,H0,1,100,98.893
1576864565.842010,88105.000,14930,1,H0,1,100,98.893
1576864565.976511,88218.000,14947,1,H0,1,100,98.904
1576864566.116962,88336.000,14965,1,H0,1,100,98.885
1576864566.250272,88448.000,14999,1,H0,1,100,98.893
1576864566.374060,88552.000,15017,1,H0,1,100,98.893
1576864566.509751,88666.000,15035,1,H0,1,100,98.897
1576864566.645442,88780.000,15054,1,H0,1,100,98.897
1576864566.782322,88895.000,15072,1,H0,1,100,98.900
1576864566.910871,89003.000,15090,1,H0,1,100,98.889
1576864567.038230,89110.000,15108,1,H0,1,100,98.897
1576864567.169160,89220.000,15126,1,H0,1,100,98.893
1576864567.306041,89335.000,15143,1,H0,1,100,98.897
1576864567.444112,89451.000,15161,1,H0,1,100,98.889
1576864567.570280,89557.000,15196,1,H0,1,100,98.897
1576864567.701210,89667.000,15214,1,H0,1,100,98.897
1576864567.839281,89783.000,15232,1,H0,1,100,98.885
1576864567.977352,89899.000,15250,1,H0,1,100,98.889
1576864568.109472,90010.000,15268,1,H0,1,100,98.904
1576864568.236831,90117.000,15286,1,H0,1,100,98.893
1576864568.371331,90230.000,15304,1,H0,1,100,98.897
1576864568.510592,90347.000,15321,1,H0,1,100,98.893
1576864568.645093,90460.000,15339,1,H0,1,100,98.885
1576864568.772451,90567.000,15374,1,H0,1,100,98.893
1576864568.902191,90676.000,15392,1,H0,1,100,98.889
1576864569.041452,90793.000,15410,1,H0,1,100,98.893
1576864569.172382,90903.000,15428,1,H0,1,100,98.889
1576864569.311643,91020.000,15446,1,H0,1,100,98.885
1576864569.449714,91136.000,15464,1,H0,1,100,98.893
1576864569.580644,91246.000,15481,1,H0,1,100,98.885
1576864569.709193,91354.000,15500,1,H0,1,100,98.881
1576864569.843693,91467.000,15518,1,H0,1,100,98.881
1576864569.978194,91580.000,15552,1,H0,1,100,98.885
1576864570.119836,91699.000,15570,1,H0,1,100,98.881
1576864570.246004,91805.000,15588,1,H0,1,100,98.885
1576864570.370982,91910.000,15606,1,H0,1,100,98.881
1576864570.507863,92025.000,15624,1,H0,1,100,98.893
1576864570.647125,92142.000,15643,1,H0,1,100,98.885
1576864570.780435,92254.000,15664,1,H0,1,100,98.889
1576864570.907794,92361.000,15682,1,H0,1,100,98.874
1576864571.039913,92472.000,15702,1,H0,1,100,98.885
1576864571.176794,92587.000,15720,1,H0,1,100,98.885
1576864571.313675,92702.000,15738,1,H0,1,100,98.881
1576864571.446985,92814.000,15756,1,H0,1,100,98.874
1576864571.571963,92919.000,15773,1,H0,1,100,98.885
1576864571.706464,93032.000,15792,1,H0,1,100,98.885
1576864571.845725,93149.000,15826,1,H0,1,100,98.885
1576864571.982606,93264.000,15844,1,H0,1,100,98.881
1576864572.107584,93369.000,15862,1,H0,1,100,98.874
1576864572.234943,93476.000,15880,1,H0,1,100,98.881
1576864572.370634,93590.000,15898,1,H0,1,100,98.870
1576864572.509895,93707.000,15916,1,H0,1,100,98.874
1576864572.646776,93822.000,15935,1,H0,1,100,98.877
1576864572.770564,93926.000,15953,1,H0,1,100,98.877
1576864572.901493,94036.000,15970,1,H0,1,100,98.874
1576864573.030042,94144.000,15988,1,H0,1,100,98.881
1576864573.160972,94254.000,16006,1,H0,1,100,98.885
1576864573.303804,94374.000,16040,1,H0,1,100,98.881
1576864573.439495,94488.000,16058,1,H0,1,100,98.877
1576864573.572805,94600.000,16077,1,H0,1,100,98.881
1576864573.709686,94715.000,16095,1,H0,1,100,98.881
1576864573.837044,94822.000,16113,1,H0,1,100,98.881
1576864573.964403,94929.000,16131,1,H0,1,100,98.866
1576864574.103665,95046.000,16148,1,H0,1,100,98.881
1576864574.244117,95164.000,16166,1,H0,1,100,98.877
1576864574.371475,95271.000,16200,1,H0,1,100,98.885
1576864574.502405,95381.000,16218,1,H0,1,100,98.881
1576864574.635715,95493.000,16237,1,H0,1,100,98.885
1576864574.769025,95605.000,16255,1,H0,1,100,98.885
1576864574.910667,95724.000,16273,1,H0,1,100,98.877
1576864575.036835,95830.000,16291,1,H0,1,100,98.877
1576864575.166575,95939.000,16309,1,H0,1,100,98.881
1576864575.302265,96053.000,16326,1,H0,1,100,98.881
1576864575.441527,96170.000,16344,1,H0,1,100,98.866
1576864575.577217,96284.000,16379,1,H0,1,100,98.877
1576864575.702196,96389.000,16397,1,H0,1,100,98.877
1576864575.836696,96502.000,16415,1,H0,1,100,98.870
1576864575.974767,96618.000,16433,1,H0,1,100,98.877
1576864576.112838,96734.000,16451,1,H0,1,100,98.874
1576864576.239007,96840.000,16469,1,H0,1,100,98.877
1576864576.362795,96944.000,16487,1,H0,1,100,98.881
1576864576.503246,97062.000,16504,1,H0,1,100,98.874
1576864576.641318,97178.000,16523,1,H0,1,100,98.874
1576864576.778198,97293.000,16560,2,H0,1,100,98.885
1576864576.915079,97408.000,16560,2,H0,1,100,98.874
1576864577.050770,97522.000,16580,1,H0,1,100,98.870
1576864577.175748,97627.000,16597,1,H0,1,100,98.874
1576864577.311439,97741.000,16615,1,H0,1,100,98.870
1576864577.448320,97856.000,16649,1,H0,1,100,98.874
1576864577.584010,97970.000,16668,1,H0,1,100,98.870
1576864577.714940,98080.000,16686,1,H0,1,100,98.874
1576864577.841108,98186.000,16704,1,H0,1,100,98.866
1576864577.972038,98296.000,16722,1,H0,1,100,98.870
1576864578.110109,98412.000,16740,1,H0,1,100,98.877
1576864578.250561,98530.000,16758,1,H0,1,100,98.870
1576864578.373158,98633.000,16775,1,H0,1,100,98.870
1576864578.504088,98743.000,16793,1,H0,1,100,98.874
1576864578.642159,98859.000,16812,1,H0,1,100,98.855
1576864578.779040,98974.000,16846,1,H0,1,100,98.862
1576864578.912350,99086.000,16864,1,H0,1,100,98.858
1576864579.039709,99193.000,16882,1,H0,1,100,98.866
1576864579.169448,99302.000,16900,1,H0,1,100,98.862
1576864579.305139,99416.000,16918,1,H0,1,100,98.866
1576864579.444400,99533.000,16936,1,H0,1,100,98.858
1576864579.572949,99641.000,16954,1,H0,1,100,98.858
1576864579.700308,99748.000,16972,1,H0,1,100,98.862
1576864579.834808,99861.000,16990,1,H0,1,100,98.870
1576864579.971689,99976.000,17024,1,H0,1,100,98.870
1576864580.109760,100092.000,17042,1,H0,1,100,98.862
1576864580.234739,100197.000,17060,1,H0,1,100,98.866
1576864580.363287,100305.000,17078,1,H0,1,100,98.866
1576864580.500169,100420.000,17096,1,H0,1,100,98.862
1576864580.637049,100535.000,17115,1,H0,1,100,98.866
1576864580.763218,100641.000,17133,1,H0,1,100,98.851
1576864580.902479,100758.000,17150,1,H0,1,100,98.870
1576864581.040550,100874.000,17168,1,H0,1,100,98.855
1576864581.177431,100989.000,17202,1,H0,1,100,98.858
1576864581.304790,101096.000,17220,1,H0,1,100,98.858
1576864581.436910,101207.000,17238,1,H0,1,100,98.858
1576864581.571410,101320.000,17257,1,H0,1,100,98.858
1576864581.711862,101438.000,17275,1,H0,1,100,98.855
1576864581.843982,101549.000,17293,1,H0,1,100,98.866
1576864581.967770,101653.000,17311,1,H0,1,100,98.874
1576864582.102270,101766.000,17328,1,H0,1,100,98.858
1576864582.237961,101880.000,17346,1,H0,1,100,98.858
1576864582.374842,101995.000,17380,1,H0,1,100,98.866
1576864582.504581,102104.000,17398,1,H0,1,100,98.855
1576864582.631940,102211.000,17417,1,H0,1,100,98.851
1576864582.767630,102325.000,17435,1,H0,1,100,98.851
1576864582.905106,102440.500,17455,2,H0,1,100,98.858
1576864583.042582,102556.000,17455,2,H0,1,100,98.855
1576864583.167561,102661.000,17492,1,H0,1,100,98.855
1576864583.297300,102770.000,17510,1,H0,1,100,98.855
1576864583.435371,102886.000,17528,1,H0,1,100,98.866
1576864583.572252,103001.000,17546,1,H0,1,100,98.851
1576864583.703182,103111.000,17565,1,H0,1,100,98.862
1576864583.829350,103217.000,17583,1,H0,1,100,98.858
1576864583.962660,103329.000,17601,1,H0,1,100,98.862
1576864584.101921,103446.000,17618,1,H0,1,100,98.847
1576864584.242373,103564.000,17636,1,H0,1,100,98.855
1576864584.380444,103680.000,17670,1,H0,1,100,98.851
1576864584.517325,103795.000,17688,1,H0,1,100,98.855
1576864584.644684,103902.000,17707,1,H0,1,100,98.851
1576864584.772043,104009.000,17725,1,H0,1,100,98.851
1576864584.910114,104125.000,17743,1,H0,1,100,98.851
1576864585.048185,104241.000,17761,1,H0,1,100,98.847
1576864585.179115,104351.000,17778,1,H0,1,100,98.851
1576864585.317186,104467.000,17796,1,H0,1,100,98.847
1576864585.444544,104574.000,17814,1,H0,1,100,98.858
1576864585.570713,104680.000,17849,1,H0,1,100,98.858
1576864585.708784,104796.000,17867,1,H0,1,100,98.855
1576864585.846855,104912.000,17885,1,H0,1,100,98.858
1576864585.978975,105023.000,17903,1,H0,1,100,98.855
1576864586.106334,105130.000,17921,1,H0,1,100,98.851
1576864586.237263,105240.000,17939,1,H0,1,100,98.847
1576864586.371764,105353.000,17957,1,H0,1,100,98.851
1576864586.511025,105470.000,17974,1,H0,1,100,98.847
1576864586.641955,105580.000,17992,1,H0,1,100,98.843
1576864586.768123,105686.000,18011,1,H0,1,100,98.843
1576864586.901433,105798.000,18045,1,H0,1,100,98.851
1576864587.039504,105914.000,18063,1,H0,1,100,98.851
1576864587.178766,106031.000,18081,1,H0,1,100,98.847
1576864587.303744,106136.000,18099,1,H0,1,100,98.855
1576864587.432293,106244.000,18117,1,H0,1,100,98.851
1576864587.567984,106358.000,18135,1,H0,1,100,98.847
1576864587.706055,106474.000,18153,1,H0,1,100,98.843
1576864587.836984,106584.000,18171,1,H0,1,100,98.847
1576864587.961963,106689.000,18189,1,H0,1,100,98.847
1576864588.096463,106802.000,18223,1,H0,1,100,98.843
1576864588.235724,106919.000,18241,1,H0,1,100,98.851
1576864588.370225,107032.000,18259,1,H0,1,100,98.851
1576864588.509486,107149.000,18277,1,H0,1,100,98.851
1576864588.647557,107265.000,18296,1,H0,1,100,98.839
1576864588.772536,107370.000,18314,1,H0,1,100,98.839
1576864588.903465,107480.000,18331,1,H0,1,100,98.839
1576864589.039156,107594.000,18352,1,H0,1,100,98.839
1576864589.173656,107707.000,18372,1,H0,1,100,98.839
1576864589.310537,107822.000,18390,1,H0,1,100,98.836
1576864589.436705,107928.000,18408,1,H0,1,100,98.847
1576864589.565254,108036.000,18426,1,H0,1,100,98.843
1576864589.703326,108152.000,18444,1,H0,1,100,98.847
1576864589.842587,108269.000,18462,1,H0,1,100,98.836
1576864589.971136,108377.000,18496,1,H0,1,100,98.839
1576864590.099685,108485.000,18514,1,H0,1,100,98.839
1576864590.236566,108600.000,18532,1,H0,1,100,98.836
1576864590.373447,108715.000,18550,1,H0,1,100,98.843
1576864590.511518,108831.000,18568,1,H0,1,100,98.847
1576864590.638877,108938.000,18587,1,H0,1,100,98.843
1576864590.767426,109046.000,18605,1,H0,1,100,98.839
1576864590.906687,109163.000,18622,1,H0,1,100,98.847
1576864591.042378,109277.000,18640,1,H0,1,100,98.843
1576864591.175688,109389.000,18674,1,H0,1,100,98.836
1576864591.301857,109495.000,18692,1,H0,1,100,98.836
1576864591.433976,109606.000,18710,1,H0,1,100,98.832
1576864591.572047,109722.000,18729,1,H0,1,100,98.836
1576864591.710119,109838.000,18747,1,H0,1,100,98.836
1576864591.842238,109949.000,18765,1,H0,1,100,98.832
1576864591.979119,110064.000,18782,1,H0,1,100,98.828
1576864592.105288,110170.000,18800,1,H0,1,100,98.824
1576864592.235027,110279.000,18818,1,H0,1,100,98.832
1576864592.368337,110391.000,18836,1,H0,1,100,98.839
1576864592.509979,110510.000,18870,1,H0,1,100,98.836
1576864592.646860,110625.000,18889,1,H0,1,100,98.836
1576864592.784931,110741.000,18907,1,H0,1,100,98.839
1576864592.914670,110850.000,18925,1,H0,1,100,98.832
1576864593.044410,110959.000,18943,1,H0,1,100,98.824
1576864593.175339,111069.000,18960,1,H0,1,100,98.836
1576864593.314601,111186.000,18978,1,H0,1,100,98.824
1576864593.451482,111301.000,19012,1,H0,1,100,98.836
1576864593.575269,111405.000,19031,1,H0,1,100,98.836
1576864593.707389,111516.000,19049,1,H0,1,100,98.836
1576864593.843080,111630.000,19067,1,H0,1,100,98.832
1576864593.981151,111746.000,19085,1,H0,1,100,98.832
1576864594.114461,111858.000,19103,1,H0,1,100,98.828
1576864594.241820,111965.000,19121,1,H0,1,100,98.832
1576864594.375130,112077.000,19139,1,H0,1,100,98.828
1576864594.510821,112191.000,19156,1,H0,1,100,98.824
1576864594.651272,112309.000,19174,1,H0,1,100,98.816
1576864594.779821,112417.000,19209,1,H0,1,100,98.816
1576864594.909561,112526.000,19227,1,H0,1,100,98.824
1576864595.045251,112640.000,19248,2,H0,1,100,98.824
1576864595.180942,112754.000,19248,2,H0,1,100,98.828
1576864595.317823,112869.000,19268,1,H0,1,100,98.820
1576864595.441611,112973.000,19286,1,H0,1,100,98.824
1576864595.571350,113082.000,19321,1,H0,1,100,98.824
1576864595.711802,113200.000,19339,1,H0,1,100,98.824
1576864595.851063,113317.000,19357,1,H0,1,100,98.820
1576864595.987944,113432.000,19375,1,H0,1,100,98.824
1576864596.129586,113551.000,19392,1,H0,1,100,98.816
1576864596.258135,113659.000,19410,1,H0,1,100,98.816
1576864596.383113,113764.000,19428,1,H0,1,100,98.824
1576864596.521184,113880.000,19446,1,H0,1,100,98.820
1576864596.659256,113996.000,19481,1,H0,1,100,98.820
1576864596.794946,114110.000,19499,1,H0,1,100,98.820
1576864596.922305,114217.000,19517,1,H0,1,100,98.820
1576864597.052044,114326.000,19535,1,H0,1,100,98.820
1576864597.185354,114438.000,19553,1,H0,1,100,98.820
1576864597.323426,114554.000,19571,1,H0,1,100,98.828
1576864597.457926,114667.000,19588,1,H0,1,100,98.816
1576864597.580523,114770.000,19606,1,H0,1,100,98.813
1576864597.715024,114883.000,19625,1,H0,1,100,98.816
1576864597.854285,115000.000,19659,1,H0,1,100,98.820
1576864597.991166,115115.000,19677,1,H0,1,100,98.813
1576864598.118525,115222.000,19695,1,H0,1,100,98.813
1576864598.248264,115331.000,19713,1,H0,1,100,98.816
1576864598.381574,115443.000,19731,1,H0,1,100,98.816
1576864598.520836,115560.000,19749,1,H0,1,100,98.813
1576864598.654146,115672.000,19768,1,H0,1,100,98.816
1576864598.779124,115777.000,19785,1,H0,1,100,98.816
1576864598.913625,115890.000,19803,1,H0,1,100,98.813
1576864599.048125,116003.000,19821,1,H0,1,100,98.816
1576864599.186196,116119.000,19855,1,H0,1,100,98.809
1576864599.319506,116231.000,19873,1,H0,1,100,98.813
1576864599.448055,116339.000,19891,1,H0,1,100,98.816
1576864599.574224,116445.000,19910,1,H0,1,100,98.813
1576864599.703963,116554.000,19928,1,H0,1,100,98.816
1576864599.840844,116669.000,19946,1,H0,1,100,98.813
1576864599.970583,116778.000,19964,1,H0,1,100,98.805
1576864600.109844,116895.000,19981,1,H0,1,100,98.824
1576864600.249106,117012.000,19999,1,H0,1,100,98.801
1576864600.378845,117121.000,20033,1,H0,1,100,98.813
1576864600.507394,117229.000,20051,1,H0,1,100,98.809
1576864600.641895,117342.000,20070,1,H0,1,100,98.805
1576864600.775205,117454.000,20088,1,H0,1,100,98.816
1576864600.916847,117573.000,20106,1,H0,1,100,98.809
1576864601.043015,117679.000,20124,1,H0,1,100,98.809
1576864601.167993,117784.000,20145,1,H0,1,100,98.809
1576864601.304874,117899.000,20165,1,H0,1,100,98.805
1576864601.441755,118014.000,20183,1,H0,1,100,98.809
1576864601.578636,118129.000,20201,1,H0,1,100,98.805
1576864601.704804,118235.000,20220,1,H0,1,100,98.820
1576864601.836924,118346.000,20238,1,H0,1,100,98.805
1576864601.976186,118463.000,20255,1,H0,1,100,98.801
1576864602.113066,118578.000,20273,1,H0,1,100,98.805
1576864602.243996,118688.000,20290,1,H0,1,100,98.816
1576864602.368974,118793.000,20325,1,H0,1,100,98.809
1576864602.508236,118910.000,20343,1,H0,1,100,98.805
1576864602.641546,119022.000,20362,1,H0,1,100,98.813
1576864602.779617,119138.000,20380,1,H0,1,100,98.813
1576864602.904595,119243.000,20398,1,H0,1,100,98.805
1576864603.033144,119351.000,20416,1,H0,1,100,98.813
1576864603.168835,119465.000,20434,1,H0,1,100,98.809
1576864603.306906,119581.000,20451,1,H0,1,100,98.813
1576864603.442597,119695.000,20469,1,H0,1,100,98.801
1576864603.581858,119812.000,20504,1,H0,1,100,98.805
1576864603.713978,119923.000,20522,1,H0,1,100,98.813
1576864603.842527,120031.000,20540,1,H0,1,100,98.813
1576864603.973456,120141.000,20558,1,H0,1,100,98.805
1576864604.112718,120258.000,20576,1,H0,1,100,98.805
1576864604.251979,120375.000,20594,1,H0,1,100,98.809
1576864604.376957,120480.000,20611,1,H0,1,100,98.801
1576864604.507887,120590.000,20629,1,H0,1,100,98.801
1576864604.642387,120703.000,20648,1,H0,1,100,98.813
1576864604.776888,120816.000,20682,1,H0,1,100,98.813
1576864604.914959,120932.000,20700,1,H0,1,100,98.805
1576864605.042318,121039.000,20718,1,H0,1,100,98.809
1576864605.167296,121144.000,20736,1,H0,1,100,98.805
1576864605.305367,121260.000,20754,1,H0,1,100,98.801
1576864605.447009,121379.000,20772,1,H0,1,100,98.797
1576864605.576748,121488.000,20790,1,H0,1,100,98.801
1576864605.702917,121594.000,20808,1,H0,1,100,98.801
1576864605.839798,121709.000,20826,1,H0,1,100,98.813
1576864605.976679,121824.000,20860,1,H0,1,100,98.801
1576864606.117130,121942.000,20878,1,H0,1,100,98.809
1576864606.239728,122045.000,20896,1,H0,1,100,98.801
1576864606.367087,122152.000,20914,1,H0,1,100,98.805
1576864606.507538,122270.000,20932,1,H0,1,100,98.801
1576864606.642039,122383.000,20951,1,H0,1,100,98.809
1576864606.777729,122497.000,20969,1,H0,1,100,98.797
1576864606.902708,122602.000,20986,1,H0,1,100,98.805
1576864607.038398,122716.000,21004,1,H0,1,100,98.805
1576864607.163376,122821.000,21022,1,H0,1,100,98.801
1576864607.301448,122937.000,21043,1,H0,1,100,98.801
1576864607.440709,123054.000,21063,1,H0,1,100,98.797
1576864607.576400,123168.000,21080,1,H0,1,100,98.801
1576864607.716851,123286.000,21099,1,H0,1,100,98.805
1576864607.851352,123399.000,21133,1,H0,1,100,98.801
1576864607.976330,123504.000,21151,1,H0,1,100,98.797
1576864608.112020,123618.000,21169,1,H0,1,100,98.801
1576864608.248901,123733.000,21187,1,H0,1,100,98.794
1576864608.385782,123848.000,21205,1,H0,1,100,98.797
1576864608.515522,123957.000,21223,1,H0,1,100,98.794
1576864608.642880,124064.000,21242,1,H0,1,100,98.794
1576864608.773810,124174.000,21259,1,H0,1,100,98.794
1576864608.911881,124290.000,21277,1,H0,1,100,98.794
1576864609.049952,124406.000,21311,1,H0,1,100,98.794
1576864609.177311,124513.000,21329,1,H0,1,100,98.794
1576864609.308240,124623.000,21347,1,H0,1,100,98.790
1576864609.446312,124739.000,21365,1,H0,1,100,98.801
1576864609.584383,124855.000,21383,1,H0,1,100,98.801
1576864609.717693,124967.000,21402,1,H0,1,100,98.786
1576864609.846242,125075.000,21420,1,H0,1,100,98.801
1576864609.977171,125185.000,21437,1,H0,1,100,98.797
1576864610.116433,125302.000,21455,1,H0,1,100,98.794
1576864610.252124,125416.000,21489,1,H0,1,100,98.782
1576864610.379482,125523.000,21507,1,H0,1,100,98.782
1576864610.508031,125631.000,21525,1,H0,1,100,98.790
1576864610.642532,125744.000,21544,1,H0,1,100,98.790
1576864610.779413,125859.000,21562,1,H0,1,100,98.786
1576864610.917484,125975.000,21580,1,H0,1,100,98.786
1576864611.044842,126082.000,21598,1,H0,1,100,98.801
1576864611.175772,126192.000,21616,1,H0,1,100,98.790
1576864611.303131,126299.000,21633,1,H0,1,100,98.797
1576864611.437631,126412.000,21651,1,H0,1,100,98.782
1576864611.572131,126525.000,21686,1,H0,1,100,98.786
1576864611.713773,126644.000,21704,1,H0,1,100,98.790
1576864611.843513,126753.000,21722,1,H0,1,100,98.782
1576864611.968491,126858.000,21740,1,H0,1,100,98.782
1576864612.106562,126974.000,21758,1,H0,1,100,98.782
1576864612.244633,127090.000,21776,1,H0,1,100,98.778
1576864612.380324,127204.000,21793,1,H0,1,100,98.774
1576864612.507683,127311.000,21811,1,H0,1,100,98.774
1576864612.639802,127422.000,21830,1,H0,1,100,98.774
1576864612.771922,127533.000,21864,1,H0,1,100,98.794
1576864612.908803,127648.000,21882,1,H0,1,100,98.778
1576864613.043303,127761.000,21900,1,H0,1,100,98.774
1576864613.168282,127866.000,21918,1,H0,1,100,98.771
1576864613.304568,127980.500,21939,2,H0,1,100,98.778
1576864613.440853,128095.000,21939,2,H0,1,100,98.771
1576864613.577734,128210.000,21976,1,H0,1,100,98.778
1576864613.708664,128320.000,21994,1,H0,1,100,98.782
1576864613.833642,128425.000,22012,1,H0,1,100,98.771
1576864613.969332,128539.000,22030,1,H0,1,100,98.778
1576864614.108594,128656.000,22048,1,H0,1,100,98.774
1576864614.241904,128768.000,22066,1,H0,1,100,98.771
1576864614.366882,128873.000,22084,1,H0,1,100,98.774
1576864614.499002,128984.000,22101,1,H0,1,100,98.782
1576864614.637073,129100.000,22120,1,H0,1,100,98.774
1576864614.770383,129212.000,22154,1,H0,1,100,98.790
1576864614.909645,129329.000,22172,1,H0,1,100,98.774
1576864615.050097,129447.000,22190,1,H0,1,100,98.782
1576864615.175075,129552.000,22208,1,H0,1,100,98.767
1576864615.309575,129665.000,22226,1,H0,1,100,98.778
1576864615.436934,129772.000,22244,1,H0,1,100,98.790
1576864615.564292,129879.000,22262,1,H0,1,100,98.774
1576864615.703554,129996.000,22280,1,H0,1,100,98.774
1576864615.841625,130112.000,22298,1,H0,1,100,98.782
1576864615.970174,130220.000,22332,1,H0,1,100,98.774
1576864616.098723,130328.000,22350,1,H0,1,100,98.782
1576864616.232033,130440.000,22368,1,H0,1,100,98.774
1576864616.365343,130552.000,22386,1,H0,1,100,98.778
1576864616.505795,130670.000,22404,1,H0,1,100,98.778
1576864616.633154,130777.000,22423,1,H0,1,100,98.774
1576864616.762893,130886.000,22441,1,H0,1,100,98.774
1576864616.897393,130999.000,22458,1,H0,1,100,98.771
1576864617.036655,131116.000,22476,1,H0,1,100,98.763
1576864617.172345,131230.000,22510,1,H0,1,100,98.771
1576864617.298514,131336.000,22528,1,H0,1,100,98.759
1576864617.430634,131447.000,22546,1,H0,1,100,98.767
1576864617.569895,131564.000,22565,1,H0,1,100,98.763
1576864617.707966,131680.000,22583,1,H0,1,100,98.767
1576864617.835325,131787.000,22601,1,H0,1,100,98.767
1576864617.959113,131891.000,22619,1,H0,1,100,98.767
1576864618.098374,132008.000,22636,1,H0,1,100,98.752
1576864618.231684,132120.000,22654,1,H0,1,100,98.767
1576864618.369756,132236.000,22672,1,H0,1,100,98.767
1576864618.497114,132343.000,22706,1,H0,1,100,98.763
1576864618.630424,132455.000,22725,1,H0,1,100,98.767
1576864618.755403,132560.000,22743,1,H0,1,100,98.767
1576864618.889903,132673.000,22761,1,H0,1,100,98.771
1576864619.026784,132788.000,22779,1,H0,1,100,98.763
1576864619.162475,132902.000,22797,1,H0,1,100,98.763
1576864619.294595,133013.000,22815,1,H0,1,100,98.763
1576864619.421953,133120.000,22836,1,H0,1,100,98.771
1576864619.552883,133230.000,22857,1,H0,1,100,98.767
1576864619.692144,133347.000,22875,1,H0,1,100,98.763
1576864619.832596,133465.000,22893,1,H0,1,100,98.778
1576864619.956384,133569.000,22911,1,H0,1,100,98.759
1576864620.087313,133679.000,22929,1,H0,1,100,98.767
1576864620.221814,133792.000,22946,1,H0,1,100,98.767
1576864620.356314,133905.000,22964,1,H0,1,100,98.763
1576864620.494385,134021.000,22998,1,H0,1,100,98.771
1576864620.621744,134128.000,23017,1,H0,1,100,98.767
1576864620.752674,134238.000,23035,1,H0,1,100,98.763
1576864620.888364,134352.000,23053,1,H0,1,100,98.767
1576864621.028816,134470.000,23071,1,H0,1,100,98.767
1576864621.159745,134580.000,23089,1,H0,1,100,98.759
1576864621.287104,134687.000,23107,1,H0,1,100,98.763
1576864621.421605,134800.000,23124,1,H0,1,100,98.767
1576864621.559676,134916.000,23142,1,H0,1,100,98.767
1576864621.697747,135032.000,23177,1,H0,1,100,98.752
1576864621.821535,135136.000,23195,1,H0,1,100,98.759
1576864621.947703,135242.000,23213,1,H0,1,100,98.759
1576864622.088155,135360.000,23231,1,H0,1,100,98.767
1576864622.227417,135477.000,23249,1,H0,1,100,98.759
1576864622.364297,135592.000,23267,1,H0,1,100,98.767
1576864622.505939,135711.000,23284,1,H0,1,100,98.755
1576864622.636869,135821.000,23302,1,H0,1,100,98.752
1576864622.761847,135926.000,23321,1,H0,1,100,98.759
1576864622.901109,136043.000,23355,1,H0,1,100,98.744
1576864623.032038,136153.000,23373,1,H0,1,100,98.748
1576864623.165348,136265.000,23391,1,H0,1,100,98.752
1576864623.305800,136383.000,23409,1,H0,1,100,98.759
1576864623.440300,136496.000,23427,1,H0,1,100,98.744
1576864623.564088,136600.000,23445,1,H0,1,100,98.759
1576864623.698588,136713.000,23463,1,H0,1,100,98.748
1576864623.834279,136827.000,23481,1,H0,1,100,98.755
1576864623.968779,136940.000,23499,1,H0,1,100,98.748
1576864624.099709,137050.000,23533,1,H0,1,100,98.752
1576864624.225878,137156.000,23551,1,H0,1,100,98.744
1576864624.360378,137269.000,23569,1,H0,1,100,98.755
1576864624.496068,137383.000,23587,1,H0,1,100,98.744
1576864624.635330,137500.000,23606,1,H0,1,100,98.740
1576864624.761498,137606.000,23624,1,H0,1,100,98.744
1576864624.891238,137715.000,23642,1,H0,1,100,98.748
1576864625.028119,137830.000,23659,1,H0,1,100,98.744
1576864625.166190,137946.000,23677,1,H0,1,100,98.740
1576864625.298310,138057.000,23711,1,H0,1,100,98.752
1576864625.427454,138165.500,23732,2,H0,1,100,98.740
1576864625.556598,138274.000,23732,2,H0,1,100,98.748
1576864625.695859,138391.000,23752,1,H0,1,100,98.744
1576864625.831550,138505.000,23770,1,H0,1,100,98.744
1576864625.958909,138612.000,23788,1,H0,1,100,98.740
1576864626.089838,138722.000,23822,1,H0,1,100,98.744
1576864626.229100,138839.000,23840,1,H0,1,100,98.736
1576864626.356458,138946.000,23858,1,H0,1,100,98.740
1576864626.494529,139062.000,23876,1,H0,1,100,98.755
1576864626.632601,139178.000,23895,1,H0,1,100,98.740
1576864626.764720,139289.000,23913,1,H0,1,100,98.748
1576864626.893270,139397.000,23930,1,H0,1,100,98.744
1576864627.026580,139509.000,23948,1,H0,1,100,98.744
1576864627.161080,139622.000,23966,1,H0,1,100,98.748
1576864627.302722,139741.000,24000,1,H0,1,100,98.752
1576864627.431271,139849.000,24018,1,H0,1,100,98.748
1576864627.556249,139954.000,24037,1,H0,1,100,98.744
1576864627.694320,140070.000,24055,1,H0,1,100,98.729
1576864627.832392,140186.000,24073,1,H0,1,100,98.733
1576864627.965702,140298.000,24091,1,H0,1,100,98.748
1576864628.093060,140405.000,24108,1,H0,1,100,98.744
1576864628.223990,140515.000,24126,1,H0,1,100,98.748
1576864628.360871,140630.000,24144,1,H0,1,100,98.740
1576864628.496561,140744.000,24178,1,H0,1,100,98.729
1576864628.632252,140858.000,24197,1,H0,1,100,98.740
1576864628.757230,140963.000,24215,1,H0,1,100,98.740
1576864628.894111,141078.000,24233,1,H0,1,100,98.748
1576864629.028611,141191.000,24251,1,H0,1,100,98.736
1576864629.166683,141307.000,24269,1,H0,1,100,98.733
1576864629.292851,141413.000,24287,1,H0,1,100,98.748
1576864629.420210,141520.000,24304,1,H0,1,100,98.736
1576864629.552330,141631.000,24322,1,H0,1,100,98.733
1576864629.691591,141748.000,24357,1,H0,1,100,98.736
1576864629.830853,141865.000,24375,1,H0,1,100,98.733
1576864629.968924,141981.000,24393,1,H0,1,100,98.733
1576864630.111756,142101.000,24411,1,H0,1,100,98.736
1576864630.247447,142215.000,24429,1,H0,1,100,98.736
1576864630.374805,142322.000,24447,1,H0,1,100,98.733
1576864630.504544,142431.000,24464,1,H0,1,100,98.740
1576864630.640235,142545.000,24483,1,H0,1,100,98.740
1576864630.774735,142658.000,24517,1,H0,1,100,98.748
1576864630.912807,142774.000,24535,1,H0,1,100,98.736
1576864631.040165,142881.000,24553,1,H0,1,100,98.740
1576864631.168715,142989.000,24571,1,H0,1,100,98.740
1576864631.305595,143104.000,24589,1,H0,1,100,98.733
1576864631.443666,143220.000,24607,1,H0,1,100,98.733
1576864631.573406,143329.000,24628,1,H0,1,100,98.736
1576864631.703145,143438.000,24649,1,H0,1,100,98.736
1576864631.836455,143550.000,24667,1,H0,1,100,98.740
1576864631.975717,143667.000,24685,1,H0,1,100,98.740
1576864632.113788,143783.000,24703,1,H0,1,100,98.733
1576864632.239956,143889.000,24721,1,H0,1,100,98.729
1576864632.368505,143997.000,24739,1,H0,1,100,98.733
1576864632.503006,144110.000,24756,1,H0,1,100,98.729
1576864632.643457,144228.000,24791,1,H0,1,100,98.736
1576864632.779148,144342.000,24809,1,H0,1,100,98.736
1576864632.904126,144447.000,24827,1,H0,1,100,98.729
1576864633.035056,144557.000,24845,1,H0,1,100,98.740
1576864633.173127,144673.000,24863,1,H0,1,100,98.729
1576864633.311198,144789.000,24881,1,H0,1,100,98.733
1576864633.438557,144896.000,24899,1,H0,1,100,98.725
1576864633.563535,145001.000,24917,1,H0,1,100,98.733
1576864633.699226,145115.000,24935,1,H0,1,100,98.733
1576864633.828965,145224.000,24953,1,H0,1,100,98.729
1576864633.965846,145339.000,24971,1,H0,1,100,98.729
1576864634.105107,145456.000,25005,1,H0,1,100,98.725
1576864634.240798,145570.000,25023,1,H0,1,100,98.729
1576864634.365776,145675.000,25041,1,H0,1,100,98.729
1576864634.499086,145787.000,25059,1,H0,1,100,98.736
1576864634.635967,145902.000,25078,1,H0,1,100,98.733
1576864634.770467,146015.000,25095,1,H0,1,100,98.733
1576864634.903778,146127.000,25113,1,H0,1,100,98.729
1576864635.031136,146234.000,25131,1,H0,1,100,98.725
1576864635.159685,146342.000,25149,1,H0,1,100,98.729
1576864635.297756,146458.000,25183,1,H0,1,100,98.725
1576864635.439398,146577.000,25201,1,H0,1,100,98.729
1576864635.561996,146680.000,25220,1,H0,1,100,98.721
1576864635.691735,146789.000,25238,1,H0,1,100,98.725
1576864635.829807,146905.000,25256,1,H0,1,100,98.721
1576864635.966687,147020.000,25274,1,H0,1,100,98.725
1576864636.102378,147134.000,25291,1,H0,1,100,98.721
1576864636.229737,147241.000,25309,1,H0,1,100,98.725
1576864636.359476,147350.000,25327,1,H0,1,100,98.725
1576864636.498738,147467.000,25361,1,H0,1,100,98.733
1576864636.634428,147581.000,25380,1,H0,1,100,98.713
1576864636.764167,147690.000,25398,1,H0,1,100,98.733
1576864636.890336,147796.000,25416,1,H0,1,100,98.721
1576864637.022456,147907.000,25434,1,H0,1,100,98.721
1576864637.159337,148022.000,25452,1,H0,1,100,98.725
1576864637.298598,148139.000,25469,1,H0,1,100,98.721
1576864637.427147,148247.000,25487,1,H0,1,100,98.725
1576864637.559267,148358.000,25505,1,H0,1,100,98.725
1576864637.694957,148472.000,25527,1,H0,1,100,98.717
1576864637.822316,148579.000,25547,1,H0,1,100,98.725
1576864637.947294,148684.000,25565,1,H0,1,100,98.717
1576864638.085366,148800.000,25583,1,H0,1,100,98.725
1576864638.223437,148916.000,25600,1,H0,1,100,98.710
1576864638.360318,149031.000,25618,1,H0,1,100,98.725
1576864638.487676,149138.000,25652,1,H0,1,100,98.721
1576864638.618606,149248.000,25671,1,H0,1,100,98.725
1576864638.750726,149359.000,25689,1,H0,1,100,98.725
1576864638.887607,149474.000,25707,1,H0,1,100,98.725
1576864639.022107,149587.000,25725,1,H0,1,100,98.725
1576864639.145895,149691.000,25743,1,H0,1,100,98.729
1576864639.279205,149803.000,25761,1,H0,1,100,98.729
1576864639.414896,149917.000,25778,1,H0,1,100,98.721
1576864639.552967,150033.000,25796,1,H0,1,100,98.713
1576864639.681516,150141.000,25815,1,H0,1,100,98.721
1576864639.811255,150250.000,25849,1,H0,1,100,98.713
1576864639.944565,150362.000,25867,1,H0,1,100,98.721
1576864640.080256,150476.000,25885,1,H0,1,100,98.717
1576864640.221898,150595.000,25903,1,H0,1,100,98.721
1576864640.346876,150700.000,25921,1,H0,1,100,98.717
1576864640.478996,150811.000,25939,1,H0,1,100,98.721
1576864640.613496,150924.000,25957,1,H0,1,100,98.729
1576864640.751567,151040.000,25975,1,H0,1,100,98.717
1576864640.883687,151151.000,25993,1,H0,1,100,98.721
1576864641.008665,151256.000,26027,1,H0,1,100,98.721
1576864641.141975,151368.000,26045,1,H0,1,100,98.721
1576864641.281237,151485.000,26063,1,H0,1,100,98.729
1576864641.415737,151598.000,26081,1,H0,1,100,98.725
1576864641.552618,151713.000,26099,1,H0,1,100,98.725
1576864641.691880,151830.000,26118,1,H0,1,100,98.725
1576864641.819238,151937.000,26135,1,H0,1,100,98.710
1576864641.945407,152043.000,26153,1,H0,1,100,98.710
1576864642.083478,152159.000,26171,1,H0,1,100,98.725
1576864642.222739,152276.000,26205,1,H0,1,100,98.717
1576864642.359620,152391.000,26223,1,H0,1,100,98.721
1576864642.501262,152510.000,26241,1,H0,1,100,98.710
1576864642.629811,152618.000,26260,1,H0,1,100,98.710
1576864642.754790,152723.000,26278,1,H0,1,100,98.717
1576864642.891670,152838.000,26296,1,H0,1,100,98.710
1576864643.029742,152954.000,26313,1,H0,1,100,98.717
1576864643.164242,153067.000,26331,1,H0,1,100,98.717
1576864643.291601,153174.000,26365,1,H0,1,100,98.710
1576864643.421340,153283.000,26383,1,H0,1,100,98.717
1576864643.560601,153400.000,26402,1,H0,1,100,98.713
1576864643.694507,153512.500,26423,2,H0,1,100,98.710
1576864643.828412,153625.000,26423,2,H0,1,100,98.725
1576864643.954580,153731.000,26443,1,H0,1,100,98.706
1576864644.087890,153843.000,26477,1,H0,1,100,98.713
1576864644.225961,153959.000,26495,1,H0,1,100,98.706
1576864644.365223,154076.000,26513,1,H0,1,100,98.710
1576864644.490201,154181.000,26531,1,H0,1,100,98.713
1576864644.617560,154288.000,26550,1,H0,1,100,98.710
1576864644.753251,154402.000,26568,1,H0,1,100,98.706
1576864644.892512,154519.000,26585,1,H0,1,100,98.710
1576864645.024632,154630.000,26603,1,H0,1,100,98.706
1576864645.149610,154735.000,26621,1,H0,1,100,98.710
1576864645.280540,154845.000,26639,1,H0,1,100,98.710
1576864645.407898,154952.000,26673,1,H0,1,100,98.710
1576864645.538828,155062.000,26692,1,H0,1,100,98.713
1576864645.678089,155179.000,26710,1,H0,1,100,98.710
1576864645.818541,155297.000,26728,1,H0,1,100,98.702
1576864645.943519,155402.000,26746,1,H0,1,100,98.710
1576864646.073258,155511.000,26764,1,H0,1,100,98.702
1576864646.208949,155625.000,26782,1,H0,1,100,98.713
1576864646.343449,155738.000,26799,1,H0,1,100,98.706
1576864646.482711,155855.000,26817,1,H0,1,100,98.710
1576864646.608879,155961.000,26852,1,H0,1,100,98.710
1576864646.737428,156069.000,26870,1,H0,1,100,98.702
1576864646.874309,156184.000,26888,1,H0,1,100,98.706
1576864647.013571,156301.000,26906,1,H0,1,100,98.698
1576864647.144500,156411.000,26924,1,H0,1,100,98.706
1576864647.269479,156516.000,26942,1,H0,1,100,98.710
1576864647.405169,156630.000,26960,1,H0,1,100,98.702
1576864647.543240,156746.000,26977,1,H0,1,100,98.702
1576864647.681311,156862.000,26996,1,H0,1,100,98.694
1576864647.811051,156971.000,27030,1,H0,1,100,98.698
1576864647.938409,157078.000,27048,1,H0,1,100,98.706
1576864648.078861,157196.000,27066,1,H0,1,100,98.698
1576864648.213362,157309.000,27084,1,H0,1,100,98.698
1576864648.347862,157422.000,27102,1,H0,1,100,98.702
1576864648.472840,157527.000,27120,1,H0,1,100,98.702
1576864648.603770,157637.000,27139,1,H0,1,100,98.702
1576864648.740650,157752.000,27156,1,H0,1,100,98.698
1576864648.882293,157871.000,27174,1,H0,1,100,98.698
1576864649.015603,157983.000,27208,1,H0,1,100,98.694
1576864649.157244,158102.000,27226,1,H0,1,100,98.698
1576864649.284603,158209.000,27244,1,H0,1,100,98.694
1576864649.415533,158319.000,27262,1,H0,1,100,98.694
1576864649.547653,158430.000,27280,1,H0,1,100,98.691
1576864649.689295,158549.000,27299,1,H0,1,100,98.691
1576864649.826175,158664.000,27320,1,H0,1,100,98.698
1576864649.961866,158778.000,27338,1,H0,1,100,98.694
1576864650.092796,158888.000,27358,1,H0,1,100,98.698
1576864650.221345,158996.000,27376,1,H0,1,100,98.691
1576864650.352274,159106.000,27394,1,H0,1,100,98.698
1576864650.490345,159222.000,27411,1,H0,1,100,98.702
1576864650.628417,159338.000,27430,1,H0,1,100,98.691
1576864650.752204,159442.000,27448,1,H0,1,100,98.694
1576864650.884324,159553.000,27466,1,H0,1,100,98.698
1576864651.018825,159666.000,27500,1,H0,1,100,98.691
1576864651.156896,159782.000,27518,1,H0,1,100,98.694
1576864651.290206,159894.000,27536,1,H0,1,100,98.694
1576864651.416374,160000.000,27554,1,H0,1,100,98.698
1576864651.549685,160112.000,27572,1,H0,1,100,98.702
1576864651.685375,160226.000,27591,1,H0,1,100,98.694
1576864651.825827,160344.000,27608,1,H0,1,100,98.694
1576864651.955566,160453.000,27626,1,H0,1,100,98.691
1576864652.082925,160560.000,27644,1,H0,1,100,98.691
1576864652.217425,160673.000,27678,1,H0,1,100,98.687
1576864652.354306,160788.000,27696,1,H0,1,100,98.698
1576864652.492377,160904.000,27714,1,H0,1,100,98.687
1576864652.616165,161008.000,27733,1,H0,1,100,98.679
1576864652.744714,161116.000,27751,1,H0,1,100,98.698
1576864652.881595,161231.000,27769,1,H0,1,100,98.687
1576864653.016095,161344.000,27786,1,H0,1,100,98.691
1576864653.150596,161457.000,27804,1,H0,1,100,98.687
1576864653.292238,161576.000,27838,1,H0,1,100,98.687
1576864653.421977,161685.000,27856,1,H0,1,100,98.691
1576864653.546955,161790.000,27875,1,H0,1,100,98.691
1576864653.685026,161906.000,27893,1,H0,1,100,98.687
1576864653.821907,162021.000,27911,1,H0,1,100,98.687
1576864653.957598,162135.000,27929,1,H0,1,100,98.683
1576864654.084957,162242.000,27947,1,H0,1,100,98.679
1576864654.213506,162350.000,27965,1,H0,1,100,98.687
1576864654.346816,162462.000,27982,1,H0,1,100,98.683
1576864654.484887,162578.000,28000,1,H0,1,100,98.687
1576864654.620578,162692.000,28035,1,H0,1,100,98.683
1576864654.745556,162797.000,28053,1,H0,1,100,98.683
1576864654.878866,162909.000,28071,1,H0,1,100,98.683
1576864655.018127,163026.000,28089,1,H0,1,100,98.687
1576864655.155008,163141.000,28107,1,H0,1,100,98.679
1576864655.284748,163250.000,28125,1,H0,1,100,98.679
1576864655.412106,163357.000,28143,1,H0,1,100,98.683
1576864655.545416,163469.000,28160,1,H0,1,100,98.683
1576864655.684678,163586.000,28179,1,H0,1,100,98.679
1576864655.814417,163695.000,28216,2,H0,1,100,98.679
1576864655.944156,163804.000,28216,2,H0,1,100,98.679
1576864656.076276,163915.000,28236,1,H0,1,100,98.687
1576864656.210777,164028.000,28253,1,H0,1,100,98.675
1576864656.348848,164144.000,28271,1,H0,1,100,98.679
1576864656.491680,164264.000,28305,1,H0,1,100,98.675
1576864656.626180,164377.000,28324,1,H0,1,100,98.683
1576864656.755919,164486.000,28342,1,H0,1,100,98.671
1576864656.886849,164596.000,28360,1,H0,1,100,98.683
1576864657.021349,164709.000,28378,1,H0,1,100,98.675
1576864657.154660,164821.000,28396,1,H0,1,100,98.679
1576864657.297492,164941.000,28413,1,H0,1,100,98.683
1576864657.435563,165057.000,28431,1,H0,1,100,98.668
1576864657.566493,165167.000,28466,1,H0,1,100,98.675
1576864657.695041,165275.000,28484,1,H0,1,100,98.671
1576864657.829542,165388.000,28502,1,H0,1,100,98.664
1576864657.964042,165501.000,28520,1,H0,1,100,98.683
1576864658.104494,165619.000,28538,1,H0,1,100,98.675
1576864658.231853,165726.000,28556,1,H0,1,100,98.675
1576864658.356831,165831.000,28574,1,H0,1,100,98.671
1576864658.493712,165946.000,28591,1,H0,1,100,98.675
1576864658.631783,166062.000,28610,1,H0,1,100,98.668
1576864658.768664,166177.000,28644,1,H0,1,100,98.675
1576864658.893642,166282.000,28662,1,H0,1,100,98.675
1576864659.023381,166391.000,28680,1,H0,1,100,98.671
1576864659.161453,166507.000,28698,1,H0,1,100,98.664
1576864659.297143,166621.000,28716,1,H0,1,100,98.671
1576864659.431643,166734.000,28734,1,H0,1,100,98.675
1576864659.554241,166837.000,28752,1,H0,1,100,98.683
1576864659.693503,166954.000,28770,1,H0,1,100,98.679
1576864659.826813,167066.000,28788,1,H0,1,100,98.668
1576864659.964884,167182.000,28806,1,H0,1,100,98.671
1576864660.089862,167287.000,28840,1,H0,1,100,98.671
1576864660.217221,167394.000,28858,1,H0,1,100,98.668
1576864660.352911,167508.000,28876,1,H0,1,100,98.668
1576864660.495744,167628.000,28894,1,H0,1,100,98.668
1576864660.633815,167744.000,28913,1,H0,1,100,98.668
1576864660.769506,167858.000,28931,1,H0,1,100,98.668
1576864660.902816,167970.000,28948,1,H0,1,100,98.668
1576864661.031364,168078.000,28966,1,H0,1,100,98.671
1576864661.161104,168187.000,28984,1,H0,1,100,98.656
1576864661.300365,168304.000,29018,1,H0,1,100,98.668
1576864661.440817,168422.000,29036,1,H0,1,100,98.668
1576864661.565795,168527.000,29055,1,H0,1,100,98.671
1576864661.696725,168637.000,29073,1,H0,1,100,98.671
1576864661.831225,168750.000,29091,1,H0,1,100,98.671
1576864661.965725,168863.000,29111,1,H0,1,100,98.668
1576864662.104987,168980.000,29132,1,H0,1,100,98.668
1576864662.232346,169087.000,29150,1,H0,1,100,98.668
1576864662.362085,169196.000,29168,1,H0,1,100,98.671
1576864662.496585,169309.000,29186,1,H0,1,100,98.668
1576864662.637037,169427.000,29205,1,H0,1,100,98.668
1576864662.769157,169538.000,29223,1,H0,1,100,98.668
1576864662.895325,169644.000,29240,1,H0,1,100,98.664
1576864663.031016,169758.000,29258,1,H0,1,100,98.656
1576864663.169087,169874.000,29292,1,H0,1,100,98.660
1576864663.307158,169990.000,29310,1,H0,1,100,98.649
1576864663.432136,170095.000,29328,1,H0,1,100,98.660
1576864663.558305,170201.000,29347,1,H0,1,100,98.668
1576864663.698756,170319.000,29365,1,H0,1,100,98.652
1576864663.833257,170432.000,29383,1,H0,1,100,98.652
1576864663.967757,170545.000,29401,1,H0,1,100,98.664
1576864664.103448,170659.000,29418,1,H0,1,100,98.664
1576864664.233187,170768.000,29436,1,H0,1,100,98.656
1576864664.356975,170872.000,29454,1,H0,1,100,98.660
1576864664.496237,170989.000,29488,1,H0,1,100,98.660
1576864664.625976,171098.000,29507,1,H0,1,100,98.652
1576864664.758096,171209.000,29525,1,H0,1,100,98.656
1576864664.897357,171326.000,29543,1,H0,1,100,98.660
1576864665.033048,171440.000,29561,1,H0,1,100,98.656
1576864665.158026,171545.000,29579,1,H0,1,100,98.660
1576864665.293717,171659.000,29597,1,H0,1,100,98.664
1576864665.428217,171772.000,29614,1,H0,1,100,98.656
1576864665.562717,171885.000,29632,1,H0,1,100,98.656
1576864665.694837,171996.000,29667,1,H0,1,100,98.652
1576864665.821006,172102.000,29685,1,H0,1,100,98.652
1576864665.951935,172212.000,29703,1,H0,1,100,98.652
1576864666.090006,172328.000,29721,1,H0,1,100,98.660
1576864666.230458,172446.000,29739,1,H0,1,100,98.645
1576864666.356627,172552.000,29757,1,H0,1,100,98.660
1576864666.485175,172660.000,29775,1,H0,1,100,98.649
1576864666.622056,172775.000,29793,1,H0,1,100,98.656
1576864666.760128,172891.000,29811,1,H0,1,100,98.645
1576864666.894628,173004.000,29845,1,H0,1,100,98.656
1576864667.020796,173110.000,29863,1,H0,1,100,98.652
1576864667.152916,173221.000,29881,1,H0,1,100,98.656
1576864667.292178,173338.000,29899,1,H0,1,100,98.652
1576864667.426678,173451.000,29917,1,H0,1,100,98.656
1576864667.555227,173559.000,29935,1,H0,1,100,98.660
1576864667.682586,173666.000,29954,1,H0,1,100,98.652
1576864667.817086,173779.000,29971,1,H0,1,100,98.656
1576864667.953967,173894.000,29989,1,H0,1,100,98.652
1576864668.096799,174014.000,30010,1,H0,1,100,98.656
1576864668.234870,174130.000,30030,1,H0,1,100,98.637
1576864668.368181,174242.000,30048,1,H0,1,100,98.649
1576864668.496729,174350.000,30065,1,H0,1,100,98.641
1576864668.628849,174461.000,30084,1,H0,1,100,98.652
1576864668.763350,174574.000,30118,1,H0,1,100,98.645
1576864668.904992,174693.000,30136,1,H0,1,100,98.641
1576864669.034731,174802.000,30154,1,H0,1,100,98.645
1576864669.158519,174906.000,30172,1,H0,1,100,98.637
1576864669.296590,175022.000,30190,1,H0,1,100,98.645
1576864669.434661,175138.000,30208,1,H0,1,100,98.641
1576864669.569162,175251.000,30225,1,H0,1,100,98.649
1576864669.696520,175358.000,30244,1,H0,1,100,98.637
1576864669.827450,175468.000,30262,1,H0,1,100,98.649
1576864669.964331,175583.000,30280,1,H0,1,100,98.649
1576864670.100021,175697.000,30314,1,H0,1,100,98.649
1576864670.236902,175812.000,30332,1,H0,1,100,98.652
1576864670.361881,175917.000,30350,1,H0,1,100,98.649
1576864670.492810,176027.000,30368,1,H0,1,100,98.645
1576864670.633262,176145.000,30387,1,H0,1,100,98.633
1576864670.770143,176260.000,30405,1,H0,1,100,98.649
1576864670.897501,176367.000,30422,1,H0,1,100,98.637
1576864671.024860,176474.000,30440,1,H0,1,100,98.649
1576864671.156980,176585.000,30458,1,H0,1,100,98.633
1576864671.296241,176702.000,30492,1,H0,1,100,98.645
1576864671.435503,176819.000,30510,1,H0,1,100,98.645
1576864671.559291,176923.000,30529,1,H0,1,100,98.649
1576864671.689030,177032.000,30547,1,H0,1,100,98.637
1576864671.818769,177141.000,30565,1,H0,1,100,98.637
1576864671.944938,177247.000,30583,1,H0,1,100,98.645
1576864672.075867,177357.000,30601,1,H0,1,100,98.637
1576864672.211558,177471.000,30619,1,H0,1,100,98.645
1576864672.346058,177584.000,30636,1,H0,1,100,98.633
1576864672.484129,177700.000,30654,1,H0,1,100,98.641
1576864672.611488,177807.000,30689,1,H0,1,100,98.637
1576864672.738847,177914.000,30707,1,H0,1,100,98.641
1576864672.876918,178030.000,30725,1,H0,1,100,98.633
1576864673.014989,178146.000,30743,1,H0,1,100,98.630
1576864673.145919,178256.000,30761,1,H0,1,100,98.633
1576864673.274468,178364.000,30779,1,H0,1,100,98.637
1576864673.406588,178475.000,30797,1,H0,1,100,98.633
1576864673.541088,178588.000,30814,1,H0,1,100,98.637
1576864673.681540,178706.000,30833,1,H0,1,100,98.637
1576864673.810089,178814.000,30851,1,H0,1,100,98.637
1576864673.938638,178922.000,30885,1,H0,1,100,98.633
1576864674.076709,179038.000,30906,2,H0,1,100,98.641
1576864674.214780,179154.000,30906,2,H0,1,100,98.633
1576864674.351661,179269.000,30926,1,H0,1,100,98.633
1576864674.476639,179374.000,30944,1,H0,1,100,98.633
1576864674.607569,179484.000,30979,1,H0,1,100,98.633
1576864674.744450,179599.000,30997,1,H0,1,100,98.633
1576864674.882521,179715.000,31015,1,H0,1,100,98.630
1576864675.011070,179823.000,31033,1,H0,1,100,98.622
1576864675.136048,179928.000,31051,1,H0,1,100,98.645
1576864675.274119,180044.000,31069,1,H0,1,100,98.633
1576864675.412190,180160.000,31086,1,H0,1,100,98.630
1576864675.546691,180273.000,31104,1,H0,1,100,98.633
1576864675.684762,180389.000,31139,1,H0,1,100,98.633
1576864675.821643,180504.000,31157,1,H0,1,100,98.630
1576864675.946621,180609.000,31175,1,H0,1,100,98.633
1576864676.079931,180721.000,31193,1,H0,1,100,98.626
1576864676.218002,180837.000,31211,1,H0,1,100,98.626
1576864676.351312,180949.000,31229,1,H0,1,100,98.626
1576864676.490574,181066.000,31246,1,H0,1,100,98.630
1576864676.628645,181182.000,31265,1,H0,1,100,98.637
1576864676.753623,181287.000,31283,1,H0,1,100,98.626
1576864676.884553,181397.000,31301,1,H0,1,100,98.630
1576864677.019053,181510.000,31335,1,H0,1,100,98.626
1576864677.153553,181623.000,31353,1,H0,1,100,98.637
1576864677.291625,181739.000,31371,1,H0,1,100,98.626
1576864677.417793,181845.000,31389,1,H0,1,100,98.626
1576864677.545152,181952.000,31407,1,H0,1,100,98.626
1576864677.683223,182068.000,31426,1,H0,1,100,98.626
1576864677.823675,182186.000,31443,1,H0,1,100,98.633
1576864677.954604,182296.000,31461,1,H0,1,100,98.614
1576864678.081963,182403.000,31479,1,H0,1,100,98.622
1576864678.217654,182517.000,31513,1,H0,1,100,98.614
1576864678.355725,182633.000,31531,1,H0,1,100,98.626
1576864678.493796,182749.000,31549,1,H0,1,100,98.618
1576864678.621155,182856.000,31568,1,H0,1,100,98.626
1576864678.748513,182963.000,31586,1,H0,1,100,98.622
1576864678.888965,183081.000,31604,1,H0,1,100,98.633
1576864679.023465,183194.000,31621,1,H0,1,100,98.614
1576864679.156775,183306.000,31639,1,H0,1,100,98.630
1576864679.282944,183412.000,31657,1,H0,1,100,98.622
1576864679.419825,183527.000,31691,1,H0,1,100,98.614
1576864679.544803,183632.000,31710,1,H0,1,100,98.626
1576864679.685255,183750.000,31728,1,H0,1,100,98.633
1576864679.822136,183865.000,31746,1,H0,1,100,98.622
1576864679.959017,183980.000,31764,1,H0,1,100,98.622
1576864680.086375,184087.000,31782,1,H0,1,100,98.622
1576864680.217305,184197.000,31803,1,H0,1,100,98.607
1576864680.350615,184309.000,31823,1,H0,1,100,98.618
1576864680.491067,184427.000,31841,1,H0,1,100,98.610
1576864680.626757,184541.000,31860,1,H0,1,100,98.610
1576864680.750545,184645.000,31878,1,H0,1,100,98.610
1576864680.883855,184757.000,31896,1,H0,1,100,98.614
1576864681.020736,184872.000,31913,1,H0,1,100,98.618
1576864681.154046,184984.000,31931,1,H0,1,100,98.610
1576864681.286166,185095.000,31965,1,H0,1,100,98.610
1576864681.413525,185202.000,31983,1,H0,1,100,98.614
1576864681.546835,185314.000,32002,1,H0,1,100,98.618
1576864681.682526,185428.000,32020,1,H0,1,100,98.614
1576864681.825358,185548.000,32038,1,H0,1,100,98.614
1576864681.950336,185653.000,32056,1,H0,1,100,98.610
1576864682.077695,185760.000,32074,1,H0,1,100,98.614
1576864682.214576,185875.000,32091,1,H0,1,100,98.618
1576864682.352647,185991.000,32109,1,H0,1,100,98.614
1576864682.485957,186103.000,32143,1,H0,1,100,98.614
1576864682.610935,186208.000,32162,1,H0,1,100,98.618
1576864682.743055,186319.000,32180,1,H0,1,100,98.610
1576864682.882316,186436.000,32198,1,H0,1,100,98.614
1576864683.021578,186553.000,32216,1,H0,1,100,98.610
1576864683.157268,186667.000,32234,1,H0,1,100,98.618
1576864683.294149,186782.000,32251,1,H0,1,100,98.603
1576864683.421508,186889.000,32269,1,H0,1,100,98.614
1576864683.548867,186996.000,32287,1,H0,1,100,98.610
1576864683.688128,187113.000,32322,1,H0,1,100,98.614
1576864683.822628,187226.000,32340,1,H0,1,100,98.603
1576864683.957129,187339.000,32358,1,H0,1,100,98.614
1576864684.098771,187458.000,32376,1,H0,1,100,98.607
1576864684.227320,187566.000,32394,1,H0,1,100,98.610
1576864684.352298,187671.000,32412,1,H0,1,100,98.603
1576864684.490369,187787.000,32430,1,H0,1,100,98.595
1576864684.628440,187903.000,32448,1,H0,1,100,98.595
1576864684.764131,188017.000,32466,1,H0,1,100,98.607
1576864684.891490,188124.000,32500,1,H0,1,100,98.610
1576864685.021229,188233.000,32518,1,H0,1,100,98.607
1576864685.154539,188345.000,32536,1,H0,1,100,98.599
1576864685.292610,188461.000,32554,1,H0,1,100,98.610
1576864685.425920,188573.000,32572,1,H0,1,100,98.603
1576864685.552089,188679.000,32590,1,H0,1,100,98.603
1576864685.685399,188791.000,32609,1,H0,1,100,98.599
1576864685.823470,188907.000,32626,1,H0,1,100,98.595
1576864685.961541,189023.000,32644,1,H0,1,100,98.614
1576864686.090090,189131.000,32662,1,H0,1,100,98.599
1576864686.221615,189241.500,32699,2,H0,1,100,98.595
1576864686.353140,189352.000,32699,2,H0,1,100,98.607
1576864686.492401,189469.000,32718,1,H0,1,100,98.599
1576864686.624521,189580.000,32737,1,H0,1,100,98.603
1576864686.749499,189685.000,32755,1,H0,1,100,98.610
1576864686.882809,189797.000,32772,1,H0,1,100,98.599
1576864687.022071,189914.000,32807,1,H0,1,100,98.607
1576864687.155381,190026.000,32825,1,H0,1,100,98.588
1576864687.294642,190143.000,32843,1,H0,1,100,98.603
1576864687.435094,190261.000,32861,1,H0,1,100,98.595
1576864687.561262,190367.000,32879,1,H0,1,100,98.603
1576864687.691002,190476.000,32897,1,H0,1,100,98.603
1576864687.826692,190590.000,32915,1,H0,1,100,98.603
1576864687.961193,190703.000,32933,1,H0,1,100,98.603
1576864688.100454,190820.000,32967,1,H0,1,100,98.599
1576864688.226623,190926.000,32985,1,H0,1,100,98.603
1576864688.352791,191032.000,33003,1,H0,1,100,98.584
1576864688.489672,191147.000,33021,1,H0,1,100,98.584
1576864688.628933,191264.000,33040,1,H0,1,100,98.595
1576864688.758673,191373.000,33058,1,H0,1,100,98.591
1576864688.887222,191481.000,33076,1,H0,1,100,98.599
1576864689.021722,191594.000,33093,1,H0,1,100,98.599
1576864689.159793,191710.000,33111,1,H0,1,100,98.591
1576864689.296674,191825.000,33145,1,H0,1,100,98.591
1576864689.426413,191934.000,33163,1,H0,1,100,98.607
1576864689.551392,192039.000,33182,1,H0,1,100,98.588
1576864689.687082,192153.000,33200,1,H0,1,100,98.591
1576864689.825153,192269.000,33218,1,H0,1,100,98.580
1576864689.960844,192383.000,33236,1,H0,1,100,98.580
1576864690.084632,192487.000,33254,1,H0,1,100,98.591
1576864690.214371,192596.000,33272,1,H0,1,100,98.591
1576864690.350062,192710.000,33289,1,H0,1,100,98.588
1576864690.488133,192826.000,33307,1,H0,1,100,98.591
1576864690.623824,192940.000,33342,1,H0,1,100,98.588
1576864690.761895,193056.000,33360,1,H0,1,100,98.588
1576864690.886873,193161.000,33378,1,H0,1,100,98.591
1576864691.020183,193273.000,33396,1,H0,1,100,98.588
1576864691.145161,193378.000,33414,1,H0,1,100,98.595
1576864691.279662,193491.000,33432,1,H0,1,100,98.591
1576864691.416543,193606.000,33450,1,H0,1,100,98.588
1576864691.552233,193720.000,33467,1,H0,1,100,98.580
1576864691.684353,193831.000,33486,1,H0,1,100,98.591
1576864691.812902,193939.000,33520,1,H0,1,100,98.595
1576864691.943831,194049.000,33538,1,H0,1,100,98.591
1576864692.083093,194166.000,33556,1,H0,1,100,98.588
1576864692.223545,194284.000,33574,1,H0,1,100,98.584
1576864692.350904,194391.000,33595,2,H0,1,100,98.591
1576864692.478262,194498.000,33595,2,H0,1,100,98.576
1576864692.612762,194611.000,33632,1,H0,1,100,98.576
1576864692.747263,194724.000,33650,1,H0,1,100,98.588
1576864692.885334,194840.000,33668,1,H0,1,100,98.588
1576864693.011503,194946.000,33686,1,H0,1,100,98.584
1576864693.144813,195058.000,33704,1,H0,1,100,98.584
1576864693.280503,195172.000,33722,1,H0,1,100,98.588
1576864693.420955,195290.000,33739,1,H0,1,100,98.580
1576864693.551884,195400.000,33757,1,H0,1,100,98.580
1576864693.678053,195506.000,33776,1,H0,1,100,98.591
1576864693.813744,195620.000,33810,1,H0,1,100,98.576
1576864693.951815,195736.000,33828,1,H0,1,100,98.580
1576864694.089886,195852.000,33846,1,H0,1,100,98.580
1576864694.212484,195955.000,33864,1,H0,1,100,98.580
1576864694.338652,196061.000,33882,1,H0,1,100,98.584
1576864694.479104,196179.000,33900,1,H0,1,100,98.584
1576864694.618365,196296.000,33918,1,H0,1,100,98.584
1576864694.755246,196411.000,33936,1,H0,1,100,98.584
1576864694.895698,196529.000,33970,1,H0,1,100,98.576
1576864695.026627,196639.000,33988,1,H0,1,100,98.580
1576864695.151606,196744.000,34006,1,H0,1,100,98.580
1576864695.288486,196859.000,34024,1,H0,1,100,98.588
1576864695.426558,196975.000,34042,1,H0,1,100,98.576
1576864695.563438,197090.000,34060,1,H0,1,100,98.584
1576864695.699129,197204.000,34078,1,H0,1,100,98.584
1576864695.833629,197317.000,34096,1,H0,1,100,98.580
1576864695.957417,197421.000,34114,1,H0,1,100,98.580
1576864696.091918,197534.000,34148,1,H0,1,100,98.584
1576864696.227608,197648.000,34166,1,H0,1,100,98.580
1576864696.362109,197761.000,34184,1,H0,1,100,98.584
1576864696.493038,197871.000,34202,1,H0,1,100,98.572
1576864696.619207,197977.000,34221,1,H0,1,100,98.588
1576864696.750136,198087.000,34239,1,H0,1,100,98.588
1576864696.888207,198203.000,34257,1,H0,1,100,98.584
1576864697.027469,198320.000,34274,1,H0,1,100,98.572
1576864697.153637,198426.000,34292,1,H0,1,100,98.584
1576864697.283377,198535.000,34310,1,H0,1,100,98.576
1576864697.420258,198650.000,34344,1,H0,1,100,98.580
1576864697.558329,198766.000,34363,1,H0,1,100,98.580
1576864697.691639,198878.000,34381,1,H0,1,100,98.568
1576864697.815427,198982.000,34399,1,H0,1,100,98.576
1576864697.948737,199094.000,34417,1,H0,1,100,98.572
1576864698.087998,199211.000,34435,1,H0,1,100,98.572
1576864698.223689,199325.000,34452,1,H0,1,100,98.565
1576864698.351048,199432.000,34470,1,H0,1,100,98.576
1576864698.479597,199540.000,34491,1,H0,1,100,98.576
1576864698.618858,199657.000,34512,1,H0,1,100,98.568
1576864698.747407,199765.000,34530,1,H0,1,100,98.557
1576864698.885478,199881.000,34547,1,H0,1,100,98.572
1576864699.023550,199997.000,34565,1,H0,1,100,98.576
1576864699.155669,200108.000,34583,1,H0,1,100,98.572
1576864699.283028,200215.000,34617,1,H0,1,100,98.580
1576864699.416338,200327.000,34635,1,H0,1,100,98.572
1576864699.550838,200440.000,34654,1,H0,1,100,98.565
1576864699.692480,200559.000,34672,1,H0,1,100,98.576
1576864699.821029,200667.000,34690,1,H0,1,100,98.565
1576864699.946008,200772.000,34708,1,H0,1,100,98.576
1576864700.082889,200887.000,34726,1,H0,1,100,98.576
1576864700.222150,201004.000,34743,1,H0,1,100,98.568
1576864700.356650,201117.000,34761,1,H0,1,100,98.576
1576864700.484009,201224.000,34778,1,H0,1,100,98.572
1576864700.614939,201334.000,34814,1,H0,1,100,98.572
1576864700.750629,201448.000,34832,1,H0,1,100,98.576
1576864700.885130,201561.000,34850,1,H0,1,100,98.572
1576864701.020820,201675.000,34868,1,H0,1,100,98.568
1576864701.145798,201780.000,34886,1,H0,1,100,98.572
1576864701.282679,201895.000,34904,1,H0,1,100,98.549
1576864701.417180,202008.000,34921,1,H0,1,100,98.561
1576864701.555251,202124.000,34939,1,H0,1,100,98.557
1576864701.681419,202230.000,34958,1,H0,1,100,98.561
1576864701.808778,202337.000,34992,1,H0,1,100,98.568
1576864701.940898,202448.000,35010,1,H0,1,100,98.557
1576864702.080159,202565.000,35028,1,H0,1,100,98.565
1576864702.219421,202682.000,35046,1,H0,1,100,98.561
1576864702.357492,202798.000,35064,1,H0,1,100,98.557
1576864702.499134,202917.000,35081,1,H0,1,100,98.568
1576864702.633634,203030.000,35100,1,H0,1,100,98.568
1576864702.758612,203135.000,35118,1,H0,1,100,98.565
1576864702.888352,203244.000,35136,1,H0,1,100,98.568
1576864703.024042,203358.000,35170,1,H0,1,100,98.561
1576864703.158543,203471.000,35188,1,H0,1,100,98.565
1576864703.296614,203587.000,35206,1,H0,1,100,98.561
1576864703.423973,203694.000,35224,1,H0,1,100,98.561
1576864703.552522,203802.000,35242,1,H0,1,100,98.572
1576864703.689403,203917.000,35261,1,H0,1,100,98.557
1576864703.827474,204033.000,35278,1,H0,1,100,98.557
1576864703.957213,204142.000,35296,1,H0,1,100,98.561
1576864704.086952,204251.000,35314,1,H0,1,100,98.561
1576864704.220262,204363.000,35348,1,H0,1,100,98.561
1576864704.358334,204479.000,35366,1,H0,1,100,98.557
1576864704.491049,204590.500,35387,2,H0,1,100,98.561
1576864704.623763,204702.000,35387,2,H0,1,100,98.553
1576864704.752312,204810.000,35408,1,H0,1,100,98.549
1576864704.888003,204924.000,35442,1,H0,1,100,98.561
1576864705.028455,205042.000,35460,1,H0,1,100,98.553
1576864705.164145,205156.000,35478,1,H0,1,100,98.553
1576864705.289124,205261.000,35496,1,H0,1,100,98.546
1576864705.420053,205371.000,35514,1,H0,1,100,98.561
1576864705.558124,205487.000,35532,1,H0,1,100,98.553
1576864705.696196,205603.000,35550,1,H0,1,100,98.561
1576864705.823554,205710.000,35568,1,H0,1,100,98.546
1576864705.948532,205815.000,35586,1,H0,1,100,98.557
1576864706.087794,205932.000,35620,1,H0,1,100,98.549
1576864706.225865,206048.000,35638,1,H0,1,100,98.557
1576864706.361556,206162.000,35656,1,H0,1,100,98.549
1576864706.502007,206280.000,35674,1,H0,1,100,98.542
1576864706.637698,206394.000,35693,1,H0,1,100,98.549
1576864706.762676,206499.000,35711,1,H0,1,100,98.561
1576864706.897177,206612.000,35728,1,H0,1,100,98.549
1576864707.034057,206727.000,35746,1,H0,1,100,98.546
1576864707.168558,206840.000,35780,1,H0,1,100,98.557
1576864707.310200,206959.000,35798,1,H0,1,100,98.549
1576864707.449461,207076.000,35816,1,H0,1,100,98.546
1576864707.573249,207180.000,35834,1,H0,1,100,98.549
1576864707.705369,207291.000,35853,1,H0,1,100,98.549
1576864707.839869,207404.000,35871,1,H0,1,100,98.546
1576864707.974370,207517.000,35888,1,H0,1,100,98.546
1576864708.111251,207632.000,35906,1,H0,1,100,98.538
1576864708.237419,207738.000,35924,1,H0,1,100,98.542
1576864708.370729,207850.000,35958,1,H0,1,100,98.546
1576864708.506420,207964.000,35976,1,H0,1,100,98.542
1576864708.646872,208082.000,35995,1,H0,1,100,98.549
1576864708.776611,208191.000,36013,1,H0,1,100,98.542
1576864708.903970,208298.000,36031,1,H0,1,100,98.546
1576864709.039660,208412.000,36049,1,H0,1,100,98.546
1576864709.177731,208528.000,36066,1,H0,1,100,98.549
1576864709.315802,208644.000,36084,1,H0,1,100,98.538
1576864709.439590,208748.000,36102,1,H0,1,100,98.542
1576864709.568139,208856.000,36120,1,H0,1,100,98.546
1576864709.708591,208974.000,36155,1,H0,1,100,98.546
1576864709.843091,209087.000,36173,1,H0,1,100,98.542
1576864709.975211,209198.000,36191,1,H0,1,100,98.542
1576864710.110902,209312.000,36209,1,H0,1,100,98.534
1576864710.235880,209417.000,36227,1,H0,1,100,98.542
1576864710.363239,209524.000,36245,1,H0,1,100,98.542
1576864710.501310,209640.000,36262,1,H0,1,100,98.538
1576864710.639381,209756.000,36284,1,H0,1,100,98.538
1576864710.776262,209871.000,36304,1,H0,1,100,98.538
1576864710.903621,209978.000,36322,1,H0,1,100,98.546
1576864711.034550,210088.000,36340,1,H0,1,100,98.538
1576864711.167861,210200.000,36357,1,H0,1,100,98.538
1576864711.307122,210317.000,36375,1,H0,1,100,98.549
1576864711.441622,210430.000,36409,1,H0,1,100,98.542
1576864711.565410,210534.000,36428,1,H0,1,100,98.542
1576864711.698720,210646.000,36446,1,H0,1,100,98.534
1576864711.834411,210760.000,36464,1,H0,1,100,98.538
1576864711.972482,210876.000,36482,1,H0,1,100,98.542
1576864712.101031,210984.000,36500,1,H0,1,100,98.542
1576864712.230770,211093.000,36518,1,H0,1,100,98.542
1576864712.364080,211205.000,36536,1,H0,1,100,98.534
1576864712.499771,211319.000,36553,1,H0,1,100,98.534
1576864712.641413,211438.000,36570,1,H0,1,100,98.530
1576864712.766391,211543.000,36606,1,H0,1,100,98.534
1576864712.898511,211654.000,36624,1,H0,1,100,98.534
1576864713.033011,211767.000,36642,1,H0,1,100,98.538
1576864713.171082,211883.000,36660,1,H0,1,100,98.534
1576864713.303202,211994.000,36678,1,H0,1,100,98.530
1576864713.428181,212099.000,36696,1,H0,1,100,98.538
1576864713.561491,212211.000,36714,1,H0,1,100,98.534
1576864713.700752,212328.000,36732,1,H0,1,100,98.534
1576864713.835253,212441.000,36750,1,H0,1,100,98.542
1576864713.973324,212557.000,36784,1,H0,1,100,98.530
1576864714.112585,212674.000,36802,1,H0,1,100,98.534
1576864714.239944,212781.000,36820,1,H0,1,100,98.534
1576864714.373254,212893.000,36838,1,H0,1,100,98.534
1576864714.501803,213001.000,36856,1,H0,1,100,98.527
1576864714.636303,213114.000,36875,1,H0,1,100,98.538
1576864714.770804,213227.000,36893,1,H0,1,100,98.530
1576864714.912446,213346.000,36910,1,H0,1,100,98.530
1576864715.040995,213454.000,36928,1,H0,1,100,98.534
1576864715.165973,213559.000,36946,1,H0,1,100,98.523
1576864715.302854,213674.000,36980,1,H0,1,100,98.523
1576864715.439735,213789.000,36998,1,H0,1,100,98.534
1576864715.574235,213902.000,37016,1,H0,1,100,98.530
1576864715.701594,214009.000,37035,1,H0,1,100,98.530
1576864715.831333,214118.000,37053,1,H0,1,100,98.527
1576864715.970594,214235.000,37071,1,H0,1,100,98.523
1576864716.107475,214350.000,37088,1,H0,1,100,98.523
1576864716.239595,214461.000,37106,1,H0,1,100,98.527
1576864716.365764,214567.000,37124,1,H0,1,100,98.523
1576864716.499074,214679.000,37158,1,H0,1,100,98.523
1576864716.637740,214795.500,37180,2,H0,1,100,98.527
1576864716.776406,214912.000,37180,2,H0,1,100,98.538
1576864716.901385,215017.000,37200,1,H0,1,100,98.523
1576864717.028743,215124.000,37218,1,H0,1,100,98.523
1576864717.164434,215238.000,37252,1,H0,1,100,98.530
1576864717.303695,215355.000,37270,1,H0,1,100,98.530
1576864717.435815,215466.000,37288,1,H0,1,100,98.523
1576864717.560793,215571.000,37307,1,H0,1,100,98.519
1576864717.691723,215681.000,37325,1,H0,1,100,98.523
1576864717.817891,215787.000,37343,1,H0,1,100,98.527
1576864717.952392,215900.000,37361,1,H0,1,100,98.530
1576864718.091653,216017.000,37378,1,H0,1,100,98.527
1576864718.232105,216135.000,37396,1,H0,1,100,98.523
1576864718.357083,216240.000,37414,1,H0,1,100,98.523
1576864718.486822,216349.000,37448,1,H0,1,100,98.534
1576864718.622513,216463.000,37467,1,H0,1,100,98.527
1576864718.757013,216576.000,37485,1,H0,1,100,98.519
1576864718.896275,216693.000,37503,1,H0,1,100,98.523
1576864719.022443,216799.000,37521,1,H0,1,100,98.515
1576864719.150992,216907.000,37539,1,H0,1,100,98.515
1576864719.289063,217023.000,37557,1,H0,1,100,98.515
1576864719.428325,217140.000,37574,1,H0,1,100,98.515
1576864719.560445,217251.000,37592,1,H0,1,100,98.519
1576864719.686613,217357.000,37610,1,H0,1,100,98.527
1576864719.822304,217471.000,37645,1,H0,1,100,98.523
1576864719.960375,217587.000,37663,1,H0,1,100,98.519
1576864720.098446,217703.000,37681,1,H0,1,100,98.511
1576864720.226995,217811.000,37699,1,H0,1,100,98.511
1576864720.354354,217918.000,37717,1,H0,1,100,98.527
1576864720.493615,218035.000,37734,1,H0,1,100,98.515
1576864720.628116,218148.000,37753,1,H0,1,100,98.519
1576864720.762616,218261.000,37771,1,H0,1,100,98.519
1576864720.887594,218366.000,37789,1,H0,1,100,98.523
1576864721.018524,218476.000,37823,1,H0,1,100,98.523
1576864721.154214,218590.000,37841,1,H0,1,100,98.519
1576864721.297047,218710.000,37859,1,H0,1,100,98.507
1576864721.430357,218822.000,37877,1,H0,1,100,98.515
1576864721.568428,218938.000,37895,1,H0,1,100,98.507
1576864721.702928,219051.000,37913,1,H0,1,100,98.519
1576864721.836238,219163.000,37931,1,H0,1,100,98.519
1576864721.961216,219268.000,37949,1,H0,1,100,98.515
1576864722.096907,219382.000,37983,1,H0,1,100,98.511
1576864722.233788,219497.000,38001,1,H0,1,100,98.507
1576864722.369479,219611.000,38019,1,H0,1,100,98.511
1576864722.500408,219721.000,38037,1,H0,1,100,98.519
1576864722.628957,219829.000,38056,1,H0,1,100,98.515
1576864722.759887,219939.000,38077,1,H0,1,100,98.511
1576864722.897958,220055.000,38097,1,H0,1,100,98.507
1576864723.037219,220172.000,38115,1,H0,1,100,98.511
1576864723.161007,220276.000,38133,1,H0,1,100,98.519
1576864723.293127,220387.000,38151,1,H0,1,100,98.504
1576864723.427628,220500.000,38169,1,H0,1,100,98.511
1576864723.565699,220616.000,38187,1,H0,1,100,98.515
1576864723.699009,220728.000,38205,1,H0,1,100,98.507
1576864723.826368,220835.000,38223,1,H0,1,100,98.504
1576864723.956107,220944.000,38241,1,H0,1,100,98.511
1576864724.091797,221058.000,38275,1,H0,1,100,98.519
1576864724.233439,221177.000,38293,1,H0,1,100,98.511
1576864724.361988,221285.000,38311,1,H0,1,100,98.507
1576864724.489347,221392.000,38329,1,H0,1,100,98.504
1576864724.623847,221505.000,38348,1,H0,1,100,98.507
1576864724.760728,221620.000,38366,1,H0,1,100,98.511
1576864724.898800,221736.000,38383,1,H0,1,100,98.507
1576864725.022588,221840.000,38401,1,H0,1,100,98.500
1576864725.149946,221947.000,38419,1,H0,1,100,98.504
1576864725.286827,222062.000,38453,1,H0,1,100,98.504
1576864725.421328,222175.000,38471,1,H0,1,100,98.507
1576864725.555828,222288.000,38490,1,H0,1,100,98.507
1576864725.697470,222407.000,38508,1,H0,1,100,98.504
1576864725.827209,222516.000,38526,1,H0,1,100,98.500
1576864725.952187,222621.000,38544,1,H0,1,100,98.507
1576864726.091449,222738.000,38562,1,H0,1,100,98.500
1576864726.223569,222849.000,38579,1,H0,1,100,98.507
1576864726.358069,222962.000,38597,1,H0,1,100,98.500
1576864726.498521,223080.000,38631,1,H0,1,100,98.504
1576864726.630641,223191.000,38650,1,H0,1,100,98.504
1576864726.754428,223295.000,38668,1,H0,1,100,98.504
1576864726.888929,223408.000,38686,1,H0,1,100,98.504
1576864727.024619,223522.000,38704,1,H0,1,100,98.500
1576864727.161500,223637.000,38722,1,H0,1,100,98.500
1576864727.291240,223746.000,38740,1,H0,1,100,98.507
1576864727.419789,223854.000,38757,1,H0,1,100,98.504
1576864727.555479,223968.000,38775,1,H0,1,100,98.492
1576864727.691170,224082.000,38810,1,H0,1,100,98.504
1576864727.829241,224198.000,38828,1,H0,1,100,98.496
1576864727.955410,224304.000,38846,1,H0,1,100,98.500
1576864728.086339,224414.000,38864,1,H0,1,100,98.504
1576864728.224410,224530.000,38882,1,H0,1,100,98.504
1576864728.362481,224646.000,38900,1,H0,1,100,98.504
1576864728.493411,224756.000,38918,1,H0,1,100,98.492
1576864728.619579,224862.000,38936,1,H0,1,100,98.485
1576864728.752889,224974.000,38954,1,H0,1,100,98.500
1576864728.892151,225091.000,38975,1,H0,1,100,98.496
1576864729.032603,225209.000,38993,1,H0,1,100,98.488
1576864729.169483,225324.000,39012,1,H0,1,100,98.496
1576864729.303984,225437.000,39030,1,H0,1,100,98.500
1576864729.431343,225544.000,39048,1,H0,1,100,98.504
1576864729.558701,225651.000,39066,1,H0,1,100,98.492
1576864729.696773,225767.000,39101,1,H0,1,100,98.492
1576864729.834844,225883.000,39119,1,H0,1,100,98.500
1576864729.965773,225993.000,39137,1,H0,1,100,98.492
1576864730.094322,226101.000,39155,1,H0,1,100,98.488
1576864730.227632,226213.000,39173,1,H0,1,100,98.492
1576864730.362133,226326.000,39191,1,H0,1,100,98.485
1576864730.501394,226443.000,39208,1,H0,1,100,98.496
1576864730.631133,226552.000,39226,1,H0,1,100,98.496
1576864730.754921,226656.000,39245,1,H0,1,100,98.492
1576864730.892992,226772.000,39279,1,H0,1,100,98.488
1576864731.032254,226889.000,39297,1,H0,1,100,98.496
1576864731.167944,227003.000,39315,1,H0,1,100,98.496
1576864731.292923,227108.000,39333,1,H0,1,100,98.488
1576864731.425043,227219.000,39351,1,H0,1,100,98.488
1576864731.563114,227335.000,39369,1,H0,1,100,98.496
1576864731.698804,227449.000,39387,1,H0,1,100,98.492
1576864731.832114,227561.000,39405,1,H0,1,100,98.492
1576864731.957093,227666.000,39423,1,H0,1,100,98.485
1576864732.093974,227781.000,39457,1,H0,1,100,98.496
1576864732.228474,227894.000,39475,1,H0,1,100,98.488
1576864732.366545,228010.000,39493,1,H0,1,100,98.488
1576864732.493904,228117.000,39511,1,H0,1,100,98.492
1576864732.626024,228228.000,39530,1,H0,1,100,98.488
1576864732.751002,228333.000,39548,1,H0,1,100,98.488
1576864732.885502,228446.000,39566,1,H0,1,100,98.477
1576864733.024764,228563.000,39583,1,H0,1,100,98.488
1576864733.159264,228676.000,39601,1,H0,1,100,98.492
1576864733.298525,228793.000,39635,1,H0,1,100,98.488
1576864733.437787,228910.000,39653,1,H0,1,100,98.485
1576864733.562765,229015.000,39672,1,H0,1,100,98.488
1576864733.693695,229125.000,39690,1,H0,1,100,98.488
1576864733.829385,229239.000,39708,1,H0,1,100,98.477
1576864733.963886,229352.000,39726,1,H0,1,100,98.496
1576864734.100766,229467.000,39743,1,H0,1,100,98.481
1576864734.226935,229573.000,39761,1,H0,1,100,98.488
1576864734.355484,229681.000,39779,1,H0,1,100,98.496
1576864734.493555,229797.000,39813,1,H0,1,100,98.473
1576864734.631626,229913.000,39832,1,H0,1,100,98.492
1576864734.760175,230021.000,39850,1,H0,1,100,98.485
1576864734.892890,230132.500,39871,2,H0,1,100,98.481
1576864735.025605,230244.000,39871,2,H0,1,100,98.485
1576864735.162486,230359.000,39907,1,H0,1,100,98.496
1576864735.300557,230475.000,39925,1,H0,1,100,98.485
1576864735.427916,230582.000,39943,1,H0,1,100,98.488
1576864735.555275,230689.000,39962,1,H0,1,100,98.477
1576864735.694536,230806.000,39980,1,H0,1,100,98.485
1576864735.830227,230920.000,39998,1,H0,1,100,98.488
1576864735.963537,231032.000,40016,1,H0,1,100,98.477
1576864736.088515,231137.000,40034,1,H0,1,100,98.485
1576864736.220635,231248.000,40051,1,H0,1,100,98.481
1576864736.358706,231364.000,40069,1,H0,1,100,98.481
1576864736.496777,231480.000,40103,1,H0,1,100,98.477
1576864736.628897,231591.000,40122,1,H0,1,100,98.481
1576864736.765778,231706.000,40140,1,H0,1,100,98.488
1576864736.891947,231812.000,40158,1,H0,1,100,98.481
1576864737.025257,231924.000,40176,1,H0,1,100,98.481
1576864737.150235,232029.000,40194,1,H0,1,100,98.477
1576864737.285925,232143.000,40212,1,H0,1,100,98.473
1576864737.422806,232258.000,40229,1,H0,1,100,98.488
1576864737.560877,232374.000,40247,1,H0,1,100,98.481
1576864737.690617,232483.000,40282,1,H0,1,100,98.481
1576864737.820356,232592.000,40300,1,H0,1,100,98.481
1576864737.951286,232702.000,40318,1,H0,1,100,98.481
1576864738.089357,232818.000,40336,1,H0,1,100,98.477
1576864738.226238,232933.000,40354,1,H0,1,100,98.488
1576864738.350025,233037.000,40372,1,H0,1,100,98.481
1576864738.482145,233148.000,40390,1,H0,1,100,98.488
1576864738.617836,233262.000,40408,1,H0,1,100,98.481
1576864738.755907,233378.000,40426,1,H0,1,100,98.473
1576864738.889217,233490.000,40460,1,H0,1,100,98.477
1576864739.016576,233597.000,40478,1,H0,1,100,98.469
1576864739.149886,233709.000,40496,1,H0,1,100,98.481
1576864739.285577,233823.000,40514,1,H0,1,100,98.485
1576864739.427219,233942.000,40532,1,H0,1,100,98.473
1576864739.554577,234049.000,40550,1,H0,1,100,98.485
1576864739.684317,234158.000,40569,1,H0,1,100,98.477
1576864739.818817,234271.000,40586,1,H0,1,100,98.477
1576864739.955698,234386.000,40604,1,H0,1,100,98.477
1576864740.092579,234501.000,40638,1,H0,1,100,98.477
1576864740.215177,234604.000,40656,1,H0,1,100,98.477
1576864740.344916,234713.000,40674,1,H0,1,100,98.469
1576864740.485368,234831.000,40692,1,H0,1,100,98.477
1576864740.624629,234948.000,40711,1,H0,1,100,98.477
1576864740.761510,235063.000,40729,1,H0,1,100,98.469
1576864740.903152,235182.000,40746,1,H0,1,100,98.477
1576864741.032891,235291.000,40766,1,H0,1,100,98.473
1576864741.157869,235396.000,40787,1,H0,1,100,98.469
1576864741.295940,235512.000,40805,1,H0,1,100,98.469
1576864741.435202,235629.000,40823,1,H0,1,100,98.469
1576864741.572083,235744.000,40840,1,H0,1,100,98.473
1576864741.712534,235862.000,40859,1,H0,1,100,98.481
1576864741.844654,235973.000,40893,1,H0,1,100,98.477
1576864741.968442,236077.000,40911,1,H0,1,100,98.481
1576864742.104133,236191.000,40929,1,H0,1,100,98.481
1576864742.239824,236305.000,40947,1,H0,1,100,98.477
1576864742.376704,236420.000,40965,1,H0,1,100,98.465
1576864742.504063,236527.000,40983,1,H0,1,100,98.477
1576864742.632612,236635.000,41002,1,H0,1,100,98.473
1576864742.769493,236750.000,41020,1,H0,1,100,98.469
1576864742.903993,236863.000,41037,1,H0,1,100,98.469
1576864743.040874,236978.000,41055,1,H0,1,100,98.458
1576864743.167043,237084.000,41089,1,H0,1,100,98.469
1576864743.297972,237194.000,41107,1,H0,1,100,98.473
1576864743.436044,237310.000,41125,1,H0,1,100,98.469
1576864743.574115,237426.000,41143,1,H0,1,100,98.477
1576864743.702664,237534.000,41162,1,H0,1,100,98.465
1576864743.828832,237640.000,41180,1,H0,1,100,98.469
1576864743.964523,237754.000,41198,1,H0,1,100,98.469
1576864744.103784,237871.000,41215,1,H0,1,100,98.458
1576864744.239475,237985.000,41233,1,H0,1,100,98.473
1576864744.365643,238091.000,41251,1,H0,1,100,98.465
1576864744.496573,238201.000,41285,1,H0,1,100,98.462
1576864744.623932,238308.000,41304,1,H0,1,100,98.465
1576864744.751290,238415.000,41322,1,H0,1,100,98.465
1576864744.890552,238532.000,41340,1,H0,1,100,98.473
1576864745.029813,238649.000,41358,1,H0,1,100,98.462
1576864745.159553,238758.000,41376,1,H0,1,100,98.469
1576864745.286911,238865.000,41394,1,H0,1,100,98.462
1576864745.421412,238978.000,41411,1,H0,1,100,98.458
1576864745.554722,239090.000,41429,1,H0,1,100,98.469
1576864745.696364,239209.000,41464,1,H0,1,100,98.465
1576864745.823722,239316.000,41482,1,H0,1,100,98.465
1576864745.947510,239420.000,41500,1,H0,1,100,98.465
1576864746.085582,239536.000,41518,1,H0,1,100,98.473
1576864746.224843,239653.000,41536,1,H0,1,100,98.469
1576864746.359343,239766.000,41554,1,H0,1,100,98.473
1576864746.484321,239871.000,41572,1,H0,1,100,98.465
1576864746.616441,239982.000,41591,1,H0,1,100,98.465
1576864746.754513,240098.000,41608,1,H0,1,100,98.458
1576864746.891393,240213.000,41626,1,H0,1,100,98.469
1576864747.019347,240320.500,41663,2,H0,1,100,98.465
1576864747.147301,240428.000,41663,2,H0,1,100,98.465
1576864747.287753,240546.000,41682,1,H0,1,100,98.462
1576864747.422253,240659.000,41700,1,H0,1,100,98.465
1576864747.560324,240775.000,41718,1,H0,1,100,98.462
1576864747.686493,240881.000,41753,1,H0,1,100,98.458
1576864747.816232,240990.000,41771,1,H0,1,100,98.465
1576864747.949542,241102.000,41789,1,H0,1,100,98.465
1576864748.091184,241221.000,41807,1,H0,1,100,98.458
1576864748.229255,241337.000,41825,1,H0,1,100,98.458
1576864748.363756,241450.000,41843,1,H0,1,100,98.458
1576864748.503017,241567.000,41860,1,H0,1,100,98.462
1576864748.641088,241683.000,41877,1,H0,1,100,98.462
1576864748.766067,241788.000,41913,1,H0,1,100,98.469
1576864748.899377,241900.000,41931,1,H0,1,100,98.469
1576864749.036258,242015.000,41949,1,H0,1,100,98.473
1576864749.170758,242128.000,41967,1,H0,1,100,98.465
1576864749.306448,242242.000,41985,1,H0,1,100,98.454
1576864749.432617,242348.000,42003,1,H0,1,100,98.454
1576864749.559976,242455.000,42021,1,H0,1,100,98.462
1576864749.698047,242571.000,42039,1,H0,1,100,98.458
1576864749.838499,242689.000,42057,1,H0,1,100,98.454
1576864749.964667,242795.000,42091,1,H0,1,100,98.469
1576864750.095597,242905.000,42109,1,H0,1,100,98.458
1576864750.231287,243019.000,42127,1,H0,1,100,98.465
1576864750.368168,243134.000,42145,1,H0,1,100,98.450
1576864750.505049,243249.000,42163,1,H0,1,100,98.462
1576864750.632408,243356.000,42182,1,H0,1,100,98.458
1576864750.760957,243464.000,42200,1,H0,1,100,98.462
1576864750.896647,243578.000,42217,1,H0,1,100,98.458
1576864751.035909,243695.000,42235,1,H0,1,100,98.458
1576864751.166838,243805.000,42252,1,H0,1,100,98.450
1576864751.293007,243911.000,42287,1,H0,1,100,98.458
1576864751.425127,244022.000,42305,1,H0,1,100,98.458
1576864751.563198,244138.000,42324,1,H0,1,100,98.462
1576864751.701269,244254.000,42342,1,H0,1,100,98.454
1576864751.831008,244363.000,42360,1,H0,1,100,98.454
1576864751.957177,244469.000,42378,1,H0,1,100,98.450
1576864752.094058,244584.000,42396,1,H0,1,100,98.443
1576864752.228558,244697.000,42413,1,H0,1,100,98.450
1576864752.352346,244801.000,42431,1,H0,1,100,98.450
1576864752.490417,244917.000,42448,1,H0,1,100,98.439
1576864752.627298,245032.000,42484,1,H0,1,100,98.458
1576864752.766559,245149.000,42502,1,H0,1,100,98.446
1576864752.893918,245256.000,42520,1,H0,1,100,98.458
1576864753.024848,245366.000,42538,1,H0,1,100,98.446
1576864753.156967,245477.000,42559,1,H0,1,100,98.454
1576864753.296229,245594.000,42579,1,H0,1,100,98.450
1576864753.431920,245708.000,42597,1,H0,1,100,98.454
1576864753.555707,245812.000,42616,1,H0,1,100,98.450
1576864753.687827,245923.000,42634,1,H0,1,100,98.435
1576864753.823518,246037.000,42652,1,H0,1,100,98.443
1576864753.958018,246150.000,42670,1,H0,1,100,98.439
1576864754.091328,246262.000,42687,1,H0,1,100,98.454
1576864754.218687,246369.000,42705,1,H0,1,100,98.443
1576864754.353188,246482.000,42723,1,H0,1,100,98.450
1576864754.488878,246596.000,42757,1,H0,1,100,98.446
1576864754.630520,246715.000,42776,1,H0,1,100,98.450
1576864754.756689,246821.000,42794,1,H0,1,100,98.435
1576864754.882857,246927.000,42812,1,H0,1,100,98.443
1576864755.019738,247042.000,42830,1,H0,1,100,98.435
1576864755.157809,247158.000,42848,1,H0,1,100,98.446
1576864755.292310,247271.000,42865,1,H0,1,100,98.446
1576864755.416097,247375.000,42883,1,H0,1,100,98.439
1576864755.547027,247485.000,42901,1,H0,1,100,98.446
1576864755.686288,247602.000,42936,1,H0,1,100,98.450
1576864755.825550,247719.000,42954,1,H0,1,100,98.443
1576864755.961241,247833.000,42972,1,H0,1,100,98.431
1576864756.102882,247952.000,42990,1,H0,1,100,98.439
1576864756.229051,248058.000,43008,1,H0,1,100,98.443
1576864756.355219,248164.000,43026,1,H0,1,100,98.439
1576864756.493290,248280.000,43043,1,H0,1,100,98.439
1576864756.631362,248396.000,43062,1,H0,1,100,98.443
1576864756.764672,248508.000,43080,1,H0,1,100,98.435
1576864756.902743,248624.000,43114,1,H0,1,100,98.435
1576864757.032482,248733.000,43132,1,H0,1,100,98.443
1576864757.157460,248838.000,43150,1,H0,1,100,98.446
1576864757.294341,248953.000,43168,1,H0,1,100,98.446
1576864757.431222,249068.000,43186,1,H0,1,100,98.435
1576864757.566913,249182.000,43204,1,H0,1,100,98.439
1576864757.694272,249289.000,43223,1,H0,1,100,98.450
1576864757.822821,249397.000,43240,1,H0,1,100,98.435
1576864757.959702,249512.000,43258,1,H0,1,100,98.443
1576864758.095392,249626.000,43292,1,H0,1,100,98.443
1576864758.229892,249739.000,43310,1,H0,1,100,98.435
1576864758.356061,249845.000,43328,1,H0,1,100,98.439
1576864758.486990,249955.000,43346,1,H0,1,100,98.443
1576864758.623871,250070.000,43365,1,H0,1,100,98.443
1576864758.761943,250186.000,43383,1,H0,1,100,98.446
1576864758.890491,250294.000,43401,1,H0,1,100,98.435
1576864759.016660,250400.000,43418,1,H0,1,100,98.431
1576864759.152351,250514.000,43436,1,H0,1,100,98.435
1576864759.291612,250631.000,43457,1,H0,1,100,98.431
1576864759.426112,250744.000,43477,1,H0,1,100,98.443
1576864759.551091,250849.000,43495,1,H0,1,100,98.450
1576864759.680830,250958.000,43514,1,H0,1,100,98.435
1576864759.806998,251064.000,43532,1,H0,1,100,98.443
1576864759.937928,251174.000,43549,1,H0,1,100,98.443
1576864760.077189,251291.000,43567,1,H0,1,100,98.431
1576864760.217641,251409.000,43601,1,H0,1,100,98.435
1576864760.345000,251516.000,43619,1,H0,1,100,98.454
1576864760.475929,251626.000,43637,1,H0,1,100,98.435
1576864760.610430,251739.000,43656,1,H0,1,100,98.431
1576864760.743740,251851.000,43674,1,H0,1,100,98.435
1576864760.884192,251969.000,43692,1,H0,1,100,98.443
1576864761.011550,252076.000,43710,1,H0,1,100,98.431
1576864761.135338,252180.000,43727,1,H0,1,100,98.435
1576864761.273409,252296.000,43745,1,H0,1,100,98.427
1576864761.412671,252413.000,43779,1,H0,1,100,98.435
1576864761.547171,252526.000,43798,1,H0,1,100,98.431
1576864761.673340,252632.000,43816,1,H0,1,100,98.431
1576864761.807840,252745.000,43834,1,H0,1,100,98.439
1576864761.945911,252861.000,43852,1,H0,1,100,98.424
1576864762.082792,252976.000,43870,1,H0,1,100,98.427
1576864762.213722,253086.000,43888,1,H0,1,100,98.443
1576864762.339890,253192.000,43905,1,H0,1,100,98.446
1576864762.479151,253309.000,43923,1,H0,1,100,98.435
1576864762.614842,253423.000,43958,1,H0,1,100,98.431
1576864762.752913,253539.000,43976,1,H0,1,100,98.446
1576864762.877892,253644.000,43994,1,H0,1,100,98.431
1576864763.007631,253753.000,44012,1,H0,1,100,98.427
1576864763.142131,253866.000,44030,1,H0,1,100,98.424
1576864763.284963,253986.000,44048,1,H0,1,100,98.435
1576864763.418273,254098.000,44065,1,H0,1,100,98.431
1576864763.556345,254214.000,44083,1,H0,1,100,98.443
1576864763.693226,254329.000,44118,1,H0,1,100,98.427
1576864763.828916,254443.000,44136,1,H0,1,100,98.439
1576864763.953894,254548.000,44154,1,H0,1,100,98.424
1576864764.087204,254660.000,44172,1,H0,1,100,98.424
1576864764.224085,254775.000,44190,1,H0,1,100,98.420
1576864764.359776,254889.000,44208,1,H0,1,100,98.416
1576864764.493086,255001.000,44226,1,H0,1,100,98.431
1576864764.621635,255109.000,44244,1,H0,1,100,98.431
1576864764.751374,255218.000,44262,1,H0,1,100,98.424
1576864764.889446,255334.000,44279,1,H0,1,100,98.424
1576864765.031087,255453.000,44314,1,H0,1,100,98.427
1576864765.154876,255557.000,44332,1,H0,1,100,98.427
1576864765.286995,255668.000,44353,2,H0,1,100,98.431
1576864765.419115,255779.000,44353,2,H0,1,100,98.427
1576864765.555996,255894.000,44373,1,H0,1,100,98.427
1576864765.691687,256008.000,44408,1,H0,1,100,98.424
1576864765.819045,256115.000,44426,1,H0,1,100,98.431
1576864765.948785,256224.000,44444,1,H0,1,100,98.427
1576864766.083285,256337.000,44462,1,H0,1,100,98.408
1576864766.223737,256455.000,44480,1,H0,1,100,98.443
1576864766.354666,256565.000,44498,1,H0,1,100,98.435
1576864766.482025,256672.000,44516,1,H0,1,100,98.420
1576864766.615335,256784.000,44534,1,H0,1,100,98.431
1576864766.752216,256899.000,44552,1,H0,1,100,98.420
1576864766.890287,257015.000,44586,1,H0,1,100,98.420
1576864767.017646,257122.000,44604,1,H0,1,100,98.420
1576864767.142624,257227.000,44622,1,H0,1,100,98.424
1576864767.279505,257342.000,44640,1,H0,1,100,98.427
1576864767.416386,257457.000,44658,1,H0,1,100,98.439
1576864767.542554,257563.000,44676,1,H0,1,100,98.416
1576864767.683006,257681.000,44695,1,H0,1,100,98.416
1576864767.819887,257796.000,44712,1,H0,1,100,98.424
1576864767.956768,257911.000,44730,1,H0,1,100,98.420
1576864768.084126,258018.000,44764,1,H0,1,100,98.427
1576864768.213866,258127.000,44782,1,H0,1,100,98.416
1576864768.347176,258239.000,44800,1,H0,1,100,98.431
1576864768.487628,258357.000,44818,1,H0,1,100,98.416
1576864768.622128,258470.000,44837,1,H0,1,100,98.412
1576864768.745916,258574.000,44855,1,H0,1,100,98.424
1576864768.879226,258686.000,44873,1,H0,1,100,98.424
1576864769.013726,258799.000,44890,1,H0,1,100,98.424
1576864769.148227,258912.000,44908,1,H0,1,100,98.420
1576864769.280347,259023.000,44926,1,H0,1,100,98.416
1576864769.407705,259130.000,44960,1,H0,1,100,98.412
1576864769.541015,259242.000,44979,1,H0,1,100,98.431
1576864769.676706,259356.000,44997,1,H0,1,100,98.416
1576864769.818348,259475.000,45015,1,H0,1,100,98.416
1576864769.943326,259580.000,45033,1,H0,1,100,98.420
1576864770.070685,259687.000,45051,1,H0,1,100,98.416
1576864770.207566,259802.000,45069,1,H0,1,100,98.420
1576864770.345637,259918.000,45086,1,H0,1,100,98.416
1576864770.478947,260030.000,45104,1,H0,1,100,98.424
1576864770.603925,260135.000,45122,1,H0,1,100,98.420
1576864770.736045,260246.000,45157,1,H0,1,100,98.408
1576864770.875307,260363.000,45175,1,H0,1,100,98.408
1576864771.014568,260480.000,45193,1,H0,1,100,98.404
1576864771.150259,260594.000,45211,1,H0,1,100,98.416
1576864771.289520,260711.000,45229,1,H0,1,100,98.424
1576864771.418069,260819.000,45250,1,H0,1,100,98.416
1576864771.547808,260928.000,45271,1,H0,1,100,98.420
1576864771.676357,261036.000,45289,1,H0,1,100,98.412
1576864771.810858,261149.000,45307,1,H0,1,100,98.412
1576864771.945358,261262.000,45325,1,H0,1,100,98.416
1576864772.087000,261381.000,45342,1,H0,1,100,98.416
1576864772.215549,261489.000,45360,1,H0,1,100,98.412
1576864772.340527,261594.000,45378,1,H0,1,100,98.416
1576864772.478598,261710.000,45396,1,H0,1,100,98.424
1576864772.616670,261826.000,45431,1,H0,1,100,98.408
1576864772.751170,261939.000,45449,1,H0,1,100,98.412
1576864772.878529,262046.000,45467,1,H0,1,100,98.412
1576864773.008268,262155.000,45485,1,H0,1,100,98.412
1576864773.141578,262267.000,45503,1,H0,1,100,98.401
1576864773.279649,262383.000,45521,1,H0,1,100,98.412
1576864773.412959,262495.000,45538,1,H0,1,100,98.408
1576864773.539128,262601.000,45556,1,H0,1,100,98.408
1576864773.672438,262713.000,45575,1,H0,1,100,98.397
1576864773.811699,262830.000,45609,1,H0,1,100,98.397
1576864773.948580,262945.000,45627,1,H0,1,100,98.404
1576864774.075939,263052.000,45645,1,H0,1,100,98.408
1576864774.202107,263158.000,45663,1,H0,1,100,98.412
1576864774.337798,263272.000,45681,1,H0,1,100,98.397
1576864774.477060,263389.000,45699,1,H0,1,100,98.408
1576864774.610370,263501.000,45718,1,H0,1,100,98.404
1576864774.735348,263606.000,45735,1,H0,1,100,98.401
1576864774.871038,263720.000,45753,1,H0,1,100,98.401
1576864775.010300,263837.000,45787,1,H0,1,100,98.408
1576864775.143610,263949.000,45805,1,H0,1,100,98.397
1576864775.282871,264066.000,45823,1,H0,1,100,98.412
1576864775.423323,264184.000,45841,1,H0,1,100,98.408
1576864775.549492,264290.000,45859,1,H0,1,100,98.408
1576864775.679231,264399.000,45878,1,H0,1,100,98.404
1576864775.817302,264515.000,45895,1,H0,1,100,98.408
1576864775.947041,264624.000,45913,1,H0,1,100,98.401
1576864776.086303,264741.000,45931,1,H0,1,100,98.393
1576864776.225564,264858.000,45965,1,H0,1,100,98.404
1576864776.354113,264966.000,45983,1,H0,1,100,98.393
1576864776.483852,265075.000,46001,1,H0,1,100,98.393
1576864776.617162,265187.000,46020,1,H0,1,100,98.397
1576864776.750473,265299.000,46038,1,H0,1,100,98.393
1576864776.892115,265418.000,46056,1,H0,1,100,98.401
1576864777.018283,265524.000,46074,1,H0,1,100,98.385
1576864777.148022,265633.000,46091,1,H0,1,100,98.401
1576864777.282523,265746.000,46109,1,H0,1,100,98.389
1576864777.419999,265861.500,46146,2,H0,1,100,98.404
1576864777.557475,265977.000,46146,2,H0,1,100,98.397
1576864777.683643,266083.000,46167,1,H0,1,100,98.385
1576864777.815763,266194.000,46184,1,H0,1,100,98.397
1576864777.955024,266311.000,46202,1,H0,1,100,98.404
1576864778.093096,266427.000,46236,1,H0,1,100,98.397
1576864778.219264,266533.000,46254,1,H0,1,100,98.397
1576864778.343052,266637.000,46272,1,H0,1,100,98.401
1576864778.483504,266755.000,46290,1,H0,1,100,98.397
1576864778.616814,266867.000,46309,1,H0,1,100,98.397
1576864778.754885,266983.000,46327,1,H0,1,100,98.393
1576864778.890576,267097.000,46344,1,H0,1,100,98.382
1576864779.022696,267208.000,46362,1,H0,1,100,98.397
1576864779.147674,267313.000,46380,1,H0,1,100,98.397
1576864779.283364,267427.000,46397,1,H0,1,100,98.393
1576864779.419055,267541.000,46432,1,H0,1,100,98.393
1576864779.554745,267655.000,46451,1,H0,1,100,98.389
1576864779.686865,267766.000,46469,1,H0,1,100,98.401
1576864779.815414,267874.000,46487,1,H0,1,100,98.385
1576864779.946344,267984.000,46505,1,H0,1,100,98.404
1576864780.084415,268100.000,46523,1,H0,1,100,98.389
1576864780.224867,268218.000,46540,1,H0,1,100,98.389
1576864780.347465,268321.000,46558,1,H0,1,100,98.404
1576864780.478394,268431.000,46576,1,H0,1,100,98.393
1576864780.614085,268545.000,46611,1,H0,1,100,98.401
1576864780.750966,268660.000,46629,1,H0,1,100,98.389
1576864780.885466,268773.000,46647,1,H0,1,100,98.389
1576864781.012825,268880.000,46665,1,H0,1,100,98.393
1576864781.142564,268989.000,46683,1,H0,1,100,98.401
1576864781.278255,269103.000,46701,1,H0,1,100,98.389
1576864781.419897,269222.000,46718,1,H0,1,100,98.385
1576864781.549636,269331.000,46736,1,H0,1,100,98.389
1576864781.675804,269437.000,46755,1,H0,1,100,98.389
1576864781.807924,269548.000,46789,1,H0,1,100,98.393
1576864781.943615,269662.000,46807,1,H0,1,100,98.382
1576864782.081686,269778.000,46825,1,H0,1,100,98.389
1576864782.207854,269884.000,46843,1,H0,1,100,98.385
1576864782.331642,269988.000,46861,1,H0,1,100,98.393
1576864782.468523,270103.000,46879,1,H0,1,100,98.385
1576864782.600643,270214.000,46898,1,H0,1,100,98.382
1576864782.738714,270330.000,46915,1,H0,1,100,98.389
1576864782.881546,270450.000,46933,1,H0,1,100,98.374
1576864783.019618,270566.000,46967,1,H0,1,100,98.385
1576864783.156498,270681.000,46985,1,H0,1,100,98.393
1576864783.283857,270788.000,47003,1,H0,1,100,98.378
1576864783.415977,270899.000,47021,1,H0,1,100,98.382
1576864783.549287,271011.000,47042,1,H0,1,100,98.385
1576864783.689739,271129.000,47063,1,H0,1,100,98.378
1576864783.823049,271241.000,47081,1,H0,1,100,98.382
1576864783.946837,271345.000,47099,1,H0,1,100,98.389
1576864784.081337,271458.000,47117,1,H0,1,100,98.393
1576864784.218218,271573.000,47135,1,H0,1,100,98.393
1576864784.352718,271686.000,47153,1,H0,1,100,98.389
1576864784.482458,271795.000,47171,1,H0,1,100,98.378
1576864784.611007,271903.000,47189,1,H0,1,100,98.378
1576864784.744317,272015.000,47207,1,H0,1,100,98.385
1576864784.880008,272129.000,47225,1,H0,1,100,98.378
1576864785.020459,272247.000,47259,1,H0,1,100,98.385
1576864785.145437,272352.000,47277,1,H0,1,100,98.382
1576864785.275177,272461.000,47295,1,H0,1,100,98.378
1576864785.414438,272578.000,47313,1,H0,1,100,98.385
1576864785.550129,272692.000,47331,1,H0,1,100,98.385
1576864785.681058,272802.000,47350,1,H0,1,100,98.389
1576864785.808417,272909.000,47368,1,H0,1,100,98.382
1576864785.935776,273016.000,47385,1,H0,1,100,98.370
1576864786.075037,273133.000,47403,1,H0,1,100,98.382
1576864786.213108,273249.000,47437,1,H0,1,100,98.385
1576864786.341657,273357.000,47455,1,H0,1,100,98.382
1576864786.474967,273469.000,47473,1,H0,1,100,98.382
1576864786.602326,273576.000,47492,1,H0,1,100,98.374
1576864786.730875,273684.000,47510,1,H0,1,100,98.374
1576864786.859424,273792.000,47528,1,H0,1,100,98.382
1576864786.993925,273905.000,47546,1,H0,1,100,98.370
1576864787.127235,274017.000,47564,1,H0,1,100,98.370
1576864787.268877,274136.000,47581,1,H0,1,100,98.382
1576864787.396235,274243.000,47599,1,H0,1,100,98.385
1576864787.522404,274349.000,47617,1,H0,1,100,98.378
1576864787.660475,274465.000,47652,1,H0,1,100,98.366
1576864787.798546,274581.000,47670,1,H0,1,100,98.374
1576864787.931856,274693.000,47688,1,H0,1,100,98.374
1576864788.059215,274800.000,47706,1,H0,1,100,98.378
1576864788.190145,274910.000,47724,1,H0,1,100,98.366
1576864788.324645,275023.000,47742,1,H0,1,100,98.378
1576864788.463906,275140.000,47759,1,H0,1,100,98.370
1576864788.596026,275251.000,47777,1,H0,1,100,98.378
1576864788.719814,275355.000,47796,1,H0,1,100,98.385
1576864788.854315,275468.000,47830,1,H0,1,100,98.366
1576864788.993576,275585.000,47848,1,H0,1,100,98.374
1576864789.131647,275701.000,47866,1,H0,1,100,98.370
1576864789.257816,275807.000,47884,1,H0,1,100,98.370
1576864789.387555,275916.000,47902,1,H0,1,100,98.370
1576864789.523245,276030.000,47920,1,H0,1,100,98.366
1576864789.661317,276146.000,47942,1,H0,1,100,98.374
1576864789.792246,276256.000,47962,1,H0,1,100,98.374
1576864789.917224,276361.000,47980,1,H0,1,100,98.374
1576864790.051725,276474.000,47998,1,H0,1,100,98.374
1576864790.189796,276590.000,48016,1,H0,1,100,98.366
1576864790.324296,276703.000,48034,1,H0,1,100,98.366
1576864790.463558,276820.000,48051,1,H0,1,100,98.366
1576864790.601629,276936.000,48086,1,H0,1,100,98.366
1576864790.726607,277041.000,48104,1,H0,1,100,98.366
1576864790.858727,277152.000,48122,1,H0,1,100,98.366
1576864790.987276,277260.000,48140,1,H0,1,100,98.370
1576864791.114635,277367.000,48158,1,H0,1,100,98.366
1576864791.253896,277484.000,48176,1,H0,1,100,98.374
1576864791.394348,277602.000,48194,1,H0,1,100,98.374
1576864791.520516,277708.000,48212,1,H0,1,100,98.374
1576864791.650255,277817.000,48230,1,H0,1,100,98.370
1576864791.783566,277929.000,48248,1,H0,1,100,98.366
1576864791.916876,278041.000,48266,1,H0,1,100,98.374
1576864792.057328,278159.000,48300,1,H0,1,100,98.362
1576864792.182306,278264.000,48318,1,H0,1,100,98.366
1576864792.309664,278371.000,48336,1,H0,1,100,98.366
1576864792.447736,278487.000,48354,1,H0,1,100,98.366
1576864792.586997,278604.000,48373,1,H0,1,100,98.366
1576864792.721497,278717.000,48391,1,H0,1,100,98.366
1576864792.848856,278824.000,48409,1,H0,1,100,98.366
1576864792.983356,278937.000,48426,1,H0,1,100,98.366
1576864793.121428,279053.000,48444,1,H0,1,100,98.366
1576864793.259499,279169.000,48478,1,H0,1,100,98.362
1576864793.385667,279275.000,48496,1,H0,1,100,98.366
1576864793.510645,279380.000,48515,1,H0,1,100,98.370
1576864793.651097,279498.000,48533,1,H0,1,100,98.370
1576864793.784407,279610.000,48551,1,H0,1,100,98.366
1576864793.921288,279725.000,48569,1,H0,1,100,98.359
1576864794.047457,279831.000,48587,1,H0,1,100,98.374
1576864794.181957,279944.000,48604,1,H0,1,100,98.359
1576864794.306935,280049.000,48622,1,H0,1,100,98.370
1576864794.442626,280163.000,48640,1,H0,1,100,98.362
1576864794.579507,280278.000,48675,1,H0,1,100,98.366
1576864794.716388,280393.000,48693,1,H0,1,100,98.362
1576864794.846127,280502.000,48711,1,H0,1,100,98.359
1576864794.978247,280613.000,48729,1,H0,1,100,98.362
1576864795.105605,280720.000,48747,1,H0,1,100,98.370
1576864795.238915,280832.000,48765,1,H0,1,100,98.366
1576864795.375796,280947.000,48783,1,H0,1,100,98.366
1576864795.510297,281060.000,48800,1,H0,1,100,98.351
1576864795.643607,281172.000,48819,1,H0,1,100,98.366
1576864795.769775,281278.000,48840,1,H0,1,100,98.359
1576864795.899515,281387.000,48858,1,H0,1,100,98.362
1576864796.037586,281503.000,48878,1,H0,1,100,98.355
1576864796.178037,281621.000,48895,1,H0,1,100,98.359
1576864796.305396,281728.000,48913,1,H0,1,100,98.355
1576864796.433945,281836.000,48931,1,H0,1,100,98.351
1576864796.570826,281951.000,48966,1,H0,1,100,98.351
1576864796.708897,282067.000,48984,1,H0,1,100,98.347
1576864796.844588,282181.000,49002,1,H0,1,100,98.355
1576864796.970756,282287.000,49020,1,H0,1,100,98.359
1576864797.102876,282398.000,49038,1,H0,1,100,98.351
1576864797.242138,282515.000,49056,1,H0,1,100,98.359
1576864797.376638,282628.000,49073,1,H0,1,100,98.366
1576864797.507568,282738.000,49091,1,H0,1,100,98.355
1576864797.634926,282845.000,49110,1,H0,1,100,98.355
1576864797.768236,282957.000,49144,1,H0,1,100,98.343
1576864797.906307,283073.000,49162,1,H0,1,100,98.359
1576864798.049140,283193.000,49180,1,H0,1,100,98.359
1576864798.187211,283309.000,49198,1,H0,1,100,98.351
1576864798.322901,283423.000,49216,1,H0,1,100,98.359
1576864798.450260,283530.000,49234,1,H0,1,100,98.347
1576864798.582380,283641.000,49252,1,H0,1,100,98.351
1576864798.716881,283754.000,49270,1,H0,1,100,98.351
1576864798.857332,283872.000,49304,1,H0,1,100,98.351
1576864798.989452,283983.000,49322,1,H0,1,100,98.351
1576864799.113240,284087.000,49340,1,H0,1,100,98.347
1576864799.248930,284201.000,49358,1,H0,1,100,98.351
1576864799.384621,284315.000,49376,1,H0,1,100,98.351
1576864799.521502,284430.000,49394,1,H0,1,100,98.351
1576864799.650051,284538.000,49413,1,H0,1,100,98.347
1576864799.779790,284647.000,49430,1,H0,1,100,98.351
1576864799.914291,284760.000,49448,1,H0,1,100,98.355
1576864800.048791,284873.000,49482,1,H0,1,100,98.351
1576864800.186862,284989.000,49500,1,H0,1,100,98.347
1576864800.311841,285094.000,49518,1,H0,1,100,98.343
1576864800.441580,285203.000,49536,1,H0,1,100,98.355
1576864800.580841,285320.000,49555,1,H0,1,100,98.351
1576864800.717722,285435.000,49573,1,H0,1,100,98.340
1576864800.847461,285544.000,49591,1,H0,1,100,98.340
1576864800.973630,285650.000,49609,1,H0,1,100,98.351
1576864801.108130,285763.000,49626,1,H0,1,100,98.347
1576864801.247392,285880.000,49644,1,H0,1,100,98.351
1576864801.383082,285994.000,49678,1,H0,1,100,98.343
1576864801.509251,286100.000,49697,1,H0,1,100,98.343
1576864801.641371,286211.000,49715,1,H0,1,100,98.359
1576864801.768729,286318.000,49736,2,H0,1,100,98.351
1576864801.896088,286425.000,49736,2,H0,1,100,98.347
1576864802.035349,286542.000,49754,1,H0,1,100,98.343
1576864802.173421,286658.000,49790,1,H0,1,100,98.343
1576864802.303160,286767.000,49808,1,H0,1,100,98.347
1576864802.431709,286875.000,49826,1,H0,1,100,98.340
1576864802.569780,286991.000,49845,1,H0,1,100,98.351
1576864802.698329,287099.000,49863,1,H0,1,100,98.343
1576864802.837590,287216.000,49881,1,H0,1,100,98.340
1576864802.975662,287332.000,49898,1,H0,1,100,98.343
1576864803.107781,287443.000,49916,1,H0,1,100,98.343
1576864803.236331,287551.000,49934,1,H0,1,100,98.343
1576864803.367260,287661.000,49968,1,H0,1,100,98.343
1576864803.501760,287774.000,49987,1,H0,1,100,98.351
1576864803.641022,287891.000,50005,1,H0,1,100,98.347
1576864803.770761,288000.000,50023,1,H0,1,100,98.340
1576864803.898120,288107.000,50041,1,H0,1,100,98.351
1576864804.032620,288220.000,50059,1,H0,1,100,98.347
1576864804.171882,288337.000,50076,1,H0,1,100,98.347
1576864804.311143,288454.000,50094,1,H0,1,100,98.343
1576864804.436121,288559.000,50112,1,H0,1,100,98.336
1576864804.565861,288668.000,50147,1,H0,1,100,98.343
1576864804.702741,288783.000,50165,1,H0,1,100,98.343
1576864804.840813,288899.000,50183,1,H0,1,100,98.336
1576864804.970552,289008.000,50201,1,H0,1,100,98.343
1576864805.095530,289113.000,50219,1,H0,1,100,98.340
1576864805.231221,289227.000,50237,1,H0,1,100,98.343
1576864805.365721,289340.000,50255,1,H0,1,100,98.336
1576864805.503792,289456.000,50272,1,H0,1,100,98.340
1576864805.643054,289573.000,50291,1,H0,1,100,98.332
1576864805.776364,289685.000,50325,1,H0,1,100,98.343
1576864805.903723,289792.000,50343,1,H0,1,100,98.343
1576864806.037033,289904.000,50361,1,H0,1,100,98.340
1576864806.173913,290019.000,50379,1,H0,1,100,98.343
1576864806.308414,290132.000,50397,1,H0,1,100,98.340
1576864806.444104,290246.000,50415,1,H0,1,100,98.340
1576864806.572654,290354.000,50434,1,H0,1,100,98.343
1576864806.700012,290461.000,50451,1,H0,1,100,98.336
1576864806.838084,290577.000,50469,1,H0,1,100,98.340
1576864806.978535,290695.000,50503,1,H0,1,100,98.336
1576864807.105894,290802.000,50521,1,H0,1,100,98.340
1576864807.236824,290912.000,50539,1,H0,1,100,98.340
1576864807.370134,291024.000,50557,1,H0,1,100,98.332
1576864807.507015,291139.000,50575,1,H0,1,100,98.321
1576864807.643895,291254.000,50594,1,H0,1,100,98.328
1576864807.771254,291361.000,50612,1,H0,1,100,98.336
1576864807.899803,291469.000,50631,1,H0,1,100,98.336
1576864808.035494,291583.000,50653,1,H0,1,100,98.332
1576864808.175946,291701.000,50671,1,H0,1,100,98.340
1576864808.310446,291814.000,50689,1,H0,1,100,98.336
1576864808.436614,291920.000,50707,1,H0,1,100,98.336
1576864808.568734,292031.000,50725,1,H0,1,100,98.336
1576864808.706805,292147.000,50743,1,H0,1,100,98.328
1576864808.844876,292263.000,50777,1,H0,1,100,98.324
1576864808.971045,292369.000,50795,1,H0,1,100,98.332
1576864809.096023,292474.000,50813,1,H0,1,100,98.332
1576864809.236475,292592.000,50831,1,H0,1,100,98.340
1576864809.375736,292709.000,50849,1,H0,1,100,98.324
1576864809.512617,292824.000,50867,1,H0,1,100,98.332
1576864809.653069,292942.000,50885,1,H0,1,100,98.336
1576864809.787569,293055.000,50903,1,H0,1,100,98.324
1576864809.912547,293160.000,50921,1,H0,1,100,98.328
1576864810.048238,293274.000,50955,1,H0,1,100,98.328
1576864810.185119,293389.000,50973,1,H0,1,100,98.324
1576864810.319619,293502.000,50991,1,H0,1,100,98.328
1576864810.458881,293619.000,51009,1,H0,1,100,98.332
1576864810.595762,293734.000,51028,1,H0,1,100,98.332
1576864810.719549,293838.000,51046,1,H0,1,100,98.324
1576864810.851669,293949.000,51063,1,H0,1,100,98.328
1576864810.987360,294063.000,51081,1,H0,1,100,98.321
1576864811.121860,294176.000,51099,1,H0,1,100,98.328
1576864811.256361,294289.000,51133,1,H0,1,100,98.328
1576864811.382529,294395.000,51151,1,H0,1,100,98.324
1576864811.517030,294508.000,51170,1,H0,1,100,98.332
1576864811.652720,294622.000,51188,1,H0,1,100,98.336
1576864811.793172,294740.000,51206,1,H0,1,100,98.328
1576864811.920531,294847.000,51224,1,H0,1,100,98.328
1576864812.049080,294955.000,51242,1,H0,1,100,98.321
1576864812.185961,295070.000,51259,1,H0,1,100,98.328
1576864812.324032,295186.000,51277,1,H0,1,100,98.324
1576864812.459722,295300.000,51311,1,H0,1,100,98.317
1576864812.583510,295404.000,51330,1,H0,1,100,98.324
1576864812.713249,295513.000,51348,1,H0,1,100,98.324
1576864812.852511,295630.000,51366,1,H0,1,100,98.313
1576864812.987011,295743.000,51384,1,H0,1,100,98.321
1576864813.117941,295853.000,51402,1,H0,1,100,98.321
1576864813.253631,295967.000,51420,1,H0,1,100,98.324
1576864813.377419,296071.000,51437,1,H0,1,100,98.324
1576864813.503588,296177.000,51455,1,H0,1,100,98.309
1576864813.641659,296293.000,51474,1,H0,1,100,98.309
1576864813.778540,296408.000,51508,1,H0,1,100,98.309
1576864813.910065,296518.500,51529,2,H0,1,100,98.317
1576864814.041589,296629.000,51529,2,H0,1,100,98.317
1576864814.173709,296740.000,51548,1,H0,1,100,98.321
1576864814.308209,296853.000,51566,1,H0,1,100,98.313
1576864814.447471,296970.000,51600,1,H0,1,100,98.309
1576864814.579591,297081.000,51619,1,H0,1,100,98.313
1576864814.703379,297185.000,51637,1,H0,1,100,98.313
1576864814.837879,297298.000,51655,1,H0,1,100,98.309
1576864814.973570,297412.000,51673,1,H0,1,100,98.313
1576864815.110451,297527.000,51691,1,H0,1,100,98.301
1576864815.239000,297635.000,51709,1,H0,1,100,98.309
1576864815.369929,297745.000,51726,1,H0,1,100,98.305
1576864815.504429,297858.000,51744,1,H0,1,100,98.305
1576864815.638930,297971.000,51763,1,H0,1,100,98.309
1576864815.778191,298088.000,51797,1,H0,1,100,98.309
1576864815.903169,298193.000,51815,1,H0,1,100,98.305
1576864816.036479,298305.000,51833,1,H0,1,100,98.305
1576864816.172170,298419.000,51851,1,H0,1,100,98.301
1576864816.310241,298535.000,51869,1,H0,1,100,98.294
1576864816.439981,298644.000,51887,1,H0,1,100,98.301
1576864816.566149,298750.000,51906,1,H0,1,100,98.290
1576864816.700649,298863.000,51923,1,H0,1,100,98.294
1576864816.839911,298980.000,51941,1,H0,1,100,98.301
1576864816.980363,299098.000,51975,1,H0,1,100,98.301
1576864817.117244,299213.000,51993,1,H0,1,100,98.298
1576864817.254124,299328.000,52011,1,H0,1,100,98.290
1576864817.381483,299435.000,52029,1,H0,1,100,98.294
1576864817.510032,299543.000,52047,1,H0,1,100,98.301
1576864817.648103,299659.000,52066,1,H0,1,100,98.290
1576864817.787365,299776.000,52083,1,H0,1,100,98.298
1576864817.924246,299891.000,52101,1,H0,1,100,98.301
1576864818.064697,300009.000,52135,1,H0,1,100,98.294
1576864818.190866,300115.000,52153,1,H0,1,100,98.294
1576864818.317034,300221.000,52171,1,H0,1,100,98.294
1576864818.455106,300337.000,52189,1,H0,1,100,98.294
1576864818.593177,300453.000,52208,1,H0,1,100,98.290
1576864818.725296,300564.000,52226,1,H0,1,100,98.294
1576864818.853845,300672.000,52244,1,H0,1,100,98.305
1576864818.984775,300782.000,52261,1,H0,1,100,98.298
1576864819.122846,300898.000,52279,1,H0,1,100,98.298
1576864819.259727,301013.000,52313,1,H0,1,100,98.298
1576864819.389466,301122.000,52331,1,H0,1,100,98.290
1576864819.515635,301228.000,52350,1,H0,1,100,98.298
1576864819.648945,301340.000,52368,1,H0,1,100,98.290
1576864819.787016,301456.000,52386,1,H0,1,100,98.298
1576864819.925087,301572.000,52404,1,H0,1,100,98.301
1576864820.050066,301677.000,52425,1,H0,1,100,98.294
1576864820.179805,301786.000,52445,1,H0,1,100,98.294
1576864820.316686,301901.000,52463,1,H0,1,100,98.298
1576864820.454757,302017.000,52481,1,H0,1,100,98.290
1576864820.584496,302126.000,52500,1,H0,1,100,98.301
1576864820.709474,302231.000,52518,1,H0,1,100,98.298
1576864820.845165,302345.000,52535,1,H0,1,100,98.290
1576864820.984426,302462.000,52553,1,H0,1,100,98.298
1576864821.118927,302575.000,52571,1,H0,1,100,98.298
1576864821.258188,302692.000,52605,1,H0,1,100,98.294
1576864821.397449,302809.000,52623,1,H0,1,100,98.294
1576864821.522428,302914.000,52642,1,H0,1,100,98.309
1576864821.654547,303025.000,52660,1,H0,1,100,98.290
1576864821.790238,303139.000,52678,1,H0,1,100,98.298
1576864821.924739,303252.000,52696,1,H0,1,100,98.286
1576864822.061620,303367.000,52713,1,H0,1,100,98.298
1576864822.187788,303473.000,52731,1,H0,1,100,98.290
1576864822.316337,303581.000,52749,1,H0,1,100,98.290
1576864822.454408,303697.000,52783,1,H0,1,100,98.294
1576864822.593669,303814.000,52802,1,H0,1,100,98.282
1576864822.721028,303921.000,52820,1,H0,1,100,98.286
1576864822.850768,304030.000,52838,1,H0,1,100,98.286
1576864822.987648,304145.000,52856,1,H0,1,100,98.286
1576864823.124529,304260.000,52874,1,H0,1,100,98.282
1576864823.262600,304376.000,52891,1,H0,1,100,98.286
1576864823.389959,304483.000,52909,1,H0,1,100,98.290
1576864823.517318,304590.000,52927,1,H0,1,100,98.290
1576864823.653009,304704.000,52962,1,H0,1,100,98.294
1576864823.792270,304821.000,52980,1,H0,1,100,98.286
1576864823.924390,304932.000,52998,1,H0,1,100,98.282
1576864824.049368,305037.000,53016,1,H0,1,100,98.290
1576864824.181488,305148.000,53034,1,H0,1,100,98.286
1576864824.319559,305264.000,53052,1,H0,1,100,98.282
1576864824.457630,305380.000,53069,1,H0,1,100,98.282
1576864824.588560,305490.000,53088,1,H0,1,100,98.290
1576864824.724250,305604.000,53106,1,H0,1,100,98.275
