EpochTimestamp,EmotiBitTimestamp,PacketNumber,DataLength,TypeTag,ProtocolVersion,DataReliability,MY
1576863843.800263,41395.000,6816,12,MY,1,100, 3
1576863843.800263,41395.000,6816,12,MY,1,100, 2
1576863843.800263,41395.000,6816,12,MY,1,100, 4
1576863843.800263,41395.000,6816,12,MY,1,100, 4
1576863843.800263,41395.000,6816,12,MY,1,100, 4
1576863843.800263,41395.000,6816,12,MY,1,100, 2
1576863843.800263,41395.000,6816,12,MY,1,100, 3
1576863843.800263,41395.000,6816,12,MY,1,100, 3
1576863843.800263,41395.000,6816,12,MY,1,100, 3
1576863843.800263,41395.000,6816,12,MY,1,100, 3
1576863843.800263,41395.000,6816,12,MY,1,100, 2
1576863843.800263,41395.000,6816,12,MY,1,100, 1
1576863843.838227,41427.000,6832,2,MY,1,100, 2
1576863843.876191,41459.000,6832,2,MY,1,100, 2
1576863843.916924,41493.333,6850,3,MY,1,100, 2
1576863843.957656,41527.667,6850,3,MY,1,100, 1
1576863843.998388,41562.000,6850,3,MY,1,100,-1
1576863844.039516,41596.667,6868,3,MY,1,100, 0
1576863844.080644,41631.333,6868,3,MY,1,100,-1
1576863844.121771,41666.000,6868,3,MY,1,100,-0
1576863844.163295,41701.000,6886,2,MY,1,100,-1
1576863844.204818,41736.000,6886,2,MY,1,100,-1
1576863844.246638,41771.250,6905,4,MY,1,100,-1
1576863844.288457,41806.500,6905,4,MY,1,100, 0
1576863844.330277,41841.750,6905,4,MY,1,100,-0
1576863844.372097,41877.000,6905,4,MY,1,100, 0
1576863844.410456,41909.333,6923,3,MY,1,100,-0
1576863844.448816,41941.667,6923,3,MY,1,100,-1
1576863844.487175,41974.000,6923,3,MY,1,100, 0
1576863844.526326,42007.000,6941,3,MY,1,100, 1
1576863844.565476,42040.000,6941,3,MY,1,100,-1
1576863844.604627,42073.000,6941,3,MY,1,100,-0
1576863844.646150,42108.000,6958,3,MY,1,100,-1
1576863844.687673,42143.000,6958,3,MY,1,100,-1
1576863844.729196,42178.000,6958,3,MY,1,100,-1
1576863844.769928,42212.333,6976,3,MY,1,100,-2
1576863844.810661,42246.667,6976,3,MY,1,100,-3
1576863844.851393,42281.000,6976,3,MY,1,100,-1
1576863844.897662,42320.000,6992,2,MY,1,100,-1
1576863844.943930,42359.000,6992,2,MY,1,100,-1
1576863844.981894,42391.000,7010,3,MY,1,100,-1
1576863845.019859,42423.000,7010,3,MY,1,100, 0
1576863845.057822,42455.000,7010,3,MY,1,100,-1
1576863845.096973,42488.000,7028,4,MY,1,100,-1
1576863845.136123,42521.000,7028,4,MY,1,100,-2
1576863845.175274,42554.000,7028,4,MY,1,100,-1
1576863845.214424,42587.000,7028,4,MY,1,100,-1
1576863845.255947,42622.000,7047,2,MY,1,100,-1
1576863845.297471,42657.000,7047,2,MY,1,100,-1
1576863845.337807,42691.000,7065,3,MY,1,100,-2
1576863845.378144,42725.000,7065,3,MY,1,100,-1
1576863845.418481,42759.000,7065,3,MY,1,100,-0
1576863845.460004,42794.000,7083,3,MY,1,100,-1
1576863845.501527,42829.000,7083,3,MY,1,100,-1
1576863845.543051,42864.000,7083,3,MY,1,100,-1
1576863845.584969,42899.333,7101,3,MY,1,100,-1
1576863845.626888,42934.667,7101,3,MY,1,100,-1
1576863845.668807,42970.000,7101,3,MY,1,100,-1
1576863845.707561,43002.667,7119,3,MY,1,100,-2
1576863845.746316,43035.333,7119,3,MY,1,100,-3
1576863845.785071,43068.000,7119,3,MY,1,100,-1
1576863845.825013,43101.667,7136,3,MY,1,100,-2
1576863845.864954,43135.333,7136,3,MY,1,100,-1
1576863845.904896,43169.000,7136,3,MY,1,100,-3
1576863845.946419,43204.000,7154,3,MY,1,100,-2
1576863845.987942,43239.000,7154,3,MY,1,100,-1
1576863846.029465,43274.000,7154,3,MY,1,100,-0
1576863846.070593,43308.667,7170,3,MY,1,100,-3
1576863846.111721,43343.333,7170,3,MY,1,100,-1
1576863846.152848,43378.000,7170,3,MY,1,100,-1
1576863846.190812,43410.000,7188,3,MY,1,100,-1
1576863846.228776,43442.000,7188,3,MY,1,100,-1
1576863846.266740,43474.000,7188,3,MY,1,100,-1
1576863846.305100,43506.333,7207,3,MY,1,100,-2
1576863846.343459,43538.667,7207,3,MY,1,100,-2
1576863846.381819,43571.000,7207,3,MY,1,100,-1
1576863846.426506,43608.667,7225,3,MY,1,100, 0
1576863846.471193,43646.333,7225,3,MY,1,100, 1
1576863846.515879,43684.000,7225,3,MY,1,100, 0
1576863846.557403,43719.000,7243,3,MY,1,100, 1
1576863846.598926,43754.000,7243,3,MY,1,100, 1
1576863846.640449,43789.000,7243,3,MY,1,100, 1
1576863846.681972,43824.000,7261,3,MY,1,100, 4
1576863846.723495,43859.000,7261,3,MY,1,100, 2
1576863846.765018,43894.000,7261,3,MY,1,100, 2
1576863846.802983,43926.000,7279,3,MY,1,100, 3
1576863846.840947,43958.000,7279,3,MY,1,100, 3
1576863846.878911,43990.000,7279,3,MY,1,100, 4
1576863846.917270,44022.333,7297,3,MY,1,100, 5
1576863846.955630,44054.667,7297,3,MY,1,100, 5
1576863846.993989,44087.000,7297,3,MY,1,100, 5
1576863847.034326,44121.000,7314,3,MY,1,100, 6
1576863847.074663,44155.000,7314,3,MY,1,100, 8
1576863847.115000,44189.000,7314,3,MY,1,100, 8
1576863847.157116,44224.500,7332,2,MY,1,100, 7
1576863847.199232,44260.000,7332,2,MY,1,100, 8
1576863847.243919,44297.667,7349,3,MY,1,100, 8
1576863847.288606,44335.333,7349,3,MY,1,100, 8
1576863847.333293,44373.000,7349,3,MY,1,100, 8
1576863847.373234,44406.667,7367,3,MY,1,100, 7
1576863847.413176,44440.333,7367,3,MY,1,100, 7
1576863847.453117,44474.000,7367,3,MY,1,100, 6
1576863847.489895,44505.000,7385,4,MY,1,100, 5
1576863847.526672,44536.000,7385,4,MY,1,100, 6
1576863847.563450,44567.000,7385,4,MY,1,100, 8
1576863847.600228,44598.000,7385,4,MY,1,100,10
1576863847.640960,44632.333,7403,3,MY,1,100,11
1576863847.681692,44666.667,7403,3,MY,1,100,12
1576863847.722425,44701.000,7403,3,MY,1,100,15
1576863847.763157,44735.333,7421,3,MY,1,100,16
1576863847.803889,44769.667,7421,3,MY,1,100,17
1576863847.844621,44804.000,7421,3,MY,1,100,18
1576863847.890890,44843.000,7439,2,MY,1,100,19
1576863847.937159,44882.000,7439,2,MY,1,100,19
1576863847.978682,44917.000,7457,3,MY,1,100,21
1576863848.020205,44952.000,7457,3,MY,1,100,21
1576863848.061728,44987.000,7457,3,MY,1,100,24
1576863848.099297,45018.667,7475,3,MY,1,100,22
1576863848.136865,45050.333,7475,3,MY,1,100,25
1576863848.174434,45082.000,7475,3,MY,1,100,24
1576863848.213980,45115.333,7493,3,MY,1,100,25
1576863848.253526,45148.667,7493,3,MY,1,100,26
1576863848.293072,45182.000,7493,3,MY,1,100,22
1576863848.332618,45215.333,7511,3,MY,1,100,19
1576863848.372164,45248.667,7511,3,MY,1,100,18
1576863848.411709,45282.000,7511,3,MY,1,100,17
1576863848.453233,45317.000,7527,3,MY,1,100,20
1576863848.494756,45352.000,7527,3,MY,1,100,21
1576863848.536279,45387.000,7527,3,MY,1,100,22
1576863848.581757,45425.333,7545,3,MY,1,100,24
1576863848.627234,45463.667,7545,3,MY,1,100,24
1576863848.672712,45502.000,7545,3,MY,1,100,26
1576863848.710676,45534.000,7563,3,MY,1,100,24
1576863848.748640,45566.000,7563,3,MY,1,100,23
1576863848.786604,45598.000,7563,3,MY,1,100,22
1576863848.824173,45629.667,7581,3,MY,1,100,23
1576863848.861742,45661.333,7581,3,MY,1,100,19
1576863848.899310,45693.000,7581,3,MY,1,100,21
1576863848.939647,45727.000,7599,3,MY,1,100,23
1576863848.979984,45761.000,7599,3,MY,1,100,22
1576863849.020321,45795.000,7599,3,MY,1,100,23
1576863849.061053,45829.333,7617,3,MY,1,100,25
1576863849.101785,45863.667,7617,3,MY,1,100,27
1576863849.142517,45898.000,7617,3,MY,1,100,26
1576863849.183250,45932.333,7635,3,MY,1,100,25
1576863849.223982,45966.667,7635,3,MY,1,100,21
1576863849.264714,46001.000,7635,3,MY,1,100,18
1576863849.303865,46034.000,7654,3,MY,1,100,15
1576863849.343015,46067.000,7654,3,MY,1,100,18
1576863849.382165,46100.000,7654,3,MY,1,100,18
1576863849.424084,46135.333,7671,3,MY,1,100,17
1576863849.466003,46170.667,7671,3,MY,1,100,18
1576863849.507921,46206.000,7671,3,MY,1,100,19
1576863849.547863,46239.667,7689,3,MY,1,100,18
1576863849.587804,46273.333,7689,3,MY,1,100,20
1576863849.627745,46307.000,7689,3,MY,1,100,18
1576863849.669031,46341.800,7710,5,MY,1,100,14
1576863849.710317,46376.600,7710,5,MY,1,100,14
1576863849.751603,46411.400,7710,5,MY,1,100,14
1576863849.792889,46446.200,7710,5,MY,1,100,12
1576863849.834175,46481.000,7710,5,MY,1,100,12
1576863849.875698,46516.000,7730,2,MY,1,100,11
1576863849.917221,46551.000,7730,2,MY,1,100,10
1576863849.955185,46583.000,7748,4,MY,1,100, 9
1576863849.993150,46615.000,7748,4,MY,1,100, 9
1576863850.031114,46647.000,7748,4,MY,1,100,10
1576863850.069077,46679.000,7748,4,MY,1,100, 9
1576863850.108624,46712.333,7765,3,MY,1,100,10
1576863850.148169,46745.667,7765,3,MY,1,100, 9
1576863850.187715,46779.000,7765,3,MY,1,100, 8
1576863850.234577,46818.500,7784,2,MY,1,100, 9
1576863850.281439,46858.000,7784,2,MY,1,100, 8
1576863850.322171,46892.333,7802,3,MY,1,100, 9
1576863850.362904,46926.667,7802,3,MY,1,100, 7
1576863850.403636,46961.000,7802,3,MY,1,100, 8
1576863850.444763,46995.667,7818,3,MY,1,100, 8
1576863850.485891,47030.333,7818,3,MY,1,100, 7
1576863850.527019,47065.000,7818,3,MY,1,100, 8
1576863850.564588,47096.667,7836,3,MY,1,100, 9
1576863850.602156,47128.333,7836,3,MY,1,100, 8
1576863850.639725,47160.000,7836,3,MY,1,100, 8
1576863850.677689,47192.000,7854,4,MY,1,100,10
1576863850.715653,47224.000,7854,4,MY,1,100, 9
1576863850.753617,47256.000,7854,4,MY,1,100, 7
1576863850.791581,47288.000,7854,4,MY,1,100, 8
1576863850.833697,47323.500,7872,2,MY,1,100, 8
1576863850.875814,47359.000,7872,2,MY,1,100,10
1576863850.920501,47396.667,7890,3,MY,1,100,10
1576863850.965187,47434.333,7890,3,MY,1,100, 8
1576863851.009874,47472.000,7890,3,MY,1,100, 9
1576863851.048234,47504.333,7908,3,MY,1,100, 9
1576863851.086593,47536.667,7908,3,MY,1,100, 8
1576863851.124953,47569.000,7908,3,MY,1,100, 8
1576863851.169640,47606.667,7926,3,MY,1,100, 9
1576863851.214327,47644.333,7926,3,MY,1,100, 8
1576863851.259013,47682.000,7926,3,MY,1,100, 9
1576863851.300932,47717.333,7944,3,MY,1,100, 8
1576863851.342851,47752.667,7944,3,MY,1,100, 9
1576863851.384769,47788.000,7944,3,MY,1,100,10
1576863851.423129,47820.333,7962,3,MY,1,100, 8
1576863851.461488,47852.667,7962,3,MY,1,100, 7
1576863851.499848,47885.000,7962,3,MY,1,100, 8
1576863851.537416,47916.667,7979,3,MY,1,100, 7
1576863851.574985,47948.333,7979,3,MY,1,100, 6
1576863851.612554,47980.000,7979,3,MY,1,100, 9
1576863851.652890,48014.000,7996,3,MY,1,100, 8
1576863851.693227,48048.000,7996,3,MY,1,100, 9
1576863851.733564,48082.000,7996,3,MY,1,100, 8
1576863851.775087,48117.000,8014,3,MY,1,100, 8
1576863851.816610,48152.000,8014,3,MY,1,100, 8
1576863851.858134,48187.000,8014,3,MY,1,100, 6
1576863851.905589,48227.000,8032,2,MY,1,100, 9
1576863851.953044,48267.000,8032,2,MY,1,100, 7
1576863851.991601,48299.500,8050,4,MY,1,100, 8
1576863852.030158,48332.000,8050,4,MY,1,100, 8
1576863852.068715,48364.500,8050,4,MY,1,100, 8
1576863852.107273,48397.000,8050,4,MY,1,100, 8
1576863852.145632,48429.333,8068,3,MY,1,100, 8
1576863852.183992,48461.667,8068,3,MY,1,100, 6
1576863852.222351,48494.000,8068,3,MY,1,100, 7
1576863852.262688,48528.000,8087,3,MY,1,100, 8
1576863852.303025,48562.000,8087,3,MY,1,100, 7
1576863852.343362,48596.000,8087,3,MY,1,100, 7
1576863852.383698,48630.000,8105,3,MY,1,100, 8
1576863852.424035,48664.000,8105,3,MY,1,100, 6
1576863852.464372,48698.000,8105,3,MY,1,100, 7
1576863852.505500,48732.667,8122,3,MY,1,100, 6
1576863852.546628,48767.333,8122,3,MY,1,100, 8
1576863852.587755,48802.000,8122,3,MY,1,100, 7
1576863852.632244,48839.500,8140,2,MY,1,100, 9
1576863852.676733,48877.000,8140,2,MY,1,100, 8
1576863852.714401,48908.750,8158,4,MY,1,100, 8
1576863852.752069,48940.500,8158,4,MY,1,100, 8
1576863852.789736,48972.250,8158,4,MY,1,100, 9
1576863852.827403,49004.000,8158,4,MY,1,100, 8
1576863852.868136,49038.333,8174,3,MY,1,100, 8
1576863852.908868,49072.667,8174,3,MY,1,100, 8
1576863852.949600,49107.000,8174,3,MY,1,100,10
1576863852.990728,49141.667,8192,3,MY,1,100, 8
1576863853.031856,49176.333,8192,3,MY,1,100, 9
1576863853.072983,49211.000,8192,3,MY,1,100, 9
1576863853.113913,49245.500,8210,2,MY,1,100, 8
1576863853.154843,49280.000,8210,2,MY,1,100, 8
1576863853.195180,49314.000,8228,3,MY,1,100, 9
1576863853.235517,49348.000,8228,3,MY,1,100, 8
1576863853.275854,49382.000,8228,3,MY,1,100, 8
1576863853.313818,49414.000,8247,3,MY,1,100, 8
1576863853.351782,49446.000,8247,3,MY,1,100, 8
1576863853.389746,49478.000,8247,3,MY,1,100, 8
1576863853.432060,49513.667,8265,3,MY,1,100, 7
1576863853.474374,49549.333,8265,3,MY,1,100,10
1576863853.516688,49585.000,8265,3,MY,1,100, 9
1576863853.556629,49618.667,8283,3,MY,1,100,11
1576863853.596571,49652.333,8283,3,MY,1,100,10
1576863853.636512,49686.000,8283,3,MY,1,100,11
1576863853.677640,49720.667,8300,3,MY,1,100,13
1576863853.718768,49755.333,8300,3,MY,1,100,11
1576863853.759895,49790.000,8300,3,MY,1,100,12
1576863853.801419,49825.000,8318,3,MY,1,100,12
1576863853.842942,49860.000,8318,3,MY,1,100,11
1576863853.884465,49895.000,8318,3,MY,1,100,11
1576863853.921243,49926.000,8336,3,MY,1,100,12
1576863853.958020,49957.000,8336,3,MY,1,100,13
1576863853.994798,49988.000,8336,3,MY,1,100,14
1576863854.033553,50020.667,8352,3,MY,1,100,14
1576863854.072308,50053.333,8352,3,MY,1,100,15
1576863854.111063,50086.000,8352,3,MY,1,100,16
1576863854.155354,50123.333,8370,3,MY,1,100,16
1576863854.199646,50160.667,8370,3,MY,1,100,17
1576863854.243937,50198.000,8370,3,MY,1,100,14
1576863854.281901,50230.000,8389,3,MY,1,100,16
1576863854.319865,50262.000,8389,3,MY,1,100,15
1576863854.357829,50294.000,8389,3,MY,1,100,14
1576863854.403307,50332.333,8407,3,MY,1,100,12
1576863854.448785,50370.667,8407,3,MY,1,100,11
1576863854.494262,50409.000,8407,3,MY,1,100,12
1576863854.531436,50440.333,8425,3,MY,1,100,12
1576863854.568609,50471.667,8425,3,MY,1,100,12
1576863854.605782,50503.000,8425,3,MY,1,100,13
1576863854.650469,50540.667,8443,3,MY,1,100,12
1576863854.695156,50578.333,8443,3,MY,1,100,13
1576863854.739842,50616.000,8443,3,MY,1,100,13
1576863854.781366,50651.000,8460,3,MY,1,100,12
1576863854.822889,50686.000,8460,3,MY,1,100,10
1576863854.864412,50721.000,8460,3,MY,1,100,13
1576863854.904353,50754.667,8478,3,MY,1,100,13
1576863854.944295,50788.333,8478,3,MY,1,100,14
1576863854.984236,50822.000,8478,3,MY,1,100,15
1576863855.022596,50854.333,8494,3,MY,1,100,14
1576863855.060955,50886.667,8494,3,MY,1,100,13
1576863855.099315,50919.000,8494,3,MY,1,100,14
1576863855.138465,50952.000,8512,3,MY,1,100,15
1576863855.177615,50985.000,8512,3,MY,1,100,15
1576863855.216766,51018.000,8512,3,MY,1,100,15
1576863855.254334,51049.667,8531,3,MY,1,100,16
1576863855.291903,51081.333,8531,3,MY,1,100,15
1576863855.329472,51113.000,8531,3,MY,1,100,16
1576863855.369808,51147.000,8549,3,MY,1,100,16
1576863855.410145,51181.000,8549,3,MY,1,100,16
1576863855.450482,51215.000,8549,3,MY,1,100,16
1576863855.491610,51249.667,8567,3,MY,1,100,18
1576863855.532737,51284.333,8567,3,MY,1,100,18
1576863855.573865,51319.000,8567,3,MY,1,100,18
1576863855.615388,51354.000,8585,3,MY,1,100,19
1576863855.656912,51389.000,8585,3,MY,1,100,17
1576863855.698435,51424.000,8585,3,MY,1,100,17
1576863855.739009,51458.200,8606,5,MY,1,100,17
1576863855.779583,51492.400,8606,5,MY,1,100,16
1576863855.820157,51526.600,8606,5,MY,1,100,15
1576863855.860731,51560.800,8606,5,MY,1,100,14
1576863855.901305,51595.000,8606,5,MY,1,100,13
1576863855.940456,51628.000,8626,3,MY,1,100,11
1576863855.979606,51661.000,8626,3,MY,1,100,10
1576863856.018757,51694.000,8626,3,MY,1,100,11
1576863856.059093,51728.000,8644,3,MY,1,100,12
1576863856.099430,51762.000,8644,3,MY,1,100,10
1576863856.139767,51796.000,8644,3,MY,1,100,11
1576863856.180697,51830.500,8662,2,MY,1,100, 7
1576863856.221627,51865.000,8662,2,MY,1,100, 6
1576863856.263150,51900.000,8681,3,MY,1,100, 5
1576863856.304673,51935.000,8681,3,MY,1,100, 7
1576863856.346196,51970.000,8681,3,MY,1,100, 6
1576863856.388115,52005.333,8699,3,MY,1,100, 6
1576863856.430034,52040.667,8699,3,MY,1,100, 7
1576863856.471952,52076.000,8699,3,MY,1,100, 8
1576863856.510312,52108.333,8717,3,MY,1,100, 7
1576863856.548671,52140.667,8717,3,MY,1,100, 7
1576863856.587031,52173.000,8717,3,MY,1,100, 4
1576863856.627368,52207.000,8735,3,MY,1,100, 8
1576863856.667705,52241.000,8735,3,MY,1,100, 9
1576863856.708041,52275.000,8735,3,MY,1,100, 9
1576863856.749565,52310.000,8752,3,MY,1,100, 8
1576863856.791088,52345.000,8752,3,MY,1,100, 8
1576863856.832611,52380.000,8752,3,MY,1,100, 9
1576863856.874134,52415.000,8770,3,MY,1,100, 8
1576863856.915657,52450.000,8770,3,MY,1,100, 7
1576863856.957181,52485.000,8770,3,MY,1,100,11
1576863856.995540,52517.333,8786,3,MY,1,100,10
1576863857.033900,52549.667,8786,3,MY,1,100, 8
1576863857.072259,52582.000,8786,3,MY,1,100,10
1576863857.110223,52614.000,8804,3,MY,1,100,10
1576863857.148187,52646.000,8804,3,MY,1,100, 8
1576863857.186151,52678.000,8804,3,MY,1,100, 8
1576863857.230047,52715.000,8823,3,MY,1,100, 9
1576863857.273943,52752.000,8823,3,MY,1,100, 6
1576863857.317839,52789.000,8823,3,MY,1,100, 5
1576863857.358571,52823.333,8841,3,MY,1,100, 5
1576863857.399303,52857.667,8841,3,MY,1,100, 3
1576863857.440036,52892.000,8841,3,MY,1,100, 5
1576863857.480768,52926.333,8859,3,MY,1,100, 5
1576863857.521500,52960.667,8859,3,MY,1,100, 5
1576863857.562232,52995.000,8859,3,MY,1,100, 4
1576863857.602174,53028.667,8877,3,MY,1,100, 3
1576863857.642115,53062.333,8877,3,MY,1,100, 4
1576863857.682057,53096.000,8877,3,MY,1,100, 4
1576863857.718834,53127.000,8895,3,MY,1,100, 4
1576863857.755612,53158.000,8895,3,MY,1,100, 2
1576863857.792390,53189.000,8895,3,MY,1,100, 5
1576863857.833122,53223.333,8913,3,MY,1,100, 3
1576863857.873854,53257.667,8913,3,MY,1,100, 3
1576863857.914587,53292.000,8913,3,MY,1,100, 2
1576863857.952155,53323.667,8931,3,MY,1,100, 2
1576863857.989724,53355.333,8931,3,MY,1,100, 1
1576863858.027292,53387.000,8931,3,MY,1,100, 3
1576863858.072375,53425.000,8948,3,MY,1,100, 3
1576863858.117457,53463.000,8948,3,MY,1,100, 4
1576863858.162539,53501.000,8948,3,MY,1,100, 6
1576863858.203667,53535.667,8964,3,MY,1,100, 4
1576863858.244795,53570.333,8964,3,MY,1,100, 4
1576863858.285922,53605.000,8964,3,MY,1,100, 4
1576863858.326655,53639.333,8983,3,MY,1,100, 5
1576863858.367387,53673.667,8983,3,MY,1,100, 5
1576863858.408119,53708.000,8983,3,MY,1,100, 4
1576863858.449247,53742.667,9001,3,MY,1,100, 2
1576863858.490375,53777.333,9001,3,MY,1,100, 1
1576863858.531502,53812.000,9001,3,MY,1,100, 2
1576863858.573025,53847.000,9019,2,MY,1,100, 1
1576863858.614549,53882.000,9019,2,MY,1,100,-0
1576863858.653106,53914.500,9037,4,MY,1,100,-2
1576863858.691663,53947.000,9037,4,MY,1,100,-4
1576863858.730220,53979.500,9037,4,MY,1,100,-5
1576863858.768778,54012.000,9037,4,MY,1,100,-5
1576863858.807928,54045.000,9055,3,MY,1,100,-5
1576863858.847079,54078.000,9055,3,MY,1,100,-7
1576863858.886229,54111.000,9055,3,MY,1,100,-7
1576863858.925775,54144.333,9073,3,MY,1,100,-7
1576863858.965321,54177.667,9073,3,MY,1,100,-3
1576863859.004867,54211.000,9073,3,MY,1,100,-3
1576863859.047576,54247.000,9090,2,MY,1,100, 0
1576863859.090286,54283.000,9090,2,MY,1,100, 4
1576863859.130919,54317.250,9108,4,MY,1,100, 7
1576863859.171552,54351.500,9108,4,MY,1,100, 5
1576863859.212186,54385.750,9108,4,MY,1,100, 2
1576863859.252819,54420.000,9108,4,MY,1,100, 2
1576863859.294343,54455.000,9125,2,MY,1,100, 5
1576863859.335866,54490.000,9125,2,MY,1,100, 5
1576863859.380948,54528.000,9143,3,MY,1,100, 9
1576863859.426030,54566.000,9143,3,MY,1,100,10
1576863859.471113,54604.000,9143,3,MY,1,100,14
1576863859.509472,54636.333,9161,3,MY,1,100,13
1576863859.547832,54668.667,9161,3,MY,1,100,14
1576863859.586191,54701.000,9161,3,MY,1,100,15
1576863859.623760,54732.667,9179,3,MY,1,100,18
1576863859.661328,54764.333,9179,3,MY,1,100,22
1576863859.698897,54796.000,9179,3,MY,1,100,23
1576863859.738838,54829.667,9197,3,MY,1,100,26
1576863859.778780,54863.333,9197,3,MY,1,100,27
1576863859.818721,54897.000,9197,3,MY,1,100,29
1576863859.859453,54931.333,9215,3,MY,1,100,30
1576863859.900186,54965.667,9215,3,MY,1,100,31
1576863859.940918,55000.000,9215,3,MY,1,100,30
1576863859.982045,55034.667,9233,3,MY,1,100,29
1576863860.023173,55069.333,9233,3,MY,1,100,30
1576863860.064301,55104.000,9233,3,MY,1,100,31
1576863860.107406,55140.333,9251,3,MY,1,100,30
1576863860.150511,55176.667,9251,3,MY,1,100,31
1576863860.193616,55213.000,9251,3,MY,1,100,32
1576863860.231580,55245.000,9270,3,MY,1,100,33
1576863860.269544,55277.000,9270,3,MY,1,100,35
1576863860.307508,55309.000,9270,3,MY,1,100,35
1576863860.347450,55342.667,9287,3,MY,1,100,35
1576863860.387391,55376.333,9287,3,MY,1,100,36
1576863860.427332,55410.000,9287,3,MY,1,100,35
1576863860.468855,55445.000,9305,3,MY,1,100,38
1576863860.510379,55480.000,9305,3,MY,1,100,36
1576863860.551902,55515.000,9305,3,MY,1,100,37
1576863860.593029,55549.667,9321,3,MY,1,100,37
1576863860.634157,55584.333,9321,3,MY,1,100,39
1576863860.675285,55619.000,9321,3,MY,1,100,39
1576863860.715226,55652.667,9339,3,MY,1,100,39
1576863860.755168,55686.333,9339,3,MY,1,100,37
1576863860.795109,55720.000,9339,3,MY,1,100,37
1576863860.836237,55754.667,9357,3,MY,1,100,38
1576863860.877364,55789.333,9357,3,MY,1,100,37
1576863860.918492,55824.000,9357,3,MY,1,100,37
1576863860.958038,55857.333,9375,3,MY,1,100,37
1576863860.997584,55890.667,9375,3,MY,1,100,37
1576863861.037130,55924.000,9375,3,MY,1,100,37
1576863861.078258,55958.667,9393,3,MY,1,100,37
1576863861.119385,55993.333,9393,3,MY,1,100,36
1576863861.160513,56028.000,9393,3,MY,1,100,37
1576863861.201641,56062.667,9411,3,MY,1,100,36
1576863861.242769,56097.333,9411,3,MY,1,100,38
1576863861.283896,56132.000,9411,3,MY,1,100,38
1576863861.323047,56165.000,9430,3,MY,1,100,36
1576863861.362197,56198.000,9430,3,MY,1,100,37
1576863861.401347,56231.000,9430,3,MY,1,100,38
1576863861.439312,56263.000,9448,3,MY,1,100,37
1576863861.477276,56295.000,9448,3,MY,1,100,36
1576863861.515240,56327.000,9448,3,MY,1,100,34
1576863861.557949,56363.000,9465,3,MY,1,100,36
1576863861.600659,56399.000,9465,3,MY,1,100,35
1576863861.643368,56435.000,9465,3,MY,1,100,35
1576863861.679355,56465.333,9483,3,MY,1,100,37
1576863861.715342,56495.667,9483,3,MY,1,100,37
1576863861.751328,56526.000,9483,3,MY,1,100,33
1576863861.791428,56559.800,9504,5,MY,1,100,35
1576863861.831528,56593.600,9504,5,MY,1,100,35
1576863861.871627,56627.400,9504,5,MY,1,100,35
1576863861.911727,56661.200,9504,5,MY,1,100,35
1576863861.951826,56695.000,9504,5,MY,1,100,36
1576863861.992163,56729.000,9522,2,MY,1,100,34
1576863862.032500,56763.000,9522,2,MY,1,100,35
1576863862.077187,56800.667,9541,3,MY,1,100,35
1576863862.121874,56838.333,9541,3,MY,1,100,36
1576863862.166560,56876.000,9541,3,MY,1,100,36
1576863862.207688,56910.667,9560,3,MY,1,100,36
1576863862.248816,56945.333,9560,3,MY,1,100,37
1576863862.289944,56980.000,9560,3,MY,1,100,34
1576863862.331071,57014.667,9578,3,MY,1,100,33
1576863862.372199,57049.333,9578,3,MY,1,100,35
1576863862.413327,57084.000,9578,3,MY,1,100,35
1576863862.450895,57115.667,9594,3,MY,1,100,34
1576863862.488464,57147.333,9594,3,MY,1,100,35
1576863862.526032,57179.000,9594,3,MY,1,100,36
1576863862.564788,57211.667,9612,3,MY,1,100,36
1576863862.603543,57244.333,9612,3,MY,1,100,34
1576863862.642298,57277.000,9612,3,MY,1,100,37
1576863862.683425,57311.667,9630,3,MY,1,100,35
1576863862.724553,57346.333,9630,3,MY,1,100,35
1576863862.765681,57381.000,9630,3,MY,1,100,35
1576863862.806808,57415.667,9648,3,MY,1,100,35
1576863862.847936,57450.333,9648,3,MY,1,100,37
1576863862.889064,57485.000,9648,3,MY,1,100,37
1576863862.934541,57523.333,9666,3,MY,1,100,34
1576863862.980019,57561.667,9666,3,MY,1,100,36
1576863863.025497,57600.000,9666,3,MY,1,100,35
1576863863.062670,57631.333,9684,3,MY,1,100,35
1576863863.099844,57662.667,9684,3,MY,1,100,35
1576863863.137017,57694.000,9684,3,MY,1,100,37
1576863863.175376,57726.333,9702,3,MY,1,100,36
1576863863.213736,57758.667,9702,3,MY,1,100,34
1576863863.252095,57791.000,9702,3,MY,1,100,33
1576863863.292827,57825.333,9721,3,MY,1,100,35
1576863863.333560,57859.667,9721,3,MY,1,100,35
1576863863.374292,57894.000,9721,3,MY,1,100,35
1576863863.414233,57927.667,9738,3,MY,1,100,35
1576863863.454175,57961.333,9738,3,MY,1,100,35
1576863863.494116,57995.000,9738,3,MY,1,100,36
1576863863.539594,58033.333,9756,3,MY,1,100,36
1576863863.585072,58071.667,9756,3,MY,1,100,35
1576863863.630549,58110.000,9756,3,MY,1,100,35
1576863863.668513,58142.000,9772,3,MY,1,100,35
1576863863.706477,58174.000,9772,3,MY,1,100,35
1576863863.744441,58206.000,9772,3,MY,1,100,35
1576863863.782801,58238.333,9790,3,MY,1,100,36
1576863863.821160,58270.667,9790,3,MY,1,100,35
1576863863.859520,58303.000,9790,3,MY,1,100,35
1576863863.899857,58337.000,9808,3,MY,1,100,34
1576863863.940193,58371.000,9808,3,MY,1,100,33
1576863863.980530,58405.000,9808,3,MY,1,100,35
1576863864.021263,58439.333,9826,3,MY,1,100,34
1576863864.061995,58473.667,9826,3,MY,1,100,35
1576863864.102727,58508.000,9826,3,MY,1,100,35
1576863864.143855,58542.667,9844,3,MY,1,100,34
1576863864.184983,58577.333,9844,3,MY,1,100,33
1576863864.226110,58612.000,9844,3,MY,1,100,34
1576863864.265261,58645.000,9863,2,MY,1,100,34
1576863864.304411,58678.000,9863,2,MY,1,100,34
1576863864.345341,58712.500,9881,4,MY,1,100,34
1576863864.386271,58747.000,9881,4,MY,1,100,34
1576863864.427201,58781.500,9881,4,MY,1,100,35
1576863864.468131,58816.000,9881,4,MY,1,100,34
1576863864.507282,58849.000,9899,3,MY,1,100,35
1576863864.546432,58882.000,9899,3,MY,1,100,34
1576863864.585582,58915.000,9899,3,MY,1,100,34
1576863864.627699,58950.500,9916,2,MY,1,100,35
1576863864.669815,58986.000,9916,2,MY,1,100,34
1576863864.710745,59020.500,9934,4,MY,1,100,36
1576863864.751675,59055.000,9934,4,MY,1,100,34
1576863864.792605,59089.500,9934,4,MY,1,100,34
1576863864.833535,59124.000,9934,4,MY,1,100,35
1576863864.871895,59156.333,9950,3,MY,1,100,34
1576863864.910254,59188.667,9950,3,MY,1,100,34
1576863864.948614,59221.000,9950,3,MY,1,100,34
1576863864.986973,59253.333,9968,3,MY,1,100,35
1576863865.025333,59285.667,9968,3,MY,1,100,35
1576863865.063692,59318.000,9968,3,MY,1,100,34
1576863865.108774,59356.000,9986,2,MY,1,100,35
1576863865.153857,59394.000,9986,2,MY,1,100,35
1576863865.192711,59426.750,10005,4,MY,1,100,35
1576863865.231565,59459.500,10005,4,MY,1,100,34
1576863865.270418,59492.250,10005,4,MY,1,100,35
1576863865.309272,59525.000,10005,4,MY,1,100,35
1576863865.354948,59563.500,10023,2,MY,1,100,35
1576863865.400623,59602.000,10023,2,MY,1,100,35
1576863865.438587,59634.000,10041,3,MY,1,100,34
1576863865.476551,59666.000,10041,3,MY,1,100,35
1576863865.514515,59698.000,10041,3,MY,1,100,34
1576863865.558411,59735.000,10059,3,MY,1,100,35
1576863865.602307,59772.000,10059,3,MY,1,100,35
1576863865.646203,59809.000,10059,3,MY,1,100,34
1576863865.687331,59843.667,10076,3,MY,1,100,34
1576863865.728459,59878.333,10076,3,MY,1,100,34
1576863865.769586,59913.000,10076,3,MY,1,100,35
1576863865.811110,59948.000,10094,3,MY,1,100,34
1576863865.852633,59983.000,10094,3,MY,1,100,34
1576863865.894156,60018.000,10094,3,MY,1,100,34
1576863865.932911,60050.667,10110,3,MY,1,100,34
1576863865.971666,60083.333,10110,3,MY,1,100,34
1576863866.010421,60116.000,10110,3,MY,1,100,35
1576863866.050758,60150.000,10128,3,MY,1,100,35
1576863866.091094,60184.000,10128,3,MY,1,100,36
1576863866.131431,60218.000,10128,3,MY,1,100,34
1576863866.169395,60250.000,10146,3,MY,1,100,33
1576863866.207359,60282.000,10146,3,MY,1,100,35
1576863866.245323,60314.000,10146,3,MY,1,100,36
1576863866.283683,60346.333,10165,3,MY,1,100,34
1576863866.322042,60378.667,10165,3,MY,1,100,35
1576863866.360402,60411.000,10165,3,MY,1,100,35
1576863866.401134,60445.333,10183,3,MY,1,100,34
1576863866.441866,60479.667,10183,3,MY,1,100,34
1576863866.482599,60514.000,10183,3,MY,1,100,35
1576863866.522936,60548.000,10201,3,MY,1,100,35
1576863866.563272,60582.000,10201,3,MY,1,100,34
1576863866.603609,60616.000,10201,3,MY,1,100,35
1576863866.649087,60654.333,10219,3,MY,1,100,34
1576863866.694565,60692.667,10219,3,MY,1,100,35
1576863866.740042,60731.000,10219,3,MY,1,100,34
1576863866.777611,60762.667,10237,3,MY,1,100,36
1576863866.815180,60794.333,10237,3,MY,1,100,35
1576863866.852748,60826.000,10237,3,MY,1,100,34
1576863866.891503,60858.667,10255,3,MY,1,100,34
1576863866.930258,60891.333,10255,3,MY,1,100,35
1576863866.969013,60924.000,10255,3,MY,1,100,33
1576863867.008559,60957.333,10272,3,MY,1,100,36
1576863867.048105,60990.667,10272,3,MY,1,100,35
1576863867.087651,61024.000,10272,3,MY,1,100,34
1576863867.129174,61059.000,10290,3,MY,1,100,35
1576863867.170697,61094.000,10290,3,MY,1,100,34
1576863867.212220,61129.000,10290,3,MY,1,100,35
1576863867.253348,61163.667,10307,3,MY,1,100,34
1576863867.294476,61198.333,10307,3,MY,1,100,37
1576863867.335603,61233.000,10307,3,MY,1,100,35
1576863867.377918,61268.667,10325,3,MY,1,100,34
1576863867.420232,61304.333,10325,3,MY,1,100,36
1576863867.462546,61340.000,10325,3,MY,1,100,34
1576863867.500510,61372.000,10343,3,MY,1,100,35
1576863867.538474,61404.000,10343,3,MY,1,100,34
1576863867.576438,61436.000,10343,3,MY,1,100,34
1576863867.616775,61470.000,10361,3,MY,1,100,31
1576863867.657112,61504.000,10361,3,MY,1,100,34
1576863867.697448,61538.000,10361,3,MY,1,100,33
1576863867.738972,61573.000,10379,3,MY,1,100,34
1576863867.780495,61608.000,10379,3,MY,1,100,34
1576863867.822018,61643.000,10379,3,MY,1,100,35
1576863867.863838,61678.250,10400,4,MY,1,100,34
1576863867.905658,61713.500,10400,4,MY,1,100,34
1576863867.947477,61748.750,10400,4,MY,1,100,36
1576863867.989297,61784.000,10400,4,MY,1,100,34
1576863868.026470,61815.333,10420,3,MY,1,100,33
1576863868.063643,61846.667,10420,3,MY,1,100,35
1576863868.100816,61878.000,10420,3,MY,1,100,34
1576863868.142735,61913.333,10438,3,MY,1,100,34
1576863868.184654,61948.667,10438,3,MY,1,100,34
1576863868.226573,61984.000,10438,3,MY,1,100,34
1576863868.267700,62018.667,10457,3,MY,1,100,37
1576863868.308828,62053.333,10457,3,MY,1,100,34
1576863868.349956,62088.000,10457,3,MY,1,100,34
1576863868.391083,62122.667,10475,3,MY,1,100,35
1576863868.432211,62157.333,10475,3,MY,1,100,35
1576863868.473339,62192.000,10475,3,MY,1,100,33
1576863868.514071,62226.333,10493,3,MY,1,100,34
1576863868.554803,62260.667,10493,3,MY,1,100,34
1576863868.595536,62295.000,10493,3,MY,1,100,33
1576863868.633500,62327.000,10511,3,MY,1,100,34
1576863868.671464,62359.000,10511,3,MY,1,100,36
1576863868.709428,62391.000,10511,3,MY,1,100,34
1576863868.746996,62422.667,10529,3,MY,1,100,35
1576863868.784565,62454.333,10529,3,MY,1,100,33
1576863868.822134,62486.000,10529,3,MY,1,100,33
1576863868.866820,62523.667,10546,3,MY,1,100,34
1576863868.911507,62561.333,10546,3,MY,1,100,33
1576863868.956194,62599.000,10546,3,MY,1,100,35
1576863868.997322,62633.667,10564,3,MY,1,100,34
1576863869.038450,62668.333,10564,3,MY,1,100,35
1576863869.079577,62703.000,10564,3,MY,1,100,34
1576863869.120705,62737.667,10580,3,MY,1,100,35
1576863869.161833,62772.333,10580,3,MY,1,100,34
1576863869.202960,62807.000,10580,3,MY,1,100,34
1576863869.241320,62839.333,10599,3,MY,1,100,34
1576863869.279680,62871.667,10599,3,MY,1,100,36
1576863869.318039,62904.000,10599,3,MY,1,100,35
1576863869.361935,62941.000,10617,3,MY,1,100,34
1576863869.405831,62978.000,10617,3,MY,1,100,34
1576863869.449727,63015.000,10617,3,MY,1,100,34
1576863869.490459,63049.333,10635,3,MY,1,100,34
1576863869.531191,63083.667,10635,3,MY,1,100,34
1576863869.571923,63118.000,10635,3,MY,1,100,34
1576863869.614040,63153.500,10653,2,MY,1,100,34
1576863869.656156,63189.000,10653,2,MY,1,100,35
1576863869.694120,63221.000,10671,4,MY,1,100,34
1576863869.732085,63253.000,10671,4,MY,1,100,35
1576863869.770048,63285.000,10671,4,MY,1,100,34
1576863869.808012,63317.000,10671,4,MY,1,100,35
1576863869.846767,63349.667,10689,3,MY,1,100,35
1576863869.885522,63382.333,10689,3,MY,1,100,34
1576863869.924277,63415.000,10689,3,MY,1,100,34
1576863869.965010,63449.333,10706,3,MY,1,100,34
1576863870.005742,63483.667,10706,3,MY,1,100,34
1576863870.046474,63518.000,10706,3,MY,1,100,34
1576863870.087404,63552.500,10724,2,MY,1,100,34
1576863870.128334,63587.000,10724,2,MY,1,100,34
1576863870.173021,63624.667,10740,3,MY,1,100,37
1576863870.217708,63662.333,10740,3,MY,1,100,35
1576863870.262395,63700.000,10740,3,MY,1,100,34
1576863870.301150,63732.667,10759,3,MY,1,100,34
1576863870.339905,63765.333,10759,3,MY,1,100,34
1576863870.378660,63798.000,10759,3,MY,1,100,36
1576863870.416624,63830.000,10777,4,MY,1,100,34
1576863870.454588,63862.000,10777,4,MY,1,100,34
1576863870.492552,63894.000,10777,4,MY,1,100,34
1576863870.530516,63926.000,10777,4,MY,1,100,35
1576863870.570457,63959.667,10795,3,MY,1,100,35
1576863870.610399,63993.333,10795,3,MY,1,100,35
1576863870.650340,64027.000,10795,3,MY,1,100,34
1576863870.691270,64061.500,10813,2,MY,1,100,36
1576863870.732200,64096.000,10813,2,MY,1,100,34
1576863870.773328,64130.667,10831,3,MY,1,100,35
1576863870.814455,64165.333,10831,3,MY,1,100,36
1576863870.855583,64200.000,10831,3,MY,1,100,34
1576863870.899084,64236.667,10849,3,MY,1,100,35
1576863870.942584,64273.333,10849,3,MY,1,100,34
1576863870.986084,64310.000,10849,3,MY,1,100,34
1576863871.023258,64341.333,10867,3,MY,1,100,36
1576863871.060431,64372.667,10867,3,MY,1,100,35
1576863871.097604,64404.000,10867,3,MY,1,100,34
1576863871.137150,64437.333,10884,3,MY,1,100,34
1576863871.176696,64470.667,10884,3,MY,1,100,35
1576863871.216242,64504.000,10884,3,MY,1,100,33
1576863871.257765,64539.000,10903,3,MY,1,100,35
1576863871.299288,64574.000,10903,3,MY,1,100,36
1576863871.340811,64609.000,10903,3,MY,1,100,34
1576863871.381939,64643.667,10919,3,MY,1,100,34
1576863871.423067,64678.333,10919,3,MY,1,100,34
1576863871.464194,64713.000,10919,3,MY,1,100,34
1576863871.504531,64747.000,10937,3,MY,1,100,34
1576863871.544868,64781.000,10937,3,MY,1,100,35
1576863871.585205,64815.000,10937,3,MY,1,100,35
1576863871.625937,64849.333,10955,3,MY,1,100,35
1576863871.666669,64883.667,10955,3,MY,1,100,35
1576863871.707402,64918.000,10955,3,MY,1,100,35
1576863871.745761,64950.333,10973,3,MY,1,100,36
1576863871.784121,64982.667,10973,3,MY,1,100,35
1576863871.822480,65015.000,10973,3,MY,1,100,35
1576863871.863212,65049.333,10991,3,MY,1,100,34
1576863871.903945,65083.667,10991,3,MY,1,100,35
1576863871.944677,65118.000,10991,3,MY,1,100,35
1576863871.985805,65152.667,11009,3,MY,1,100,35
1576863872.026932,65187.333,11009,3,MY,1,100,35
1576863872.068060,65222.000,11009,3,MY,1,100,35
1576863872.107606,65255.333,11027,3,MY,1,100,35
1576863872.147152,65288.667,11027,3,MY,1,100,35
1576863872.186698,65322.000,11027,3,MY,1,100,34
1576863872.224662,65354.000,11046,3,MY,1,100,36
1576863872.262626,65386.000,11046,3,MY,1,100,34
1576863872.300590,65418.000,11046,3,MY,1,100,34
1576863872.343299,65454.000,11064,3,MY,1,100,36
1576863872.386009,65490.000,11064,3,MY,1,100,33
1576863872.428719,65526.000,11064,3,MY,1,100,35
1576863872.464705,65556.333,11081,3,MY,1,100,35
1576863872.500692,65586.667,11081,3,MY,1,100,34
1576863872.536679,65617.000,11081,3,MY,1,100,35
1576863872.581366,65654.667,11099,3,MY,1,100,34
1576863872.626053,65692.333,11099,3,MY,1,100,34
1576863872.670739,65730.000,11099,3,MY,1,100,34
1576863872.705144,65759.000,11117,3,MY,1,100,36
1576863872.739549,65788.000,11117,3,MY,1,100,35
1576863872.773954,65817.000,11117,3,MY,1,100,35
1576863872.818641,65854.667,11133,3,MY,1,100,35
1576863872.863328,65892.333,11133,3,MY,1,100,33
1576863872.908015,65930.000,11133,3,MY,1,100,34
1576863872.949538,65965.000,11151,3,MY,1,100,35
1576863872.991061,66000.000,11151,3,MY,1,100,34
1576863873.032584,66035.000,11151,3,MY,1,100,34
1576863873.074503,66070.333,11169,3,MY,1,100,34
1576863873.116421,66105.667,11169,3,MY,1,100,33
1576863873.158340,66141.000,11169,3,MY,1,100,36
1576863873.197095,66173.667,11187,3,MY,1,100,35
1576863873.235850,66206.333,11187,3,MY,1,100,36
1576863873.274605,66239.000,11187,3,MY,1,100,34
1576863873.316919,66274.667,11206,3,MY,1,100,35
1576863873.359233,66310.333,11206,3,MY,1,100,34
1576863873.401547,66346.000,11206,3,MY,1,100,35
1576863873.439116,66377.667,11224,3,MY,1,100,35
1576863873.476685,66409.333,11224,3,MY,1,100,34
1576863873.514253,66441.000,11224,3,MY,1,100,35
1576863873.553008,66473.667,11242,3,MY,1,100,34
1576863873.591763,66506.333,11242,3,MY,1,100,35
1576863873.630518,66539.000,11242,3,MY,1,100,34
1576863873.671250,66573.333,11259,3,MY,1,100,37
1576863873.711983,66607.667,11259,3,MY,1,100,35
1576863873.752715,66642.000,11259,3,MY,1,100,37
1576863873.793843,66676.667,11277,3,MY,1,100,36
1576863873.834970,66711.333,11277,3,MY,1,100,34
1576863873.876098,66746.000,11277,3,MY,1,100,34
1576863873.919401,66782.500,11296,4,MY,1,100,33
1576863873.962703,66819.000,11296,4,MY,1,100,35
1576863874.006006,66855.500,11296,4,MY,1,100,36
1576863874.049309,66892.000,11296,4,MY,1,100,34
1576863874.087273,66924.000,11318,3,MY,1,100,35
1576863874.125237,66956.000,11318,3,MY,1,100,35
1576863874.163201,66988.000,11318,3,MY,1,100,35
1576863874.202055,67020.750,11337,4,MY,1,100,35
1576863874.240909,67053.500,11337,4,MY,1,100,35
1576863874.279763,67086.250,11337,4,MY,1,100,34
1576863874.318617,67119.000,11337,4,MY,1,100,34
1576863874.359547,67153.500,11354,2,MY,1,100,35
1576863874.400476,67188.000,11354,2,MY,1,100,34
1576863874.440813,67222.000,11372,3,MY,1,100,35
1576863874.481150,67256.000,11372,3,MY,1,100,34
1576863874.521487,67290.000,11372,3,MY,1,100,35
1576863874.565778,67327.333,11388,3,MY,1,100,35
1576863874.610070,67364.667,11388,3,MY,1,100,34
1576863874.654361,67402.000,11388,3,MY,1,100,35
1576863874.692325,67434.000,11406,3,MY,1,100,35
1576863874.730289,67466.000,11406,3,MY,1,100,35
1576863874.768253,67498.000,11406,3,MY,1,100,34
1576863874.807008,67530.667,11424,3,MY,1,100,34
1576863874.845763,67563.333,11424,3,MY,1,100,35
1576863874.884518,67596.000,11424,3,MY,1,100,34
1576863874.924855,67630.000,11442,3,MY,1,100,35
1576863874.965192,67664.000,11442,3,MY,1,100,36
1576863875.005529,67698.000,11442,3,MY,1,100,36
1576863875.047052,67733.000,11460,3,MY,1,100,34
1576863875.088575,67768.000,11460,3,MY,1,100,34
1576863875.130098,67803.000,11460,3,MY,1,100,34
1576863875.171621,67838.000,11478,3,MY,1,100,36
1576863875.213145,67873.000,11478,3,MY,1,100,35
1576863875.254668,67908.000,11478,3,MY,1,100,35
1576863875.292632,67940.000,11497,3,MY,1,100,34
1576863875.330596,67972.000,11497,3,MY,1,100,35
1576863875.368560,68004.000,11497,3,MY,1,100,36
1576863875.410874,68039.667,11515,3,MY,1,100,33
1576863875.453188,68075.333,11515,3,MY,1,100,34
1576863875.495502,68111.000,11515,3,MY,1,100,35
1576863875.535839,68145.000,11532,3,MY,1,100,33
1576863875.576176,68179.000,11532,3,MY,1,100,34
1576863875.616513,68213.000,11532,3,MY,1,100,35
1576863875.657640,68247.667,11550,3,MY,1,100,36
1576863875.698768,68282.333,11550,3,MY,1,100,35
1576863875.739896,68317.000,11550,3,MY,1,100,35
1576863875.781815,68352.333,11566,3,MY,1,100,35
1576863875.823733,68387.667,11566,3,MY,1,100,34
1576863875.865652,68423.000,11566,3,MY,1,100,35
1576863875.903220,68454.667,11584,3,MY,1,100,34
1576863875.940789,68486.333,11584,3,MY,1,100,35
1576863875.978358,68518.000,11584,3,MY,1,100,35
1576863876.016322,68550.000,11602,3,MY,1,100,35
1576863876.054286,68582.000,11602,3,MY,1,100,33
1576863876.092250,68614.000,11602,3,MY,1,100,35
1576863876.136541,68651.333,11620,3,MY,1,100,35
1576863876.180832,68688.667,11620,3,MY,1,100,35
1576863876.225124,68726.000,11620,3,MY,1,100,35
1576863876.262297,68757.333,11639,3,MY,1,100,34
1576863876.299470,68788.667,11639,3,MY,1,100,34
1576863876.336643,68820.000,11639,3,MY,1,100,35
1576863876.383505,68859.500,11657,2,MY,1,100,35
1576863876.430367,68899.000,11657,2,MY,1,100,35
1576863876.468331,68931.000,11675,4,MY,1,100,34
1576863876.506295,68963.000,11675,4,MY,1,100,34
1576863876.544259,68995.000,11675,4,MY,1,100,34
1576863876.582223,69027.000,11675,4,MY,1,100,34
1576863876.629678,69067.000,11692,2,MY,1,100,35
1576863876.677133,69107.000,11692,2,MY,1,100,34
1576863876.717866,69141.333,11710,3,MY,1,100,34
1576863876.758598,69175.667,11710,3,MY,1,100,35
1576863876.799330,69210.000,11710,3,MY,1,100,34
1576863876.840853,69245.000,11726,3,MY,1,100,35
1576863876.882377,69280.000,11726,3,MY,1,100,34
1576863876.923900,69315.000,11726,3,MY,1,100,34
1576863876.961864,69347.000,11744,3,MY,1,100,34
1576863876.999828,69379.000,11744,3,MY,1,100,35
1576863877.037792,69411.000,11744,3,MY,1,100,34
1576863877.076052,69443.250,11762,4,MY,1,100,34
1576863877.114313,69475.500,11762,4,MY,1,100,33
1576863877.152574,69507.750,11762,4,MY,1,100,34
1576863877.190835,69540.000,11762,4,MY,1,100,35
1576863877.231567,69574.333,11781,3,MY,1,100,34
1576863877.272299,69608.667,11781,3,MY,1,100,35
1576863877.313031,69643.000,11781,3,MY,1,100,34
1576863877.359893,69682.500,11799,2,MY,1,100,35
1576863877.406755,69722.000,11799,2,MY,1,100,35
1576863877.448278,69757.000,11817,3,MY,1,100,37
1576863877.489801,69792.000,11817,3,MY,1,100,35
1576863877.531325,69827.000,11817,3,MY,1,100,35
1576863877.569684,69859.333,11835,3,MY,1,100,35
1576863877.608044,69891.667,11835,3,MY,1,100,35
1576863877.646403,69924.000,11835,3,MY,1,100,36
1576863877.684367,69956.000,11853,3,MY,1,100,35
1576863877.722331,69988.000,11853,3,MY,1,100,35
1576863877.760295,70020.000,11853,3,MY,1,100,35
1576863877.799841,70053.333,11870,3,MY,1,100,35
1576863877.839387,70086.667,11870,3,MY,1,100,34
1576863877.878933,70120.000,11870,3,MY,1,100,34
1576863877.920456,70155.000,11888,3,MY,1,100,35
1576863877.961979,70190.000,11888,3,MY,1,100,35
1576863878.003503,70225.000,11888,3,MY,1,100,36
1576863878.044235,70259.333,11906,3,MY,1,100,36
1576863878.084967,70293.667,11906,3,MY,1,100,35
1576863878.125699,70328.000,11906,3,MY,1,100,34
1576863878.168013,70363.667,11922,3,MY,1,100,34
1576863878.210327,70399.333,11922,3,MY,1,100,35
1576863878.252642,70435.000,11922,3,MY,1,100,35
1576863878.290606,70467.000,11941,3,MY,1,100,33
1576863878.328570,70499.000,11941,3,MY,1,100,33
1576863878.366534,70531.000,11941,3,MY,1,100,36
1576863878.406475,70564.667,11959,3,MY,1,100,34
1576863878.446416,70598.333,11959,3,MY,1,100,35
1576863878.486358,70632.000,11959,3,MY,1,100,33
1576863878.527881,70667.000,11977,3,MY,1,100,35
1576863878.569404,70702.000,11977,3,MY,1,100,34
1576863878.610927,70737.000,11977,3,MY,1,100,34
1576863878.652451,70772.000,11995,3,MY,1,100,33
1576863878.693974,70807.000,11995,3,MY,1,100,35
1576863878.735497,70842.000,11995,3,MY,1,100,36
1576863878.775043,70875.333,12013,3,MY,1,100,35
1576863878.814589,70908.667,12013,3,MY,1,100,35
1576863878.854135,70942.000,12013,3,MY,1,100,34
1576863878.891308,70973.333,12031,3,MY,1,100,35
1576863878.928481,71004.667,12031,3,MY,1,100,35
1576863878.965654,71036.000,12031,3,MY,1,100,35
1576863879.008759,71072.333,12049,3,MY,1,100,35
1576863879.051864,71108.667,12049,3,MY,1,100,35
1576863879.094969,71145.000,12049,3,MY,1,100,34
1576863879.135701,71179.333,12066,3,MY,1,100,34
1576863879.176434,71213.667,12066,3,MY,1,100,36
1576863879.217166,71248.000,12066,3,MY,1,100,35
1576863879.257898,71282.333,12085,3,MY,1,100,35
1576863879.298630,71316.667,12085,3,MY,1,100,35
1576863879.339363,71351.000,12085,3,MY,1,100,34
1576863879.379699,71385.000,12101,3,MY,1,100,34
1576863879.420036,71419.000,12101,3,MY,1,100,36
1576863879.460373,71453.000,12101,3,MY,1,100,35
1576863879.497151,71484.000,12119,3,MY,1,100,34
1576863879.533928,71515.000,12119,3,MY,1,100,35
1576863879.570706,71546.000,12119,3,MY,1,100,34
1576863879.611438,71580.333,12137,3,MY,1,100,35
1576863879.652171,71614.667,12137,3,MY,1,100,35
1576863879.692903,71649.000,12137,3,MY,1,100,34
1576863879.730471,71680.667,12155,3,MY,1,100,34
1576863879.768040,71712.333,12155,3,MY,1,100,34
1576863879.805609,71744.000,12155,3,MY,1,100,34
1576863879.850296,71781.667,12173,3,MY,1,100,35
1576863879.894982,71819.333,12173,3,MY,1,100,35
1576863879.939669,71857.000,12173,3,MY,1,100,36
1576863879.980718,71891.600,12194,5,MY,1,100,35
1576863880.021766,71926.200,12194,5,MY,1,100,35
1576863880.062815,71960.800,12194,5,MY,1,100,34
1576863880.103864,71995.400,12194,5,MY,1,100,35
1576863880.144912,72030.000,12194,5,MY,1,100,35
1576863880.185842,72064.500,12213,2,MY,1,100,33
1576863880.226772,72099.000,12213,2,MY,1,100,34
1576863880.265132,72131.333,12232,3,MY,1,100,36
1576863880.303491,72163.667,12232,3,MY,1,100,34
1576863880.341851,72196.000,12232,3,MY,1,100,35
1576863880.386933,72234.000,12250,3,MY,1,100,36
1576863880.432015,72272.000,12250,3,MY,1,100,34
1576863880.477098,72310.000,12250,3,MY,1,100,35
1576863880.518226,72344.667,12268,3,MY,1,100,35
1576863880.559353,72379.333,12268,3,MY,1,100,33
1576863880.600481,72414.000,12268,3,MY,1,100,34
1576863880.640422,72447.667,12286,3,MY,1,100,36
1576863880.680364,72481.333,12286,3,MY,1,100,35
1576863880.720305,72515.000,12286,3,MY,1,100,35
1576863880.758665,72547.333,12304,3,MY,1,100,35
1576863880.797024,72579.667,12304,3,MY,1,100,35
1576863880.835384,72612.000,12304,3,MY,1,100,36
1576863880.874534,72645.000,12321,3,MY,1,100,34
1576863880.913684,72678.000,12321,3,MY,1,100,34
1576863880.952835,72711.000,12321,3,MY,1,100,35
1576863880.993963,72745.667,12339,3,MY,1,100,35
1576863881.035090,72780.333,12339,3,MY,1,100,36
1576863881.076218,72815.000,12339,3,MY,1,100,35
1576863881.120509,72852.333,12355,3,MY,1,100,34
1576863881.164801,72889.667,12355,3,MY,1,100,33
1576863881.209092,72927.000,12355,3,MY,1,100,35
1576863881.249429,72961.000,12374,3,MY,1,100,35
1576863881.289766,72995.000,12374,3,MY,1,100,35
1576863881.330103,73029.000,12374,3,MY,1,100,35
1576863881.367671,73060.667,12392,3,MY,1,100,35
1576863881.405240,73092.333,12392,3,MY,1,100,34
1576863881.442808,73124.000,12392,3,MY,1,100,36
1576863881.481959,73157.000,12410,3,MY,1,100,34
1576863881.521109,73190.000,12410,3,MY,1,100,34
1576863881.560260,73223.000,12410,3,MY,1,100,35
1576863881.600201,73256.667,12428,3,MY,1,100,36
1576863881.640142,73290.333,12428,3,MY,1,100,34
1576863881.680084,73324.000,12428,3,MY,1,100,36
1576863881.721607,73359.000,12446,3,MY,1,100,35
1576863881.763130,73394.000,12446,3,MY,1,100,35
1576863881.804653,73429.000,12446,3,MY,1,100,35
1576863881.851515,73468.500,12464,2,MY,1,100,35
1576863881.898377,73508.000,12464,2,MY,1,100,34
1576863881.936638,73540.250,12482,4,MY,1,100,35
1576863881.974898,73572.500,12482,4,MY,1,100,35
1576863882.013159,73604.750,12482,4,MY,1,100,37
1576863882.051420,73637.000,12482,4,MY,1,100,34
1576863882.090175,73669.667,12499,3,MY,1,100,35
1576863882.128930,73702.333,12499,3,MY,1,100,33
1576863882.167685,73735.000,12499,3,MY,1,100,36
1576863882.208021,73769.000,12518,3,MY,1,100,34
1576863882.248358,73803.000,12518,3,MY,1,100,35
1576863882.288695,73837.000,12518,3,MY,1,100,34
1576863882.329823,73871.667,12536,3,MY,1,100,37
1576863882.370950,73906.333,12536,3,MY,1,100,34
1576863882.412078,73941.000,12536,3,MY,1,100,35
1576863882.453008,73975.500,12552,2,MY,1,100,35
1576863882.493938,74010.000,12552,2,MY,1,100,35
1576863882.536648,74046.000,12570,3,MY,1,100,34
1576863882.579357,74082.000,12570,3,MY,1,100,34
1576863882.622067,74118.000,12570,3,MY,1,100,34
1576863882.659734,74149.750,12588,4,MY,1,100,33
1576863882.697402,74181.500,12588,4,MY,1,100,35
1576863882.735069,74213.250,12588,4,MY,1,100,33
1576863882.772737,74245.000,12588,4,MY,1,100,35
1576863882.813469,74279.333,12606,3,MY,1,100,34
1576863882.854201,74313.667,12606,3,MY,1,100,36
1576863882.894933,74348.000,12606,3,MY,1,100,35
1576863882.935863,74382.500,12624,2,MY,1,100,35
1576863882.976794,74417.000,12624,2,MY,1,100,35
1576863883.017921,74451.667,12642,3,MY,1,100,34
1576863883.059049,74486.333,12642,3,MY,1,100,34
1576863883.100177,74521.000,12642,3,MY,1,100,35
1576863883.139327,74554.000,12660,3,MY,1,100,34
1576863883.178478,74587.000,12660,3,MY,1,100,35
1576863883.217628,74620.000,12660,3,MY,1,100,35
1576863883.257965,74654.000,12679,3,MY,1,100,34
1576863883.298301,74688.000,12679,3,MY,1,100,36
1576863883.338638,74722.000,12679,3,MY,1,100,35
1576863883.379766,74756.667,12696,3,MY,1,100,35
1576863883.420894,74791.333,12696,3,MY,1,100,35
1576863883.462022,74826.000,12696,3,MY,1,100,34
1576863883.496426,74855.000,12714,3,MY,1,100,34
1576863883.530831,74884.000,12714,3,MY,1,100,35
1576863883.565236,74913.000,12714,3,MY,1,100,35
1576863883.605573,74947.000,12730,4,MY,1,100,35
1576863883.645910,74981.000,12730,4,MY,1,100,36
1576863883.686247,75015.000,12730,4,MY,1,100,35
1576863883.726583,75049.000,12730,4,MY,1,100,34
1576863883.766327,75082.500,12748,2,MY,1,100,35
1576863883.806071,75116.000,12748,2,MY,1,100,35
1576863883.850758,75153.667,12766,3,MY,1,100,35
1576863883.895444,75191.333,12766,3,MY,1,100,34
1576863883.940131,75229.000,12766,3,MY,1,100,34
1576863883.981259,75263.667,12784,3,MY,1,100,34
1576863884.022387,75298.333,12784,3,MY,1,100,33
1576863884.063514,75333.000,12784,3,MY,1,100,34
1576863884.105433,75368.333,12802,3,MY,1,100,35
1576863884.147352,75403.667,12802,3,MY,1,100,35
1576863884.189270,75439.000,12802,3,MY,1,100,34
1576863884.229212,75472.667,12821,3,MY,1,100,36
1576863884.269153,75506.333,12821,3,MY,1,100,34
1576863884.309094,75540.000,12821,3,MY,1,100,35
1576863884.349827,75574.333,12839,3,MY,1,100,34
1576863884.390559,75608.667,12839,3,MY,1,100,35
1576863884.431291,75643.000,12839,3,MY,1,100,35
1576863884.468860,75674.667,12856,3,MY,1,100,34
1576863884.506428,75706.333,12856,3,MY,1,100,34
1576863884.543997,75738.000,12856,3,MY,1,100,34
1576863884.583543,75771.333,12874,3,MY,1,100,34
1576863884.623089,75804.667,12874,3,MY,1,100,35
1576863884.662635,75838.000,12874,3,MY,1,100,34
1576863884.702971,75872.000,12892,3,MY,1,100,35
1576863884.743308,75906.000,12892,3,MY,1,100,35
1576863884.783645,75940.000,12892,3,MY,1,100,34
1576863884.829123,75978.333,12908,3,MY,1,100,35
1576863884.874601,76016.667,12908,3,MY,1,100,35
1576863884.920079,76055.000,12908,3,MY,1,100,35
1576863884.960811,76089.333,12926,3,MY,1,100,35
1576863885.001543,76123.667,12926,3,MY,1,100,35
1576863885.042275,76158.000,12926,3,MY,1,100,34
1576863885.080239,76190.000,12944,3,MY,1,100,37
1576863885.118203,76222.000,12944,3,MY,1,100,34
1576863885.156168,76254.000,12944,3,MY,1,100,34
1576863885.194131,76286.000,12963,3,MY,1,100,36
1576863885.232095,76318.000,12963,3,MY,1,100,34
1576863885.270060,76350.000,12963,3,MY,1,100,36
1576863885.310396,76384.000,12981,3,MY,1,100,36
1576863885.350733,76418.000,12981,3,MY,1,100,35
1576863885.391070,76452.000,12981,3,MY,1,100,36
1576863885.431802,76486.333,12999,3,MY,1,100,35
1576863885.472534,76520.667,12999,3,MY,1,100,35
1576863885.513267,76555.000,12999,3,MY,1,100,35
1576863885.560129,76594.500,13017,2,MY,1,100,35
1576863885.606991,76634.000,13017,2,MY,1,100,34
1576863885.645844,76666.750,13034,4,MY,1,100,36
1576863885.684698,76699.500,13034,4,MY,1,100,35
1576863885.723552,76732.250,13034,4,MY,1,100,34
1576863885.762406,76765.000,13034,4,MY,1,100,34
1576863885.800370,76797.000,13052,3,MY,1,100,37
1576863885.838334,76829.000,13052,3,MY,1,100,33
1576863885.876298,76861.000,13052,3,MY,1,100,35
1576863885.916635,76895.000,13070,3,MY,1,100,35
1576863885.956972,76929.000,13070,3,MY,1,100,36
1576863885.997308,76963.000,13070,3,MY,1,100,34
1576863886.038594,76997.800,13091,5,MY,1,100,34
1576863886.079880,77032.600,13091,5,MY,1,100,33
1576863886.121166,77067.400,13091,5,MY,1,100,35
1576863886.162452,77102.200,13091,5,MY,1,100,35
1576863886.203738,77137.000,13091,5,MY,1,100,37
1576863886.244668,77171.500,13112,2,MY,1,100,34
1576863886.285598,77206.000,13112,2,MY,1,100,35
1576863886.326726,77240.667,13130,3,MY,1,100,33
1576863886.367853,77275.333,13130,3,MY,1,100,33
1576863886.408981,77310.000,13130,3,MY,1,100,35
1576863886.447736,77342.667,13147,3,MY,1,100,34
1576863886.486491,77375.333,13147,3,MY,1,100,34
1576863886.525246,77408.000,13147,3,MY,1,100,35
1576863886.565978,77442.333,13165,3,MY,1,100,34
1576863886.606711,77476.667,13165,3,MY,1,100,35
1576863886.647443,77511.000,13165,3,MY,1,100,34
1576863886.688175,77545.333,13181,3,MY,1,100,35
1576863886.728907,77579.667,13181,3,MY,1,100,34
1576863886.769640,77614.000,13181,3,MY,1,100,34
1576863886.810767,77648.667,13199,3,MY,1,100,35
1576863886.851895,77683.333,13199,3,MY,1,100,35
1576863886.893023,77718.000,13199,3,MY,1,100,34
1576863886.930196,77749.333,13217,3,MY,1,100,35
1576863886.967369,77780.667,13217,3,MY,1,100,34
1576863887.004542,77812.000,13217,3,MY,1,100,35
1576863887.044088,77845.333,13235,3,MY,1,100,35
1576863887.083634,77878.667,13235,3,MY,1,100,34
1576863887.123180,77912.000,13235,3,MY,1,100,35
1576863887.161144,77944.000,13254,3,MY,1,100,35
1576863887.199108,77976.000,13254,3,MY,1,100,34
1576863887.237072,78008.000,13254,3,MY,1,100,34
1576863887.280573,78044.667,13272,3,MY,1,100,34
1576863887.324073,78081.333,13272,3,MY,1,100,34
1576863887.367573,78118.000,13272,3,MY,1,100,37
1576863887.405538,78150.000,13290,3,MY,1,100,35
1576863887.443502,78182.000,13290,3,MY,1,100,34
1576863887.481466,78214.000,13290,3,MY,1,100,34
1576863887.523384,78249.333,13308,3,MY,1,100,35
1576863887.565303,78284.667,13308,3,MY,1,100,36
1576863887.607222,78320.000,13308,3,MY,1,100,34
1576863887.648349,78354.667,13325,3,MY,1,100,34
1576863887.689477,78389.333,13325,3,MY,1,100,35
1576863887.730605,78424.000,13325,3,MY,1,100,35
1576863887.771733,78458.667,13343,3,MY,1,100,35
1576863887.812860,78493.333,13343,3,MY,1,100,34
1576863887.853988,78528.000,13343,3,MY,1,100,35
1576863887.893929,78561.667,13359,3,MY,1,100,33
1576863887.933871,78595.333,13359,3,MY,1,100,35
1576863887.973812,78629.000,13359,3,MY,1,100,34
1576863888.014544,78663.333,13377,3,MY,1,100,34
1576863888.055276,78697.667,13377,3,MY,1,100,34
1576863888.096009,78732.000,13377,3,MY,1,100,33
1576863888.134764,78764.667,13395,3,MY,1,100,34
1576863888.173519,78797.333,13395,3,MY,1,100,34
1576863888.212274,78830.000,13395,3,MY,1,100,34
1576863888.250238,78862.000,13414,3,MY,1,100,34
1576863888.288202,78894.000,13414,3,MY,1,100,36
1576863888.326166,78926.000,13414,3,MY,1,100,34
1576863888.366503,78960.000,13432,3,MY,1,100,33
1576863888.406839,78994.000,13432,3,MY,1,100,34
1576863888.447176,79028.000,13432,3,MY,1,100,34
1576863888.491863,79065.667,13450,3,MY,1,100,34
1576863888.536550,79103.333,13450,3,MY,1,100,33
1576863888.581237,79141.000,13450,3,MY,1,100,35
1576863888.622365,79175.667,13468,3,MY,1,100,35
1576863888.663492,79210.333,13468,3,MY,1,100,35
1576863888.704620,79245.000,13468,3,MY,1,100,35
1576863888.743375,79277.667,13486,3,MY,1,100,33
1576863888.782130,79310.333,13486,3,MY,1,100,35
1576863888.820885,79343.000,13486,3,MY,1,100,35
1576863888.859244,79375.333,13503,3,MY,1,100,35
1576863888.897604,79407.667,13503,3,MY,1,100,35
1576863888.935963,79440.000,13503,3,MY,1,100,34
1576863888.975114,79473.000,13521,3,MY,1,100,34
1576863889.014264,79506.000,13521,3,MY,1,100,35
1576863889.053415,79539.000,13521,3,MY,1,100,36
1576863889.094938,79574.000,13539,3,MY,1,100,34
1576863889.136461,79609.000,13539,3,MY,1,100,34
1576863889.177984,79644.000,13539,3,MY,1,100,35
1576863889.223660,79682.500,13556,2,MY,1,100,34
1576863889.269335,79721.000,13556,2,MY,1,100,36
1576863889.309376,79754.750,13574,4,MY,1,100,36
1576863889.349416,79788.500,13574,4,MY,1,100,34
1576863889.389456,79822.250,13574,4,MY,1,100,34
1576863889.429496,79856.000,13574,4,MY,1,100,35
1576863889.467460,79888.000,13592,3,MY,1,100,33
1576863889.505424,79920.000,13592,3,MY,1,100,35
1576863889.543388,79952.000,13592,3,MY,1,100,34
1576863889.582539,79985.000,13610,3,MY,1,100,35
1576863889.621689,80018.000,13610,3,MY,1,100,35
1576863889.660840,80051.000,13610,3,MY,1,100,35
1576863889.701572,80085.333,13628,3,MY,1,100,34
1576863889.742304,80119.667,13628,3,MY,1,100,34
1576863889.783036,80154.000,13628,3,MY,1,100,34
1576863889.824560,80189.000,13646,3,MY,1,100,35
1576863889.866083,80224.000,13646,3,MY,1,100,35
1576863889.907606,80259.000,13646,3,MY,1,100,34
1576863889.953875,80298.000,13664,2,MY,1,100,34
1576863890.000143,80337.000,13664,2,MY,1,100,34
1576863890.036921,80368.000,13682,4,MY,1,100,35
1576863890.073699,80399.000,13682,4,MY,1,100,33
1576863890.110476,80430.000,13682,4,MY,1,100,34
1576863890.147254,80461.000,13682,4,MY,1,100,34
1576863890.187195,80494.667,13700,3,MY,1,100,36
1576863890.227137,80528.333,13700,3,MY,1,100,35
1576863890.267078,80562.000,13700,3,MY,1,100,35
1576863890.307415,80596.000,13718,3,MY,1,100,34
1576863890.347752,80630.000,13718,3,MY,1,100,35
1576863890.388088,80664.000,13718,3,MY,1,100,35
1576863890.428821,80698.333,13734,3,MY,1,100,35
1576863890.469553,80732.667,13734,3,MY,1,100,35
1576863890.510285,80767.000,13734,3,MY,1,100,35
1576863890.552402,80802.500,13752,2,MY,1,100,35
1576863890.594518,80838.000,13752,2,MY,1,100,36
1576863890.635250,80872.333,13770,3,MY,1,100,34
1576863890.675982,80906.667,13770,3,MY,1,100,34
1576863890.716715,80941.000,13770,3,MY,1,100,33
1576863890.753493,80972.000,13788,4,MY,1,100,34
1576863890.790270,81003.000,13788,4,MY,1,100,34
1576863890.827048,81034.000,13788,4,MY,1,100,34
1576863890.863826,81065.000,13788,4,MY,1,100,35
1576863890.904953,81099.667,13806,3,MY,1,100,34
1576863890.946081,81134.333,13806,3,MY,1,100,35
1576863890.987209,81169.000,13806,3,MY,1,100,35
1576863891.022404,81198.667,13824,3,MY,1,100,34
1576863891.057600,81228.333,13824,3,MY,1,100,35
1576863891.092796,81258.000,13824,3,MY,1,100,34
1576863891.134715,81293.333,13842,3,MY,1,100,34
1576863891.176634,81328.667,13842,3,MY,1,100,35
1576863891.218552,81364.000,13842,3,MY,1,100,35
1576863891.258098,81397.333,13861,3,MY,1,100,34
1576863891.297644,81430.667,13861,3,MY,1,100,34
1576863891.337190,81464.000,13861,3,MY,1,100,35
1576863891.378318,81498.667,13879,3,MY,1,100,33
1576863891.419445,81533.333,13879,3,MY,1,100,34
1576863891.460573,81568.000,13879,3,MY,1,100,34
1576863891.502096,81603.000,13896,3,MY,1,100,34
1576863891.543619,81638.000,13896,3,MY,1,100,34
1576863891.585143,81673.000,13896,3,MY,1,100,36
1576863891.624688,81706.333,13914,3,MY,1,100,34
1576863891.664234,81739.667,13914,3,MY,1,100,35
1576863891.703780,81773.000,13914,3,MY,1,100,35
1576863891.742535,81805.667,13930,3,MY,1,100,35
1576863891.781290,81838.333,13930,3,MY,1,100,35
1576863891.820045,81871.000,13930,3,MY,1,100,35
1576863891.858405,81903.333,13948,3,MY,1,100,34
1576863891.896764,81935.667,13948,3,MY,1,100,34
1576863891.935124,81968.000,13948,3,MY,1,100,34
1576863891.972692,81999.667,13966,3,MY,1,100,35
1576863892.010261,82031.333,13966,3,MY,1,100,34
1576863892.047829,82063.000,13966,3,MY,1,100,37
1576863892.090539,82099.000,13987,5,MY,1,100,34
1576863892.133249,82135.000,13987,5,MY,1,100,34
1576863892.175958,82171.000,13987,5,MY,1,100,34
1576863892.218668,82207.000,13987,5,MY,1,100,34
1576863892.261377,82243.000,13987,5,MY,1,100,35
1576863892.302900,82278.000,14007,2,MY,1,100,35
1576863892.344424,82313.000,14007,2,MY,1,100,36
1576863892.385551,82347.667,14025,3,MY,1,100,35
1576863892.426679,82382.333,14025,3,MY,1,100,35
1576863892.467807,82417.000,14025,3,MY,1,100,34
1576863892.505375,82448.667,14041,3,MY,1,100,33
1576863892.542944,82480.333,14041,3,MY,1,100,35
1576863892.580513,82512.000,14041,3,MY,1,100,35
1576863892.619663,82545.000,14059,4,MY,1,100,34
1576863892.658813,82578.000,14059,4,MY,1,100,35
1576863892.697964,82611.000,14059,4,MY,1,100,35
1576863892.737114,82644.000,14059,4,MY,1,100,35
1576863892.777451,82678.000,14077,3,MY,1,100,35
1576863892.817788,82712.000,14077,3,MY,1,100,34
1576863892.858125,82746.000,14077,3,MY,1,100,35
1576863892.904987,82785.500,14095,2,MY,1,100,36
1576863892.951849,82825.000,14095,2,MY,1,100,35
1576863892.993372,82860.000,14113,3,MY,1,100,34
1576863893.034895,82895.000,14113,3,MY,1,100,35
1576863893.076418,82930.000,14113,3,MY,1,100,33
1576863893.113986,82961.667,14131,3,MY,1,100,34
1576863893.151555,82993.333,14131,3,MY,1,100,35
1576863893.189124,83025.000,14131,3,MY,1,100,33
1576863893.227483,83057.333,14150,3,MY,1,100,34
1576863893.265843,83089.667,14150,3,MY,1,100,35
1576863893.304202,83122.000,14150,3,MY,1,100,34
1576863893.344539,83156.000,14168,3,MY,1,100,33
1576863893.384876,83190.000,14168,3,MY,1,100,35
1576863893.425213,83224.000,14168,3,MY,1,100,34
1576863893.466736,83259.000,14185,3,MY,1,100,34
1576863893.508259,83294.000,14185,3,MY,1,100,35
1576863893.549782,83329.000,14185,3,MY,1,100,34
1576863893.594469,83366.667,14203,3,MY,1,100,34
1576863893.639156,83404.333,14203,3,MY,1,100,34
1576863893.683843,83442.000,14203,3,MY,1,100,34
1576863893.721411,83473.667,14221,3,MY,1,100,34
1576863893.758980,83505.333,14221,3,MY,1,100,35
1576863893.796549,83537.000,14221,3,MY,1,100,34
1576863893.833326,83568.000,14237,3,MY,1,100,35
1576863893.870104,83599.000,14237,3,MY,1,100,35
1576863893.906882,83630.000,14237,3,MY,1,100,34
1576863893.947614,83664.333,14255,3,MY,1,100,34
1576863893.988346,83698.667,14255,3,MY,1,100,34
1576863894.029078,83733.000,14255,3,MY,1,100,34
1576863894.070206,83767.667,14273,3,MY,1,100,35
1576863894.111334,83802.333,14273,3,MY,1,100,35
1576863894.152462,83837.000,14273,3,MY,1,100,35
1576863894.193194,83871.333,14292,3,MY,1,100,35
1576863894.233926,83905.667,14292,3,MY,1,100,35
1576863894.274658,83940.000,14292,3,MY,1,100,34
1576863894.317368,83976.000,14310,3,MY,1,100,35
1576863894.360078,84012.000,14310,3,MY,1,100,34
1576863894.402787,84048.000,14310,3,MY,1,100,34
1576863894.441147,84080.333,14328,3,MY,1,100,36
1576863894.479506,84112.667,14328,3,MY,1,100,34
1576863894.517866,84145.000,14328,3,MY,1,100,35
1576863894.557016,84178.000,14346,3,MY,1,100,36
1576863894.596167,84211.000,14346,3,MY,1,100,35
1576863894.635317,84244.000,14346,3,MY,1,100,34
1576863894.674863,84277.333,14363,3,MY,1,100,34
1576863894.714409,84310.667,14363,3,MY,1,100,34
1576863894.753955,84344.000,14363,3,MY,1,100,33
1576863894.794291,84378.000,14381,3,MY,1,100,37
1576863894.834628,84412.000,14381,3,MY,1,100,35
1576863894.874965,84446.000,14381,3,MY,1,100,35
1576863894.914511,84479.333,14399,3,MY,1,100,35
1576863894.954057,84512.667,14399,3,MY,1,100,35
1576863894.993603,84546.000,14399,3,MY,1,100,34
1576863895.033940,84580.000,14415,3,MY,1,100,33
1576863895.074276,84614.000,14415,3,MY,1,100,35
1576863895.114613,84648.000,14415,3,MY,1,100,35
1576863895.156136,84683.000,14434,3,MY,1,100,35
1576863895.197659,84718.000,14434,3,MY,1,100,35
1576863895.239183,84753.000,14434,3,MY,1,100,34
1576863895.280706,84788.000,14452,3,MY,1,100,34
1576863895.322229,84823.000,14452,3,MY,1,100,35
1576863895.363752,84858.000,14452,3,MY,1,100,34
1576863895.401716,84890.000,14470,3,MY,1,100,35
1576863895.439680,84922.000,14470,3,MY,1,100,36
1576863895.477644,84954.000,14470,3,MY,1,100,33
1576863895.517586,84987.667,14488,3,MY,1,100,35
1576863895.557527,85021.333,14488,3,MY,1,100,35
1576863895.597468,85055.000,14488,3,MY,1,100,35
1576863895.635828,85087.333,14506,3,MY,1,100,35
1576863895.674187,85119.667,14506,3,MY,1,100,33
1576863895.712547,85152.000,14506,3,MY,1,100,34
1576863895.756047,85188.667,14524,3,MY,1,100,34
1576863895.799548,85225.333,14524,3,MY,1,100,34
1576863895.843048,85262.000,14524,3,MY,1,100,34
1576863895.882990,85295.667,14542,3,MY,1,100,35
1576863895.922931,85329.333,14542,3,MY,1,100,36
1576863895.962873,85363.000,14542,3,MY,1,100,35
1576863896.004000,85397.667,14559,3,MY,1,100,35
1576863896.045128,85432.333,14559,3,MY,1,100,35
1576863896.086256,85467.000,14559,3,MY,1,100,35
1576863896.125802,85500.333,14578,3,MY,1,100,35
1576863896.165347,85533.667,14578,3,MY,1,100,34
1576863896.204893,85567.000,14578,3,MY,1,100,34
1576863896.243253,85599.333,14595,3,MY,1,100,34
1576863896.281612,85631.667,14595,3,MY,1,100,35
1576863896.319972,85664.000,14595,3,MY,1,100,34
1576863896.358331,85696.333,14612,3,MY,1,100,35
1576863896.396691,85728.667,14612,3,MY,1,100,35
1576863896.435050,85761.000,14612,3,MY,1,100,33
1576863896.479342,85798.333,14630,3,MY,1,100,36
1576863896.523633,85835.667,14630,3,MY,1,100,34
1576863896.567924,85873.000,14630,3,MY,1,100,35
1576863896.608855,85907.500,14648,2,MY,1,100,34
1576863896.649785,85942.000,14648,2,MY,1,100,35
1576863896.691308,85977.000,14666,3,MY,1,100,34
1576863896.732831,86012.000,14666,3,MY,1,100,35
1576863896.774354,86047.000,14666,3,MY,1,100,34
1576863896.812021,86078.750,14684,4,MY,1,100,35
1576863896.849689,86110.500,14684,4,MY,1,100,34
1576863896.887357,86142.250,14684,4,MY,1,100,33
1576863896.925024,86174.000,14684,4,MY,1,100,34
1576863896.963779,86206.667,14702,3,MY,1,100,35
1576863897.002534,86239.333,14702,3,MY,1,100,36
1576863897.041289,86272.000,14702,3,MY,1,100,33
1576863897.082021,86306.333,14720,3,MY,1,100,34
1576863897.122753,86340.667,14720,3,MY,1,100,34
1576863897.163486,86375.000,14720,3,MY,1,100,34
1576863897.204613,86409.667,14738,3,MY,1,100,35
1576863897.245741,86444.333,14738,3,MY,1,100,35
1576863897.286869,86479.000,14738,3,MY,1,100,34
1576863897.333731,86518.500,14756,2,MY,1,100,35
1576863897.380593,86558.000,14756,2,MY,1,100,34
1576863897.418161,86589.667,14774,3,MY,1,100,36
1576863897.455730,86621.333,14774,3,MY,1,100,35
1576863897.493298,86653.000,14774,3,MY,1,100,33
1576863897.531856,86685.500,14790,4,MY,1,100,35
1576863897.570413,86718.000,14790,4,MY,1,100,36
1576863897.608970,86750.500,14790,4,MY,1,100,34
1576863897.647527,86783.000,14790,4,MY,1,100,36
1576863897.688457,86817.500,14808,2,MY,1,100,35
1576863897.729387,86852.000,14808,2,MY,1,100,34
1576863897.770515,86886.667,14826,3,MY,1,100,35
1576863897.811643,86921.333,14826,3,MY,1,100,34
1576863897.852771,86956.000,14826,3,MY,1,100,34
1576863897.894294,86991.000,14844,3,MY,1,100,34
1576863897.935817,87026.000,14844,3,MY,1,100,35
1576863897.977340,87061.000,14844,3,MY,1,100,35
1576863898.019259,87096.333,14862,3,MY,1,100,35
1576863898.061177,87131.667,14862,3,MY,1,100,36
1576863898.103096,87167.000,14862,3,MY,1,100,34
1576863898.142246,87200.000,14884,5,MY,1,100,36
1576863898.181397,87233.000,14884,5,MY,1,100,34
1576863898.220547,87266.000,14884,5,MY,1,100,35
1576863898.259698,87299.000,14884,5,MY,1,100,34
1576863898.298848,87332.000,14884,5,MY,1,100,34
1576863898.335626,87363.000,14902,3,MY,1,100,35
1576863898.372403,87394.000,14902,3,MY,1,100,34
1576863898.409181,87425.000,14902,3,MY,1,100,35
1576863898.449913,87459.333,14920,3,MY,1,100,34
1576863898.490646,87493.667,14920,3,MY,1,100,34
1576863898.531378,87528.000,14920,3,MY,1,100,34
1576863898.569342,87560.000,14938,3,MY,1,100,34
1576863898.607306,87592.000,14938,3,MY,1,100,34
1576863898.645270,87624.000,14938,3,MY,1,100,35
1576863898.686002,87658.333,14956,3,MY,1,100,35
1576863898.726735,87692.667,14956,3,MY,1,100,35
1576863898.767467,87727.000,14956,3,MY,1,100,37
1576863898.808199,87761.333,14974,3,MY,1,100,34
1576863898.848931,87795.667,14974,3,MY,1,100,34
1576863898.889664,87830.000,14974,3,MY,1,100,35
1576863898.931187,87865.000,14992,3,MY,1,100,34
1576863898.972710,87900.000,14992,3,MY,1,100,34
1576863899.014233,87935.000,14992,3,MY,1,100,34
1576863899.053779,87968.333,15010,3,MY,1,100,35
1576863899.093325,88001.667,15010,3,MY,1,100,34
1576863899.132871,88035.000,15010,3,MY,1,100,35
1576863899.173999,88069.667,15028,3,MY,1,100,35
1576863899.215126,88104.333,15028,3,MY,1,100,34
1576863899.256254,88139.000,15028,3,MY,1,100,36
1576863899.295800,88172.333,15046,3,MY,1,100,34
1576863899.335346,88205.667,15046,3,MY,1,100,34
1576863899.374892,88239.000,15046,3,MY,1,100,34
1576863899.416415,88274.000,15064,3,MY,1,100,35
1576863899.457938,88309.000,15064,3,MY,1,100,35
1576863899.499461,88344.000,15064,3,MY,1,100,34
1576863899.540194,88378.333,15080,3,MY,1,100,35
1576863899.580926,88412.667,15080,3,MY,1,100,33
1576863899.621658,88447.000,15080,3,MY,1,100,34
1576863899.660809,88480.000,15098,3,MY,1,100,35
1576863899.699959,88513.000,15098,3,MY,1,100,34
1576863899.739109,88546.000,15098,3,MY,1,100,34
1576863899.777073,88578.000,15116,3,MY,1,100,34
1576863899.815037,88610.000,15116,3,MY,1,100,34
1576863899.853002,88642.000,15116,3,MY,1,100,35
1576863899.896106,88678.333,15134,3,MY,1,100,34
1576863899.939212,88714.667,15134,3,MY,1,100,35
1576863899.982316,88751.000,15134,3,MY,1,100,35
1576863900.023840,88786.000,15152,3,MY,1,100,34
1576863900.065363,88821.000,15152,3,MY,1,100,33
1576863900.106886,88856.000,15152,3,MY,1,100,34
1576863900.148409,88891.000,15171,3,MY,1,100,35
1576863900.189933,88926.000,15171,3,MY,1,100,34
1576863900.231456,88961.000,15171,3,MY,1,100,34
1576863900.271002,88994.333,15189,3,MY,1,100,35
1576863900.310547,89027.667,15189,3,MY,1,100,35
1576863900.350093,89061.000,15189,3,MY,1,100,34
1576863900.388057,89093.000,15206,3,MY,1,100,35
1576863900.426021,89125.000,15206,3,MY,1,100,34
1576863900.463985,89157.000,15206,3,MY,1,100,34
1576863900.503136,89190.000,15224,3,MY,1,100,34
1576863900.542286,89223.000,15224,3,MY,1,100,34
1576863900.581437,89256.000,15224,3,MY,1,100,34
1576863900.622960,89291.000,15242,2,MY,1,100,34
1576863900.664483,89326.000,15242,2,MY,1,100,34
1576863900.709170,89363.667,15258,3,MY,1,100,35
1576863900.753857,89401.333,15258,3,MY,1,100,35
1576863900.798544,89439.000,15258,3,MY,1,100,35
1576863900.840067,89474.000,15276,3,MY,1,100,35
1576863900.881590,89509.000,15276,3,MY,1,100,33
1576863900.923113,89544.000,15276,3,MY,1,100,34
1576863900.960187,89575.250,15294,4,MY,1,100,33
1576863900.997262,89606.500,15294,4,MY,1,100,35
1576863901.034336,89637.750,15294,4,MY,1,100,35
1576863901.071410,89669.000,15294,4,MY,1,100,35
1576863901.111352,89702.667,15313,3,MY,1,100,34
1576863901.151293,89736.333,15313,3,MY,1,100,35
1576863901.191234,89770.000,15313,3,MY,1,100,35
1576863901.231176,89803.667,15331,3,MY,1,100,35
1576863901.271117,89837.333,15331,3,MY,1,100,36
1576863901.311059,89871.000,15331,3,MY,1,100,34
1576863901.352582,89906.000,15349,2,MY,1,100,35
1576863901.394105,89941.000,15349,2,MY,1,100,35
1576863901.439187,89979.000,15367,3,MY,1,100,34
1576863901.484269,90017.000,15367,3,MY,1,100,34
1576863901.529352,90055.000,15367,3,MY,1,100,35
1576863901.566920,90086.667,15384,3,MY,1,100,35
1576863901.604489,90118.333,15384,3,MY,1,100,34
1576863901.642057,90150.000,15384,3,MY,1,100,35
1576863901.686744,90187.667,15402,3,MY,1,100,35
1576863901.731431,90225.333,15402,3,MY,1,100,35
1576863901.776118,90263.000,15402,3,MY,1,100,35
1576863901.814478,90295.333,15418,3,MY,1,100,35
1576863901.852837,90327.667,15418,3,MY,1,100,34
1576863901.891197,90360.000,15418,3,MY,1,100,34
1576863901.933511,90395.667,15436,3,MY,1,100,35
1576863901.975825,90431.333,15436,3,MY,1,100,36
1576863902.018139,90467.000,15436,3,MY,1,100,36
1576863902.058871,90501.333,15454,3,MY,1,100,34
1576863902.099603,90535.667,15454,3,MY,1,100,35
1576863902.140336,90570.000,15454,3,MY,1,100,36
1576863902.181859,90605.000,15473,3,MY,1,100,36
1576863902.223382,90640.000,15473,3,MY,1,100,34
1576863902.264905,90675.000,15473,3,MY,1,100,35
1576863902.303265,90707.333,15491,3,MY,1,100,36
1576863902.341624,90739.667,15491,3,MY,1,100,34
1576863902.379984,90772.000,15491,3,MY,1,100,36
1576863902.418739,90804.667,15509,3,MY,1,100,35
1576863902.457494,90837.333,15509,3,MY,1,100,34
1576863902.496249,90870.000,15509,3,MY,1,100,34
1576863902.537376,90904.667,15527,3,MY,1,100,35
1576863902.578504,90939.333,15527,3,MY,1,100,34
1576863902.619632,90974.000,15527,3,MY,1,100,35
1576863902.661155,91009.000,15544,3,MY,1,100,35
1576863902.702678,91044.000,15544,3,MY,1,100,34
1576863902.744201,91079.000,15544,3,MY,1,100,34
1576863902.784143,91112.667,15562,3,MY,1,100,34
1576863902.824084,91146.333,15562,3,MY,1,100,33
1576863902.864026,91180.000,15562,3,MY,1,100,35
1576863902.902385,91212.333,15580,3,MY,1,100,35
1576863902.940744,91244.667,15580,3,MY,1,100,35
1576863902.979104,91277.000,15580,3,MY,1,100,35
1576863903.023000,91314.000,15596,2,MY,1,100,35
1576863903.066896,91351.000,15596,2,MY,1,100,34
1576863903.107233,91385.000,15615,4,MY,1,100,34
1576863903.147569,91419.000,15615,4,MY,1,100,34
1576863903.187906,91453.000,15615,4,MY,1,100,35
1576863903.228243,91487.000,15615,4,MY,1,100,35
1576863903.269173,91521.500,15633,2,MY,1,100,35
1576863903.310103,91556.000,15633,2,MY,1,100,35
1576863903.351231,91590.667,15651,3,MY,1,100,35
1576863903.392359,91625.333,15651,3,MY,1,100,35
1576863903.433486,91660.000,15651,3,MY,1,100,33
1576863903.470857,91691.500,15669,4,MY,1,100,35
1576863903.508228,91723.000,15669,4,MY,1,100,35
1576863903.545599,91754.500,15669,4,MY,1,100,35
1576863903.582970,91786.000,15669,4,MY,1,100,34
1576863903.628052,91824.000,15687,2,MY,1,100,36
1576863903.673134,91862.000,15687,2,MY,1,100,35
1576863903.713471,91896.000,15705,3,MY,1,100,33
1576863903.753808,91930.000,15705,3,MY,1,100,35
1576863903.794145,91964.000,15705,3,MY,1,100,35
1576863903.835273,91998.667,15722,3,MY,1,100,36
1576863903.876400,92033.333,15722,3,MY,1,100,34
1576863903.917528,92068.000,15722,3,MY,1,100,35
1576863903.959447,92103.333,15740,3,MY,1,100,34
1576863904.001365,92138.667,15740,3,MY,1,100,34
1576863904.043284,92174.000,15740,3,MY,1,100,35
1576863904.081248,92206.000,15758,3,MY,1,100,35
1576863904.119212,92238.000,15758,3,MY,1,100,33
1576863904.157176,92270.000,15758,3,MY,1,100,34
1576863904.196326,92303.000,15780,5,MY,1,100,34
1576863904.235477,92336.000,15780,5,MY,1,100,35
1576863904.274627,92369.000,15780,5,MY,1,100,34
1576863904.313778,92402.000,15780,5,MY,1,100,35
1576863904.352928,92435.000,15780,5,MY,1,100,35
1576863904.394451,92470.000,15798,3,MY,1,100,35
1576863904.435975,92505.000,15798,3,MY,1,100,35
1576863904.477498,92540.000,15798,3,MY,1,100,34
1576863904.522185,92577.667,15817,3,MY,1,100,34
1576863904.566871,92615.333,15817,3,MY,1,100,36
1576863904.611558,92653.000,15817,3,MY,1,100,35
1576863904.651104,92686.333,15835,3,MY,1,100,36
1576863904.690650,92719.667,15835,3,MY,1,100,35
1576863904.730196,92753.000,15835,3,MY,1,100,35
1576863904.766974,92784.000,15853,3,MY,1,100,34
1576863904.803751,92815.000,15853,3,MY,1,100,33
1576863904.840529,92846.000,15853,3,MY,1,100,35
1576863904.880470,92879.667,15869,3,MY,1,100,35
1576863904.920412,92913.333,15869,3,MY,1,100,35
1576863904.960353,92947.000,15869,3,MY,1,100,35
1576863905.001085,92981.333,15887,3,MY,1,100,35
1576863905.041818,93015.667,15887,3,MY,1,100,35
1576863905.082550,93050.000,15887,3,MY,1,100,35
1576863905.124864,93085.667,15906,3,MY,1,100,35
1576863905.167178,93121.333,15906,3,MY,1,100,35
1576863905.209492,93157.000,15906,3,MY,1,100,35
1576863905.250224,93191.333,15924,3,MY,1,100,36
1576863905.290957,93225.667,15924,3,MY,1,100,34
1576863905.331689,93260.000,15924,3,MY,1,100,34
1576863905.377958,93299.000,15942,2,MY,1,100,35
1576863905.424226,93338.000,15942,2,MY,1,100,35
1576863905.464168,93371.667,15960,3,MY,1,100,35
1576863905.504109,93405.333,15960,3,MY,1,100,34
1576863905.544050,93439.000,15960,3,MY,1,100,35
1576863905.584783,93473.333,15977,3,MY,1,100,34
1576863905.625515,93507.667,15977,3,MY,1,100,35
1576863905.666247,93542.000,15977,3,MY,1,100,34
1576863905.703618,93573.500,15995,4,MY,1,100,34
1576863905.740989,93605.000,15995,4,MY,1,100,34
1576863905.778360,93636.500,15995,4,MY,1,100,34
1576863905.815731,93668.000,15995,4,MY,1,100,35
1576863905.861999,93707.000,16013,2,MY,1,100,34
1576863905.908268,93746.000,16013,2,MY,1,100,34
1576863905.946232,93778.000,16029,3,MY,1,100,35
1576863905.984196,93810.000,16029,3,MY,1,100,35
1576863906.022160,93842.000,16029,3,MY,1,100,34
1576863906.060520,93874.333,16047,3,MY,1,100,35
1576863906.098879,93906.667,16047,3,MY,1,100,35
1576863906.137239,93939.000,16047,3,MY,1,100,36
1576863906.177576,93973.000,16066,3,MY,1,100,34
1576863906.217912,94007.000,16066,3,MY,1,100,36
1576863906.258249,94041.000,16066,3,MY,1,100,36
1576863906.299377,94075.667,16084,3,MY,1,100,35
1576863906.340505,94110.333,16084,3,MY,1,100,35
1576863906.381632,94145.000,16084,3,MY,1,100,34
1576863906.422760,94179.667,16102,3,MY,1,100,34
1576863906.463888,94214.333,16102,3,MY,1,100,35
1576863906.505015,94249.000,16102,3,MY,1,100,35
1576863906.547725,94285.000,16120,3,MY,1,100,35
1576863906.590435,94321.000,16120,3,MY,1,100,33
1576863906.633144,94357.000,16120,3,MY,1,100,34
1576863906.670713,94388.667,16138,3,MY,1,100,35
1576863906.708281,94420.333,16138,3,MY,1,100,34
1576863906.745850,94452.000,16138,3,MY,1,100,35
1576863906.785791,94485.667,16156,3,MY,1,100,35
1576863906.825733,94519.333,16156,3,MY,1,100,34
1576863906.865674,94553.000,16156,3,MY,1,100,34
1576863906.906011,94587.000,16173,3,MY,1,100,34
1576863906.946347,94621.000,16173,3,MY,1,100,34
1576863906.986684,94655.000,16173,3,MY,1,100,35
1576863907.028208,94690.000,16191,3,MY,1,100,34
1576863907.069731,94725.000,16191,3,MY,1,100,35
1576863907.111254,94760.000,16191,3,MY,1,100,34
1576863907.150404,94793.000,16208,3,MY,1,100,37
1576863907.189555,94826.000,16208,3,MY,1,100,35
1576863907.228705,94859.000,16208,3,MY,1,100,34
1576863907.269833,94893.667,16226,3,MY,1,100,34
1576863907.310961,94928.333,16226,3,MY,1,100,34
1576863907.352088,94963.000,16226,3,MY,1,100,35
1576863907.391634,94996.333,16244,3,MY,1,100,34
1576863907.431180,95029.667,16244,3,MY,1,100,34
1576863907.470726,95063.000,16244,3,MY,1,100,35
1576863907.511854,95097.667,16262,3,MY,1,100,35
1576863907.552982,95132.333,16262,3,MY,1,100,34
1576863907.594109,95167.000,16262,3,MY,1,100,35
1576863907.635237,95201.667,16280,3,MY,1,100,35
1576863907.676365,95236.333,16280,3,MY,1,100,35
1576863907.717492,95271.000,16280,3,MY,1,100,33
1576863907.757829,95305.000,16298,3,MY,1,100,34
1576863907.798166,95339.000,16298,3,MY,1,100,35
1576863907.838503,95373.000,16298,3,MY,1,100,35
1576863907.876071,95404.667,16316,3,MY,1,100,36
1576863907.913640,95436.333,16316,3,MY,1,100,34
1576863907.951209,95468.000,16316,3,MY,1,100,34
1576863907.990359,95501.000,16334,3,MY,1,100,35
1576863908.029510,95534.000,16334,3,MY,1,100,35
1576863908.068660,95567.000,16334,3,MY,1,100,35
1576863908.113347,95604.667,16352,3,MY,1,100,35
1576863908.158034,95642.333,16352,3,MY,1,100,35
1576863908.202720,95680.000,16352,3,MY,1,100,33
1576863908.243848,95714.667,16370,3,MY,1,100,35
1576863908.284976,95749.333,16370,3,MY,1,100,35
1576863908.326104,95784.000,16370,3,MY,1,100,35
1576863908.365649,95817.333,16386,3,MY,1,100,35
1576863908.405195,95850.667,16386,3,MY,1,100,34
1576863908.444741,95884.000,16386,3,MY,1,100,34
1576863908.483101,95916.333,16404,3,MY,1,100,34
1576863908.521460,95948.667,16404,3,MY,1,100,35
1576863908.559820,95981.000,16404,3,MY,1,100,33
1576863908.597784,96013.000,16422,3,MY,1,100,35
1576863908.635748,96045.000,16422,3,MY,1,100,35
1576863908.673712,96077.000,16422,3,MY,1,100,34
1576863908.714444,96111.333,16440,3,MY,1,100,34
1576863908.755177,96145.667,16440,3,MY,1,100,34
1576863908.795909,96180.000,16440,3,MY,1,100,36
1576863908.842177,96219.000,16458,2,MY,1,100,35
1576863908.888446,96258.000,16458,2,MY,1,100,36
1576863908.927300,96290.750,16476,4,MY,1,100,34
1576863908.966154,96323.500,16476,4,MY,1,100,34
1576863909.005008,96356.250,16476,4,MY,1,100,35
1576863909.043862,96389.000,16476,4,MY,1,100,34
1576863909.090724,96428.500,16494,2,MY,1,100,36
1576863909.137585,96468.000,16494,2,MY,1,100,35
1576863909.175945,96500.333,16512,3,MY,1,100,34
1576863909.214304,96532.667,16512,3,MY,1,100,34
1576863909.252664,96565.000,16512,3,MY,1,100,34
1576863909.297746,96603.000,16530,3,MY,1,100,36
1576863909.342829,96641.000,16530,3,MY,1,100,35
1576863909.387911,96679.000,16530,3,MY,1,100,35
1576863909.425875,96711.000,16546,3,MY,1,100,34
1576863909.463839,96743.000,16546,3,MY,1,100,34
1576863909.501803,96775.000,16546,3,MY,1,100,35
1576863909.546885,96813.000,16564,3,MY,1,100,35
1576863909.591968,96851.000,16564,3,MY,1,100,37
1576863909.637050,96889.000,16564,3,MY,1,100,34
1576863909.676200,96922.000,16582,3,MY,1,100,36
1576863909.715351,96955.000,16582,3,MY,1,100,35
1576863909.754501,96988.000,16582,3,MY,1,100,34
1576863909.792070,97019.667,16600,3,MY,1,100,33
1576863909.829638,97051.333,16600,3,MY,1,100,34
1576863909.867207,97083.000,16600,3,MY,1,100,34
1576863909.907148,97116.667,16618,3,MY,1,100,34
1576863909.947090,97150.333,16618,3,MY,1,100,35
1576863909.987031,97184.000,16618,3,MY,1,100,35
1576863910.027763,97218.333,16636,3,MY,1,100,34
1576863910.068496,97252.667,16636,3,MY,1,100,34
1576863910.109228,97287.000,16636,3,MY,1,100,35
1576863910.150751,97322.000,16655,3,MY,1,100,35
1576863910.192274,97357.000,16655,3,MY,1,100,35
1576863910.233797,97392.000,16655,3,MY,1,100,35
1576863910.274846,97426.600,16676,5,MY,1,100,33
1576863910.315895,97461.200,16676,5,MY,1,100,35
1576863910.356943,97495.800,16676,5,MY,1,100,33
1576863910.397992,97530.400,16676,5,MY,1,100,34
1576863910.439040,97565.000,16676,5,MY,1,100,35
1576863910.477795,97597.667,16696,3,MY,1,100,33
1576863910.516551,97630.333,16696,3,MY,1,100,35
1576863910.555305,97663.000,16696,3,MY,1,100,35
1576863910.595642,97697.000,16714,2,MY,1,100,34
1576863910.635979,97731.000,16714,2,MY,1,100,35
1576863910.676612,97765.250,16732,4,MY,1,100,34
1576863910.717246,97799.500,16732,4,MY,1,100,34
1576863910.757879,97833.750,16732,4,MY,1,100,34
1576863910.798513,97868.000,16732,4,MY,1,100,35
1576863910.840629,97903.500,16750,2,MY,1,100,35
1576863910.882745,97939.000,16750,2,MY,1,100,34
1576863910.920709,97971.000,16768,3,MY,1,100,34
1576863910.958673,98003.000,16768,3,MY,1,100,34
1576863910.996638,98035.000,16768,3,MY,1,100,33
1576863911.038161,98070.000,16786,3,MY,1,100,34
1576863911.079684,98105.000,16786,3,MY,1,100,36
1576863911.121207,98140.000,16786,3,MY,1,100,34
1576863911.161939,98174.333,16804,3,MY,1,100,35
1576863911.202672,98208.667,16804,3,MY,1,100,35
1576863911.243404,98243.000,16804,3,MY,1,100,35
1576863911.284532,98277.667,16821,3,MY,1,100,33
1576863911.325659,98312.333,16821,3,MY,1,100,35
1576863911.366787,98347.000,16821,3,MY,1,100,34
1576863911.407915,98381.667,16838,3,MY,1,100,34
1576863911.449043,98416.333,16838,3,MY,1,100,34
1576863911.490170,98451.000,16838,3,MY,1,100,34
1576863911.528925,98483.667,16856,3,MY,1,100,35
1576863911.567680,98516.333,16856,3,MY,1,100,34
1576863911.606435,98549.000,16856,3,MY,1,100,34
1576863911.644992,98581.500,16874,4,MY,1,100,37
1576863911.683550,98614.000,16874,4,MY,1,100,35
1576863911.722107,98646.500,16874,4,MY,1,100,35
1576863911.760664,98679.000,16874,4,MY,1,100,34
1576863911.805746,98717.000,16892,2,MY,1,100,34
1576863911.850829,98755.000,16892,2,MY,1,100,34
1576863911.892352,98790.000,16910,3,MY,1,100,35
1576863911.933875,98825.000,16910,3,MY,1,100,36
1576863911.975398,98860.000,16910,3,MY,1,100,35
1576863912.016130,98894.333,16928,3,MY,1,100,33
1576863912.056863,98928.667,16928,3,MY,1,100,34
1576863912.097595,98963.000,16928,3,MY,1,100,34
1576863912.137536,98996.667,16947,3,MY,1,100,35
1576863912.177478,99030.333,16947,3,MY,1,100,34
1576863912.217419,99064.000,16947,3,MY,1,100,35
1576863912.254988,99095.667,16965,3,MY,1,100,34
1576863912.292556,99127.333,16965,3,MY,1,100,35
1576863912.330125,99159.000,16965,3,MY,1,100,34
1576863912.369275,99192.000,16982,3,MY,1,100,36
1576863912.408426,99225.000,16982,3,MY,1,100,35
1576863912.447576,99258.000,16982,3,MY,1,100,35
1576863912.492658,99296.000,17000,3,MY,1,100,35
1576863912.537741,99334.000,17000,3,MY,1,100,37
1576863912.582823,99372.000,17000,3,MY,1,100,35
1576863912.619996,99403.333,17016,3,MY,1,100,34
1576863912.657169,99434.667,17016,3,MY,1,100,36
1576863912.694343,99466.000,17016,3,MY,1,100,36
1576863912.737052,99502.000,17034,3,MY,1,100,34
1576863912.779762,99538.000,17034,3,MY,1,100,34
1576863912.822471,99574.000,17034,3,MY,1,100,35
1576863912.862808,99608.000,17052,3,MY,1,100,34
1576863912.903145,99642.000,17052,3,MY,1,100,34
1576863912.943482,99676.000,17052,3,MY,1,100,34
1576863912.989750,99715.000,17070,2,MY,1,100,35
1576863913.036019,99754.000,17070,2,MY,1,100,35
1576863913.077542,99789.000,17088,3,MY,1,100,35
1576863913.119065,99824.000,17088,3,MY,1,100,34
1576863913.160589,99859.000,17088,3,MY,1,100,35
1576863913.202507,99894.333,17106,3,MY,1,100,35
1576863913.244426,99929.667,17106,3,MY,1,100,35
1576863913.286345,99965.000,17106,3,MY,1,100,35
1576863913.328263,100000.333,17124,3,MY,1,100,33
1576863913.370182,100035.667,17124,3,MY,1,100,34
1576863913.412100,100071.000,17124,3,MY,1,100,33
1576863913.450064,100103.000,17142,3,MY,1,100,35
1576863913.488029,100135.000,17142,3,MY,1,100,34
1576863913.525993,100167.000,17142,3,MY,1,100,34
1576863913.563561,100198.667,17158,3,MY,1,100,35
1576863913.601130,100230.333,17158,3,MY,1,100,34
1576863913.638698,100262.000,17158,3,MY,1,100,35
1576863913.679035,100296.000,17176,3,MY,1,100,33
1576863913.719372,100330.000,17176,3,MY,1,100,35
1576863913.759709,100364.000,17176,3,MY,1,100,35
1576863913.800837,100398.667,17194,3,MY,1,100,33
1576863913.841964,100433.333,17194,3,MY,1,100,33
1576863913.883092,100468.000,17194,3,MY,1,100,34
1576863913.924615,100503.000,17212,3,MY,1,100,35
1576863913.966138,100538.000,17212,3,MY,1,100,35
1576863914.007662,100573.000,17212,3,MY,1,100,34
1576863914.050371,100609.000,17230,3,MY,1,100,35
1576863914.093081,100645.000,17230,3,MY,1,100,35
1576863914.135790,100681.000,17230,3,MY,1,100,35
1576863914.173754,100713.000,17249,3,MY,1,100,36
1576863914.211718,100745.000,17249,3,MY,1,100,34
1576863914.249682,100777.000,17249,3,MY,1,100,35
1576863914.289228,100810.333,17267,3,MY,1,100,35
1576863914.328774,100843.667,17267,3,MY,1,100,35
1576863914.368320,100877.000,17267,3,MY,1,100,34
1576863914.409448,100911.667,17285,3,MY,1,100,34
1576863914.450575,100946.333,17285,3,MY,1,100,35
1576863914.491703,100981.000,17285,3,MY,1,100,34
1576863914.532040,101015.000,17302,3,MY,1,100,34
1576863914.572377,101049.000,17302,3,MY,1,100,33
1576863914.612714,101083.000,17302,3,MY,1,100,35
1576863914.656214,101119.667,17320,3,MY,1,100,34
1576863914.699714,101156.333,17320,3,MY,1,100,33
1576863914.743215,101193.000,17320,3,MY,1,100,34
1576863914.781179,101225.000,17338,3,MY,1,100,34
1576863914.819143,101257.000,17338,3,MY,1,100,35
1576863914.857107,101289.000,17338,3,MY,1,100,34
1576863914.897048,101322.667,17354,3,MY,1,100,35
1576863914.936990,101356.333,17354,3,MY,1,100,35
1576863914.976931,101390.000,17354,3,MY,1,100,36
1576863915.018454,101425.000,17372,3,MY,1,100,34
1576863915.059978,101460.000,17372,3,MY,1,100,34
1576863915.101501,101495.000,17372,3,MY,1,100,33
1576863915.142233,101529.333,17391,3,MY,1,100,37
1576863915.182965,101563.667,17391,3,MY,1,100,34
1576863915.223698,101598.000,17391,3,MY,1,100,34
1576863915.263639,101631.667,17409,3,MY,1,100,37
1576863915.303580,101665.333,17409,3,MY,1,100,34
1576863915.343522,101699.000,17409,3,MY,1,100,34
1576863915.384649,101733.667,17427,3,MY,1,100,34
1576863915.425777,101768.333,17427,3,MY,1,100,34
1576863915.466905,101803.000,17427,3,MY,1,100,37
1576863915.507241,101837.000,17445,3,MY,1,100,35
1576863915.547578,101871.000,17445,3,MY,1,100,34
1576863915.587915,101905.000,17445,3,MY,1,100,35
1576863915.628845,101939.500,17462,2,MY,1,100,33
1576863915.669775,101974.000,17462,2,MY,1,100,35
1576863915.710903,102008.667,17480,3,MY,1,100,35
1576863915.752031,102043.333,17480,3,MY,1,100,34
1576863915.793158,102078.000,17480,3,MY,1,100,34
1576863915.834286,102112.667,17498,3,MY,1,100,34
1576863915.875414,102147.333,17498,3,MY,1,100,35
1576863915.916542,102182.000,17498,3,MY,1,100,34
1576863915.953616,102213.250,17514,4,MY,1,100,35
1576863915.990690,102244.500,17514,4,MY,1,100,34
1576863916.027764,102275.750,17514,4,MY,1,100,34
1576863916.064839,102307.000,17514,4,MY,1,100,34
1576863916.103396,102339.500,17532,2,MY,1,100,34
1576863916.141953,102372.000,17532,2,MY,1,100,34
1576863916.181103,102405.000,17551,4,MY,1,100,35
1576863916.220254,102438.000,17551,4,MY,1,100,36
1576863916.259404,102471.000,17551,4,MY,1,100,36
1576863916.298555,102504.000,17551,4,MY,1,100,35
1576863916.341858,102540.500,17572,4,MY,1,100,36
1576863916.385160,102577.000,17572,4,MY,1,100,35
1576863916.428463,102613.500,17572,4,MY,1,100,34
1576863916.471766,102650.000,17572,4,MY,1,100,35
1576863916.512893,102684.667,17589,3,MY,1,100,34
1576863916.554021,102719.333,17589,3,MY,1,100,34
1576863916.595149,102754.000,17589,3,MY,1,100,34
1576863916.637068,102789.333,17607,3,MY,1,100,34
1576863916.678986,102824.667,17607,3,MY,1,100,34
1576863916.720905,102860.000,17607,3,MY,1,100,35
1576863916.759264,102892.333,17625,3,MY,1,100,34
1576863916.797624,102924.667,17625,3,MY,1,100,35
1576863916.835984,102957.000,17625,3,MY,1,100,36
1576863916.880275,102994.333,17643,3,MY,1,100,33
1576863916.924566,103031.667,17643,3,MY,1,100,35
1576863916.968858,103069.000,17643,3,MY,1,100,34
1576863917.009985,103103.667,17661,3,MY,1,100,35
1576863917.051113,103138.333,17661,3,MY,1,100,36
1576863917.092241,103173.000,17661,3,MY,1,100,33
1576863917.132578,103207.000,17679,3,MY,1,100,35
1576863917.172915,103241.000,17679,3,MY,1,100,34
1576863917.213251,103275.000,17679,3,MY,1,100,35
1576863917.250820,103306.667,17698,3,MY,1,100,34
1576863917.288388,103338.333,17698,3,MY,1,100,34
1576863917.325957,103370.000,17698,3,MY,1,100,35
1576863917.365108,103403.000,17716,3,MY,1,100,34
1576863917.404258,103436.000,17716,3,MY,1,100,36
1576863917.443408,103469.000,17716,3,MY,1,100,35
1576863917.484141,103503.333,17733,3,MY,1,100,34
1576863917.524873,103537.667,17733,3,MY,1,100,35
1576863917.565605,103572.000,17733,3,MY,1,100,35
1576863917.612467,103611.500,17751,2,MY,1,100,36
1576863917.659329,103651.000,17751,2,MY,1,100,34
1576863917.700457,103685.667,17767,3,MY,1,100,34
1576863917.741584,103720.333,17767,3,MY,1,100,32
1576863917.782712,103755.000,17767,3,MY,1,100,34
1576863917.820973,103787.250,17785,4,MY,1,100,33
1576863917.859233,103819.500,17785,4,MY,1,100,35
1576863917.897494,103851.750,17785,4,MY,1,100,35
1576863917.935755,103884.000,17785,4,MY,1,100,35
1576863917.973719,103916.000,17803,3,MY,1,100,34
1576863918.011683,103948.000,17803,3,MY,1,100,34
1576863918.049647,103980.000,17803,3,MY,1,100,35
1576863918.089984,104014.000,17821,3,MY,1,100,32
1576863918.130320,104048.000,17821,3,MY,1,100,34
1576863918.170657,104082.000,17821,3,MY,1,100,34
1576863918.211785,104116.667,17840,3,MY,1,100,35
1576863918.252913,104151.333,17840,3,MY,1,100,35
1576863918.294040,104186.000,17840,3,MY,1,100,35
1576863918.340902,104225.500,17858,2,MY,1,100,34
1576863918.387764,104265.000,17858,2,MY,1,100,34
1576863918.426519,104297.667,17876,3,MY,1,100,34
1576863918.465274,104330.333,17876,3,MY,1,100,37
1576863918.504029,104363.000,17876,3,MY,1,100,34
1576863918.542290,104395.250,17894,4,MY,1,100,36
1576863918.580550,104427.500,17894,4,MY,1,100,34
1576863918.618811,104459.750,17894,4,MY,1,100,34
1576863918.657072,104492.000,17894,4,MY,1,100,34
1576863918.696815,104525.500,17912,2,MY,1,100,33
1576863918.736559,104559.000,17912,2,MY,1,100,35
1576863918.778082,104594.000,17929,3,MY,1,100,34
1576863918.819605,104629.000,17929,3,MY,1,100,34
1576863918.861128,104664.000,17929,3,MY,1,100,35
1576863918.902256,104698.667,17945,3,MY,1,100,36
1576863918.943384,104733.333,17945,3,MY,1,100,34
1576863918.984512,104768.000,17945,3,MY,1,100,35
1576863919.024453,104801.667,17963,3,MY,1,100,34
1576863919.064394,104835.333,17963,3,MY,1,100,34
1576863919.104336,104869.000,17963,3,MY,1,100,35
1576863919.145068,104903.333,17982,3,MY,1,100,34
1576863919.185800,104937.667,17982,3,MY,1,100,35
1576863919.226532,104972.000,17982,3,MY,1,100,35
1576863919.266078,105005.333,18000,3,MY,1,100,34
1576863919.305624,105038.667,18000,3,MY,1,100,34
1576863919.345170,105072.000,18000,3,MY,1,100,34
1576863919.386298,105106.667,18018,3,MY,1,100,32
1576863919.427426,105141.333,18018,3,MY,1,100,34
1576863919.468553,105176.000,18018,3,MY,1,100,36
1576863919.509681,105210.667,18036,3,MY,1,100,35
1576863919.550809,105245.333,18036,3,MY,1,100,33
1576863919.591936,105280.000,18036,3,MY,1,100,34
1576863919.631087,105313.000,18054,3,MY,1,100,33
1576863919.670237,105346.000,18054,3,MY,1,100,34
1576863919.709388,105379.000,18054,3,MY,1,100,35
1576863919.750515,105413.667,18072,3,MY,1,100,35
1576863919.791643,105448.333,18072,3,MY,1,100,35
1576863919.832771,105483.000,18072,3,MY,1,100,34
1576863919.872712,105516.667,18090,3,MY,1,100,34
1576863919.912654,105550.333,18090,3,MY,1,100,34
1576863919.952595,105584.000,18090,3,MY,1,100,35
1576863919.992141,105617.333,18107,3,MY,1,100,34
1576863920.031687,105650.667,18107,3,MY,1,100,35
1576863920.071233,105684.000,18107,3,MY,1,100,36
1576863920.112756,105719.000,18126,3,MY,1,100,34
1576863920.154279,105754.000,18126,3,MY,1,100,35
1576863920.195802,105789.000,18126,3,MY,1,100,34
1576863920.234557,105821.667,18144,3,MY,1,100,34
1576863920.273312,105854.333,18144,3,MY,1,100,34
1576863920.312067,105887.000,18144,3,MY,1,100,35
1576863920.350031,105919.000,18160,3,MY,1,100,34
1576863920.387995,105951.000,18160,3,MY,1,100,35
1576863920.425959,105983.000,18160,3,MY,1,100,35
1576863920.467878,106018.333,18178,3,MY,1,100,35
1576863920.509797,106053.667,18178,3,MY,1,100,35
1576863920.551715,106089.000,18178,3,MY,1,100,35
1576863920.592843,106123.667,18196,3,MY,1,100,35
1576863920.633970,106158.333,18196,3,MY,1,100,34
1576863920.675098,106193.000,18196,3,MY,1,100,36
1576863920.716226,106227.667,18214,3,MY,1,100,35
1576863920.757354,106262.333,18214,3,MY,1,100,34
1576863920.798481,106297.000,18214,3,MY,1,100,35
1576863920.839609,106331.667,18232,3,MY,1,100,35
1576863920.880737,106366.333,18232,3,MY,1,100,34
1576863920.921865,106401.000,18232,3,MY,1,100,35
1576863920.959433,106432.667,18250,3,MY,1,100,35
1576863920.997002,106464.333,18250,3,MY,1,100,34
1576863921.034570,106496.000,18250,3,MY,1,100,33
1576863921.073325,106528.667,18268,3,MY,1,100,35
1576863921.112080,106561.333,18268,3,MY,1,100,35
1576863921.150835,106594.000,18268,3,MY,1,100,35
1576863921.195522,106631.667,18286,3,MY,1,100,35
1576863921.240209,106669.333,18286,3,MY,1,100,34
1576863921.284896,106707.000,18286,3,MY,1,100,36
1576863921.322069,106738.333,18304,3,MY,1,100,34
1576863921.359242,106769.667,18304,3,MY,1,100,35
1576863921.396415,106801.000,18304,3,MY,1,100,34
1576863921.438532,106836.500,18320,2,MY,1,100,35
1576863921.480648,106872.000,18320,2,MY,1,100,34
1576863921.521380,106906.333,18338,3,MY,1,100,34
1576863921.562113,106940.667,18338,3,MY,1,100,35
1576863921.602845,106975.000,18338,3,MY,1,100,35
1576863921.648323,107013.333,18356,3,MY,1,100,35
1576863921.693800,107051.667,18356,3,MY,1,100,35
1576863921.739278,107090.000,18356,3,MY,1,100,35
1576863921.776649,107121.500,18374,4,MY,1,100,36
1576863921.814020,107153.000,18374,4,MY,1,100,34
1576863921.851391,107184.500,18374,4,MY,1,100,34
1576863921.888762,107216.000,18374,4,MY,1,100,35
1576863921.927121,107248.333,18392,3,MY,1,100,36
1576863921.965481,107280.667,18392,3,MY,1,100,35
1576863922.003840,107313.000,18392,3,MY,1,100,34
1576863922.044572,107347.333,18410,3,MY,1,100,34
1576863922.085305,107381.667,18410,3,MY,1,100,35
1576863922.126037,107416.000,18410,3,MY,1,100,34
1576863922.165781,107449.500,18429,2,MY,1,100,34
1576863922.205524,107483.000,18429,2,MY,1,100,34
1576863922.251002,107521.333,18446,3,MY,1,100,35
1576863922.296480,107559.667,18446,3,MY,1,100,35
1576863922.341958,107598.000,18446,3,MY,1,100,35
1576863922.379922,107630.000,18467,5,MY,1,100,34
1576863922.417886,107662.000,18467,5,MY,1,100,35
1576863922.455850,107694.000,18467,5,MY,1,100,34
1576863922.493814,107726.000,18467,5,MY,1,100,35
1576863922.531778,107758.000,18467,5,MY,1,100,33
1576863922.571719,107791.667,18487,3,MY,1,100,34
1576863922.611660,107825.333,18487,3,MY,1,100,34
1576863922.651602,107859.000,18487,3,MY,1,100,34
1576863922.693125,107894.000,18505,3,MY,1,100,37
1576863922.734648,107929.000,18505,3,MY,1,100,34
1576863922.776171,107964.000,18505,3,MY,1,100,36
1576863922.817299,107998.667,18523,3,MY,1,100,34
1576863922.858427,108033.333,18523,3,MY,1,100,34
1576863922.899554,108068.000,18523,3,MY,1,100,33
1576863922.942660,108104.333,18540,3,MY,1,100,34
1576863922.985765,108140.667,18540,3,MY,1,100,35
1576863923.028870,108177.000,18540,3,MY,1,100,33
1576863923.066438,108208.667,18558,3,MY,1,100,34
1576863923.104007,108240.333,18558,3,MY,1,100,34
1576863923.141575,108272.000,18558,3,MY,1,100,33
1576863923.181121,108305.333,18577,3,MY,1,100,35
1576863923.220667,108338.667,18577,3,MY,1,100,34
1576863923.260213,108372.000,18577,3,MY,1,100,35
1576863923.301736,108407.000,18593,3,MY,1,100,35
1576863923.343259,108442.000,18593,3,MY,1,100,34
1576863923.384783,108477.000,18593,3,MY,1,100,33
1576863923.425515,108511.333,18611,3,MY,1,100,35
1576863923.466247,108545.667,18611,3,MY,1,100,35
1576863923.506979,108580.000,18611,3,MY,1,100,35
1576863923.547712,108614.333,18629,3,MY,1,100,35
1576863923.588444,108648.667,18629,3,MY,1,100,35
1576863923.629176,108683.000,18629,3,MY,1,100,33
1576863923.670304,108717.667,18647,3,MY,1,100,34
1576863923.711432,108752.333,18647,3,MY,1,100,34
1576863923.752559,108787.000,18647,3,MY,1,100,35
1576863923.787360,108816.333,18665,3,MY,1,100,35
1576863923.822160,108845.667,18665,3,MY,1,100,34
1576863923.856961,108875.000,18665,3,MY,1,100,35
1576863923.898879,108910.333,18683,3,MY,1,100,35
1576863923.940798,108945.667,18683,3,MY,1,100,36
1576863923.982717,108981.000,18683,3,MY,1,100,35
1576863924.017517,109010.333,18701,3,MY,1,100,34
1576863924.052317,109039.667,18701,3,MY,1,100,35
1576863924.087118,109069.000,18701,3,MY,1,100,34
1576863924.128641,109104.000,18720,3,MY,1,100,36
1576863924.170164,109139.000,18720,3,MY,1,100,35
1576863924.211687,109174.000,18720,3,MY,1,100,35
1576863924.252024,109208.000,18738,3,MY,1,100,35
1576863924.292361,109242.000,18738,3,MY,1,100,36
1576863924.332698,109276.000,18738,3,MY,1,100,35
1576863924.373825,109310.667,18755,3,MY,1,100,34
1576863924.414953,109345.333,18755,3,MY,1,100,35
1576863924.456081,109380.000,18755,3,MY,1,100,35
1576863924.497604,109415.000,18773,3,MY,1,100,35
1576863924.539127,109450.000,18773,3,MY,1,100,33
1576863924.580650,109485.000,18773,3,MY,1,100,35
1576863924.619405,109517.667,18789,3,MY,1,100,34
1576863924.658160,109550.333,18789,3,MY,1,100,35
1576863924.696915,109583.000,18789,3,MY,1,100,34
1576863924.734879,109615.000,18807,3,MY,1,100,35
1576863924.772843,109647.000,18807,3,MY,1,100,35
1576863924.810807,109679.000,18807,3,MY,1,100,34
1576863924.855099,109716.333,18825,3,MY,1,100,37
1576863924.899390,109753.667,18825,3,MY,1,100,34
1576863924.943681,109791.000,18825,3,MY,1,100,35
1576863924.980459,109822.000,18843,3,MY,1,100,34
1576863925.017237,109853.000,18843,3,MY,1,100,35
1576863925.054015,109884.000,18843,3,MY,1,100,35
1576863925.094747,109918.333,18862,3,MY,1,100,34
1576863925.135479,109952.667,18862,3,MY,1,100,34
1576863925.176211,109987.000,18862,3,MY,1,100,36
1576863925.220503,110024.333,18880,3,MY,1,100,36
1576863925.264794,110061.667,18880,3,MY,1,100,35
1576863925.309086,110099.000,18880,3,MY,1,100,34
1576863925.350609,110134.000,18898,3,MY,1,100,34
1576863925.392132,110169.000,18898,3,MY,1,100,34
1576863925.433655,110204.000,18898,3,MY,1,100,35
1576863925.471619,110236.000,18915,3,MY,1,100,35
1576863925.509583,110268.000,18915,3,MY,1,100,34
1576863925.547547,110300.000,18915,3,MY,1,100,34
1576863925.585511,110332.000,18933,3,MY,1,100,35
1576863925.623475,110364.000,18933,3,MY,1,100,35
1576863925.661439,110396.000,18933,3,MY,1,100,35
1576863925.700590,110429.000,18951,3,MY,1,100,33
1576863925.739740,110462.000,18951,3,MY,1,100,35
1576863925.778891,110495.000,18951,3,MY,1,100,33
1576863925.821007,110530.500,18967,2,MY,1,100,35
1576863925.863123,110566.000,18967,2,MY,1,100,34
1576863925.907415,110603.333,18985,3,MY,1,100,34
1576863925.951706,110640.667,18985,3,MY,1,100,34
1576863925.995998,110678.000,18985,3,MY,1,100,35
1576863926.035445,110711.250,19003,4,MY,1,100,35
1576863926.074892,110744.500,19003,4,MY,1,100,34
1576863926.114339,110777.750,19003,4,MY,1,100,34
1576863926.153786,110811.000,19003,4,MY,1,100,33
1576863926.191750,110843.000,19022,3,MY,1,100,35
1576863926.229714,110875.000,19022,3,MY,1,100,35
1576863926.267678,110907.000,19022,3,MY,1,100,33
1576863926.308015,110941.000,19040,3,MY,1,100,35
1576863926.348351,110975.000,19040,3,MY,1,100,34
1576863926.388688,111009.000,19040,3,MY,1,100,33
1576863926.430212,111044.000,19058,3,MY,1,100,36
1576863926.471735,111079.000,19058,3,MY,1,100,35
1576863926.513258,111114.000,19058,3,MY,1,100,34
1576863926.554188,111148.500,19076,2,MY,1,100,34
1576863926.595118,111183.000,19076,2,MY,1,100,35
1576863926.639014,111220.000,19094,3,MY,1,100,32
1576863926.682910,111257.000,19094,3,MY,1,100,34
1576863926.726806,111294.000,19094,3,MY,1,100,34
1576863926.763188,111324.667,19111,3,MY,1,100,35
1576863926.799570,111355.333,19111,3,MY,1,100,34
1576863926.835952,111386.000,19111,3,MY,1,100,35
1576863926.875498,111419.333,19129,3,MY,1,100,35
1576863926.915044,111452.667,19129,3,MY,1,100,35
1576863926.954590,111486.000,19129,3,MY,1,100,35
1576863926.994927,111520.000,19147,3,MY,1,100,34
1576863927.035264,111554.000,19147,3,MY,1,100,36
1576863927.075600,111588.000,19147,3,MY,1,100,33
1576863927.116728,111622.667,19164,3,MY,1,100,34
1576863927.157856,111657.333,19164,3,MY,1,100,34
1576863927.198984,111692.000,19164,3,MY,1,100,36
1576863927.240111,111726.667,19182,3,MY,1,100,34
1576863927.281239,111761.333,19182,3,MY,1,100,34
1576863927.322367,111796.000,19182,3,MY,1,100,34
1576863927.363099,111830.333,19200,3,MY,1,100,33
1576863927.403831,111864.667,19200,3,MY,1,100,34
1576863927.444564,111899.000,19200,3,MY,1,100,34
1576863927.484109,111932.333,19218,3,MY,1,100,34
1576863927.523655,111965.667,19218,3,MY,1,100,35
1576863927.563201,111999.000,19218,3,MY,1,100,33
1576863927.604329,112033.667,19236,3,MY,1,100,35
1576863927.645457,112068.333,19236,3,MY,1,100,37
1576863927.686584,112103.000,19236,3,MY,1,100,35
1576863927.723758,112134.333,19254,3,MY,1,100,35
1576863927.760931,112165.667,19254,3,MY,1,100,35
1576863927.798104,112197.000,19254,3,MY,1,100,35
1576863927.838441,112231.000,19272,3,MY,1,100,34
1576863927.878778,112265.000,19272,3,MY,1,100,35
1576863927.919114,112299.000,19272,3,MY,1,100,34
1576863927.959056,112332.667,19290,3,MY,1,100,35
1576863927.998997,112366.333,19290,3,MY,1,100,34
1576863928.038938,112400.000,19290,3,MY,1,100,34
1576863928.080462,112435.000,19308,3,MY,1,100,33
1576863928.121985,112470.000,19308,3,MY,1,100,34
1576863928.163508,112505.000,19308,3,MY,1,100,35
1576863928.204636,112539.667,19326,3,MY,1,100,35
1576863928.245763,112574.333,19326,3,MY,1,100,35
1576863928.286891,112609.000,19326,3,MY,1,100,35
1576863928.327623,112643.333,19342,3,MY,1,100,35
1576863928.368356,112677.667,19342,3,MY,1,100,35
1576863928.409088,112712.000,19342,3,MY,1,100,34
1576863928.449662,112746.200,19363,5,MY,1,100,35
1576863928.490236,112780.400,19363,5,MY,1,100,34
1576863928.530810,112814.600,19363,5,MY,1,100,34
1576863928.571384,112848.800,19363,5,MY,1,100,34
1576863928.611958,112883.000,19363,5,MY,1,100,33
1576863928.650318,112915.333,19382,3,MY,1,100,35
1576863928.688677,112947.667,19382,3,MY,1,100,34
1576863928.727037,112980.000,19382,3,MY,1,100,34
1576863928.770142,113016.333,19400,3,MY,1,100,35
1576863928.813247,113052.667,19400,3,MY,1,100,37
1576863928.856352,113089.000,19400,3,MY,1,100,34
1576863928.896689,113123.000,19416,3,MY,1,100,34
1576863928.937025,113157.000,19416,3,MY,1,100,35
1576863928.977362,113191.000,19416,3,MY,1,100,34
1576863929.018885,113226.000,19434,2,MY,1,100,33
1576863929.060409,113261.000,19434,2,MY,1,100,35
1576863929.100745,113295.000,19453,3,MY,1,100,34
1576863929.141082,113329.000,19453,3,MY,1,100,34
1576863929.181419,113363.000,19453,3,MY,1,100,35
1576863929.219383,113395.000,19471,4,MY,1,100,34
1576863929.257347,113427.000,19471,4,MY,1,100,35
1576863929.295311,113459.000,19471,4,MY,1,100,35
1576863929.333275,113491.000,19471,4,MY,1,100,35
1576863929.372426,113524.000,19489,3,MY,1,100,34
1576863929.411576,113557.000,19489,3,MY,1,100,33
1576863929.450727,113590.000,19489,3,MY,1,100,35
1576863929.496995,113629.000,19507,2,MY,1,100,34
1576863929.543264,113668.000,19507,2,MY,1,100,34
1576863929.584392,113702.667,19525,3,MY,1,100,34
1576863929.625519,113737.333,19525,3,MY,1,100,35
1576863929.666647,113772.000,19525,3,MY,1,100,35
1576863929.707775,113806.667,19543,3,MY,1,100,35
1576863929.748903,113841.333,19543,3,MY,1,100,34
1576863929.790030,113876.000,19543,3,MY,1,100,34
1576863929.827994,113908.000,19560,3,MY,1,100,34
1576863929.865958,113940.000,19560,3,MY,1,100,34
1576863929.903922,113972.000,19560,3,MY,1,100,34
1576863929.942677,114004.667,19578,3,MY,1,100,35
1576863929.981432,114037.333,19578,3,MY,1,100,34
1576863930.020187,114070.000,19578,3,MY,1,100,34
1576863930.060920,114104.333,19597,3,MY,1,100,34
1576863930.101652,114138.667,19597,3,MY,1,100,35
1576863930.142384,114173.000,19597,3,MY,1,100,35
1576863930.183512,114207.667,19613,3,MY,1,100,35
1576863930.224640,114242.333,19613,3,MY,1,100,34
1576863930.265767,114277.000,19613,3,MY,1,100,34
1576863930.310850,114315.000,19631,3,MY,1,100,34
1576863930.355932,114353.000,19631,3,MY,1,100,34
1576863930.401014,114391.000,19631,3,MY,1,100,34
1576863930.438978,114423.000,19649,3,MY,1,100,35
1576863930.476942,114455.000,19649,3,MY,1,100,35
1576863930.514906,114487.000,19649,3,MY,1,100,35
1576863930.552079,114518.333,19667,3,MY,1,100,33
1576863930.589253,114549.667,19667,3,MY,1,100,36
1576863930.626426,114581.000,19667,3,MY,1,100,35
1576863930.666763,114615.000,19685,3,MY,1,100,34
1576863930.707099,114649.000,19685,3,MY,1,100,35
1576863930.747436,114683.000,19685,3,MY,1,100,34
1576863930.788168,114717.333,19703,3,MY,1,100,35
1576863930.828901,114751.667,19703,3,MY,1,100,35
1576863930.869633,114786.000,19703,3,MY,1,100,34
1576863930.911947,114821.667,19721,3,MY,1,100,35
1576863930.954261,114857.333,19721,3,MY,1,100,35
1576863930.996575,114893.000,19721,3,MY,1,100,35
1576863931.037703,114927.667,19738,3,MY,1,100,34
1576863931.078831,114962.333,19738,3,MY,1,100,36
1576863931.119958,114997.000,19738,3,MY,1,100,32
1576863931.166820,115036.500,19757,2,MY,1,100,35
1576863931.213682,115076.000,19757,2,MY,1,100,35
1576863931.252239,115108.500,19773,4,MY,1,100,35
1576863931.290797,115141.000,19773,4,MY,1,100,34
1576863931.329354,115173.500,19773,4,MY,1,100,34
1576863931.367911,115206.000,19773,4,MY,1,100,35
1576863931.409039,115240.667,19791,3,MY,1,100,36
1576863931.450167,115275.333,19791,3,MY,1,100,34
1576863931.491294,115310.000,19791,3,MY,1,100,35
1576863931.528863,115341.667,19809,3,MY,1,100,34
1576863931.566432,115373.333,19809,3,MY,1,100,33
1576863931.604000,115405.000,19809,3,MY,1,100,34
1576863931.643941,115438.667,19827,3,MY,1,100,35
1576863931.683883,115472.333,19827,3,MY,1,100,34
1576863931.723824,115506.000,19827,3,MY,1,100,33
1576863931.763766,115539.667,19845,3,MY,1,100,35
1576863931.803707,115573.333,19845,3,MY,1,100,34
1576863931.843648,115607.000,19845,3,MY,1,100,34
1576863931.883590,115640.667,19863,3,MY,1,100,34
1576863931.923531,115674.333,19863,3,MY,1,100,34
1576863931.963472,115708.000,19863,3,MY,1,100,35
1576863932.004205,115742.333,19881,3,MY,1,100,35
1576863932.044937,115776.667,19881,3,MY,1,100,34
1576863932.085669,115811.000,19881,3,MY,1,100,34
1576863932.127192,115846.000,19900,3,MY,1,100,35
1576863932.168715,115881.000,19900,3,MY,1,100,35
1576863932.210239,115916.000,19900,3,MY,1,100,35
1576863932.252355,115951.500,19917,2,MY,1,100,34
1576863932.294471,115987.000,19917,2,MY,1,100,36
1576863932.335599,116021.667,19935,3,MY,1,100,34
1576863932.376727,116056.333,19935,3,MY,1,100,35
1576863932.417855,116091.000,19935,3,MY,1,100,34
1576863932.456412,116123.500,19952,4,MY,1,100,35
1576863932.494969,116156.000,19952,4,MY,1,100,34
1576863932.533526,116188.500,19952,4,MY,1,100,36
1576863932.572083,116221.000,19952,4,MY,1,100,35
1576863932.613607,116256.000,19969,2,MY,1,100,35
1576863932.655130,116291.000,19969,2,MY,1,100,35
1576863932.695071,116324.667,19987,3,MY,1,100,35
1576863932.735013,116358.333,19987,3,MY,1,100,35
1576863932.774954,116392.000,19987,3,MY,1,100,35
1576863932.817268,116427.667,20005,3,MY,1,100,35
1576863932.859582,116463.333,20005,3,MY,1,100,35
1576863932.901896,116499.000,20005,3,MY,1,100,36
1576863932.939465,116530.667,20023,3,MY,1,100,34
1576863932.977033,116562.333,20023,3,MY,1,100,34
1576863933.014602,116594.000,20023,3,MY,1,100,34
1576863933.056125,116629.000,20041,3,MY,1,100,35
1576863933.097648,116664.000,20041,3,MY,1,100,33
1576863933.139172,116699.000,20041,3,MY,1,100,35
1576863933.179904,116733.333,20060,3,MY,1,100,34
1576863933.220636,116767.667,20060,3,MY,1,100,36
1576863933.261368,116802.000,20060,3,MY,1,100,33
1576863933.302101,116836.333,20078,3,MY,1,100,35
1576863933.342833,116870.667,20078,3,MY,1,100,35
1576863933.383565,116905.000,20078,3,MY,1,100,34
1576863933.424693,116939.667,20095,3,MY,1,100,35
1576863933.465821,116974.333,20095,3,MY,1,100,36
1576863933.506948,117009.000,20095,3,MY,1,100,35
1576863933.546099,117042.000,20113,3,MY,1,100,35
1576863933.585249,117075.000,20113,3,MY,1,100,35
1576863933.624400,117108.000,20113,3,MY,1,100,34
1576863933.662364,117140.000,20131,3,MY,1,100,36
1576863933.700328,117172.000,20131,3,MY,1,100,35
1576863933.738292,117204.000,20131,3,MY,1,100,34
1576863933.778233,117237.667,20147,3,MY,1,100,35
1576863933.818174,117271.333,20147,3,MY,1,100,36
1576863933.858116,117305.000,20147,3,MY,1,100,35
1576863933.903198,117343.000,20165,3,MY,1,100,34
1576863933.948280,117381.000,20165,3,MY,1,100,35
1576863933.993363,117419.000,20165,3,MY,1,100,34
1576863934.034095,117453.333,20183,3,MY,1,100,34
1576863934.074827,117487.667,20183,3,MY,1,100,36
1576863934.115560,117522.000,20183,3,MY,1,100,35
1576863934.153919,117554.333,20202,3,MY,1,100,35
1576863934.192279,117586.667,20202,3,MY,1,100,35
1576863934.230638,117619.000,20202,3,MY,1,100,35
1576863934.268998,117651.333,20220,3,MY,1,100,33
1576863934.307357,117683.667,20220,3,MY,1,100,36
1576863934.345717,117716.000,20220,3,MY,1,100,33
1576863934.384472,117748.667,20238,3,MY,1,100,35
1576863934.423227,117781.333,20238,3,MY,1,100,35
1576863934.461982,117814.000,20238,3,MY,1,100,37
1576863934.503030,117848.600,20259,5,MY,1,100,35
1576863934.544079,117883.200,20259,5,MY,1,100,37
1576863934.585127,117917.800,20259,5,MY,1,100,34
1576863934.626176,117952.400,20259,5,MY,1,100,35
1576863934.667225,117987.000,20259,5,MY,1,100,34
1576863934.709341,118022.500,20279,2,MY,1,100,33
1576863934.751457,118058.000,20279,2,MY,1,100,36
1576863934.796144,118095.667,20297,3,MY,1,100,35
1576863934.840831,118133.333,20297,3,MY,1,100,35
1576863934.885518,118171.000,20297,3,MY,1,100,34
1576863934.924273,118203.667,20315,3,MY,1,100,34
1576863934.963028,118236.333,20315,3,MY,1,100,34
1576863935.001783,118269.000,20315,3,MY,1,100,36
1576863935.046470,118306.667,20333,3,MY,1,100,35
1576863935.091157,118344.333,20333,3,MY,1,100,35
1576863935.135844,118382.000,20333,3,MY,1,100,33
1576863935.174203,118414.333,20351,3,MY,1,100,34
1576863935.212563,118446.667,20351,3,MY,1,100,35
1576863935.250922,118479.000,20351,3,MY,1,100,34
1576863935.296004,118517.000,20369,3,MY,1,100,35
1576863935.341087,118555.000,20369,3,MY,1,100,34
1576863935.386169,118593.000,20369,3,MY,1,100,34
1576863935.424924,118625.667,20385,3,MY,1,100,34
1576863935.463679,118658.333,20385,3,MY,1,100,35
1576863935.502434,118691.000,20385,3,MY,1,100,35
1576863935.540398,118723.000,20403,3,MY,1,100,34
1576863935.578362,118755.000,20403,3,MY,1,100,35
1576863935.616326,118787.000,20403,3,MY,1,100,34
1576863935.655872,118820.333,20421,3,MY,1,100,35
1576863935.695418,118853.667,20421,3,MY,1,100,34
1576863935.734964,118887.000,20421,3,MY,1,100,34
1576863935.776091,118921.667,20439,3,MY,1,100,35
1576863935.817219,118956.333,20439,3,MY,1,100,34
1576863935.858347,118991.000,20439,3,MY,1,100,34
1576863935.899475,119025.667,20457,3,MY,1,100,35
1576863935.940602,119060.333,20457,3,MY,1,100,35
1576863935.981730,119095.000,20457,3,MY,1,100,35
1576863936.025230,119131.667,20475,3,MY,1,100,35
1576863936.068731,119168.333,20475,3,MY,1,100,35
1576863936.112231,119205.000,20475,3,MY,1,100,36
1576863936.149800,119236.667,20494,3,MY,1,100,36
1576863936.187369,119268.333,20494,3,MY,1,100,34
1576863936.224937,119300.000,20494,3,MY,1,100,33
1576863936.263692,119332.667,20512,3,MY,1,100,35
1576863936.302447,119365.333,20512,3,MY,1,100,34
1576863936.341202,119398.000,20512,3,MY,1,100,34
1576863936.382725,119433.000,20529,3,MY,1,100,34
1576863936.424248,119468.000,20529,3,MY,1,100,34
1576863936.465772,119503.000,20529,3,MY,1,100,35
1576863936.506109,119537.000,20547,3,MY,1,100,34
1576863936.546445,119571.000,20547,3,MY,1,100,33
1576863936.586782,119605.000,20547,3,MY,1,100,36
1576863936.627514,119639.333,20563,3,MY,1,100,34
1576863936.668247,119673.667,20563,3,MY,1,100,34
1576863936.708979,119708.000,20563,3,MY,1,100,34
1576863936.749711,119742.333,20581,3,MY,1,100,35
1576863936.790443,119776.667,20581,3,MY,1,100,34
1576863936.831176,119811.000,20581,3,MY,1,100,34
1576863936.870722,119844.333,20599,3,MY,1,100,35
1576863936.910268,119877.667,20599,3,MY,1,100,34
1576863936.949813,119911.000,20599,3,MY,1,100,34
1576863936.990743,119945.500,20617,2,MY,1,100,35
1576863937.031673,119980.000,20617,2,MY,1,100,34
1576863937.072900,120014.750,20636,4,MY,1,100,35
1576863937.114127,120049.500,20636,4,MY,1,100,34
1576863937.155353,120084.250,20636,4,MY,1,100,34
1576863937.196580,120119.000,20636,4,MY,1,100,34
1576863937.239289,120155.000,20654,2,MY,1,100,34
1576863937.281999,120191.000,20654,2,MY,1,100,35
1576863937.319666,120222.750,20672,4,MY,1,100,35
1576863937.357334,120254.500,20672,4,MY,1,100,34
1576863937.395001,120286.250,20672,4,MY,1,100,34
1576863937.432669,120318.000,20672,4,MY,1,100,35
1576863937.476565,120355.000,20690,2,MY,1,100,34
1576863937.520461,120392.000,20690,2,MY,1,100,35
1576863937.561588,120426.667,20707,3,MY,1,100,34
1576863937.602716,120461.333,20707,3,MY,1,100,34
1576863937.643844,120496.000,20707,3,MY,1,100,33
1576863937.684972,120530.667,20725,3,MY,1,100,34
1576863937.726099,120565.333,20725,3,MY,1,100,35
1576863937.767227,120600.000,20725,3,MY,1,100,35
1576863937.808355,120634.667,20741,3,MY,1,100,34
1576863937.849482,120669.333,20741,3,MY,1,100,37
1576863937.890610,120704.000,20741,3,MY,1,100,35
1576863937.928970,120736.333,20759,3,MY,1,100,35
1576863937.967329,120768.667,20759,3,MY,1,100,33
1576863938.005689,120801.000,20759,3,MY,1,100,34
1576863938.043257,120832.667,20777,3,MY,1,100,34
1576863938.080826,120864.333,20777,3,MY,1,100,35
1576863938.118394,120896.000,20777,3,MY,1,100,35
1576863938.162686,120933.333,20796,3,MY,1,100,35
1576863938.206977,120970.667,20796,3,MY,1,100,35
1576863938.251269,121008.000,20796,3,MY,1,100,34
1576863938.292396,121042.667,20814,3,MY,1,100,34
1576863938.333524,121077.333,20814,3,MY,1,100,33
1576863938.374652,121112.000,20814,3,MY,1,100,35
1576863938.415780,121146.667,20832,3,MY,1,100,33
1576863938.456907,121181.333,20832,3,MY,1,100,33
1576863938.498035,121216.000,20832,3,MY,1,100,35
1576863938.536394,121248.333,20850,3,MY,1,100,35
1576863938.574754,121280.667,20850,3,MY,1,100,35
1576863938.613113,121313.000,20850,3,MY,1,100,34
1576863938.657405,121350.333,20867,3,MY,1,100,34
1576863938.701696,121387.667,20867,3,MY,1,100,36
1576863938.745988,121425.000,20867,3,MY,1,100,37
1576863938.783556,121456.667,20885,3,MY,1,100,35
1576863938.821125,121488.333,20885,3,MY,1,100,34
1576863938.858693,121520.000,20885,3,MY,1,100,34
1576863938.904962,121559.000,20901,2,MY,1,100,35
1576863938.951231,121598.000,20901,2,MY,1,100,35
1576863938.992358,121632.667,20919,3,MY,1,100,35
1576863939.033486,121667.333,20919,3,MY,1,100,36
1576863939.074614,121702.000,20919,3,MY,1,100,36
1576863939.115742,121736.667,20938,3,MY,1,100,35
1576863939.156869,121771.333,20938,3,MY,1,100,34
1576863939.197997,121806.000,20938,3,MY,1,100,35
1576863939.235961,121838.000,20956,4,MY,1,100,34
1576863939.273925,121870.000,20956,4,MY,1,100,34
1576863939.311889,121902.000,20956,4,MY,1,100,34
1576863939.349853,121934.000,20956,4,MY,1,100,35
1576863939.389004,121967.000,20974,3,MY,1,100,34
1576863939.428154,122000.000,20974,3,MY,1,100,35
1576863939.467305,122033.000,20974,3,MY,1,100,34
1576863939.508828,122068.000,20992,2,MY,1,100,34
1576863939.550351,122103.000,20992,2,MY,1,100,35
1576863939.591479,122137.667,21010,3,MY,1,100,33
1576863939.632607,122172.333,21010,3,MY,1,100,34
1576863939.673734,122207.000,21010,3,MY,1,100,34
1576863939.715257,122242.000,21027,3,MY,1,100,34
1576863939.756781,122277.000,21027,3,MY,1,100,35
1576863939.798304,122312.000,21027,3,MY,1,100,35
1576863939.842991,122349.667,21045,3,MY,1,100,34
1576863939.887677,122387.333,21045,3,MY,1,100,34
1576863939.932364,122425.000,21045,3,MY,1,100,34
1576863939.972306,122458.667,21061,3,MY,1,100,34
1576863940.012247,122492.333,21061,3,MY,1,100,35
1576863940.052188,122526.000,21061,3,MY,1,100,35
1576863940.089757,122557.667,21079,3,MY,1,100,32
1576863940.127326,122589.333,21079,3,MY,1,100,34
1576863940.164894,122621.000,21079,3,MY,1,100,34
1576863940.204045,122654.000,21098,3,MY,1,100,35
1576863940.243195,122687.000,21098,3,MY,1,100,35
1576863940.282346,122720.000,21098,3,MY,1,100,34
1576863940.322287,122753.667,21116,3,MY,1,100,34
1576863940.362228,122787.333,21116,3,MY,1,100,36
1576863940.402169,122821.000,21116,3,MY,1,100,33
1576863940.443693,122856.000,21134,3,MY,1,100,34
1576863940.485216,122891.000,21134,3,MY,1,100,34
1576863940.526739,122926.000,21134,3,MY,1,100,35
1576863940.568262,122961.000,21155,5,MY,1,100,36
1576863940.609785,122996.000,21155,5,MY,1,100,36
1576863940.651309,123031.000,21155,5,MY,1,100,35
1576863940.692832,123066.000,21155,5,MY,1,100,35
1576863940.734355,123101.000,21155,5,MY,1,100,34
1576863940.773110,123133.667,21173,3,MY,1,100,34
1576863940.811865,123166.333,21173,3,MY,1,100,35
1576863940.850620,123199.000,21173,3,MY,1,100,34
1576863940.891352,123233.333,21191,3,MY,1,100,35
1576863940.932084,123267.667,21191,3,MY,1,100,34
1576863940.972817,123302.000,21191,3,MY,1,100,35
1576863941.013944,123336.667,21209,3,MY,1,100,34
1576863941.055072,123371.333,21209,3,MY,1,100,34
1576863941.096200,123406.000,21209,3,MY,1,100,34
1576863941.136932,123440.333,21228,3,MY,1,100,35
1576863941.177664,123474.667,21228,3,MY,1,100,34
1576863941.218397,123509.000,21228,3,MY,1,100,34
1576863941.257152,123541.667,21246,3,MY,1,100,35
1576863941.295907,123574.333,21246,3,MY,1,100,35
1576863941.334661,123607.000,21246,3,MY,1,100,35
1576863941.378557,123644.000,21264,2,MY,1,100,34
1576863941.422453,123681.000,21264,2,MY,1,100,35
1576863941.461604,123714.000,21282,3,MY,1,100,36
1576863941.500754,123747.000,21282,3,MY,1,100,35
1576863941.539905,123780.000,21282,3,MY,1,100,34
1576863941.581033,123814.667,21299,3,MY,1,100,34
1576863941.622160,123849.333,21299,3,MY,1,100,35
1576863941.663288,123884.000,21299,3,MY,1,100,35
1576863941.704416,123918.667,21317,3,MY,1,100,35
1576863941.745543,123953.333,21317,3,MY,1,100,36
1576863941.786671,123988.000,21317,3,MY,1,100,36
1576863941.826612,124021.667,21334,3,MY,1,100,34
1576863941.866554,124055.333,21334,3,MY,1,100,33
1576863941.906495,124089.000,21334,3,MY,1,100,35
1576863941.943569,124120.250,21351,4,MY,1,100,34
1576863941.980644,124151.500,21351,4,MY,1,100,35
1576863942.017718,124182.750,21351,4,MY,1,100,34
1576863942.054792,124214.000,21351,4,MY,1,100,33
1576863942.100468,124252.500,21369,2,MY,1,100,34
1576863942.146143,124291.000,21369,2,MY,1,100,35
1576863942.182624,124321.750,21388,4,MY,1,100,35
1576863942.219105,124352.500,21388,4,MY,1,100,35
1576863942.255586,124383.250,21388,4,MY,1,100,36
1576863942.292068,124414.000,21388,4,MY,1,100,35
1576863942.340116,124454.500,21406,2,MY,1,100,35
1576863942.388164,124495.000,21406,2,MY,1,100,36
1576863942.424349,124525.500,21424,4,MY,1,100,35
1576863942.460533,124556.000,21424,4,MY,1,100,33
1576863942.496717,124586.500,21424,4,MY,1,100,34
1576863942.532902,124617.000,21424,4,MY,1,100,33
1576863942.578578,124655.500,21442,2,MY,1,100,34
1576863942.624253,124694.000,21442,2,MY,1,100,34
1576863942.665776,124729.000,21460,3,MY,1,100,35
1576863942.707299,124764.000,21460,3,MY,1,100,35
1576863942.748822,124799.000,21460,3,MY,1,100,35
1576863942.790346,124834.000,21477,3,MY,1,100,34
1576863942.831869,124869.000,21477,3,MY,1,100,35
1576863942.873392,124904.000,21477,3,MY,1,100,35
1576863942.912938,124937.333,21495,3,MY,1,100,33
1576863942.952484,124970.667,21495,3,MY,1,100,33
1576863942.992030,125004.000,21495,3,MY,1,100,35
1576863943.034739,125040.000,21511,3,MY,1,100,37
1576863943.077449,125076.000,21511,3,MY,1,100,35
1576863943.120158,125112.000,21511,3,MY,1,100,34
1576863943.157727,125143.667,21530,3,MY,1,100,34
1576863943.195296,125175.333,21530,3,MY,1,100,37
1576863943.232864,125207.000,21530,3,MY,1,100,34
1576863943.271224,125239.333,21548,3,MY,1,100,35
1576863943.309583,125271.667,21548,3,MY,1,100,35
1576863943.347943,125304.000,21548,3,MY,1,100,35
1576863943.388675,125338.333,21566,3,MY,1,100,35
1576863943.429407,125372.667,21566,3,MY,1,100,34
1576863943.470140,125407.000,21566,3,MY,1,100,36
1576863943.511267,125441.667,21584,3,MY,1,100,35
1576863943.552395,125476.333,21584,3,MY,1,100,35
1576863943.593523,125511.000,21584,3,MY,1,100,33
1576863943.639396,125549.667,21602,3,MY,1,100,36
1576863943.685269,125588.333,21602,3,MY,1,100,34
1576863943.731143,125627.000,21602,3,MY,1,100,35
1576863943.768711,125658.667,21620,3,MY,1,100,34
1576863943.806280,125690.333,21620,3,MY,1,100,33
1576863943.843848,125722.000,21620,3,MY,1,100,35
1576863943.881417,125753.667,21638,3,MY,1,100,35
1576863943.918985,125785.333,21638,3,MY,1,100,36
1576863943.956554,125817.000,21638,3,MY,1,100,34
1576863943.996495,125850.667,21655,3,MY,1,100,36
1576863944.036437,125884.333,21655,3,MY,1,100,34
