EpochTimestamp,EmotiBitTimestamp,PacketNumber,DataLength,TypeTag,ProtocolVersion,DataReliability,PR
1576864522.209142,51447.000,8486,4,PR,1,100,180097
1576864522.209142,51447.000,8486,4,PR,1,100,180095
1576864522.209142,51447.000,8486,4,PR,1,100,180065
1576864522.209142,51447.000,8486,4,PR,1,100,180083
1576864522.250405,51481.667,8504,3,PR,1,100,180094
1576864522.291667,51516.333,8504,3,PR,1,100,180055
1576864522.332930,51551.000,8504,3,PR,1,100,180093
1576864522.374589,51586.000,8522,3,PR,1,100,180154
1576864522.416249,51621.000,8522,3,PR,1,100,180179
1576864522.457908,51656.000,8522,3,PR,1,100,180203
1576864522.497187,51689.000,8540,3,PR,1,100,180218
1576864522.536466,51722.000,8540,3,PR,1,100,180195
1576864522.575745,51755.000,8540,3,PR,1,100,180189
1576864522.613833,51787.000,8559,3,PR,1,100,180180
1576864522.651922,51819.000,8559,3,PR,1,100,180266
1576864522.690011,51851.000,8559,3,PR,1,100,180319
1576864522.729686,51884.333,8577,3,PR,1,100,180298
1576864522.769362,51917.667,8577,3,PR,1,100,180211
1576864522.809037,51951.000,8577,3,PR,1,100,180058
1576864522.850300,51985.667,8594,3,PR,1,100,180004
1576864522.891563,52020.333,8594,3,PR,1,100,179992
1576864522.932825,52055.000,8594,3,PR,1,100,179979
1576864522.974882,52090.333,8612,3,PR,1,100,179990
1576864523.016938,52125.667,8612,3,PR,1,100,179991
1576864523.058994,52161.000,8612,3,PR,1,100,180006
1576864523.098273,52194.000,8628,3,PR,1,100,180012
1576864523.137552,52227.000,8628,3,PR,1,100,180011
1576864523.176831,52260.000,8628,3,PR,1,100,180019
1576864523.214522,52291.667,8646,3,PR,1,100,180026
1576864523.252214,52323.333,8646,3,PR,1,100,180020
1576864523.289906,52355.000,8646,3,PR,1,100,180022
1576864523.330375,52389.000,8664,3,PR,1,100,180034
1576864523.370844,52423.000,8664,3,PR,1,100,180060
1576864523.411313,52457.000,8664,3,PR,1,100,180097
1576864523.452179,52491.333,8682,3,PR,1,100,180122
1576864523.493045,52525.667,8682,3,PR,1,100,180146
1576864523.533911,52560.000,8682,3,PR,1,100,180167
1576864523.574380,52594.000,8700,3,PR,1,100,180192
1576864523.614849,52628.000,8700,3,PR,1,100,180204
1576864523.655318,52662.000,8700,3,PR,1,100,180204
1576864523.695391,52695.667,8719,3,PR,1,100,180236
1576864523.735463,52729.333,8719,3,PR,1,100,180261
1576864523.775536,52763.000,8719,3,PR,1,100,180242
1576864523.812831,52794.333,8737,3,PR,1,100,180128
1576864523.850126,52825.667,8737,3,PR,1,100,180033
1576864523.887421,52857.000,8737,3,PR,1,100,179976
1576864523.927096,52890.333,8755,3,PR,1,100,179954
1576864523.966772,52923.667,8755,3,PR,1,100,179948
1576864524.006448,52957.000,8755,3,PR,1,100,179934
1576864524.046917,52991.000,8773,3,PR,1,100,179965
1576864524.087386,53025.000,8773,3,PR,1,100,179953
1576864524.127855,53059.000,8773,3,PR,1,100,179960
1576864524.169514,53094.000,8790,3,PR,1,100,179948
1576864524.211174,53129.000,8790,3,PR,1,100,179968
1576864524.252833,53164.000,8790,3,PR,1,100,180009
1576864524.294493,53199.000,8808,3,PR,1,100,180042
1576864524.336152,53234.000,8808,3,PR,1,100,180056
1576864524.377811,53269.000,8808,3,PR,1,100,180036
1576864524.415503,53300.667,8824,3,PR,1,100,180041
1576864524.453195,53332.333,8824,3,PR,1,100,180053
1576864524.490887,53364.000,8824,3,PR,1,100,180104
1576864524.529769,53396.667,8842,3,PR,1,100,180132
1576864524.568651,53429.333,8842,3,PR,1,100,180196
1576864524.607533,53462.000,8842,3,PR,1,100,180243
1576864524.648002,53496.000,8861,3,PR,1,100,180211
1576864524.688472,53530.000,8861,3,PR,1,100,180202
1576864524.728941,53564.000,8861,3,PR,1,100,180217
1576864524.770203,53598.667,8879,3,PR,1,100,180243
1576864524.811466,53633.333,8879,3,PR,1,100,180255
1576864524.852729,53668.000,8879,3,PR,1,100,180279
1576864524.894388,53703.000,8897,3,PR,1,100,180284
1576864524.936048,53738.000,8897,3,PR,1,100,180182
1576864524.977707,53773.000,8897,3,PR,1,100,180056
1576864525.018970,53807.667,8915,3,PR,1,100,180003
1576864525.060232,53842.333,8915,3,PR,1,100,179991
1576864525.101495,53877.000,8915,3,PR,1,100,180001
1576864525.139187,53908.667,8933,3,PR,1,100,180000
1576864525.176878,53940.333,8933,3,PR,1,100,180009
1576864525.214570,53972.000,8933,3,PR,1,100,180017
1576864525.255039,54006.000,8951,3,PR,1,100,180028
1576864525.295509,54040.000,8951,3,PR,1,100,180041
1576864525.335978,54074.000,8951,3,PR,1,100,180048
1576864525.377240,54108.667,8968,3,PR,1,100,180080
1576864525.418503,54143.333,8968,3,PR,1,100,180086
1576864525.459766,54178.000,8968,3,PR,1,100,180079
1576864525.501822,54213.333,8986,3,PR,1,100,180119
1576864525.543878,54248.667,8986,3,PR,1,100,180109
1576864525.585934,54284.000,8986,3,PR,1,100,180154
1576864525.623626,54315.667,9003,3,PR,1,100,180165
1576864525.661318,54347.333,9003,3,PR,1,100,180190
1576864525.699010,54379.000,9003,3,PR,1,100,180209
1576864525.737495,54411.333,9021,3,PR,1,100,180220
1576864525.775980,54443.667,9021,3,PR,1,100,180241
1576864525.814466,54476.000,9021,3,PR,1,100,180257
1576864525.854935,54510.000,9039,3,PR,1,100,180260
1576864525.895404,54544.000,9039,3,PR,1,100,180279
1576864525.935873,54578.000,9039,3,PR,1,100,180243
1576864525.977136,54612.667,9057,3,PR,1,100,180083
1576864526.018399,54647.333,9057,3,PR,1,100,179983
1576864526.059661,54682.000,9057,3,PR,1,100,179955
1576864526.101321,54717.000,9075,3,PR,1,100,179983
1576864526.142980,54752.000,9075,3,PR,1,100,180027
1576864526.184639,54787.000,9075,3,PR,1,100,180044
1576864526.223521,54819.667,9093,3,PR,1,100,180079
1576864526.262403,54852.333,9093,3,PR,1,100,180055
1576864526.301286,54885.000,9093,3,PR,1,100,180036
1576864526.336994,54915.000,9111,3,PR,1,100,180021
1576864526.372702,54945.000,9111,3,PR,1,100,179999
1576864526.408410,54975.000,9111,3,PR,1,100,180025
1576864526.447689,55008.000,9129,3,PR,1,100,180047
1576864526.486968,55041.000,9129,3,PR,1,100,180109
1576864526.526246,55074.000,9129,3,PR,1,100,180138
1576864526.567112,55108.333,9147,3,PR,1,100,180133
1576864526.607978,55142.667,9147,3,PR,1,100,180139
1576864526.648844,55177.000,9147,3,PR,1,100,180091
1576864526.690107,55211.667,9165,3,PR,1,100,180143
1576864526.731369,55246.333,9165,3,PR,1,100,180179
1576864526.772632,55281.000,9165,3,PR,1,100,180202
1576864526.811514,55313.667,9181,3,PR,1,100,180265
1576864526.850396,55346.333,9181,3,PR,1,100,180290
1576864526.889278,55379.000,9181,3,PR,1,100,180348
1576864526.927367,55411.000,9199,3,PR,1,100,180389
1576864526.965456,55443.000,9199,3,PR,1,100,180420
1576864527.003544,55475.000,9199,3,PR,1,100,180429
1576864527.044807,55509.667,9217,3,PR,1,100,180296
1576864527.086069,55544.333,9217,3,PR,1,100,180191
1576864527.127332,55579.000,9217,3,PR,1,100,180164
1576864527.169388,55614.333,9235,3,PR,1,100,180146
1576864527.211444,55649.667,9235,3,PR,1,100,180149
1576864527.253500,55685.000,9235,3,PR,1,100,180182
1576864527.294763,55719.667,9253,3,PR,1,100,180251
1576864527.336026,55754.333,9253,3,PR,1,100,180276
1576864527.377289,55789.000,9253,3,PR,1,100,180285
1576864527.417361,55822.667,9271,3,PR,1,100,180282
1576864527.457433,55856.333,9271,3,PR,1,100,180252
1576864527.497506,55890.000,9271,3,PR,1,100,180258
1576864527.534801,55921.333,9289,3,PR,1,100,180228
1576864527.572096,55952.667,9289,3,PR,1,100,180240
1576864527.609391,55984.000,9289,3,PR,1,100,180249
1576864527.649066,56017.333,9308,3,PR,1,100,180260
1576864527.688742,56050.667,9308,3,PR,1,100,180242
1576864527.728418,56084.000,9308,3,PR,1,100,180214
1576864527.769681,56118.667,9326,3,PR,1,100,180193
1576864527.810943,56153.333,9326,3,PR,1,100,180196
1576864527.852206,56188.000,9326,3,PR,1,100,180212
1576864527.893468,56222.667,9343,3,PR,1,100,180265
1576864527.934731,56257.333,9343,3,PR,1,100,180300
1576864527.975994,56292.000,9343,3,PR,1,100,180284
1576864528.017256,56326.667,9361,3,PR,1,100,180301
1576864528.058519,56361.333,9361,3,PR,1,100,180338
1576864528.099782,56396.000,9361,3,PR,1,100,180290
1576864528.137632,56427.800,9380,5,PR,1,100,180207
1576864528.175483,56459.600,9380,5,PR,1,100,180190
1576864528.213333,56491.400,9380,5,PR,1,100,180174
1576864528.251184,56523.200,9380,5,PR,1,100,180137
1576864528.289034,56555.000,9380,5,PR,1,100,180169
1576864528.328710,56588.333,9400,3,PR,1,100,180186
1576864528.368386,56621.667,9400,3,PR,1,100,180156
1576864528.408061,56655.000,9400,3,PR,1,100,180194
1576864528.449324,56689.667,9418,3,PR,1,100,180108
1576864528.490587,56724.333,9418,3,PR,1,100,180122
1576864528.531849,56759.000,9418,3,PR,1,100,180271
1576864528.572715,56793.333,9436,3,PR,1,100,180155
1576864528.613581,56827.667,9436,3,PR,1,100,180234
1576864528.654447,56862.000,9436,3,PR,1,100,180353
1576864528.694519,56895.667,9454,3,PR,1,100,180376
1576864528.734591,56929.333,9454,3,PR,1,100,180399
1576864528.774664,56963.000,9454,3,PR,1,100,180420
1576864528.812752,56995.000,9470,3,PR,1,100,180437
1576864528.850841,57027.000,9470,3,PR,1,100,180470
1576864528.888930,57059.000,9470,3,PR,1,100,180498
1576864528.928209,57092.000,9488,3,PR,1,100,180502
1576864528.967487,57125.000,9488,3,PR,1,100,180483
1576864529.006766,57158.000,9488,3,PR,1,100,180388
1576864529.048029,57192.667,9506,3,PR,1,100,180239
1576864529.089292,57227.333,9506,3,PR,1,100,180405
1576864529.130554,57262.000,9506,3,PR,1,100,180347
1576864529.171817,57296.667,9524,3,PR,1,100,180305
1576864529.213079,57331.333,9524,3,PR,1,100,180370
1576864529.254342,57366.000,9524,3,PR,1,100,180425
1576864529.296002,57401.000,9542,3,PR,1,100,180441
1576864529.337661,57436.000,9542,3,PR,1,100,180446
1576864529.379320,57471.000,9542,3,PR,1,100,180442
1576864529.417012,57502.667,9560,3,PR,1,100,180425
1576864529.454704,57534.333,9560,3,PR,1,100,180400
1576864529.492396,57566.000,9560,3,PR,1,100,180372
1576864529.531278,57598.667,9578,3,PR,1,100,180271
1576864529.570160,57631.333,9578,3,PR,1,100,180179
1576864529.609042,57664.000,9578,3,PR,1,100,180667
1576864529.649908,57698.333,9597,3,PR,1,100,180618
1576864529.690774,57732.667,9597,3,PR,1,100,180539
1576864529.731640,57767.000,9597,3,PR,1,100,180581
1576864529.772506,57801.333,9614,3,PR,1,100,180636
1576864529.813372,57835.667,9614,3,PR,1,100,180680
1576864529.854238,57870.000,9614,3,PR,1,100,180708
1576864529.897087,57906.000,9632,3,PR,1,100,180721
1576864529.939937,57942.000,9632,3,PR,1,100,180742
1576864529.982787,57978.000,9632,3,PR,1,100,180676
1576864530.019685,58009.000,9648,3,PR,1,100,180591
1576864530.056583,58040.000,9648,3,PR,1,100,180608
1576864530.093482,58071.000,9648,3,PR,1,100,180636
1576864530.131173,58102.667,9666,3,PR,1,100,180643
1576864530.168865,58134.333,9666,3,PR,1,100,180654
1576864530.206557,58166.000,9666,3,PR,1,100,180615
1576864530.247026,58200.000,9684,3,PR,1,100,180615
1576864530.287495,58234.000,9684,3,PR,1,100,180608
1576864530.327965,58268.000,9684,3,PR,1,100,180653
1576864530.368830,58302.333,9702,3,PR,1,100,180715
1576864530.409696,58336.667,9702,3,PR,1,100,180753
1576864530.450562,58371.000,9702,3,PR,1,100,180806
1576864530.492618,58406.333,9720,3,PR,1,100,180789
1576864530.534674,58441.667,9720,3,PR,1,100,180789
1576864530.576731,58477.000,9720,3,PR,1,100,180816
1576864530.614819,58509.000,9739,3,PR,1,100,180840
1576864530.652908,58541.000,9739,3,PR,1,100,180884
1576864530.690996,58573.000,9739,3,PR,1,100,180885
1576864530.729085,58605.000,9757,3,PR,1,100,180937
1576864530.767174,58637.000,9757,3,PR,1,100,180950
1576864530.805262,58669.000,9757,3,PR,1,100,180969
1576864530.846922,58704.000,9775,3,PR,1,100,180968
1576864530.888581,58739.000,9775,3,PR,1,100,180878
1576864530.930240,58774.000,9775,3,PR,1,100,180756
1576864530.971503,58808.667,9792,3,PR,1,100,180702
1576864531.012766,58843.333,9792,3,PR,1,100,180661
1576864531.054028,58878.000,9792,3,PR,1,100,180655
1576864531.095688,58913.000,9810,3,PR,1,100,180674
1576864531.137347,58948.000,9810,3,PR,1,100,180692
1576864531.179007,58983.000,9810,3,PR,1,100,180726
1576864531.217095,59015.000,9826,3,PR,1,100,180734
1576864531.255184,59047.000,9826,3,PR,1,100,180714
1576864531.293272,59079.000,9826,3,PR,1,100,180728
1576864531.331361,59111.000,9844,3,PR,1,100,180711
1576864531.369450,59143.000,9844,3,PR,1,100,180738
1576864531.407538,59175.000,9844,3,PR,1,100,180740
1576864531.447214,59208.333,9862,3,PR,1,100,180754
1576864531.486889,59241.667,9862,3,PR,1,100,180765
1576864531.526565,59275.000,9862,3,PR,1,100,180800
1576864531.567431,59309.333,9881,3,PR,1,100,180804
1576864531.608297,59343.667,9881,3,PR,1,100,180829
1576864531.649163,59378.000,9881,3,PR,1,100,180827
1576864531.690425,59412.667,9899,3,PR,1,100,180848
1576864531.731688,59447.333,9899,3,PR,1,100,180863
1576864531.772951,59482.000,9899,3,PR,1,100,180869
1576864531.812626,59515.333,9917,3,PR,1,100,180847
1576864531.852302,59548.667,9917,3,PR,1,100,180792
1576864531.891978,59582.000,9917,3,PR,1,100,180661
1576864531.929669,59613.667,9935,3,PR,1,100,180647
1576864531.967361,59645.333,9935,3,PR,1,100,180650
1576864532.005053,59677.000,9935,3,PR,1,100,180655
1576864532.044729,59710.333,9953,3,PR,1,100,180638
1576864532.084404,59743.667,9953,3,PR,1,100,180624
1576864532.124080,59777.000,9953,3,PR,1,100,180623
1576864532.164946,59811.333,9971,3,PR,1,100,180616
1576864532.205812,59845.667,9971,3,PR,1,100,180576
1576864532.246678,59880.000,9971,3,PR,1,100,180693
1576864532.287940,59914.667,9988,3,PR,1,100,180709
1576864532.329203,59949.333,9988,3,PR,1,100,180721
1576864532.370466,59984.000,9988,3,PR,1,100,180753
1576864532.410935,60018.000,10006,3,PR,1,100,180709
1576864532.451404,60052.000,10006,3,PR,1,100,180724
1576864532.491873,60086.000,10006,3,PR,1,100,180719
1576864532.530358,60118.333,10022,3,PR,1,100,180730
1576864532.568844,60150.667,10022,3,PR,1,100,180753
1576864532.607329,60183.000,10022,3,PR,1,100,180750
1576864532.646211,60215.667,10041,3,PR,1,100,180770
1576864532.685093,60248.333,10041,3,PR,1,100,180785
1576864532.723975,60281.000,10041,3,PR,1,100,180801
1576864532.768809,60318.667,10059,3,PR,1,100,180836
1576864532.813642,60356.333,10059,3,PR,1,100,180840
1576864532.858476,60394.000,10059,3,PR,1,100,180841
1576864532.895771,60425.333,10077,3,PR,1,100,180785
1576864532.933066,60456.667,10077,3,PR,1,100,180666
1576864532.970361,60488.000,10077,3,PR,1,100,180560
1576864533.015194,60525.667,10095,3,PR,1,100,180535
1576864533.060028,60563.333,10095,3,PR,1,100,180527
1576864533.104861,60601.000,10095,3,PR,1,100,180521
1576864533.142553,60632.667,10113,3,PR,1,100,180522
1576864533.180245,60664.333,10113,3,PR,1,100,180563
1576864533.217937,60696.000,10113,3,PR,1,100,180577
1576864533.254538,60726.750,10131,4,PR,1,100,180575
1576864533.291138,60757.500,10131,4,PR,1,100,180601
1576864533.327739,60788.250,10131,4,PR,1,100,180611
1576864533.364340,60819.000,10131,4,PR,1,100,180625
1576864533.410165,60857.500,10149,2,PR,1,100,180632
1576864533.455991,60896.000,10149,2,PR,1,100,180636
1576864533.493286,60927.333,10166,3,PR,1,100,180631
1576864533.530581,60958.667,10166,3,PR,1,100,180610
1576864533.567876,60990.000,10166,3,PR,1,100,180622
1576864533.612709,61027.667,10185,3,PR,1,100,180638
1576864533.657543,61065.333,10185,3,PR,1,100,180604
1576864533.702376,61103.000,10185,3,PR,1,100,180602
1576864533.740861,61135.333,10201,3,PR,1,100,180598
1576864533.779347,61167.667,10201,3,PR,1,100,180609
1576864533.817832,61200.000,10201,3,PR,1,100,180643
1576864533.856318,61232.333,10219,3,PR,1,100,180655
1576864533.894803,61264.667,10219,3,PR,1,100,180677
1576864533.933288,61297.000,10219,3,PR,1,100,180654
1576864533.971774,61329.333,10237,3,PR,1,100,180622
1576864534.010259,61361.667,10237,3,PR,1,100,180629
1576864534.048744,61394.000,10237,3,PR,1,100,180555
1576864534.090404,61429.000,10255,3,PR,1,100,180478
1576864534.132063,61464.000,10255,3,PR,1,100,180414
1576864534.173723,61499.000,10255,3,PR,1,100,180397
1576864534.214430,61533.200,10276,5,PR,1,100,180414
1576864534.255137,61567.400,10276,5,PR,1,100,180394
1576864534.295844,61601.600,10276,5,PR,1,100,180383
1576864534.336551,61635.800,10276,5,PR,1,100,180399
1576864534.377258,61670.000,10276,5,PR,1,100,180395
1576864534.414950,61701.667,10296,3,PR,1,100,180382
1576864534.452642,61733.333,10296,3,PR,1,100,180388
1576864534.490334,61765.000,10296,3,PR,1,100,180365
1576864534.529216,61797.667,10312,3,PR,1,100,180388
1576864534.568098,61830.333,10312,3,PR,1,100,180400
1576864534.606980,61863.000,10312,3,PR,1,100,180427
1576864534.651417,61900.333,10331,3,PR,1,100,180448
1576864534.695854,61937.667,10331,3,PR,1,100,180457
1576864534.740290,61975.000,10331,3,PR,1,100,180451
1576864534.783140,62011.000,10349,3,PR,1,100,180436
1576864534.825990,62047.000,10349,3,PR,1,100,180432
1576864534.868839,62083.000,10349,3,PR,1,100,180437
1576864534.909308,62117.000,10367,3,PR,1,100,180446
1576864534.949778,62151.000,10367,3,PR,1,100,180424
1576864534.990247,62185.000,10367,3,PR,1,100,180439
1576864535.027542,62216.333,10385,3,PR,1,100,180431
1576864535.064837,62247.667,10385,3,PR,1,100,180442
1576864535.102132,62279.000,10385,3,PR,1,100,180417
1576864535.140221,62311.000,10403,3,PR,1,100,180289
1576864535.178309,62343.000,10403,3,PR,1,100,180221
1576864535.216398,62375.000,10403,3,PR,1,100,180208
1576864535.258057,62410.000,10421,3,PR,1,100,180182
1576864535.299717,62445.000,10421,3,PR,1,100,180147
1576864535.341376,62480.000,10421,3,PR,1,100,180099
1576864535.382639,62514.667,10438,3,PR,1,100,180099
1576864535.423901,62549.333,10438,3,PR,1,100,180101
1576864535.465164,62584.000,10438,3,PR,1,100,180074
1576864535.506030,62618.333,10456,3,PR,1,100,180090
1576864535.546896,62652.667,10456,3,PR,1,100,180117
1576864535.587762,62687.000,10456,3,PR,1,100,180106
1576864535.625057,62718.333,10473,3,PR,1,100,180149
1576864535.662352,62749.667,10473,3,PR,1,100,180234
1576864535.699647,62781.000,10473,3,PR,1,100,180259
1576864535.738132,62813.333,10491,3,PR,1,100,180223
1576864535.776618,62845.667,10491,3,PR,1,100,180204
1576864535.815103,62878.000,10491,3,PR,1,100,180158
1576864535.855572,62912.000,10509,3,PR,1,100,180153
1576864535.896041,62946.000,10509,3,PR,1,100,180159
1576864535.936510,62980.000,10509,3,PR,1,100,180194
1576864535.977773,63014.667,10527,3,PR,1,100,180256
1576864536.019036,63049.333,10527,3,PR,1,100,180315
1576864536.060298,63084.000,10527,3,PR,1,100,180388
1576864536.101561,63118.667,10545,3,PR,1,100,180417
1576864536.142823,63153.333,10545,3,PR,1,100,180284
1576864536.184086,63188.000,10545,3,PR,1,100,180113
1576864536.223365,63221.000,10563,3,PR,1,100,180030
1576864536.262644,63254.000,10563,3,PR,1,100,179977
1576864536.301923,63287.000,10563,3,PR,1,100,179966
1576864536.340011,63319.000,10581,3,PR,1,100,179956
1576864536.378100,63351.000,10581,3,PR,1,100,179958
1576864536.416189,63383.000,10581,3,PR,1,100,179983
1576864536.455864,63416.333,10599,3,PR,1,100,179988
1576864536.495540,63449.667,10599,3,PR,1,100,179985
1576864536.535215,63483.000,10599,3,PR,1,100,179995
1576864536.576081,63517.333,10618,3,PR,1,100,180004
1576864536.616947,63551.667,10618,3,PR,1,100,180023
1576864536.657813,63586.000,10618,3,PR,1,100,180028
1576864536.698679,63620.333,10635,3,PR,1,100,180071
1576864536.739545,63654.667,10635,3,PR,1,100,180097
1576864536.780411,63689.000,10635,3,PR,1,100,180132
1576864536.820086,63722.333,10653,3,PR,1,100,180191
1576864536.859762,63755.667,10653,3,PR,1,100,180231
1576864536.899438,63789.000,10653,3,PR,1,100,180253
1576864536.937129,63820.667,10669,3,PR,1,100,180256
1576864536.974821,63852.333,10669,3,PR,1,100,180275
1576864537.012513,63884.000,10669,3,PR,1,100,180269
1576864537.051792,63917.000,10687,3,PR,1,100,180289
1576864537.091071,63950.000,10687,3,PR,1,100,180235
1576864537.130350,63983.000,10687,3,PR,1,100,180118
1576864537.171216,64017.333,10705,3,PR,1,100,180008
1576864537.212082,64051.667,10705,3,PR,1,100,179986
1576864537.252948,64086.000,10705,3,PR,1,100,179980
1576864537.293813,64120.333,10723,3,PR,1,100,179975
1576864537.334679,64154.667,10723,3,PR,1,100,179962
1576864537.375545,64189.000,10723,3,PR,1,100,179996
1576864537.416808,64223.667,10741,3,PR,1,100,180027
1576864537.458071,64258.333,10741,3,PR,1,100,180013
1576864537.499333,64293.000,10741,3,PR,1,100,180007
1576864537.537025,64324.667,10759,3,PR,1,100,180034
1576864537.574717,64356.333,10759,3,PR,1,100,180044
1576864537.612409,64388.000,10759,3,PR,1,100,180103
1576864537.651291,64420.667,10778,3,PR,1,100,180153
1576864537.690173,64453.333,10778,3,PR,1,100,180197
1576864537.729055,64486.000,10778,3,PR,1,100,180188
1576864537.770318,64520.667,10796,3,PR,1,100,180177
1576864537.811580,64555.333,10796,3,PR,1,100,180197
1576864537.852843,64590.000,10796,3,PR,1,100,180217
1576864537.893709,64624.333,10813,3,PR,1,100,180302
1576864537.934575,64658.667,10813,3,PR,1,100,180350
1576864537.975441,64693.000,10813,3,PR,1,100,180389
1576864538.017100,64728.000,10831,3,PR,1,100,180349
1576864538.058759,64763.000,10831,3,PR,1,100,180190
1576864538.100419,64798.000,10831,3,PR,1,100,180074
1576864538.138904,64830.333,10847,3,PR,1,100,180026
1576864538.177389,64862.667,10847,3,PR,1,100,180025
1576864538.215875,64895.000,10847,3,PR,1,100,180057
1576864538.254360,64927.333,10865,3,PR,1,100,180099
1576864538.292845,64959.667,10865,3,PR,1,100,180138
1576864538.331331,64992.000,10865,3,PR,1,100,180150
1576864538.372990,65027.000,10883,3,PR,1,100,180152
1576864538.414650,65062.000,10883,3,PR,1,100,180115
1576864538.456309,65097.000,10883,3,PR,1,100,180123
1576864538.496778,65131.000,10901,3,PR,1,100,180119
1576864538.537247,65165.000,10901,3,PR,1,100,180135
1576864538.577716,65199.000,10901,3,PR,1,100,180159
1576864538.618979,65233.667,10920,3,PR,1,100,180177
1576864538.660242,65268.333,10920,3,PR,1,100,180249
1576864538.701504,65303.000,10920,3,PR,1,100,180304
1576864538.739196,65334.667,10938,3,PR,1,100,180337
1576864538.776888,65366.333,10938,3,PR,1,100,180367
1576864538.814580,65398.000,10938,3,PR,1,100,180368
1576864538.852272,65429.667,10956,3,PR,1,100,180409
1576864538.889964,65461.333,10956,3,PR,1,100,180375
1576864538.927655,65493.000,10956,3,PR,1,100,180218
1576864538.968918,65527.667,10974,3,PR,1,100,180131
1576864539.010181,65562.333,10974,3,PR,1,100,180115
1576864539.051443,65597.000,10974,3,PR,1,100,180108
1576864539.092309,65631.333,10991,3,PR,1,100,180110
1576864539.133175,65665.667,10991,3,PR,1,100,180151
1576864539.174041,65700.000,10991,3,PR,1,100,180164
1576864539.215700,65735.000,11009,3,PR,1,100,180190
1576864539.257360,65770.000,11009,3,PR,1,100,180206
1576864539.299019,65805.000,11009,3,PR,1,100,180205
1576864539.338695,65838.333,11025,3,PR,1,100,180231
1576864539.378371,65871.667,11025,3,PR,1,100,180237
1576864539.418046,65905.000,11025,3,PR,1,100,180249
1576864539.456135,65937.000,11043,3,PR,1,100,180258
1576864539.494223,65969.000,11043,3,PR,1,100,180274
1576864539.532312,66001.000,11043,3,PR,1,100,180341
1576864539.572384,66034.667,11062,3,PR,1,100,180403
1576864539.612457,66068.333,11062,3,PR,1,100,180439
1576864539.652529,66102.000,11062,3,PR,1,100,180477
1576864539.692601,66135.667,11080,3,PR,1,100,180500
1576864539.732674,66169.333,11080,3,PR,1,100,180487
1576864539.772746,66203.000,11080,3,PR,1,100,180393
1576864539.814406,66238.000,11098,3,PR,1,100,180250
1576864539.856065,66273.000,11098,3,PR,1,100,180202
1576864539.897724,66308.000,11098,3,PR,1,100,180187
1576864539.938194,66342.000,11116,3,PR,1,100,180207
1576864539.978663,66376.000,11116,3,PR,1,100,180260
1576864540.019132,66410.000,11116,3,PR,1,100,180273
1576864540.056824,66441.667,11134,3,PR,1,100,180271
1576864540.094516,66473.333,11134,3,PR,1,100,180278
1576864540.132207,66505.000,11134,3,PR,1,100,180290
1576864540.171486,66538.000,11152,3,PR,1,100,180283
1576864540.210765,66571.000,11152,3,PR,1,100,180311
1576864540.250044,66604.000,11152,3,PR,1,100,180336
1576864540.290751,66638.200,11173,5,PR,1,100,180359
1576864540.331458,66672.400,11173,5,PR,1,100,180394
1576864540.372165,66706.600,11173,5,PR,1,100,180413
1576864540.412873,66740.800,11173,5,PR,1,100,180442
1576864540.453580,66775.000,11173,5,PR,1,100,180470
1576864540.499207,66813.333,11193,3,PR,1,100,180469
1576864540.544834,66851.667,11193,3,PR,1,100,180473
1576864540.590461,66890.000,11193,3,PR,1,100,180464
1576864540.627756,66921.333,11212,3,PR,1,100,180410
1576864540.665051,66952.667,11212,3,PR,1,100,180301
1576864540.702346,66984.000,11212,3,PR,1,100,180180
1576864540.740831,67016.333,11230,3,PR,1,100,180121
1576864540.779317,67048.667,11230,3,PR,1,100,180127
1576864540.817802,67081.000,11230,3,PR,1,100,180135
1576864540.858271,67115.000,11248,3,PR,1,100,180131
1576864540.898740,67149.000,11248,3,PR,1,100,180149
1576864540.939209,67183.000,11248,3,PR,1,100,180163
1576864540.980869,67218.000,11266,3,PR,1,100,180235
1576864541.022528,67253.000,11266,3,PR,1,100,180321
1576864541.064188,67288.000,11266,3,PR,1,100,180351
1576864541.105450,67322.667,11283,3,PR,1,100,180319
1576864541.146713,67357.333,11283,3,PR,1,100,180255
1576864541.187976,67392.000,11283,3,PR,1,100,180192
1576864541.226858,67424.667,11301,3,PR,1,100,180194
1576864541.265740,67457.333,11301,3,PR,1,100,180202
1576864541.304622,67490.000,11301,3,PR,1,100,180240
1576864541.342710,67522.000,11317,3,PR,1,100,180269
1576864541.380799,67554.000,11317,3,PR,1,100,180298
1576864541.418888,67586.000,11317,3,PR,1,100,180290
1576864541.458563,67619.333,11335,3,PR,1,100,180205
1576864541.498239,67652.667,11335,3,PR,1,100,180040
1576864541.537915,67686.000,11335,3,PR,1,100,180003
1576864541.577193,67719.000,11354,3,PR,1,100,180003
1576864541.616472,67752.000,11354,3,PR,1,100,180034
1576864541.655751,67785.000,11354,3,PR,1,100,180049
1576864541.696617,67819.333,11372,3,PR,1,100,180069
1576864541.737483,67853.667,11372,3,PR,1,100,180084
1576864541.778349,67888.000,11372,3,PR,1,100,180073
1576864541.817231,67920.667,11390,3,PR,1,100,180075
1576864541.856113,67953.333,11390,3,PR,1,100,180032
1576864541.894995,67986.000,11390,3,PR,1,100,180031
1576864541.932687,68017.667,11408,3,PR,1,100,180140
1576864541.970379,68049.333,11408,3,PR,1,100,180198
1576864542.008071,68081.000,11408,3,PR,1,100,180220
1576864542.047746,68114.333,11426,3,PR,1,100,180271
1576864542.087422,68147.667,11426,3,PR,1,100,180272
1576864542.127098,68181.000,11426,3,PR,1,100,180309
1576864542.168757,68216.000,11444,3,PR,1,100,180345
1576864542.210416,68251.000,11444,3,PR,1,100,180376
1576864542.252076,68286.000,11444,3,PR,1,100,180400
1576864542.292942,68320.333,11461,3,PR,1,100,180331
1576864542.333807,68354.667,11461,3,PR,1,100,180205
1576864542.374673,68389.000,11461,3,PR,1,100,180155
1576864542.417523,68425.000,11479,3,PR,1,100,180127
1576864542.460373,68461.000,11479,3,PR,1,100,180123
1576864542.503222,68497.000,11479,3,PR,1,100,180141
1576864542.544088,68531.333,11495,3,PR,1,100,180147
1576864542.584954,68565.667,11495,3,PR,1,100,180133
1576864542.625820,68600.000,11495,3,PR,1,100,180183
1576864542.664702,68632.667,11514,3,PR,1,100,180271
1576864542.703584,68665.333,11514,3,PR,1,100,180267
1576864542.742466,68698.000,11514,3,PR,1,100,180271
1576864542.780952,68730.333,11532,3,PR,1,100,180325
1576864542.819437,68762.667,11532,3,PR,1,100,180304
1576864542.857923,68795.000,11532,3,PR,1,100,180322
1576864542.896408,68827.333,11550,3,PR,1,100,180334
1576864542.934893,68859.667,11550,3,PR,1,100,180351
1576864542.973379,68892.000,11550,3,PR,1,100,180360
1576864543.014641,68926.667,11568,3,PR,1,100,180388
1576864543.055904,68961.333,11568,3,PR,1,100,180430
1576864543.097167,68996.000,11568,3,PR,1,100,180449
1576864543.138429,69030.667,11586,3,PR,1,100,180368
1576864543.179692,69065.333,11586,3,PR,1,100,180210
1576864543.220954,69100.000,11586,3,PR,1,100,180096
1576864543.261424,69134.000,11604,3,PR,1,100,180059
1576864543.301893,69168.000,11604,3,PR,1,100,180072
1576864543.342362,69202.000,11604,3,PR,1,100,180087
1576864543.384418,69237.333,11621,3,PR,1,100,180121
1576864543.426474,69272.667,11621,3,PR,1,100,180139
1576864543.468530,69308.000,11621,3,PR,1,100,180164
1576864543.505032,69338.667,11639,3,PR,1,100,180216
1576864543.541533,69369.333,11639,3,PR,1,100,180255
1576864543.578035,69400.000,11639,3,PR,1,100,180292
1576864543.616124,69432.000,11658,3,PR,1,100,180299
1576864543.654212,69464.000,11658,3,PR,1,100,180279
1576864543.692301,69496.000,11658,3,PR,1,100,180285
1576864543.731977,69529.333,11676,3,PR,1,100,180316
1576864543.771652,69562.667,11676,3,PR,1,100,180335
1576864543.811328,69596.000,11676,3,PR,1,100,180337
1576864543.852194,69630.333,11692,3,PR,1,100,180354
1576864543.893059,69664.667,11692,3,PR,1,100,180386
1576864543.933925,69699.000,11692,3,PR,1,100,180388
1576864543.975188,69733.667,11710,3,PR,1,100,180308
1576864544.016451,69768.333,11710,3,PR,1,100,180196
1576864544.057713,69803.000,11710,3,PR,1,100,180143
1576864544.098182,69837.000,11728,3,PR,1,100,180130
1576864544.138652,69871.000,11728,3,PR,1,100,180138
1576864544.179121,69905.000,11728,3,PR,1,100,180144
1576864544.216813,69936.667,11746,3,PR,1,100,180157
1576864544.254504,69968.333,11746,3,PR,1,100,180163
1576864544.292196,70000.000,11746,3,PR,1,100,180163
1576864544.330682,70032.333,11764,3,PR,1,100,180150
1576864544.369167,70064.667,11764,3,PR,1,100,180135
1576864544.407652,70097.000,11764,3,PR,1,100,180118
1576864544.448915,70131.667,11782,3,PR,1,100,180158
1576864544.490178,70166.333,11782,3,PR,1,100,180179
1576864544.531440,70201.000,11782,3,PR,1,100,180206
1576864544.572703,70235.667,11801,3,PR,1,100,180241
1576864544.613966,70270.333,11801,3,PR,1,100,180280
1576864544.655228,70305.000,11801,3,PR,1,100,180282
1576864544.695697,70339.000,11818,3,PR,1,100,180309
1576864544.736166,70373.000,11818,3,PR,1,100,180308
1576864544.776636,70407.000,11818,3,PR,1,100,180217
1576864544.814724,70439.000,11836,3,PR,1,100,180080
1576864544.852813,70471.000,11836,3,PR,1,100,180012
1576864544.890901,70503.000,11836,3,PR,1,100,179981
1576864544.929784,70535.667,11854,3,PR,1,100,179995
1576864544.968666,70568.333,11854,3,PR,1,100,179992
1576864545.007548,70601.000,11854,3,PR,1,100,180032
1576864545.048414,70635.333,11870,3,PR,1,100,180038
1576864545.089279,70669.667,11870,3,PR,1,100,180041
1576864545.130145,70704.000,11870,3,PR,1,100,180034
1576864545.171805,70739.000,11888,3,PR,1,100,180021
1576864545.213464,70774.000,11888,3,PR,1,100,180031
1576864545.255124,70809.000,11888,3,PR,1,100,180047
1576864545.296783,70844.000,11906,3,PR,1,100,180074
1576864545.338442,70879.000,11906,3,PR,1,100,180123
1576864545.380102,70914.000,11906,3,PR,1,100,180135
1576864545.417794,70945.667,11924,3,PR,1,100,180164
1576864545.455486,70977.333,11924,3,PR,1,100,180183
1576864545.493177,71009.000,11924,3,PR,1,100,180188
1576864545.532059,71041.667,11942,3,PR,1,100,180251
1576864545.570941,71074.333,11942,3,PR,1,100,180271
1576864545.609824,71107.000,11942,3,PR,1,100,180212
1576864545.651086,71141.667,11961,3,PR,1,100,180107
1576864545.692349,71176.333,11961,3,PR,1,100,180080
1576864545.733612,71211.000,11961,3,PR,1,100,180066
1576864545.774874,71245.667,11979,3,PR,1,100,180046
1576864545.816137,71280.333,11979,3,PR,1,100,180032
1576864545.857399,71315.000,11979,3,PR,1,100,180041
1576864545.898265,71349.333,11996,3,PR,1,100,180045
1576864545.939131,71383.667,11996,3,PR,1,100,180080
1576864545.979997,71418.000,11996,3,PR,1,100,180089
1576864546.017689,71449.667,12014,3,PR,1,100,180140
1576864546.055381,71481.333,12014,3,PR,1,100,180169
1576864546.093073,71513.000,12014,3,PR,1,100,180197
1576864546.130764,71544.667,12032,3,PR,1,100,180209
1576864546.168456,71576.333,12032,3,PR,1,100,180198
1576864546.206148,71608.000,12032,3,PR,1,100,180216
1576864546.247014,71642.333,12049,3,PR,1,100,180226
1576864546.287880,71676.667,12049,3,PR,1,100,180240
1576864546.328746,71711.000,12049,3,PR,1,100,180252
1576864546.370167,71745.800,12069,5,PR,1,100,180280
1576864546.411589,71780.600,12069,5,PR,1,100,180300
1576864546.453010,71815.400,12069,5,PR,1,100,180254
1576864546.494431,71850.200,12069,5,PR,1,100,180133
1576864546.535853,71885.000,12069,5,PR,1,100,180055
1576864546.577115,71919.667,12090,3,PR,1,100,180031
1576864546.618378,71954.333,12090,3,PR,1,100,180017
1576864546.659641,71989.000,12090,3,PR,1,100,180031
1576864546.700903,72023.667,12107,3,PR,1,100,180055
1576864546.742166,72058.333,12107,3,PR,1,100,180067
1576864546.783428,72093.000,12107,3,PR,1,100,180088
1576864546.819930,72123.667,12125,3,PR,1,100,180067
1576864546.856432,72154.333,12125,3,PR,1,100,180083
1576864546.892933,72185.000,12125,3,PR,1,100,180099
1576864546.931419,72217.333,12141,3,PR,1,100,180144
1576864546.969904,72249.667,12141,3,PR,1,100,180143
1576864547.008389,72282.000,12141,3,PR,1,100,180146
1576864547.047668,72315.000,12159,3,PR,1,100,180171
1576864547.086947,72348.000,12159,3,PR,1,100,180189
1576864547.126226,72381.000,12159,3,PR,1,100,180207
1576864547.167489,72415.667,12177,3,PR,1,100,180233
1576864547.208751,72450.333,12177,3,PR,1,100,180230
1576864547.250014,72485.000,12177,3,PR,1,100,180253
1576864547.290880,72519.333,12195,3,PR,1,100,180215
1576864547.331746,72553.667,12195,3,PR,1,100,180084
1576864547.372612,72588.000,12195,3,PR,1,100,180013
1576864547.413081,72622.000,12213,3,PR,1,100,179997
1576864547.453550,72656.000,12213,3,PR,1,100,180006
1576864547.494019,72690.000,12213,3,PR,1,100,180019
1576864547.531711,72721.667,12231,3,PR,1,100,180029
1576864547.569403,72753.333,12231,3,PR,1,100,180057
1576864547.607095,72785.000,12231,3,PR,1,100,180041
1576864547.645977,72817.667,12250,3,PR,1,100,180068
1576864547.684859,72850.333,12250,3,PR,1,100,180079
1576864547.723741,72883.000,12250,3,PR,1,100,180080
1576864547.764210,72917.000,12268,3,PR,1,100,180117
1576864547.804679,72951.000,12268,3,PR,1,100,180162
1576864547.845148,72985.000,12268,3,PR,1,100,180172
1576864547.886014,73019.333,12285,3,PR,1,100,180186
1576864547.926880,73053.667,12285,3,PR,1,100,180202
1576864547.967746,73088.000,12285,3,PR,1,100,180219
1576864548.009008,73122.667,12303,3,PR,1,100,180204
1576864548.050271,73157.333,12303,3,PR,1,100,180230
1576864548.091534,73192.000,12303,3,PR,1,100,180238
1576864548.129225,73223.667,12319,3,PR,1,100,180256
1576864548.166917,73255.333,12319,3,PR,1,100,180230
1576864548.204609,73287.000,12319,3,PR,1,100,180115
1576864548.243491,73319.667,12337,3,PR,1,100,179977
1576864548.282373,73352.333,12337,3,PR,1,100,179926
1576864548.321256,73385.000,12337,3,PR,1,100,179908
1576864548.361725,73419.000,12355,3,PR,1,100,179896
1576864548.402194,73453.000,12355,3,PR,1,100,179892
1576864548.442663,73487.000,12355,3,PR,1,100,179901
1576864548.483529,73521.333,12373,3,PR,1,100,179913
1576864548.524395,73555.667,12373,3,PR,1,100,179923
1576864548.565261,73590.000,12373,3,PR,1,100,179894
1576864548.607317,73625.333,12392,3,PR,1,100,179897
1576864548.649373,73660.667,12392,3,PR,1,100,179895
1576864548.691429,73696.000,12392,3,PR,1,100,179931
1576864548.729518,73728.000,12410,3,PR,1,100,179966
1576864548.767606,73760.000,12410,3,PR,1,100,179985
1576864548.805695,73792.000,12410,3,PR,1,100,179999
1576864548.844180,73824.333,12428,3,PR,1,100,180066
1576864548.882666,73856.667,12428,3,PR,1,100,180046
1576864548.921151,73889.000,12428,3,PR,1,100,180027
1576864548.962017,73923.333,12446,3,PR,1,100,180018
1576864549.002883,73957.667,12446,3,PR,1,100,180025
1576864549.043749,73992.000,12446,3,PR,1,100,180054
1576864549.084615,74026.333,12464,3,PR,1,100,180141
1576864549.125480,74060.667,12464,3,PR,1,100,180177
1576864549.166346,74095.000,12464,3,PR,1,100,180220
1576864549.208006,74130.000,12481,3,PR,1,100,180119
1576864549.249665,74165.000,12481,3,PR,1,100,179987
1576864549.291325,74200.000,12481,3,PR,1,100,179876
1576864549.330603,74233.000,12497,3,PR,1,100,179861
1576864549.369882,74266.000,12497,3,PR,1,100,179858
1576864549.409161,74299.000,12497,3,PR,1,100,179849
1576864549.446853,74330.667,12515,3,PR,1,100,179866
1576864549.484545,74362.333,12515,3,PR,1,100,179877
1576864549.522237,74394.000,12515,3,PR,1,100,179894
1576864549.563499,74428.667,12534,3,PR,1,100,179894
1576864549.604762,74463.333,12534,3,PR,1,100,179888
1576864549.646025,74498.000,12534,3,PR,1,100,179893
1576864549.686891,74532.333,12552,3,PR,1,100,179909
1576864549.727757,74566.667,12552,3,PR,1,100,179918
1576864549.768622,74601.000,12552,3,PR,1,100,179940
1576864549.809885,74635.667,12570,3,PR,1,100,179944
1576864549.851148,74670.333,12570,3,PR,1,100,179966
1576864549.892410,74705.000,12570,3,PR,1,100,179966
1576864549.931292,74737.667,12588,3,PR,1,100,179966
1576864549.970175,74770.333,12588,3,PR,1,100,179981
1576864550.009057,74803.000,12588,3,PR,1,100,180000
1576864550.045955,74834.000,12606,3,PR,1,100,180011
1576864550.082853,74865.000,12606,3,PR,1,100,180072
1576864550.119751,74896.000,12606,3,PR,1,100,180077
1576864550.164188,74933.333,12624,3,PR,1,100,180077
1576864550.208625,74970.667,12624,3,PR,1,100,179980
1576864550.253062,75008.000,12624,3,PR,1,100,179869
1576864550.289365,75038.500,12642,4,PR,1,100,179824
1576864550.325668,75069.000,12642,4,PR,1,100,179800
1576864550.361971,75099.500,12642,4,PR,1,100,179809
1576864550.398274,75130.000,12642,4,PR,1,100,179834
1576864550.439537,75164.667,12659,3,PR,1,100,179853
1576864550.480800,75199.333,12659,3,PR,1,100,179865
1576864550.522062,75234.000,12659,3,PR,1,100,179867
1576864550.563127,75268.500,12677,2,PR,1,100,179867
1576864550.604191,75303.000,12677,2,PR,1,100,179859
1576864550.645850,75338.000,12694,3,PR,1,100,179859
1576864550.687510,75373.000,12694,3,PR,1,100,179877
1576864550.729169,75408.000,12694,3,PR,1,100,179886
1576864550.769242,75441.667,12712,3,PR,1,100,179899
1576864550.809314,75475.333,12712,3,PR,1,100,179906
1576864550.849386,75509.000,12712,3,PR,1,100,179967
1576864550.887177,75540.750,12730,4,PR,1,100,179981
1576864550.924968,75572.500,12730,4,PR,1,100,180011
1576864550.962759,75604.250,12730,4,PR,1,100,180025
1576864551.000550,75636.000,12730,4,PR,1,100,180077
1576864551.041019,75670.000,12748,3,PR,1,100,180079
1576864551.081489,75704.000,12748,3,PR,1,100,180093
1576864551.121958,75738.000,12748,3,PR,1,100,180021
1576864551.163022,75772.500,12766,2,PR,1,100,179894
1576864551.204086,75807.000,12766,2,PR,1,100,179787
1576864551.245746,75842.000,12784,3,PR,1,100,179752
1576864551.287405,75877.000,12784,3,PR,1,100,179723
1576864551.329064,75912.000,12784,3,PR,1,100,179714
1576864551.369534,75946.000,12802,3,PR,1,100,179723
1576864551.410003,75980.000,12802,3,PR,1,100,179762
1576864551.450472,76014.000,12802,3,PR,1,100,179741
1576864551.487965,76045.500,12820,4,PR,1,100,179755
1576864551.525459,76077.000,12820,4,PR,1,100,179743
1576864551.562952,76108.500,12820,4,PR,1,100,179766
1576864551.600446,76140.000,12820,4,PR,1,100,179770
1576864551.640121,76173.333,12838,3,PR,1,100,179763
1576864551.679797,76206.667,12838,3,PR,1,100,179772
1576864551.719473,76240.000,12838,3,PR,1,100,179794
1576864551.759942,76274.000,12856,3,PR,1,100,179777
1576864551.800411,76308.000,12856,3,PR,1,100,179802
1576864551.840880,76342.000,12856,3,PR,1,100,179790
1576864551.881746,76376.333,12874,3,PR,1,100,179779
1576864551.922612,76410.667,12874,3,PR,1,100,179829
1576864551.963478,76445.000,12874,3,PR,1,100,179890
1576864552.003153,76478.333,12890,3,PR,1,100,179911
1576864552.042829,76511.667,12890,3,PR,1,100,179904
1576864552.082505,76545.000,12890,3,PR,1,100,179928
1576864552.120990,76577.333,12908,3,PR,1,100,179910
1576864552.159475,76609.667,12908,3,PR,1,100,179793
1576864552.197961,76642.000,12908,3,PR,1,100,179616
1576864552.237239,76675.000,12926,3,PR,1,100,179519
1576864552.276518,76708.000,12926,3,PR,1,100,179480
1576864552.315797,76741.000,12926,3,PR,1,100,179479
1576864552.357457,76776.000,12944,3,PR,1,100,179474
1576864552.399116,76811.000,12944,3,PR,1,100,179515
1576864552.440775,76846.000,12944,3,PR,1,100,179554
1576864552.482137,76880.750,12965,4,PR,1,100,179582
1576864552.523499,76915.500,12965,4,PR,1,100,179571
1576864552.564861,76950.250,12965,4,PR,1,100,179572
1576864552.606223,76985.000,12965,4,PR,1,100,179535
1576864552.645502,77018.000,12986,3,PR,1,100,179532
1576864552.684780,77051.000,12986,3,PR,1,100,179546
1576864552.724059,77084.000,12986,3,PR,1,100,179561
1576864552.762148,77116.000,13004,4,PR,1,100,179574
1576864552.800236,77148.000,13004,4,PR,1,100,179591
1576864552.838325,77180.000,13004,4,PR,1,100,179616
1576864552.876414,77212.000,13004,4,PR,1,100,179630
1576864552.916486,77245.667,13022,3,PR,1,100,179644
1576864552.956558,77279.333,13022,3,PR,1,100,179667
1576864552.996631,77313.000,13022,3,PR,1,100,179681
1576864553.040076,77349.500,13040,2,PR,1,100,179689
1576864553.083520,77386.000,13040,2,PR,1,100,179706
1576864553.124783,77420.667,13058,3,PR,1,100,179731
1576864553.166046,77455.333,13058,3,PR,1,100,179761
1576864553.207308,77490.000,13058,3,PR,1,100,179690
1576864553.246191,77522.667,13076,3,PR,1,100,179561
1576864553.285073,77555.333,13076,3,PR,1,100,179478
1576864553.323955,77588.000,13076,3,PR,1,100,179450
1576864553.362341,77620.250,13094,4,PR,1,100,179446
1576864553.400727,77652.500,13094,4,PR,1,100,179442
1576864553.439113,77684.750,13094,4,PR,1,100,179474
1576864553.477499,77717.000,13094,4,PR,1,100,179497
1576864553.517572,77750.667,13112,3,PR,1,100,179514
1576864553.557644,77784.333,13112,3,PR,1,100,179519
1576864553.597717,77818.000,13112,3,PR,1,100,179531
1576864553.639376,77853.000,13130,2,PR,1,100,179540
1576864553.681035,77888.000,13130,2,PR,1,100,179558
1576864553.721901,77922.333,13148,3,PR,1,100,179568
1576864553.762767,77956.667,13148,3,PR,1,100,179585
1576864553.803633,77991.000,13148,3,PR,1,100,179580
1576864553.846879,78027.333,13164,3,PR,1,100,179615
1576864553.890126,78063.667,13164,3,PR,1,100,179622
1576864553.933372,78100.000,13164,3,PR,1,100,179648
1576864553.971461,78132.000,13182,3,PR,1,100,179658
1576864554.009549,78164.000,13182,3,PR,1,100,179697
1576864554.047638,78196.000,13182,3,PR,1,100,179702
1576864554.084239,78226.750,13200,4,PR,1,100,179722
1576864554.120840,78257.500,13200,4,PR,1,100,179728
1576864554.157440,78288.250,13200,4,PR,1,100,179754
1576864554.194041,78319.000,13200,4,PR,1,100,179703
1576864554.231733,78350.667,13218,3,PR,1,100,179610
1576864554.269425,78382.333,13218,3,PR,1,100,179502
1576864554.307117,78414.000,13218,3,PR,1,100,179440
1576864554.347586,78448.000,13236,3,PR,1,100,179455
1576864554.388055,78482.000,13236,3,PR,1,100,179465
1576864554.428524,78516.000,13236,3,PR,1,100,179456
1576864554.469390,78550.333,13254,3,PR,1,100,179482
1576864554.510256,78584.667,13254,3,PR,1,100,179493
1576864554.551122,78619.000,13254,3,PR,1,100,179502
1576864554.592781,78654.000,13273,3,PR,1,100,179462
1576864554.634440,78689.000,13273,3,PR,1,100,179475
1576864554.676100,78724.000,13273,3,PR,1,100,179468
1576864554.715775,78757.333,13291,3,PR,1,100,179485
1576864554.755451,78790.667,13291,3,PR,1,100,179504
1576864554.795127,78824.000,13291,3,PR,1,100,179530
1576864554.833215,78856.000,13308,3,PR,1,100,179531
1576864554.871304,78888.000,13308,3,PR,1,100,179550
1576864554.909393,78920.000,13308,3,PR,1,100,179576
1576864554.949465,78953.667,13326,3,PR,1,100,179595
1576864554.989537,78987.333,13326,3,PR,1,100,179612
1576864555.029610,79021.000,13326,3,PR,1,100,179629
1576864555.070079,79055.000,13344,3,PR,1,100,179641
1576864555.110548,79089.000,13344,3,PR,1,100,179666
1576864555.151017,79123.000,13344,3,PR,1,100,179676
1576864555.191883,79157.333,13360,3,PR,1,100,179688
1576864555.232749,79191.667,13360,3,PR,1,100,179685
1576864555.273615,79226.000,13360,3,PR,1,100,179661
1576864555.314084,79260.000,13378,3,PR,1,100,179576
1576864555.354553,79294.000,13378,3,PR,1,100,179494
1576864555.395022,79328.000,13378,3,PR,1,100,179468
1576864555.432714,79359.667,13396,3,PR,1,100,179467
1576864555.470406,79391.333,13396,3,PR,1,100,179468
1576864555.508098,79423.000,13396,3,PR,1,100,179450
1576864555.547377,79456.000,13415,3,PR,1,100,179445
1576864555.586655,79489.000,13415,3,PR,1,100,179421
1576864555.625934,79522.000,13415,3,PR,1,100,179393
1576864555.666007,79555.667,13433,3,PR,1,100,179373
1576864555.706079,79589.333,13433,3,PR,1,100,179416
1576864555.746151,79623.000,13433,3,PR,1,100,179453
1576864555.787017,79657.333,13451,3,PR,1,100,179477
1576864555.827883,79691.667,13451,3,PR,1,100,179517
1576864555.868749,79726.000,13451,3,PR,1,100,179567
1576864555.909218,79760.000,13469,3,PR,1,100,179537
1576864555.949687,79794.000,13469,3,PR,1,100,179535
1576864555.990156,79828.000,13469,3,PR,1,100,179528
1576864556.027848,79859.667,13487,3,PR,1,100,179540
1576864556.065540,79891.333,13487,3,PR,1,100,179555
1576864556.103232,79923.000,13487,3,PR,1,100,179561
1576864556.142511,79956.000,13504,3,PR,1,100,179600
1576864556.181790,79989.000,13504,3,PR,1,100,179626
1576864556.221069,80022.000,13504,3,PR,1,100,179637
1576864556.261538,80056.000,13522,3,PR,1,100,179667
1576864556.302007,80090.000,13522,3,PR,1,100,179690
1576864556.342476,80124.000,13522,3,PR,1,100,179623
1576864556.383739,80158.667,13540,3,PR,1,100,179501
1576864556.425001,80193.333,13540,3,PR,1,100,179441
1576864556.466264,80228.000,13540,3,PR,1,100,179428
1576864556.513875,80268.000,13556,2,PR,1,100,179421
1576864556.561486,80308.000,13556,2,PR,1,100,179426
1576864556.600169,80340.500,13575,4,PR,1,100,179431
1576864556.638853,80373.000,13575,4,PR,1,100,179456
1576864556.677537,80405.500,13575,4,PR,1,100,179460
1576864556.716220,80438.000,13575,4,PR,1,100,179479
1576864556.752325,80468.333,13593,3,PR,1,100,179474
1576864556.788430,80498.667,13593,3,PR,1,100,179501
1576864556.824535,80529.000,13593,3,PR,1,100,179504
1576864556.864607,80562.667,13611,3,PR,1,100,179528
1576864556.904680,80596.333,13611,3,PR,1,100,179536
1576864556.944752,80630.000,13611,3,PR,1,100,179564
1576864556.986411,80665.000,13629,3,PR,1,100,179563
1576864557.028071,80700.000,13629,3,PR,1,100,179596
1576864557.069730,80735.000,13629,3,PR,1,100,179614
1576864557.110993,80769.667,13647,3,PR,1,100,179617
1576864557.152256,80804.333,13647,3,PR,1,100,179638
1576864557.193518,80839.000,13647,3,PR,1,100,179685
1576864557.230417,80870.000,13665,3,PR,1,100,179693
1576864557.267315,80901.000,13665,3,PR,1,100,179721
1576864557.304213,80932.000,13665,3,PR,1,100,179758
1576864557.342698,80964.333,13682,3,PR,1,100,179767
1576864557.381184,80996.667,13682,3,PR,1,100,179798
1576864557.419669,81029.000,13682,3,PR,1,100,179817
1576864557.459742,81062.667,13700,3,PR,1,100,179784
1576864557.499814,81096.333,13700,3,PR,1,100,179648
1576864557.539886,81130.000,13700,3,PR,1,100,179535
1576864557.585116,81168.000,13719,3,PR,1,100,179497
1576864557.630347,81206.000,13719,3,PR,1,100,179477
1576864557.675577,81244.000,13719,3,PR,1,100,179469
1576864557.717236,81279.000,13735,3,PR,1,100,179475
1576864557.758896,81314.000,13735,3,PR,1,100,179459
1576864557.800555,81349.000,13735,3,PR,1,100,179460
1576864557.839041,81381.333,13753,3,PR,1,100,179480
1576864557.877526,81413.667,13753,3,PR,1,100,179548
1576864557.916011,81446.000,13753,3,PR,1,100,179531
1576864557.958067,81481.333,13771,3,PR,1,100,179572
1576864558.000124,81516.667,13771,3,PR,1,100,179570
1576864558.042180,81552.000,13771,3,PR,1,100,179584
1576864558.080268,81584.000,13789,3,PR,1,100,179602
1576864558.118357,81616.000,13789,3,PR,1,100,179622
1576864558.156446,81648.000,13789,3,PR,1,100,179627
1576864558.194931,81680.333,13807,3,PR,1,100,179657
1576864558.233416,81712.667,13807,3,PR,1,100,179661
1576864558.271902,81745.000,13807,3,PR,1,100,179674
1576864558.311577,81778.333,13825,3,PR,1,100,179683
1576864558.351253,81811.667,13825,3,PR,1,100,179709
1576864558.390928,81845.000,13825,3,PR,1,100,179734
1576864558.432191,81879.667,13843,3,PR,1,100,179739
1576864558.473454,81914.333,13843,3,PR,1,100,179766
1576864558.514716,81949.000,13843,3,PR,1,100,179793
1576864558.556078,81983.750,13862,4,PR,1,100,179790
1576864558.597440,82018.500,13862,4,PR,1,100,179808
1576864558.638802,82053.250,13862,4,PR,1,100,179795
1576864558.680164,82088.000,13862,4,PR,1,100,179755
1576864558.718550,82120.250,13880,4,PR,1,100,179679
1576864558.756936,82152.500,13880,4,PR,1,100,179609
1576864558.795322,82184.750,13880,4,PR,1,100,179560
1576864558.833708,82217.000,13880,4,PR,1,100,179577
1576864558.872194,82249.333,13898,3,PR,1,100,179585
1576864558.910679,82281.667,13898,3,PR,1,100,179559
1576864558.949164,82314.000,13898,3,PR,1,100,179547
1576864558.989634,82348.000,13920,3,PR,1,100,179552
1576864559.030103,82382.000,13920,3,PR,1,100,179547
1576864559.070572,82416.000,13920,3,PR,1,100,179485
1576864559.111438,82450.333,13938,3,PR,1,100,179514
1576864559.152303,82484.667,13938,3,PR,1,100,179540
1576864559.193169,82519.000,13938,3,PR,1,100,179614
1576864559.234829,82554.000,13955,2,PR,1,100,179636
1576864559.276488,82589.000,13955,2,PR,1,100,179665
1576864559.315172,82621.500,13973,4,PR,1,100,179689
1576864559.353856,82654.000,13973,4,PR,1,100,179704
1576864559.392540,82686.500,13973,4,PR,1,100,179683
1576864559.431223,82719.000,13973,4,PR,1,100,179671
1576864559.469708,82751.333,13991,3,PR,1,100,179675
1576864559.508194,82783.667,13991,3,PR,1,100,179693
1576864559.546679,82816.000,13991,3,PR,1,100,179722
1576864559.587148,82850.000,14008,3,PR,1,100,179741
1576864559.627618,82884.000,14008,3,PR,1,100,179773
1576864559.668087,82918.000,14008,3,PR,1,100,179795
1576864559.709746,82953.000,14026,3,PR,1,100,179791
1576864559.751405,82988.000,14026,3,PR,1,100,179710
1576864559.793065,83023.000,14026,3,PR,1,100,179590
1576864559.834724,83058.000,14044,2,PR,1,100,179520
1576864559.876384,83093.000,14044,2,PR,1,100,179507
1576864559.919630,83129.333,14062,3,PR,1,100,179502
1576864559.962877,83165.667,14062,3,PR,1,100,179488
1576864560.006123,83202.000,14062,3,PR,1,100,179491
1576864560.043815,83233.667,14080,3,PR,1,100,179514
1576864560.081506,83265.333,14080,3,PR,1,100,179501
1576864560.119198,83297.000,14080,3,PR,1,100,179516
1576864560.159667,83331.000,14098,3,PR,1,100,179520
1576864560.200137,83365.000,14098,3,PR,1,100,179532
1576864560.240606,83399.000,14098,3,PR,1,100,179546
1576864560.281868,83433.667,14116,3,PR,1,100,179559
1576864560.323131,83468.333,14116,3,PR,1,100,179551
1576864560.364394,83503.000,14116,3,PR,1,100,179580
1576864560.405656,83537.667,14133,3,PR,1,100,179579
1576864560.446919,83572.333,14133,3,PR,1,100,179621
1576864560.488182,83607.000,14133,3,PR,1,100,179618
1576864560.525675,83638.500,14151,4,PR,1,100,179643
1576864560.563169,83670.000,14151,4,PR,1,100,179656
1576864560.600662,83701.500,14151,4,PR,1,100,179697
1576864560.638155,83733.000,14151,4,PR,1,100,179697
1576864560.675054,83764.000,14170,3,PR,1,100,179721
1576864560.711952,83795.000,14170,3,PR,1,100,179725
1576864560.748851,83826.000,14170,3,PR,1,100,179748
1576864560.790113,83860.667,14186,3,PR,1,100,179765
1576864560.831376,83895.333,14186,3,PR,1,100,179764
1576864560.872638,83930.000,14186,3,PR,1,100,179684
1576864560.913504,83964.333,14204,3,PR,1,100,179565
1576864560.954370,83998.667,14204,3,PR,1,100,179467
1576864560.995236,84033.000,14204,3,PR,1,100,179425
1576864561.036102,84067.333,14222,3,PR,1,100,179432
1576864561.076968,84101.667,14222,3,PR,1,100,179465
1576864561.117834,84136.000,14222,3,PR,1,100,179468
1576864561.157113,84169.000,14240,3,PR,1,100,179503
1576864561.196392,84202.000,14240,3,PR,1,100,179463
1576864561.235670,84235.000,14240,3,PR,1,100,179425
1576864561.272569,84266.000,14258,3,PR,1,100,179408
1576864561.309467,84297.000,14258,3,PR,1,100,179410
1576864561.346365,84328.000,14258,3,PR,1,100,179456
1576864561.387231,84362.333,14276,3,PR,1,100,179496
1576864561.428097,84396.667,14276,3,PR,1,100,179539
1576864561.468963,84431.000,14276,3,PR,1,100,179537
1576864561.506655,84462.667,14294,3,PR,1,100,179501
1576864561.544347,84494.333,14294,3,PR,1,100,179500
1576864561.582039,84526.000,14294,3,PR,1,100,179517
1576864561.622905,84560.333,14313,3,PR,1,100,179485
1576864561.663770,84594.667,14313,3,PR,1,100,179574
1576864561.704636,84629.000,14313,3,PR,1,100,179602
1576864561.745899,84663.667,14330,3,PR,1,100,179643
1576864561.787162,84698.333,14330,3,PR,1,100,179651
1576864561.828424,84733.000,14330,3,PR,1,100,179616
1576864561.869290,84767.333,14348,3,PR,1,100,179615
1576864561.910156,84801.667,14348,3,PR,1,100,179637
1576864561.951022,84836.000,14348,3,PR,1,100,179579
1576864561.990697,84869.333,14364,3,PR,1,100,179541
1576864562.030373,84902.667,14364,3,PR,1,100,179481
1576864562.070049,84936.000,14364,3,PR,1,100,179466
1576864562.108534,84968.333,14382,3,PR,1,100,179448
1576864562.147019,85000.667,14382,3,PR,1,100,179410
1576864562.185505,85033.000,14382,3,PR,1,100,179403
1576864562.224784,85066.000,14400,3,PR,1,100,179415
1576864562.264063,85099.000,14400,3,PR,1,100,179418
1576864562.303341,85132.000,14400,3,PR,1,100,179412
1576864562.344604,85166.667,14418,3,PR,1,100,179422
1576864562.385867,85201.333,14418,3,PR,1,100,179426
1576864562.427129,85236.000,14418,3,PR,1,100,179435
1576864562.467995,85270.333,14436,3,PR,1,100,179451
1576864562.508861,85304.667,14436,3,PR,1,100,179467
1576864562.549727,85339.000,14436,3,PR,1,100,179499
1576864562.592180,85374.667,14455,3,PR,1,100,179516
1576864562.634633,85410.333,14455,3,PR,1,100,179514
1576864562.677086,85446.000,14455,3,PR,1,100,179546
1576864562.718349,85480.667,14473,3,PR,1,100,179583
1576864562.759611,85515.333,14473,3,PR,1,100,179638
1576864562.800874,85550.000,14473,3,PR,1,100,179640
1576864562.840153,85583.000,14490,3,PR,1,100,179634
1576864562.879431,85616.000,14490,3,PR,1,100,179641
1576864562.918710,85649.000,14490,3,PR,1,100,179647
1576864562.956799,85681.000,14508,3,PR,1,100,179674
1576864562.994888,85713.000,14508,3,PR,1,100,179701
1576864563.032976,85745.000,14508,3,PR,1,100,179721
1576864563.072255,85778.000,14526,3,PR,1,100,179632
1576864563.111534,85811.000,14526,3,PR,1,100,179516
1576864563.150813,85844.000,14526,3,PR,1,100,179445
1576864563.191679,85878.333,14542,3,PR,1,100,179407
1576864563.232544,85912.667,14542,3,PR,1,100,179384
1576864563.273410,85947.000,14542,3,PR,1,100,179359
1576864563.314673,85981.667,14560,3,PR,1,100,179340
1576864563.355936,86016.333,14560,3,PR,1,100,179380
1576864563.397198,86051.000,14560,3,PR,1,100,179358
1576864563.437271,86084.667,14578,3,PR,1,100,179360
1576864563.477343,86118.333,14578,3,PR,1,100,179361
1576864563.517416,86152.000,14578,3,PR,1,100,179379
1576864563.555504,86184.000,14596,3,PR,1,100,179396
1576864563.593593,86216.000,14596,3,PR,1,100,179410
1576864563.631681,86248.000,14596,3,PR,1,100,179415
1576864563.670960,86281.000,14615,3,PR,1,100,179437
1576864563.710239,86314.000,14615,3,PR,1,100,179438
1576864563.749518,86347.000,14615,3,PR,1,100,179464
1576864563.790781,86381.667,14633,3,PR,1,100,179449
1576864563.832043,86416.333,14633,3,PR,1,100,179477
1576864563.873306,86451.000,14633,3,PR,1,100,179492
1576864563.914568,86485.667,14651,3,PR,1,100,179502
1576864563.955831,86520.333,14651,3,PR,1,100,179522
1576864563.997094,86555.000,14651,3,PR,1,100,179549
1576864564.038356,86589.667,14668,3,PR,1,100,179564
1576864564.079619,86624.333,14668,3,PR,1,100,179579
1576864564.120882,86659.000,14668,3,PR,1,100,179583
1576864564.158970,86691.000,14686,3,PR,1,100,179610
1576864564.197059,86723.000,14686,3,PR,1,100,179637
1576864564.235147,86755.000,14686,3,PR,1,100,179661
1576864564.274029,86787.667,14704,3,PR,1,100,179659
1576864564.312912,86820.333,14704,3,PR,1,100,179699
1576864564.351794,86853.000,14704,3,PR,1,100,179667
1576864564.392660,86887.333,14720,3,PR,1,100,179703
1576864564.433526,86921.667,14720,3,PR,1,100,179772
1576864564.474391,86956.000,14720,3,PR,1,100,179829
1576864564.516844,86991.667,14738,3,PR,1,100,179857
1576864564.559297,87027.333,14738,3,PR,1,100,179904
1576864564.601750,87063.000,14738,3,PR,1,100,179880
1576864564.641327,87096.250,14760,4,PR,1,100,179856
1576864564.680903,87129.500,14760,4,PR,1,100,179841
1576864564.720479,87162.750,14760,4,PR,1,100,179737
1576864564.760056,87196.000,14760,4,PR,1,100,179631
1576864564.797847,87227.750,14780,4,PR,1,100,179614
1576864564.835638,87259.500,14780,4,PR,1,100,179623
1576864564.873429,87291.250,14780,4,PR,1,100,179643
1576864564.911220,87323.000,14780,4,PR,1,100,179607
1576864564.952483,87357.667,14798,3,PR,1,100,179572
1576864564.993745,87392.333,14798,3,PR,1,100,179586
1576864565.035008,87427.000,14798,3,PR,1,100,179577
1576864565.076072,87461.500,14816,2,PR,1,100,179564
1576864565.117136,87496.000,14816,2,PR,1,100,179574
1576864565.158399,87530.667,14832,3,PR,1,100,179595
1576864565.199662,87565.333,14832,3,PR,1,100,179606
1576864565.240924,87600.000,14832,3,PR,1,100,179623
1576864565.280997,87633.667,14850,3,PR,1,100,179640
1576864565.321069,87667.333,14850,3,PR,1,100,179642
1576864565.361141,87701.000,14850,3,PR,1,100,179662
1576864565.401214,87734.667,14868,3,PR,1,100,179676
1576864565.441286,87768.333,14868,3,PR,1,100,179692
1576864565.481359,87802.000,14868,3,PR,1,100,179719
1576864565.520042,87834.500,14886,4,PR,1,100,179750
1576864565.558726,87867.000,14886,4,PR,1,100,179796
1576864565.597410,87899.500,14886,4,PR,1,100,179822
1576864565.636094,87932.000,14886,4,PR,1,100,179838
1576864565.674182,87964.000,14905,3,PR,1,100,179813
1576864565.712271,87996.000,14905,3,PR,1,100,179838
1576864565.750359,88028.000,14905,3,PR,1,100,179867
1576864565.790828,88062.000,14923,3,PR,1,100,179878
1576864565.831298,88096.000,14923,3,PR,1,100,179911
1576864565.871767,88130.000,14923,3,PR,1,100,179932
1576864565.913029,88164.667,14941,3,PR,1,100,179966
1576864565.954292,88199.333,14941,3,PR,1,100,179979
1576864565.995555,88234.000,14941,3,PR,1,100,179998
1576864566.037214,88269.000,14958,2,PR,1,100,180031
1576864566.078874,88304.000,14958,2,PR,1,100,180048
1576864566.120136,88338.667,14976,3,PR,1,100,180073
1576864566.161399,88373.333,14976,3,PR,1,100,180069
1576864566.202662,88408.000,14976,3,PR,1,100,179950
1576864566.240453,88439.750,14992,4,PR,1,100,179815
1576864566.278244,88471.500,14992,4,PR,1,100,179757
1576864566.316035,88503.250,14992,4,PR,1,100,179762
1576864566.353826,88535.000,14992,4,PR,1,100,179756
1576864566.393501,88568.333,15010,3,PR,1,100,179749
1576864566.433177,88601.667,15010,3,PR,1,100,179732
1576864566.472852,88635.000,15010,3,PR,1,100,179742
1576864566.512925,88668.667,15028,3,PR,1,100,179726
1576864566.552997,88702.333,15028,3,PR,1,100,179741
1576864566.593070,88736.000,15028,3,PR,1,100,179727
1576864566.634332,88770.667,15047,3,PR,1,100,179729
1576864566.675595,88805.333,15047,3,PR,1,100,179737
1576864566.716857,88840.000,15047,3,PR,1,100,179751
1576864566.758517,88875.000,15065,2,PR,1,100,179759
1576864566.800176,88910.000,15065,2,PR,1,100,179767
1576864566.837967,88941.750,15083,4,PR,1,100,179769
1576864566.875758,88973.500,15083,4,PR,1,100,179769
1576864566.913549,89005.250,15083,4,PR,1,100,179782
1576864566.951340,89037.000,15083,4,PR,1,100,179789
1576864566.990222,89069.667,15101,3,PR,1,100,179791
1576864567.029105,89102.333,15101,3,PR,1,100,179785
1576864567.067987,89135.000,15101,3,PR,1,100,179772
1576864567.107662,89168.333,15119,3,PR,1,100,179846
1576864567.147338,89201.667,15119,3,PR,1,100,179897
1576864567.187014,89235.000,15119,3,PR,1,100,179917
1576864567.227880,89269.333,15137,3,PR,1,100,179951
1576864567.268745,89303.667,15137,3,PR,1,100,179890
1576864567.309611,89338.000,15137,3,PR,1,100,179916
1576864567.351271,89373.000,15154,3,PR,1,100,179910
1576864567.392930,89408.000,15154,3,PR,1,100,179930
1576864567.434590,89443.000,15154,3,PR,1,100,180016
1576864567.471885,89474.333,15172,3,PR,1,100,180061
1576864567.509180,89505.667,15172,3,PR,1,100,180070
1576864567.546475,89537.000,15172,3,PR,1,100,180082
1576864567.585754,89570.000,15189,3,PR,1,100,180059
1576864567.625032,89603.000,15189,3,PR,1,100,180074
1576864567.664311,89636.000,15189,3,PR,1,100,180067
1576864567.704781,89670.000,15207,3,PR,1,100,179976
1576864567.745250,89704.000,15207,3,PR,1,100,179851
1576864567.785719,89738.000,15207,3,PR,1,100,179775
1576864567.826982,89772.667,15225,3,PR,1,100,179767
1576864567.868244,89807.333,15225,3,PR,1,100,179767
1576864567.909507,89842.000,15225,3,PR,1,100,179760
1576864567.957713,89882.500,15243,2,PR,1,100,179768
1576864568.005919,89923.000,15243,2,PR,1,100,179773
1576864568.044305,89955.250,15261,4,PR,1,100,179772
1576864568.082691,89987.500,15261,4,PR,1,100,179759
1576864568.121077,90019.750,15261,4,PR,1,100,179769
1576864568.159463,90052.000,15261,4,PR,1,100,179774
1576864568.195965,90082.667,15279,3,PR,1,100,179792
1576864568.232466,90113.333,15279,3,PR,1,100,179807
1576864568.268968,90144.000,15279,3,PR,1,100,179818
1576864568.309437,90178.000,15297,3,PR,1,100,179819
1576864568.349906,90212.000,15297,3,PR,1,100,179829
1576864568.390375,90246.000,15297,3,PR,1,100,179826
1576864568.431638,90280.667,15315,3,PR,1,100,179841
1576864568.472901,90315.333,15315,3,PR,1,100,179852
1576864568.514163,90350.000,15315,3,PR,1,100,179870
1576864568.555426,90384.667,15332,3,PR,1,100,179863
1576864568.596689,90419.333,15332,3,PR,1,100,179901
1576864568.637951,90454.000,15332,3,PR,1,100,179905
1576864568.675643,90485.667,15351,3,PR,1,100,179919
1576864568.713335,90517.333,15351,3,PR,1,100,179922
1576864568.751027,90549.000,15351,3,PR,1,100,179936
1576864568.789512,90581.333,15367,3,PR,1,100,179947
1576864568.827997,90613.667,15367,3,PR,1,100,179966
1576864568.866483,90646.000,15367,3,PR,1,100,179968
1576864568.906555,90679.667,15385,3,PR,1,100,180010
1576864568.946627,90713.333,15385,3,PR,1,100,179991
1576864568.986700,90747.000,15385,3,PR,1,100,180021
1576864569.027566,90781.333,15403,3,PR,1,100,180072
1576864569.068432,90815.667,15403,3,PR,1,100,180096
1576864569.109298,90850.000,15403,3,PR,1,100,180075
1576864569.150957,90885.000,15421,3,PR,1,100,180107
1576864569.192616,90920.000,15421,3,PR,1,100,180131
1576864569.234276,90955.000,15421,3,PR,1,100,180042
1576864569.274745,90989.000,15439,3,PR,1,100,179896
1576864569.315214,91023.000,15439,3,PR,1,100,179805
1576864569.355683,91057.000,15439,3,PR,1,100,179784
1576864569.397342,91092.000,15457,3,PR,1,100,179767
1576864569.439002,91127.000,15457,3,PR,1,100,179745
1576864569.480661,91162.000,15457,3,PR,1,100,179728
1576864569.519543,91194.667,15475,3,PR,1,100,179734
1576864569.558426,91227.333,15475,3,PR,1,100,179693
1576864569.597308,91260.000,15475,3,PR,1,100,179707
1576864569.635396,91292.000,15493,3,PR,1,100,179734
1576864569.673485,91324.000,15493,3,PR,1,100,179760
1576864569.711573,91356.000,15493,3,PR,1,100,179768
1576864569.752043,91390.000,15511,3,PR,1,100,179783
1576864569.792512,91424.000,15511,3,PR,1,100,179742
1576864569.832981,91458.000,15511,3,PR,1,100,179713
1576864569.873847,91492.333,15529,3,PR,1,100,179704
1576864569.914713,91526.667,15529,3,PR,1,100,179753
1576864569.955579,91561.000,15529,3,PR,1,100,179796
1576864569.997238,91596.000,15545,3,PR,1,100,179805
1576864570.038897,91631.000,15545,3,PR,1,100,179846
1576864570.080557,91666.000,15545,3,PR,1,100,179825
1576864570.119836,91699.000,15563,3,PR,1,100,179796
1576864570.159114,91732.000,15563,3,PR,1,100,179804
1576864570.198393,91765.000,15563,3,PR,1,100,179807
1576864570.236085,91796.667,15581,3,PR,1,100,179829
1576864570.273777,91828.333,15581,3,PR,1,100,179852
1576864570.311469,91860.000,15581,3,PR,1,100,179848
1576864570.351145,91893.333,15599,3,PR,1,100,179865
1576864570.390820,91926.667,15599,3,PR,1,100,179879
1576864570.430496,91960.000,15599,3,PR,1,100,179890
1576864570.474932,91997.333,15617,3,PR,1,100,179911
1576864570.519369,92034.667,15617,3,PR,1,100,179931
1576864570.563806,92072.000,15617,3,PR,1,100,179945
1576864570.605465,92107.000,15636,2,PR,1,100,179936
1576864570.647125,92142.000,15636,2,PR,1,100,179963
1576864570.686880,92175.400,15657,5,PR,1,100,179989
1576864570.726635,92208.800,15657,5,PR,1,100,180012
1576864570.766390,92242.200,15657,5,PR,1,100,180030
1576864570.806144,92275.600,15657,5,PR,1,100,179936
1576864570.845900,92309.000,15657,5,PR,1,100,179791
1576864570.883591,92340.667,15675,3,PR,1,100,179727
1576864570.921283,92372.333,15675,3,PR,1,100,179682
1576864570.958975,92404.000,15675,3,PR,1,100,179690
1576864570.998651,92437.333,15695,3,PR,1,100,179675
1576864571.038326,92470.667,15695,3,PR,1,100,179663
1576864571.078002,92504.000,15695,3,PR,1,100,179659
1576864571.120058,92539.333,15713,3,PR,1,100,179671
1576864571.162114,92574.667,15713,3,PR,1,100,179639
1576864571.204170,92610.000,15713,3,PR,1,100,179634
1576864571.245830,92645.000,15731,3,PR,1,100,179629
1576864571.287489,92680.000,15731,3,PR,1,100,179630
1576864571.329149,92715.000,15731,3,PR,1,100,179639
1576864571.368428,92748.000,15749,3,PR,1,100,179640
1576864571.407706,92781.000,15749,3,PR,1,100,179637
1576864571.446985,92814.000,15749,3,PR,1,100,179625
1576864571.484280,92845.333,15767,3,PR,1,100,179636
1576864571.521575,92876.667,15767,3,PR,1,100,179688
1576864571.558870,92908.000,15767,3,PR,1,100,179720
1576864571.599339,92942.000,15785,3,PR,1,100,179732
1576864571.639809,92976.000,15785,3,PR,1,100,179770
1576864571.680278,93010.000,15785,3,PR,1,100,179738
1576864571.721540,93044.667,15803,3,PR,1,100,179713
1576864571.762803,93079.333,15803,3,PR,1,100,179730
1576864571.804066,93114.000,15803,3,PR,1,100,179758
1576864571.842154,93146.000,15819,3,PR,1,100,179810
1576864571.880243,93178.000,15819,3,PR,1,100,179845
1576864571.918332,93210.000,15819,3,PR,1,100,179853
1576864571.957313,93242.750,15837,4,PR,1,100,179908
1576864571.996294,93275.500,15837,4,PR,1,100,179908
1576864572.035275,93308.250,15837,4,PR,1,100,179883
1576864572.074257,93341.000,15837,4,PR,1,100,179889
1576864572.111948,93372.667,15855,3,PR,1,100,179898
1576864572.149640,93404.333,15855,3,PR,1,100,179907
1576864572.187332,93436.000,15855,3,PR,1,100,179933
1576864572.227405,93469.667,15873,3,PR,1,100,179947
1576864572.267477,93503.333,15873,3,PR,1,100,179972
1576864572.307549,93537.000,15873,3,PR,1,100,179981
1576864572.349209,93572.000,15891,3,PR,1,100,179983
1576864572.390868,93607.000,15891,3,PR,1,100,179875
1576864572.432528,93642.000,15891,3,PR,1,100,179748
1576864572.477163,93679.500,15909,2,PR,1,100,179675
1576864572.521798,93717.000,15909,2,PR,1,100,179637
1576864572.563457,93752.000,15928,3,PR,1,100,179624
1576864572.605117,93787.000,15928,3,PR,1,100,179576
1576864572.646776,93822.000,15928,3,PR,1,100,179568
1576864572.684468,93853.667,15946,3,PR,1,100,179573
1576864572.722160,93885.333,15946,3,PR,1,100,179571
1576864572.759851,93917.000,15946,3,PR,1,100,179567
1576864572.795857,93947.250,15964,4,PR,1,100,179571
1576864572.831863,93977.500,15964,4,PR,1,100,179567
1576864572.867868,94007.750,15964,4,PR,1,100,179564
1576864572.903874,94038.000,15964,4,PR,1,100,179554
1576864572.942756,94070.667,15981,3,PR,1,100,179566
1576864572.981638,94103.333,15981,3,PR,1,100,179576
1576864573.020520,94136.000,15981,3,PR,1,100,179578
1576864573.059799,94169.000,15999,3,PR,1,100,179583
1576864573.099078,94202.000,15999,3,PR,1,100,179587
1576864573.138357,94235.000,15999,3,PR,1,100,179608
1576864573.181206,94271.000,16017,3,PR,1,100,179621
1576864573.224056,94307.000,16017,3,PR,1,100,179620
1576864573.266906,94343.000,16017,3,PR,1,100,179634
1576864573.306581,94376.333,16033,3,PR,1,100,179697
1576864573.346257,94409.667,16033,3,PR,1,100,179748
1576864573.385933,94443.000,16033,3,PR,1,100,179724
1576864573.427195,94477.667,16051,3,PR,1,100,179702
1576864573.468458,94512.333,16051,3,PR,1,100,179715
1576864573.509721,94547.000,16051,3,PR,1,100,179723
1576864573.551380,94582.000,16070,3,PR,1,100,179739
1576864573.593040,94617.000,16070,3,PR,1,100,179760
1576864573.634699,94652.000,16070,3,PR,1,100,179790
1576864573.673184,94684.333,16088,3,PR,1,100,179812
1576864573.711670,94716.667,16088,3,PR,1,100,179823
1576864573.750155,94749.000,16088,3,PR,1,100,179835
1576864573.788244,94781.000,16106,3,PR,1,100,179855
1576864573.826332,94813.000,16106,3,PR,1,100,179877
1576864573.864421,94845.000,16106,3,PR,1,100,179895
1576864573.904096,94878.333,16124,3,PR,1,100,179914
1576864573.943772,94911.667,16124,3,PR,1,100,179926
1576864573.983448,94945.000,16124,3,PR,1,100,179938
1576864574.024710,94979.667,16142,3,PR,1,100,179898
1576864574.065973,95014.333,16142,3,PR,1,100,179763
1576864574.107236,95049.000,16142,3,PR,1,100,179662
1576864574.149292,95084.333,16159,3,PR,1,100,179640
1576864574.191348,95119.667,16159,3,PR,1,100,179613
1576864574.233404,95155.000,16159,3,PR,1,100,179591
1576864574.272683,95188.000,16177,3,PR,1,100,179564
1576864574.311962,95221.000,16177,3,PR,1,100,179552
1576864574.351241,95254.000,16177,3,PR,1,100,179560
1576864574.389329,95286.000,16193,3,PR,1,100,179553
1576864574.427418,95318.000,16193,3,PR,1,100,179533
1576864574.465506,95350.000,16193,3,PR,1,100,179525
1576864574.504785,95383.000,16211,3,PR,1,100,179521
1576864574.544064,95416.000,16211,3,PR,1,100,179533
1576864574.583343,95449.000,16211,3,PR,1,100,179532
1576864574.624209,95483.333,16230,3,PR,1,100,179531
1576864574.665075,95517.667,16230,3,PR,1,100,179546
1576864574.705941,95552.000,16230,3,PR,1,100,179556
1576864574.747203,95586.667,16248,3,PR,1,100,179530
1576864574.788466,95621.333,16248,3,PR,1,100,179543
1576864574.829729,95656.000,16248,3,PR,1,100,179582
1576864574.869801,95689.667,16266,3,PR,1,100,179639
1576864574.909873,95723.333,16266,3,PR,1,100,179663
1576864574.949946,95757.000,16266,3,PR,1,100,179670
1576864574.988034,95789.000,16284,3,PR,1,100,179639
1576864575.026123,95821.000,16284,3,PR,1,100,179634
1576864575.064212,95853.000,16284,3,PR,1,100,179624
1576864575.103490,95886.000,16302,3,PR,1,100,179703
1576864575.142769,95919.000,16302,3,PR,1,100,179756
1576864575.182048,95952.000,16302,3,PR,1,100,179767
1576864575.223311,95986.667,16320,3,PR,1,100,179786
1576864575.264573,96021.333,16320,3,PR,1,100,179757
1576864575.305836,96056.000,16320,3,PR,1,100,179780
1576864575.347496,96091.000,16337,3,PR,1,100,179783
1576864575.389155,96126.000,16337,3,PR,1,100,179818
1576864575.430814,96161.000,16337,3,PR,1,100,179830
1576864575.471680,96195.333,16355,3,PR,1,100,179842
1576864575.512546,96229.667,16355,3,PR,1,100,179865
1576864575.553412,96264.000,16355,3,PR,1,100,179873
1576864575.594675,96298.667,16372,3,PR,1,100,179896
1576864575.635937,96333.333,16372,3,PR,1,100,179921
1576864575.677200,96368.000,16372,3,PR,1,100,179941
1576864575.713701,96398.667,16390,3,PR,1,100,179877
1576864575.750203,96429.333,16390,3,PR,1,100,179725
1576864575.786705,96460.000,16390,3,PR,1,100,179631
1576864575.828364,96495.000,16408,3,PR,1,100,179617
1576864575.870023,96530.000,16408,3,PR,1,100,179601
1576864575.911683,96565.000,16408,3,PR,1,100,179585
1576864575.952945,96599.667,16426,3,PR,1,100,179560
1576864575.994208,96634.333,16426,3,PR,1,100,179527
1576864576.035471,96669.000,16426,3,PR,1,100,179542
1576864576.076337,96703.333,16444,3,PR,1,100,179526
1576864576.117203,96737.667,16444,3,PR,1,100,179506
1576864576.158068,96772.000,16444,3,PR,1,100,179496
1576864576.194967,96803.000,16462,3,PR,1,100,179514
1576864576.231865,96834.000,16462,3,PR,1,100,179492
1576864576.268764,96865.000,16462,3,PR,1,100,179493
1576864576.306455,96896.667,16480,3,PR,1,100,179489
1576864576.344147,96928.333,16480,3,PR,1,100,179491
1576864576.381839,96960.000,16480,3,PR,1,100,179493
1576864576.423102,96994.667,16498,3,PR,1,100,179503
1576864576.464364,97029.333,16498,3,PR,1,100,179489
1576864576.505627,97064.000,16498,3,PR,1,100,179510
1576864576.550857,97102.000,16516,3,PR,1,100,179471
1576864576.596087,97140.000,16516,3,PR,1,100,179521
1576864576.641318,97178.000,16516,3,PR,1,100,179560
1576864576.679009,97209.667,16534,3,PR,1,100,179597
1576864576.716701,97241.333,16534,3,PR,1,100,179567
1576864576.754393,97273.000,16534,3,PR,1,100,179589
1576864576.795457,97307.500,16553,4,PR,1,100,179618
1576864576.836522,97342.000,16553,4,PR,1,100,179608
1576864576.877586,97376.500,16553,4,PR,1,100,179620
1576864576.918650,97411.000,16553,4,PR,1,100,179620
1576864576.959516,97445.333,16573,3,PR,1,100,179638
1576864577.000382,97479.667,16573,3,PR,1,100,179648
1576864577.041248,97514.000,16573,3,PR,1,100,179661
1576864577.079336,97546.000,16591,4,PR,1,100,179659
1576864577.117425,97578.000,16591,4,PR,1,100,179690
1576864577.155514,97610.000,16591,4,PR,1,100,179646
1576864577.193602,97642.000,16591,4,PR,1,100,179723
1576864577.233675,97675.667,16608,3,PR,1,100,179769
1576864577.273747,97709.333,16608,3,PR,1,100,179810
1576864577.313819,97743.000,16608,3,PR,1,100,179805
1576864577.354884,97777.500,16626,2,PR,1,100,179651
1576864577.395948,97812.000,16626,2,PR,1,100,179521
1576864577.436814,97846.333,16642,3,PR,1,100,179426
1576864577.477680,97880.667,16642,3,PR,1,100,179438
1576864577.518545,97915.000,16642,3,PR,1,100,179478
1576864577.559808,97949.667,16661,3,PR,1,100,179465
1576864577.601071,97984.333,16661,3,PR,1,100,179458
1576864577.642334,98019.000,16661,3,PR,1,100,179462
1576864577.679827,98050.500,16679,4,PR,1,100,179405
1576864577.717320,98082.000,16679,4,PR,1,100,179384
1576864577.754814,98113.500,16679,4,PR,1,100,179366
1576864577.792307,98145.000,16679,4,PR,1,100,179372
1576864577.831586,98178.000,16697,3,PR,1,100,179373
1576864577.870865,98211.000,16697,3,PR,1,100,179377
1576864577.910144,98244.000,16697,3,PR,1,100,179380
1576864577.950018,98277.500,16715,2,PR,1,100,179369
1576864577.989892,98311.000,16715,2,PR,1,100,179374
1576864578.035122,98349.000,16733,3,PR,1,100,179390
1576864578.080352,98387.000,16733,3,PR,1,100,179387
1576864578.125582,98425.000,16733,3,PR,1,100,179418
1576864578.167242,98460.000,16751,3,PR,1,100,179404
1576864578.208901,98495.000,16751,3,PR,1,100,179419
1576864578.250561,98530.000,16751,3,PR,1,100,179444
1576864578.288253,98561.667,16769,3,PR,1,100,179453
1576864578.325944,98593.333,16769,3,PR,1,100,179467
1576864578.363636,98625.000,16769,3,PR,1,100,179499
1576864578.402320,98657.500,16786,4,PR,1,100,179502
1576864578.441004,98690.000,16786,4,PR,1,100,179525
1576864578.479687,98722.500,16786,4,PR,1,100,179529
1576864578.518371,98755.000,16786,4,PR,1,100,179519
1576864578.558840,98789.000,16805,2,PR,1,100,179549
1576864578.599309,98823.000,16805,2,PR,1,100,179578
1576864578.640572,98857.667,16823,3,PR,1,100,179572
1576864578.681835,98892.333,16823,3,PR,1,100,179594
1576864578.723097,98927.000,16823,3,PR,1,100,179613
1576864578.765154,98962.333,16839,3,PR,1,100,179618
1576864578.807210,98997.667,16839,3,PR,1,100,179628
1576864578.849266,99033.000,16839,3,PR,1,100,179638
1576864578.886958,99064.667,16857,3,PR,1,100,179647
1576864578.924649,99096.333,16857,3,PR,1,100,179667
1576864578.962341,99128.000,16857,3,PR,1,100,179641
1576864579.000728,99160.250,16875,4,PR,1,100,179558
1576864579.039114,99192.500,16875,4,PR,1,100,179475
1576864579.077500,99224.750,16875,4,PR,1,100,179434
1576864579.115886,99257.000,16875,4,PR,1,100,179386
1576864579.157149,99291.667,16893,3,PR,1,100,179397
1576864579.198411,99326.333,16893,3,PR,1,100,179334
1576864579.239674,99361.000,16893,3,PR,1,100,179277
1576864579.280143,99395.000,16911,2,PR,1,100,179257
1576864579.320612,99429.000,16911,2,PR,1,100,179301
1576864579.359891,99462.000,16929,4,PR,1,100,179325
1576864579.399170,99495.000,16929,4,PR,1,100,179328
1576864579.438449,99528.000,16929,4,PR,1,100,179333
1576864579.477728,99561.000,16929,4,PR,1,100,179292
1576864579.515023,99592.333,16947,3,PR,1,100,179276
1576864579.552318,99623.667,16947,3,PR,1,100,179278
1576864579.589613,99655.000,16947,3,PR,1,100,179273
1576864579.627305,99686.667,16966,3,PR,1,100,179281
1576864579.664997,99718.333,16966,3,PR,1,100,179287
1576864579.702688,99750.000,16966,3,PR,1,100,179297
1576864579.744348,99785.000,16983,3,PR,1,100,179310
1576864579.786007,99820.000,16983,3,PR,1,100,179320
1576864579.827667,99855.000,16983,3,PR,1,100,179344
1576864579.870913,99891.333,17001,3,PR,1,100,179343
1576864579.914160,99927.667,17001,3,PR,1,100,179345
1576864579.957406,99964.000,17001,3,PR,1,100,179361
1576864579.998272,99998.333,17017,3,PR,1,100,179340
1576864580.039138,100032.667,17017,3,PR,1,100,179392
1576864580.080004,100067.000,17017,3,PR,1,100,179405
1576864580.118886,100099.667,17035,3,PR,1,100,179418
1576864580.157768,100132.333,17035,3,PR,1,100,179445
1576864580.196650,100165.000,17035,3,PR,1,100,179475
1576864580.235135,100197.333,17053,3,PR,1,100,179471
1576864580.273621,100229.667,17053,3,PR,1,100,179483
1576864580.312106,100262.000,17053,3,PR,1,100,179479
1576864580.353765,100297.000,17071,3,PR,1,100,179508
1576864580.395425,100332.000,17071,3,PR,1,100,179528
1576864580.437084,100367.000,17071,3,PR,1,100,179539
1576864580.475569,100399.333,17089,3,PR,1,100,179550
1576864580.514055,100431.667,17089,3,PR,1,100,179562
1576864580.552540,100464.000,17089,3,PR,1,100,179577
1576864580.590629,100496.000,17108,3,PR,1,100,179536
1576864580.628717,100528.000,17108,3,PR,1,100,179474
1576864580.666806,100560.000,17108,3,PR,1,100,179367
1576864580.705292,100592.333,17126,3,PR,1,100,179318
1576864580.743777,100624.667,17126,3,PR,1,100,179320
1576864580.782262,100657.000,17126,3,PR,1,100,179312
1576864580.823525,100691.667,17144,3,PR,1,100,179300
1576864580.864787,100726.333,17144,3,PR,1,100,179305
1576864580.906050,100761.000,17144,3,PR,1,100,179308
1576864580.947313,100795.667,17161,3,PR,1,100,179324
1576864580.988575,100830.333,17161,3,PR,1,100,179315
1576864581.029838,100865.000,17161,3,PR,1,100,179321
1576864581.071894,100900.333,17179,3,PR,1,100,179328
1576864581.113950,100935.667,17179,3,PR,1,100,179337
1576864581.156007,100971.000,17179,3,PR,1,100,179324
1576864581.193698,101002.667,17195,3,PR,1,100,179313
1576864581.231390,101034.333,17195,3,PR,1,100,179361
1576864581.269082,101066.000,17195,3,PR,1,100,179373
1576864581.307964,101098.667,17213,3,PR,1,100,179387
1576864581.346846,101131.333,17213,3,PR,1,100,179408
1576864581.385728,101164.000,17213,3,PR,1,100,179413
1576864581.426594,101198.333,17231,3,PR,1,100,179420
1576864581.467460,101232.667,17231,3,PR,1,100,179433
1576864581.508326,101267.000,17231,3,PR,1,100,179420
1576864581.549589,101301.667,17250,3,PR,1,100,179446
1576864581.590851,101336.333,17250,3,PR,1,100,179474
1576864581.632114,101371.000,17250,3,PR,1,100,179478
1576864581.674170,101406.333,17268,3,PR,1,100,179493
1576864581.716226,101441.667,17268,3,PR,1,100,179495
1576864581.758282,101477.000,17268,3,PR,1,100,179514
1576864581.795974,101508.667,17286,3,PR,1,100,179525
1576864581.833666,101540.333,17286,3,PR,1,100,179527
1576864581.871358,101572.000,17286,3,PR,1,100,179550
1576864581.909050,101603.667,17304,3,PR,1,100,179573
1576864581.946742,101635.333,17304,3,PR,1,100,179563
1576864581.984433,101667.000,17304,3,PR,1,100,179580
1576864582.024506,101700.667,17322,3,PR,1,100,179621
1576864582.064578,101734.333,17322,3,PR,1,100,179661
1576864582.104650,101768.000,17322,3,PR,1,100,179697
1576864582.145516,101802.333,17339,3,PR,1,100,179736
1576864582.186382,101836.667,17339,3,PR,1,100,179679
1576864582.227248,101871.000,17339,3,PR,1,100,179553
1576864582.268908,101906.000,17357,3,PR,1,100,179405
1576864582.310567,101941.000,17357,3,PR,1,100,179392
1576864582.352226,101976.000,17357,3,PR,1,100,179412
1576864582.391109,102008.667,17373,3,PR,1,100,179414
1576864582.429991,102041.333,17373,3,PR,1,100,179425
1576864582.468873,102074.000,17373,3,PR,1,100,179352
1576864582.506961,102106.000,17391,3,PR,1,100,179336
1576864582.545050,102138.000,17391,3,PR,1,100,179344
1576864582.583139,102170.000,17391,3,PR,1,100,179339
1576864582.622417,102203.000,17410,3,PR,1,100,179338
1576864582.661696,102236.000,17410,3,PR,1,100,179332
1576864582.700975,102269.000,17410,3,PR,1,100,179325
1576864582.742635,102304.000,17428,3,PR,1,100,179343
1576864582.784294,102339.000,17428,3,PR,1,100,179353
1576864582.825953,102374.000,17428,3,PR,1,100,179357
1576864582.870291,102411.250,17448,4,PR,1,100,179361
1576864582.914629,102448.500,17448,4,PR,1,100,179374
1576864582.958966,102485.750,17448,4,PR,1,100,179382
1576864583.003304,102523.000,17448,4,PR,1,100,179373
1576864583.041095,102554.750,17469,4,PR,1,100,179413
1576864583.078886,102586.500,17469,4,PR,1,100,179416
1576864583.116677,102618.250,17469,4,PR,1,100,179426
1576864583.154468,102650.000,17469,4,PR,1,100,179462
1576864583.193350,102682.667,17485,3,PR,1,100,179457
1576864583.232232,102715.333,17485,3,PR,1,100,179484
1576864583.271114,102748.000,17485,3,PR,1,100,179487
1576864583.309202,102780.000,17503,3,PR,1,100,179492
1576864583.347291,102812.000,17503,3,PR,1,100,179506
1576864583.385380,102844.000,17503,3,PR,1,100,179541
1576864583.426642,102878.667,17521,3,PR,1,100,179536
1576864583.467905,102913.333,17521,3,PR,1,100,179550
1576864583.509168,102948.000,17521,3,PR,1,100,179563
1576864583.550430,102982.667,17539,3,PR,1,100,179575
1576864583.591693,103017.333,17539,3,PR,1,100,179582
1576864583.632956,103052.000,17539,3,PR,1,100,179602
1576864583.669854,103083.000,17558,3,PR,1,100,179612
1576864583.706752,103114.000,17558,3,PR,1,100,179631
1576864583.743650,103145.000,17558,3,PR,1,100,179598
1576864583.782533,103177.667,17576,3,PR,1,100,179632
1576864583.821415,103210.333,17576,3,PR,1,100,179698
1576864583.860297,103243.000,17576,3,PR,1,100,179694
1576864583.900766,103277.000,17594,3,PR,1,100,179591
1576864583.941235,103311.000,17594,3,PR,1,100,179475
1576864583.981704,103345.000,17594,3,PR,1,100,179413
1576864584.022967,103379.667,17612,3,PR,1,100,179372
1576864584.064229,103414.333,17612,3,PR,1,100,179363
1576864584.105492,103449.000,17612,3,PR,1,100,179408
1576864584.153103,103489.000,17629,2,PR,1,100,179439
1576864584.200714,103529.000,17629,2,PR,1,100,179458
1576864584.239993,103562.000,17647,4,PR,1,100,179475
1576864584.279271,103595.000,17647,4,PR,1,100,179409
1576864584.318550,103628.000,17647,4,PR,1,100,179374
1576864584.357829,103661.000,17647,4,PR,1,100,179352
1576864584.399488,103696.000,17663,2,PR,1,100,179393
1576864584.441148,103731.000,17663,2,PR,1,100,179454
1576864584.479832,103763.500,17681,4,PR,1,100,179466
1576864584.518515,103796.000,17681,4,PR,1,100,179473
1576864584.557199,103828.500,17681,4,PR,1,100,179446
1576864584.595883,103861.000,17681,4,PR,1,100,179454
1576864584.634368,103893.333,17700,3,PR,1,100,179444
1576864584.672853,103925.667,17700,3,PR,1,100,179464
1576864584.711339,103958.000,17700,3,PR,1,100,179534
1576864584.751808,103992.000,17718,3,PR,1,100,179589
1576864584.792277,104026.000,17718,3,PR,1,100,179566
1576864584.832746,104060.000,17718,3,PR,1,100,179548
1576864584.873215,104094.000,17736,3,PR,1,100,179554
1576864584.913685,104128.000,17736,3,PR,1,100,179566
1576864584.954154,104162.000,17736,3,PR,1,100,179586
1576864584.995813,104197.000,17754,3,PR,1,100,179599
1576864585.037472,104232.000,17754,3,PR,1,100,179625
1576864585.079132,104267.000,17754,3,PR,1,100,179630
1576864585.123767,104304.500,17772,2,PR,1,100,179657
1576864585.168402,104342.000,17772,2,PR,1,100,179672
1576864585.206193,104373.750,17789,4,PR,1,100,179682
1576864585.243984,104405.500,17789,4,PR,1,100,179693
1576864585.281775,104437.250,17789,4,PR,1,100,179723
1576864585.319566,104469.000,17789,4,PR,1,100,179778
1576864585.358052,104501.333,17807,3,PR,1,100,179767
1576864585.396537,104533.667,17807,3,PR,1,100,179785
1576864585.435022,104566.000,17807,3,PR,1,100,179793
1576864585.473111,104598.000,17825,3,PR,1,100,179815
1576864585.511199,104630.000,17825,3,PR,1,100,179774
1576864585.549288,104662.000,17825,3,PR,1,100,179651
1576864585.589757,104696.000,17842,3,PR,1,100,179543
1576864585.630226,104730.000,17842,3,PR,1,100,179508
1576864585.670696,104764.000,17842,3,PR,1,100,179520
1576864585.711958,104798.667,17860,3,PR,1,100,179515
1576864585.753221,104833.333,17860,3,PR,1,100,179479
1576864585.794483,104868.000,17860,3,PR,1,100,179476
1576864585.836143,104903.000,17878,3,PR,1,100,179482
1576864585.877802,104938.000,17878,3,PR,1,100,179494
1576864585.919462,104973.000,17878,3,PR,1,100,179480
1576864585.957550,105005.000,17896,3,PR,1,100,179480
1576864585.995639,105037.000,17896,3,PR,1,100,179520
1576864586.033727,105069.000,17896,3,PR,1,100,179513
1576864586.071419,105100.667,17914,3,PR,1,100,179514
1576864586.109111,105132.333,17914,3,PR,1,100,179505
1576864586.146803,105164.000,17914,3,PR,1,100,179526
1576864586.186875,105197.667,17932,3,PR,1,100,179525
1576864586.226948,105231.333,17932,3,PR,1,100,179525
1576864586.267020,105265.000,17932,3,PR,1,100,179533
1576864586.307886,105299.333,17950,3,PR,1,100,179550
1576864586.348752,105333.667,17950,3,PR,1,100,179552
1576864586.389618,105368.000,17950,3,PR,1,100,179561
1576864586.431277,105403.000,17968,3,PR,1,100,179563
1576864586.472937,105438.000,17968,3,PR,1,100,179572
1576864586.514596,105473.000,17968,3,PR,1,100,179596
1576864586.553875,105506.000,17985,3,PR,1,100,179577
1576864586.593154,105539.000,17985,3,PR,1,100,179586
1576864586.632432,105572.000,17985,3,PR,1,100,179562
1576864586.670124,105603.667,18004,3,PR,1,100,179621
1576864586.707816,105635.333,18004,3,PR,1,100,179673
1576864586.745508,105667.000,18004,3,PR,1,100,179707
1576864586.785184,105700.333,18022,3,PR,1,100,179722
1576864586.824859,105733.667,18022,3,PR,1,100,179675
1576864586.864535,105767.000,18022,3,PR,1,100,179665
1576864586.905401,105801.333,18038,3,PR,1,100,179671
1576864586.946267,105835.667,18038,3,PR,1,100,179703
1576864586.987133,105870.000,18038,3,PR,1,100,179755
1576864587.028395,105904.667,18056,3,PR,1,100,179784
1576864587.069658,105939.333,18056,3,PR,1,100,179804
1576864587.110920,105974.000,18056,3,PR,1,100,179776
1576864587.150993,106007.667,18074,3,PR,1,100,179775
1576864587.191065,106041.333,18074,3,PR,1,100,179691
1576864587.231138,106075.000,18074,3,PR,1,100,179566
1576864587.267639,106105.667,18092,3,PR,1,100,179489
1576864587.304141,106136.333,18092,3,PR,1,100,179473
1576864587.340642,106167.000,18092,3,PR,1,100,179475
1576864587.382302,106202.000,18110,3,PR,1,100,179459
1576864587.423961,106237.000,18110,3,PR,1,100,179438
1576864587.465621,106272.000,18110,3,PR,1,100,179433
1576864587.506090,106306.000,18128,3,PR,1,100,179436
1576864587.546559,106340.000,18128,3,PR,1,100,179429
1576864587.587028,106374.000,18128,3,PR,1,100,179398
1576864587.627894,106408.333,18147,3,PR,1,100,179412
1576864587.668760,106442.667,18147,3,PR,1,100,179428
1576864587.709626,106477.000,18147,3,PR,1,100,179435
1576864587.750095,106511.000,18164,3,PR,1,100,179448
1576864587.790564,106545.000,18164,3,PR,1,100,179465
1576864587.831033,106579.000,18164,3,PR,1,100,179460
1576864587.867535,106609.667,18182,3,PR,1,100,179474
1576864587.904036,106640.333,18182,3,PR,1,100,179464
1576864587.940538,106671.000,18182,3,PR,1,100,179462
1576864587.980213,106704.333,18200,3,PR,1,100,179481
1576864588.019889,106737.667,18200,3,PR,1,100,179481
1576864588.059565,106771.000,18200,3,PR,1,100,179495
1576864588.104001,106808.333,18216,3,PR,1,100,179499
1576864588.148438,106845.667,18216,3,PR,1,100,179506
1576864588.192875,106883.000,18216,3,PR,1,100,179518
1576864588.230963,106915.000,18234,3,PR,1,100,179520
1576864588.269052,106947.000,18234,3,PR,1,100,179533
1576864588.307141,106979.000,18234,3,PR,1,100,179556
1576864588.348800,107014.000,18252,3,PR,1,100,179580
1576864588.390459,107049.000,18252,3,PR,1,100,179593
1576864588.432119,107084.000,18252,3,PR,1,100,179594
1576864588.472588,107118.000,18270,3,PR,1,100,179533
1576864588.513057,107152.000,18270,3,PR,1,100,179394
1576864588.553526,107186.000,18270,3,PR,1,100,179333
1576864588.593995,107220.000,18289,3,PR,1,100,179322
1576864588.634465,107254.000,18289,3,PR,1,100,179295
1576864588.674933,107288.000,18289,3,PR,1,100,179263
1576864588.713022,107320.000,18307,3,PR,1,100,179235
1576864588.751111,107352.000,18307,3,PR,1,100,179241
1576864588.789199,107384.000,18307,3,PR,1,100,179239
1576864588.828081,107416.667,18325,3,PR,1,100,179218
1576864588.866964,107449.333,18325,3,PR,1,100,179207
1576864588.905846,107482.000,18325,3,PR,1,100,179223
1576864588.946553,107516.200,18345,5,PR,1,100,179193
1576864588.987260,107550.400,18345,5,PR,1,100,179212
1576864589.027967,107584.600,18345,5,PR,1,100,179262
1576864589.068674,107618.800,18345,5,PR,1,100,179296
1576864589.109382,107653.000,18345,5,PR,1,100,179308
1576864589.151041,107688.000,18365,2,PR,1,100,179344
1576864589.192700,107723.000,18365,2,PR,1,100,179300
1576864589.232277,107756.250,18383,4,PR,1,100,179283
1576864589.271853,107789.500,18383,4,PR,1,100,179276
1576864589.311430,107822.750,18383,4,PR,1,100,179321
1576864589.351006,107856.000,18383,4,PR,1,100,179380
1576864589.389095,107888.000,18401,3,PR,1,100,179401
1576864589.427183,107920.000,18401,3,PR,1,100,179426
1576864589.465272,107952.000,18401,3,PR,1,100,179428
1576864589.504551,107985.000,18419,3,PR,1,100,179414
1576864589.543830,108018.000,18419,3,PR,1,100,179421
1576864589.583108,108051.000,18419,3,PR,1,100,179426
1576864589.624371,108085.667,18438,3,PR,1,100,179451
1576864589.665634,108120.333,18438,3,PR,1,100,179473
1576864589.706897,108155.000,18438,3,PR,1,100,179477
1576864589.748556,108190.000,18455,3,PR,1,100,179498
1576864589.790215,108225.000,18455,3,PR,1,100,179499
1576864589.831875,108260.000,18455,3,PR,1,100,179524
1576864589.877700,108298.500,18473,2,PR,1,100,179539
1576864589.923525,108337.000,18473,2,PR,1,100,179552
1576864589.961316,108368.750,18489,4,PR,1,100,179552
1576864589.999107,108400.500,18489,4,PR,1,100,179541
1576864590.036898,108432.250,18489,4,PR,1,100,179596
1576864590.074689,108464.000,18489,4,PR,1,100,179604
1576864590.114762,108497.667,18507,3,PR,1,100,179613
1576864590.154834,108531.333,18507,3,PR,1,100,179642
1576864590.194906,108565.000,18507,3,PR,1,100,179649
1576864590.235772,108599.333,18525,3,PR,1,100,179670
1576864590.276638,108633.667,18525,3,PR,1,100,179615
1576864590.317504,108668.000,18525,3,PR,1,100,179456
1576864590.359164,108703.000,18543,2,PR,1,100,179381
1576864590.400823,108738.000,18543,2,PR,1,100,179352
1576864590.442086,108772.667,18561,3,PR,1,100,179336
1576864590.483348,108807.333,18561,3,PR,1,100,179312
1576864590.524611,108842.000,18561,3,PR,1,100,179267
1576864590.562402,108873.750,18580,4,PR,1,100,179259
1576864590.600193,108905.500,18580,4,PR,1,100,179264
1576864590.637984,108937.250,18580,4,PR,1,100,179246
1576864590.675775,108969.000,18580,4,PR,1,100,179235
1576864590.715451,109002.333,18598,3,PR,1,100,179225
1576864590.755126,109035.667,18598,3,PR,1,100,179189
1576864590.794802,109069.000,18598,3,PR,1,100,179194
1576864590.833287,109101.333,18616,3,PR,1,100,179243
1576864590.871773,109133.667,18616,3,PR,1,100,179268
1576864590.910258,109166.000,18616,3,PR,1,100,179268
1576864590.951917,109201.000,18633,3,PR,1,100,179289
1576864590.993577,109236.000,18633,3,PR,1,100,179259
1576864591.035236,109271.000,18633,3,PR,1,100,179259
1576864591.075309,109304.667,18651,3,PR,1,100,179194
1576864591.115381,109338.333,18651,3,PR,1,100,179259
1576864591.155453,109372.000,18651,3,PR,1,100,179333
1576864591.193145,109403.667,18667,3,PR,1,100,179345
1576864591.230837,109435.333,18667,3,PR,1,100,179399
1576864591.268529,109467.000,18667,3,PR,1,100,179368
1576864591.307014,109499.333,18685,3,PR,1,100,179355
1576864591.345500,109531.667,18685,3,PR,1,100,179356
1576864591.383985,109564.000,18685,3,PR,1,100,179372
1576864591.425644,109599.000,18703,3,PR,1,100,179392
1576864591.467304,109634.000,18703,3,PR,1,100,179410
1576864591.508963,109669.000,18703,3,PR,1,100,179430
1576864591.550226,109703.667,18722,3,PR,1,100,179448
1576864591.591488,109738.333,18722,3,PR,1,100,179453
1576864591.632751,109773.000,18722,3,PR,1,100,179463
1576864591.677981,109811.000,18740,2,PR,1,100,179494
1576864591.723212,109849.000,18740,2,PR,1,100,179505
1576864591.761300,109881.000,18758,4,PR,1,100,179527
1576864591.799389,109913.000,18758,4,PR,1,100,179508
1576864591.837477,109945.000,18758,4,PR,1,100,179535
1576864591.875566,109977.000,18758,4,PR,1,100,179574
1576864591.915638,110010.667,18776,3,PR,1,100,179578
1576864591.955711,110044.333,18776,3,PR,1,100,179502
1576864591.995783,110078.000,18776,3,PR,1,100,179385
1576864592.033078,110109.333,18793,3,PR,1,100,179304
1576864592.070373,110140.667,18793,3,PR,1,100,179298
1576864592.107668,110172.000,18793,3,PR,1,100,179302
1576864592.146947,110205.000,18811,3,PR,1,100,179287
1576864592.186226,110238.000,18811,3,PR,1,100,179278
1576864592.225505,110271.000,18811,3,PR,1,100,179266
1576864592.269545,110308.000,18829,3,PR,1,100,179278
1576864592.313585,110345.000,18829,3,PR,1,100,179281
1576864592.357625,110382.000,18829,3,PR,1,100,179277
1576864592.396110,110414.333,18847,3,PR,1,100,179250
1576864592.434595,110446.667,18847,3,PR,1,100,179247
1576864592.473081,110479.000,18847,3,PR,1,100,179269
1576864592.513550,110513.000,18863,3,PR,1,100,179307
1576864592.554019,110547.000,18863,3,PR,1,100,179284
1576864592.594488,110581.000,18863,3,PR,1,100,179298
1576864592.636147,110616.000,18882,3,PR,1,100,179298
1576864592.677807,110651.000,18882,3,PR,1,100,179301
1576864592.719466,110686.000,18882,3,PR,1,100,179322
1576864592.761721,110721.500,18900,2,PR,1,100,179337
1576864592.803975,110757.000,18900,2,PR,1,100,179349
1576864592.841767,110788.750,18918,4,PR,1,100,179369
1576864592.879558,110820.500,18918,4,PR,1,100,179380
1576864592.917349,110852.250,18918,4,PR,1,100,179403
1576864592.955140,110884.000,18918,4,PR,1,100,179408
1576864592.994815,110917.333,18936,3,PR,1,100,179429
1576864593.034491,110950.667,18936,3,PR,1,100,179441
1576864593.074167,110984.000,18936,3,PR,1,100,179449
1576864593.113842,111017.333,18954,3,PR,1,100,179484
1576864593.153518,111050.667,18954,3,PR,1,100,179500
1576864593.193193,111084.000,18954,3,PR,1,100,179528
1576864593.234853,111119.000,18971,3,PR,1,100,179535
1576864593.276512,111154.000,18971,3,PR,1,100,179540
1576864593.318172,111189.000,18971,3,PR,1,100,179547
1576864593.359434,111223.667,18989,3,PR,1,100,179584
1576864593.400697,111258.333,18989,3,PR,1,100,179588
1576864593.441959,111293.000,18989,3,PR,1,100,179589
1576864593.479651,111324.667,19005,3,PR,1,100,179612
1576864593.517343,111356.333,19005,3,PR,1,100,179630
1576864593.555035,111388.000,19005,3,PR,1,100,179644
1576864593.593520,111420.333,19024,3,PR,1,100,179582
1576864593.632006,111452.667,19024,3,PR,1,100,179458
1576864593.670491,111485.000,19024,3,PR,1,100,179363
1576864593.710167,111518.333,19042,3,PR,1,100,179327
1576864593.749842,111551.667,19042,3,PR,1,100,179325
1576864593.789518,111585.000,19042,3,PR,1,100,179299
1576864593.830781,111619.667,19060,3,PR,1,100,179237
1576864593.872043,111654.333,19060,3,PR,1,100,179217
1576864593.913306,111689.000,19060,3,PR,1,100,179286
1576864593.955759,111724.667,19078,3,PR,1,100,179314
1576864593.998212,111760.333,19078,3,PR,1,100,179303
1576864594.040665,111796.000,19078,3,PR,1,100,179317
1576864594.078357,111827.667,19096,3,PR,1,100,179253
1576864594.116048,111859.333,19096,3,PR,1,100,179240
1576864594.153740,111891.000,19096,3,PR,1,100,179233
1576864594.192622,111923.667,19114,3,PR,1,100,179271
1576864594.231504,111956.333,19114,3,PR,1,100,179325
1576864594.270386,111989.000,19114,3,PR,1,100,179349
1576864594.310459,112022.667,19132,3,PR,1,100,179350
1576864594.350531,112056.333,19132,3,PR,1,100,179354
1576864594.390604,112090.000,19132,3,PR,1,100,179310
1576864594.431866,112124.667,19150,3,PR,1,100,179328
1576864594.473129,112159.333,19150,3,PR,1,100,179328
1576864594.514391,112194.000,19150,3,PR,1,100,179342
1576864594.556448,112229.333,19167,3,PR,1,100,179362
1576864594.598504,112264.667,19167,3,PR,1,100,179369
1576864594.640560,112300.000,19167,3,PR,1,100,179390
1576864594.679045,112332.333,19186,3,PR,1,100,179392
1576864594.717531,112364.667,19186,3,PR,1,100,179404
1576864594.756016,112397.000,19186,3,PR,1,100,179431
1576864594.795295,112430.000,19202,3,PR,1,100,179420
1576864594.834574,112463.000,19202,3,PR,1,100,179451
1576864594.873853,112496.000,19202,3,PR,1,100,179450
1576864594.913925,112529.667,19220,3,PR,1,100,179467
1576864594.953997,112563.333,19220,3,PR,1,100,179493
1576864594.994070,112597.000,19220,3,PR,1,100,179522
1576864595.035134,112631.500,19241,4,PR,1,100,179532
1576864595.076198,112666.000,19241,4,PR,1,100,179554
1576864595.117263,112700.500,19241,4,PR,1,100,179559
1576864595.158327,112735.000,19241,4,PR,1,100,179580
1576864595.199589,112769.667,19261,3,PR,1,100,179586
1576864595.240852,112804.333,19261,3,PR,1,100,179570
1576864595.282115,112839.000,19261,3,PR,1,100,179457
1576864595.320203,112871.000,19279,4,PR,1,100,179366
1576864595.358292,112903.000,19279,4,PR,1,100,179331
1576864595.396381,112935.000,19279,4,PR,1,100,179343
1576864595.434469,112967.000,19279,4,PR,1,100,179321
1576864595.472558,112999.000,19297,3,PR,1,100,179298
1576864595.510646,113031.000,19297,3,PR,1,100,179286
1576864595.548735,113063.000,19297,3,PR,1,100,179291
1576864595.590990,113098.500,19314,2,PR,1,100,179288
1576864595.633244,113134.000,19314,2,PR,1,100,179279
1576864595.678077,113171.667,19332,3,PR,1,100,179263
1576864595.722911,113209.333,19332,3,PR,1,100,179258
1576864595.767744,113247.000,19332,3,PR,1,100,179235
1576864595.806230,113279.333,19350,3,PR,1,100,179292
1576864595.844715,113311.667,19350,3,PR,1,100,179343
1576864595.883200,113344.000,19350,3,PR,1,100,179348
1576864595.924463,113378.667,19368,3,PR,1,100,179313
1576864595.965726,113413.333,19368,3,PR,1,100,179343
1576864596.006988,113448.000,19368,3,PR,1,100,179362
1576864596.049045,113483.333,19386,3,PR,1,100,179359
1576864596.091101,113518.667,19386,3,PR,1,100,179371
1576864596.133157,113554.000,19386,3,PR,1,100,179367
1576864596.171642,113586.333,19403,3,PR,1,100,179385
1576864596.210128,113618.667,19403,3,PR,1,100,179396
1576864596.248613,113651.000,19403,3,PR,1,100,179400
1576864596.286305,113682.667,19421,3,PR,1,100,179420
1576864596.323997,113714.333,19421,3,PR,1,100,179437
1576864596.361688,113746.000,19421,3,PR,1,100,179399
1576864596.402158,113780.000,19439,3,PR,1,100,179432
1576864596.442627,113814.000,19439,3,PR,1,100,179500
1576864596.483096,113848.000,19439,3,PR,1,100,179541
1576864596.524359,113882.667,19457,3,PR,1,100,179566
1576864596.565621,113917.333,19457,3,PR,1,100,179588
1576864596.606884,113952.000,19457,3,PR,1,100,179550
1576864596.648543,113987.000,19474,3,PR,1,100,179536
1576864596.690202,114022.000,19474,3,PR,1,100,179528
1576864596.731862,114057.000,19474,3,PR,1,100,179608
1576864596.771141,114090.000,19492,3,PR,1,100,179649
1576864596.810420,114123.000,19492,3,PR,1,100,179673
1576864596.849699,114156.000,19492,3,PR,1,100,179718
1576864596.887390,114187.667,19510,3,PR,1,100,179667
1576864596.925082,114219.333,19510,3,PR,1,100,179538
1576864596.962774,114251.000,19510,3,PR,1,100,179409
1576864597.002450,114284.333,19528,3,PR,1,100,179374
1576864597.042125,114317.667,19528,3,PR,1,100,179373
1576864597.081801,114351.000,19528,3,PR,1,100,179364
1576864597.122270,114385.000,19546,3,PR,1,100,179340
1576864597.162739,114419.000,19546,3,PR,1,100,179316
1576864597.203208,114453.000,19546,3,PR,1,100,179325
1576864597.248439,114491.000,19564,3,PR,1,100,179339
1576864597.293669,114529.000,19564,3,PR,1,100,179341
1576864597.338899,114567.000,19564,3,PR,1,100,179317
1576864597.378575,114600.333,19582,3,PR,1,100,179307
1576864597.418250,114633.667,19582,3,PR,1,100,179284
1576864597.457926,114667.000,19582,3,PR,1,100,179321
1576864597.495618,114698.667,19599,3,PR,1,100,179345
1576864597.533309,114730.333,19599,3,PR,1,100,179347
1576864597.571001,114762.000,19599,3,PR,1,100,179358
1576864597.610280,114795.000,19618,3,PR,1,100,179365
1576864597.649559,114828.000,19618,3,PR,1,100,179374
1576864597.688838,114861.000,19618,3,PR,1,100,179384
1576864597.730101,114895.667,19636,3,PR,1,100,179361
1576864597.771363,114930.333,19636,3,PR,1,100,179392
1576864597.812626,114965.000,19636,3,PR,1,100,179416
1576864597.853492,114999.333,19652,3,PR,1,100,179415
1576864597.894358,115033.667,19652,3,PR,1,100,179429
1576864597.935224,115068.000,19652,3,PR,1,100,179455
1576864597.975693,115102.000,19670,3,PR,1,100,179446
1576864598.016162,115136.000,19670,3,PR,1,100,179467
1576864598.056631,115170.000,19670,3,PR,1,100,179466
1576864598.093926,115201.333,19688,3,PR,1,100,179481
1576864598.131221,115232.667,19688,3,PR,1,100,179494
1576864598.168516,115264.000,19688,3,PR,1,100,179481
1576864598.207795,115297.000,19706,3,PR,1,100,179492
1576864598.247074,115330.000,19706,3,PR,1,100,179524
1576864598.286353,115363.000,19706,3,PR,1,100,179596
1576864598.327219,115397.333,19724,3,PR,1,100,179594
1576864598.368085,115431.667,19724,3,PR,1,100,179638
1576864598.408951,115466.000,19724,3,PR,1,100,179637
1576864598.447436,115498.333,19742,3,PR,1,100,179614
1576864598.485921,115530.667,19742,3,PR,1,100,179623
1576864598.524407,115563.000,19742,3,PR,1,100,179620
1576864598.565669,115597.667,19761,3,PR,1,100,179519
1576864598.606932,115632.333,19761,3,PR,1,100,179446
1576864598.648195,115667.000,19761,3,PR,1,100,179418
1576864598.685390,115698.250,19779,4,PR,1,100,179435
1576864598.722586,115729.500,19779,4,PR,1,100,179419
1576864598.759782,115760.750,19779,4,PR,1,100,179404
1576864598.796978,115792.000,19779,4,PR,1,100,179365
1576864598.836654,115825.333,19796,3,PR,1,100,179359
1576864598.876329,115858.667,19796,3,PR,1,100,179366
1576864598.916005,115892.000,19796,3,PR,1,100,179364
1576864598.957664,115927.000,19814,3,PR,1,100,179355
1576864598.999324,115962.000,19814,3,PR,1,100,179365
1576864599.040983,115997.000,19814,3,PR,1,100,179366
1576864599.081452,116031.000,19832,2,PR,1,100,179377
1576864599.121922,116065.000,19832,2,PR,1,100,179397
1576864599.167152,116103.000,19848,3,PR,1,100,179399
1576864599.212382,116141.000,19848,3,PR,1,100,179394
1576864599.257612,116179.000,19848,3,PR,1,100,179416
1576864599.295304,116210.667,19866,3,PR,1,100,179415
1576864599.332996,116242.333,19866,3,PR,1,100,179437
1576864599.370687,116274.000,19866,3,PR,1,100,179459
1576864599.406693,116304.250,19884,4,PR,1,100,179479
1576864599.442699,116334.500,19884,4,PR,1,100,179494
1576864599.478704,116364.750,19884,4,PR,1,100,179505
1576864599.514710,116395.000,19884,4,PR,1,100,179504
1576864599.553195,116427.333,19903,3,PR,1,100,179520
1576864599.591681,116459.667,19903,3,PR,1,100,179530
1576864599.630166,116492.000,19903,3,PR,1,100,179545
1576864599.668652,116524.333,19921,3,PR,1,100,179557
1576864599.707137,116556.667,19921,3,PR,1,100,179578
1576864599.745622,116589.000,19921,3,PR,1,100,179596
1576864599.787282,116624.000,19939,3,PR,1,100,179609
1576864599.828941,116659.000,19939,3,PR,1,100,179638
1576864599.870600,116694.000,19939,3,PR,1,100,179631
1576864599.910276,116727.333,19957,3,PR,1,100,179687
1576864599.949952,116760.667,19957,3,PR,1,100,179741
1576864599.989627,116794.000,19957,3,PR,1,100,179705
1576864600.030890,116828.667,19975,3,PR,1,100,179713
1576864600.072153,116863.333,19975,3,PR,1,100,179724
1576864600.113415,116898.000,19975,3,PR,1,100,179740
1576864600.155075,116933.000,19992,3,PR,1,100,179724
1576864600.196734,116968.000,19992,3,PR,1,100,179612
1576864600.238393,117003.000,19992,3,PR,1,100,179508
1576864600.278069,117036.333,20010,3,PR,1,100,179458
1576864600.317745,117069.667,20010,3,PR,1,100,179449
1576864600.357420,117103.000,20010,3,PR,1,100,179448
1576864600.395509,117135.000,20026,3,PR,1,100,179425
1576864600.433598,117167.000,20026,3,PR,1,100,179410
1576864600.471686,117199.000,20026,3,PR,1,100,179402
1576864600.510965,117232.000,20044,3,PR,1,100,179391
1576864600.550244,117265.000,20044,3,PR,1,100,179388
1576864600.589523,117298.000,20044,3,PR,1,100,179386
1576864600.630388,117332.333,20063,3,PR,1,100,179412
1576864600.671254,117366.667,20063,3,PR,1,100,179420
1576864600.712120,117401.000,20063,3,PR,1,100,179425
1576864600.753383,117435.667,20081,3,PR,1,100,179439
1576864600.794646,117470.333,20081,3,PR,1,100,179435
1576864600.835908,117505.000,20081,3,PR,1,100,179452
1576864600.876377,117539.000,20099,3,PR,1,100,179455
1576864600.916847,117573.000,20099,3,PR,1,100,179448
1576864600.957316,117607.000,20099,3,PR,1,100,179465
1576864600.995008,117638.667,20117,3,PR,1,100,179489
1576864601.032699,117670.333,20117,3,PR,1,100,179489
1576864601.070391,117702.000,20117,3,PR,1,100,179496
1576864601.109670,117735.000,20138,5,PR,1,100,179507
1576864601.148949,117768.000,20138,5,PR,1,100,179524
1576864601.188228,117801.000,20138,5,PR,1,100,179535
1576864601.227507,117834.000,20138,5,PR,1,100,179538
1576864601.266786,117867.000,20138,5,PR,1,100,179552
1576864601.307652,117901.333,20158,3,PR,1,100,179576
1576864601.348517,117935.667,20158,3,PR,1,100,179546
1576864601.389383,117970.000,20158,3,PR,1,100,179556
1576864601.431043,118005.000,20176,3,PR,1,100,179563
1576864601.472702,118040.000,20176,3,PR,1,100,179635
1576864601.514361,118075.000,20176,3,PR,1,100,179677
1576864601.553244,118107.667,20194,3,PR,1,100,179710
1576864601.592126,118140.333,20194,3,PR,1,100,179712
1576864601.631008,118173.000,20194,3,PR,1,100,179689
1576864601.669096,118205.000,20213,3,PR,1,100,179669
1576864601.707185,118237.000,20213,3,PR,1,100,179679
1576864601.745274,118269.000,20213,3,PR,1,100,179706
1576864601.785743,118303.000,20231,3,PR,1,100,179758
1576864601.826212,118337.000,20231,3,PR,1,100,179819
1576864601.866681,118371.000,20231,3,PR,1,100,179754
1576864601.908340,118406.000,20249,3,PR,1,100,179605
1576864601.950000,118441.000,20249,3,PR,1,100,179530
1576864601.991659,118476.000,20249,3,PR,1,100,179501
1576864602.032723,118510.500,20266,2,PR,1,100,179498
1576864602.073788,118545.000,20266,2,PR,1,100,179478
1576864602.113959,118578.750,20284,4,PR,1,100,179478
1576864602.154131,118612.500,20284,4,PR,1,100,179477
1576864602.194302,118646.250,20284,4,PR,1,100,179477
1576864602.234474,118680.000,20284,4,PR,1,100,179479
1576864602.271967,118711.500,20301,2,PR,1,100,179476
1576864602.309461,118743.000,20301,2,PR,1,100,179482
1576864602.349633,118776.750,20318,4,PR,1,100,179500
1576864602.389804,118810.500,20318,4,PR,1,100,179493
1576864602.429976,118844.250,20318,4,PR,1,100,179492
1576864602.470147,118878.000,20318,4,PR,1,100,179497
1576864602.511013,118912.333,20336,3,PR,1,100,179510
1576864602.551879,118946.667,20336,3,PR,1,100,179558
1576864602.592745,118981.000,20336,3,PR,1,100,179563
1576864602.633611,119015.333,20355,3,PR,1,100,179577
1576864602.674477,119049.667,20355,3,PR,1,100,179579
1576864602.715343,119084.000,20355,3,PR,1,100,179583
1576864602.755018,119117.333,20373,3,PR,1,100,179593
1576864602.794694,119150.667,20373,3,PR,1,100,179607
1576864602.834369,119184.000,20373,3,PR,1,100,179617
1576864602.871268,119215.000,20391,3,PR,1,100,179640
1576864602.908166,119246.000,20391,3,PR,1,100,179668
1576864602.945064,119277.000,20391,3,PR,1,100,179663
1576864602.985533,119311.000,20409,3,PR,1,100,179692
1576864603.026003,119345.000,20409,3,PR,1,100,179697
1576864603.066472,119379.000,20409,3,PR,1,100,179707
1576864603.106941,119413.000,20427,3,PR,1,100,179720
1576864603.147410,119447.000,20427,3,PR,1,100,179733
1576864603.187879,119481.000,20427,3,PR,1,100,179765
1576864603.234300,119520.000,20445,2,PR,1,100,179748
1576864603.280720,119559.000,20445,2,PR,1,100,179762
1576864603.322380,119594.000,20462,3,PR,1,100,179761
1576864603.364039,119629.000,20462,3,PR,1,100,179793
1576864603.405698,119664.000,20462,3,PR,1,100,179864
1576864603.443787,119696.000,20480,4,PR,1,100,179866
1576864603.481875,119728.000,20480,4,PR,1,100,179775
1576864603.519964,119760.000,20480,4,PR,1,100,179619
1576864603.558053,119792.000,20480,4,PR,1,100,179572
1576864603.598125,119825.667,20497,3,PR,1,100,179582
1576864603.638197,119859.333,20497,3,PR,1,100,179564
1576864603.678270,119893.000,20497,3,PR,1,100,179536
1576864603.716755,119925.333,20515,3,PR,1,100,179511
1576864603.755240,119957.667,20515,3,PR,1,100,179514
1576864603.793726,119990.000,20515,3,PR,1,100,179520
1576864603.833005,120023.000,20533,3,PR,1,100,179496
1576864603.872284,120056.000,20533,3,PR,1,100,179494
1576864603.911562,120089.000,20533,3,PR,1,100,179499
1576864603.952825,120123.667,20551,3,PR,1,100,179449
1576864603.994088,120158.333,20551,3,PR,1,100,179476
1576864604.035350,120193.000,20551,3,PR,1,100,179524
1576864604.076216,120227.333,20569,3,PR,1,100,179567
1576864604.117082,120261.667,20569,3,PR,1,100,179573
1576864604.157948,120296.000,20569,3,PR,1,100,179585
1576864604.200203,120331.500,20587,2,PR,1,100,179539
1576864604.242457,120367.000,20587,2,PR,1,100,179525
1576864604.280248,120398.750,20605,4,PR,1,100,179511
1576864604.318039,120430.500,20605,4,PR,1,100,179593
1576864604.355830,120462.250,20605,4,PR,1,100,179635
1576864604.393621,120494.000,20605,4,PR,1,100,179650
1576864604.432503,120526.667,20622,3,PR,1,100,179683
1576864604.471385,120559.333,20622,3,PR,1,100,179655
1576864604.510267,120592.000,20622,3,PR,1,100,179658
1576864604.550737,120626.000,20641,3,PR,1,100,179659
1576864604.591206,120660.000,20641,3,PR,1,100,179663
1576864604.631675,120694.000,20641,3,PR,1,100,179687
1576864604.672541,120728.333,20659,3,PR,1,100,179705
1576864604.713407,120762.667,20659,3,PR,1,100,179726
1576864604.754273,120797.000,20659,3,PR,1,100,179736
1576864604.796527,120832.500,20675,2,PR,1,100,179739
1576864604.838782,120868.000,20675,2,PR,1,100,179763
1576864604.881235,120903.667,20693,3,PR,1,100,179781
1576864604.923687,120939.333,20693,3,PR,1,100,179795
1576864604.966141,120975.000,20693,3,PR,1,100,179797
1576864605.004229,121007.000,20711,4,PR,1,100,179792
1576864605.042318,121039.000,20711,4,PR,1,100,179832
1576864605.080406,121071.000,20711,4,PR,1,100,179773
1576864605.118495,121103.000,20711,4,PR,1,100,179656
1576864605.158964,121137.000,20729,3,PR,1,100,179599
1576864605.199433,121171.000,20729,3,PR,1,100,179593
1576864605.239902,121205.000,20729,3,PR,1,100,179587
1576864605.280371,121239.000,20747,2,PR,1,100,179569
1576864605.320841,121273.000,20747,2,PR,1,100,179542
1576864605.362897,121308.333,20765,3,PR,1,100,179562
1576864605.404953,121343.667,20765,3,PR,1,100,179570
1576864605.447009,121379.000,20765,3,PR,1,100,179559
1576864605.485693,121411.500,20783,4,PR,1,100,179554
1576864605.524376,121444.000,20783,4,PR,1,100,179564
1576864605.563060,121476.500,20783,4,PR,1,100,179553
1576864605.601744,121509.000,20783,4,PR,1,100,179558
1576864605.640229,121541.333,20802,3,PR,1,100,179562
1576864605.678715,121573.667,20802,3,PR,1,100,179571
1576864605.717200,121606.000,20802,3,PR,1,100,179579
1576864605.758066,121640.333,20819,3,PR,1,100,179558
1576864605.798932,121674.667,20819,3,PR,1,100,179552
1576864605.839798,121709.000,20819,3,PR,1,100,179557
1576864605.880664,121743.333,20837,3,PR,1,100,179633
1576864605.921530,121777.667,20837,3,PR,1,100,179645
1576864605.962395,121812.000,20837,3,PR,1,100,179693
1576864606.004055,121847.000,20853,2,PR,1,100,179687
1576864606.045714,121882.000,20853,2,PR,1,100,179663
1576864606.082910,121913.250,20871,4,PR,1,100,179659
1576864606.120106,121944.500,20871,4,PR,1,100,179655
1576864606.157302,121975.750,20871,4,PR,1,100,179704
1576864606.194498,122007.000,20871,4,PR,1,100,179752
1576864606.231793,122038.333,20889,3,PR,1,100,179771
1576864606.269088,122069.667,20889,3,PR,1,100,179812
1576864606.306383,122101.000,20889,3,PR,1,100,179770
1576864606.347249,122135.333,20907,3,PR,1,100,179778
1576864606.388115,122169.667,20907,3,PR,1,100,179790
1576864606.428981,122204.000,20907,3,PR,1,100,179789
1576864606.469846,122238.333,20925,3,PR,1,100,179817
1576864606.510712,122272.667,20925,3,PR,1,100,179834
1576864606.551578,122307.000,20925,3,PR,1,100,179855
1576864606.592841,122341.667,20944,3,PR,1,100,179875
1576864606.634104,122376.333,20944,3,PR,1,100,179885
1576864606.675366,122411.000,20944,3,PR,1,100,179898
1576864606.717819,122446.667,20962,3,PR,1,100,179896
1576864606.760272,122482.333,20962,3,PR,1,100,179799
1576864606.802725,122518.000,20962,3,PR,1,100,179663
1576864606.840417,122549.667,20980,3,PR,1,100,179607
1576864606.878109,122581.333,20980,3,PR,1,100,179601
1576864606.915801,122613.000,20980,3,PR,1,100,179607
1576864606.956666,122647.333,20997,3,PR,1,100,179580
1576864606.997532,122681.667,20997,3,PR,1,100,179593
1576864607.038398,122716.000,20997,3,PR,1,100,179588
1576864607.072916,122745.000,21015,3,PR,1,100,179598
1576864607.107434,122774.000,21015,3,PR,1,100,179566
1576864607.141952,122803.000,21015,3,PR,1,100,179563
1576864607.185694,122839.750,21036,4,PR,1,100,179560
1576864607.229436,122876.500,21036,4,PR,1,100,179554
1576864607.273179,122913.250,21036,4,PR,1,100,179566
1576864607.316921,122950.000,21036,4,PR,1,100,179585
1576864607.355902,122982.750,21056,4,PR,1,100,179597
1576864607.394884,123015.500,21056,4,PR,1,100,179582
1576864607.433865,123048.250,21056,4,PR,1,100,179585
1576864607.472846,123081.000,21056,4,PR,1,100,179626
1576864607.513315,123115.000,21074,2,PR,1,100,179626
1576864607.553785,123149.000,21074,2,PR,1,100,179625
1576864607.595444,123184.000,21092,3,PR,1,100,179630
1576864607.637103,123219.000,21092,3,PR,1,100,179633
1576864607.678763,123254.000,21092,3,PR,1,100,179656
1576864607.720422,123289.000,21110,3,PR,1,100,179678
1576864607.762082,123324.000,21110,3,PR,1,100,179685
1576864607.803741,123359.000,21110,3,PR,1,100,179697
1576864607.841532,123390.750,21126,4,PR,1,100,179703
1576864607.879323,123422.500,21126,4,PR,1,100,179714
1576864607.917114,123454.250,21126,4,PR,1,100,179742
1576864607.954905,123486.000,21126,4,PR,1,100,179750
1576864607.994977,123519.667,21144,3,PR,1,100,179752
1576864608.035050,123553.333,21144,3,PR,1,100,179781
1576864608.075122,123587.000,21144,3,PR,1,100,179778
1576864608.114996,123620.500,21162,2,PR,1,100,179805
1576864608.154870,123654.000,21162,2,PR,1,100,179825
1576864608.196530,123689.000,21180,3,PR,1,100,179859
1576864608.238189,123724.000,21180,3,PR,1,100,179875
1576864608.279848,123759.000,21180,3,PR,1,100,179883
1576864608.321508,123794.000,21198,3,PR,1,100,179888
1576864608.363167,123829.000,21198,3,PR,1,100,179903
1576864608.404827,123864.000,21198,3,PR,1,100,179881
1576864608.442618,123895.750,21216,4,PR,1,100,179804
1576864608.480409,123927.500,21216,4,PR,1,100,179676
1576864608.518200,123959.250,21216,4,PR,1,100,179635
1576864608.555991,123991.000,21216,4,PR,1,100,179617
1576864608.594873,124023.667,21235,3,PR,1,100,179624
1576864608.633755,124056.333,21235,3,PR,1,100,179601
1576864608.672637,124089.000,21235,3,PR,1,100,179588
1576864608.712313,124122.333,21253,3,PR,1,100,179571
1576864608.751988,124155.667,21253,3,PR,1,100,179586
1576864608.791664,124189.000,21253,3,PR,1,100,179575
1576864608.832927,124223.667,21270,3,PR,1,100,179562
1576864608.874189,124258.333,21270,3,PR,1,100,179538
1576864608.915452,124293.000,21270,3,PR,1,100,179582
1576864608.957111,124328.000,21288,2,PR,1,100,179622
1576864608.998771,124363.000,21288,2,PR,1,100,179640
1576864609.037454,124395.500,21304,4,PR,1,100,179675
1576864609.076138,124428.000,21304,4,PR,1,100,179682
1576864609.114822,124460.500,21304,4,PR,1,100,179625
1576864609.153506,124493.000,21304,4,PR,1,100,179596
1576864609.192785,124526.000,21322,3,PR,1,100,179604
1576864609.232063,124559.000,21322,3,PR,1,100,179649
1576864609.271342,124592.000,21322,3,PR,1,100,179695
1576864609.311811,124626.000,21340,3,PR,1,100,179720
1576864609.352280,124660.000,21340,3,PR,1,100,179766
1576864609.392750,124694.000,21340,3,PR,1,100,179733
1576864609.434012,124728.667,21358,3,PR,1,100,179724
1576864609.475275,124763.333,21358,3,PR,1,100,179732
1576864609.516537,124798.000,21358,3,PR,1,100,179742
1576864609.558792,124833.500,21376,2,PR,1,100,179753
1576864609.601047,124869.000,21376,2,PR,1,100,179772
1576864609.640028,124901.750,21395,4,PR,1,100,179786
1576864609.679009,124934.500,21395,4,PR,1,100,179795
1576864609.717990,124967.250,21395,4,PR,1,100,179803
1576864609.756972,125000.000,21395,4,PR,1,100,179819
1576864609.801607,125037.500,21413,2,PR,1,100,179841
1576864609.846242,125075.000,21413,2,PR,1,100,179863
1576864609.885521,125108.000,21431,3,PR,1,100,179851
1576864609.924800,125141.000,21431,3,PR,1,100,179767
1576864609.964078,125174.000,21431,3,PR,1,100,179640
1576864610.003060,125206.750,21448,4,PR,1,100,179578
1576864610.042041,125239.500,21448,4,PR,1,100,179600
1576864610.081023,125272.250,21448,4,PR,1,100,179590
1576864610.120004,125305.000,21448,4,PR,1,100,179548
1576864610.161663,125340.000,21466,2,PR,1,100,179561
1576864610.203323,125375.000,21466,2,PR,1,100,179545
1576864610.242006,125407.500,21482,4,PR,1,100,179542
1576864610.280690,125440.000,21482,4,PR,1,100,179547
1576864610.319374,125472.500,21482,4,PR,1,100,179531
1576864610.358057,125505.000,21482,4,PR,1,100,179522
1576864610.396543,125537.333,21500,3,PR,1,100,179533
1576864610.435028,125569.667,21500,3,PR,1,100,179538
1576864610.473514,125602.000,21500,3,PR,1,100,179547
1576864610.513189,125635.333,21518,3,PR,1,100,179546
1576864610.552865,125668.667,21518,3,PR,1,100,179559
1576864610.592540,125702.000,21518,3,PR,1,100,179561
1576864610.633803,125736.667,21537,3,PR,1,100,179562
1576864610.675066,125771.333,21537,3,PR,1,100,179558
1576864610.716328,125806.000,21537,3,PR,1,100,179579
1576864610.757591,125840.667,21555,3,PR,1,100,179556
1576864610.798854,125875.333,21555,3,PR,1,100,179579
1576864610.840116,125910.000,21555,3,PR,1,100,179566
1576864610.885346,125948.000,21573,2,PR,1,100,179639
1576864610.930577,125986.000,21573,2,PR,1,100,179673
1576864610.967475,126017.000,21591,4,PR,1,100,179691
1576864611.004373,126048.000,21591,4,PR,1,100,179705
1576864611.041272,126079.000,21591,4,PR,1,100,179670
1576864611.078170,126110.000,21591,4,PR,1,100,179653
1576864611.116259,126142.000,21609,3,PR,1,100,179698
1576864611.154347,126174.000,21609,3,PR,1,100,179714
1576864611.192436,126206.000,21609,3,PR,1,100,179729
1576864611.230128,126237.667,21627,3,PR,1,100,179732
1576864611.267819,126269.333,21627,3,PR,1,100,179740
1576864611.305511,126301.000,21627,3,PR,1,100,179756
1576864611.345980,126335.000,21644,3,PR,1,100,179761
1576864611.386450,126369.000,21644,3,PR,1,100,179766
1576864611.426919,126403.000,21644,3,PR,1,100,179763
1576864611.467785,126437.333,21662,3,PR,1,100,179769
1576864611.508651,126471.667,21662,3,PR,1,100,179825
1576864611.549516,126506.000,21662,3,PR,1,100,179835
1576864611.591176,126541.000,21679,3,PR,1,100,179736
1576864611.632835,126576.000,21679,3,PR,1,100,179651
1576864611.674495,126611.000,21679,3,PR,1,100,179534
1576864611.714567,126644.667,21697,3,PR,1,100,179512
1576864611.754639,126678.333,21697,3,PR,1,100,179470
1576864611.794712,126712.000,21697,3,PR,1,100,179464
1576864611.832800,126744.000,21715,3,PR,1,100,179520
1576864611.870889,126776.000,21715,3,PR,1,100,179545
1576864611.908978,126808.000,21715,3,PR,1,100,179549
1576864611.949050,126841.667,21733,3,PR,1,100,179538
1576864611.989122,126875.333,21733,3,PR,1,100,179481
1576864612.029195,126909.000,21733,3,PR,1,100,179483
1576864612.069664,126943.000,21751,3,PR,1,100,179480
1576864612.110133,126977.000,21751,3,PR,1,100,179484
1576864612.150602,127011.000,21751,3,PR,1,100,179500
1576864612.191865,127045.667,21769,3,PR,1,100,179515
1576864612.233127,127080.333,21769,3,PR,1,100,179523
1576864612.274390,127115.000,21769,3,PR,1,100,179519
1576864612.317240,127151.000,21787,2,PR,1,100,179521
1576864612.360089,127187.000,21787,2,PR,1,100,179547
1576864612.400261,127220.750,21804,4,PR,1,100,179542
1576864612.440433,127254.500,21804,4,PR,1,100,179564
1576864612.480604,127288.250,21804,4,PR,1,100,179577
1576864612.520776,127322.000,21804,4,PR,1,100,179594
1576864612.560451,127355.333,21823,3,PR,1,100,179597
1576864612.600127,127388.667,21823,3,PR,1,100,179613
1576864612.639802,127422.000,21823,3,PR,1,100,179636
1576864612.680272,127456.000,21841,3,PR,1,100,179658
1576864612.720741,127490.000,21841,3,PR,1,100,179660
1576864612.761210,127524.000,21841,3,PR,1,100,179685
1576864612.801679,127558.000,21857,3,PR,1,100,179675
1576864612.842148,127592.000,21857,3,PR,1,100,179596
1576864612.882617,127626.000,21857,3,PR,1,100,179492
1576864612.924277,127661.000,21875,2,PR,1,100,179422
1576864612.965936,127696.000,21875,2,PR,1,100,179418
1576864613.004025,127728.000,21893,4,PR,1,100,179417
1576864613.042113,127760.000,21893,4,PR,1,100,179362
1576864613.080202,127792.000,21893,4,PR,1,100,179336
1576864613.118290,127824.000,21893,4,PR,1,100,179348
1576864613.157569,127857.000,21911,3,PR,1,100,179340
1576864613.196848,127890.000,21911,3,PR,1,100,179331
1576864613.236127,127923.000,21911,3,PR,1,100,179308
1576864613.276894,127957.250,21932,4,PR,1,100,179308
1576864613.317660,127991.500,21932,4,PR,1,100,179313
1576864613.358427,128025.750,21932,4,PR,1,100,179292
1576864613.399194,128060.000,21932,4,PR,1,100,179300
1576864613.440060,128094.333,21952,3,PR,1,100,179344
1576864613.480926,128128.667,21952,3,PR,1,100,179382
1576864613.521791,128163.000,21952,3,PR,1,100,179378
1576864613.562657,128197.333,21969,3,PR,1,100,179428
1576864613.603523,128231.667,21969,3,PR,1,100,179407
1576864613.644389,128266.000,21969,3,PR,1,100,179367
1576864613.680097,128296.000,21987,4,PR,1,100,179359
1576864613.715805,128326.000,21987,4,PR,1,100,179382
1576864613.751513,128356.000,21987,4,PR,1,100,179428
1576864613.787221,128386.000,21987,4,PR,1,100,179469
