EpochTimestamp,EmotiBitTimestamp,PacketNumber,DataLength,TypeTag,ProtocolVersion,DataReliability,AY
1574950477.048223,14348.000,1828,8,AY,1,100,0.782
1574950477.048223,14348.000,1828,8,AY,1,100,0.768
1574950477.048223,14348.000,1828,8,AY,1,100,0.774
1574950477.048223,14348.000,1828,8,AY,1,100,0.775
1574950477.048223,14348.000,1828,8,AY,1,100,0.776
1574950477.048223,14348.000,1828,8,AY,1,100,0.776
1574950477.048223,14348.000,1828,8,AY,1,100,0.775
1574950477.048223,14348.000,1828,8,AY,1,100,0.776
1574950477.088273,14381.667,1846,3,AY,1,100,0.776
1574950477.128323,14415.333,1846,3,AY,1,100,0.776
1574950477.168373,14449.000,1846,3,AY,1,100,0.774
1574950477.213181,14486.667,1864,3,AY,1,100,0.776
1574950477.257989,14524.333,1864,3,AY,1,100,0.776
1574950477.302797,14562.000,1864,3,AY,1,100,0.777
1574950477.341261,14594.333,1882,3,AY,1,100,0.775
1574950477.379725,14626.667,1882,3,AY,1,100,0.775
1574950477.418188,14659.000,1882,3,AY,1,100,0.777
1574950477.459229,14693.500,1899,2,AY,1,100,0.777
1574950477.500270,14728.000,1899,2,AY,1,100,0.776
1574950477.542204,14763.250,1918,4,AY,1,100,0.776
1574950477.584137,14798.500,1918,4,AY,1,100,0.776
1574950477.626070,14833.750,1918,4,AY,1,100,0.776
1574950477.668004,14869.000,1918,4,AY,1,100,0.775
1574950477.709243,14903.667,1934,3,AY,1,100,0.774
1574950477.750483,14938.333,1934,3,AY,1,100,0.781
1574950477.791722,14973.000,1934,3,AY,1,100,0.775
1574950477.838116,15012.000,1952,2,AY,1,100,0.775
1574950477.884511,15051.000,1952,2,AY,1,100,0.778
1574950477.923371,15083.667,1970,3,AY,1,100,0.777
1574950477.962231,15116.333,1970,3,AY,1,100,0.776
1574950478.001091,15149.000,1970,3,AY,1,100,0.775
1574950478.043124,15184.333,1988,3,AY,1,100,0.776
1574950478.085156,15219.667,1988,3,AY,1,100,0.778
1574950478.127189,15255.000,1988,3,AY,1,100,0.777
1574950478.165652,15287.333,2006,3,AY,1,100,0.779
1574950478.204116,15319.667,2006,3,AY,1,100,0.776
1574950478.242580,15352.000,2006,3,AY,1,100,0.777
1574950478.281043,15384.333,2024,3,AY,1,100,0.777
1574950478.319507,15416.667,2024,3,AY,1,100,0.779
1574950478.357971,15449.000,2024,3,AY,1,100,0.777
1574950478.398417,15483.000,2042,3,AY,1,100,0.776
1574950478.438864,15517.000,2042,3,AY,1,100,0.777
1574950478.479310,15551.000,2042,3,AY,1,100,0.775
1574950478.520549,15585.667,2060,3,AY,1,100,0.779
1574950478.561789,15620.333,2060,3,AY,1,100,0.776
1574950478.603028,15655.000,2060,3,AY,1,100,0.779
1574950478.643871,15689.333,2078,3,AY,1,100,0.776
1574950478.684714,15723.667,2078,3,AY,1,100,0.777
1574950478.725557,15758.000,2078,3,AY,1,100,0.780
1574950478.764813,15791.000,2096,3,AY,1,100,0.775
1574950478.804070,15824.000,2096,3,AY,1,100,0.778
1574950478.843327,15857.000,2096,3,AY,1,100,0.778
1574950478.884566,15891.667,2112,3,AY,1,100,0.778
1574950478.925806,15926.333,2112,3,AY,1,100,0.777
1574950478.967045,15961.000,2112,3,AY,1,100,0.777
1574950479.003625,15991.750,2130,4,AY,1,100,0.780
1574950479.040205,16022.500,2130,4,AY,1,100,0.779
1574950479.076786,16053.250,2130,4,AY,1,100,0.777
1574950479.113366,16084.000,2130,4,AY,1,100,0.781
1574950479.152622,16117.000,2148,2,AY,1,100,0.778
1574950479.191879,16150.000,2148,2,AY,1,100,0.779
1574950479.235498,16186.667,2166,3,AY,1,100,0.778
1574950479.279116,16223.333,2166,3,AY,1,100,0.780
1574950479.322735,16260.000,2166,3,AY,1,100,0.778
1574950479.363578,16294.333,2184,3,AY,1,100,0.778
1574950479.404421,16328.667,2184,3,AY,1,100,0.779
1574950479.445264,16363.000,2184,3,AY,1,100,0.779
1574950479.486106,16397.333,2202,3,AY,1,100,0.778
1574950479.526949,16431.667,2202,3,AY,1,100,0.780
1574950479.567792,16466.000,2202,3,AY,1,100,0.779
1574950479.606652,16498.667,2221,3,AY,1,100,0.780
1574950479.645513,16531.333,2221,3,AY,1,100,0.781
1574950479.684373,16564.000,2221,3,AY,1,100,0.777
1574950479.722043,16595.667,2239,3,AY,1,100,0.784
1574950479.759714,16627.333,2239,3,AY,1,100,0.780
1574950479.797385,16659.000,2239,3,AY,1,100,0.782
1574950479.837533,16692.750,2257,4,AY,1,100,0.780
1574950479.877682,16726.500,2257,4,AY,1,100,0.781
1574950479.917831,16760.250,2257,4,AY,1,100,0.789
1574950479.957980,16794.000,2257,4,AY,1,100,0.803
1574950480.004969,16833.500,2274,2,AY,1,100,0.765
1574950480.051959,16873.000,2274,2,AY,1,100,0.755
1574950480.093198,16907.667,2290,3,AY,1,100,0.815
1574950480.134437,16942.333,2290,3,AY,1,100,0.769
1574950480.175677,16977.000,2290,3,AY,1,100,0.739
1574950480.215330,17010.333,2308,3,AY,1,100,0.766
1574950480.254983,17043.667,2308,3,AY,1,100,0.772
1574950480.294637,17077.000,2308,3,AY,1,100,0.769
1574950480.331911,17108.333,2326,3,AY,1,100,0.776
1574950480.369185,17139.667,2326,3,AY,1,100,0.762
1574950480.406459,17171.000,2326,3,AY,1,100,0.778
1574950480.446112,17204.333,2344,3,AY,1,100,0.812
1574950480.485765,17237.667,2344,3,AY,1,100,0.865
1574950480.525419,17271.000,2344,3,AY,1,100,1.048
1574950480.567055,17306.000,2363,3,AY,1,100,1.395
1574950480.608691,17341.000,2363,3,AY,1,100,1.254
1574950480.650326,17376.000,2363,3,AY,1,100,1.115
1574950480.691566,17410.667,2381,3,AY,1,100,1.011
1574950480.732805,17445.333,2381,3,AY,1,100,0.835
1574950480.774045,17480.000,2381,3,AY,1,100,0.743
1574950480.813301,17513.000,2399,3,AY,1,100,0.554
1574950480.852558,17546.000,2399,3,AY,1,100,0.503
1574950480.891815,17579.000,2399,3,AY,1,100,0.493
1574950480.932658,17613.333,2417,3,AY,1,100,0.553
1574950480.973501,17647.667,2417,3,AY,1,100,0.466
1574950481.014344,17682.000,2417,3,AY,1,100,0.316
1574950481.053600,17715.000,2435,3,AY,1,100,0.259
1574950481.092857,17748.000,2435,3,AY,1,100,0.615
1574950481.132114,17781.000,2435,3,AY,1,100,1.070
1574950481.173353,17815.667,2452,3,AY,1,100,2.540
1574950481.214592,17850.333,2452,3,AY,1,100,1.763
1574950481.255832,17885.000,2452,3,AY,1,100,0.658
1574950481.297071,17919.667,2470,3,AY,1,100,0.547
1574950481.338311,17954.333,2470,3,AY,1,100,0.471
1574950481.379550,17989.000,2470,3,AY,1,100,0.185
1574950481.419204,18022.333,2486,3,AY,1,100,0.383
1574950481.458857,18055.667,2486,3,AY,1,100,-0.608
1574950481.498510,18089.000,2486,3,AY,1,100,1.690
1574950481.540146,18124.000,2505,3,AY,1,100,1.745
1574950481.581782,18159.000,2505,3,AY,1,100,0.668
1574950481.623418,18194.000,2505,3,AY,1,100,0.617
1574950481.663468,18227.667,2523,3,AY,1,100,0.431
1574950481.703517,18261.333,2523,3,AY,1,100,0.138
1574950481.743567,18295.000,2523,3,AY,1,100,-0.162
1574950481.779652,18325.333,2541,3,AY,1,100,-1.984
1574950481.815736,18355.667,2541,3,AY,1,100,1.465
1574950481.851821,18386.000,2541,3,AY,1,100,1.239
1574950481.896629,18423.667,2559,3,AY,1,100,0.933
1574950481.941437,18461.333,2559,3,AY,1,100,0.515
1574950481.986245,18499.000,2559,3,AY,1,100,0.657
1574950482.020744,18528.000,2577,3,AY,1,100,0.733
1574950482.055242,18557.000,2577,3,AY,1,100,0.991
1574950482.089740,18586.000,2577,3,AY,1,100,0.927
1574950482.133755,18623.000,2595,3,AY,1,100,0.907
1574950482.177771,18660.000,2595,3,AY,1,100,0.945
1574950482.221786,18697.000,2595,3,AY,1,100,0.887
1574950482.263422,18732.000,2613,3,AY,1,100,1.048
1574950482.305058,18767.000,2613,3,AY,1,100,1.047
1574950482.346694,18802.000,2613,3,AY,1,100,1.006
1574950482.388726,18837.333,2630,3,AY,1,100,1.091
1574950482.430758,18872.667,2630,3,AY,1,100,1.023
1574950482.472791,18908.000,2630,3,AY,1,100,0.998
1574950482.511651,18940.667,2648,3,AY,1,100,1.023
1574950482.550511,18973.333,2648,3,AY,1,100,0.915
1574950482.589371,19006.000,2648,3,AY,1,100,0.749
1574950482.627042,19037.667,2667,3,AY,1,100,0.926
1574950482.664713,19069.333,2667,3,AY,1,100,1.675
1574950482.702383,19101.000,2667,3,AY,1,100,1.024
1574950482.742433,19134.667,2683,3,AY,1,100,0.652
1574950482.782483,19168.333,2683,3,AY,1,100,0.897
1574950482.822533,19202.000,2683,3,AY,1,100,0.929
1574950482.864169,19237.000,2701,3,AY,1,100,0.909
1574950482.905805,19272.000,2701,3,AY,1,100,0.789
1574950482.947441,19307.000,2701,3,AY,1,100,0.904
1574950482.992050,19344.500,2722,4,AY,1,100,0.912
1574950483.036660,19382.000,2722,4,AY,1,100,0.865
1574950483.081270,19419.500,2722,4,AY,1,100,0.848
1574950483.125880,19457.000,2722,4,AY,1,100,0.878
1574950483.163154,19488.333,2742,3,AY,1,100,0.868
1574950483.200428,19519.667,2742,3,AY,1,100,0.861
1574950483.237703,19551.000,2742,3,AY,1,100,0.876
1574950483.276365,19583.500,2760,4,AY,1,100,0.872
1574950483.315027,19616.000,2760,4,AY,1,100,0.865
1574950483.353688,19648.500,2760,4,AY,1,100,0.876
1574950483.392350,19681.000,2760,4,AY,1,100,0.873
1574950483.433986,19716.000,2776,2,AY,1,100,0.876
1574950483.475622,19751.000,2776,2,AY,1,100,0.863
1574950483.515672,19784.667,2795,3,AY,1,100,0.864
1574950483.555722,19818.333,2795,3,AY,1,100,0.874
1574950483.595772,19852.000,2795,3,AY,1,100,0.874
1574950483.638201,19887.667,2813,3,AY,1,100,0.870
1574950483.680629,19923.333,2813,3,AY,1,100,0.861
1574950483.723059,19959.000,2813,3,AY,1,100,0.866
1574950483.764694,19994.000,2831,3,AY,1,100,0.864
1574950483.806330,20029.000,2831,3,AY,1,100,0.870
1574950483.847966,20064.000,2831,3,AY,1,100,0.877
1574950483.886034,20096.000,2849,3,AY,1,100,0.865
1574950483.924101,20128.000,2849,3,AY,1,100,0.861
1574950483.962168,20160.000,2849,3,AY,1,100,0.872
1574950484.002218,20193.667,2867,3,AY,1,100,0.864
1574950484.042268,20227.333,2867,3,AY,1,100,0.871
1574950484.082317,20261.000,2867,3,AY,1,100,0.865
1574950484.123557,20295.667,2885,3,AY,1,100,0.860
1574950484.164796,20330.333,2885,3,AY,1,100,0.854
1574950484.206035,20365.000,2885,3,AY,1,100,0.858
1574950484.247275,20399.667,2902,3,AY,1,100,0.841
1574950484.288514,20434.333,2902,3,AY,1,100,0.848
1574950484.329754,20469.000,2902,3,AY,1,100,0.874
1574950484.369407,20502.333,2920,3,AY,1,100,0.854
1574950484.409060,20535.667,2920,3,AY,1,100,0.861
1574950484.448714,20569.000,2920,3,AY,1,100,0.837
1574950484.486781,20601.000,2938,3,AY,1,100,0.834
1574950484.524848,20633.000,2938,3,AY,1,100,0.861
1574950484.562915,20665.000,2938,3,AY,1,100,0.862
1574950484.602568,20698.333,2955,3,AY,1,100,0.845
1574950484.642221,20731.667,2955,3,AY,1,100,0.834
1574950484.681875,20765.000,2955,3,AY,1,100,0.824
1574950484.727079,20803.000,2973,3,AY,1,100,0.833
1574950484.772284,20841.000,2973,3,AY,1,100,0.839
1574950484.817489,20879.000,2973,3,AY,1,100,0.806
1574950484.858728,20913.667,2991,3,AY,1,100,0.851
1574950484.899968,20948.333,2991,3,AY,1,100,0.842
1574950484.941207,20983.000,2991,3,AY,1,100,0.779
1574950484.980067,21015.667,3009,3,AY,1,100,0.770
1574950485.018928,21048.333,3009,3,AY,1,100,0.802
1574950485.057788,21081.000,3009,3,AY,1,100,0.803
1574950485.096251,21113.333,3027,3,AY,1,100,0.817
1574950485.134715,21145.667,3027,3,AY,1,100,0.719
1574950485.173179,21178.000,3027,3,AY,1,100,0.839
1574950485.211643,21210.333,3045,3,AY,1,100,0.945
1574950485.250106,21242.667,3045,3,AY,1,100,0.846
1574950485.288570,21275.000,3045,3,AY,1,100,0.774
1574950485.329809,21309.667,3063,3,AY,1,100,0.844
1574950485.371049,21344.333,3063,3,AY,1,100,0.839
1574950485.412288,21379.000,3063,3,AY,1,100,0.794
1574950485.457096,21416.667,3081,3,AY,1,100,0.827
1574950485.501904,21454.333,3081,3,AY,1,100,0.839
1574950485.546713,21492.000,3081,3,AY,1,100,0.831
1574950485.585176,21524.333,3099,3,AY,1,100,0.830
1574950485.623640,21556.667,3099,3,AY,1,100,0.840
1574950485.662104,21589.000,3099,3,AY,1,100,0.820
1574950485.709687,21629.000,3115,2,AY,1,100,0.828
1574950485.757272,21669.000,3115,2,AY,1,100,0.829
1574950485.796528,21702.000,3133,4,AY,1,100,0.844
1574950485.835785,21735.000,3133,4,AY,1,100,0.855
1574950485.875042,21768.000,3133,4,AY,1,100,0.808
1574950485.914299,21801.000,3133,4,AY,1,100,0.819
1574950485.961287,21840.500,3151,2,AY,1,100,0.856
1574950486.008277,21880.000,3151,2,AY,1,100,0.829
1574950486.047534,21913.000,3169,3,AY,1,100,0.836
1574950486.086790,21946.000,3169,3,AY,1,100,0.850
1574950486.126047,21979.000,3169,3,AY,1,100,0.836
1574950486.164114,22011.000,3187,3,AY,1,100,0.837
1574950486.202181,22043.000,3187,3,AY,1,100,0.834
1574950486.240248,22075.000,3187,3,AY,1,100,0.833
1574950486.279902,22108.333,3205,3,AY,1,100,0.837
1574950486.319555,22141.667,3205,3,AY,1,100,0.838
1574950486.359208,22175.000,3205,3,AY,1,100,0.853
1574950486.400448,22209.667,3223,3,AY,1,100,0.833
1574950486.441687,22244.333,3223,3,AY,1,100,0.837
1574950486.482926,22279.000,3223,3,AY,1,100,0.836
1574950486.524562,22314.000,3241,3,AY,1,100,0.839
1574950486.566198,22349.000,3241,3,AY,1,100,0.837
1574950486.607834,22384.000,3241,3,AY,1,100,0.835
1574950486.649074,22418.667,3259,3,AY,1,100,0.834
1574950486.690313,22453.333,3259,3,AY,1,100,0.841
1574950486.731552,22488.000,3259,3,AY,1,100,0.836
1574950486.773188,22523.000,3275,3,AY,1,100,0.838
1574950486.814824,22558.000,3275,3,AY,1,100,0.847
1574950486.856460,22593.000,3275,3,AY,1,100,0.831
1574950486.895717,22626.000,3293,3,AY,1,100,0.834
1574950486.934974,22659.000,3293,3,AY,1,100,0.835
1574950486.974231,22692.000,3293,3,AY,1,100,0.842
1574950487.015867,22727.000,3311,3,AY,1,100,0.836
1574950487.057502,22762.000,3311,3,AY,1,100,0.835
1574950487.099138,22797.000,3311,3,AY,1,100,0.835
1574950487.135223,22827.333,3329,3,AY,1,100,0.838
1574950487.171307,22857.667,3329,3,AY,1,100,0.838
1574950487.207392,22888.000,3329,3,AY,1,100,0.836
1574950487.252200,22925.667,3347,3,AY,1,100,0.842
1574950487.297008,22963.333,3347,3,AY,1,100,0.837
1574950487.341816,23001.000,3347,3,AY,1,100,0.836
1574950487.382659,23035.333,3365,3,AY,1,100,0.837
1574950487.423502,23069.667,3365,3,AY,1,100,0.836
1574950487.464345,23104.000,3365,3,AY,1,100,0.835
1574950487.503205,23136.667,3383,3,AY,1,100,0.835
1574950487.542065,23169.333,3383,3,AY,1,100,0.836
1574950487.580925,23202.000,3383,3,AY,1,100,0.838
1574950487.619389,23234.333,3402,3,AY,1,100,0.834
1574950487.657853,23266.667,3402,3,AY,1,100,0.837
1574950487.696316,23299.000,3402,3,AY,1,100,0.839
1574950487.735573,23332.000,3420,3,AY,1,100,0.838
1574950487.774830,23365.000,3420,3,AY,1,100,0.837
1574950487.814087,23398.000,3420,3,AY,1,100,0.840
1574950487.859292,23436.000,3437,3,AY,1,100,0.836
1574950487.904496,23474.000,3437,3,AY,1,100,0.838
1574950487.949701,23512.000,3437,3,AY,1,100,0.837
1574950487.991337,23547.000,3453,3,AY,1,100,0.836
1574950488.032973,23582.000,3453,3,AY,1,100,0.841
1574950488.074609,23617.000,3453,3,AY,1,100,0.832
1574950488.114262,23650.333,3471,3,AY,1,100,0.840
1574950488.153915,23683.667,3471,3,AY,1,100,0.834
1574950488.193569,23717.000,3471,3,AY,1,100,0.837
1574950488.231636,23749.000,3489,3,AY,1,100,0.838
1574950488.269703,23781.000,3489,3,AY,1,100,0.837
1574950488.307770,23813.000,3489,3,AY,1,100,0.837
1574950488.347027,23846.000,3507,3,AY,1,100,0.838
1574950488.386284,23879.000,3507,3,AY,1,100,0.835
1574950488.425540,23912.000,3507,3,AY,1,100,0.836
1574950488.466383,23946.333,3525,3,AY,1,100,0.837
1574950488.507226,23980.667,3525,3,AY,1,100,0.836
1574950488.548069,24015.000,3525,3,AY,1,100,0.838
1574950488.589705,24050.000,3544,3,AY,1,100,0.839
1574950488.631341,24085.000,3544,3,AY,1,100,0.838
1574950488.672977,24120.000,3544,3,AY,1,100,0.839
1574950488.719371,24159.000,3562,2,AY,1,100,0.834
1574950488.765765,24198.000,3562,2,AY,1,100,0.835
1574950488.802643,24229.000,3580,4,AY,1,100,0.838
1574950488.839520,24260.000,3580,4,AY,1,100,0.837
1574950488.876398,24291.000,3580,4,AY,1,100,0.836
1574950488.913275,24322.000,3580,4,AY,1,100,0.836
1574950488.953722,24356.000,3598,3,AY,1,100,0.838
1574950488.994168,24390.000,3598,3,AY,1,100,0.838
1574950489.034615,24424.000,3598,3,AY,1,100,0.837
1574950489.075358,24458.250,3619,4,AY,1,100,0.837
1574950489.116102,24492.500,3619,4,AY,1,100,0.834
1574950489.156846,24526.750,3619,4,AY,1,100,0.834
1574950489.197589,24561.000,3619,4,AY,1,100,0.838
1574950489.238432,24595.333,3639,3,AY,1,100,0.837
1574950489.279275,24629.667,3639,3,AY,1,100,0.838
1574950489.320118,24664.000,3639,3,AY,1,100,0.838
1574950489.359771,24697.333,3657,3,AY,1,100,0.836
1574950489.399425,24730.667,3657,3,AY,1,100,0.838
1574950489.439078,24764.000,3657,3,AY,1,100,0.836
1574950489.480317,24798.667,3675,3,AY,1,100,0.839
1574950489.521557,24833.333,3675,3,AY,1,100,0.839
1574950489.562796,24868.000,3675,3,AY,1,100,0.836
1574950489.598782,24898.250,3694,4,AY,1,100,0.838
1574950489.634767,24928.500,3694,4,AY,1,100,0.838
1574950489.670752,24958.750,3694,4,AY,1,100,0.838
1574950489.706738,24989.000,3694,4,AY,1,100,0.837
1574950489.745994,25022.000,3711,2,AY,1,100,0.835
1574950489.785251,25055.000,3711,2,AY,1,100,0.838
1574950489.829663,25092.333,3729,3,AY,1,100,0.839
1574950489.874074,25129.667,3729,3,AY,1,100,0.835
1574950489.918486,25167.000,3729,3,AY,1,100,0.836
1574950489.957346,25199.667,3745,3,AY,1,100,0.839
1574950489.996207,25232.333,3745,3,AY,1,100,0.837
1574950490.035067,25265.000,3745,3,AY,1,100,0.838
1574950490.079082,25302.000,3763,3,AY,1,100,0.839
1574950490.123097,25339.000,3763,3,AY,1,100,0.837
1574950490.167112,25376.000,3763,3,AY,1,100,0.837
1574950490.208351,25410.667,3781,3,AY,1,100,0.836
1574950490.249591,25445.333,3781,3,AY,1,100,0.839
1574950490.290830,25480.000,3781,3,AY,1,100,0.837
1574950490.332863,25515.333,3799,3,AY,1,100,0.839
1574950490.374895,25550.667,3799,3,AY,1,100,0.837
1574950490.416928,25586.000,3799,3,AY,1,100,0.835
1574950490.454598,25617.667,3817,3,AY,1,100,0.839
1574950490.492269,25649.333,3817,3,AY,1,100,0.835
1574950490.529939,25681.000,3817,3,AY,1,100,0.839
1574950490.568007,25713.000,3836,3,AY,1,100,0.837
1574950490.606074,25745.000,3836,3,AY,1,100,0.838
1574950490.644141,25777.000,3836,3,AY,1,100,0.840
1574950490.684587,25811.000,3854,3,AY,1,100,0.841
1574950490.725034,25845.000,3854,3,AY,1,100,0.839
1574950490.765480,25879.000,3854,3,AY,1,100,0.839
1574950490.806719,25913.667,3871,3,AY,1,100,0.840
1574950490.847959,25948.333,3871,3,AY,1,100,0.838
1574950490.889198,25983.000,3871,3,AY,1,100,0.842
1574950490.931231,26018.333,3889,3,AY,1,100,0.840
1574950490.973263,26053.667,3889,3,AY,1,100,0.840
1574950491.015296,26089.000,3889,3,AY,1,100,0.838
1574950491.057724,26124.667,3907,3,AY,1,100,0.839
1574950491.100153,26160.333,3907,3,AY,1,100,0.838
1574950491.142582,26196.000,3907,3,AY,1,100,0.839
1574950491.180650,26228.000,3923,3,AY,1,100,0.841
1574950491.218717,26260.000,3923,3,AY,1,100,0.839
1574950491.256784,26292.000,3923,3,AY,1,100,0.841
1574950491.296834,26325.667,3941,3,AY,1,100,0.839
1574950491.336884,26359.333,3941,3,AY,1,100,0.838
1574950491.376933,26393.000,3941,3,AY,1,100,0.839
1574950491.418173,26427.667,3959,3,AY,1,100,0.840
1574950491.459412,26462.333,3959,3,AY,1,100,0.840
1574950491.500652,26497.000,3959,3,AY,1,100,0.839
1574950491.541098,26531.000,3978,3,AY,1,100,0.840
1574950491.581544,26565.000,3978,3,AY,1,100,0.833
1574950491.621991,26599.000,3978,3,AY,1,100,0.839
1574950491.663032,26633.500,3996,2,AY,1,100,0.840
1574950491.704073,26668.000,3996,2,AY,1,100,0.840
1574950491.744817,26702.250,4014,4,AY,1,100,0.839
1574950491.785560,26736.500,4014,4,AY,1,100,0.838
1574950491.826304,26770.750,4014,4,AY,1,100,0.840
1574950491.867048,26805.000,4014,4,AY,1,100,0.837
1574950491.907098,26838.667,4032,3,AY,1,100,0.838
1574950491.947147,26872.333,4032,3,AY,1,100,0.839
1574950491.987197,26906.000,4032,3,AY,1,100,0.839
1574950492.028238,26940.500,4049,2,AY,1,100,0.836
1574950492.069279,26975.000,4049,2,AY,1,100,0.839
1574950492.110915,27010.000,4067,3,AY,1,100,0.840
1574950492.152551,27045.000,4067,3,AY,1,100,0.839
1574950492.194187,27080.000,4067,3,AY,1,100,0.840
1574950492.235823,27115.000,4083,3,AY,1,100,0.838
1574950492.277459,27150.000,4083,3,AY,1,100,0.840
1574950492.319095,27185.000,4083,3,AY,1,100,0.837
1574950492.356865,27216.750,4101,4,AY,1,100,0.840
1574950492.394635,27248.500,4101,4,AY,1,100,0.838
1574950492.432404,27280.250,4101,4,AY,1,100,0.838
1574950492.470174,27312.000,4101,4,AY,1,100,0.840
1574950492.508241,27344.000,4119,2,AY,1,100,0.840
1574950492.546309,27376.000,4119,2,AY,1,100,0.840
1574950492.591513,27414.000,4138,3,AY,1,100,0.840
1574950492.636718,27452.000,4138,3,AY,1,100,0.840
1574950492.681923,27490.000,4138,3,AY,1,100,0.840
1574950492.723162,27524.667,4156,3,AY,1,100,0.835
1574950492.764401,27559.333,4156,3,AY,1,100,0.840
1574950492.805641,27594.000,4156,3,AY,1,100,0.840
1574950492.846484,27628.333,4174,3,AY,1,100,0.840
1574950492.887326,27662.667,4174,3,AY,1,100,0.838
1574950492.928169,27697.000,4174,3,AY,1,100,0.841
1574950492.965840,27728.667,4192,3,AY,1,100,0.838
1574950493.003511,27760.333,4192,3,AY,1,100,0.838
1574950493.041181,27792.000,4192,3,AY,1,100,0.842
1574950493.079248,27824.000,4210,3,AY,1,100,0.839
1574950493.117316,27856.000,4210,3,AY,1,100,0.839
1574950493.155383,27888.000,4210,3,AY,1,100,0.839
1574950493.196622,27922.667,4227,3,AY,1,100,0.842
1574950493.237861,27957.333,4227,3,AY,1,100,0.837
1574950493.279101,27992.000,4227,3,AY,1,100,0.838
1574950493.324306,28030.000,4245,3,AY,1,100,0.840
1574950493.369510,28068.000,4245,3,AY,1,100,0.840
1574950493.414715,28106.000,4245,3,AY,1,100,0.840
1574950493.452782,28138.000,4261,3,AY,1,100,0.839
1574950493.490849,28170.000,4261,3,AY,1,100,0.841
1574950493.528917,28202.000,4261,3,AY,1,100,0.839
1574950493.570156,28236.667,4280,3,AY,1,100,0.839
1574950493.611395,28271.333,4280,3,AY,1,100,0.840
1574950493.652635,28306.000,4280,3,AY,1,100,0.836
1574950493.696650,28343.000,4298,3,AY,1,100,0.840
1574950493.740665,28380.000,4298,3,AY,1,100,0.838
1574950493.784680,28417.000,4298,3,AY,1,100,0.841
1574950493.821558,28448.000,4316,3,AY,1,100,0.841
1574950493.858435,28479.000,4316,3,AY,1,100,0.834
1574950493.895313,28510.000,4316,3,AY,1,100,0.841
1574950493.938931,28546.667,4334,3,AY,1,100,0.838
1574950493.982550,28583.333,4334,3,AY,1,100,0.842
1574950494.026169,28620.000,4334,3,AY,1,100,0.839
1574950494.063839,28651.667,4352,3,AY,1,100,0.840
1574950494.101510,28683.333,4352,3,AY,1,100,0.840
1574950494.139180,28715.000,4352,3,AY,1,100,0.839
1574950494.178834,28748.333,4370,3,AY,1,100,0.841
1574950494.218487,28781.667,4370,3,AY,1,100,0.838
1574950494.258140,28815.000,4370,3,AY,1,100,0.840
1574950494.299776,28850.000,4388,3,AY,1,100,0.838
1574950494.341412,28885.000,4388,3,AY,1,100,0.838
1574950494.383048,28920.000,4388,3,AY,1,100,0.838
1574950494.423891,28954.333,4405,3,AY,1,100,0.842
1574950494.464734,28988.667,4405,3,AY,1,100,0.838
1574950494.505577,29023.000,4405,3,AY,1,100,0.838
1574950494.546816,29057.667,4423,3,AY,1,100,0.840
1574950494.588055,29092.333,4423,3,AY,1,100,0.838
1574950494.629295,29127.000,4423,3,AY,1,100,0.839
1574950494.670138,29161.333,4440,3,AY,1,100,0.840
1574950494.710981,29195.667,4440,3,AY,1,100,0.838
1574950494.751823,29230.000,4440,3,AY,1,100,0.839
1574950494.791477,29263.333,4458,3,AY,1,100,0.840
1574950494.831130,29296.667,4458,3,AY,1,100,0.840
1574950494.870783,29330.000,4458,3,AY,1,100,0.837
1574950494.909247,29362.333,4476,3,AY,1,100,0.840
1574950494.947711,29394.667,4476,3,AY,1,100,0.836
1574950494.986174,29427.000,4476,3,AY,1,100,0.840
1574950495.030784,29464.500,4494,2,AY,1,100,0.838
1574950495.075394,29502.000,4494,2,AY,1,100,0.838
1574950495.116078,29536.200,4515,5,AY,1,100,0.840
1574950495.156763,29570.400,4515,5,AY,1,100,0.839
1574950495.197447,29604.600,4515,5,AY,1,100,0.840
1574950495.238131,29638.800,4515,5,AY,1,100,0.840
1574950495.278816,29673.000,4515,5,AY,1,100,0.840
1574950495.320055,29707.667,4533,3,AY,1,100,0.839
1574950495.361294,29742.333,4533,3,AY,1,100,0.841
1574950495.402534,29777.000,4533,3,AY,1,100,0.841
1574950495.441394,29809.667,4551,3,AY,1,100,0.841
1574950495.480254,29842.333,4551,3,AY,1,100,0.840
1574950495.519114,29875.000,4551,3,AY,1,100,0.841
1574950495.556785,29906.667,4570,3,AY,1,100,0.841
1574950495.594455,29938.333,4570,3,AY,1,100,0.838
1574950495.632126,29970.000,4570,3,AY,1,100,0.843
1574950495.672176,30003.667,4588,3,AY,1,100,0.841
1574950495.712226,30037.333,4588,3,AY,1,100,0.839
1574950495.752275,30071.000,4588,3,AY,1,100,0.840
1574950495.797084,30108.667,4606,3,AY,1,100,0.839
1574950495.841892,30146.333,4606,3,AY,1,100,0.841
1574950495.886700,30184.000,4606,3,AY,1,100,0.840
1574950495.927939,30218.667,4624,3,AY,1,100,0.842
1574950495.969179,30253.333,4624,3,AY,1,100,0.838
1574950496.010418,30288.000,4624,3,AY,1,100,0.839
1574950496.050072,30321.333,4642,3,AY,1,100,0.842
1574950496.089725,30354.667,4642,3,AY,1,100,0.840
1574950496.129378,30388.000,4642,3,AY,1,100,0.845
1574950496.166652,30419.333,4660,3,AY,1,100,0.842
1574950496.203926,30450.667,4660,3,AY,1,100,0.843
1574950496.241200,30482.000,4660,3,AY,1,100,0.840
1574950496.280854,30515.333,4677,3,AY,1,100,0.841
1574950496.320507,30548.667,4677,3,AY,1,100,0.840
1574950496.360160,30582.000,4677,3,AY,1,100,0.843
1574950496.401796,30617.000,4695,3,AY,1,100,0.839
1574950496.443432,30652.000,4695,3,AY,1,100,0.840
1574950496.485068,30687.000,4695,3,AY,1,100,0.843
1574950496.526307,30721.667,4711,3,AY,1,100,0.843
1574950496.567547,30756.333,4711,3,AY,1,100,0.841
1574950496.608786,30791.000,4711,3,AY,1,100,0.842
1574950496.648836,30824.667,4730,3,AY,1,100,0.842
1574950496.688886,30858.333,4730,3,AY,1,100,0.842
1574950496.728936,30892.000,4730,3,AY,1,100,0.839
1574950496.770175,30926.667,4748,3,AY,1,100,0.841
1574950496.811414,30961.333,4748,3,AY,1,100,0.841
1574950496.852654,30996.000,4748,3,AY,1,100,0.841
1574950496.891911,31029.000,4766,3,AY,1,100,0.844
1574950496.931167,31062.000,4766,3,AY,1,100,0.841
1574950496.970424,31095.000,4766,3,AY,1,100,0.841
1574950497.011267,31129.333,4784,3,AY,1,100,0.843
1574950497.052110,31163.667,4784,3,AY,1,100,0.840
1574950497.092953,31198.000,4784,3,AY,1,100,0.842
1574950497.134192,31232.667,4802,3,AY,1,100,0.841
1574950497.175431,31267.333,4802,3,AY,1,100,0.843
1574950497.216671,31302.000,4802,3,AY,1,100,0.841
1574950497.256324,31335.333,4820,3,AY,1,100,0.843
1574950497.295977,31368.667,4820,3,AY,1,100,0.843
1574950497.335631,31402.000,4820,3,AY,1,100,0.840
1574950497.373698,31434.000,4838,3,AY,1,100,0.844
1574950497.411765,31466.000,4838,3,AY,1,100,0.841
1574950497.449832,31498.000,4838,3,AY,1,100,0.842
1574950497.492658,31534.000,4856,3,AY,1,100,0.842
1574950497.535483,31570.000,4856,3,AY,1,100,0.843
1574950497.578309,31606.000,4856,3,AY,1,100,0.843
1574950497.614393,31636.333,4874,3,AY,1,100,0.844
1574950497.650478,31666.667,4874,3,AY,1,100,0.843
1574950497.686562,31697.000,4874,3,AY,1,100,0.842
1574950497.731370,31734.667,4892,3,AY,1,100,0.841
1574950497.776179,31772.333,4892,3,AY,1,100,0.844
1574950497.820987,31810.000,4892,3,AY,1,100,0.843
1574950497.855485,31839.000,4908,3,AY,1,100,0.843
1574950497.889983,31868.000,4908,3,AY,1,100,0.844
1574950497.924482,31897.000,4908,3,AY,1,100,0.842
1574950497.969290,31934.667,4926,3,AY,1,100,0.843
1574950498.014098,31972.333,4926,3,AY,1,100,0.844
1574950498.058906,32010.000,4926,3,AY,1,100,0.841
1574950498.100542,32045.000,4944,3,AY,1,100,0.841
1574950498.142178,32080.000,4944,3,AY,1,100,0.847
1574950498.183814,32115.000,4944,3,AY,1,100,0.840
1574950498.225450,32150.000,4962,2,AY,1,100,0.844
1574950498.267086,32185.000,4962,2,AY,1,100,0.843
1574950498.306938,32218.500,4980,4,AY,1,100,0.845
1574950498.346789,32252.000,4980,4,AY,1,100,0.844
1574950498.386641,32285.500,4980,4,AY,1,100,0.843
1574950498.426492,32319.000,4980,4,AY,1,100,0.844
1574950498.464163,32350.667,4998,3,AY,1,100,0.843
1574950498.501833,32382.333,4998,3,AY,1,100,0.844
1574950498.539504,32414.000,4998,3,AY,1,100,0.844
1574950498.579554,32447.667,5017,3,AY,1,100,0.843
1574950498.619604,32481.333,5017,3,AY,1,100,0.842
1574950498.659653,32515.000,5017,3,AY,1,100,0.843
1574950498.700893,32549.667,5034,3,AY,1,100,0.844
1574950498.742132,32584.333,5034,3,AY,1,100,0.843
1574950498.783372,32619.000,5034,3,AY,1,100,0.844
1574950498.830361,32658.500,5052,2,AY,1,100,0.844
1574950498.877350,32698.000,5052,2,AY,1,100,0.843
1574950498.917400,32731.667,5068,3,AY,1,100,0.843
1574950498.957450,32765.333,5068,3,AY,1,100,0.843
1574950498.997499,32799.000,5068,3,AY,1,100,0.844
1574950499.035567,32831.000,5086,3,AY,1,100,0.843
1574950499.073634,32863.000,5086,3,AY,1,100,0.839
1574950499.111701,32895.000,5086,3,AY,1,100,0.845
1574950499.150958,32928.000,5104,4,AY,1,100,0.845
1574950499.190214,32961.000,5104,4,AY,1,100,0.842
1574950499.229471,32994.000,5104,4,AY,1,100,0.842
1574950499.268728,33027.000,5104,4,AY,1,100,0.843
1574950499.309769,33061.500,5122,2,AY,1,100,0.844
1574950499.350810,33096.000,5122,2,AY,1,100,0.846
1574950499.391653,33130.333,5140,3,AY,1,100,0.843
1574950499.432496,33164.667,5140,3,AY,1,100,0.850
1574950499.473339,33199.000,5140,3,AY,1,100,0.842
1574950499.514182,33233.333,5158,3,AY,1,100,0.847
1574950499.555024,33267.667,5158,3,AY,1,100,0.842
1574950499.595867,33302.000,5158,3,AY,1,100,0.847
1574950499.637503,33337.000,5177,3,AY,1,100,0.840
1574950499.679139,33372.000,5177,3,AY,1,100,0.842
1574950499.720775,33407.000,5177,3,AY,1,100,0.844
1574950499.759239,33439.333,5195,3,AY,1,100,0.843
1574950499.797703,33471.667,5195,3,AY,1,100,0.846
1574950499.836166,33504.000,5195,3,AY,1,100,0.844
1574950499.876612,33538.000,5213,3,AY,1,100,0.845
1574950499.917059,33572.000,5213,3,AY,1,100,0.844
1574950499.957505,33606.000,5213,3,AY,1,100,0.845
1574950499.999141,33641.000,5230,3,AY,1,100,0.846
1574950500.040777,33676.000,5230,3,AY,1,100,0.844
1574950500.082413,33711.000,5230,3,AY,1,100,0.844
1574950500.124049,33746.000,5246,3,AY,1,100,0.844
1574950500.165685,33781.000,5246,3,AY,1,100,0.844
1574950500.207321,33816.000,5246,3,AY,1,100,0.845
1574950500.245388,33848.000,5264,3,AY,1,100,0.844
1574950500.283455,33880.000,5264,3,AY,1,100,0.849
1574950500.321522,33912.000,5264,3,AY,1,100,0.841
1574950500.359193,33943.667,5282,3,AY,1,100,0.846
1574950500.396863,33975.333,5282,3,AY,1,100,0.846
1574950500.434534,34007.000,5282,3,AY,1,100,0.842
1574950500.478946,34044.333,5300,3,AY,1,100,0.845
1574950500.523357,34081.667,5300,3,AY,1,100,0.845
1574950500.567769,34119.000,5300,3,AY,1,100,0.849
1574950500.609008,34153.667,5319,3,AY,1,100,0.845
1574950500.650248,34188.333,5319,3,AY,1,100,0.847
1574950500.691487,34223.000,5319,3,AY,1,100,0.844
1574950500.733520,34258.333,5337,3,AY,1,100,0.846
1574950500.775552,34293.667,5337,3,AY,1,100,0.844
1574950500.817585,34329.000,5337,3,AY,1,100,0.847
1574950500.854859,34360.333,5355,3,AY,1,100,0.846
1574950500.892133,34391.667,5355,3,AY,1,100,0.844
1574950500.929407,34423.000,5355,3,AY,1,100,0.848
1574950500.967870,34455.333,5373,3,AY,1,100,0.845
1574950501.006334,34487.667,5373,3,AY,1,100,0.845
1574950501.044798,34520.000,5373,3,AY,1,100,0.846
1574950501.084451,34553.333,5391,3,AY,1,100,0.846
1574950501.124104,34586.667,5391,3,AY,1,100,0.843
1574950501.163758,34620.000,5391,3,AY,1,100,0.847
1574950501.207535,34656.800,5412,5,AY,1,100,0.844
1574950501.251312,34693.600,5412,5,AY,1,100,0.845
1574950501.295089,34730.400,5412,5,AY,1,100,0.848
1574950501.338866,34767.200,5412,5,AY,1,100,0.844
1574950501.382644,34804.000,5412,5,AY,1,100,0.844
1574950501.421108,34836.333,5432,3,AY,1,100,0.847
1574950501.459571,34868.667,5432,3,AY,1,100,0.845
1574950501.498035,34901.000,5432,3,AY,1,100,0.845
1574950501.539076,34935.500,5450,2,AY,1,100,0.843
1574950501.580117,34970.000,5450,2,AY,1,100,0.845
1574950501.622546,35005.667,5468,3,AY,1,100,0.845
1574950501.664975,35041.333,5468,3,AY,1,100,0.844
1574950501.707404,35077.000,5468,3,AY,1,100,0.848
1574950501.749040,35112.000,5486,3,AY,1,100,0.844
1574950501.790676,35147.000,5486,3,AY,1,100,0.845
1574950501.832312,35182.000,5486,3,AY,1,100,0.845
1574950501.873551,35216.667,5504,3,AY,1,100,0.844
1574950501.914791,35251.333,5504,3,AY,1,100,0.846
1574950501.956030,35286.000,5504,3,AY,1,100,0.846
1574950501.994494,35318.333,5522,3,AY,1,100,0.846
1574950502.032958,35350.667,5522,3,AY,1,100,0.845
1574950502.071421,35383.000,5522,3,AY,1,100,0.846
1574950502.112264,35417.333,5538,3,AY,1,100,0.844
1574950502.153107,35451.667,5538,3,AY,1,100,0.844
1574950502.193950,35486.000,5538,3,AY,1,100,0.845
1574950502.233999,35519.667,5556,3,AY,1,100,0.844
1574950502.274049,35553.333,5556,3,AY,1,100,0.845
1574950502.314099,35587.000,5556,3,AY,1,100,0.846
1574950502.354942,35621.333,5574,3,AY,1,100,0.847
1574950502.395785,35655.667,5574,3,AY,1,100,0.843
1574950502.436628,35690.000,5574,3,AY,1,100,0.844
1574950502.477074,35724.000,5592,3,AY,1,100,0.848
1574950502.517520,35758.000,5592,3,AY,1,100,0.845
1574950502.557967,35792.000,5592,3,AY,1,100,0.843
1574950502.599603,35827.000,5611,3,AY,1,100,0.848
1574950502.641239,35862.000,5611,3,AY,1,100,0.847
1574950502.682875,35897.000,5611,3,AY,1,100,0.845
1574950502.722131,35930.000,5629,3,AY,1,100,0.851
1574950502.761388,35963.000,5629,3,AY,1,100,0.843
1574950502.800645,35996.000,5629,3,AY,1,100,0.846
1574950502.838712,36028.000,5647,3,AY,1,100,0.846
1574950502.876779,36060.000,5647,3,AY,1,100,0.846
1574950502.914846,36092.000,5647,3,AY,1,100,0.847
1574950502.955293,36126.000,5664,3,AY,1,100,0.845
1574950502.995739,36160.000,5664,3,AY,1,100,0.849
1574950503.036185,36194.000,5664,3,AY,1,100,0.847
1574950503.080993,36231.667,5682,3,AY,1,100,0.845
1574950503.125802,36269.333,5682,3,AY,1,100,0.846
1574950503.170610,36307.000,5682,3,AY,1,100,0.844
1574950503.211849,36341.667,5698,3,AY,1,100,0.844
1574950503.253089,36376.333,5698,3,AY,1,100,0.847
1574950503.294328,36411.000,5698,3,AY,1,100,0.847
1574950503.333188,36443.667,5716,3,AY,1,100,0.844
1574950503.372048,36476.333,5716,3,AY,1,100,0.849
1574950503.410909,36509.000,5716,3,AY,1,100,0.846
1574950503.448976,36541.000,5734,3,AY,1,100,0.847
1574950503.487043,36573.000,5734,3,AY,1,100,0.846
1574950503.525110,36605.000,5734,3,AY,1,100,0.848
1574950503.564367,36638.000,5753,3,AY,1,100,0.847
1574950503.603624,36671.000,5753,3,AY,1,100,0.849
1574950503.642880,36704.000,5753,3,AY,1,100,0.847
1574950503.684120,36738.667,5771,3,AY,1,100,0.848
1574950503.725359,36773.333,5771,3,AY,1,100,0.847
1574950503.766598,36808.000,5771,3,AY,1,100,0.846
1574950503.811407,36845.667,5789,3,AY,1,100,0.848
1574950503.856215,36883.333,5789,3,AY,1,100,0.845
1574950503.901023,36921.000,5789,3,AY,1,100,0.845
1574950503.940676,36954.333,5807,3,AY,1,100,0.848
1574950503.980330,36987.667,5807,3,AY,1,100,0.846
1574950504.019983,37021.000,5807,3,AY,1,100,0.850
1574950504.058050,37053.000,5825,3,AY,1,100,0.845
1574950504.096117,37085.000,5825,3,AY,1,100,0.848
1574950504.134184,37117.000,5825,3,AY,1,100,0.848
1574950504.173441,37150.000,5842,3,AY,1,100,0.846
1574950504.212698,37183.000,5842,3,AY,1,100,0.848
1574950504.251955,37216.000,5842,3,AY,1,100,0.845
1574950504.293194,37250.667,5860,3,AY,1,100,0.851
1574950504.334433,37285.333,5860,3,AY,1,100,0.848
1574950504.375673,37320.000,5860,3,AY,1,100,0.847
1574950504.417309,37355.000,5876,3,AY,1,100,0.848
1574950504.458945,37390.000,5876,3,AY,1,100,0.849
1574950504.500581,37425.000,5876,3,AY,1,100,0.846
1574950504.540630,37458.667,5894,3,AY,1,100,0.846
1574950504.580680,37492.333,5894,3,AY,1,100,0.848
1574950504.620730,37526.000,5894,3,AY,1,100,0.845
1574950504.658004,37557.333,5913,3,AY,1,100,0.846
1574950504.695278,37588.667,5913,3,AY,1,100,0.847
1574950504.732552,37620.000,5913,3,AY,1,100,0.847
1574950504.775774,37656.333,5931,3,AY,1,100,0.847
1574950504.818996,37692.667,5931,3,AY,1,100,0.849
1574950504.862218,37729.000,5931,3,AY,1,100,0.847
1574950504.902665,37763.000,5949,3,AY,1,100,0.849
1574950504.943111,37797.000,5949,3,AY,1,100,0.848
1574950504.983557,37831.000,5949,3,AY,1,100,0.848
1574950505.024400,37865.333,5967,3,AY,1,100,0.846
1574950505.065243,37899.667,5967,3,AY,1,100,0.847
1574950505.106086,37934.000,5967,3,AY,1,100,0.846
1574950505.148317,37969.500,5985,2,AY,1,100,0.848
1574950505.190548,38005.000,5985,2,AY,1,100,0.849
1574950505.228317,38036.750,6003,4,AY,1,100,0.847
1574950505.266087,38068.500,6003,4,AY,1,100,0.845
1574950505.303857,38100.250,6003,4,AY,1,100,0.851
1574950505.341627,38132.000,6003,4,AY,1,100,0.844
1574950505.380883,38165.000,6021,2,AY,1,100,0.849
1574950505.420140,38198.000,6021,2,AY,1,100,0.847
1574950505.464155,38235.000,6038,3,AY,1,100,0.848
1574950505.508170,38272.000,6038,3,AY,1,100,0.847
1574950505.552186,38309.000,6038,3,AY,1,100,0.846
1574950505.591046,38341.667,6055,3,AY,1,100,0.850
1574950505.629906,38374.333,6055,3,AY,1,100,0.847
1574950505.668766,38407.000,6055,3,AY,1,100,0.845
1574950505.713178,38444.333,6073,3,AY,1,100,0.849
1574950505.757589,38481.667,6073,3,AY,1,100,0.850
1574950505.802001,38519.000,6073,3,AY,1,100,0.846
1574950505.840068,38551.000,6091,3,AY,1,100,0.849
1574950505.878135,38583.000,6091,3,AY,1,100,0.847
1574950505.916203,38615.000,6091,3,AY,1,100,0.847
1574950505.961407,38653.000,6109,3,AY,1,100,0.847
1574950506.006612,38691.000,6109,3,AY,1,100,0.848
1574950506.051817,38729.000,6109,3,AY,1,100,0.847
1574950506.092659,38763.333,6127,3,AY,1,100,0.846
1574950506.133502,38797.667,6127,3,AY,1,100,0.847
1574950506.174345,38832.000,6127,3,AY,1,100,0.849
1574950506.214792,38866.000,6145,3,AY,1,100,0.846
1574950506.255238,38900.000,6145,3,AY,1,100,0.847
1574950506.295684,38934.000,6145,3,AY,1,100,0.849
1574950506.333751,38966.000,6163,3,AY,1,100,0.846
1574950506.371819,38998.000,6163,3,AY,1,100,0.848
1574950506.409886,39030.000,6163,3,AY,1,100,0.846
1574950506.448349,39062.333,6180,3,AY,1,100,0.849
1574950506.486813,39094.667,6180,3,AY,1,100,0.846
1574950506.525277,39127.000,6180,3,AY,1,100,0.846
1574950506.566913,39162.000,6199,3,AY,1,100,0.851
1574950506.608549,39197.000,6199,3,AY,1,100,0.845
1574950506.650185,39232.000,6199,3,AY,1,100,0.848
1574950506.689441,39265.000,6217,3,AY,1,100,0.847
1574950506.728698,39298.000,6217,3,AY,1,100,0.847
1574950506.767955,39331.000,6217,3,AY,1,100,0.848
1574950506.809194,39365.667,6233,3,AY,1,100,0.850
1574950506.850434,39400.333,6233,3,AY,1,100,0.849
1574950506.891673,39435.000,6233,3,AY,1,100,0.847
1574950506.933309,39470.000,6251,3,AY,1,100,0.847
1574950506.974945,39505.000,6251,3,AY,1,100,0.846
1574950507.016581,39540.000,6251,3,AY,1,100,0.847
1574950507.057622,39574.500,6269,2,AY,1,100,0.849
1574950507.098663,39609.000,6269,2,AY,1,100,0.848
1574950507.139109,39643.000,6287,4,AY,1,100,0.846
1574950507.179556,39677.000,6287,4,AY,1,100,0.849
1574950507.220002,39711.000,6287,4,AY,1,100,0.847
1574950507.260448,39745.000,6287,4,AY,1,100,0.848
1574950507.300181,39778.400,6307,5,AY,1,100,0.847
1574950507.339914,39811.800,6307,5,AY,1,100,0.846
1574950507.379646,39845.200,6307,5,AY,1,100,0.847
1574950507.419379,39878.600,6307,5,AY,1,100,0.847
1574950507.459111,39912.000,6307,5,AY,1,100,0.846
1574950507.500747,39947.000,6326,2,AY,1,100,0.848
1574950507.542383,39982.000,6326,2,AY,1,100,0.844
1574950507.582829,40016.000,6345,3,AY,1,100,0.846
1574950507.623276,40050.000,6345,3,AY,1,100,0.848
1574950507.663722,40084.000,6345,3,AY,1,100,0.848
1574950507.704169,40118.000,6363,3,AY,1,100,0.847
1574950507.744615,40152.000,6363,3,AY,1,100,0.846
1574950507.785061,40186.000,6363,3,AY,1,100,0.845
1574950507.823128,40218.000,6381,3,AY,1,100,0.849
1574950507.861196,40250.000,6381,3,AY,1,100,0.847
1574950507.899263,40282.000,6381,3,AY,1,100,0.844
1574950507.943278,40319.000,6399,3,AY,1,100,0.845
1574950507.987293,40356.000,6399,3,AY,1,100,0.851
1574950508.031308,40393.000,6399,3,AY,1,100,0.846
1574950508.072944,40428.000,6417,3,AY,1,100,0.850
1574950508.114580,40463.000,6417,3,AY,1,100,0.845
1574950508.156216,40498.000,6417,3,AY,1,100,0.847
1574950508.197059,40532.333,6435,3,AY,1,100,0.847
1574950508.237902,40566.667,6435,3,AY,1,100,0.846
1574950508.278744,40601.000,6435,3,AY,1,100,0.848
1574950508.318794,40634.667,6452,3,AY,1,100,0.849
1574950508.358844,40668.333,6452,3,AY,1,100,0.847
1574950508.398894,40702.000,6452,3,AY,1,100,0.845
1574950508.436961,40734.000,6470,3,AY,1,100,0.848
1574950508.475028,40766.000,6470,3,AY,1,100,0.847
1574950508.513095,40798.000,6470,3,AY,1,100,0.848
1574950508.552352,40831.000,6488,3,AY,1,100,0.848
1574950508.591609,40864.000,6488,3,AY,1,100,0.844
1574950508.630866,40897.000,6488,3,AY,1,100,0.846
1574950508.672502,40932.000,6505,3,AY,1,100,0.848
1574950508.714138,40967.000,6505,3,AY,1,100,0.846
1574950508.755773,41002.000,6505,3,AY,1,100,0.846
1574950508.800582,41039.667,6523,3,AY,1,100,0.851
1574950508.845390,41077.333,6523,3,AY,1,100,0.843
1574950508.890198,41115.000,6523,3,AY,1,100,0.847
1574950508.929851,41148.333,6541,3,AY,1,100,0.849
1574950508.969505,41181.667,6541,3,AY,1,100,0.845
1574950509.009158,41215.000,6541,3,AY,1,100,0.847
1574950509.046035,41246.000,6559,3,AY,1,100,0.846
1574950509.082913,41277.000,6559,3,AY,1,100,0.850
1574950509.119790,41308.000,6559,3,AY,1,100,0.845
1574950509.160237,41342.000,6577,3,AY,1,100,0.848
1574950509.200683,41376.000,6577,3,AY,1,100,0.846
1574950509.241129,41410.000,6577,3,AY,1,100,0.847
1574950509.281972,41444.333,6595,3,AY,1,100,0.849
1574950509.322815,41478.667,6595,3,AY,1,100,0.846
1574950509.363658,41513.000,6595,3,AY,1,100,0.848
1574950509.404897,41547.667,6613,3,AY,1,100,0.847
1574950509.446137,41582.333,6613,3,AY,1,100,0.846
1574950509.487376,41617.000,6613,3,AY,1,100,0.847
1574950509.534960,41657.000,6630,2,AY,1,100,0.848
1574950509.582544,41697.000,6630,2,AY,1,100,0.847
1574950509.619719,41728.250,6649,4,AY,1,100,0.847
1574950509.656894,41759.500,6649,4,AY,1,100,0.846
1574950509.694069,41790.750,6649,4,AY,1,100,0.847
1574950509.731244,41822.000,6649,4,AY,1,100,0.848
1574950509.772285,41856.500,6665,2,AY,1,100,0.848
1574950509.813326,41891.000,6665,2,AY,1,100,0.846
1574950509.854070,41925.250,6683,4,AY,1,100,0.849
1574950509.894814,41959.500,6683,4,AY,1,100,0.845
1574950509.935557,41993.750,6683,4,AY,1,100,0.854
1574950509.976301,42028.000,6683,4,AY,1,100,0.843
1574950510.014368,42060.000,6701,3,AY,1,100,0.849
1574950510.052435,42092.000,6701,3,AY,1,100,0.848
1574950510.090503,42124.000,6701,3,AY,1,100,0.847
1574950510.131346,42158.333,6719,3,AY,1,100,0.850
1574950510.172188,42192.667,6719,3,AY,1,100,0.846
1574950510.213031,42227.000,6719,3,AY,1,100,0.851
1574950510.253081,42260.667,6737,3,AY,1,100,0.848
1574950510.293131,42294.333,6737,3,AY,1,100,0.849
1574950510.333181,42328.000,6737,3,AY,1,100,0.850
1574950510.374420,42362.667,6755,3,AY,1,100,0.847
1574950510.415659,42397.333,6755,3,AY,1,100,0.848
1574950510.456899,42432.000,6755,3,AY,1,100,0.846
1574950510.498138,42466.667,6773,3,AY,1,100,0.846
1574950510.539378,42501.333,6773,3,AY,1,100,0.849
1574950510.580617,42536.000,6773,3,AY,1,100,0.847
1574950510.620270,42569.333,6792,3,AY,1,100,0.846
1574950510.659924,42602.667,6792,3,AY,1,100,0.846
1574950510.699577,42636.000,6792,3,AY,1,100,0.847
1574950510.738040,42668.333,6810,3,AY,1,100,0.848
1574950510.776504,42700.667,6810,3,AY,1,100,0.847
1574950510.814968,42733.000,6810,3,AY,1,100,0.850
1574950510.854225,42766.000,6827,3,AY,1,100,0.847
1574950510.893481,42799.000,6827,3,AY,1,100,0.849
1574950510.932738,42832.000,6827,3,AY,1,100,0.847
1574950510.973978,42866.667,6845,3,AY,1,100,0.849
1574950511.015217,42901.333,6845,3,AY,1,100,0.848
1574950511.056456,42936.000,6845,3,AY,1,100,0.845
1574950511.102851,42975.000,6861,2,AY,1,100,0.847
1574950511.149245,43014.000,6861,2,AY,1,100,0.849
1574950511.189691,43048.000,6879,3,AY,1,100,0.846
1574950511.230138,43082.000,6879,3,AY,1,100,0.847
1574950511.270584,43116.000,6879,3,AY,1,100,0.850
1574950511.308651,43148.000,6897,4,AY,1,100,0.844
1574950511.346718,43180.000,6897,4,AY,1,100,0.848
1574950511.384785,43212.000,6897,4,AY,1,100,0.847
1574950511.422853,43244.000,6897,4,AY,1,100,0.849
1574950511.462109,43277.000,6915,3,AY,1,100,0.850
1574950511.501366,43310.000,6915,3,AY,1,100,0.849
1574950511.540623,43343.000,6915,3,AY,1,100,0.852
1574950511.580673,43376.667,6934,3,AY,1,100,0.847
1574950511.620722,43410.333,6934,3,AY,1,100,0.847
1574950511.660772,43444.000,6934,3,AY,1,100,0.848
1574950511.702408,43479.000,6952,2,AY,1,100,0.846
1574950511.744044,43514.000,6952,2,AY,1,100,0.847
1574950511.789249,43552.000,6970,3,AY,1,100,0.850
1574950511.834454,43590.000,6970,3,AY,1,100,0.846
1574950511.879658,43628.000,6970,3,AY,1,100,0.849
1574950511.917329,43659.667,6988,3,AY,1,100,0.848
1574950511.954999,43691.333,6988,3,AY,1,100,0.848
1574950511.992670,43723.000,6988,3,AY,1,100,0.848
1574950512.031134,43755.333,7005,3,AY,1,100,0.847
1574950512.069597,43787.667,7005,3,AY,1,100,0.846
1574950512.108061,43820.000,7005,3,AY,1,100,0.847
1574950512.148904,43854.333,7023,3,AY,1,100,0.847
1574950512.189747,43888.667,7023,3,AY,1,100,0.851
1574950512.230590,43923.000,7023,3,AY,1,100,0.849
1574950512.271829,43957.667,7039,3,AY,1,100,0.849
1574950512.313068,43992.333,7039,3,AY,1,100,0.848
1574950512.354308,44027.000,7039,3,AY,1,100,0.847
1574950512.395547,44061.667,7057,3,AY,1,100,0.849
1574950512.436787,44096.333,7057,3,AY,1,100,0.848
1574950512.478026,44131.000,7057,3,AY,1,100,0.847
1574950512.520059,44166.333,7075,3,AY,1,100,0.847
1574950512.562091,44201.667,7075,3,AY,1,100,0.850
1574950512.604124,44237.000,7075,3,AY,1,100,0.845
1574950512.641398,44268.333,7094,3,AY,1,100,0.848
1574950512.678672,44299.667,7094,3,AY,1,100,0.847
1574950512.715946,44331.000,7094,3,AY,1,100,0.846
1574950512.756392,44365.000,7112,3,AY,1,100,0.848
1574950512.796839,44399.000,7112,3,AY,1,100,0.852
1574950512.837285,44433.000,7112,3,AY,1,100,0.848
1574950512.877731,44467.000,7130,3,AY,1,100,0.847
1574950512.918177,44501.000,7130,3,AY,1,100,0.849
1574950512.958624,44535.000,7130,3,AY,1,100,0.847
1574950512.999863,44569.667,7148,3,AY,1,100,0.846
1574950513.041103,44604.333,7148,3,AY,1,100,0.848
1574950513.082342,44639.000,7148,3,AY,1,100,0.849
1574950513.121202,44671.667,7166,3,AY,1,100,0.847
1574950513.160062,44704.333,7166,3,AY,1,100,0.847
1574950513.198923,44737.000,7166,3,AY,1,100,0.847
1574950513.235800,44768.000,7184,3,AY,1,100,0.849
1574950513.272678,44799.000,7184,3,AY,1,100,0.847
1574950513.309555,44830.000,7184,3,AY,1,100,0.847
1574950513.349288,44863.400,7205,5,AY,1,100,0.848
1574950513.389020,44896.800,7205,5,AY,1,100,0.848
1574950513.428753,44930.200,7205,5,AY,1,100,0.848
1574950513.468486,44963.600,7205,5,AY,1,100,0.847
1574950513.508218,44997.000,7205,5,AY,1,100,0.850
1574950513.549061,45031.333,7226,3,AY,1,100,0.850
1574950513.589904,45065.667,7226,3,AY,1,100,0.847
1574950513.630747,45100.000,7226,3,AY,1,100,0.848
1574950513.675159,45137.333,7244,3,AY,1,100,0.847
1574950513.719570,45174.667,7244,3,AY,1,100,0.848
1574950513.763982,45212.000,7244,3,AY,1,100,0.850
1574950513.802445,45244.333,7262,3,AY,1,100,0.849
1574950513.840909,45276.667,7262,3,AY,1,100,0.849
1574950513.879373,45309.000,7262,3,AY,1,100,0.847
1574950513.925767,45348.000,7279,2,AY,1,100,0.846
1574950513.972162,45387.000,7279,2,AY,1,100,0.847
1574950514.013797,45422.000,7297,3,AY,1,100,0.848
1574950514.055433,45457.000,7297,3,AY,1,100,0.844
1574950514.097069,45492.000,7297,3,AY,1,100,0.850
1574950514.137516,45526.000,7313,3,AY,1,100,0.850
1574950514.177962,45560.000,7313,3,AY,1,100,0.848
1574950514.218408,45594.000,7313,3,AY,1,100,0.851
1574950514.256475,45626.000,7331,4,AY,1,100,0.849
1574950514.294543,45658.000,7331,4,AY,1,100,0.851
1574950514.332610,45690.000,7331,4,AY,1,100,0.848
1574950514.370677,45722.000,7331,4,AY,1,100,0.848
1574950514.411916,45756.667,7349,3,AY,1,100,0.850
1574950514.453156,45791.333,7349,3,AY,1,100,0.849
1574950514.494395,45826.000,7349,3,AY,1,100,0.849
1574950514.533255,45858.667,7367,3,AY,1,100,0.848
1574950514.572115,45891.333,7367,3,AY,1,100,0.849
1574950514.610976,45924.000,7367,3,AY,1,100,0.850
1574950514.651422,45958.000,7386,3,AY,1,100,0.845
1574950514.691868,45992.000,7386,3,AY,1,100,0.852
1574950514.732315,46026.000,7386,3,AY,1,100,0.849
1574950514.773356,46060.500,7404,2,AY,1,100,0.843
1574950514.814397,46095.000,7404,2,AY,1,100,0.853
1574950514.855636,46129.667,7422,3,AY,1,100,0.853
1574950514.896876,46164.333,7422,3,AY,1,100,0.843
1574950514.938115,46199.000,7422,3,AY,1,100,0.848
1574950514.978165,46232.667,7440,3,AY,1,100,0.855
1574950515.018215,46266.333,7440,3,AY,1,100,0.847
1574950515.058264,46300.000,7440,3,AY,1,100,0.848
1574950515.099504,46334.667,7457,3,AY,1,100,0.851
1574950515.140743,46369.333,7457,3,AY,1,100,0.850
1574950515.181983,46404.000,7457,3,AY,1,100,0.854
1574950515.221240,46437.000,7475,3,AY,1,100,0.843
1574950515.260496,46470.000,7475,3,AY,1,100,0.844
1574950515.299753,46503.000,7475,3,AY,1,100,0.858
1574950515.340199,46537.000,7493,3,AY,1,100,0.847
1574950515.380646,46571.000,7493,3,AY,1,100,0.847
1574950515.421092,46605.000,7493,3,AY,1,100,0.851
1574950515.462332,46639.667,7509,3,AY,1,100,0.849
1574950515.503571,46674.333,7509,3,AY,1,100,0.847
1574950515.544810,46709.000,7509,3,AY,1,100,0.850
1574950515.584067,46742.000,7528,3,AY,1,100,0.849
1574950515.623324,46775.000,7528,3,AY,1,100,0.851
1574950515.662580,46808.000,7528,3,AY,1,100,0.851
1574950515.700648,46840.000,7546,4,AY,1,100,0.849
1574950515.738715,46872.000,7546,4,AY,1,100,0.849
1574950515.776782,46904.000,7546,4,AY,1,100,0.849
1574950515.814849,46936.000,7546,4,AY,1,100,0.850
1574950515.860649,46974.500,7564,2,AY,1,100,0.848
1574950515.906448,47013.000,7564,2,AY,1,100,0.850
1574950515.947688,47047.667,7582,3,AY,1,100,0.844
1574950515.988927,47082.333,7582,3,AY,1,100,0.852
1574950516.030166,47117.000,7582,3,AY,1,100,0.851
1574950516.071406,47151.667,7600,3,AY,1,100,0.851
1574950516.112645,47186.333,7600,3,AY,1,100,0.859
1574950516.153885,47221.000,7600,3,AY,1,100,0.845
1574950516.193934,47254.667,7618,3,AY,1,100,0.860
1574950516.233984,47288.333,7618,3,AY,1,100,0.850
1574950516.274034,47322.000,7618,3,AY,1,100,0.844
1574950516.311705,47353.667,7636,3,AY,1,100,0.854
1574950516.349375,47385.333,7636,3,AY,1,100,0.851
1574950516.387046,47417.000,7636,3,AY,1,100,0.850
1574950516.426302,47450.000,7653,3,AY,1,100,0.851
1574950516.465559,47483.000,7653,3,AY,1,100,0.854
1574950516.504816,47516.000,7653,3,AY,1,100,0.852
1574950516.546055,47550.667,7672,3,AY,1,100,0.847
1574950516.587295,47585.333,7672,3,AY,1,100,0.854
1574950516.628534,47620.000,7672,3,AY,1,100,0.853
1574950516.669774,47654.667,7688,3,AY,1,100,0.846
1574950516.711013,47689.333,7688,3,AY,1,100,0.850
1574950516.752252,47724.000,7688,3,AY,1,100,0.853
1574950516.796268,47761.000,7706,3,AY,1,100,0.851
1574950516.840283,47798.000,7706,3,AY,1,100,0.853
1574950516.884298,47835.000,7706,3,AY,1,100,0.848
1574950516.921968,47866.667,7724,3,AY,1,100,0.854
1574950516.959639,47898.333,7724,3,AY,1,100,0.854
1574950516.997310,47930.000,7724,3,AY,1,100,0.852
1574950517.035773,47962.333,7742,3,AY,1,100,0.848
1574950517.074237,47994.667,7742,3,AY,1,100,0.850
1574950517.112701,48027.000,7742,3,AY,1,100,0.853
1574950517.153543,48061.333,7760,3,AY,1,100,0.849
1574950517.194386,48095.667,7760,3,AY,1,100,0.850
1574950517.235229,48130.000,7760,3,AY,1,100,0.850
1574950517.276072,48164.333,7778,3,AY,1,100,0.853
1574950517.316915,48198.667,7778,3,AY,1,100,0.853
1574950517.357758,48233.000,7778,3,AY,1,100,0.847
1574950517.399394,48268.000,7796,3,AY,1,100,0.854
1574950517.441030,48303.000,7796,3,AY,1,100,0.850
1574950517.482666,48338.000,7796,3,AY,1,100,0.851
1574950517.523509,48372.333,7814,3,AY,1,100,0.850
1574950517.564352,48406.667,7814,3,AY,1,100,0.852
1574950517.605194,48441.000,7814,3,AY,1,100,0.851
1574950517.641675,48471.667,7832,3,AY,1,100,0.852
1574950517.678156,48502.333,7832,3,AY,1,100,0.851
1574950517.714637,48533.000,7832,3,AY,1,100,0.850
1574950517.756273,48568.000,7850,3,AY,1,100,0.851
1574950517.797909,48603.000,7850,3,AY,1,100,0.852
1574950517.839545,48638.000,7850,3,AY,1,100,0.853
1574950517.875233,48668.000,7868,3,AY,1,100,0.852
1574950517.910921,48698.000,7868,3,AY,1,100,0.852
1574950517.946609,48728.000,7868,3,AY,1,100,0.854
1574950517.988245,48763.000,7884,3,AY,1,100,0.852
1574950518.029881,48798.000,7884,3,AY,1,100,0.853
1574950518.071517,48833.000,7884,3,AY,1,100,0.852
1574950518.110774,48866.000,7902,3,AY,1,100,0.853
1574950518.150030,48899.000,7902,3,AY,1,100,0.851
1574950518.189287,48932.000,7902,3,AY,1,100,0.851
1574950518.230526,48966.667,7920,3,AY,1,100,0.852
1574950518.271766,49001.333,7920,3,AY,1,100,0.852
1574950518.313005,49036.000,7920,3,AY,1,100,0.853
1574950518.354245,49070.667,7938,3,AY,1,100,0.852
1574950518.395484,49105.333,7938,3,AY,1,100,0.849
1574950518.436723,49140.000,7938,3,AY,1,100,0.852
1574950518.477170,49174.000,7956,3,AY,1,100,0.851
1574950518.517616,49208.000,7956,3,AY,1,100,0.852
1574950518.558063,49242.000,7956,3,AY,1,100,0.851
1574950518.596130,49274.000,7975,3,AY,1,100,0.850
1574950518.634197,49306.000,7975,3,AY,1,100,0.855
1574950518.672264,49338.000,7975,3,AY,1,100,0.849
1574950518.711521,49371.000,7993,3,AY,1,100,0.851
1574950518.750777,49404.000,7993,3,AY,1,100,0.852
1574950518.790034,49437.000,7993,3,AY,1,100,0.852
1574950518.835239,49475.000,8011,3,AY,1,100,0.853
1574950518.880444,49513.000,8011,3,AY,1,100,0.850
1574950518.925648,49551.000,8011,3,AY,1,100,0.852
1574950518.966095,49585.000,8028,3,AY,1,100,0.851
1574950519.006541,49619.000,8028,3,AY,1,100,0.853
1574950519.046987,49653.000,8028,3,AY,1,100,0.849
1574950519.088227,49687.667,8046,3,AY,1,100,0.850
1574950519.129466,49722.333,8046,3,AY,1,100,0.853
1574950519.170706,49757.000,8046,3,AY,1,100,0.850
1574950519.207980,49788.333,8062,3,AY,1,100,0.852
1574950519.245254,49819.667,8062,3,AY,1,100,0.850
1574950519.282528,49851.000,8062,3,AY,1,100,0.851
1574950519.320992,49883.333,8080,3,AY,1,100,0.852
1574950519.359455,49915.667,8080,3,AY,1,100,0.851
1574950519.397919,49948.000,8080,3,AY,1,100,0.852
1574950519.438841,49982.400,8101,5,AY,1,100,0.851
1574950519.479763,50016.800,8101,5,AY,1,100,0.849
1574950519.520685,50051.200,8101,5,AY,1,100,0.851
1574950519.561608,50085.600,8101,5,AY,1,100,0.852
1574950519.602530,50120.000,8101,5,AY,1,100,0.850
1574950519.650114,50160.000,8121,2,AY,1,100,0.850
1574950519.697698,50200.000,8121,2,AY,1,100,0.851
1574950519.737351,50233.333,8139,3,AY,1,100,0.848
1574950519.777004,50266.667,8139,3,AY,1,100,0.855
1574950519.816657,50300.000,8139,3,AY,1,100,0.848
1574950519.854130,50331.500,8157,4,AY,1,100,0.851
1574950519.891602,50363.000,8157,4,AY,1,100,0.851
1574950519.929074,50394.500,8157,4,AY,1,100,0.852
1574950519.966547,50426.000,8157,4,AY,1,100,0.852
1574950520.007588,50460.500,8173,2,AY,1,100,0.850
1574950520.048629,50495.000,8173,2,AY,1,100,0.852
1574950520.089472,50529.333,8191,3,AY,1,100,0.853
1574950520.130315,50563.667,8191,3,AY,1,100,0.852
1574950520.171158,50598.000,8191,3,AY,1,100,0.852
1574950520.212794,50633.000,8209,3,AY,1,100,0.852
1574950520.254430,50668.000,8209,3,AY,1,100,0.852
1574950520.296065,50703.000,8209,3,AY,1,100,0.851
1574950520.336115,50736.667,8227,3,AY,1,100,0.852
1574950520.376165,50770.333,8227,3,AY,1,100,0.850
1574950520.416215,50804.000,8227,3,AY,1,100,0.854
1574950520.454282,50836.000,8245,3,AY,1,100,0.851
1574950520.492349,50868.000,8245,3,AY,1,100,0.852
1574950520.530416,50900.000,8245,3,AY,1,100,0.853
1574950520.573242,50936.000,8264,3,AY,1,100,0.851
1574950520.616067,50972.000,8264,3,AY,1,100,0.850
1574950520.658893,51008.000,8264,3,AY,1,100,0.853
1574950520.699339,51042.000,8282,3,AY,1,100,0.851
1574950520.739786,51076.000,8282,3,AY,1,100,0.851
1574950520.780232,51110.000,8282,3,AY,1,100,0.851
1574950520.821075,51144.333,8299,3,AY,1,100,0.852
1574950520.861918,51178.667,8299,3,AY,1,100,0.850
1574950520.902761,51213.000,8299,3,AY,1,100,0.852
1574950520.944396,51248.000,8317,3,AY,1,100,0.852
1574950520.986032,51283.000,8317,3,AY,1,100,0.852
1574950521.027668,51318.000,8317,3,AY,1,100,0.852
1574950521.064546,51349.000,8335,3,AY,1,100,0.852
1574950521.101424,51380.000,8335,3,AY,1,100,0.853
1574950521.138301,51411.000,8335,3,AY,1,100,0.854
1574950521.177558,51444.000,8351,3,AY,1,100,0.849
1574950521.216815,51477.000,8351,3,AY,1,100,0.852
1574950521.256071,51510.000,8351,3,AY,1,100,0.852
1574950521.300086,51547.000,8369,3,AY,1,100,0.850
1574950521.344101,51584.000,8369,3,AY,1,100,0.852
1574950521.388117,51621.000,8369,3,AY,1,100,0.853
1574950521.426184,51653.000,8387,3,AY,1,100,0.853
1574950521.464251,51685.000,8387,3,AY,1,100,0.853
1574950521.502318,51717.000,8387,3,AY,1,100,0.853
1574950521.547919,51755.333,8406,3,AY,1,100,0.852
1574950521.593521,51793.667,8406,3,AY,1,100,0.852
1574950521.639122,51832.000,8406,3,AY,1,100,0.850
1574950521.676396,51863.333,8424,3,AY,1,100,0.852
1574950521.713670,51894.667,8424,3,AY,1,100,0.850
1574950521.750944,51926.000,8424,3,AY,1,100,0.851
1574950521.795752,51963.667,8442,3,AY,1,100,0.852
1574950521.840560,52001.333,8442,3,AY,1,100,0.851
1574950521.885369,52039.000,8442,3,AY,1,100,0.855
1574950521.927005,52074.000,8459,2,AY,1,100,0.850
1574950521.968641,52109.000,8459,2,AY,1,100,0.853
1574950522.008492,52142.500,8477,4,AY,1,100,0.851
1574950522.048344,52176.000,8477,4,AY,1,100,0.852
1574950522.088195,52209.500,8477,4,AY,1,100,0.852
1574950522.128047,52243.000,8477,4,AY,1,100,0.850
1574950522.175036,52282.500,8493,2,AY,1,100,0.851
1574950522.222025,52322.000,8493,2,AY,1,100,0.852
1574950522.261678,52355.333,8511,3,AY,1,100,0.853
1574950522.301332,52388.667,8511,3,AY,1,100,0.851
1574950522.340985,52422.000,8511,3,AY,1,100,0.852
1574950522.378754,52453.750,8529,4,AY,1,100,0.850
1574950522.416524,52485.500,8529,4,AY,1,100,0.851
1574950522.454294,52517.250,8529,4,AY,1,100,0.851
1574950522.492064,52549.000,8529,4,AY,1,100,0.853
1574950522.531915,52582.500,8547,2,AY,1,100,0.852
1574950522.571767,52616.000,8547,2,AY,1,100,0.851
1574950522.613006,52650.667,8566,3,AY,1,100,0.851
1574950522.654246,52685.333,8566,3,AY,1,100,0.853
1574950522.695485,52720.000,8566,3,AY,1,100,0.852
1574950522.737121,52755.000,8584,3,AY,1,100,0.854
1574950522.778757,52790.000,8584,3,AY,1,100,0.851
1574950522.820393,52825.000,8584,3,AY,1,100,0.849
1574950522.860443,52858.667,8602,3,AY,1,100,0.853
1574950522.900492,52892.333,8602,3,AY,1,100,0.850
1574950522.940542,52926.000,8602,3,AY,1,100,0.851
1574950522.978609,52958.000,8620,3,AY,1,100,0.856
1574950523.016676,52990.000,8620,3,AY,1,100,0.851
1574950523.054744,53022.000,8620,3,AY,1,100,0.853
1574950523.097173,53057.667,8637,3,AY,1,100,0.851
1574950523.139602,53093.333,8637,3,AY,1,100,0.849
1574950523.182031,53129.000,8637,3,AY,1,100,0.852
1574950523.222477,53163.000,8655,3,AY,1,100,0.853
1574950523.262923,53197.000,8655,3,AY,1,100,0.849
1574950523.303370,53231.000,8655,3,AY,1,100,0.852
1574950523.344213,53265.333,8671,3,AY,1,100,0.851
1574950523.385055,53299.667,8671,3,AY,1,100,0.854
1574950523.425898,53334.000,8671,3,AY,1,100,0.848
1574950523.467138,53368.667,8689,3,AY,1,100,0.854
1574950523.508377,53403.333,8689,3,AY,1,100,0.853
1574950523.549617,53438.000,8689,3,AY,1,100,0.850
1574950523.586891,53469.333,8708,3,AY,1,100,0.851
1574950523.624165,53500.667,8708,3,AY,1,100,0.853
1574950523.661439,53532.000,8708,3,AY,1,100,0.852
1574950523.703868,53567.667,8726,3,AY,1,100,0.853
1574950523.746297,53603.333,8726,3,AY,1,100,0.853
1574950523.788726,53639.000,8726,3,AY,1,100,0.853
1574950523.829965,53673.667,8744,3,AY,1,100,0.851
1574950523.871205,53708.333,8744,3,AY,1,100,0.853
1574950523.912444,53743.000,8744,3,AY,1,100,0.851
1574950523.954080,53778.000,8762,3,AY,1,100,0.854
1574950523.995716,53813.000,8762,3,AY,1,100,0.852
1574950524.037352,53848.000,8762,3,AY,1,100,0.850
1574950524.078988,53883.000,8780,3,AY,1,100,0.852
1574950524.120624,53918.000,8780,3,AY,1,100,0.852
1574950524.162260,53953.000,8780,3,AY,1,100,0.855
1574950524.199137,53984.000,8798,3,AY,1,100,0.850
1574950524.236015,54015.000,8798,3,AY,1,100,0.852
1574950524.272892,54046.000,8798,3,AY,1,100,0.851
1574950524.311752,54078.667,8815,3,AY,1,100,0.854
1574950524.350613,54111.333,8815,3,AY,1,100,0.853
1574950524.389473,54144.000,8815,3,AY,1,100,0.850
1574950524.430712,54178.667,8833,3,AY,1,100,0.854
1574950524.471952,54213.333,8833,3,AY,1,100,0.853
1574950524.513191,54248.000,8833,3,AY,1,100,0.854
1574950524.558792,54286.333,8849,3,AY,1,100,0.854
1574950524.604393,54324.667,8849,3,AY,1,100,0.851
1574950524.649995,54363.000,8849,3,AY,1,100,0.852
1574950524.690838,54397.333,8868,3,AY,1,100,0.852
1574950524.731681,54431.667,8868,3,AY,1,100,0.854
1574950524.772523,54466.000,8868,3,AY,1,100,0.853
1574950524.810194,54497.667,8886,3,AY,1,100,0.845
1574950524.847865,54529.333,8886,3,AY,1,100,0.855
1574950524.885535,54561.000,8886,3,AY,1,100,0.853
1574950524.923602,54593.000,8904,3,AY,1,100,0.850
1574950524.961669,54625.000,8904,3,AY,1,100,0.849
1574950524.999737,54657.000,8904,3,AY,1,100,0.855
1574950525.040580,54691.333,8922,3,AY,1,100,0.849
1574950525.081422,54725.667,8922,3,AY,1,100,0.855
1574950525.122265,54760.000,8922,3,AY,1,100,0.851
1574950525.163505,54794.667,8940,3,AY,1,100,0.851
1574950525.204744,54829.333,8940,3,AY,1,100,0.853
1574950525.245984,54864.000,8940,3,AY,1,100,0.851
1574950525.287223,54898.667,8958,3,AY,1,100,0.852
1574950525.328462,54933.333,8958,3,AY,1,100,0.854
1574950525.369702,54968.000,8958,3,AY,1,100,0.853
1574950525.410545,55002.333,8976,3,AY,1,100,0.852
1574950525.451387,55036.667,8976,3,AY,1,100,0.854
1574950525.492230,55071.000,8976,3,AY,1,100,0.852
1574950525.531487,55104.000,8997,5,AY,1,100,0.854
1574950525.570744,55137.000,8997,5,AY,1,100,0.850
1574950525.610001,55170.000,8997,5,AY,1,100,0.852
1574950525.649257,55203.000,8997,5,AY,1,100,0.857
1574950525.688514,55236.000,8997,5,AY,1,100,0.854
1574950525.730745,55271.500,9018,2,AY,1,100,0.850
1574950525.772975,55307.000,9018,2,AY,1,100,0.849
1574950525.809853,55338.000,9036,4,AY,1,100,0.850
1574950525.846731,55369.000,9036,4,AY,1,100,0.857
1574950525.883608,55400.000,9036,4,AY,1,100,0.857
1574950525.920486,55431.000,9036,4,AY,1,100,0.846
1574950525.963906,55467.500,9054,2,AY,1,100,0.852
1574950526.007326,55504.000,9054,2,AY,1,100,0.853
1574950526.047475,55537.750,9072,4,AY,1,100,0.855
1574950526.087624,55571.500,9072,4,AY,1,100,0.854
1574950526.127773,55605.250,9072,4,AY,1,100,0.850
1574950526.167922,55639.000,9072,4,AY,1,100,0.852
1574950526.209558,55674.000,9090,2,AY,1,100,0.850
1574950526.251194,55709.000,9090,2,AY,1,100,0.854
1574950526.292037,55743.333,9107,3,AY,1,100,0.849
1574950526.332880,55777.667,9107,3,AY,1,100,0.853
1574950526.373723,55812.000,9107,3,AY,1,100,0.852
1574950526.413376,55845.333,9125,3,AY,1,100,0.853
1574950526.453029,55878.667,9125,3,AY,1,100,0.854
1574950526.492682,55912.000,9125,3,AY,1,100,0.849
1574950526.531146,55944.333,9141,3,AY,1,100,0.854
1574950526.569610,55976.667,9141,3,AY,1,100,0.855
1574950526.608073,56009.000,9141,3,AY,1,100,0.850
1574950526.647330,56042.000,9160,4,AY,1,100,0.855
1574950526.686587,56075.000,9160,4,AY,1,100,0.852
1574950526.725844,56108.000,9160,4,AY,1,100,0.849
1574950526.765100,56141.000,9160,4,AY,1,100,0.851
1574950526.803961,56173.667,9178,3,AY,1,100,0.859
1574950526.842821,56206.333,9178,3,AY,1,100,0.847
1574950526.881681,56239.000,9178,3,AY,1,100,0.851
1574950526.922524,56273.333,9196,3,AY,1,100,0.854
1574950526.963367,56307.667,9196,3,AY,1,100,0.852
1574950527.004210,56342.000,9196,3,AY,1,100,0.852
1574950527.051199,56381.500,9214,2,AY,1,100,0.849
1574950527.098188,56421.000,9214,2,AY,1,100,0.855
1574950527.139427,56455.667,9232,3,AY,1,100,0.851
1574950527.180667,56490.333,9232,3,AY,1,100,0.851
1574950527.221906,56525.000,9232,3,AY,1,100,0.852
1574950527.261163,56558.000,9250,3,AY,1,100,0.851
1574950527.300420,56591.000,9250,3,AY,1,100,0.850
1574950527.339676,56624.000,9250,3,AY,1,100,0.851
1574950527.377347,56655.667,9268,3,AY,1,100,0.853
1574950527.415018,56687.333,9268,3,AY,1,100,0.852
1574950527.452688,56719.000,9268,3,AY,1,100,0.849
1574950527.492738,56752.667,9285,3,AY,1,100,0.852
1574950527.532788,56786.333,9285,3,AY,1,100,0.849
1574950527.572838,56820.000,9285,3,AY,1,100,0.854
1574950527.613680,56854.333,9304,3,AY,1,100,0.855
1574950527.654523,56888.667,9304,3,AY,1,100,0.853
1574950527.695366,56923.000,9304,3,AY,1,100,0.846
1574950527.736606,56957.667,9320,3,AY,1,100,0.860
1574950527.777845,56992.333,9320,3,AY,1,100,0.851
1574950527.819084,57027.000,9320,3,AY,1,100,0.856
1574950527.862703,57063.667,9338,3,AY,1,100,0.855
1574950527.906322,57100.333,9338,3,AY,1,100,0.850
1574950527.949940,57137.000,9338,3,AY,1,100,0.848
1574950527.987611,57168.667,9356,3,AY,1,100,0.856
1574950528.025281,57200.333,9356,3,AY,1,100,0.854
1574950528.062952,57232.000,9356,3,AY,1,100,0.853
1574950528.103002,57265.667,9374,3,AY,1,100,0.853
1574950528.143052,57299.333,9374,3,AY,1,100,0.849
1574950528.183101,57333.000,9374,3,AY,1,100,0.851
1574950528.224737,57368.000,9392,3,AY,1,100,0.847
1574950528.266373,57403.000,9392,3,AY,1,100,0.852
1574950528.308009,57438.000,9392,3,AY,1,100,0.859
1574950528.349249,57472.667,9410,3,AY,1,100,0.848
1574950528.390488,57507.333,9410,3,AY,1,100,0.847
1574950528.431727,57542.000,9410,3,AY,1,100,0.861
1574950528.472174,57576.000,9428,3,AY,1,100,0.852
1574950528.512620,57610.000,9428,3,AY,1,100,0.850
1574950528.553066,57644.000,9428,3,AY,1,100,0.853
1574950528.590341,57675.333,9447,3,AY,1,100,0.852
1574950528.627615,57706.667,9447,3,AY,1,100,0.856
1574950528.664889,57738.000,9447,3,AY,1,100,0.845
1574950528.708507,57774.667,9464,3,AY,1,100,0.855
1574950528.752126,57811.333,9464,3,AY,1,100,0.857
1574950528.795744,57848.000,9464,3,AY,1,100,0.848
1574950528.837380,57883.000,9482,3,AY,1,100,0.855
1574950528.879016,57918.000,9482,3,AY,1,100,0.853
1574950528.920652,57953.000,9482,3,AY,1,100,0.851
1574950528.961892,57987.667,9498,3,AY,1,100,0.853
1574950529.003131,58022.333,9498,3,AY,1,100,0.850
1574950529.044371,58057.000,9498,3,AY,1,100,0.851
1574950529.083627,58090.000,9516,3,AY,1,100,0.854
1574950529.122884,58123.000,9516,3,AY,1,100,0.852
1574950529.162141,58156.000,9516,3,AY,1,100,0.853
1574950529.199811,58187.667,9534,3,AY,1,100,0.851
1574950529.237482,58219.333,9534,3,AY,1,100,0.853
1574950529.275153,58251.000,9534,3,AY,1,100,0.856
1574950529.313220,58283.000,9552,3,AY,1,100,0.851
1574950529.351287,58315.000,9552,3,AY,1,100,0.854
1574950529.389354,58347.000,9552,3,AY,1,100,0.855
1574950529.434559,58385.000,9570,3,AY,1,100,0.854
1574950529.479764,58423.000,9570,3,AY,1,100,0.854
1574950529.524968,58461.000,9570,3,AY,1,100,0.854
1574950529.566208,58495.667,9588,3,AY,1,100,0.854
1574950529.607447,58530.333,9588,3,AY,1,100,0.851
1574950529.648686,58565.000,9588,3,AY,1,100,0.853
1574950529.686357,58596.667,9607,3,AY,1,100,0.852
1574950529.724028,58628.333,9607,3,AY,1,100,0.851
1574950529.761698,58660.000,9607,3,AY,1,100,0.856
1574950529.809282,58700.000,9624,2,AY,1,100,0.854
1574950529.856866,58740.000,9624,2,AY,1,100,0.849
1574950529.895825,58772.750,9642,4,AY,1,100,0.860
1574950529.934785,58805.500,9642,4,AY,1,100,0.847
1574950529.973744,58838.250,9642,4,AY,1,100,0.851
1574950530.012703,58871.000,9642,4,AY,1,100,0.858
1574950530.059693,58910.500,9658,2,AY,1,100,0.853
1574950530.106682,58950.000,9658,2,AY,1,100,0.848
1574950530.147128,58984.000,9676,3,AY,1,100,0.852
1574950530.187574,59018.000,9676,3,AY,1,100,0.861
1574950530.228021,59052.000,9676,3,AY,1,100,0.849
1574950530.265691,59083.667,9694,3,AY,1,100,0.854
1574950530.303362,59115.333,9694,3,AY,1,100,0.855
1574950530.341033,59147.000,9694,3,AY,1,100,0.851
1574950530.381082,59180.667,9712,3,AY,1,100,0.854
1574950530.421132,59214.333,9712,3,AY,1,100,0.856
1574950530.461182,59248.000,9712,3,AY,1,100,0.853
1574950530.501628,59282.000,9730,3,AY,1,100,0.852
1574950530.542075,59316.000,9730,3,AY,1,100,0.854
1574950530.582521,59350.000,9730,3,AY,1,100,0.852
1574950530.624157,59385.000,9749,3,AY,1,100,0.857
1574950530.665793,59420.000,9749,3,AY,1,100,0.853
1574950530.707429,59455.000,9749,3,AY,1,100,0.850
1574950530.748668,59489.667,9767,3,AY,1,100,0.855
1574950530.789908,59524.333,9767,3,AY,1,100,0.854
1574950530.831147,59559.000,9767,3,AY,1,100,0.852
1574950530.872386,59593.667,9785,3,AY,1,100,0.854
1574950530.913626,59628.333,9785,3,AY,1,100,0.852
1574950530.954865,59663.000,9785,3,AY,1,100,0.854
1574950530.993329,59695.333,9802,3,AY,1,100,0.853
1574950531.031793,59727.667,9802,3,AY,1,100,0.851
1574950531.070256,59760.000,9802,3,AY,1,100,0.856
1574950531.111496,59794.667,9820,3,AY,1,100,0.851
1574950531.152735,59829.333,9820,3,AY,1,100,0.854
1574950531.193974,59864.000,9820,3,AY,1,100,0.846
1574950531.234817,59898.333,9836,3,AY,1,100,0.854
1574950531.275660,59932.667,9836,3,AY,1,100,0.855
1574950531.316503,59967.000,9836,3,AY,1,100,0.852
1574950531.357346,60001.333,9854,3,AY,1,100,0.849
1574950531.398189,60035.667,9854,3,AY,1,100,0.854
1574950531.439032,60070.000,9854,3,AY,1,100,0.854
1574950531.477099,60102.000,9872,3,AY,1,100,0.854
1574950531.515166,60134.000,9872,3,AY,1,100,0.852
1574950531.553233,60166.000,9872,3,AY,1,100,0.852
1574950531.594869,60201.000,9894,5,AY,1,100,0.851
1574950531.636505,60236.000,9894,5,AY,1,100,0.847
1574950531.678141,60271.000,9894,5,AY,1,100,0.857
1574950531.719777,60306.000,9894,5,AY,1,100,0.852
1574950531.761413,60341.000,9894,5,AY,1,100,0.861
1574950531.803049,60376.000,9913,2,AY,1,100,0.848
1574950531.844685,60411.000,9913,2,AY,1,100,0.850
1574950531.885924,60445.667,9929,3,AY,1,100,0.857
1574950531.927164,60480.333,9929,3,AY,1,100,0.858
1574950531.968403,60515.000,9929,3,AY,1,100,0.850
1574950532.008453,60548.667,9947,3,AY,1,100,0.851
1574950532.048502,60582.333,9947,3,AY,1,100,0.855
1574950532.088552,60616.000,9947,3,AY,1,100,0.851
1574950532.126917,60648.250,9965,4,AY,1,100,0.854
1574950532.165281,60680.500,9965,4,AY,1,100,0.847
1574950532.203646,60712.750,9965,4,AY,1,100,0.838
1574950532.242011,60745.000,9965,4,AY,1,100,0.872
1574950532.281664,60778.333,9983,3,AY,1,100,0.850
1574950532.321317,60811.667,9983,3,AY,1,100,0.846
1574950532.360970,60845.000,9983,3,AY,1,100,0.855
1574950532.402606,60880.000,10001,2,AY,1,100,0.858
1574950532.444242,60915.000,10001,2,AY,1,100,0.853
1574950532.485482,60949.667,10019,3,AY,1,100,0.856
1574950532.526721,60984.333,10019,3,AY,1,100,0.853
1574950532.567961,61019.000,10019,3,AY,1,100,0.854
1574950532.612769,61056.667,10038,3,AY,1,100,0.847
1574950532.657577,61094.333,10038,3,AY,1,100,0.855
1574950532.702385,61132.000,10038,3,AY,1,100,0.855
1574950532.739659,61163.333,10056,3,AY,1,100,0.855
1574950532.776933,61194.667,10056,3,AY,1,100,0.854
1574950532.814207,61226.000,10056,3,AY,1,100,0.850
1574950532.852274,61258.000,10074,3,AY,1,100,0.857
1574950532.890342,61290.000,10074,3,AY,1,100,0.853
1574950532.928409,61322.000,10074,3,AY,1,100,0.850
1574950532.969252,61356.333,10091,3,AY,1,100,0.859
1574950533.010094,61390.667,10091,3,AY,1,100,0.849
1574950533.050937,61425.000,10091,3,AY,1,100,0.847
1574950533.091780,61459.333,10109,3,AY,1,100,0.861
1574950533.132623,61493.667,10109,3,AY,1,100,0.854
1574950533.173466,61528.000,10109,3,AY,1,100,0.851
1574950533.215102,61563.000,10125,3,AY,1,100,0.855
1574950533.256738,61598.000,10125,3,AY,1,100,0.852
1574950533.298374,61633.000,10125,3,AY,1,100,0.853
1574950533.339216,61667.333,10143,3,AY,1,100,0.856
1574950533.380059,61701.667,10143,3,AY,1,100,0.859
1574950533.420902,61736.000,10143,3,AY,1,100,0.848
1574950533.457383,61766.667,10161,3,AY,1,100,0.852
1574950533.493864,61797.333,10161,3,AY,1,100,0.855
1574950533.530345,61828.000,10161,3,AY,1,100,0.857
1574950533.571981,61863.000,10180,3,AY,1,100,0.856
1574950533.613617,61898.000,10180,3,AY,1,100,0.853
1574950533.655253,61933.000,10180,3,AY,1,100,0.856
1574950533.691536,61963.500,10198,4,AY,1,100,0.855
1574950533.727819,61994.000,10198,4,AY,1,100,0.852
1574950533.764101,62024.500,10198,4,AY,1,100,0.856
1574950533.800384,62055.000,10198,4,AY,1,100,0.854
1574950533.842020,62090.000,10216,3,AY,1,100,0.853
1574950533.883656,62125.000,10216,3,AY,1,100,0.855
1574950533.925292,62160.000,10216,3,AY,1,100,0.855
1574950533.965143,62193.500,10234,2,AY,1,100,0.854
1574950534.004995,62227.000,10234,2,AY,1,100,0.854
1574950534.046234,62261.667,10252,3,AY,1,100,0.854
1574950534.087474,62296.333,10252,3,AY,1,100,0.854
1574950534.128713,62331.000,10252,3,AY,1,100,0.856
1574950534.170349,62366.000,10269,3,AY,1,100,0.851
1574950534.211985,62401.000,10269,3,AY,1,100,0.853
1574950534.253621,62436.000,10269,3,AY,1,100,0.852
1574950534.295257,62471.000,10287,3,AY,1,100,0.853
1574950534.336893,62506.000,10287,3,AY,1,100,0.853
1574950534.378529,62541.000,10287,3,AY,1,100,0.852
1574950534.420165,62576.000,10303,3,AY,1,100,0.852
1574950534.461801,62611.000,10303,3,AY,1,100,0.856
1574950534.503437,62646.000,10303,3,AY,1,100,0.852
1574950534.542693,62679.000,10321,3,AY,1,100,0.854
1574950534.581950,62712.000,10321,3,AY,1,100,0.849
1574950534.621207,62745.000,10321,3,AY,1,100,0.856
1574950534.659274,62777.000,10340,3,AY,1,100,0.853
1574950534.697341,62809.000,10340,3,AY,1,100,0.852
1574950534.735408,62841.000,10340,3,AY,1,100,0.854
1574950534.775458,62874.667,10358,3,AY,1,100,0.853
1574950534.815508,62908.333,10358,3,AY,1,100,0.854
1574950534.855558,62942.000,10358,3,AY,1,100,0.852
1574950534.900366,62979.667,10376,3,AY,1,100,0.852
1574950534.945174,63017.333,10376,3,AY,1,100,0.854
1574950534.989982,63055.000,10376,3,AY,1,100,0.853
1574950535.031618,63090.000,10394,3,AY,1,100,0.854
1574950535.073254,63125.000,10394,3,AY,1,100,0.856
1574950535.114890,63160.000,10394,3,AY,1,100,0.854
1574950535.154147,63193.000,10412,3,AY,1,100,0.854
1574950535.193404,63226.000,10412,3,AY,1,100,0.854
1574950535.232660,63259.000,10412,3,AY,1,100,0.857
1574950535.271124,63291.333,10430,3,AY,1,100,0.855
1574950535.309588,63323.667,10430,3,AY,1,100,0.857
1574950535.348051,63356.000,10430,3,AY,1,100,0.853
1574950535.387308,63389.000,10447,3,AY,1,100,0.854
1574950535.426565,63422.000,10447,3,AY,1,100,0.854
1574950535.465822,63455.000,10447,3,AY,1,100,0.854
1574950535.507457,63490.000,10465,3,AY,1,100,0.854
1574950535.549093,63525.000,10465,3,AY,1,100,0.853
1574950535.590729,63560.000,10465,3,AY,1,100,0.859
1574950535.631572,63594.333,10482,3,AY,1,100,0.850
1574950535.672415,63628.667,10482,3,AY,1,100,0.852
1574950535.713258,63663.000,10482,3,AY,1,100,0.856
1574950535.756480,63699.333,10500,3,AY,1,100,0.854
1574950535.799702,63735.667,10500,3,AY,1,100,0.855
1574950535.842924,63772.000,10500,3,AY,1,100,0.851
1574950535.880991,63804.000,10518,3,AY,1,100,0.858
1574950535.919059,63836.000,10518,3,AY,1,100,0.854
1574950535.957126,63868.000,10518,3,AY,1,100,0.856
1574950535.996382,63901.000,10536,3,AY,1,100,0.856
1574950536.035639,63934.000,10536,3,AY,1,100,0.852
1574950536.074896,63967.000,10536,3,AY,1,100,0.852
1574950536.115739,64001.333,10554,3,AY,1,100,0.861
1574950536.156582,64035.667,10554,3,AY,1,100,0.854
1574950536.197424,64070.000,10554,3,AY,1,100,0.849
1574950536.239060,64105.000,10572,3,AY,1,100,0.855
1574950536.280696,64140.000,10572,3,AY,1,100,0.854
1574950536.322332,64175.000,10572,3,AY,1,100,0.857
1574950536.362779,64209.000,10590,3,AY,1,100,0.851
1574950536.403225,64243.000,10590,3,AY,1,100,0.853
1574950536.443671,64277.000,10590,3,AY,1,100,0.851
1574950536.481739,64309.000,10608,3,AY,1,100,0.856
1574950536.519806,64341.000,10608,3,AY,1,100,0.849
1574950536.557873,64373.000,10608,3,AY,1,100,0.859
1574950536.596535,64405.500,10626,2,AY,1,100,0.854
1574950536.635197,64438.000,10626,2,AY,1,100,0.853
1574950536.678617,64474.500,10644,4,AY,1,100,0.856
1574950536.722037,64511.000,10644,4,AY,1,100,0.860
1574950536.765458,64547.500,10644,4,AY,1,100,0.854
1574950536.808878,64584.000,10644,4,AY,1,100,0.842
1574950536.850514,64619.000,10660,2,AY,1,100,0.856
1574950536.892150,64654.000,10660,2,AY,1,100,0.869
1574950536.933389,64688.667,10678,3,AY,1,100,0.845
1574950536.974629,64723.333,10678,3,AY,1,100,0.853
1574950537.015868,64758.000,10678,3,AY,1,100,0.858
1574950537.053043,64789.250,10696,4,AY,1,100,0.854
1574950537.090218,64820.500,10696,4,AY,1,100,0.855
1574950537.127393,64851.750,10696,4,AY,1,100,0.854
1574950537.164568,64883.000,10696,4,AY,1,100,0.854
1574950537.203825,64916.000,10714,3,AY,1,100,0.851
1574950537.243081,64949.000,10714,3,AY,1,100,0.854
1574950537.282338,64982.000,10714,3,AY,1,100,0.857
1574950537.322388,65015.667,10732,3,AY,1,100,0.855
1574950537.362438,65049.333,10732,3,AY,1,100,0.854
1574950537.402488,65083.000,10732,3,AY,1,100,0.854
1574950537.444124,65118.000,10750,2,AY,1,100,0.856
1574950537.485759,65153.000,10750,2,AY,1,100,0.855
1574950537.530568,65190.667,10768,3,AY,1,100,0.850
1574950537.575376,65228.333,10768,3,AY,1,100,0.853
1574950537.620184,65266.000,10768,3,AY,1,100,0.856
1574950537.662296,65301.400,10790,5,AY,1,100,0.855
1574950537.704407,65336.800,10790,5,AY,1,100,0.852
1574950537.746519,65372.200,10790,5,AY,1,100,0.853
1574950537.788631,65407.600,10790,5,AY,1,100,0.854
1574950537.830743,65443.000,10790,5,AY,1,100,0.854
1574950537.869206,65475.333,10810,3,AY,1,100,0.858
1574950537.907670,65507.667,10810,3,AY,1,100,0.853
1574950537.946134,65540.000,10810,3,AY,1,100,0.853
1574950537.987770,65575.000,10828,2,AY,1,100,0.854
1574950538.029406,65610.000,10828,2,AY,1,100,0.851
1574950538.071042,65645.000,10846,4,AY,1,100,0.853
1574950538.112678,65680.000,10846,4,AY,1,100,0.854
1574950538.154314,65715.000,10846,4,AY,1,100,0.854
1574950538.195950,65750.000,10846,4,AY,1,100,0.854
1574950538.234017,65782.000,10864,3,AY,1,100,0.848
1574950538.272084,65814.000,10864,3,AY,1,100,0.854
1574950538.310151,65846.000,10864,3,AY,1,100,0.867
1574950538.350597,65880.000,10882,3,AY,1,100,0.846
1574950538.391044,65914.000,10882,3,AY,1,100,0.855
1574950538.431490,65948.000,10882,3,AY,1,100,0.855
1574950538.472729,65982.667,10899,3,AY,1,100,0.847
1574950538.513969,66017.333,10899,3,AY,1,100,0.855
1574950538.555208,66052.000,10899,3,AY,1,100,0.853
1574950538.596447,66086.667,10915,3,AY,1,100,0.853
1574950538.637687,66121.333,10915,3,AY,1,100,0.856
1574950538.678926,66156.000,10915,3,AY,1,100,0.849
1574950538.717787,66188.667,10934,3,AY,1,100,0.865
1574950538.756647,66221.333,10934,3,AY,1,100,0.848
1574950538.795507,66254.000,10934,3,AY,1,100,0.852
1574950538.834169,66286.500,10952,2,AY,1,100,0.859
1574950538.872831,66319.000,10952,2,AY,1,100,0.849
1574950538.914467,66354.000,10970,4,AY,1,100,0.853
1574950538.956103,66389.000,10970,4,AY,1,100,0.857
1574950538.997739,66424.000,10970,4,AY,1,100,0.851
1574950539.039375,66459.000,10970,4,AY,1,100,0.853
1574950539.080416,66493.500,10988,2,AY,1,100,0.858
1574950539.121457,66528.000,10988,2,AY,1,100,0.856
1574950539.162300,66562.333,11006,3,AY,1,100,0.841
1574950539.203143,66596.667,11006,3,AY,1,100,0.860
1574950539.243985,66631.000,11006,3,AY,1,100,0.863
1574950539.285225,66665.667,11024,3,AY,1,100,0.838
1574950539.326464,66700.333,11024,3,AY,1,100,0.865
1574950539.367704,66735.000,11024,3,AY,1,100,0.856
1574950539.405473,66766.750,11042,4,AY,1,100,0.855
1574950539.443243,66798.500,11042,4,AY,1,100,0.850
1574950539.481013,66830.250,11042,4,AY,1,100,0.857
1574950539.518783,66862.000,11042,4,AY,1,100,0.855
1574950539.557643,66894.667,11060,3,AY,1,100,0.845
1574950539.596503,66927.333,11060,3,AY,1,100,0.862
1574950539.635363,66960.000,11060,3,AY,1,100,0.853
1574950539.676404,66994.500,11078,2,AY,1,100,0.860
1574950539.717446,67029.000,11078,2,AY,1,100,0.848
1574950539.763047,67067.333,11096,3,AY,1,100,0.842
1574950539.808648,67105.667,11096,3,AY,1,100,0.873
1574950539.854249,67144.000,11096,3,AY,1,100,0.853
1574950539.895885,67179.000,11112,3,AY,1,100,0.847
1574950539.937521,67214.000,11112,3,AY,1,100,0.853
1574950539.979157,67249.000,11112,3,AY,1,100,0.850
1574950540.016035,67280.000,11130,3,AY,1,100,0.868
1574950540.052912,67311.000,11130,3,AY,1,100,0.844
1574950540.089790,67342.000,11130,3,AY,1,100,0.865
1574950540.128650,67374.667,11148,3,AY,1,100,0.851
1574950540.167510,67407.333,11148,3,AY,1,100,0.849
1574950540.206370,67440.000,11148,3,AY,1,100,0.853
1574950540.247610,67474.667,11166,3,AY,1,100,0.861
1574950540.288849,67509.333,11166,3,AY,1,100,0.853
1574950540.330089,67544.000,11166,3,AY,1,100,0.856
1574950540.371725,67579.000,11184,3,AY,1,100,0.855
1574950540.413361,67614.000,11184,3,AY,1,100,0.848
1574950540.454996,67649.000,11184,3,AY,1,100,0.852
1574950540.497029,67684.333,11202,3,AY,1,100,0.860
1574950540.539061,67719.667,11202,3,AY,1,100,0.856
1574950540.581094,67755.000,11202,3,AY,1,100,0.851
1574950540.621937,67789.333,11221,3,AY,1,100,0.858
1574950540.662780,67823.667,11221,3,AY,1,100,0.847
1574950540.703622,67858.000,11221,3,AY,1,100,0.859
1574950540.741690,67890.000,11239,3,AY,1,100,0.856
1574950540.779757,67922.000,11239,3,AY,1,100,0.854
1574950540.817824,67954.000,11239,3,AY,1,100,0.856
1574950540.859063,67988.667,11256,3,AY,1,100,0.852
1574950540.900303,68023.333,11256,3,AY,1,100,0.853
1574950540.941542,68058.000,11256,3,AY,1,100,0.859
1574950540.982781,68092.667,11274,3,AY,1,100,0.854
1574950541.024021,68127.333,11274,3,AY,1,100,0.847
1574950541.065260,68162.000,11274,3,AY,1,100,0.858
1574950541.106500,68196.667,11290,3,AY,1,100,0.852
1574950541.147739,68231.333,11290,3,AY,1,100,0.858
1574950541.188978,68266.000,11290,3,AY,1,100,0.852
1574950541.227442,68298.333,11308,3,AY,1,100,0.850
1574950541.265906,68330.667,11308,3,AY,1,100,0.855
1574950541.304369,68363.000,11308,3,AY,1,100,0.852
1574950541.345609,68397.667,11326,3,AY,1,100,0.853
1574950541.386848,68432.333,11326,3,AY,1,100,0.853
1574950541.428088,68467.000,11326,3,AY,1,100,0.853
1574950541.464172,68497.333,11344,3,AY,1,100,0.853
1574950541.500257,68527.667,11344,3,AY,1,100,0.847
1574950541.536341,68558.000,11344,3,AY,1,100,0.849
1574950541.576391,68591.667,11363,3,AY,1,100,0.853
1574950541.616441,68625.333,11363,3,AY,1,100,0.849
1574950541.656491,68659.000,11363,3,AY,1,100,0.849
1574950541.700902,68696.333,11381,3,AY,1,100,0.854
1574950541.745314,68733.667,11381,3,AY,1,100,0.850
1574950541.789726,68771.000,11381,3,AY,1,100,0.853
1574950541.828189,68803.333,11399,3,AY,1,100,0.856
1574950541.866653,68835.667,11399,3,AY,1,100,0.850
1574950541.905117,68868.000,11399,3,AY,1,100,0.847
1574950541.949132,68905.000,11416,3,AY,1,100,0.855
1574950541.993147,68942.000,11416,3,AY,1,100,0.857
1574950542.037162,68979.000,11416,3,AY,1,100,0.847
1574950542.078005,69013.333,11434,3,AY,1,100,0.853
1574950542.118848,69047.667,11434,3,AY,1,100,0.850
1574950542.159691,69082.000,11434,3,AY,1,100,0.851
1574950542.201921,69117.500,11450,2,AY,1,100,0.853
1574950542.244152,69153.000,11450,2,AY,1,100,0.849
1574950542.282219,69185.000,11468,4,AY,1,100,0.853
1574950542.320286,69217.000,11468,4,AY,1,100,0.851
1574950542.358354,69249.000,11468,4,AY,1,100,0.852
1574950542.396421,69281.000,11468,4,AY,1,100,0.853
1574950542.434884,69313.333,11486,3,AY,1,100,0.856
1574950542.473348,69345.667,11486,3,AY,1,100,0.852
1574950542.511812,69378.000,11486,3,AY,1,100,0.852
1574950542.553448,69413.000,11504,3,AY,1,100,0.854
1574950542.595083,69448.000,11504,3,AY,1,100,0.852
1574950542.636719,69483.000,11504,3,AY,1,100,0.852
1574950542.677959,69517.667,11523,3,AY,1,100,0.854
1574950542.719198,69552.333,11523,3,AY,1,100,0.854
1574950542.760438,69587.000,11523,3,AY,1,100,0.853
1574950542.802074,69622.000,11541,3,AY,1,100,0.853
1574950542.843710,69657.000,11541,3,AY,1,100,0.853
1574950542.885345,69692.000,11541,3,AY,1,100,0.856
1574950542.925792,69726.000,11559,2,AY,1,100,0.851
1574950542.966238,69760.000,11559,2,AY,1,100,0.855
1574950543.008271,69795.333,11576,3,AY,1,100,0.854
1574950543.050303,69830.667,11576,3,AY,1,100,0.849
1574950543.092336,69866.000,11576,3,AY,1,100,0.855
1574950543.133575,69900.667,11594,3,AY,1,100,0.854
1574950543.174814,69935.333,11594,3,AY,1,100,0.855
1574950543.216054,69970.000,11594,3,AY,1,100,0.854
1574950543.254518,70002.333,11612,3,AY,1,100,0.855
1574950543.292981,70034.667,11612,3,AY,1,100,0.854
1574950543.331445,70067.000,11612,3,AY,1,100,0.852
1574950543.371495,70100.667,11629,3,AY,1,100,0.855
1574950543.411545,70134.333,11629,3,AY,1,100,0.854
1574950543.451594,70168.000,11629,3,AY,1,100,0.854
1574950543.492834,70202.667,11646,3,AY,1,100,0.853
1574950543.534073,70237.333,11646,3,AY,1,100,0.854
1574950543.575312,70272.000,11646,3,AY,1,100,0.856
1574950543.616155,70306.333,11665,3,AY,1,100,0.854
1574950543.656998,70340.667,11665,3,AY,1,100,0.853
1574950543.697841,70375.000,11665,3,AY,1,100,0.853
1574950543.736146,70407.200,11686,5,AY,1,100,0.852
1574950543.774451,70439.400,11686,5,AY,1,100,0.855
1574950543.812756,70471.600,11686,5,AY,1,100,0.851
1574950543.851061,70503.800,11686,5,AY,1,100,0.854
1574950543.889366,70536.000,11686,5,AY,1,100,0.853
1574950543.932985,70572.667,11705,3,AY,1,100,0.858
1574950543.976604,70609.333,11705,3,AY,1,100,0.851
1574950544.020222,70646.000,11705,3,AY,1,100,0.847
1574950544.061462,70680.667,11723,3,AY,1,100,0.852
1574950544.102701,70715.333,11723,3,AY,1,100,0.857
1574950544.143940,70750.000,11723,3,AY,1,100,0.855
1574950544.185180,70784.667,11739,3,AY,1,100,0.853
1574950544.226419,70819.333,11739,3,AY,1,100,0.848
1574950544.267659,70854.000,11739,3,AY,1,100,0.853
1574950544.308105,70888.000,11757,3,AY,1,100,0.859
1574950544.348551,70922.000,11757,3,AY,1,100,0.861
1574950544.388998,70956.000,11757,3,AY,1,100,0.850
1574950544.426272,70987.333,11775,3,AY,1,100,0.845
1574950544.463546,71018.667,11775,3,AY,1,100,0.855
1574950544.500820,71050.000,11775,3,AY,1,100,0.862
1574950544.540077,71083.000,11793,3,AY,1,100,0.857
1574950544.579333,71116.000,11793,3,AY,1,100,0.848
1574950544.618590,71149.000,11793,3,AY,1,100,0.852
1574950544.663795,71187.000,11812,3,AY,1,100,0.858
1574950544.709000,71225.000,11812,3,AY,1,100,0.855
1574950544.754204,71263.000,11812,3,AY,1,100,0.855
1574950544.795840,71298.000,11830,2,AY,1,100,0.852
1574950544.837476,71333.000,11830,2,AY,1,100,0.852
1574950544.878319,71367.333,11848,3,AY,1,100,0.854
1574950544.919162,71401.667,11848,3,AY,1,100,0.853
1574950544.960005,71436.000,11848,3,AY,1,100,0.859
1574950544.997477,71467.500,11866,4,AY,1,100,0.850
1574950545.034950,71499.000,11866,4,AY,1,100,0.853
1574950545.072422,71530.500,11866,4,AY,1,100,0.855
1574950545.109894,71562.000,11866,4,AY,1,100,0.855
1574950545.148358,71594.333,11883,3,AY,1,100,0.856
1574950545.186821,71626.667,11883,3,AY,1,100,0.852
1574950545.225285,71659.000,11883,3,AY,1,100,0.854
1574950545.266921,71694.000,11901,3,AY,1,100,0.852
1574950545.308557,71729.000,11901,3,AY,1,100,0.854
1574950545.350193,71764.000,11901,3,AY,1,100,0.850
1574950545.391432,71798.667,11917,3,AY,1,100,0.853
1574950545.432672,71833.333,11917,3,AY,1,100,0.851
1574950545.473911,71868.000,11917,3,AY,1,100,0.858
1574950545.514358,71902.000,11935,2,AY,1,100,0.853
1574950545.554804,71936.000,11935,2,AY,1,100,0.852
1574950545.594953,71969.750,11954,4,AY,1,100,0.853
1574950545.635102,72003.500,11954,4,AY,1,100,0.852
1574950545.675251,72037.250,11954,4,AY,1,100,0.851
1574950545.715400,72071.000,11954,4,AY,1,100,0.856
1574950545.754656,72104.000,11972,3,AY,1,100,0.849
1574950545.793913,72137.000,11972,3,AY,1,100,0.854
1574950545.833170,72170.000,11972,3,AY,1,100,0.850
1574950545.874013,72204.333,11990,3,AY,1,100,0.854
1574950545.914855,72238.667,11990,3,AY,1,100,0.854
1574950545.955698,72273.000,11990,3,AY,1,100,0.850
1574950545.994559,72305.667,12008,3,AY,1,100,0.849
1574950546.033419,72338.333,12008,3,AY,1,100,0.857
1574950546.072279,72371.000,12008,3,AY,1,100,0.849
1574950546.113122,72405.333,12026,3,AY,1,100,0.855
1574950546.153965,72439.667,12026,3,AY,1,100,0.850
1574950546.194808,72474.000,12026,3,AY,1,100,0.855
1574950546.234858,72507.667,12044,3,AY,1,100,0.848
1574950546.274907,72541.333,12044,3,AY,1,100,0.862
1574950546.314957,72575.000,12044,3,AY,1,100,0.855
1574950546.356593,72610.000,12061,2,AY,1,100,0.846
1574950546.398229,72645.000,12061,2,AY,1,100,0.846
1574950546.439865,72680.000,12079,3,AY,1,100,0.855
1574950546.481501,72715.000,12079,3,AY,1,100,0.852
1574950546.523137,72750.000,12079,3,AY,1,100,0.855
1574950546.564376,72784.667,12095,3,AY,1,100,0.857
1574950546.605616,72819.333,12095,3,AY,1,100,0.853
1574950546.646855,72854.000,12095,3,AY,1,100,0.848
1574950546.684625,72885.750,12114,4,AY,1,100,0.852
1574950546.722394,72917.500,12114,4,AY,1,100,0.859
1574950546.760164,72949.250,12114,4,AY,1,100,0.855
1574950546.797934,72981.000,12114,4,AY,1,100,0.848
1574950546.837587,73014.333,12132,3,AY,1,100,0.848
1574950546.877240,73047.667,12132,3,AY,1,100,0.856
1574950546.916894,73081.000,12132,3,AY,1,100,0.855
1574950546.963883,73120.500,12150,2,AY,1,100,0.847
1574950547.010872,73160.000,12150,2,AY,1,100,0.854
1574950547.051318,73194.000,12168,3,AY,1,100,0.853
1574950547.091765,73228.000,12168,3,AY,1,100,0.858
1574950547.132211,73262.000,12168,3,AY,1,100,0.849
1574950547.173054,73296.333,12186,3,AY,1,100,0.854
1574950547.213897,73330.667,12186,3,AY,1,100,0.856
1574950547.254740,73365.000,12186,3,AY,1,100,0.853
1574950547.292807,73397.000,12204,3,AY,1,100,0.848
1574950547.330874,73429.000,12204,3,AY,1,100,0.857
1574950547.368941,73461.000,12204,3,AY,1,100,0.856
1574950547.407008,73493.000,12222,3,AY,1,100,0.850
1574950547.445076,73525.000,12222,3,AY,1,100,0.859
1574950547.483143,73557.000,12222,3,AY,1,100,0.838
1574950547.523589,73591.000,12239,3,AY,1,100,0.859
1574950547.564035,73625.000,12239,3,AY,1,100,0.851
1574950547.604481,73659.000,12239,3,AY,1,100,0.843
1574950547.645324,73693.333,12258,3,AY,1,100,0.852
1574950547.686167,73727.667,12258,3,AY,1,100,0.851
1574950547.727010,73762.000,12258,3,AY,1,100,0.854
1574950547.772611,73800.333,12274,3,AY,1,100,0.853
1574950547.818213,73838.667,12274,3,AY,1,100,0.854
1574950547.863814,73877.000,12274,3,AY,1,100,0.848
1574950547.901881,73909.000,12292,3,AY,1,100,0.852
1574950547.939948,73941.000,12292,3,AY,1,100,0.853
1574950547.978015,73973.000,12292,3,AY,1,100,0.851
1574950548.016083,74005.000,12310,3,AY,1,100,0.854
1574950548.054150,74037.000,12310,3,AY,1,100,0.851
1574950548.092217,74069.000,12310,3,AY,1,100,0.846
1574950548.132663,74103.000,12328,3,AY,1,100,0.852
1574950548.173110,74137.000,12328,3,AY,1,100,0.857
1574950548.213556,74171.000,12328,3,AY,1,100,0.847
1574950548.255192,74206.000,12346,3,AY,1,100,0.850
1574950548.296828,74241.000,12346,3,AY,1,100,0.849
1574950548.338464,74276.000,12346,3,AY,1,100,0.853
1574950548.379703,74310.667,12364,3,AY,1,100,0.850
1574950548.420943,74345.333,12364,3,AY,1,100,0.853
1574950548.462182,74380.000,12364,3,AY,1,100,0.851
1574950548.501439,74413.000,12382,3,AY,1,100,0.849
1574950548.540695,74446.000,12382,3,AY,1,100,0.852
1574950548.579952,74479.000,12382,3,AY,1,100,0.847
1574950548.621192,74513.667,12401,3,AY,1,100,0.854
1574950548.662431,74548.333,12401,3,AY,1,100,0.849
1574950548.703670,74583.000,12401,3,AY,1,100,0.847
1574950548.743324,74616.333,12419,3,AY,1,100,0.859
1574950548.782977,74649.667,12419,3,AY,1,100,0.855
1574950548.822630,74683.000,12419,3,AY,1,100,0.847
1574950548.863869,74717.667,12436,3,AY,1,100,0.843
1574950548.905109,74752.333,12436,3,AY,1,100,0.857
1574950548.946348,74787.000,12436,3,AY,1,100,0.853
1574950548.987984,74822.000,12454,3,AY,1,100,0.844
1574950549.029620,74857.000,12454,3,AY,1,100,0.851
1574950549.071256,74892.000,12454,3,AY,1,100,0.846
1574950549.109720,74924.333,12470,3,AY,1,100,0.848
1574950549.148184,74956.667,12470,3,AY,1,100,0.851
1574950549.186647,74989.000,12470,3,AY,1,100,0.849
1574950549.224714,75021.000,12488,3,AY,1,100,0.853
1574950549.262781,75053.000,12488,3,AY,1,100,0.843
1574950549.300848,75085.000,12488,3,AY,1,100,0.855
1574950549.344071,75121.333,12506,3,AY,1,100,0.844
1574950549.387293,75157.667,12506,3,AY,1,100,0.846
1574950549.430515,75194.000,12506,3,AY,1,100,0.850
1574950549.466996,75224.667,12524,3,AY,1,100,0.851
1574950549.503477,75255.333,12524,3,AY,1,100,0.849
1574950549.539958,75286.000,12524,3,AY,1,100,0.857
1574950549.581594,75321.000,12543,3,AY,1,100,0.850
1574950549.623230,75356.000,12543,3,AY,1,100,0.847
1574950549.664866,75391.000,12543,3,AY,1,100,0.849
1574950549.709277,75428.333,12561,3,AY,1,100,0.852
1574950549.753689,75465.667,12561,3,AY,1,100,0.852
1574950549.798101,75503.000,12561,3,AY,1,100,0.852
1574950549.837060,75535.750,12582,4,AY,1,100,0.850
1574950549.876019,75568.500,12582,4,AY,1,100,0.846
1574950549.914979,75601.250,12582,4,AY,1,100,0.852
1574950549.953938,75634.000,12582,4,AY,1,100,0.854
1574950549.998746,75671.667,12602,3,AY,1,100,0.849
1574950550.043554,75709.333,12602,3,AY,1,100,0.851
1574950550.088363,75747.000,12602,3,AY,1,100,0.852
1574950550.128809,75781.000,12620,3,AY,1,100,0.847
1574950550.169255,75815.000,12620,3,AY,1,100,0.850
1574950550.209702,75849.000,12620,3,AY,1,100,0.856
1574950550.247372,75880.667,12638,3,AY,1,100,0.850
1574950550.285043,75912.333,12638,3,AY,1,100,0.851
1574950550.322713,75944.000,12638,3,AY,1,100,0.853
1574950550.361970,75977.000,12656,3,AY,1,100,0.847
1574950550.401227,76010.000,12656,3,AY,1,100,0.855
1574950550.440484,76043.000,12656,3,AY,1,100,0.854
1574950550.482120,76078.000,12674,3,AY,1,100,0.850
1574950550.523756,76113.000,12674,3,AY,1,100,0.850
1574950550.565392,76148.000,12674,3,AY,1,100,0.850
1574950550.606631,76182.667,12692,3,AY,1,100,0.849
1574950550.647870,76217.333,12692,3,AY,1,100,0.843
1574950550.689110,76252.000,12692,3,AY,1,100,0.864
1574950550.730746,76287.000,12710,3,AY,1,100,0.857
1574950550.772382,76322.000,12710,3,AY,1,100,0.845
1574950550.814018,76357.000,12710,3,AY,1,100,0.850
1574950550.855654,76392.000,12726,3,AY,1,100,0.855
1574950550.897289,76427.000,12726,3,AY,1,100,0.858
1574950550.938925,76462.000,12726,3,AY,1,100,0.846
1574950550.979372,76496.000,12744,3,AY,1,100,0.851
1574950551.019818,76530.000,12744,3,AY,1,100,0.855
1574950551.060264,76564.000,12744,3,AY,1,100,0.850
1574950551.101504,76598.667,12762,3,AY,1,100,0.852
1574950551.142743,76633.333,12762,3,AY,1,100,0.854
1574950551.183983,76668.000,12762,3,AY,1,100,0.850
1574950551.223239,76701.000,12780,3,AY,1,100,0.851
1574950551.262496,76734.000,12780,3,AY,1,100,0.851
1574950551.301753,76767.000,12780,3,AY,1,100,0.851
1574950551.343389,76802.000,12798,3,AY,1,100,0.853
1574950551.385025,76837.000,12798,3,AY,1,100,0.851
1574950551.426661,76872.000,12798,3,AY,1,100,0.852
1574950551.467503,76906.333,12816,3,AY,1,100,0.848
1574950551.508346,76940.667,12816,3,AY,1,100,0.853
1574950551.549189,76975.000,12816,3,AY,1,100,0.851
1574950551.588842,77008.333,12834,3,AY,1,100,0.851
1574950551.628496,77041.667,12834,3,AY,1,100,0.850
1574950551.668149,77075.000,12834,3,AY,1,100,0.853
1574950551.706216,77107.000,12853,3,AY,1,100,0.851
1574950551.744283,77139.000,12853,3,AY,1,100,0.850
1574950551.782350,77171.000,12853,3,AY,1,100,0.850
1574950551.820814,77203.333,12870,3,AY,1,100,0.852
1574950551.859278,77235.667,12870,3,AY,1,100,0.851
1574950551.897742,77268.000,12870,3,AY,1,100,0.846
1574950551.942946,77306.000,12888,3,AY,1,100,0.845
1574950551.988151,77344.000,12888,3,AY,1,100,0.851
1574950552.033356,77382.000,12888,3,AY,1,100,0.842
1574950552.074397,77416.500,12904,2,AY,1,100,0.849
1574950552.115438,77451.000,12904,2,AY,1,100,0.860
1574950552.157074,77486.000,12922,3,AY,1,100,0.854
1574950552.198710,77521.000,12922,3,AY,1,100,0.849
1574950552.240346,77556.000,12922,3,AY,1,100,0.841
1574950552.278710,77588.250,12940,4,AY,1,100,0.845
1574950552.317075,77620.500,12940,4,AY,1,100,0.861
1574950552.355439,77652.750,12940,4,AY,1,100,0.842
1574950552.393804,77685.000,12940,4,AY,1,100,0.851
1574950552.432664,77717.667,12958,3,AY,1,100,0.845
1574950552.471524,77750.333,12958,3,AY,1,100,0.849
1574950552.510385,77783.000,12958,3,AY,1,100,0.848
1574950552.551227,77817.333,12976,3,AY,1,100,0.852
1574950552.592070,77851.667,12976,3,AY,1,100,0.851
1574950552.632913,77886.000,12976,3,AY,1,100,0.847
1574950552.674549,77921.000,12995,2,AY,1,100,0.851
1574950552.716185,77956.000,12995,2,AY,1,100,0.848
1574950552.761390,77994.000,13013,3,AY,1,100,0.848
1574950552.806594,78032.000,13013,3,AY,1,100,0.852
1574950552.851799,78070.000,13013,3,AY,1,100,0.851
1574950552.888677,78101.000,13031,3,AY,1,100,0.851
1574950552.925554,78132.000,13031,3,AY,1,100,0.850
1574950552.962432,78163.000,13031,3,AY,1,100,0.850
1574950553.001292,78195.667,13048,3,AY,1,100,0.849
1574950553.040152,78228.333,13048,3,AY,1,100,0.848
1574950553.079012,78261.000,13048,3,AY,1,100,0.850
1574950553.119062,78294.667,13066,3,AY,1,100,0.846
1574950553.159112,78328.333,13066,3,AY,1,100,0.848
1574950553.199162,78362.000,13066,3,AY,1,100,0.853
1574950553.240798,78397.000,13082,3,AY,1,100,0.850
1574950553.282434,78432.000,13082,3,AY,1,100,0.847
1574950553.324070,78467.000,13082,3,AY,1,100,0.852
1574950553.365309,78501.667,13100,3,AY,1,100,0.846
1574950553.406549,78536.333,13100,3,AY,1,100,0.846
1574950553.447788,78571.000,13100,3,AY,1,100,0.848
1574950553.486648,78603.667,13118,3,AY,1,100,0.849
1574950553.525508,78636.333,13118,3,AY,1,100,0.846
1574950553.564368,78669.000,13118,3,AY,1,100,0.850
1574950553.606401,78704.333,13137,3,AY,1,100,0.846
1574950553.648433,78739.667,13137,3,AY,1,100,0.850
1574950553.690466,78775.000,13137,3,AY,1,100,0.848
1574950553.726154,78805.000,13155,4,AY,1,100,0.849
1574950553.761842,78835.000,13155,4,AY,1,100,0.848
1574950553.797530,78865.000,13155,4,AY,1,100,0.847
1574950553.833218,78895.000,13155,4,AY,1,100,0.850
1574950553.872078,78927.667,13173,3,AY,1,100,0.841
1574950553.910938,78960.333,13173,3,AY,1,100,0.856
1574950553.949798,78993.000,13173,3,AY,1,100,0.850
1574950553.988262,79025.333,13191,3,AY,1,100,0.852
1574950554.026726,79057.667,13191,3,AY,1,100,0.835
1574950554.065189,79090.000,13191,3,AY,1,100,0.851
1574950554.107222,79125.333,13209,3,AY,1,100,0.860
1574950554.149254,79160.667,13209,3,AY,1,100,0.845
1574950554.191287,79196.000,13209,3,AY,1,100,0.841
1574950554.232526,79230.667,13227,3,AY,1,100,0.848
1574950554.273766,79265.333,13227,3,AY,1,100,0.857
1574950554.315005,79300.000,13227,3,AY,1,100,0.850
1574950554.356641,79335.000,13244,2,AY,1,100,0.843
1574950554.398277,79370.000,13244,2,AY,1,100,0.852
1574950554.439516,79404.667,13262,3,AY,1,100,0.847
1574950554.480756,79439.333,13262,3,AY,1,100,0.845
1574950554.521995,79474.000,13262,3,AY,1,100,0.849
1574950554.560359,79506.250,13280,4,AY,1,100,0.850
1574950554.598724,79538.500,13280,4,AY,1,100,0.849
1574950554.637089,79570.750,13280,4,AY,1,100,0.850
1574950554.675453,79603.000,13280,4,AY,1,100,0.843
1574950554.713917,79635.333,13297,3,AY,1,100,0.846
1574950554.752381,79667.667,13297,3,AY,1,100,0.863
1574950554.790844,79700.000,13297,3,AY,1,100,0.838
1574950554.831687,79734.333,13315,3,AY,1,100,0.850
1574950554.872530,79768.667,13315,3,AY,1,100,0.853
1574950554.913373,79803.000,13315,3,AY,1,100,0.846
1574950554.960362,79842.500,13333,2,AY,1,100,0.849
1574950555.007351,79882.000,13333,2,AY,1,100,0.854
1574950555.048987,79917.000,13351,3,AY,1,100,0.848
1574950555.090623,79952.000,13351,3,AY,1,100,0.844
1574950555.132259,79987.000,13351,3,AY,1,100,0.849
1574950555.169930,80018.667,13369,3,AY,1,100,0.848
1574950555.207600,80050.333,13369,3,AY,1,100,0.847
1574950555.245271,80082.000,13369,3,AY,1,100,0.847
1574950555.283933,80114.500,13387,4,AY,1,100,0.851
1574950555.322595,80147.000,13387,4,AY,1,100,0.851
1574950555.361257,80179.500,13387,4,AY,1,100,0.846
1574950555.399919,80212.000,13387,4,AY,1,100,0.845
1574950555.440365,80246.000,13405,3,AY,1,100,0.856
1574950555.480811,80280.000,13405,3,AY,1,100,0.849
1574950555.521258,80314.000,13405,3,AY,1,100,0.849
1574950555.562893,80349.000,13422,2,AY,1,100,0.844
1574950555.604529,80384.000,13422,2,AY,1,100,0.854
1574950555.645769,80418.667,13441,3,AY,1,100,0.848
1574950555.687008,80453.333,13441,3,AY,1,100,0.850
1574950555.728248,80488.000,13441,3,AY,1,100,0.854
1574950555.771073,80524.000,13459,3,AY,1,100,0.854
1574950555.813899,80560.000,13459,3,AY,1,100,0.855
1574950555.856724,80596.000,13459,3,AY,1,100,0.851
1574950555.895743,80628.800,13480,5,AY,1,100,0.844
1574950555.934762,80661.600,13480,5,AY,1,100,0.841
1574950555.973781,80694.400,13480,5,AY,1,100,0.842
1574950556.012800,80727.200,13480,5,AY,1,100,0.851
1574950556.051818,80760.000,13480,5,AY,1,100,0.848
1574950556.093454,80795.000,13500,3,AY,1,100,0.842
1574950556.135090,80830.000,13500,3,AY,1,100,0.851
1574950556.176726,80865.000,13500,3,AY,1,100,0.841
1574950556.217569,80899.333,13517,3,AY,1,100,0.857
1574950556.258412,80933.667,13517,3,AY,1,100,0.843
1574950556.299255,80968.000,13517,3,AY,1,100,0.840
1574950556.340098,81002.333,13535,3,AY,1,100,0.851
1574950556.380940,81036.667,13535,3,AY,1,100,0.844
1574950556.421783,81071.000,13535,3,AY,1,100,0.844
1574950556.459851,81103.000,13553,3,AY,1,100,0.850
1574950556.497918,81135.000,13553,3,AY,1,100,0.849
1574950556.535985,81167.000,13553,3,AY,1,100,0.846
1574950556.578810,81203.000,13569,3,AY,1,100,0.842
1574950556.621636,81239.000,13569,3,AY,1,100,0.853
1574950556.664461,81275.000,13569,3,AY,1,100,0.843
1574950556.704908,81309.000,13588,3,AY,1,100,0.844
1574950556.745354,81343.000,13588,3,AY,1,100,0.848
1574950556.785800,81377.000,13588,3,AY,1,100,0.845
1574950556.827436,81412.000,13606,2,AY,1,100,0.851
1574950556.869072,81447.000,13606,2,AY,1,100,0.842
1574950556.910312,81481.667,13624,3,AY,1,100,0.847
1574950556.951551,81516.333,13624,3,AY,1,100,0.844
1574950556.992790,81551.000,13624,3,AY,1,100,0.847
1574950557.030560,81582.750,13642,4,AY,1,100,0.848
1574950557.068330,81614.500,13642,4,AY,1,100,0.846
1574950557.106100,81646.250,13642,4,AY,1,100,0.847
1574950557.143869,81678.000,13642,4,AY,1,100,0.846
1574950557.183523,81711.333,13660,3,AY,1,100,0.845
1574950557.223176,81744.667,13660,3,AY,1,100,0.845
1574950557.262829,81778.000,13660,3,AY,1,100,0.844
1574950557.302879,81811.667,13678,3,AY,1,100,0.849
1574950557.342929,81845.333,13678,3,AY,1,100,0.845
1574950557.382979,81879.000,13678,3,AY,1,100,0.845
1574950557.430563,81919.000,13695,2,AY,1,100,0.847
1574950557.478147,81959.000,13695,2,AY,1,100,0.848
1574950557.516511,81991.250,13713,4,AY,1,100,0.845
1574950557.554876,82023.500,13713,4,AY,1,100,0.845
1574950557.593240,82055.750,13713,4,AY,1,100,0.848
1574950557.631605,82088.000,13713,4,AY,1,100,0.843
1574950557.672646,82122.500,13732,2,AY,1,100,0.846
1574950557.713687,82157.000,13732,2,AY,1,100,0.847
1574950557.758892,82195.000,13748,3,AY,1,100,0.843
1574950557.804096,82233.000,13748,3,AY,1,100,0.844
1574950557.849301,82271.000,13748,3,AY,1,100,0.848
1574950557.886179,82302.000,13766,3,AY,1,100,0.848
1574950557.923056,82333.000,13766,3,AY,1,100,0.843
1574950557.959934,82364.000,13766,3,AY,1,100,0.854
1574950558.004345,82401.333,13784,3,AY,1,100,0.843
1574950558.048757,82438.667,13784,3,AY,1,100,0.842
1574950558.093169,82476.000,13784,3,AY,1,100,0.846
1574950558.130839,82507.667,13802,3,AY,1,100,0.847
1574950558.168510,82539.333,13802,3,AY,1,100,0.846
1574950558.206181,82571.000,13802,3,AY,1,100,0.846
1574950558.245041,82603.667,13820,3,AY,1,100,0.844
1574950558.283901,82636.333,13820,3,AY,1,100,0.846
1574950558.322761,82669.000,13820,3,AY,1,100,0.844
1574950558.364001,82703.667,13838,3,AY,1,100,0.846
1574950558.405240,82738.333,13838,3,AY,1,100,0.844
1574950558.446480,82773.000,13838,3,AY,1,100,0.846
1574950558.487719,82807.667,13856,3,AY,1,100,0.845
1574950558.528958,82842.333,13856,3,AY,1,100,0.846
1574950558.570198,82877.000,13856,3,AY,1,100,0.856
1574950558.611834,82912.000,13874,3,AY,1,100,0.829
1574950558.653470,82947.000,13874,3,AY,1,100,0.858
1574950558.695106,82982.000,13874,3,AY,1,100,0.843
1574950558.735948,83016.333,13892,3,AY,1,100,0.843
1574950558.776791,83050.667,13892,3,AY,1,100,0.848
1574950558.817634,83085.000,13892,3,AY,1,100,0.842
1574950558.858080,83119.000,13908,3,AY,1,100,0.850
1574950558.898527,83153.000,13908,3,AY,1,100,0.841
1574950558.938973,83187.000,13908,3,AY,1,100,0.845
1574950558.977437,83219.333,13926,3,AY,1,100,0.848
1574950559.015900,83251.667,13926,3,AY,1,100,0.842
1574950559.054364,83284.000,13926,3,AY,1,100,0.843
1574950559.097190,83320.000,13944,3,AY,1,100,0.848
1574950559.140015,83356.000,13944,3,AY,1,100,0.843
1574950559.182841,83392.000,13944,3,AY,1,100,0.846
1574950559.222891,83425.667,13962,3,AY,1,100,0.847
1574950559.262940,83459.333,13962,3,AY,1,100,0.844
1574950559.302990,83493.000,13962,3,AY,1,100,0.847
1574950559.344626,83528.000,13980,3,AY,1,100,0.851
1574950559.386262,83563.000,13980,3,AY,1,100,0.844
1574950559.427898,83598.000,13980,3,AY,1,100,0.844
1574950559.468741,83632.333,13998,3,AY,1,100,0.846
1574950559.509584,83666.667,13998,3,AY,1,100,0.847
1574950559.550427,83701.000,13998,3,AY,1,100,0.848
1574950559.588097,83732.667,14016,3,AY,1,100,0.844
1574950559.625768,83764.333,14016,3,AY,1,100,0.848
1574950559.663439,83796.000,14016,3,AY,1,100,0.851
1574950559.702695,83829.000,14035,3,AY,1,100,0.848
1574950559.741952,83862.000,14035,3,AY,1,100,0.846
1574950559.781209,83895.000,14035,3,AY,1,100,0.849
1574950559.820862,83928.333,14052,3,AY,1,100,0.849
1574950559.860515,83961.667,14052,3,AY,1,100,0.849
1574950559.900168,83995.000,14052,3,AY,1,100,0.852
1574950559.945373,84033.000,14070,3,AY,1,100,0.845
1574950559.990578,84071.000,14070,3,AY,1,100,0.848
1574950560.035783,84109.000,14070,3,AY,1,100,0.851
1574950560.076824,84143.500,14086,2,AY,1,100,0.850
1574950560.117865,84178.000,14086,2,AY,1,100,0.849
1574950560.156527,84210.500,14104,4,AY,1,100,0.848
1574950560.195189,84243.000,14104,4,AY,1,100,0.850
1574950560.233851,84275.500,14104,4,AY,1,100,0.850
1574950560.272513,84308.000,14104,4,AY,1,100,0.845
1574950560.311373,84340.667,14122,3,AY,1,100,0.840
1574950560.350233,84373.333,14122,3,AY,1,100,0.854
1574950560.389093,84406.000,14122,3,AY,1,100,0.848
1574950560.429540,84440.000,14140,3,AY,1,100,0.843
1574950560.469986,84474.000,14140,3,AY,1,100,0.848
1574950560.510432,84508.000,14140,3,AY,1,100,0.845
1574950560.552068,84543.000,14158,3,AY,1,100,0.849
1574950560.593704,84578.000,14158,3,AY,1,100,0.846
1574950560.635340,84613.000,14158,3,AY,1,100,0.853
1574950560.676381,84647.500,14177,2,AY,1,100,0.843
1574950560.717422,84682.000,14177,2,AY,1,100,0.850
1574950560.760644,84718.333,14195,3,AY,1,100,0.847
1574950560.803867,84754.667,14195,3,AY,1,100,0.842
1574950560.847089,84791.000,14195,3,AY,1,100,0.849
1574950560.884858,84822.750,14213,4,AY,1,100,0.849
1574950560.922628,84854.500,14213,4,AY,1,100,0.846
1574950560.960398,84886.250,14213,4,AY,1,100,0.846
1574950560.998168,84918.000,14213,4,AY,1,100,0.844
1574950561.040398,84953.500,14230,2,AY,1,100,0.844
1574950561.082629,84989.000,14230,2,AY,1,100,0.849
1574950561.123472,85023.333,14248,3,AY,1,100,0.846
1574950561.164315,85057.667,14248,3,AY,1,100,0.844
1574950561.205158,85092.000,14248,3,AY,1,100,0.846
1574950561.246397,85126.667,14264,3,AY,1,100,0.844
1574950561.287637,85161.333,14264,3,AY,1,100,0.849
1574950561.328876,85196.000,14264,3,AY,1,100,0.844
1574950561.368926,85229.667,14282,3,AY,1,100,0.846
1574950561.408976,85263.333,14282,3,AY,1,100,0.846
1574950561.449025,85297.000,14282,3,AY,1,100,0.845
1574950561.486200,85328.250,14300,4,AY,1,100,0.845
1574950561.523375,85359.500,14300,4,AY,1,100,0.848
1574950561.560550,85390.750,14300,4,AY,1,100,0.846
1574950561.597725,85422.000,14300,4,AY,1,100,0.850
1574950561.645309,85462.000,14319,2,AY,1,100,0.844
1574950561.692893,85502.000,14319,2,AY,1,100,0.845
1574950561.728878,85532.250,14337,4,AY,1,100,0.848
1574950561.764864,85562.500,14337,4,AY,1,100,0.844
1574950561.800849,85592.750,14337,4,AY,1,100,0.847
1574950561.836834,85623.000,14337,4,AY,1,100,0.844
1574950561.876884,85656.667,14355,3,AY,1,100,0.846
1574950561.916934,85690.333,14355,3,AY,1,100,0.845
1574950561.956984,85724.000,14355,3,AY,1,100,0.845
1574950561.997430,85758.000,14374,4,AY,1,100,0.845
1574950562.037876,85792.000,14374,4,AY,1,100,0.847
1574950562.078323,85826.000,14374,4,AY,1,100,0.846
1574950562.118769,85860.000,14374,4,AY,1,100,0.848
1574950562.163577,85897.667,14396,3,AY,1,100,0.848
1574950562.208385,85935.333,14396,3,AY,1,100,0.844
1574950562.253194,85973.000,14396,3,AY,1,100,0.849
1574950562.294830,86008.000,14414,3,AY,1,100,0.844
1574950562.336466,86043.000,14414,3,AY,1,100,0.846
1574950562.378102,86078.000,14414,3,AY,1,100,0.848
1574950562.418151,86111.667,14432,3,AY,1,100,0.840
1574950562.458201,86145.333,14432,3,AY,1,100,0.851
1574950562.498251,86179.000,14432,3,AY,1,100,0.846
1574950562.535922,86210.667,14450,3,AY,1,100,0.843
1574950562.573592,86242.333,14450,3,AY,1,100,0.846
1574950562.611263,86274.000,14450,3,AY,1,100,0.843
1574950562.650916,86307.333,14469,3,AY,1,100,0.849
1574950562.690569,86340.667,14469,3,AY,1,100,0.848
1574950562.730222,86374.000,14469,3,AY,1,100,0.839
1574950562.771462,86408.667,14487,3,AY,1,100,0.842
1574950562.812701,86443.333,14487,3,AY,1,100,0.847
1574950562.853941,86478.000,14487,3,AY,1,100,0.850
1574950562.895180,86512.667,14504,3,AY,1,100,0.844
1574950562.936419,86547.333,14504,3,AY,1,100,0.847
1574950562.977659,86582.000,14504,3,AY,1,100,0.842
1574950563.018105,86616.000,14522,3,AY,1,100,0.851
1574950563.058552,86650.000,14522,3,AY,1,100,0.849
1574950563.098998,86684.000,14522,3,AY,1,100,0.837
1574950563.140237,86718.667,14540,3,AY,1,100,0.846
1574950563.181477,86753.333,14540,3,AY,1,100,0.851
1574950563.222716,86788.000,14540,3,AY,1,100,0.842
1574950563.261973,86821.000,14556,3,AY,1,100,0.846
1574950563.301230,86854.000,14556,3,AY,1,100,0.846
1574950563.340487,86887.000,14556,3,AY,1,100,0.846
1574950563.380933,86921.000,14574,3,AY,1,100,0.850
1574950563.421379,86955.000,14574,3,AY,1,100,0.847
1574950563.461825,86989.000,14574,3,AY,1,100,0.844
1574950563.503065,87023.667,14592,3,AY,1,100,0.847
1574950563.544304,87058.333,14592,3,AY,1,100,0.846
1574950563.585544,87093.000,14592,3,AY,1,100,0.852
1574950563.625593,87126.667,14611,3,AY,1,100,0.848
1574950563.665643,87160.333,14611,3,AY,1,100,0.840
1574950563.705693,87194.000,14611,3,AY,1,100,0.858
1574950563.744355,87226.500,14629,2,AY,1,100,0.841
1574950563.783017,87259.000,14629,2,AY,1,100,0.842
1574950563.825049,87294.333,14647,3,AY,1,100,0.848
1574950563.867082,87329.667,14647,3,AY,1,100,0.837
1574950563.909114,87365.000,14647,3,AY,1,100,0.848
1574950563.949561,87399.000,14665,3,AY,1,100,0.845
1574950563.990007,87433.000,14665,3,AY,1,100,0.849
1574950564.030453,87467.000,14665,3,AY,1,100,0.866
1574950564.072089,87502.000,14682,3,AY,1,100,0.841
1574950564.113725,87537.000,14682,3,AY,1,100,0.848
1574950564.155361,87572.000,14682,3,AY,1,100,0.856
1574950564.196601,87606.667,14700,3,AY,1,100,0.839
1574950564.237840,87641.333,14700,3,AY,1,100,0.853
1574950564.279079,87676.000,14700,3,AY,1,100,0.849
1574950564.318336,87709.000,14718,3,AY,1,100,0.857
1574950564.357593,87742.000,14718,3,AY,1,100,0.845
1574950564.396850,87775.000,14718,3,AY,1,100,0.833
1574950564.434124,87806.333,14734,3,AY,1,100,0.854
1574950564.471398,87837.667,14734,3,AY,1,100,0.860
1574950564.508672,87869.000,14734,3,AY,1,100,0.885
1574950564.548722,87902.667,14752,3,AY,1,100,0.829
1574950564.588772,87936.333,14752,3,AY,1,100,0.815
1574950564.628821,87970.000,14752,3,AY,1,100,0.868
1574950564.674026,88008.000,14771,3,AY,1,100,0.874
1574950564.719231,88046.000,14771,3,AY,1,100,0.794
1574950564.764436,88084.000,14771,3,AY,1,100,0.861
1574950564.806072,88119.000,14789,3,AY,1,100,0.867
1574950564.847707,88154.000,14789,3,AY,1,100,0.795
1574950564.889343,88189.000,14789,3,AY,1,100,0.852
1574950564.927807,88221.333,14807,3,AY,1,100,0.862
1574950564.966271,88253.667,14807,3,AY,1,100,0.828
1574950565.004734,88286.000,14807,3,AY,1,100,0.852
1574950565.042801,88318.000,14825,3,AY,1,100,0.832
1574950565.080869,88350.000,14825,3,AY,1,100,0.822
1574950565.118936,88382.000,14825,3,AY,1,100,0.861
1574950565.158192,88415.000,14843,3,AY,1,100,0.843
1574950565.197449,88448.000,14843,3,AY,1,100,0.822
1574950565.236706,88481.000,14843,3,AY,1,100,0.848
1574950565.277549,88515.333,14860,3,AY,1,100,0.849
1574950565.318392,88549.667,14860,3,AY,1,100,0.825
1574950565.359235,88584.000,14860,3,AY,1,100,0.882
1574950565.404439,88622.000,14878,3,AY,1,100,0.810
1574950565.449644,88660.000,14878,3,AY,1,100,0.835
1574950565.494849,88698.000,14878,3,AY,1,100,0.858
1574950565.532519,88729.667,14894,3,AY,1,100,0.818
1574950565.570190,88761.333,14894,3,AY,1,100,0.854
1574950565.607861,88793.000,14894,3,AY,1,100,0.833
1574950565.649100,88827.667,14913,3,AY,1,100,0.847
1574950565.690339,88862.333,14913,3,AY,1,100,0.835
1574950565.731579,88897.000,14913,3,AY,1,100,0.860
1574950565.773215,88932.000,14931,3,AY,1,100,0.832
1574950565.814851,88967.000,14931,3,AY,1,100,0.840
1574950565.856487,89002.000,14931,3,AY,1,100,0.840
1574950565.894157,89033.667,14949,3,AY,1,100,0.832
1574950565.931828,89065.333,14949,3,AY,1,100,0.829
1574950565.969498,89097.000,14949,3,AY,1,100,0.870
1574950566.010738,89131.667,14967,3,AY,1,100,0.837
1574950566.051977,89166.333,14967,3,AY,1,100,0.850
1574950566.093217,89201.000,14967,3,AY,1,100,0.835
1574950566.131284,89233.000,14985,3,AY,1,100,0.827
1574950566.169351,89265.000,14985,3,AY,1,100,0.863
1574950566.207418,89297.000,14985,3,AY,1,100,0.845
1574950566.247864,89331.000,15003,3,AY,1,100,0.832
1574950566.288311,89365.000,15003,3,AY,1,100,0.829
1574950566.328757,89399.000,15003,3,AY,1,100,0.866
1574950566.370393,89434.000,15021,3,AY,1,100,0.843
1574950566.412029,89469.000,15021,3,AY,1,100,0.817
1574950566.453665,89504.000,15021,3,AY,1,100,0.864
1574950566.495697,89539.333,15038,3,AY,1,100,0.842
1574950566.537730,89574.667,15038,3,AY,1,100,0.834
1574950566.579762,89610.000,15038,3,AY,1,100,0.844
1574950566.617433,89641.667,15057,3,AY,1,100,0.841
1574950566.655103,89673.333,15057,3,AY,1,100,0.841
1574950566.692774,89705.000,15057,3,AY,1,100,0.844
1574950566.735203,89740.667,15073,3,AY,1,100,0.837
1574950566.777632,89776.333,15073,3,AY,1,100,0.845
1574950566.820061,89812.000,15073,3,AY,1,100,0.846
1574950566.857732,89843.667,15091,3,AY,1,100,0.844
1574950566.895402,89875.333,15091,3,AY,1,100,0.831
1574950566.933073,89907.000,15091,3,AY,1,100,0.838
1574950566.971933,89939.667,15109,3,AY,1,100,0.851
1574950567.010793,89972.333,15109,3,AY,1,100,0.834
1574950567.049654,90005.000,15109,3,AY,1,100,0.841
1574950567.094858,90043.000,15127,3,AY,1,100,0.839
1574950567.140063,90081.000,15127,3,AY,1,100,0.849
1574950567.185268,90119.000,15127,3,AY,1,100,0.838
1574950567.225318,90152.667,15145,3,AY,1,100,0.849
1574950567.265368,90186.333,15145,3,AY,1,100,0.830
1574950567.305417,90220.000,15145,3,AY,1,100,0.849
1574950567.347450,90255.333,15163,3,AY,1,100,0.837
1574950567.389482,90290.667,15163,3,AY,1,100,0.839
1574950567.431515,90326.000,15163,3,AY,1,100,0.852
1574950567.468789,90357.333,15181,3,AY,1,100,0.835
1574950567.506063,90388.667,15181,3,AY,1,100,0.848
1574950567.543337,90420.000,15181,3,AY,1,100,0.838
1574950567.581404,90452.000,15199,3,AY,1,100,0.849
1574950567.619471,90484.000,15199,3,AY,1,100,0.833
1574950567.657538,90516.000,15199,3,AY,1,100,0.847
1574950567.697985,90550.000,15218,3,AY,1,100,0.843
1574950567.738431,90584.000,15218,3,AY,1,100,0.844
1574950567.778877,90618.000,15218,3,AY,1,100,0.835
1574950567.818927,90651.667,15235,3,AY,1,100,0.850
1574950567.858977,90685.333,15235,3,AY,1,100,0.841
1574950567.899027,90719.000,15235,3,AY,1,100,0.839
1574950567.944232,90757.000,15253,3,AY,1,100,0.846
1574950567.989436,90795.000,15253,3,AY,1,100,0.835
1574950568.034641,90833.000,15253,3,AY,1,100,0.847
1574950568.072708,90865.000,15274,5,AY,1,100,0.841
1574950568.110775,90897.000,15274,5,AY,1,100,0.844
1574950568.148842,90929.000,15274,5,AY,1,100,0.845
1574950568.186909,90961.000,15274,5,AY,1,100,0.839
1574950568.224977,90993.000,15274,5,AY,1,100,0.842
1574950568.264828,91026.500,15294,2,AY,1,100,0.836
1574950568.304680,91060.000,15294,2,AY,1,100,0.848
1574950568.345523,91094.333,15312,3,AY,1,100,0.842
1574950568.386365,91128.667,15312,3,AY,1,100,0.842
1574950568.427208,91163.000,15312,3,AY,1,100,0.846
1574950568.468844,91198.000,15329,3,AY,1,100,0.840
1574950568.510480,91233.000,15329,3,AY,1,100,0.844
1574950568.552116,91268.000,15329,3,AY,1,100,0.841
1574950568.593356,91302.667,15347,3,AY,1,100,0.843
1574950568.634595,91337.333,15347,3,AY,1,100,0.847
1574950568.675834,91372.000,15347,3,AY,1,100,0.841
1574950568.713902,91404.000,15366,3,AY,1,100,0.840
1574950568.751969,91436.000,15366,3,AY,1,100,0.847
1574950568.790036,91468.000,15366,3,AY,1,100,0.840
1574950568.832465,91503.667,15382,3,AY,1,100,0.845
1574950568.874894,91539.333,15382,3,AY,1,100,0.845
1574950568.917323,91575.000,15382,3,AY,1,100,0.841
1574950568.957769,91609.000,15400,3,AY,1,100,0.843
1574950568.998215,91643.000,15400,3,AY,1,100,0.850
1574950569.038662,91677.000,15400,3,AY,1,100,0.839
1574950569.079901,91711.667,15418,3,AY,1,100,0.844
1574950569.121141,91746.333,15418,3,AY,1,100,0.845
1574950569.162380,91781.000,15418,3,AY,1,100,0.840
1574950569.204016,91816.000,15436,3,AY,1,100,0.844
1574950569.245652,91851.000,15436,3,AY,1,100,0.841
1574950569.287288,91886.000,15436,3,AY,1,100,0.845
1574950569.324562,91917.333,15454,3,AY,1,100,0.844
1574950569.361836,91948.667,15454,3,AY,1,100,0.844
1574950569.399110,91980.000,15454,3,AY,1,100,0.842
1574950569.437574,92012.333,15472,3,AY,1,100,0.842
1574950569.476038,92044.667,15472,3,AY,1,100,0.845
1574950569.514501,92077.000,15472,3,AY,1,100,0.838
1574950569.558516,92114.000,15490,3,AY,1,100,0.846
1574950569.602531,92151.000,15490,3,AY,1,100,0.840
1574950569.646546,92188.000,15490,3,AY,1,100,0.844
1574950569.683820,92219.333,15508,3,AY,1,100,0.844
1574950569.721095,92250.667,15508,3,AY,1,100,0.841
1574950569.758369,92282.000,15508,3,AY,1,100,0.843
1574950569.803970,92320.333,15526,3,AY,1,100,0.848
1574950569.849571,92358.667,15526,3,AY,1,100,0.838
1574950569.895173,92397.000,15526,3,AY,1,100,0.844
1574950569.931653,92427.667,15542,3,AY,1,100,0.843
1574950569.968134,92458.333,15542,3,AY,1,100,0.839
1574950570.004616,92489.000,15542,3,AY,1,100,0.841
1574950570.046252,92524.000,15560,3,AY,1,100,0.844
1574950570.087887,92559.000,15560,3,AY,1,100,0.843
1574950570.129523,92594.000,15560,3,AY,1,100,0.843
1574950570.175918,92633.000,15578,2,AY,1,100,0.839
1574950570.222312,92672.000,15578,2,AY,1,100,0.845
1574950570.263551,92706.667,15596,3,AY,1,100,0.840
1574950570.304791,92741.333,15596,3,AY,1,100,0.841
1574950570.346030,92776.000,15596,3,AY,1,100,0.836
1574950570.384395,92808.250,15614,4,AY,1,100,0.850
1574950570.422759,92840.500,15614,4,AY,1,100,0.839
1574950570.461124,92872.750,15614,4,AY,1,100,0.839
1574950570.499488,92905.000,15614,4,AY,1,100,0.842
1574950570.537952,92937.333,15632,3,AY,1,100,0.844
1574950570.576416,92969.667,15632,3,AY,1,100,0.843
1574950570.614879,93002.000,15632,3,AY,1,100,0.843
1574950570.655722,93036.333,15651,3,AY,1,100,0.838
1574950570.696565,93070.667,15651,3,AY,1,100,0.844
1574950570.737408,93105.000,15651,3,AY,1,100,0.839
1574950570.778647,93139.667,15668,3,AY,1,100,0.843
1574950570.819887,93174.333,15668,3,AY,1,100,0.840
1574950570.861126,93209.000,15668,3,AY,1,100,0.842
1574950570.902762,93244.000,15686,2,AY,1,100,0.845
1574950570.944398,93279.000,15686,2,AY,1,100,0.840
1574950570.983060,93311.500,15704,4,AY,1,100,0.845
1574950571.021722,93344.000,15704,4,AY,1,100,0.836
1574950571.060384,93376.500,15704,4,AY,1,100,0.846
1574950571.099046,93409.000,15704,4,AY,1,100,0.849
1574950571.142466,93445.500,15720,2,AY,1,100,0.846
1574950571.185887,93482.000,15720,2,AY,1,100,0.839
1574950571.225540,93515.333,15738,3,AY,1,100,0.834
1574950571.265193,93548.667,15738,3,AY,1,100,0.856
1574950571.304846,93582.000,15738,3,AY,1,100,0.844
1574950571.346482,93617.000,15756,3,AY,1,100,0.834
1574950571.388118,93652.000,15756,3,AY,1,100,0.841
1574950571.429754,93687.000,15756,3,AY,1,100,0.847
1574950571.470597,93721.333,15774,3,AY,1,100,0.841
1574950571.511440,93755.667,15774,3,AY,1,100,0.843
1574950571.552283,93790.000,15774,3,AY,1,100,0.843
1574950571.590350,93822.000,15792,4,AY,1,100,0.848
1574950571.628417,93854.000,15792,4,AY,1,100,0.839
1574950571.666484,93886.000,15792,4,AY,1,100,0.842
1574950571.704551,93918.000,15792,4,AY,1,100,0.847
1574950571.743213,93950.500,15811,2,AY,1,100,0.843
1574950571.781875,93983.000,15811,2,AY,1,100,0.847
1574950571.825890,94020.000,15829,3,AY,1,100,0.845
1574950571.869905,94057.000,15829,3,AY,1,100,0.843
1574950571.913921,94094.000,15829,3,AY,1,100,0.845
1574950571.955557,94129.000,15846,3,AY,1,100,0.844
1574950571.997193,94164.000,15846,3,AY,1,100,0.844
1574950572.038828,94199.000,15846,3,AY,1,100,0.843
1574950572.080464,94234.000,15864,3,AY,1,100,0.849
1574950572.122100,94269.000,15864,3,AY,1,100,0.842
1574950572.163736,94304.000,15864,3,AY,1,100,0.845
1574950572.202993,94337.000,15882,3,AY,1,100,0.843
1574950572.242250,94370.000,15882,3,AY,1,100,0.841
1574950572.281507,94403.000,15882,3,AY,1,100,0.843
1574950572.319574,94435.000,15898,3,AY,1,100,0.846
1574950572.357641,94467.000,15898,3,AY,1,100,0.842
1574950572.395708,94499.000,15898,3,AY,1,100,0.845
1574950572.435758,94532.667,15916,3,AY,1,100,0.867
1574950572.475807,94566.333,15916,3,AY,1,100,0.832
1574950572.515857,94600.000,15916,3,AY,1,100,0.843
1574950572.557493,94635.000,15934,3,AY,1,100,0.844
1574950572.599129,94670.000,15934,3,AY,1,100,0.849
1574950572.640765,94705.000,15934,3,AY,1,100,0.848
1574950572.685573,94742.667,15953,3,AY,1,100,0.843
1574950572.730381,94780.333,15953,3,AY,1,100,0.847
1574950572.775190,94818.000,15953,3,AY,1,100,0.844
1574950572.815636,94852.000,15971,3,AY,1,100,0.842
1574950572.856082,94886.000,15971,3,AY,1,100,0.848
1574950572.896529,94920.000,15971,3,AY,1,100,0.846
