EpochTimestamp,EmotiBitTimestamp,PacketNumber,DataLength,TypeTag,ProtocolVersion,DataReliability,GX
1574950477.048223,14348.000,1830,8,GX,1,100,-0.183
1574950477.048223,14348.000,1830,8,GX,1,100,-0.244
1574950477.048223,14348.000,1830,8,GX,1,100,-0.641
1574950477.048223,14348.000,1830,8,GX,1,100,-0.916
1574950477.048223,14348.000,1830,8,GX,1,100,-0.885
1574950477.048223,14348.000,1830,8,GX,1,100,-0.427
1574950477.048223,14348.000,1830,8,GX,1,100,-0.549
1574950477.048223,14348.000,1830,8,GX,1,100,-0.732
1574950477.088273,14381.667,1848,3,GX,1,100,-0.336
1574950477.128323,14415.333,1848,3,GX,1,100,-0.275
1574950477.168373,14449.000,1848,3,GX,1,100,-0.122
1574950477.213181,14486.667,1866,3,GX,1,100,-0.153
1574950477.257989,14524.333,1866,3,GX,1,100,-0.305
1574950477.302797,14562.000,1866,3,GX,1,100,-0.305
1574950477.341261,14594.333,1884,3,GX,1,100,-0.214
1574950477.379725,14626.667,1884,3,GX,1,100,-0.488
1574950477.418188,14659.000,1884,3,GX,1,100,-0.549
1574950477.459229,14693.500,1901,2,GX,1,100,-0.305
1574950477.500270,14728.000,1901,2,GX,1,100,-0.519
1574950477.542204,14763.250,1920,4,GX,1,100,0.244
1574950477.584137,14798.500,1920,4,GX,1,100,1.556
1574950477.626070,14833.750,1920,4,GX,1,100,0.641
1574950477.668004,14869.000,1920,4,GX,1,100,-0.824
1574950477.709243,14903.667,1936,3,GX,1,100,-0.641
1574950477.750483,14938.333,1936,3,GX,1,100,-0.183
1574950477.791722,14973.000,1936,3,GX,1,100,-0.397
1574950477.838116,15012.000,1954,2,GX,1,100,-0.580
1574950477.884511,15051.000,1954,2,GX,1,100,0.122
1574950477.921983,15082.500,1972,4,GX,1,100,0.122
1574950477.959455,15114.000,1972,4,GX,1,100,-0.305
1574950477.996928,15145.500,1972,4,GX,1,100,-0.214
1574950478.034400,15177.000,1972,4,GX,1,100,-0.275
1574950478.080794,15216.000,1990,2,GX,1,100,-0.397
1574950478.127189,15255.000,1990,2,GX,1,100,-0.275
1574950478.165652,15287.333,2008,3,GX,1,100,-0.092
1574950478.204116,15319.667,2008,3,GX,1,100,-0.031
1574950478.242580,15352.000,2008,3,GX,1,100,0.397
1574950478.281043,15384.333,2026,3,GX,1,100,0.000
1574950478.319507,15416.667,2026,3,GX,1,100,-0.366
1574950478.357971,15449.000,2026,3,GX,1,100,-0.488
1574950478.398417,15483.000,2044,3,GX,1,100,-0.305
1574950478.438864,15517.000,2044,3,GX,1,100,-0.397
1574950478.479310,15551.000,2044,3,GX,1,100,-0.458
1574950478.520549,15585.667,2062,3,GX,1,100,-0.214
1574950478.561789,15620.333,2062,3,GX,1,100,-0.488
1574950478.603028,15655.000,2062,3,GX,1,100,-0.519
1574950478.643871,15689.333,2080,3,GX,1,100,0.671
1574950478.684714,15723.667,2080,3,GX,1,100,0.641
1574950478.725557,15758.000,2080,3,GX,1,100,-0.244
1574950478.764813,15791.000,2098,3,GX,1,100,-0.671
1574950478.804070,15824.000,2098,3,GX,1,100,-0.427
1574950478.843327,15857.000,2098,3,GX,1,100,-0.122
1574950478.884566,15891.667,2114,3,GX,1,100,-0.214
1574950478.925806,15926.333,2114,3,GX,1,100,-0.153
1574950478.967045,15961.000,2114,3,GX,1,100,-0.244
1574950479.003625,15991.750,2132,4,GX,1,100,-0.336
1574950479.040205,16022.500,2132,4,GX,1,100,-0.580
1574950479.076786,16053.250,2132,4,GX,1,100,-0.671
1574950479.113366,16084.000,2132,4,GX,1,100,-0.366
1574950479.152622,16117.000,2150,2,GX,1,100,-0.122
1574950479.191879,16150.000,2150,2,GX,1,100,-0.366
1574950479.235498,16186.667,2168,3,GX,1,100,-0.458
1574950479.279116,16223.333,2168,3,GX,1,100,-0.305
1574950479.322735,16260.000,2168,3,GX,1,100,-0.336
1574950479.363578,16294.333,2186,3,GX,1,100,-0.519
1574950479.404421,16328.667,2186,3,GX,1,100,-0.305
1574950479.445264,16363.000,2186,3,GX,1,100,-0.275
1574950479.486106,16397.333,2204,3,GX,1,100,-0.519
1574950479.526949,16431.667,2204,3,GX,1,100,-0.427
1574950479.567792,16466.000,2204,3,GX,1,100,-0.397
1574950479.606652,16498.667,2223,3,GX,1,100,-0.275
1574950479.645513,16531.333,2223,3,GX,1,100,0.580
1574950479.684373,16564.000,2223,3,GX,1,100,0.580
1574950479.722737,16596.250,2241,4,GX,1,100,-0.061
1574950479.761102,16628.500,2241,4,GX,1,100,-0.366
1574950479.799466,16660.750,2241,4,GX,1,100,-0.732
1574950479.837831,16693.000,2241,4,GX,1,100,-0.549
1574950479.877881,16726.667,2259,3,GX,1,100,-0.641
1574950479.917931,16760.333,2259,3,GX,1,100,-0.854
1574950479.957980,16794.000,2259,3,GX,1,100,-0.580
1574950480.004969,16833.500,2276,2,GX,1,100,0.549
1574950480.051959,16873.000,2276,2,GX,1,100,-3.418
1574950480.093198,16907.667,2292,3,GX,1,100,-10.315
1574950480.134437,16942.333,2292,3,GX,1,100,-9.186
1574950480.175677,16977.000,2292,3,GX,1,100,-9.277
1574950480.215330,17010.333,2310,3,GX,1,100,-9.735
1574950480.254983,17043.667,2310,3,GX,1,100,-2.838
1574950480.294637,17077.000,2310,3,GX,1,100,0.397
1574950480.331911,17108.333,2328,3,GX,1,100,-3.052
1574950480.369185,17139.667,2328,3,GX,1,100,-5.859
1574950480.406459,17171.000,2328,3,GX,1,100,-3.052
1574950480.446112,17204.333,2346,3,GX,1,100,-0.732
1574950480.485765,17237.667,2346,3,GX,1,100,12.054
1574950480.525419,17271.000,2346,3,GX,1,100,57.892
1574950480.567055,17306.000,2365,3,GX,1,100,104.919
1574950480.608691,17341.000,2365,3,GX,1,100,131.287
1574950480.650326,17376.000,2365,3,GX,1,100,153.992
1574950480.691566,17410.667,2383,3,GX,1,100,181.854
1574950480.732805,17445.333,2383,3,GX,1,100,213.776
1574950480.774045,17480.000,2383,3,GX,1,100,187.134
1574950480.813301,17513.000,2401,3,GX,1,100,156.555
1574950480.852558,17546.000,2401,3,GX,1,100,147.675
1574950480.891815,17579.000,2401,3,GX,1,100,124.695
1574950480.932658,17613.333,2419,3,GX,1,100,81.360
1574950480.973501,17647.667,2419,3,GX,1,100,43.610
1574950481.014344,17682.000,2419,3,GX,1,100,23.132
1574950481.053600,17715.000,2437,3,GX,1,100,-18.250
1574950481.092857,17748.000,2437,3,GX,1,100,-89.294
1574950481.132114,17781.000,2437,3,GX,1,100,160.675
1574950481.173353,17815.667,2454,3,GX,1,100,-157.532
1574950481.214592,17850.333,2454,3,GX,1,100,-36.713
1574950481.255832,17885.000,2454,3,GX,1,100,39.154
1574950481.297071,17919.667,2472,3,GX,1,100,-9.949
1574950481.338311,17954.333,2472,3,GX,1,100,14.740
1574950481.379550,17989.000,2472,3,GX,1,100,-31.677
1574950481.419204,18022.333,2488,3,GX,1,100,-62.439
1574950481.458857,18055.667,2488,3,GX,1,100,83.557
1574950481.498510,18089.000,2488,3,GX,1,100,-40.497
1574950481.540146,18124.000,2507,3,GX,1,100,1.831
1574950481.581782,18159.000,2507,3,GX,1,100,55.115
1574950481.623418,18194.000,2507,3,GX,1,100,-22.675
1574950481.663468,18227.667,2525,3,GX,1,100,-12.177
1574950481.703517,18261.333,2525,3,GX,1,100,13.733
1574950481.743567,18295.000,2525,3,GX,1,100,-7.080
1574950481.779652,18325.333,2543,3,GX,1,100,98.297
1574950481.815736,18355.667,2543,3,GX,1,100,-38.879
1574950481.851821,18386.000,2543,3,GX,1,100,-25.665
1574950481.896629,18423.667,2561,3,GX,1,100,17.487
1574950481.941437,18461.333,2561,3,GX,1,100,-46.539
1574950481.986245,18499.000,2561,3,GX,1,100,-40.253
1574950482.020744,18528.000,2579,3,GX,1,100,-27.649
1574950482.055242,18557.000,2579,3,GX,1,100,-17.303
1574950482.089740,18586.000,2579,3,GX,1,100,-50.415
1574950482.133755,18623.000,2597,3,GX,1,100,-57.373
1574950482.177771,18660.000,2597,3,GX,1,100,-13.794
1574950482.221786,18697.000,2597,3,GX,1,100,-81.024
1574950482.263422,18732.000,2615,3,GX,1,100,-75.836
1574950482.305058,18767.000,2615,3,GX,1,100,-52.704
1574950482.346694,18802.000,2615,3,GX,1,100,-104.462
1574950482.388726,18837.333,2632,3,GX,1,100,-70.862
1574950482.430758,18872.667,2632,3,GX,1,100,-32.501
1574950482.472791,18908.000,2632,3,GX,1,100,-41.809
1574950482.511651,18940.667,2650,3,GX,1,100,-29.877
1574950482.550511,18973.333,2650,3,GX,1,100,-26.886
1574950482.589371,19006.000,2650,3,GX,1,100,-51.910
1574950482.627042,19037.667,2669,3,GX,1,100,-51.300
1574950482.664713,19069.333,2669,3,GX,1,100,-61.646
1574950482.702383,19101.000,2669,3,GX,1,100,-81.787
1574950482.742433,19134.667,2685,3,GX,1,100,-29.816
1574950482.782483,19168.333,2685,3,GX,1,100,-37.018
1574950482.822533,19202.000,2685,3,GX,1,100,-67.047
1574950482.864169,19237.000,2703,3,GX,1,100,-40.680
1574950482.905805,19272.000,2703,3,GX,1,100,-0.916
1574950482.947441,19307.000,2703,3,GX,1,100,6.866
1574950482.990266,19343.000,2724,5,GX,1,100,2.747
1574950483.033092,19379.000,2724,5,GX,1,100,-3.510
1574950483.075917,19415.000,2724,5,GX,1,100,-7.660
1574950483.118743,19451.000,2724,5,GX,1,100,-5.524
1574950483.161568,19487.000,2724,5,GX,1,100,0.458
1574950483.199636,19519.000,2744,3,GX,1,100,4.181
1574950483.237703,19551.000,2744,3,GX,1,100,2.136
1574950483.275770,19583.000,2744,3,GX,1,100,-0.122
1574950483.314630,19615.667,2762,3,GX,1,100,-0.244
1574950483.353490,19648.333,2762,3,GX,1,100,-1.129
1574950483.392350,19681.000,2762,3,GX,1,100,-1.282
1574950483.433986,19716.000,2778,2,GX,1,100,-0.793
1574950483.475622,19751.000,2778,2,GX,1,100,-1.434
1574950483.515672,19784.667,2797,3,GX,1,100,-1.526
1574950483.555722,19818.333,2797,3,GX,1,100,-1.709
1574950483.595772,19852.000,2797,3,GX,1,100,-2.777
1574950483.638201,19887.667,2815,3,GX,1,100,-2.533
1574950483.680629,19923.333,2815,3,GX,1,100,-1.495
1574950483.723059,19959.000,2815,3,GX,1,100,-1.099
1574950483.764694,19994.000,2833,3,GX,1,100,0.000
1574950483.806330,20029.000,2833,3,GX,1,100,0.458
1574950483.847966,20064.000,2833,3,GX,1,100,-0.916
1574950483.886034,20096.000,2851,3,GX,1,100,-1.495
1574950483.924101,20128.000,2851,3,GX,1,100,-1.709
1574950483.962168,20160.000,2851,3,GX,1,100,-1.709
1574950484.002218,20193.667,2869,3,GX,1,100,-1.953
1574950484.042268,20227.333,2869,3,GX,1,100,-2.197
1574950484.082317,20261.000,2869,3,GX,1,100,-2.319
1574950484.123557,20295.667,2887,3,GX,1,100,-3.662
1574950484.164796,20330.333,2887,3,GX,1,100,-9.705
1574950484.206035,20365.000,2887,3,GX,1,100,-14.069
1574950484.247275,20399.667,2904,3,GX,1,100,-7.782
1574950484.288514,20434.333,2904,3,GX,1,100,3.693
1574950484.329754,20469.000,2904,3,GX,1,100,4.089
1574950484.369407,20502.333,2922,3,GX,1,100,-2.838
1574950484.409060,20535.667,2922,3,GX,1,100,-5.890
1574950484.448714,20569.000,2922,3,GX,1,100,-6.470
1574950484.486781,20601.000,2940,3,GX,1,100,-0.580
1574950484.524848,20633.000,2940,3,GX,1,100,-1.923
1574950484.562915,20665.000,2940,3,GX,1,100,-6.409
1574950484.602568,20698.333,2957,3,GX,1,100,-8.850
1574950484.642221,20731.667,2957,3,GX,1,100,-10.925
1574950484.681875,20765.000,2957,3,GX,1,100,-8.453
1574950484.727079,20803.000,2975,3,GX,1,100,-5.920
1574950484.772284,20841.000,2975,3,GX,1,100,-5.157
1574950484.817489,20879.000,2975,3,GX,1,100,-3.723
1574950484.858728,20913.667,2993,3,GX,1,100,-0.214
1574950484.899968,20948.333,2993,3,GX,1,100,-1.862
1574950484.941207,20983.000,2993,3,GX,1,100,-8.118
1574950484.980067,21015.667,3011,3,GX,1,100,-19.257
1574950485.018928,21048.333,3011,3,GX,1,100,-19.348
1574950485.057788,21081.000,3011,3,GX,1,100,1.740
1574950485.096251,21113.333,3029,3,GX,1,100,13.000
1574950485.134715,21145.667,3029,3,GX,1,100,-4.974
1574950485.173179,21178.000,3029,3,GX,1,100,-14.526
1574950485.211643,21210.333,3047,3,GX,1,100,11.658
1574950485.250106,21242.667,3047,3,GX,1,100,33.783
1574950485.288570,21275.000,3047,3,GX,1,100,18.707
1574950485.329809,21309.667,3065,3,GX,1,100,-1.617
1574950485.371049,21344.333,3065,3,GX,1,100,-3.998
1574950485.412288,21379.000,3065,3,GX,1,100,6.989
1574950485.457096,21416.667,3083,3,GX,1,100,11.169
1574950485.501904,21454.333,3083,3,GX,1,100,10.742
1574950485.546713,21492.000,3083,3,GX,1,100,10.712
1574950485.585176,21524.333,3101,3,GX,1,100,3.082
1574950485.623640,21556.667,3101,3,GX,1,100,-2.106
1574950485.662104,21589.000,3101,3,GX,1,100,-3.265
1574950485.709687,21629.000,3117,2,GX,1,100,-1.465
1574950485.757272,21669.000,3117,2,GX,1,100,0.000
1574950485.796528,21702.000,3135,4,GX,1,100,3.235
1574950485.835785,21735.000,3135,4,GX,1,100,4.822
1574950485.875042,21768.000,3135,4,GX,1,100,3.052
1574950485.914299,21801.000,3135,4,GX,1,100,-1.099
1574950485.961287,21840.500,3153,2,GX,1,100,-1.190
1574950486.008277,21880.000,3153,2,GX,1,100,3.448
1574950486.047534,21913.000,3171,3,GX,1,100,3.357
1574950486.086790,21946.000,3171,3,GX,1,100,-0.122
1574950486.126047,21979.000,3171,3,GX,1,100,-0.793
1574950486.164412,22011.250,3189,4,GX,1,100,-1.099
1574950486.202776,22043.500,3189,4,GX,1,100,-0.305
1574950486.241141,22075.750,3189,4,GX,1,100,1.099
1574950486.279505,22108.000,3189,4,GX,1,100,1.221
1574950486.319357,22141.500,3207,2,GX,1,100,0.854
1574950486.359208,22175.000,3207,2,GX,1,100,0.763
1574950486.400448,22209.667,3225,3,GX,1,100,0.000
1574950486.441687,22244.333,3225,3,GX,1,100,-1.709
1574950486.482926,22279.000,3225,3,GX,1,100,-0.977
1574950486.524562,22314.000,3243,3,GX,1,100,0.305
1574950486.566198,22349.000,3243,3,GX,1,100,0.244
1574950486.607834,22384.000,3243,3,GX,1,100,-0.153
1574950486.649074,22418.667,3261,3,GX,1,100,-0.702
1574950486.690313,22453.333,3261,3,GX,1,100,-0.305
1574950486.731552,22488.000,3261,3,GX,1,100,-0.061
1574950486.773188,22523.000,3277,3,GX,1,100,-0.275
1574950486.814824,22558.000,3277,3,GX,1,100,-0.214
1574950486.856460,22593.000,3277,3,GX,1,100,-0.305
1574950486.895717,22626.000,3295,3,GX,1,100,-0.549
1574950486.934974,22659.000,3295,3,GX,1,100,0.458
1574950486.974231,22692.000,3295,3,GX,1,100,0.061
1574950487.015867,22727.000,3313,3,GX,1,100,-0.641
1574950487.057502,22762.000,3313,3,GX,1,100,-0.641
1574950487.099138,22797.000,3313,3,GX,1,100,-0.580
1574950487.135223,22827.333,3331,3,GX,1,100,-0.427
1574950487.171307,22857.667,3331,3,GX,1,100,-0.824
1574950487.207392,22888.000,3331,3,GX,1,100,-0.366
1574950487.252200,22925.667,3349,3,GX,1,100,0.122
1574950487.297008,22963.333,3349,3,GX,1,100,-0.336
1574950487.341816,23001.000,3349,3,GX,1,100,-0.793
1574950487.382659,23035.333,3367,3,GX,1,100,-0.488
1574950487.423502,23069.667,3367,3,GX,1,100,0.031
1574950487.464345,23104.000,3367,3,GX,1,100,-0.092
1574950487.503205,23136.667,3385,3,GX,1,100,-0.488
1574950487.542065,23169.333,3385,3,GX,1,100,-0.305
1574950487.580925,23202.000,3385,3,GX,1,100,0.122
1574950487.619389,23234.333,3404,3,GX,1,100,-0.153
1574950487.657853,23266.667,3404,3,GX,1,100,-0.092
1574950487.696316,23299.000,3404,3,GX,1,100,0.244
1574950487.735573,23332.000,3422,3,GX,1,100,0.458
1574950487.774830,23365.000,3422,3,GX,1,100,0.031
1574950487.814087,23398.000,3422,3,GX,1,100,-0.122
1574950487.859292,23436.000,3439,3,GX,1,100,-0.336
1574950487.904496,23474.000,3439,3,GX,1,100,-0.488
1574950487.949701,23512.000,3439,3,GX,1,100,-0.122
1574950487.991337,23547.000,3455,3,GX,1,100,-0.275
1574950488.032973,23582.000,3455,3,GX,1,100,-0.031
1574950488.074609,23617.000,3455,3,GX,1,100,0.732
1574950488.114262,23650.333,3473,3,GX,1,100,0.153
1574950488.153915,23683.667,3473,3,GX,1,100,-0.244
1574950488.193569,23717.000,3473,3,GX,1,100,-0.397
1574950488.231636,23749.000,3491,3,GX,1,100,-0.458
1574950488.269703,23781.000,3491,3,GX,1,100,-0.183
1574950488.307770,23813.000,3491,3,GX,1,100,-0.397
1574950488.347027,23846.000,3509,3,GX,1,100,-0.244
1574950488.386284,23879.000,3509,3,GX,1,100,-0.183
1574950488.425540,23912.000,3509,3,GX,1,100,-0.397
1574950488.466383,23946.333,3527,3,GX,1,100,-0.549
1574950488.507226,23980.667,3527,3,GX,1,100,-0.427
1574950488.548069,24015.000,3527,3,GX,1,100,-0.427
1574950488.589705,24050.000,3546,3,GX,1,100,-0.366
1574950488.631341,24085.000,3546,3,GX,1,100,-0.397
1574950488.672977,24120.000,3546,3,GX,1,100,-0.366
1574950488.719371,24159.000,3564,2,GX,1,100,-0.458
1574950488.765765,24198.000,3564,2,GX,1,100,-0.366
1574950488.802643,24229.000,3582,4,GX,1,100,-0.183
1574950488.839520,24260.000,3582,4,GX,1,100,-0.275
1574950488.876398,24291.000,3582,4,GX,1,100,-0.336
1574950488.913275,24322.000,3582,4,GX,1,100,-0.458
1574950488.953722,24356.000,3600,3,GX,1,100,-0.549
1574950488.994168,24390.000,3600,3,GX,1,100,-0.336
1574950489.034615,24424.000,3600,3,GX,1,100,-0.336
1574950489.075358,24458.250,3621,4,GX,1,100,-0.336
1574950489.116102,24492.500,3621,4,GX,1,100,-0.488
1574950489.156846,24526.750,3621,4,GX,1,100,-0.427
1574950489.197589,24561.000,3621,4,GX,1,100,-0.153
1574950489.238432,24595.333,3641,3,GX,1,100,-0.549
1574950489.279275,24629.667,3641,3,GX,1,100,-0.336
1574950489.320118,24664.000,3641,3,GX,1,100,0.854
1574950489.359771,24697.333,3659,3,GX,1,100,0.275
1574950489.399425,24730.667,3659,3,GX,1,100,0.000
1574950489.439078,24764.000,3659,3,GX,1,100,0.092
1574950489.480317,24798.667,3677,3,GX,1,100,-0.488
1574950489.521557,24833.333,3677,3,GX,1,100,-0.427
1574950489.562796,24868.000,3677,3,GX,1,100,-0.458
1574950489.598782,24898.250,3696,4,GX,1,100,-0.153
1574950489.634767,24928.500,3696,4,GX,1,100,0.061
1574950489.670752,24958.750,3696,4,GX,1,100,0.000
1574950489.706738,24989.000,3696,4,GX,1,100,-0.183
1574950489.745994,25022.000,3713,2,GX,1,100,-0.214
1574950489.785251,25055.000,3713,2,GX,1,100,-0.122
1574950489.829663,25092.333,3731,3,GX,1,100,-0.031
1574950489.874074,25129.667,3731,3,GX,1,100,-0.092
1574950489.918486,25167.000,3731,3,GX,1,100,0.397
1574950489.957346,25199.667,3747,3,GX,1,100,0.214
1574950489.996207,25232.333,3747,3,GX,1,100,-0.092
1574950490.035067,25265.000,3747,3,GX,1,100,0.092
1574950490.079082,25302.000,3765,3,GX,1,100,-0.122
1574950490.123097,25339.000,3765,3,GX,1,100,-0.397
1574950490.167112,25376.000,3765,3,GX,1,100,-0.366
1574950490.208351,25410.667,3783,3,GX,1,100,-0.092
1574950490.249591,25445.333,3783,3,GX,1,100,-0.122
1574950490.290830,25480.000,3783,3,GX,1,100,-0.549
1574950490.332863,25515.333,3801,3,GX,1,100,-0.336
1574950490.374895,25550.667,3801,3,GX,1,100,0.000
1574950490.416928,25586.000,3801,3,GX,1,100,-0.305
1574950490.454598,25617.667,3819,3,GX,1,100,0.305
1574950490.492269,25649.333,3819,3,GX,1,100,0.946
1574950490.529939,25681.000,3819,3,GX,1,100,-0.061
1574950490.568007,25713.000,3838,3,GX,1,100,-0.397
1574950490.606074,25745.000,3838,3,GX,1,100,-0.275
1574950490.644141,25777.000,3838,3,GX,1,100,-0.366
1574950490.684587,25811.000,3856,3,GX,1,100,-0.519
1574950490.725034,25845.000,3856,3,GX,1,100,-0.214
1574950490.765480,25879.000,3856,3,GX,1,100,0.336
1574950490.806719,25913.667,3873,3,GX,1,100,0.061
1574950490.847959,25948.333,3873,3,GX,1,100,-0.244
1574950490.889198,25983.000,3873,3,GX,1,100,-0.549
1574950490.931231,26018.333,3891,3,GX,1,100,-0.488
1574950490.973263,26053.667,3891,3,GX,1,100,-0.366
1574950491.015296,26089.000,3891,3,GX,1,100,-0.366
1574950491.057724,26124.667,3909,3,GX,1,100,-0.397
1574950491.100153,26160.333,3909,3,GX,1,100,-0.305
1574950491.142582,26196.000,3909,3,GX,1,100,-0.336
1574950491.180650,26228.000,3925,3,GX,1,100,-0.427
1574950491.218717,26260.000,3925,3,GX,1,100,-0.275
1574950491.256784,26292.000,3925,3,GX,1,100,-0.214
1574950491.296834,26325.667,3943,3,GX,1,100,-0.549
1574950491.336884,26359.333,3943,3,GX,1,100,-0.427
1574950491.376933,26393.000,3943,3,GX,1,100,-0.519
1574950491.418173,26427.667,3961,3,GX,1,100,-0.366
1574950491.459412,26462.333,3961,3,GX,1,100,-0.610
1574950491.500652,26497.000,3961,3,GX,1,100,-0.854
1574950491.541098,26531.000,3980,3,GX,1,100,0.275
1574950491.581544,26565.000,3980,3,GX,1,100,0.610
1574950491.621991,26599.000,3980,3,GX,1,100,-0.214
1574950491.665213,26635.333,3998,3,GX,1,100,-0.061
1574950491.708435,26671.667,3998,3,GX,1,100,-0.641
1574950491.751657,26708.000,3998,3,GX,1,100,-0.702
1574950491.790121,26740.333,4016,3,GX,1,100,-0.244
1574950491.828584,26772.667,4016,3,GX,1,100,-0.305
1574950491.867048,26805.000,4016,3,GX,1,100,-0.275
1574950491.907098,26838.667,4034,3,GX,1,100,-0.275
1574950491.947147,26872.333,4034,3,GX,1,100,-0.336
1574950491.987197,26906.000,4034,3,GX,1,100,-0.580
1574950492.028238,26940.500,4051,2,GX,1,100,-0.488
1574950492.069279,26975.000,4051,2,GX,1,100,-0.366
1574950492.110618,27009.750,4069,4,GX,1,100,-0.519
1574950492.151957,27044.500,4069,4,GX,1,100,-0.397
1574950492.193295,27079.250,4069,4,GX,1,100,-0.244
1574950492.234634,27114.000,4069,4,GX,1,100,-0.397
1574950492.276865,27149.500,4085,2,GX,1,100,-0.427
1574950492.319095,27185.000,4085,2,GX,1,100,-0.366
1574950492.356865,27216.750,4103,4,GX,1,100,-0.458
1574950492.394635,27248.500,4103,4,GX,1,100,-0.580
1574950492.432404,27280.250,4103,4,GX,1,100,-0.427
1574950492.470174,27312.000,4103,4,GX,1,100,-0.244
1574950492.508241,27344.000,4121,2,GX,1,100,-0.519
1574950492.546309,27376.000,4121,2,GX,1,100,-0.397
1574950492.591513,27414.000,4140,3,GX,1,100,-0.519
1574950492.636718,27452.000,4140,3,GX,1,100,-0.580
1574950492.681923,27490.000,4140,3,GX,1,100,0.610
1574950492.723162,27524.667,4158,3,GX,1,100,0.580
1574950492.764401,27559.333,4158,3,GX,1,100,-0.336
1574950492.805641,27594.000,4158,3,GX,1,100,-0.366
1574950492.846484,27628.333,4176,3,GX,1,100,-0.671
1574950492.887326,27662.667,4176,3,GX,1,100,-0.610
1574950492.928169,27697.000,4176,3,GX,1,100,-0.580
1574950492.965840,27728.667,4194,3,GX,1,100,-0.641
1574950493.003511,27760.333,4194,3,GX,1,100,-0.214
1574950493.041181,27792.000,4194,3,GX,1,100,-0.031
1574950493.079248,27824.000,4212,3,GX,1,100,-0.519
1574950493.117316,27856.000,4212,3,GX,1,100,-0.702
1574950493.155383,27888.000,4212,3,GX,1,100,-0.366
1574950493.196622,27922.667,4229,3,GX,1,100,-0.305
1574950493.237861,27957.333,4229,3,GX,1,100,-0.549
1574950493.279101,27992.000,4229,3,GX,1,100,-0.488
1574950493.324306,28030.000,4247,3,GX,1,100,-0.458
1574950493.369510,28068.000,4247,3,GX,1,100,-0.397
1574950493.414715,28106.000,4247,3,GX,1,100,-0.488
1574950493.452782,28138.000,4263,3,GX,1,100,-0.366
1574950493.490849,28170.000,4263,3,GX,1,100,-0.336
1574950493.528917,28202.000,4263,3,GX,1,100,-0.610
1574950493.570156,28236.667,4282,3,GX,1,100,-0.519
1574950493.611395,28271.333,4282,3,GX,1,100,-0.397
1574950493.652635,28306.000,4282,3,GX,1,100,-0.793
1574950493.696650,28343.000,4300,3,GX,1,100,-0.580
1574950493.740665,28380.000,4300,3,GX,1,100,-0.366
1574950493.784680,28417.000,4300,3,GX,1,100,-0.610
1574950493.821558,28448.000,4318,3,GX,1,100,0.275
1574950493.858435,28479.000,4318,3,GX,1,100,0.732
1574950493.895313,28510.000,4318,3,GX,1,100,-0.153
1574950493.938931,28546.667,4336,3,GX,1,100,-0.214
1574950493.982550,28583.333,4336,3,GX,1,100,-0.610
1574950494.026169,28620.000,4336,3,GX,1,100,-0.580
1574950494.063839,28651.667,4354,3,GX,1,100,-0.336
1574950494.101510,28683.333,4354,3,GX,1,100,-0.336
1574950494.139180,28715.000,4354,3,GX,1,100,-0.122
1574950494.178834,28748.333,4372,3,GX,1,100,-0.214
1574950494.218487,28781.667,4372,3,GX,1,100,-0.427
1574950494.258140,28815.000,4372,3,GX,1,100,-0.336
1574950494.299776,28850.000,4390,3,GX,1,100,-0.366
1574950494.341412,28885.000,4390,3,GX,1,100,-0.336
1574950494.383048,28920.000,4390,3,GX,1,100,-0.122
1574950494.423891,28954.333,4407,3,GX,1,100,-0.153
1574950494.464734,28988.667,4407,3,GX,1,100,-0.336
1574950494.505577,29023.000,4407,3,GX,1,100,-0.214
1574950494.546816,29057.667,4425,3,GX,1,100,-0.275
1574950494.588055,29092.333,4425,3,GX,1,100,-0.366
1574950494.629295,29127.000,4425,3,GX,1,100,-0.305
1574950494.670138,29161.333,4442,3,GX,1,100,-0.275
1574950494.710981,29195.667,4442,3,GX,1,100,-0.366
1574950494.751823,29230.000,4442,3,GX,1,100,-0.519
1574950494.791477,29263.333,4460,3,GX,1,100,-0.183
1574950494.831130,29296.667,4460,3,GX,1,100,-0.244
1574950494.870783,29330.000,4460,3,GX,1,100,-0.732
1574950494.909247,29362.333,4478,3,GX,1,100,0.092
1574950494.947711,29394.667,4478,3,GX,1,100,1.007
1574950494.986174,29427.000,4478,3,GX,1,100,0.122
1574950495.029396,29463.333,4496,3,GX,1,100,-0.397
1574950495.072618,29499.667,4496,3,GX,1,100,-0.427
1574950495.115840,29536.000,4496,3,GX,1,100,-0.244
1574950495.156584,29570.250,4517,4,GX,1,100,-0.549
1574950495.197328,29604.500,4517,4,GX,1,100,-0.336
1574950495.238072,29638.750,4517,4,GX,1,100,0.122
1574950495.278816,29673.000,4517,4,GX,1,100,-0.336
1574950495.320055,29707.667,4535,3,GX,1,100,-0.549
1574950495.361294,29742.333,4535,3,GX,1,100,-0.397
1574950495.402534,29777.000,4535,3,GX,1,100,-0.366
1574950495.441394,29809.667,4553,3,GX,1,100,-0.488
1574950495.480254,29842.333,4553,3,GX,1,100,-0.458
1574950495.519114,29875.000,4553,3,GX,1,100,-0.305
1574950495.556785,29906.667,4572,3,GX,1,100,-0.336
1574950495.594455,29938.333,4572,3,GX,1,100,-0.458
1574950495.632126,29970.000,4572,3,GX,1,100,-0.366
1574950495.672176,30003.667,4590,3,GX,1,100,-0.427
1574950495.712226,30037.333,4590,3,GX,1,100,-0.458
1574950495.752275,30071.000,4590,3,GX,1,100,-0.366
1574950495.797084,30108.667,4608,3,GX,1,100,-0.519
1574950495.841892,30146.333,4608,3,GX,1,100,-0.275
1574950495.886700,30184.000,4608,3,GX,1,100,-0.488
1574950495.927939,30218.667,4626,3,GX,1,100,-0.336
1574950495.969179,30253.333,4626,3,GX,1,100,0.763
1574950496.010418,30288.000,4626,3,GX,1,100,0.397
1574950496.050072,30321.333,4644,3,GX,1,100,-0.214
1574950496.089725,30354.667,4644,3,GX,1,100,-0.458
1574950496.129378,30388.000,4644,3,GX,1,100,-0.641
1574950496.166652,30419.333,4662,3,GX,1,100,-0.366
1574950496.203926,30450.667,4662,3,GX,1,100,-0.427
1574950496.241200,30482.000,4662,3,GX,1,100,-0.122
1574950496.280854,30515.333,4679,3,GX,1,100,-0.214
1574950496.320507,30548.667,4679,3,GX,1,100,-0.488
1574950496.360160,30582.000,4679,3,GX,1,100,-0.580
1574950496.401796,30617.000,4697,3,GX,1,100,-0.702
1574950496.443432,30652.000,4697,3,GX,1,100,-0.580
1574950496.485068,30687.000,4697,3,GX,1,100,-0.214
1574950496.526307,30721.667,4713,3,GX,1,100,-0.366
1574950496.567547,30756.333,4713,3,GX,1,100,-0.549
1574950496.608786,30791.000,4713,3,GX,1,100,-0.336
1574950496.648836,30824.667,4732,3,GX,1,100,-0.366
1574950496.688886,30858.333,4732,3,GX,1,100,-0.610
1574950496.728936,30892.000,4732,3,GX,1,100,-0.366
1574950496.770175,30926.667,4750,3,GX,1,100,-0.214
1574950496.811414,30961.333,4750,3,GX,1,100,-0.549
1574950496.852654,30996.000,4750,3,GX,1,100,-0.580
1574950496.891911,31029.000,4768,3,GX,1,100,-0.183
1574950496.931167,31062.000,4768,3,GX,1,100,-0.549
1574950496.970424,31095.000,4768,3,GX,1,100,-0.488
1574950497.011267,31129.333,4786,3,GX,1,100,0.824
1574950497.052110,31163.667,4786,3,GX,1,100,0.427
1574950497.092953,31198.000,4786,3,GX,1,100,-0.275
1574950497.134192,31232.667,4804,3,GX,1,100,-0.061
1574950497.175431,31267.333,4804,3,GX,1,100,-0.427
1574950497.216671,31302.000,4804,3,GX,1,100,-0.214
1574950497.256324,31335.333,4822,3,GX,1,100,-0.153
1574950497.295977,31368.667,4822,3,GX,1,100,0.000
1574950497.335631,31402.000,4822,3,GX,1,100,0.122
1574950497.373698,31434.000,4840,3,GX,1,100,-0.031
1574950497.411765,31466.000,4840,3,GX,1,100,-0.336
1574950497.449832,31498.000,4840,3,GX,1,100,-0.397
1574950497.492658,31534.000,4858,3,GX,1,100,-0.244
1574950497.535483,31570.000,4858,3,GX,1,100,-0.183
1574950497.578309,31606.000,4858,3,GX,1,100,-0.275
1574950497.614393,31636.333,4876,3,GX,1,100,-0.305
1574950497.650478,31666.667,4876,3,GX,1,100,-0.183
1574950497.686562,31697.000,4876,3,GX,1,100,-0.153
1574950497.731370,31734.667,4894,3,GX,1,100,-0.244
1574950497.776179,31772.333,4894,3,GX,1,100,-0.214
1574950497.820987,31810.000,4894,3,GX,1,100,-0.214
1574950497.855485,31839.000,4910,3,GX,1,100,-0.305
1574950497.889983,31868.000,4910,3,GX,1,100,-0.244
1574950497.924482,31897.000,4910,3,GX,1,100,-0.153
1574950497.969290,31934.667,4928,3,GX,1,100,-0.305
1574950498.014098,31972.333,4928,3,GX,1,100,0.000
1574950498.058906,32010.000,4928,3,GX,1,100,-0.122
1574950498.100542,32045.000,4946,3,GX,1,100,-0.549
1574950498.142178,32080.000,4946,3,GX,1,100,0.519
1574950498.183814,32115.000,4946,3,GX,1,100,1.282
1574950498.225847,32150.333,4964,3,GX,1,100,0.122
1574950498.267879,32185.667,4964,3,GX,1,100,-0.153
1574950498.309912,32221.000,4964,3,GX,1,100,-0.458
1574950498.348772,32253.667,4982,3,GX,1,100,-0.366
1574950498.387632,32286.333,4982,3,GX,1,100,-0.122
1574950498.426492,32319.000,4982,3,GX,1,100,-0.427
1574950498.464163,32350.667,5000,3,GX,1,100,-0.305
1574950498.501833,32382.333,5000,3,GX,1,100,0.000
1574950498.539504,32414.000,5000,3,GX,1,100,-0.427
1574950498.579554,32447.667,5019,3,GX,1,100,-0.549
1574950498.619604,32481.333,5019,3,GX,1,100,-0.305
1574950498.659653,32515.000,5019,3,GX,1,100,-0.305
1574950498.700893,32549.667,5036,3,GX,1,100,-0.397
1574950498.742132,32584.333,5036,3,GX,1,100,-0.183
1574950498.783372,32619.000,5036,3,GX,1,100,-0.183
1574950498.830361,32658.500,5054,2,GX,1,100,-0.275
1574950498.877350,32698.000,5054,2,GX,1,100,-0.305
1574950498.917400,32731.667,5070,3,GX,1,100,-0.366
1574950498.957450,32765.333,5070,3,GX,1,100,-0.427
1574950498.997499,32799.000,5070,3,GX,1,100,-0.366
1574950499.035567,32831.000,5088,4,GX,1,100,-0.183
1574950499.073634,32863.000,5088,4,GX,1,100,-0.305
1574950499.111701,32895.000,5088,4,GX,1,100,-0.458
1574950499.149768,32927.000,5088,4,GX,1,100,-0.122
1574950499.189421,32960.333,5106,3,GX,1,100,-0.519
1574950499.229074,32993.667,5106,3,GX,1,100,-0.427
1574950499.268728,33027.000,5106,3,GX,1,100,0.854
1574950499.309174,33061.000,5124,3,GX,1,100,0.702
1574950499.349621,33095.000,5124,3,GX,1,100,-0.305
1574950499.390067,33129.000,5124,3,GX,1,100,-0.366
1574950499.431703,33164.000,5142,2,GX,1,100,0.580
1574950499.473339,33199.000,5142,2,GX,1,100,1.221
1574950499.514182,33233.333,5160,3,GX,1,100,-0.580
1574950499.555024,33267.667,5160,3,GX,1,100,-0.427
1574950499.595867,33302.000,5160,3,GX,1,100,0.122
1574950499.637503,33337.000,5179,3,GX,1,100,-0.397
1574950499.679139,33372.000,5179,3,GX,1,100,-0.702
1574950499.720775,33407.000,5179,3,GX,1,100,-0.183
1574950499.759239,33439.333,5197,3,GX,1,100,-0.305
1574950499.797703,33471.667,5197,3,GX,1,100,-0.580
1574950499.836166,33504.000,5197,3,GX,1,100,-0.458
1574950499.876612,33538.000,5215,3,GX,1,100,-0.275
1574950499.917059,33572.000,5215,3,GX,1,100,-0.336
1574950499.957505,33606.000,5215,3,GX,1,100,-0.336
1574950499.999141,33641.000,5232,3,GX,1,100,-0.366
1574950500.040777,33676.000,5232,3,GX,1,100,-0.366
1574950500.082413,33711.000,5232,3,GX,1,100,-0.366
1574950500.124049,33746.000,5248,3,GX,1,100,-0.549
1574950500.165685,33781.000,5248,3,GX,1,100,-0.366
1574950500.207321,33816.000,5248,3,GX,1,100,-0.336
1574950500.245388,33848.000,5266,3,GX,1,100,-0.671
1574950500.283455,33880.000,5266,3,GX,1,100,-0.153
1574950500.321522,33912.000,5266,3,GX,1,100,0.824
1574950500.359193,33943.667,5284,3,GX,1,100,0.061
1574950500.396863,33975.333,5284,3,GX,1,100,-0.397
1574950500.434534,34007.000,5284,3,GX,1,100,-0.519
1574950500.478946,34044.333,5302,3,GX,1,100,-0.549
1574950500.523357,34081.667,5302,3,GX,1,100,-0.275
1574950500.567769,34119.000,5302,3,GX,1,100,-0.397
1574950500.609008,34153.667,5321,3,GX,1,100,-0.214
1574950500.650248,34188.333,5321,3,GX,1,100,-0.183
1574950500.691487,34223.000,5321,3,GX,1,100,-0.458
1574950500.733520,34258.333,5339,3,GX,1,100,-0.549
1574950500.775552,34293.667,5339,3,GX,1,100,-0.427
1574950500.817585,34329.000,5339,3,GX,1,100,-0.275
1574950500.854859,34360.333,5357,3,GX,1,100,-0.427
1574950500.892133,34391.667,5357,3,GX,1,100,-0.519
1574950500.929407,34423.000,5357,3,GX,1,100,-0.275
1574950500.967870,34455.333,5375,3,GX,1,100,-0.397
1574950501.006334,34487.667,5375,3,GX,1,100,-0.458
1574950501.044798,34520.000,5375,3,GX,1,100,-0.488
1574950501.084451,34553.333,5393,3,GX,1,100,-0.488
1574950501.124104,34586.667,5393,3,GX,1,100,-0.610
1574950501.163758,34620.000,5393,3,GX,1,100,-0.488
1574950501.207535,34656.800,5414,5,GX,1,100,-0.305
1574950501.251312,34693.600,5414,5,GX,1,100,-0.519
1574950501.295089,34730.400,5414,5,GX,1,100,-0.366
1574950501.338866,34767.200,5414,5,GX,1,100,-0.549
1574950501.382644,34804.000,5414,5,GX,1,100,-0.580
1574950501.421108,34836.333,5434,3,GX,1,100,0.549
1574950501.459571,34868.667,5434,3,GX,1,100,0.336
1574950501.498035,34901.000,5434,3,GX,1,100,-0.336
1574950501.539076,34935.500,5452,2,GX,1,100,-0.397
1574950501.580117,34970.000,5452,2,GX,1,100,-0.610
1574950501.622546,35005.667,5470,3,GX,1,100,-0.244
1574950501.664975,35041.333,5470,3,GX,1,100,-0.183
1574950501.707404,35077.000,5470,3,GX,1,100,-0.580
1574950501.749040,35112.000,5488,3,GX,1,100,-0.488
1574950501.790676,35147.000,5488,3,GX,1,100,-0.244
1574950501.832312,35182.000,5488,3,GX,1,100,-0.519
1574950501.873551,35216.667,5506,3,GX,1,100,-0.641
1574950501.914791,35251.333,5506,3,GX,1,100,-0.458
1574950501.956030,35286.000,5506,3,GX,1,100,-0.488
1574950501.994494,35318.333,5524,3,GX,1,100,-0.519
1574950502.032958,35350.667,5524,3,GX,1,100,-0.458
1574950502.071421,35383.000,5524,3,GX,1,100,-0.366
1574950502.112264,35417.333,5540,3,GX,1,100,-0.488
1574950502.153107,35451.667,5540,3,GX,1,100,-0.427
1574950502.193950,35486.000,5540,3,GX,1,100,-0.397
1574950502.233999,35519.667,5558,3,GX,1,100,-0.488
1574950502.274049,35553.333,5558,3,GX,1,100,-0.427
1574950502.314099,35587.000,5558,3,GX,1,100,-0.488
1574950502.354942,35621.333,5576,3,GX,1,100,-0.427
1574950502.395785,35655.667,5576,3,GX,1,100,-0.397
1574950502.436628,35690.000,5576,3,GX,1,100,-0.458
1574950502.477074,35724.000,5594,3,GX,1,100,-0.427
1574950502.517520,35758.000,5594,3,GX,1,100,-0.336
1574950502.557967,35792.000,5594,3,GX,1,100,-0.519
1574950502.599603,35827.000,5613,3,GX,1,100,-0.397
1574950502.641239,35862.000,5613,3,GX,1,100,-0.275
1574950502.682875,35897.000,5613,3,GX,1,100,-0.366
1574950502.722131,35930.000,5631,3,GX,1,100,0.397
1574950502.761388,35963.000,5631,3,GX,1,100,0.641
1574950502.800645,35996.000,5631,3,GX,1,100,-0.214
1574950502.838712,36028.000,5649,3,GX,1,100,-0.061
1574950502.876779,36060.000,5649,3,GX,1,100,-0.366
1574950502.914846,36092.000,5649,3,GX,1,100,-0.458
1574950502.955293,36126.000,5666,3,GX,1,100,-0.092
1574950502.995739,36160.000,5666,3,GX,1,100,-0.397
1574950503.036185,36194.000,5666,3,GX,1,100,-0.458
1574950503.080993,36231.667,5684,3,GX,1,100,-0.122
1574950503.125802,36269.333,5684,3,GX,1,100,-0.183
1574950503.170610,36307.000,5684,3,GX,1,100,-0.397
1574950503.211849,36341.667,5700,3,GX,1,100,-0.244
1574950503.253089,36376.333,5700,3,GX,1,100,0.122
1574950503.294328,36411.000,5700,3,GX,1,100,0.000
1574950503.333188,36443.667,5718,3,GX,1,100,-0.366
1574950503.372048,36476.333,5718,3,GX,1,100,-0.214
1574950503.410909,36509.000,5718,3,GX,1,100,-0.061
1574950503.448976,36541.000,5736,3,GX,1,100,-0.275
1574950503.487043,36573.000,5736,3,GX,1,100,-0.427
1574950503.525110,36605.000,5736,3,GX,1,100,-0.153
1574950503.564367,36638.000,5755,3,GX,1,100,-0.244
1574950503.603624,36671.000,5755,3,GX,1,100,-0.427
1574950503.642880,36704.000,5755,3,GX,1,100,-0.336
1574950503.684120,36738.667,5773,3,GX,1,100,-0.244
1574950503.725359,36773.333,5773,3,GX,1,100,-0.275
1574950503.766598,36808.000,5773,3,GX,1,100,-0.366
1574950503.811407,36845.667,5791,3,GX,1,100,-0.366
1574950503.856215,36883.333,5791,3,GX,1,100,-0.397
1574950503.901023,36921.000,5791,3,GX,1,100,-0.305
1574950503.940676,36954.333,5809,3,GX,1,100,-0.336
1574950503.980330,36987.667,5809,3,GX,1,100,-0.671
1574950504.019983,37021.000,5809,3,GX,1,100,-0.214
1574950504.058050,37053.000,5827,3,GX,1,100,0.793
1574950504.096117,37085.000,5827,3,GX,1,100,0.000
1574950504.134184,37117.000,5827,3,GX,1,100,-0.275
1574950504.173441,37150.000,5844,3,GX,1,100,-0.275
1574950504.212698,37183.000,5844,3,GX,1,100,-0.549
1574950504.251955,37216.000,5844,3,GX,1,100,-0.183
1574950504.293194,37250.667,5862,3,GX,1,100,-0.275
1574950504.334433,37285.333,5862,3,GX,1,100,-0.458
1574950504.375673,37320.000,5862,3,GX,1,100,-0.366
1574950504.417309,37355.000,5878,3,GX,1,100,-0.336
1574950504.458945,37390.000,5878,3,GX,1,100,-0.519
1574950504.500581,37425.000,5878,3,GX,1,100,-0.549
1574950504.540630,37458.667,5896,3,GX,1,100,-0.427
1574950504.580680,37492.333,5896,3,GX,1,100,-0.397
1574950504.620730,37526.000,5896,3,GX,1,100,-0.519
1574950504.658004,37557.333,5915,3,GX,1,100,-0.549
1574950504.695278,37588.667,5915,3,GX,1,100,-0.549
1574950504.732552,37620.000,5915,3,GX,1,100,-0.427
1574950504.775774,37656.333,5933,3,GX,1,100,-0.397
1574950504.818996,37692.667,5933,3,GX,1,100,-0.458
1574950504.862218,37729.000,5933,3,GX,1,100,-0.488
1574950504.902665,37763.000,5951,3,GX,1,100,-0.580
1574950504.943111,37797.000,5951,3,GX,1,100,-0.610
1574950504.983557,37831.000,5951,3,GX,1,100,-0.458
1574950505.024400,37865.333,5969,3,GX,1,100,-0.458
1574950505.065243,37899.667,5969,3,GX,1,100,-0.427
1574950505.106086,37934.000,5969,3,GX,1,100,-0.336
1574950505.148317,37969.500,5987,2,GX,1,100,-0.458
1574950505.190548,38005.000,5987,2,GX,1,100,-0.397
1574950505.228317,38036.750,6005,4,GX,1,100,-0.580
1574950505.266087,38068.500,6005,4,GX,1,100,-0.702
1574950505.303857,38100.250,6005,4,GX,1,100,0.183
1574950505.341627,38132.000,6005,4,GX,1,100,0.671
1574950505.380883,38165.000,6023,2,GX,1,100,-0.244
1574950505.420140,38198.000,6023,2,GX,1,100,-0.214
1574950505.464155,38235.000,6040,3,GX,1,100,-0.610
1574950505.508170,38272.000,6040,3,GX,1,100,-0.549
1574950505.552186,38309.000,6040,3,GX,1,100,-0.183
1574950505.591145,38341.750,6057,4,GX,1,100,-0.488
1574950505.630104,38374.500,6057,4,GX,1,100,-0.397
1574950505.669064,38407.250,6057,4,GX,1,100,-0.275
1574950505.708023,38440.000,6057,4,GX,1,100,-0.427
1574950505.755012,38479.500,6075,2,GX,1,100,-0.519
1574950505.802001,38519.000,6075,2,GX,1,100,-0.397
1574950505.840068,38551.000,6093,3,GX,1,100,-0.397
1574950505.878135,38583.000,6093,3,GX,1,100,-0.305
1574950505.916203,38615.000,6093,3,GX,1,100,-0.397
1574950505.961407,38653.000,6111,3,GX,1,100,-0.488
1574950506.006612,38691.000,6111,3,GX,1,100,-0.275
1574950506.051817,38729.000,6111,3,GX,1,100,-0.366
1574950506.092659,38763.333,6129,3,GX,1,100,-0.488
1574950506.133502,38797.667,6129,3,GX,1,100,-0.366
1574950506.174345,38832.000,6129,3,GX,1,100,-0.458
1574950506.214792,38866.000,6147,3,GX,1,100,-0.610
1574950506.255238,38900.000,6147,3,GX,1,100,-0.427
1574950506.295684,38934.000,6147,3,GX,1,100,-0.427
1574950506.333751,38966.000,6165,3,GX,1,100,-0.488
1574950506.371819,38998.000,6165,3,GX,1,100,-0.458
1574950506.409886,39030.000,6165,3,GX,1,100,-0.519
1574950506.448349,39062.333,6182,3,GX,1,100,-0.336
1574950506.486813,39094.667,6182,3,GX,1,100,-0.671
1574950506.525277,39127.000,6182,3,GX,1,100,-0.610
1574950506.566913,39162.000,6201,3,GX,1,100,0.580
1574950506.608549,39197.000,6201,3,GX,1,100,0.397
1574950506.650185,39232.000,6201,3,GX,1,100,-0.275
1574950506.689441,39265.000,6219,3,GX,1,100,-0.244
1574950506.728698,39298.000,6219,3,GX,1,100,-0.702
1574950506.767955,39331.000,6219,3,GX,1,100,-0.397
1574950506.809194,39365.667,6235,3,GX,1,100,-0.366
1574950506.850434,39400.333,6235,3,GX,1,100,-0.397
1574950506.891673,39435.000,6235,3,GX,1,100,-0.244
1574950506.933309,39470.000,6253,3,GX,1,100,-0.397
1574950506.974945,39505.000,6253,3,GX,1,100,-0.580
1574950507.016581,39540.000,6253,3,GX,1,100,-0.580
1574950507.060199,39576.667,6271,3,GX,1,100,-0.458
1574950507.103818,39613.333,6271,3,GX,1,100,-0.458
1574950507.147437,39650.000,6271,3,GX,1,100,-0.427
1574950507.185107,39681.667,6289,3,GX,1,100,-0.366
1574950507.222778,39713.333,6289,3,GX,1,100,-0.397
1574950507.260448,39745.000,6289,3,GX,1,100,-0.336
1574950507.300181,39778.400,6309,5,GX,1,100,-0.305
1574950507.339914,39811.800,6309,5,GX,1,100,-0.427
1574950507.379646,39845.200,6309,5,GX,1,100,-0.397
1574950507.419379,39878.600,6309,5,GX,1,100,-0.275
1574950507.459111,39912.000,6309,5,GX,1,100,-0.336
1574950507.500747,39947.000,6328,2,GX,1,100,-0.336
1574950507.542383,39982.000,6328,2,GX,1,100,-0.336
1574950507.582829,40016.000,6347,3,GX,1,100,-0.366
1574950507.623276,40050.000,6347,3,GX,1,100,-0.214
1574950507.663722,40084.000,6347,3,GX,1,100,-0.519
1574950507.704169,40118.000,6365,3,GX,1,100,-0.427
1574950507.744615,40152.000,6365,3,GX,1,100,0.732
1574950507.785061,40186.000,6365,3,GX,1,100,0.671
1574950507.823128,40218.000,6383,3,GX,1,100,-0.183
1574950507.861196,40250.000,6383,3,GX,1,100,-0.366
1574950507.899263,40282.000,6383,3,GX,1,100,-0.641
1574950507.943278,40319.000,6401,3,GX,1,100,-0.427
1574950507.987293,40356.000,6401,3,GX,1,100,-0.488
1574950508.031308,40393.000,6401,3,GX,1,100,-0.214
1574950508.072944,40428.000,6419,3,GX,1,100,-0.122
1574950508.114580,40463.000,6419,3,GX,1,100,-0.488
1574950508.156216,40498.000,6419,3,GX,1,100,-0.610
1574950508.197059,40532.333,6437,3,GX,1,100,-0.458
1574950508.237902,40566.667,6437,3,GX,1,100,-0.519
1574950508.278744,40601.000,6437,3,GX,1,100,-0.549
1574950508.318794,40634.667,6454,3,GX,1,100,-0.397
1574950508.358844,40668.333,6454,3,GX,1,100,-0.366
1574950508.398894,40702.000,6454,3,GX,1,100,-0.336
1574950508.436961,40734.000,6472,3,GX,1,100,-0.427
1574950508.475028,40766.000,6472,3,GX,1,100,-0.397
1574950508.513095,40798.000,6472,3,GX,1,100,-0.397
1574950508.552352,40831.000,6490,3,GX,1,100,-0.488
1574950508.591609,40864.000,6490,3,GX,1,100,-0.488
1574950508.630866,40897.000,6490,3,GX,1,100,-0.549
1574950508.672502,40932.000,6507,3,GX,1,100,-0.427
1574950508.714138,40967.000,6507,3,GX,1,100,-0.397
1574950508.755773,41002.000,6507,3,GX,1,100,-0.763
1574950508.800582,41039.667,6525,3,GX,1,100,-0.244
1574950508.845390,41077.333,6525,3,GX,1,100,0.702
1574950508.890198,41115.000,6525,3,GX,1,100,-0.031
1574950508.929851,41148.333,6543,3,GX,1,100,-0.427
1574950508.969505,41181.667,6543,3,GX,1,100,-0.549
1574950509.009158,41215.000,6543,3,GX,1,100,-0.610
1574950509.046035,41246.000,6561,3,GX,1,100,-0.275
1574950509.082913,41277.000,6561,3,GX,1,100,-0.488
1574950509.119790,41308.000,6561,3,GX,1,100,-0.275
1574950509.160237,41342.000,6579,3,GX,1,100,-0.244
1574950509.200683,41376.000,6579,3,GX,1,100,-0.488
1574950509.241129,41410.000,6579,3,GX,1,100,-0.610
1574950509.281972,41444.333,6597,3,GX,1,100,-0.427
1574950509.322815,41478.667,6597,3,GX,1,100,-0.153
1574950509.363658,41513.000,6597,3,GX,1,100,-0.092
1574950509.404897,41547.667,6615,3,GX,1,100,-0.427
1574950509.446137,41582.333,6615,3,GX,1,100,-0.458
1574950509.487376,41617.000,6615,3,GX,1,100,-0.305
1574950509.531788,41654.333,6632,3,GX,1,100,-0.366
1574950509.576200,41691.667,6632,3,GX,1,100,-0.488
1574950509.620611,41729.000,6632,3,GX,1,100,-0.397
1574950509.657489,41760.000,6651,3,GX,1,100,-0.458
1574950509.694366,41791.000,6651,3,GX,1,100,-0.519
1574950509.731244,41822.000,6651,3,GX,1,100,-0.366
1574950509.774466,41858.333,6667,3,GX,1,100,-0.549
1574950509.817688,41894.667,6667,3,GX,1,100,-0.458
1574950509.860910,41931.000,6667,3,GX,1,100,-0.397
1574950509.899374,41963.333,6685,3,GX,1,100,-0.702
1574950509.937837,41995.667,6685,3,GX,1,100,0.092
1574950509.976301,42028.000,6685,3,GX,1,100,0.671
1574950510.014368,42060.000,6703,3,GX,1,100,-0.336
1574950510.052435,42092.000,6703,3,GX,1,100,-0.275
1574950510.090503,42124.000,6703,3,GX,1,100,-0.458
1574950510.131346,42158.333,6721,3,GX,1,100,-0.580
1574950510.172188,42192.667,6721,3,GX,1,100,-0.122
1574950510.213031,42227.000,6721,3,GX,1,100,-0.458
1574950510.253081,42260.667,6739,3,GX,1,100,-0.488
1574950510.293131,42294.333,6739,3,GX,1,100,-0.305
1574950510.333181,42328.000,6739,3,GX,1,100,-0.458
1574950510.374420,42362.667,6757,3,GX,1,100,-0.610
1574950510.415659,42397.333,6757,3,GX,1,100,-0.427
1574950510.456899,42432.000,6757,3,GX,1,100,-0.366
1574950510.498138,42466.667,6775,3,GX,1,100,-0.397
1574950510.539378,42501.333,6775,3,GX,1,100,-0.458
1574950510.580617,42536.000,6775,3,GX,1,100,-0.427
1574950510.620270,42569.333,6794,3,GX,1,100,-0.427
1574950510.659924,42602.667,6794,3,GX,1,100,-0.397
1574950510.699577,42636.000,6794,3,GX,1,100,-0.427
1574950510.738040,42668.333,6812,3,GX,1,100,-0.427
1574950510.776504,42700.667,6812,3,GX,1,100,-0.397
1574950510.814968,42733.000,6812,3,GX,1,100,-0.519
1574950510.854225,42766.000,6829,3,GX,1,100,-0.519
1574950510.893481,42799.000,6829,3,GX,1,100,-0.427
1574950510.932738,42832.000,6829,3,GX,1,100,-0.427
1574950510.973978,42866.667,6847,3,GX,1,100,-0.427
1574950511.015217,42901.333,6847,3,GX,1,100,-0.458
1574950511.056456,42936.000,6847,3,GX,1,100,-0.397
1574950511.102851,42975.000,6863,2,GX,1,100,-0.488
1574950511.149245,43014.000,6863,2,GX,1,100,-0.366
1574950511.189691,43048.000,6881,3,GX,1,100,-0.580
1574950511.230138,43082.000,6881,3,GX,1,100,-0.702
1574950511.270584,43116.000,6881,3,GX,1,100,0.519
1574950511.308651,43148.000,6899,4,GX,1,100,0.458
1574950511.346718,43180.000,6899,4,GX,1,100,-0.366
1574950511.384785,43212.000,6899,4,GX,1,100,-0.244
1574950511.422853,43244.000,6899,4,GX,1,100,-0.549
1574950511.462109,43277.000,6917,3,GX,1,100,-0.336
1574950511.501366,43310.000,6917,3,GX,1,100,-0.122
1574950511.540623,43343.000,6917,3,GX,1,100,-0.549
1574950511.580673,43376.667,6936,3,GX,1,100,-0.427
1574950511.620722,43410.333,6936,3,GX,1,100,-0.244
1574950511.660772,43444.000,6936,3,GX,1,100,-0.488
1574950511.702408,43479.000,6954,2,GX,1,100,-0.641
1574950511.744044,43514.000,6954,2,GX,1,100,-0.488
1574950511.789249,43552.000,6972,3,GX,1,100,-0.427
1574950511.834454,43590.000,6972,3,GX,1,100,-0.458
1574950511.879658,43628.000,6972,3,GX,1,100,-0.427
1574950511.917329,43659.667,6990,3,GX,1,100,-0.427
1574950511.954999,43691.333,6990,3,GX,1,100,-0.397
1574950511.992670,43723.000,6990,3,GX,1,100,-0.427
1574950512.031134,43755.333,7007,3,GX,1,100,-0.458
1574950512.069597,43787.667,7007,3,GX,1,100,-0.427
1574950512.108061,43820.000,7007,3,GX,1,100,-0.397
1574950512.148904,43854.333,7025,3,GX,1,100,-0.427
1574950512.189747,43888.667,7025,3,GX,1,100,-0.427
1574950512.230590,43923.000,7025,3,GX,1,100,-0.366
1574950512.271829,43957.667,7041,3,GX,1,100,-0.366
1574950512.313068,43992.333,7041,3,GX,1,100,-0.336
1574950512.354308,44027.000,7041,3,GX,1,100,-0.275
1574950512.395547,44061.667,7059,3,GX,1,100,-0.519
1574950512.436787,44096.333,7059,3,GX,1,100,-0.366
1574950512.478026,44131.000,7059,3,GX,1,100,-0.458
1574950512.520059,44166.333,7077,3,GX,1,100,-0.641
1574950512.562091,44201.667,7077,3,GX,1,100,0.610
1574950512.604124,44237.000,7077,3,GX,1,100,1.068
1574950512.641398,44268.333,7096,3,GX,1,100,-0.122
1574950512.678672,44299.667,7096,3,GX,1,100,-0.244
1574950512.715946,44331.000,7096,3,GX,1,100,-0.366
1574950512.756392,44365.000,7114,3,GX,1,100,-0.244
1574950512.796839,44399.000,7114,3,GX,1,100,-0.397
1574950512.837285,44433.000,7114,3,GX,1,100,-0.366
1574950512.877731,44467.000,7132,3,GX,1,100,-0.153
1574950512.918177,44501.000,7132,3,GX,1,100,-0.366
1574950512.958624,44535.000,7132,3,GX,1,100,-0.641
1574950512.999863,44569.667,7150,3,GX,1,100,-0.488
1574950513.041103,44604.333,7150,3,GX,1,100,-0.366
1574950513.082342,44639.000,7150,3,GX,1,100,-0.580
1574950513.121202,44671.667,7168,3,GX,1,100,-0.427
1574950513.160062,44704.333,7168,3,GX,1,100,-0.244
1574950513.198923,44737.000,7168,3,GX,1,100,-0.397
1574950513.236395,44768.500,7186,4,GX,1,100,-0.397
1574950513.273867,44800.000,7186,4,GX,1,100,-0.397
1574950513.311340,44831.500,7186,4,GX,1,100,-0.427
1574950513.348812,44863.000,7186,4,GX,1,100,-0.366
1574950513.388664,44896.500,7207,4,GX,1,100,-0.458
1574950513.428515,44930.000,7207,4,GX,1,100,-0.336
1574950513.468367,44963.500,7207,4,GX,1,100,-0.366
1574950513.508218,44997.000,7207,4,GX,1,100,-0.519
1574950513.549061,45031.333,7228,3,GX,1,100,-0.366
1574950513.589904,45065.667,7228,3,GX,1,100,-0.885
1574950513.630747,45100.000,7228,3,GX,1,100,-0.732
1574950513.675159,45137.333,7246,3,GX,1,100,0.793
1574950513.719570,45174.667,7246,3,GX,1,100,0.732
1574950513.763982,45212.000,7246,3,GX,1,100,0.000
1574950513.802445,45244.333,7264,3,GX,1,100,-0.305
1574950513.840909,45276.667,7264,3,GX,1,100,-0.824
1574950513.879373,45309.000,7264,3,GX,1,100,-0.854
1574950513.924181,45346.667,7281,3,GX,1,100,-0.977
1574950513.968989,45384.333,7281,3,GX,1,100,-0.641
1574950514.013797,45422.000,7281,3,GX,1,100,0.519
1574950514.055433,45457.000,7299,2,GX,1,100,0.336
1574950514.097069,45492.000,7299,2,GX,1,100,-0.580
1574950514.137516,45526.000,7315,3,GX,1,100,-0.122
1574950514.177962,45560.000,7315,3,GX,1,100,-0.031
1574950514.218408,45594.000,7315,3,GX,1,100,-0.549
1574950514.256475,45626.000,7333,4,GX,1,100,-0.366
1574950514.294543,45658.000,7333,4,GX,1,100,-0.427
1574950514.332610,45690.000,7333,4,GX,1,100,-0.732
1574950514.370677,45722.000,7333,4,GX,1,100,-0.702
1574950514.411916,45756.667,7351,3,GX,1,100,-0.702
1574950514.453156,45791.333,7351,3,GX,1,100,-0.549
1574950514.494395,45826.000,7351,3,GX,1,100,-0.427
1574950514.533255,45858.667,7369,3,GX,1,100,-0.519
1574950514.572115,45891.333,7369,3,GX,1,100,-0.122
1574950514.610976,45924.000,7369,3,GX,1,100,0.183
1574950514.651422,45958.000,7388,3,GX,1,100,-0.153
1574950514.691868,45992.000,7388,3,GX,1,100,-0.122
1574950514.732315,46026.000,7388,3,GX,1,100,0.183
1574950514.773554,46060.667,7406,3,GX,1,100,-0.854
1574950514.814794,46095.333,7406,3,GX,1,100,-0.549
1574950514.856033,46130.000,7406,3,GX,1,100,1.129
1574950514.897074,46164.500,7424,2,GX,1,100,-0.244
1574950514.938115,46199.000,7424,2,GX,1,100,-0.519
1574950514.978165,46232.667,7442,3,GX,1,100,0.061
1574950515.018215,46266.333,7442,3,GX,1,100,-1.038
1574950515.058264,46300.000,7442,3,GX,1,100,-1.038
1574950515.099504,46334.667,7459,3,GX,1,100,-0.061
1574950515.140743,46369.333,7459,3,GX,1,100,-0.366
1574950515.181983,46404.000,7459,3,GX,1,100,-0.488
1574950515.221240,46437.000,7477,3,GX,1,100,0.397
1574950515.260496,46470.000,7477,3,GX,1,100,-0.488
1574950515.299753,46503.000,7477,3,GX,1,100,-0.244
1574950515.340199,46537.000,7495,3,GX,1,100,-0.214
1574950515.380646,46571.000,7495,3,GX,1,100,-1.251
1574950515.421092,46605.000,7495,3,GX,1,100,-0.458
1574950515.462332,46639.667,7511,3,GX,1,100,-0.336
1574950515.503571,46674.333,7511,3,GX,1,100,-0.641
1574950515.544810,46709.000,7511,3,GX,1,100,0.427
1574950515.584067,46742.000,7530,3,GX,1,100,-0.153
1574950515.623324,46775.000,7530,3,GX,1,100,-1.068
1574950515.662580,46808.000,7530,3,GX,1,100,-0.214
1574950515.700648,46840.000,7548,4,GX,1,100,-0.061
1574950515.738715,46872.000,7548,4,GX,1,100,-0.732
1574950515.776782,46904.000,7548,4,GX,1,100,-0.305
1574950515.814849,46936.000,7548,4,GX,1,100,-0.031
1574950515.860649,46974.500,7566,2,GX,1,100,-0.641
1574950515.906448,47013.000,7566,2,GX,1,100,-0.580
1574950515.947688,47047.667,7584,3,GX,1,100,-0.427
1574950515.988927,47082.333,7584,3,GX,1,100,0.092
1574950516.030166,47117.000,7584,3,GX,1,100,0.488
1574950516.071406,47151.667,7602,3,GX,1,100,-0.122
1574950516.112645,47186.333,7602,3,GX,1,100,1.892
1574950516.153885,47221.000,7602,3,GX,1,100,2.869
1574950516.193934,47254.667,7620,3,GX,1,100,-0.427
1574950516.233984,47288.333,7620,3,GX,1,100,-0.793
1574950516.274034,47322.000,7620,3,GX,1,100,-0.458
1574950516.311705,47353.667,7638,3,GX,1,100,-0.671
1574950516.349375,47385.333,7638,3,GX,1,100,-0.610
1574950516.387046,47417.000,7638,3,GX,1,100,0.122
1574950516.426302,47450.000,7655,3,GX,1,100,-0.275
1574950516.465559,47483.000,7655,3,GX,1,100,-0.763
1574950516.504816,47516.000,7655,3,GX,1,100,-0.610
1574950516.546055,47550.667,7674,3,GX,1,100,-0.977
1574950516.587295,47585.333,7674,3,GX,1,100,-1.007
1574950516.628534,47620.000,7674,3,GX,1,100,-0.519
1574950516.669774,47654.667,7690,3,GX,1,100,-0.397
1574950516.711013,47689.333,7690,3,GX,1,100,-0.488
1574950516.752252,47724.000,7690,3,GX,1,100,-0.458
1574950516.796268,47761.000,7708,3,GX,1,100,-0.519
1574950516.840283,47798.000,7708,3,GX,1,100,-0.519
1574950516.884298,47835.000,7708,3,GX,1,100,-0.519
1574950516.921968,47866.667,7726,3,GX,1,100,-0.793
1574950516.959639,47898.333,7726,3,GX,1,100,-0.244
1574950516.997310,47930.000,7726,3,GX,1,100,-0.183
1574950517.035773,47962.333,7744,3,GX,1,100,-0.610
1574950517.074237,47994.667,7744,3,GX,1,100,-0.641
1574950517.112701,48027.000,7744,3,GX,1,100,-0.336
1574950517.153543,48061.333,7762,3,GX,1,100,-0.244
1574950517.194386,48095.667,7762,3,GX,1,100,-0.488
1574950517.235229,48130.000,7762,3,GX,1,100,-0.366
1574950517.276072,48164.333,7780,3,GX,1,100,-0.610
1574950517.316915,48198.667,7780,3,GX,1,100,-0.427
1574950517.357758,48233.000,7780,3,GX,1,100,0.732
1574950517.399394,48268.000,7798,3,GX,1,100,0.549
1574950517.441030,48303.000,7798,3,GX,1,100,-0.244
1574950517.482666,48338.000,7798,3,GX,1,100,-0.458
1574950517.523509,48372.333,7816,3,GX,1,100,-0.580
1574950517.564352,48406.667,7816,3,GX,1,100,-0.275
1574950517.605194,48441.000,7816,3,GX,1,100,-0.305
1574950517.641675,48471.667,7834,3,GX,1,100,-0.397
1574950517.678156,48502.333,7834,3,GX,1,100,-0.244
1574950517.714637,48533.000,7834,3,GX,1,100,-0.092
1574950517.756273,48568.000,7852,3,GX,1,100,-0.275
1574950517.797909,48603.000,7852,3,GX,1,100,-0.458
1574950517.839545,48638.000,7852,3,GX,1,100,-0.336
1574950517.875233,48668.000,7870,3,GX,1,100,-0.366
1574950517.910921,48698.000,7870,3,GX,1,100,-0.336
1574950517.946609,48728.000,7870,3,GX,1,100,-0.244
1574950517.988245,48763.000,7886,3,GX,1,100,-0.336
1574950518.029881,48798.000,7886,3,GX,1,100,-0.305
1574950518.071517,48833.000,7886,3,GX,1,100,-0.366
1574950518.110774,48866.000,7904,3,GX,1,100,-0.427
1574950518.150030,48899.000,7904,3,GX,1,100,-0.366
1574950518.189287,48932.000,7904,3,GX,1,100,-0.488
1574950518.230526,48966.667,7922,3,GX,1,100,-0.580
1574950518.271766,49001.333,7922,3,GX,1,100,-0.397
1574950518.313005,49036.000,7922,3,GX,1,100,-0.427
1574950518.354245,49070.667,7940,3,GX,1,100,-0.641
1574950518.395484,49105.333,7940,3,GX,1,100,-0.488
1574950518.436723,49140.000,7940,3,GX,1,100,-0.336
1574950518.477170,49174.000,7958,3,GX,1,100,-0.549
1574950518.517616,49208.000,7958,3,GX,1,100,-0.397
1574950518.558063,49242.000,7958,3,GX,1,100,-0.488
1574950518.596130,49274.000,7977,3,GX,1,100,-0.702
1574950518.634197,49306.000,7977,3,GX,1,100,0.183
1574950518.672264,49338.000,7977,3,GX,1,100,1.007
1574950518.711521,49371.000,7995,3,GX,1,100,-0.031
1574950518.750777,49404.000,7995,3,GX,1,100,-0.427
1574950518.790034,49437.000,7995,3,GX,1,100,-0.610
1574950518.835239,49475.000,8013,3,GX,1,100,-0.610
1574950518.880444,49513.000,8013,3,GX,1,100,-0.092
1574950518.925648,49551.000,8013,3,GX,1,100,-0.305
1574950518.966095,49585.000,8030,3,GX,1,100,-0.397
1574950519.006541,49619.000,8030,3,GX,1,100,-0.214
1574950519.046987,49653.000,8030,3,GX,1,100,-0.427
1574950519.088227,49687.667,8048,3,GX,1,100,-0.671
1574950519.129466,49722.333,8048,3,GX,1,100,-0.488
1574950519.170706,49757.000,8048,3,GX,1,100,-0.427
1574950519.207980,49788.333,8064,3,GX,1,100,-0.488
1574950519.245254,49819.667,8064,3,GX,1,100,-0.336
1574950519.282528,49851.000,8064,3,GX,1,100,-0.305
1574950519.320992,49883.333,8082,3,GX,1,100,-0.458
1574950519.359455,49915.667,8082,3,GX,1,100,-0.397
1574950519.397919,49948.000,8082,3,GX,1,100,-0.427
1574950519.438841,49982.400,8103,5,GX,1,100,-0.488
1574950519.479763,50016.800,8103,5,GX,1,100,-0.488
1574950519.520685,50051.200,8103,5,GX,1,100,-0.458
1574950519.561608,50085.600,8103,5,GX,1,100,-0.336
1574950519.602530,50120.000,8103,5,GX,1,100,-0.427
1574950519.650114,50160.000,8123,2,GX,1,100,-0.458
1574950519.697698,50200.000,8123,2,GX,1,100,-0.397
1574950519.737351,50233.333,8141,3,GX,1,100,-0.793
1574950519.777004,50266.667,8141,3,GX,1,100,-0.336
1574950519.816657,50300.000,8141,3,GX,1,100,0.885
1574950519.854130,50331.500,8159,4,GX,1,100,0.214
1574950519.891602,50363.000,8159,4,GX,1,100,-0.488
1574950519.929074,50394.500,8159,4,GX,1,100,-0.580
1574950519.966547,50426.000,8159,4,GX,1,100,-0.671
1574950520.007390,50460.333,8175,3,GX,1,100,-0.549
1574950520.048233,50494.667,8175,3,GX,1,100,-0.458
1574950520.089075,50529.000,8175,3,GX,1,100,-0.061
1574950520.130315,50563.667,8193,3,GX,1,100,-0.305
1574950520.171554,50598.333,8193,3,GX,1,100,-0.610
1574950520.212794,50633.000,8193,3,GX,1,100,-0.580
1574950520.254430,50668.000,8211,2,GX,1,100,-0.641
1574950520.296065,50703.000,8211,2,GX,1,100,-0.458
1574950520.336115,50736.667,8229,3,GX,1,100,-0.458
1574950520.376165,50770.333,8229,3,GX,1,100,-0.549
1574950520.416215,50804.000,8229,3,GX,1,100,-0.366
1574950520.454282,50836.000,8247,3,GX,1,100,-0.427
1574950520.492349,50868.000,8247,3,GX,1,100,-0.488
1574950520.530416,50900.000,8247,3,GX,1,100,-0.336
1574950520.573242,50936.000,8266,3,GX,1,100,-0.458
1574950520.616067,50972.000,8266,3,GX,1,100,-0.549
1574950520.658893,51008.000,8266,3,GX,1,100,-0.397
1574950520.699339,51042.000,8284,3,GX,1,100,-0.488
1574950520.739786,51076.000,8284,3,GX,1,100,-0.397
1574950520.780232,51110.000,8284,3,GX,1,100,-0.641
1574950520.821075,51144.333,8301,3,GX,1,100,-0.336
1574950520.861918,51178.667,8301,3,GX,1,100,0.793
1574950520.902761,51213.000,8301,3,GX,1,100,0.366
1574950520.944396,51248.000,8319,3,GX,1,100,-0.336
1574950520.986032,51283.000,8319,3,GX,1,100,-0.488
1574950521.027668,51318.000,8319,3,GX,1,100,-0.702
1574950521.064546,51349.000,8337,3,GX,1,100,-0.275
1574950521.101424,51380.000,8337,3,GX,1,100,-0.336
1574950521.138301,51411.000,8337,3,GX,1,100,-0.427
1574950521.177558,51444.000,8353,3,GX,1,100,-0.336
1574950521.216815,51477.000,8353,3,GX,1,100,-0.427
1574950521.256071,51510.000,8353,3,GX,1,100,-0.519
1574950521.300086,51547.000,8371,3,GX,1,100,-0.549
1574950521.344101,51584.000,8371,3,GX,1,100,-0.580
1574950521.388117,51621.000,8371,3,GX,1,100,-0.397
1574950521.426184,51653.000,8389,3,GX,1,100,-0.397
1574950521.464251,51685.000,8389,3,GX,1,100,-0.580
1574950521.502318,51717.000,8389,3,GX,1,100,-0.336
1574950521.547919,51755.333,8408,3,GX,1,100,-0.244
1574950521.593521,51793.667,8408,3,GX,1,100,-0.519
1574950521.639122,51832.000,8408,3,GX,1,100,-0.488
1574950521.676396,51863.333,8426,3,GX,1,100,-0.397
1574950521.713670,51894.667,8426,3,GX,1,100,-0.549
1574950521.750944,51926.000,8426,3,GX,1,100,-0.519
1574950521.795752,51963.667,8444,3,GX,1,100,-0.427
1574950521.840560,52001.333,8444,3,GX,1,100,-0.519
1574950521.885369,52039.000,8444,3,GX,1,100,-0.336
1574950521.927005,52074.000,8461,3,GX,1,100,-0.580
1574950521.968641,52109.000,8461,3,GX,1,100,-0.458
1574950522.010277,52144.000,8461,3,GX,1,100,1.007
1574950522.049533,52177.000,8479,3,GX,1,100,0.488
1574950522.088790,52210.000,8479,3,GX,1,100,-0.366
1574950522.128047,52243.000,8479,3,GX,1,100,-0.488
1574950522.175036,52282.500,8495,2,GX,1,100,-0.641
1574950522.222025,52322.000,8495,2,GX,1,100,-0.336
1574950522.261678,52355.333,8513,3,GX,1,100,-0.488
1574950522.301332,52388.667,8513,3,GX,1,100,-0.488
1574950522.340985,52422.000,8513,3,GX,1,100,-0.183
1574950522.378754,52453.750,8531,4,GX,1,100,-0.366
1574950522.416524,52485.500,8531,4,GX,1,100,-0.610
1574950522.454294,52517.250,8531,4,GX,1,100,-0.488
1574950522.492064,52549.000,8531,4,GX,1,100,-0.488
1574950522.532510,52583.000,8549,3,GX,1,100,-0.580
1574950522.572956,52617.000,8549,3,GX,1,100,-0.488
1574950522.613403,52651.000,8549,3,GX,1,100,-0.305
1574950522.654642,52685.667,8568,3,GX,1,100,-0.305
1574950522.695882,52720.333,8568,3,GX,1,100,-0.458
1574950522.737121,52755.000,8568,3,GX,1,100,-0.488
1574950522.778757,52790.000,8586,2,GX,1,100,-0.549
1574950522.820393,52825.000,8586,2,GX,1,100,-0.366
1574950522.860443,52858.667,8604,3,GX,1,100,-0.336
1574950522.900492,52892.333,8604,3,GX,1,100,-0.397
1574950522.940542,52926.000,8604,3,GX,1,100,-0.336
1574950522.978609,52958.000,8622,3,GX,1,100,-0.519
1574950523.016676,52990.000,8622,3,GX,1,100,-0.519
1574950523.054744,53022.000,8622,3,GX,1,100,0.366
1574950523.097173,53057.667,8639,3,GX,1,100,0.610
1574950523.139602,53093.333,8639,3,GX,1,100,-0.092
1574950523.182031,53129.000,8639,3,GX,1,100,-0.549
1574950523.222477,53163.000,8657,3,GX,1,100,-0.366
1574950523.262923,53197.000,8657,3,GX,1,100,-0.519
1574950523.303370,53231.000,8657,3,GX,1,100,-0.671
1574950523.344213,53265.333,8673,3,GX,1,100,-0.092
1574950523.385055,53299.667,8673,3,GX,1,100,-0.336
1574950523.425898,53334.000,8673,3,GX,1,100,-0.519
1574950523.467138,53368.667,8691,3,GX,1,100,-0.488
1574950523.508377,53403.333,8691,3,GX,1,100,-0.549
1574950523.549617,53438.000,8691,3,GX,1,100,-0.580
1574950523.586891,53469.333,8710,3,GX,1,100,-0.427
1574950523.624165,53500.667,8710,3,GX,1,100,-0.275
1574950523.661439,53532.000,8710,3,GX,1,100,-0.427
1574950523.703868,53567.667,8728,3,GX,1,100,-0.397
1574950523.746297,53603.333,8728,3,GX,1,100,-0.336
1574950523.788726,53639.000,8728,3,GX,1,100,-0.488
1574950523.829965,53673.667,8746,3,GX,1,100,-0.427
1574950523.871205,53708.333,8746,3,GX,1,100,-0.427
1574950523.912444,53743.000,8746,3,GX,1,100,-0.549
1574950523.954080,53778.000,8764,3,GX,1,100,-0.366
1574950523.995716,53813.000,8764,3,GX,1,100,-0.427
1574950524.037352,53848.000,8764,3,GX,1,100,-0.458
1574950524.078988,53883.000,8782,3,GX,1,100,-0.458
1574950524.120624,53918.000,8782,3,GX,1,100,-0.610
1574950524.162260,53953.000,8782,3,GX,1,100,0.214
1574950524.199137,53984.000,8800,3,GX,1,100,0.824
1574950524.236015,54015.000,8800,3,GX,1,100,-0.275
1574950524.272892,54046.000,8800,3,GX,1,100,-0.336
1574950524.311752,54078.667,8817,3,GX,1,100,-0.427
1574950524.350613,54111.333,8817,3,GX,1,100,-0.580
1574950524.389473,54144.000,8817,3,GX,1,100,-0.244
1574950524.430712,54178.667,8835,3,GX,1,100,-0.549
1574950524.471952,54213.333,8835,3,GX,1,100,-0.549
1574950524.513191,54248.000,8835,3,GX,1,100,-0.214
1574950524.558792,54286.333,8851,3,GX,1,100,-0.244
1574950524.604393,54324.667,8851,3,GX,1,100,-0.610
1574950524.649995,54363.000,8851,3,GX,1,100,-0.580
1574950524.690838,54397.333,8870,3,GX,1,100,-0.519
1574950524.731681,54431.667,8870,3,GX,1,100,-0.183
1574950524.772523,54466.000,8870,3,GX,1,100,0.153
1574950524.810194,54497.667,8888,3,GX,1,100,-0.549
1574950524.847865,54529.333,8888,3,GX,1,100,-0.519
1574950524.885535,54561.000,8888,3,GX,1,100,-0.092
1574950524.923602,54593.000,8906,3,GX,1,100,-0.854
1574950524.961669,54625.000,8906,3,GX,1,100,-0.793
1574950524.999737,54657.000,8906,3,GX,1,100,-0.275
1574950525.040580,54691.333,8924,3,GX,1,100,-0.671
1574950525.081422,54725.667,8924,3,GX,1,100,-0.946
1574950525.122265,54760.000,8924,3,GX,1,100,-0.244
1574950525.163505,54794.667,8942,3,GX,1,100,-0.397
1574950525.204744,54829.333,8942,3,GX,1,100,-0.610
1574950525.245984,54864.000,8942,3,GX,1,100,-0.244
1574950525.287223,54898.667,8960,3,GX,1,100,-0.732
1574950525.328462,54933.333,8960,3,GX,1,100,-0.336
1574950525.369702,54968.000,8960,3,GX,1,100,1.038
1574950525.410545,55002.333,8978,3,GX,1,100,0.122
1574950525.451387,55036.667,8978,3,GX,1,100,-0.580
1574950525.492230,55071.000,8978,3,GX,1,100,-0.122
1574950525.531487,55104.000,8999,5,GX,1,100,-0.031
1574950525.570744,55137.000,8999,5,GX,1,100,-0.092
1574950525.610001,55170.000,8999,5,GX,1,100,-0.519
1574950525.649257,55203.000,8999,5,GX,1,100,-0.397
1574950525.688514,55236.000,8999,5,GX,1,100,-0.397
1574950525.730745,55271.500,9020,2,GX,1,100,-0.549
1574950525.772975,55307.000,9020,2,GX,1,100,-0.427
1574950525.809853,55338.000,9038,4,GX,1,100,-0.305
1574950525.846731,55369.000,9038,4,GX,1,100,-0.397
1574950525.883608,55400.000,9038,4,GX,1,100,-0.519
1574950525.920486,55431.000,9038,4,GX,1,100,-0.702
1574950525.963906,55467.500,9056,2,GX,1,100,-0.671
1574950526.007326,55504.000,9056,2,GX,1,100,-0.183
1574950526.047475,55537.750,9074,4,GX,1,100,-0.183
1574950526.087624,55571.500,9074,4,GX,1,100,-0.458
1574950526.127773,55605.250,9074,4,GX,1,100,-0.793
1574950526.167922,55639.000,9074,4,GX,1,100,-0.885
1574950526.209558,55674.000,9092,2,GX,1,100,-0.580
1574950526.251194,55709.000,9092,2,GX,1,100,-0.702
1574950526.292037,55743.333,9109,3,GX,1,100,-0.275
1574950526.332880,55777.667,9109,3,GX,1,100,-0.122
1574950526.373723,55812.000,9109,3,GX,1,100,-0.610
1574950526.413376,55845.333,9127,3,GX,1,100,-0.702
1574950526.453029,55878.667,9127,3,GX,1,100,-0.488
1574950526.492682,55912.000,9127,3,GX,1,100,-0.732
1574950526.531146,55944.333,9143,3,GX,1,100,-0.488
1574950526.569610,55976.667,9143,3,GX,1,100,0.824
1574950526.608073,56009.000,9143,3,GX,1,100,0.671
1574950526.647330,56042.000,9162,4,GX,1,100,-0.366
1574950526.686587,56075.000,9162,4,GX,1,100,-0.702
1574950526.725844,56108.000,9162,4,GX,1,100,-1.129
1574950526.765100,56141.000,9162,4,GX,1,100,-0.580
1574950526.803961,56173.667,9180,3,GX,1,100,-0.214
1574950526.842821,56206.333,9180,3,GX,1,100,-0.641
1574950526.881681,56239.000,9180,3,GX,1,100,-0.519
1574950526.922524,56273.333,9198,3,GX,1,100,0.092
1574950526.963367,56307.667,9198,3,GX,1,100,-0.366
1574950527.004210,56342.000,9198,3,GX,1,100,-1.160
1574950527.051199,56381.500,9216,2,GX,1,100,-0.366
1574950527.098188,56421.000,9216,2,GX,1,100,0.122
1574950527.139427,56455.667,9234,3,GX,1,100,-0.427
1574950527.180667,56490.333,9234,3,GX,1,100,-0.488
1574950527.221906,56525.000,9234,3,GX,1,100,-0.214
1574950527.261163,56558.000,9252,3,GX,1,100,-0.305
1574950527.300420,56591.000,9252,3,GX,1,100,-0.641
1574950527.339676,56624.000,9252,3,GX,1,100,-0.397
1574950527.377347,56655.667,9270,3,GX,1,100,-0.305
1574950527.415018,56687.333,9270,3,GX,1,100,-0.397
1574950527.452688,56719.000,9270,3,GX,1,100,-0.519
1574950527.492738,56752.667,9287,3,GX,1,100,-0.397
1574950527.532788,56786.333,9287,3,GX,1,100,-0.214
1574950527.572838,56820.000,9287,3,GX,1,100,-0.671
1574950527.613680,56854.333,9306,3,GX,1,100,-0.427
1574950527.654523,56888.667,9306,3,GX,1,100,-0.793
1574950527.695366,56923.000,9306,3,GX,1,100,-0.916
1574950527.736606,56957.667,9322,3,GX,1,100,1.312
1574950527.777845,56992.333,9322,3,GX,1,100,1.801
1574950527.819084,57027.000,9322,3,GX,1,100,-0.031
1574950527.862703,57063.667,9340,3,GX,1,100,-0.519
1574950527.906322,57100.333,9340,3,GX,1,100,-1.007
1574950527.949940,57137.000,9340,3,GX,1,100,-1.007
1574950527.987611,57168.667,9358,3,GX,1,100,-0.610
1574950528.025281,57200.333,9358,3,GX,1,100,-0.305
1574950528.062952,57232.000,9358,3,GX,1,100,-0.275
1574950528.103002,57265.667,9376,3,GX,1,100,-0.702
1574950528.143052,57299.333,9376,3,GX,1,100,-0.946
1574950528.183101,57333.000,9376,3,GX,1,100,-0.580
1574950528.224737,57368.000,9394,3,GX,1,100,-0.366
1574950528.266373,57403.000,9394,3,GX,1,100,-0.397
1574950528.308009,57438.000,9394,3,GX,1,100,0.610
1574950528.349249,57472.667,9412,3,GX,1,100,0.214
1574950528.390488,57507.333,9412,3,GX,1,100,-1.404
1574950528.431727,57542.000,9412,3,GX,1,100,-0.580
1574950528.472174,57576.000,9430,3,GX,1,100,0.061
1574950528.512620,57610.000,9430,3,GX,1,100,-0.610
1574950528.553066,57644.000,9430,3,GX,1,100,-0.153
1574950528.590341,57675.333,9449,3,GX,1,100,-0.244
1574950528.627615,57706.667,9449,3,GX,1,100,-0.854
1574950528.664889,57738.000,9449,3,GX,1,100,-0.092
1574950528.708507,57774.667,9466,3,GX,1,100,0.580
1574950528.752126,57811.333,9466,3,GX,1,100,-0.366
1574950528.795744,57848.000,9466,3,GX,1,100,-0.824
1574950528.837380,57883.000,9484,3,GX,1,100,0.885
1574950528.879016,57918.000,9484,3,GX,1,100,0.214
1574950528.920652,57953.000,9484,3,GX,1,100,-1.007
1574950528.961892,57987.667,9500,3,GX,1,100,-0.153
1574950529.003131,58022.333,9500,3,GX,1,100,-0.214
1574950529.044371,58057.000,9500,3,GX,1,100,-0.854
1574950529.083627,58090.000,9518,3,GX,1,100,-0.549
1574950529.122884,58123.000,9518,3,GX,1,100,-0.153
1574950529.162141,58156.000,9518,3,GX,1,100,-0.366
1574950529.199811,58187.667,9536,3,GX,1,100,-0.519
1574950529.237482,58219.333,9536,3,GX,1,100,-0.397
1574950529.275153,58251.000,9536,3,GX,1,100,-0.458
1574950529.313220,58283.000,9554,3,GX,1,100,-0.580
1574950529.351287,58315.000,9554,3,GX,1,100,-0.244
1574950529.389354,58347.000,9554,3,GX,1,100,-0.214
1574950529.434559,58385.000,9572,3,GX,1,100,-0.580
1574950529.479764,58423.000,9572,3,GX,1,100,-0.488
1574950529.524968,58461.000,9572,3,GX,1,100,-0.305
1574950529.566208,58495.667,9590,3,GX,1,100,-0.458
1574950529.607447,58530.333,9590,3,GX,1,100,-0.458
1574950529.648686,58565.000,9590,3,GX,1,100,-0.366
1574950529.686357,58596.667,9609,3,GX,1,100,-0.458
1574950529.724028,58628.333,9609,3,GX,1,100,-0.610
1574950529.761698,58660.000,9609,3,GX,1,100,-0.305
1574950529.804127,58695.667,9626,3,GX,1,100,-0.427
1574950529.846556,58731.333,9626,3,GX,1,100,-0.793
1574950529.888985,58767.000,9626,3,GX,1,100,0.702
1574950529.930225,58801.667,9644,3,GX,1,100,1.251
1574950529.971464,58836.333,9644,3,GX,1,100,-0.549
1574950530.012703,58871.000,9644,3,GX,1,100,-0.610
1574950530.059693,58910.500,9660,2,GX,1,100,-0.183
1574950530.106682,58950.000,9660,2,GX,1,100,-0.763
1574950530.147128,58984.000,9678,3,GX,1,100,-0.610
1574950530.187574,59018.000,9678,3,GX,1,100,-0.092
1574950530.228021,59052.000,9678,3,GX,1,100,-0.916
1574950530.265691,59083.667,9696,3,GX,1,100,-0.793
1574950530.303362,59115.333,9696,3,GX,1,100,0.122
1574950530.341033,59147.000,9696,3,GX,1,100,-0.580
1574950530.381082,59180.667,9714,3,GX,1,100,-0.793
1574950530.421132,59214.333,9714,3,GX,1,100,0.031
1574950530.461182,59248.000,9714,3,GX,1,100,-0.641
1574950530.501628,59282.000,9732,3,GX,1,100,-1.007
1574950530.542075,59316.000,9732,3,GX,1,100,-0.153
1574950530.582521,59350.000,9732,3,GX,1,100,0.122
1574950530.624157,59385.000,9751,3,GX,1,100,-0.214
1574950530.665793,59420.000,9751,3,GX,1,100,-0.061
1574950530.707429,59455.000,9751,3,GX,1,100,-0.610
1574950530.748668,59489.667,9769,3,GX,1,100,-0.824
1574950530.789908,59524.333,9769,3,GX,1,100,-0.549
1574950530.831147,59559.000,9769,3,GX,1,100,-0.793
1574950530.872386,59593.667,9787,3,GX,1,100,-0.671
1574950530.913626,59628.333,9787,3,GX,1,100,-0.244
1574950530.954865,59663.000,9787,3,GX,1,100,-0.336
1574950530.993329,59695.333,9804,3,GX,1,100,-0.183
1574950531.031793,59727.667,9804,3,GX,1,100,0.031
1574950531.070256,59760.000,9804,3,GX,1,100,-0.702
1574950531.111496,59794.667,9822,3,GX,1,100,-0.885
1574950531.152735,59829.333,9822,3,GX,1,100,0.732
1574950531.193974,59864.000,9822,3,GX,1,100,1.068
1574950531.234817,59898.333,9838,3,GX,1,100,-0.427
1574950531.275660,59932.667,9838,3,GX,1,100,-0.580
1574950531.316503,59967.000,9838,3,GX,1,100,-0.854
1574950531.357346,60001.333,9856,3,GX,1,100,-0.671
1574950531.398189,60035.667,9856,3,GX,1,100,-0.275
1574950531.439032,60070.000,9856,3,GX,1,100,-0.275
1574950531.477099,60102.000,9874,3,GX,1,100,0.061
1574950531.515166,60134.000,9874,3,GX,1,100,-0.458
1574950531.553233,60166.000,9874,3,GX,1,100,-1.129
1574950531.594869,60201.000,9896,5,GX,1,100,-0.488
1574950531.636505,60236.000,9896,5,GX,1,100,-0.153
1574950531.678141,60271.000,9896,5,GX,1,100,-0.244
1574950531.719777,60306.000,9896,5,GX,1,100,-0.061
1574950531.761413,60341.000,9896,5,GX,1,100,-0.458
1574950531.803049,60376.000,9915,2,GX,1,100,-0.549
1574950531.844685,60411.000,9915,2,GX,1,100,-1.038
1574950531.885924,60445.667,9931,3,GX,1,100,-0.793
1574950531.927164,60480.333,9931,3,GX,1,100,-0.122
1574950531.968403,60515.000,9931,3,GX,1,100,-0.458
1574950532.008453,60548.667,9949,3,GX,1,100,-0.671
1574950532.048502,60582.333,9949,3,GX,1,100,-0.183
1574950532.088552,60616.000,9949,3,GX,1,100,-0.458
1574950532.126917,60648.250,9967,4,GX,1,100,-0.854
1574950532.165281,60680.500,9967,4,GX,1,100,-0.671
1574950532.203646,60712.750,9967,4,GX,1,100,0.336
1574950532.242011,60745.000,9967,4,GX,1,100,1.923
1574950532.281664,60778.333,9985,3,GX,1,100,3.204
1574950532.321317,60811.667,9985,3,GX,1,100,2.655
1574950532.360970,60845.000,9985,3,GX,1,100,0.000
1574950532.402210,60879.667,10003,3,GX,1,100,-0.244
1574950532.443449,60914.333,10003,3,GX,1,100,-0.092
1574950532.484689,60949.000,10003,3,GX,1,100,-1.709
1574950532.526325,60984.000,10021,2,GX,1,100,-1.709
1574950532.567961,61019.000,10021,2,GX,1,100,0.031
1574950532.612769,61056.667,10040,3,GX,1,100,0.092
1574950532.657577,61094.333,10040,3,GX,1,100,-0.702
1574950532.702385,61132.000,10040,3,GX,1,100,-0.244
1574950532.739659,61163.333,10058,3,GX,1,100,-0.458
1574950532.776933,61194.667,10058,3,GX,1,100,-0.671
1574950532.814207,61226.000,10058,3,GX,1,100,-0.732
1574950532.852274,61258.000,10076,3,GX,1,100,-0.458
1574950532.890342,61290.000,10076,3,GX,1,100,0.122
1574950532.928409,61322.000,10076,3,GX,1,100,-0.580
1574950532.969252,61356.333,10093,3,GX,1,100,-0.702
1574950533.010094,61390.667,10093,3,GX,1,100,-0.153
1574950533.050937,61425.000,10093,3,GX,1,100,-0.885
1574950533.091780,61459.333,10111,3,GX,1,100,-0.732
1574950533.132623,61493.667,10111,3,GX,1,100,-0.397
1574950533.173466,61528.000,10111,3,GX,1,100,-0.946
1574950533.215102,61563.000,10127,3,GX,1,100,-0.702
1574950533.256738,61598.000,10127,3,GX,1,100,-0.275
1574950533.298374,61633.000,10127,3,GX,1,100,-0.916
1574950533.339216,61667.333,10145,3,GX,1,100,-0.458
1574950533.380059,61701.667,10145,3,GX,1,100,0.977
1574950533.420902,61736.000,10145,3,GX,1,100,0.397
1574950533.457383,61766.667,10163,3,GX,1,100,-0.397
1574950533.493864,61797.333,10163,3,GX,1,100,-0.397
1574950533.530345,61828.000,10163,3,GX,1,100,-0.732
1574950533.571981,61863.000,10182,3,GX,1,100,-0.610
1574950533.613617,61898.000,10182,3,GX,1,100,-0.549
1574950533.655253,61933.000,10182,3,GX,1,100,-0.702
1574950533.691536,61963.500,10200,4,GX,1,100,-0.336
1574950533.727819,61994.000,10200,4,GX,1,100,-0.244
1574950533.764101,62024.500,10200,4,GX,1,100,-0.458
1574950533.800384,62055.000,10200,4,GX,1,100,-0.366
1574950533.842020,62090.000,10218,3,GX,1,100,-0.549
1574950533.883656,62125.000,10218,3,GX,1,100,-0.641
1574950533.925292,62160.000,10218,3,GX,1,100,-0.397
1574950533.966135,62194.333,10236,3,GX,1,100,-0.458
1574950534.006978,62228.667,10236,3,GX,1,100,-0.519
1574950534.047821,62263.000,10236,3,GX,1,100,-0.214
1574950534.088267,62297.000,10254,2,GX,1,100,-0.427
1574950534.128713,62331.000,10254,2,GX,1,100,-0.610
1574950534.170349,62366.000,10271,3,GX,1,100,-0.427
1574950534.211985,62401.000,10271,3,GX,1,100,-0.458
1574950534.253621,62436.000,10271,3,GX,1,100,-0.519
1574950534.295257,62471.000,10289,3,GX,1,100,-0.488
1574950534.336893,62506.000,10289,3,GX,1,100,-0.397
1574950534.378529,62541.000,10289,3,GX,1,100,-0.397
1574950534.420165,62576.000,10305,3,GX,1,100,-0.397
1574950534.461801,62611.000,10305,3,GX,1,100,-0.427
1574950534.503437,62646.000,10305,3,GX,1,100,-0.671
1574950534.542693,62679.000,10323,3,GX,1,100,0.061
1574950534.581950,62712.000,10323,3,GX,1,100,1.038
1574950534.621207,62745.000,10323,3,GX,1,100,0.122
1574950534.659274,62777.000,10342,3,GX,1,100,-0.610
1574950534.697341,62809.000,10342,3,GX,1,100,-0.854
1574950534.735408,62841.000,10342,3,GX,1,100,-0.671
1574950534.775458,62874.667,10360,3,GX,1,100,-0.519
1574950534.815508,62908.333,10360,3,GX,1,100,-0.397
1574950534.855558,62942.000,10360,3,GX,1,100,-0.061
1574950534.900366,62979.667,10378,3,GX,1,100,-0.305
1574950534.945174,63017.333,10378,3,GX,1,100,-0.671
1574950534.989982,63055.000,10378,3,GX,1,100,-0.427
1574950535.031618,63090.000,10396,3,GX,1,100,-0.275
1574950535.073254,63125.000,10396,3,GX,1,100,-0.580
1574950535.114890,63160.000,10396,3,GX,1,100,-0.549
1574950535.154147,63193.000,10414,3,GX,1,100,-0.397
1574950535.193404,63226.000,10414,3,GX,1,100,-0.519
1574950535.232660,63259.000,10414,3,GX,1,100,-0.519
1574950535.271124,63291.333,10432,3,GX,1,100,-0.336
1574950535.309588,63323.667,10432,3,GX,1,100,-0.519
1574950535.348051,63356.000,10432,3,GX,1,100,-0.610
1574950535.387308,63389.000,10449,3,GX,1,100,-0.458
1574950535.426565,63422.000,10449,3,GX,1,100,-0.641
1574950535.465822,63455.000,10449,3,GX,1,100,-0.519
1574950535.507457,63490.000,10467,3,GX,1,100,-0.458
1574950535.549093,63525.000,10467,3,GX,1,100,-0.671
1574950535.590729,63560.000,10467,3,GX,1,100,0.122
1574950535.631572,63594.333,10484,3,GX,1,100,0.793
1574950535.672415,63628.667,10484,3,GX,1,100,-0.122
1574950535.713258,63663.000,10484,3,GX,1,100,-0.702
1574950535.756480,63699.333,10502,3,GX,1,100,-0.824
1574950535.799702,63735.667,10502,3,GX,1,100,-0.519
1574950535.842924,63772.000,10502,3,GX,1,100,-0.275
1574950535.880991,63804.000,10520,3,GX,1,100,-0.183
1574950535.919059,63836.000,10520,3,GX,1,100,-0.031
1574950535.957126,63868.000,10520,3,GX,1,100,-0.732
1574950535.996382,63901.000,10538,3,GX,1,100,-0.641
1574950536.035639,63934.000,10538,3,GX,1,100,-0.305
1574950536.074896,63967.000,10538,3,GX,1,100,-0.763
1574950536.115739,64001.333,10556,3,GX,1,100,-0.183
1574950536.156582,64035.667,10556,3,GX,1,100,-0.092
1574950536.197424,64070.000,10556,3,GX,1,100,-0.946
1574950536.239060,64105.000,10574,3,GX,1,100,-0.702
1574950536.280696,64140.000,10574,3,GX,1,100,-0.519
1574950536.322332,64175.000,10574,3,GX,1,100,-1.007
1574950536.362779,64209.000,10592,3,GX,1,100,-0.824
1574950536.403225,64243.000,10592,3,GX,1,100,-0.183
1574950536.443671,64277.000,10592,3,GX,1,100,-0.122
1574950536.481739,64309.000,10610,3,GX,1,100,0.305
1574950536.519806,64341.000,10610,3,GX,1,100,0.519
1574950536.557873,64373.000,10610,3,GX,1,100,-1.190
1574950536.600698,64409.000,10628,3,GX,1,100,-1.068
1574950536.643524,64445.000,10628,3,GX,1,100,-0.946
1574950536.686349,64481.000,10628,3,GX,1,100,-1.709
1574950536.727192,64515.333,10646,3,GX,1,100,0.031
1574950536.768035,64549.667,10646,3,GX,1,100,1.709
1574950536.808878,64584.000,10646,3,GX,1,100,0.397
1574950536.850514,64619.000,10662,2,GX,1,100,-0.732
1574950536.892150,64654.000,10662,2,GX,1,100,-0.671
1574950536.933389,64688.667,10680,3,GX,1,100,-1.099
1574950536.974629,64723.333,10680,3,GX,1,100,-1.434
1574950537.015868,64758.000,10680,3,GX,1,100,-0.885
1574950537.053043,64789.250,10698,4,GX,1,100,-0.183
1574950537.090218,64820.500,10698,4,GX,1,100,-0.641
1574950537.127393,64851.750,10698,4,GX,1,100,-0.549
1574950537.164568,64883.000,10698,4,GX,1,100,-0.214
1574950537.203825,64916.000,10716,3,GX,1,100,-0.488
1574950537.243081,64949.000,10716,3,GX,1,100,-0.610
1574950537.282338,64982.000,10716,3,GX,1,100,-0.519
1574950537.322388,65015.667,10734,3,GX,1,100,-0.366
1574950537.362438,65049.333,10734,3,GX,1,100,-0.397
1574950537.402488,65083.000,10734,3,GX,1,100,-0.519
1574950537.444124,65118.000,10752,2,GX,1,100,-0.732
1574950537.485759,65153.000,10752,2,GX,1,100,-0.488
1574950537.530568,65190.667,10770,3,GX,1,100,-0.427
1574950537.575376,65228.333,10770,3,GX,1,100,-0.641
1574950537.620184,65266.000,10770,3,GX,1,100,-0.244
1574950537.662296,65301.400,10792,5,GX,1,100,-0.244
1574950537.704407,65336.800,10792,5,GX,1,100,-0.549
1574950537.746519,65372.200,10792,5,GX,1,100,-0.397
1574950537.788631,65407.600,10792,5,GX,1,100,-0.336
1574950537.830743,65443.000,10792,5,GX,1,100,-0.732
1574950537.869206,65475.333,10812,3,GX,1,100,-0.305
1574950537.907670,65507.667,10812,3,GX,1,100,-0.244
1574950537.946134,65540.000,10812,3,GX,1,100,-0.580
1574950537.987770,65575.000,10830,2,GX,1,100,0.824
1574950538.029406,65610.000,10830,2,GX,1,100,1.129
1574950538.071042,65645.000,10848,4,GX,1,100,-0.336
1574950538.112678,65680.000,10848,4,GX,1,100,-0.397
1574950538.154314,65715.000,10848,4,GX,1,100,-0.458
1574950538.195950,65750.000,10848,4,GX,1,100,-0.519
1574950538.234017,65782.000,10866,3,GX,1,100,-0.366
1574950538.272084,65814.000,10866,3,GX,1,100,-0.549
1574950538.310151,65846.000,10866,3,GX,1,100,0.641
1574950538.350597,65880.000,10884,3,GX,1,100,0.763
1574950538.391044,65914.000,10884,3,GX,1,100,-1.251
1574950538.431490,65948.000,10884,3,GX,1,100,-0.488
1574950538.472729,65982.667,10901,3,GX,1,100,0.427
1574950538.513969,66017.333,10901,3,GX,1,100,-0.702
1574950538.555208,66052.000,10901,3,GX,1,100,-0.885
1574950538.596447,66086.667,10917,3,GX,1,100,-0.458
1574950538.637687,66121.333,10917,3,GX,1,100,-0.641
1574950538.678926,66156.000,10917,3,GX,1,100,-0.641
1574950538.717787,66188.667,10936,3,GX,1,100,-0.244
1574950538.756647,66221.333,10936,3,GX,1,100,-0.092
1574950538.795507,66254.000,10936,3,GX,1,100,-1.282
1574950538.837143,66289.000,10954,3,GX,1,100,-0.732
1574950538.878779,66324.000,10954,3,GX,1,100,-0.153
1574950538.920415,66359.000,10954,3,GX,1,100,-1.068
1574950538.960068,66392.333,10972,3,GX,1,100,-0.671
1574950538.999721,66425.667,10972,3,GX,1,100,0.061
1574950539.039375,66459.000,10972,3,GX,1,100,-0.061
1574950539.080614,66493.667,10990,3,GX,1,100,1.099
1574950539.121853,66528.333,10990,3,GX,1,100,1.160
1574950539.163093,66563.000,10990,3,GX,1,100,-0.366
1574950539.203539,66597.000,11008,2,GX,1,100,-1.587
1574950539.243985,66631.000,11008,2,GX,1,100,0.000
1574950539.285225,66665.667,11026,3,GX,1,100,-1.068
1574950539.326464,66700.333,11026,3,GX,1,100,-2.075
1574950539.367704,66735.000,11026,3,GX,1,100,0.610
1574950539.405473,66766.750,11044,4,GX,1,100,0.244
1574950539.443243,66798.500,11044,4,GX,1,100,-0.397
1574950539.481013,66830.250,11044,4,GX,1,100,0.458
1574950539.518783,66862.000,11044,4,GX,1,100,0.031
1574950539.557643,66894.667,11062,3,GX,1,100,-0.793
1574950539.596503,66927.333,11062,3,GX,1,100,-1.221
1574950539.635363,66960.000,11062,3,GX,1,100,-0.885
1574950539.676404,66994.500,11080,2,GX,1,100,-0.824
1574950539.717446,67029.000,11080,2,GX,1,100,0.122
1574950539.763047,67067.333,11098,3,GX,1,100,0.275
1574950539.808648,67105.667,11098,3,GX,1,100,-0.702
1574950539.854249,67144.000,11098,3,GX,1,100,-0.458
1574950539.895885,67179.000,11114,3,GX,1,100,-1.282
1574950539.937521,67214.000,11114,3,GX,1,100,-0.824
1574950539.979157,67249.000,11114,3,GX,1,100,0.153
1574950540.016035,67280.000,11132,3,GX,1,100,-0.427
1574950540.052912,67311.000,11132,3,GX,1,100,-0.244
1574950540.089790,67342.000,11132,3,GX,1,100,0.061
1574950540.128650,67374.667,11150,3,GX,1,100,0.366
1574950540.167510,67407.333,11150,3,GX,1,100,-0.031
1574950540.206370,67440.000,11150,3,GX,1,100,0.122
1574950540.247610,67474.667,11168,3,GX,1,100,-0.458
1574950540.288849,67509.333,11168,3,GX,1,100,-2.014
1574950540.330089,67544.000,11168,3,GX,1,100,-1.740
1574950540.371725,67579.000,11186,3,GX,1,100,0.061
1574950540.413361,67614.000,11186,3,GX,1,100,0.305
1574950540.454996,67649.000,11186,3,GX,1,100,0.092
1574950540.497029,67684.333,11204,3,GX,1,100,-0.061
1574950540.539061,67719.667,11204,3,GX,1,100,-0.031
1574950540.581094,67755.000,11204,3,GX,1,100,-0.793
1574950540.621937,67789.333,11223,3,GX,1,100,-0.916
1574950540.662780,67823.667,11223,3,GX,1,100,-0.122
1574950540.703622,67858.000,11223,3,GX,1,100,-0.336
1574950540.741690,67890.000,11241,3,GX,1,100,-0.336
1574950540.779757,67922.000,11241,3,GX,1,100,-0.519
1574950540.817824,67954.000,11241,3,GX,1,100,-1.190
1574950540.859063,67988.667,11258,3,GX,1,100,-1.251
1574950540.900303,68023.333,11258,3,GX,1,100,-0.977
1574950540.941542,68058.000,11258,3,GX,1,100,-0.610
1574950540.982781,68092.667,11276,3,GX,1,100,-0.061
1574950541.024021,68127.333,11276,3,GX,1,100,-0.519
1574950541.065260,68162.000,11276,3,GX,1,100,-0.763
1574950541.106500,68196.667,11292,3,GX,1,100,-0.488
1574950541.147739,68231.333,11292,3,GX,1,100,-0.488
1574950541.188978,68266.000,11292,3,GX,1,100,0.671
1574950541.227442,68298.333,11310,3,GX,1,100,0.549
1574950541.265906,68330.667,11310,3,GX,1,100,-0.427
1574950541.304369,68363.000,11310,3,GX,1,100,-0.793
1574950541.345609,68397.667,11328,3,GX,1,100,-0.732
1574950541.386848,68432.333,11328,3,GX,1,100,-0.641
1574950541.428088,68467.000,11328,3,GX,1,100,-0.732
1574950541.464172,68497.333,11346,3,GX,1,100,-0.366
1574950541.500257,68527.667,11346,3,GX,1,100,-0.244
1574950541.536341,68558.000,11346,3,GX,1,100,-0.824
1574950541.576391,68591.667,11365,3,GX,1,100,-0.763
1574950541.616441,68625.333,11365,3,GX,1,100,-0.763
1574950541.656491,68659.000,11365,3,GX,1,100,-0.916
1574950541.700902,68696.333,11383,3,GX,1,100,-0.214
1574950541.745314,68733.667,11383,3,GX,1,100,0.000
1574950541.789726,68771.000,11383,3,GX,1,100,-0.458
1574950541.828189,68803.333,11401,3,GX,1,100,-0.031
1574950541.866653,68835.667,11401,3,GX,1,100,-0.061
1574950541.905117,68868.000,11401,3,GX,1,100,-0.549
1574950541.949132,68905.000,11418,3,GX,1,100,-0.153
1574950541.993147,68942.000,11418,3,GX,1,100,-0.061
1574950542.037162,68979.000,11418,3,GX,1,100,-1.251
1574950542.078005,69013.333,11436,3,GX,1,100,-0.824
1574950542.118848,69047.667,11436,3,GX,1,100,1.038
1574950542.159691,69082.000,11436,3,GX,1,100,0.366
1574950542.201921,69117.500,11452,2,GX,1,100,-0.732
1574950542.244152,69153.000,11452,2,GX,1,100,-0.732
1574950542.282219,69185.000,11470,4,GX,1,100,-1.007
1574950542.320286,69217.000,11470,4,GX,1,100,-0.732
1574950542.358354,69249.000,11470,4,GX,1,100,-0.549
1574950542.396421,69281.000,11470,4,GX,1,100,0.153
1574950542.434884,69313.333,11488,3,GX,1,100,0.366
1574950542.473348,69345.667,11488,3,GX,1,100,-0.031
1574950542.511812,69378.000,11488,3,GX,1,100,-0.336
1574950542.553448,69413.000,11506,3,GX,1,100,-0.305
1574950542.595083,69448.000,11506,3,GX,1,100,-0.427
1574950542.636719,69483.000,11506,3,GX,1,100,-0.610
1574950542.677959,69517.667,11525,3,GX,1,100,-0.519
1574950542.719198,69552.333,11525,3,GX,1,100,-0.458
1574950542.760438,69587.000,11525,3,GX,1,100,-0.488
1574950542.802074,69622.000,11543,3,GX,1,100,-0.549
1574950542.843710,69657.000,11543,3,GX,1,100,-0.519
1574950542.885345,69692.000,11543,3,GX,1,100,-0.580
1574950542.926188,69726.333,11561,3,GX,1,100,-1.007
1574950542.967031,69760.667,11561,3,GX,1,100,-0.549
1574950543.007874,69795.000,11561,3,GX,1,100,0.702
1574950543.050105,69830.500,11578,2,GX,1,100,0.183
1574950543.092336,69866.000,11578,2,GX,1,100,-0.244
1574950543.133575,69900.667,11596,3,GX,1,100,-0.092
1574950543.174814,69935.333,11596,3,GX,1,100,-0.427
1574950543.216054,69970.000,11596,3,GX,1,100,-0.427
1574950543.254518,70002.333,11614,3,GX,1,100,-0.549
1574950543.292981,70034.667,11614,3,GX,1,100,-0.275
1574950543.331445,70067.000,11614,3,GX,1,100,-0.366
1574950543.371495,70100.667,11631,3,GX,1,100,-0.580
1574950543.411545,70134.333,11631,3,GX,1,100,-0.519
1574950543.451594,70168.000,11631,3,GX,1,100,-0.549
1574950543.492834,70202.667,11648,3,GX,1,100,-0.610
1574950543.534073,70237.333,11648,3,GX,1,100,-0.458
1574950543.575312,70272.000,11648,3,GX,1,100,-0.366
1574950543.616155,70306.333,11667,3,GX,1,100,-0.427
1574950543.656998,70340.667,11667,3,GX,1,100,-0.305
1574950543.697841,70375.000,11667,3,GX,1,100,-0.275
1574950543.736146,70407.200,11688,5,GX,1,100,-0.671
1574950543.774451,70439.400,11688,5,GX,1,100,-0.458
1574950543.812756,70471.600,11688,5,GX,1,100,-0.214
1574950543.851061,70503.800,11688,5,GX,1,100,-0.397
1574950543.889366,70536.000,11688,5,GX,1,100,-1.129
1574950543.932985,70572.667,11707,3,GX,1,100,-1.984
1574950543.976604,70609.333,11707,3,GX,1,100,-1.373
1574950544.020222,70646.000,11707,3,GX,1,100,-1.007
1574950544.061462,70680.667,11725,3,GX,1,100,-0.549
1574950544.102701,70715.333,11725,3,GX,1,100,0.000
1574950544.143940,70750.000,11725,3,GX,1,100,1.099
1574950544.185180,70784.667,11741,3,GX,1,100,0.488
1574950544.226419,70819.333,11741,3,GX,1,100,-0.397
1574950544.267659,70854.000,11741,3,GX,1,100,-0.244
1574950544.308105,70888.000,11759,3,GX,1,100,-0.092
1574950544.348551,70922.000,11759,3,GX,1,100,-0.214
1574950544.388998,70956.000,11759,3,GX,1,100,-0.549
1574950544.426272,70987.333,11777,3,GX,1,100,-0.854
1574950544.463546,71018.667,11777,3,GX,1,100,-0.397
1574950544.500820,71050.000,11777,3,GX,1,100,0.000
1574950544.540077,71083.000,11795,3,GX,1,100,-0.275
1574950544.579333,71116.000,11795,3,GX,1,100,-0.732
1574950544.618590,71149.000,11795,3,GX,1,100,-0.793
1574950544.663795,71187.000,11814,3,GX,1,100,-0.397
1574950544.709000,71225.000,11814,3,GX,1,100,-0.214
1574950544.754204,71263.000,11814,3,GX,1,100,-0.488
1574950544.795840,71298.000,11832,3,GX,1,100,-0.763
1574950544.837476,71333.000,11832,3,GX,1,100,-0.824
1574950544.879112,71368.000,11832,3,GX,1,100,-0.610
1574950544.918369,71401.000,11850,3,GX,1,100,-0.671
1574950544.957626,71434.000,11850,3,GX,1,100,0.000
1574950544.996882,71467.000,11850,3,GX,1,100,0.732
1574950545.034553,71498.667,11868,3,GX,1,100,-0.275
1574950545.072223,71530.333,11868,3,GX,1,100,-0.549
1574950545.109894,71562.000,11868,3,GX,1,100,-0.702
1574950545.148358,71594.333,11885,3,GX,1,100,-0.885
1574950545.186821,71626.667,11885,3,GX,1,100,-0.549
1574950545.225285,71659.000,11885,3,GX,1,100,-0.488
1574950545.266921,71694.000,11903,3,GX,1,100,-0.427
1574950545.308557,71729.000,11903,3,GX,1,100,-0.427
1574950545.350193,71764.000,11903,3,GX,1,100,-0.610
1574950545.391432,71798.667,11919,3,GX,1,100,-0.824
1574950545.432672,71833.333,11919,3,GX,1,100,-0.702
1574950545.473911,71868.000,11919,3,GX,1,100,-0.488
1574950545.514358,71902.000,11937,2,GX,1,100,-0.092
1574950545.554804,71936.000,11937,2,GX,1,100,-0.092
1574950545.594953,71969.750,11956,4,GX,1,100,-0.458
1574950545.635102,72003.500,11956,4,GX,1,100,-0.214
1574950545.675251,72037.250,11956,4,GX,1,100,-0.305
1574950545.715400,72071.000,11956,4,GX,1,100,-0.610
1574950545.754656,72104.000,11974,3,GX,1,100,-0.580
1574950545.793913,72137.000,11974,3,GX,1,100,-0.336
1574950545.833170,72170.000,11974,3,GX,1,100,-0.458
1574950545.874013,72204.333,11992,3,GX,1,100,-0.854
1574950545.914855,72238.667,11992,3,GX,1,100,-0.519
1574950545.955698,72273.000,11992,3,GX,1,100,-0.824
1574950545.994559,72305.667,12010,3,GX,1,100,-1.251
1574950546.033419,72338.333,12010,3,GX,1,100,0.122
1574950546.072279,72371.000,12010,3,GX,1,100,0.214
1574950546.113122,72405.333,12028,3,GX,1,100,-0.458
1574950546.153965,72439.667,12028,3,GX,1,100,-0.092
1574950546.194808,72474.000,12028,3,GX,1,100,-0.580
1574950546.234858,72507.667,12046,3,GX,1,100,-0.854
1574950546.274907,72541.333,12046,3,GX,1,100,-1.495
1574950546.314957,72575.000,12046,3,GX,1,100,-0.366
1574950546.356593,72610.000,12063,3,GX,1,100,-0.366
1574950546.398229,72645.000,12063,3,GX,1,100,-0.885
1574950546.439865,72680.000,12063,3,GX,1,100,0.671
1574950546.481501,72715.000,12081,2,GX,1,100,1.282
1574950546.523137,72750.000,12081,2,GX,1,100,0.061
1574950546.564376,72784.667,12097,3,GX,1,100,-0.641
1574950546.605616,72819.333,12097,3,GX,1,100,-0.977
1574950546.646855,72854.000,12097,3,GX,1,100,-1.221
1574950546.684625,72885.750,12116,4,GX,1,100,-0.824
1574950546.722394,72917.500,12116,4,GX,1,100,-0.397
1574950546.760164,72949.250,12116,4,GX,1,100,-0.366
1574950546.797934,72981.000,12116,4,GX,1,100,-0.793
1574950546.837587,73014.333,12134,3,GX,1,100,-0.641
1574950546.877240,73047.667,12134,3,GX,1,100,0.092
1574950546.916894,73081.000,12134,3,GX,1,100,0.427
1574950546.963883,73120.500,12152,2,GX,1,100,-0.336
1574950547.010872,73160.000,12152,2,GX,1,100,-0.824
1574950547.051318,73194.000,12170,3,GX,1,100,-0.458
1574950547.091765,73228.000,12170,3,GX,1,100,-0.092
1574950547.132211,73262.000,12170,3,GX,1,100,0.214
1574950547.173054,73296.333,12188,3,GX,1,100,-0.488
1574950547.213897,73330.667,12188,3,GX,1,100,-0.549
1574950547.254740,73365.000,12188,3,GX,1,100,-0.732
1574950547.292807,73397.000,12206,3,GX,1,100,-0.702
1574950547.330874,73429.000,12206,3,GX,1,100,-0.275
1574950547.368941,73461.000,12206,3,GX,1,100,-0.122
1574950547.407008,73493.000,12224,3,GX,1,100,-0.641
1574950547.445076,73525.000,12224,3,GX,1,100,-1.068
1574950547.483143,73557.000,12224,3,GX,1,100,-1.892
1574950547.523589,73591.000,12241,4,GX,1,100,-3.021
1574950547.564035,73625.000,12241,4,GX,1,100,-0.763
1574950547.604481,73659.000,12241,4,GX,1,100,-0.061
1574950547.644928,73693.000,12241,4,GX,1,100,-0.732
1574950547.685969,73727.500,12260,2,GX,1,100,0.885
1574950547.727010,73762.000,12260,2,GX,1,100,0.824
1574950547.772611,73800.333,12276,3,GX,1,100,-0.092
1574950547.818213,73838.667,12276,3,GX,1,100,-0.061
1574950547.863814,73877.000,12276,3,GX,1,100,-0.702
1574950547.901881,73909.000,12294,3,GX,1,100,-0.549
1574950547.939948,73941.000,12294,3,GX,1,100,0.061
1574950547.978015,73973.000,12294,3,GX,1,100,-0.580
1574950548.016083,74005.000,12312,3,GX,1,100,-0.977
1574950548.054150,74037.000,12312,3,GX,1,100,-0.214
1574950548.092217,74069.000,12312,3,GX,1,100,-0.641
1574950548.132663,74103.000,12330,3,GX,1,100,-1.221
1574950548.173110,74137.000,12330,3,GX,1,100,0.610
1574950548.213556,74171.000,12330,3,GX,1,100,0.732
1574950548.255192,74206.000,12348,3,GX,1,100,-0.641
1574950548.296828,74241.000,12348,3,GX,1,100,-0.275
1574950548.338464,74276.000,12348,3,GX,1,100,-0.397
1574950548.379703,74310.667,12366,3,GX,1,100,-0.519
1574950548.420943,74345.333,12366,3,GX,1,100,-0.458
1574950548.462182,74380.000,12366,3,GX,1,100,-0.427
1574950548.501439,74413.000,12384,3,GX,1,100,-0.580
1574950548.540695,74446.000,12384,3,GX,1,100,-0.641
1574950548.579952,74479.000,12384,3,GX,1,100,-0.580
1574950548.621192,74513.667,12403,3,GX,1,100,-0.977
1574950548.662431,74548.333,12403,3,GX,1,100,-0.885
1574950548.703670,74583.000,12403,3,GX,1,100,-1.007
1574950548.743324,74616.333,12421,3,GX,1,100,-1.038
1574950548.782977,74649.667,12421,3,GX,1,100,-0.122
1574950548.822630,74683.000,12421,3,GX,1,100,-0.427
1574950548.863869,74717.667,12438,3,GX,1,100,-1.495
1574950548.905109,74752.333,12438,3,GX,1,100,-1.495
1574950548.946348,74787.000,12438,3,GX,1,100,-1.221
1574950548.987984,74822.000,12456,3,GX,1,100,-1.648
1574950549.029620,74857.000,12456,3,GX,1,100,-1.312
1574950549.071256,74892.000,12456,3,GX,1,100,-1.129
1574950549.109720,74924.333,12472,3,GX,1,100,-1.862
1574950549.148184,74956.667,12472,3,GX,1,100,-1.404
1574950549.186647,74989.000,12472,3,GX,1,100,-0.580
1574950549.224714,75021.000,12490,3,GX,1,100,-0.610
1574950549.262781,75053.000,12490,3,GX,1,100,-0.244
1574950549.300848,75085.000,12490,3,GX,1,100,-0.427
1574950549.344071,75121.333,12508,3,GX,1,100,-0.641
1574950549.387293,75157.667,12508,3,GX,1,100,-0.336
1574950549.430515,75194.000,12508,3,GX,1,100,0.885
1574950549.466996,75224.667,12526,3,GX,1,100,1.068
1574950549.503477,75255.333,12526,3,GX,1,100,0.641
1574950549.539958,75286.000,12526,3,GX,1,100,0.305
1574950549.581594,75321.000,12545,3,GX,1,100,0.366
1574950549.623230,75356.000,12545,3,GX,1,100,0.305
1574950549.664866,75391.000,12545,3,GX,1,100,0.427
1574950549.709277,75428.333,12563,3,GX,1,100,0.397
1574950549.753689,75465.667,12563,3,GX,1,100,0.397
1574950549.798101,75503.000,12563,3,GX,1,100,0.031
1574950549.837060,75535.750,12584,4,GX,1,100,-0.488
1574950549.876019,75568.500,12584,4,GX,1,100,-0.793
1574950549.914979,75601.250,12584,4,GX,1,100,-0.061
1574950549.953938,75634.000,12584,4,GX,1,100,0.214
1574950549.998746,75671.667,12604,3,GX,1,100,-0.519
1574950550.043554,75709.333,12604,3,GX,1,100,-0.610
1574950550.088363,75747.000,12604,3,GX,1,100,-0.336
1574950550.128809,75781.000,12622,3,GX,1,100,-0.549
1574950550.169255,75815.000,12622,3,GX,1,100,-0.671
1574950550.209702,75849.000,12622,3,GX,1,100,-0.244
1574950550.247372,75880.667,12640,3,GX,1,100,-0.336
1574950550.285043,75912.333,12640,3,GX,1,100,-0.244
1574950550.322713,75944.000,12640,3,GX,1,100,0.946
1574950550.361970,75977.000,12658,3,GX,1,100,0.214
1574950550.401227,76010.000,12658,3,GX,1,100,-0.580
1574950550.440484,76043.000,12658,3,GX,1,100,-0.275
1574950550.482120,76078.000,12676,3,GX,1,100,-0.916
1574950550.523756,76113.000,12676,3,GX,1,100,-0.641
1574950550.565392,76148.000,12676,3,GX,1,100,-0.427
1574950550.606631,76182.667,12694,3,GX,1,100,-0.366
1574950550.647870,76217.333,12694,3,GX,1,100,-0.275
1574950550.689110,76252.000,12694,3,GX,1,100,-0.214
1574950550.730746,76287.000,12712,3,GX,1,100,0.366
1574950550.772382,76322.000,12712,3,GX,1,100,-0.549
1574950550.814018,76357.000,12712,3,GX,1,100,-1.190
1574950550.855654,76392.000,12728,3,GX,1,100,0.183
1574950550.897289,76427.000,12728,3,GX,1,100,0.061
1574950550.938925,76462.000,12728,3,GX,1,100,-1.556
1574950550.979372,76496.000,12746,3,GX,1,100,-1.160
1574950551.019818,76530.000,12746,3,GX,1,100,-0.336
1574950551.060264,76564.000,12746,3,GX,1,100,-0.885
1574950551.101504,76598.667,12764,3,GX,1,100,-1.099
1574950551.142743,76633.333,12764,3,GX,1,100,0.092
1574950551.183983,76668.000,12764,3,GX,1,100,-0.183
1574950551.223239,76701.000,12782,3,GX,1,100,-0.549
1574950551.262496,76734.000,12782,3,GX,1,100,-0.183
1574950551.301753,76767.000,12782,3,GX,1,100,-0.458
1574950551.343389,76802.000,12800,3,GX,1,100,-0.763
1574950551.385025,76837.000,12800,3,GX,1,100,-0.671
1574950551.426661,76872.000,12800,3,GX,1,100,-0.061
1574950551.467503,76906.333,12818,3,GX,1,100,-0.488
1574950551.508346,76940.667,12818,3,GX,1,100,-0.702
1574950551.549189,76975.000,12818,3,GX,1,100,-0.275
1574950551.588842,77008.333,12836,3,GX,1,100,-0.519
1574950551.628496,77041.667,12836,3,GX,1,100,-0.519
1574950551.668149,77075.000,12836,3,GX,1,100,-0.458
1574950551.706216,77107.000,12855,3,GX,1,100,-0.153
1574950551.744283,77139.000,12855,3,GX,1,100,-0.275
1574950551.782350,77171.000,12855,3,GX,1,100,-0.702
1574950551.820814,77203.333,12872,3,GX,1,100,-0.641
1574950551.859278,77235.667,12872,3,GX,1,100,-1.007
1574950551.897742,77268.000,12872,3,GX,1,100,-1.068
1574950551.942946,77306.000,12890,3,GX,1,100,-0.092
1574950551.988151,77344.000,12890,3,GX,1,100,0.061
1574950552.033356,77382.000,12890,3,GX,1,100,-0.092
1574950552.074991,77417.000,12906,3,GX,1,100,-0.305
1574950552.116627,77452.000,12906,3,GX,1,100,0.305
1574950552.158263,77487.000,12906,3,GX,1,100,-0.275
1574950552.199305,77521.500,12924,2,GX,1,100,-1.373
1574950552.240346,77556.000,12924,2,GX,1,100,-1.221
1574950552.278710,77588.250,12942,4,GX,1,100,0.092
1574950552.317075,77620.500,12942,4,GX,1,100,-0.824
1574950552.355439,77652.750,12942,4,GX,1,100,-2.106
1574950552.393804,77685.000,12942,4,GX,1,100,-1.099
1574950552.432664,77717.667,12960,3,GX,1,100,-0.336
1574950552.471524,77750.333,12960,3,GX,1,100,-0.458
1574950552.510385,77783.000,12960,3,GX,1,100,-0.336
1574950552.551227,77817.333,12978,3,GX,1,100,0.031
1574950552.592070,77851.667,12978,3,GX,1,100,0.305
1574950552.632913,77886.000,12978,3,GX,1,100,-0.702
1574950552.674549,77921.000,12997,2,GX,1,100,-0.732
1574950552.716185,77956.000,12997,2,GX,1,100,0.214
1574950552.761390,77994.000,13015,3,GX,1,100,0.214
1574950552.806594,78032.000,13015,3,GX,1,100,0.366
1574950552.851799,78070.000,13015,3,GX,1,100,0.366
1574950552.888677,78101.000,13033,3,GX,1,100,-0.183
1574950552.925554,78132.000,13033,3,GX,1,100,-0.549
1574950552.962432,78163.000,13033,3,GX,1,100,-0.671
1574950553.001688,78196.000,13050,4,GX,1,100,-0.610
1574950553.040945,78229.000,13050,4,GX,1,100,-0.397
1574950553.080202,78262.000,13050,4,GX,1,100,-0.336
1574950553.119459,78295.000,13050,4,GX,1,100,-0.427
1574950553.159905,78329.000,13068,3,GX,1,100,-0.732
1574950553.200351,78363.000,13068,3,GX,1,100,-0.336
1574950553.240798,78397.000,13068,3,GX,1,100,-0.244
1574950553.282434,78432.000,13084,2,GX,1,100,-0.854
1574950553.324070,78467.000,13084,2,GX,1,100,0.275
1574950553.365309,78501.667,13102,3,GX,1,100,0.916
1574950553.406549,78536.333,13102,3,GX,1,100,-0.153
1574950553.447788,78571.000,13102,3,GX,1,100,-0.488
1574950553.486648,78603.667,13120,3,GX,1,100,-0.397
1574950553.525508,78636.333,13120,3,GX,1,100,-0.061
1574950553.564368,78669.000,13120,3,GX,1,100,-0.275
1574950553.603328,78701.750,13139,4,GX,1,100,-0.183
1574950553.642287,78734.500,13139,4,GX,1,100,-0.031
1574950553.681247,78767.250,13139,4,GX,1,100,-0.336
1574950553.720206,78800.000,13139,4,GX,1,100,-0.488
1574950553.757876,78831.667,13157,3,GX,1,100,-0.305
1574950553.795547,78863.333,13157,3,GX,1,100,-0.427
1574950553.833218,78895.000,13157,3,GX,1,100,-0.427
1574950553.872078,78927.667,13175,3,GX,1,100,-0.427
1574950553.910938,78960.333,13175,3,GX,1,100,-0.275
1574950553.949798,78993.000,13175,3,GX,1,100,0.031
1574950553.988262,79025.333,13193,3,GX,1,100,0.000
1574950554.026726,79057.667,13193,3,GX,1,100,0.458
1574950554.065189,79090.000,13193,3,GX,1,100,-0.732
1574950554.107222,79125.333,13211,3,GX,1,100,-1.007
1574950554.149254,79160.667,13211,3,GX,1,100,-0.061
1574950554.191287,79196.000,13211,3,GX,1,100,0.031
1574950554.232526,79230.667,13229,3,GX,1,100,-0.275
1574950554.273766,79265.333,13229,3,GX,1,100,0.000
1574950554.315005,79300.000,13229,3,GX,1,100,-0.519
1574950554.356641,79335.000,13246,3,GX,1,100,-0.702
1574950554.398277,79370.000,13246,3,GX,1,100,-0.519
1574950554.439913,79405.000,13246,3,GX,1,100,-0.549
1574950554.479963,79438.667,13264,3,GX,1,100,-0.610
1574950554.520012,79472.333,13264,3,GX,1,100,0.031
1574950554.560062,79506.000,13264,3,GX,1,100,-0.427
1574950554.598526,79538.333,13282,3,GX,1,100,-0.885
1574950554.636990,79570.667,13282,3,GX,1,100,-0.458
1574950554.675453,79603.000,13282,3,GX,1,100,-0.275
1574950554.713917,79635.333,13299,3,GX,1,100,-0.458
1574950554.752381,79667.667,13299,3,GX,1,100,-0.214
1574950554.790844,79700.000,13299,3,GX,1,100,-0.183
1574950554.831687,79734.333,13317,3,GX,1,100,-0.854
1574950554.872530,79768.667,13317,3,GX,1,100,-0.366
1574950554.913373,79803.000,13317,3,GX,1,100,-0.458
1574950554.960362,79842.500,13335,2,GX,1,100,-1.099
1574950555.007351,79882.000,13335,2,GX,1,100,0.732
1574950555.048987,79917.000,13353,3,GX,1,100,0.854
1574950555.090623,79952.000,13353,3,GX,1,100,-0.641
1574950555.132259,79987.000,13353,3,GX,1,100,-0.305
1574950555.170029,80018.750,13371,4,GX,1,100,-0.336
1574950555.207798,80050.500,13371,4,GX,1,100,-0.793
1574950555.245568,80082.250,13371,4,GX,1,100,-0.732
1574950555.283338,80114.000,13371,4,GX,1,100,-0.275
1574950555.322198,80146.667,13389,3,GX,1,100,-0.031
1574950555.361058,80179.333,13389,3,GX,1,100,-0.031
1574950555.399919,80212.000,13389,3,GX,1,100,-0.519
1574950555.440365,80246.000,13407,3,GX,1,100,-1.038
1574950555.480811,80280.000,13407,3,GX,1,100,-0.671
1574950555.521258,80314.000,13407,3,GX,1,100,-0.610
1574950555.562893,80349.000,13424,2,GX,1,100,-0.366
1574950555.604529,80384.000,13424,2,GX,1,100,0.275
1574950555.645769,80418.667,13443,3,GX,1,100,1.556
1574950555.687008,80453.333,13443,3,GX,1,100,-2.228
1574950555.728248,80488.000,13443,3,GX,1,100,-3.052
1574950555.771073,80524.000,13461,3,GX,1,100,1.678
1574950555.813899,80560.000,13461,3,GX,1,100,-0.580
1574950555.856724,80596.000,13461,3,GX,1,100,-2.380
1574950555.895743,80628.800,13482,5,GX,1,100,0.153
1574950555.934762,80661.600,13482,5,GX,1,100,-0.214
1574950555.973781,80694.400,13482,5,GX,1,100,-1.984
1574950556.012800,80727.200,13482,5,GX,1,100,-2.686
1574950556.051818,80760.000,13482,5,GX,1,100,-0.427
1574950556.093454,80795.000,13502,3,GX,1,100,-0.183
1574950556.135090,80830.000,13502,3,GX,1,100,-0.549
1574950556.176726,80865.000,13502,3,GX,1,100,-0.336
1574950556.217569,80899.333,13519,3,GX,1,100,-0.641
1574950556.258412,80933.667,13519,3,GX,1,100,-0.458
1574950556.299255,80968.000,13519,3,GX,1,100,-0.702
1574950556.340098,81002.333,13537,3,GX,1,100,-0.671
1574950556.380940,81036.667,13537,3,GX,1,100,-0.214
1574950556.421783,81071.000,13537,3,GX,1,100,-0.519
1574950556.459851,81103.000,13555,3,GX,1,100,-0.580
1574950556.497918,81135.000,13555,3,GX,1,100,-0.397
1574950556.535985,81167.000,13555,3,GX,1,100,-0.641
1574950556.578810,81203.000,13571,3,GX,1,100,-0.488
1574950556.621636,81239.000,13571,3,GX,1,100,-0.336
1574950556.664461,81275.000,13571,3,GX,1,100,-0.549
1574950556.704908,81309.000,13590,3,GX,1,100,-0.732
1574950556.745354,81343.000,13590,3,GX,1,100,-0.488
1574950556.785800,81377.000,13590,3,GX,1,100,-0.854
1574950556.827040,81411.667,13608,3,GX,1,100,-0.061
1574950556.868279,81446.333,13608,3,GX,1,100,0.244
1574950556.909519,81481.000,13608,3,GX,1,100,-0.549
1574950556.951154,81516.000,13626,2,GX,1,100,-0.854
1574950556.992790,81551.000,13626,2,GX,1,100,-0.854
1574950557.030560,81582.750,13644,4,GX,1,100,-0.549
1574950557.068330,81614.500,13644,4,GX,1,100,-0.214
1574950557.106100,81646.250,13644,4,GX,1,100,-0.366
1574950557.143869,81678.000,13644,4,GX,1,100,-0.580
1574950557.183523,81711.333,13662,3,GX,1,100,-0.153
1574950557.223176,81744.667,13662,3,GX,1,100,-0.244
1574950557.262829,81778.000,13662,3,GX,1,100,-0.732
1574950557.302879,81811.667,13680,3,GX,1,100,-0.671
1574950557.342929,81845.333,13680,3,GX,1,100,-0.488
1574950557.382979,81879.000,13680,3,GX,1,100,-0.671
1574950557.425408,81914.667,13697,3,GX,1,100,-0.641
1574950557.467837,81950.333,13697,3,GX,1,100,-0.336
1574950557.510266,81986.000,13697,3,GX,1,100,-0.610
1574950557.550712,82020.000,13715,3,GX,1,100,-1.160
1574950557.591158,82054.000,13715,3,GX,1,100,-0.519
1574950557.631605,82088.000,13715,3,GX,1,100,0.122
1574950557.672646,82122.500,13734,2,GX,1,100,-0.305
1574950557.713687,82157.000,13734,2,GX,1,100,-0.458
1574950557.758892,82195.000,13750,3,GX,1,100,-0.305
1574950557.804096,82233.000,13750,3,GX,1,100,-0.671
1574950557.849301,82271.000,13750,3,GX,1,100,-0.031
1574950557.886179,82302.000,13768,3,GX,1,100,0.153
1574950557.923056,82333.000,13768,3,GX,1,100,-1.190
1574950557.959934,82364.000,13768,3,GX,1,100,0.122
1574950558.004345,82401.333,13786,3,GX,1,100,0.458
1574950558.048757,82438.667,13786,3,GX,1,100,-0.824
1574950558.093169,82476.000,13786,3,GX,1,100,-0.977
1574950558.130839,82507.667,13804,3,GX,1,100,-1.373
1574950558.168510,82539.333,13804,3,GX,1,100,-1.221
1574950558.206181,82571.000,13804,3,GX,1,100,-0.519
1574950558.245041,82603.667,13822,3,GX,1,100,-0.061
1574950558.283901,82636.333,13822,3,GX,1,100,-0.183
1574950558.322761,82669.000,13822,3,GX,1,100,-0.366
1574950558.364001,82703.667,13840,3,GX,1,100,-0.336
1574950558.405240,82738.333,13840,3,GX,1,100,-0.214
1574950558.446480,82773.000,13840,3,GX,1,100,-0.183
1574950558.487719,82807.667,13858,3,GX,1,100,-0.061
1574950558.528958,82842.333,13858,3,GX,1,100,-0.549
1574950558.570198,82877.000,13858,3,GX,1,100,-0.732
1574950558.611834,82912.000,13876,3,GX,1,100,-0.488
1574950558.653470,82947.000,13876,3,GX,1,100,-0.641
1574950558.695106,82982.000,13876,3,GX,1,100,-0.336
1574950558.735948,83016.333,13894,3,GX,1,100,-0.854
1574950558.776791,83050.667,13894,3,GX,1,100,-0.488
1574950558.817634,83085.000,13894,3,GX,1,100,-0.519
1574950558.858080,83119.000,13910,3,GX,1,100,-1.892
1574950558.898527,83153.000,13910,3,GX,1,100,-1.495
1574950558.938973,83187.000,13910,3,GX,1,100,-0.824
1574950558.977437,83219.333,13928,3,GX,1,100,-1.190
1574950559.015900,83251.667,13928,3,GX,1,100,-1.312
1574950559.054364,83284.000,13928,3,GX,1,100,-0.488
1574950559.097190,83320.000,13946,3,GX,1,100,0.916
1574950559.140015,83356.000,13946,3,GX,1,100,0.214
1574950559.182841,83392.000,13946,3,GX,1,100,-0.122
1574950559.222891,83425.667,13964,3,GX,1,100,-0.061
1574950559.262940,83459.333,13964,3,GX,1,100,-0.488
1574950559.302990,83493.000,13964,3,GX,1,100,-0.122
1574950559.344626,83528.000,13982,3,GX,1,100,0.061
1574950559.386262,83563.000,13982,3,GX,1,100,0.305
1574950559.427898,83598.000,13982,3,GX,1,100,0.214
1574950559.468741,83632.333,14000,3,GX,1,100,-0.061
1574950559.509584,83666.667,14000,3,GX,1,100,-0.214
1574950559.550427,83701.000,14000,3,GX,1,100,-0.397
1574950559.588097,83732.667,14018,3,GX,1,100,0.031
1574950559.625768,83764.333,14018,3,GX,1,100,0.275
1574950559.663439,83796.000,14018,3,GX,1,100,0.214
1574950559.702695,83829.000,14037,3,GX,1,100,0.183
1574950559.741952,83862.000,14037,3,GX,1,100,0.458
1574950559.781209,83895.000,14037,3,GX,1,100,0.519
1574950559.820862,83928.333,14054,3,GX,1,100,0.519
1574950559.860515,83961.667,14054,3,GX,1,100,0.793
1574950559.900168,83995.000,14054,3,GX,1,100,0.580
1574950559.945373,84033.000,14072,3,GX,1,100,-0.366
1574950559.990578,84071.000,14072,3,GX,1,100,-0.885
1574950560.035783,84109.000,14072,3,GX,1,100,-0.824
1574950560.076824,84143.500,14088,2,GX,1,100,-0.885
1574950560.117865,84178.000,14088,2,GX,1,100,-1.404
1574950560.156527,84210.500,14106,4,GX,1,100,-1.343
1574950560.195189,84243.000,14106,4,GX,1,100,-0.702
1574950560.233851,84275.500,14106,4,GX,1,100,0.305
1574950560.272513,84308.000,14106,4,GX,1,100,0.000
1574950560.311373,84340.667,14124,3,GX,1,100,-1.587
1574950560.350233,84373.333,14124,3,GX,1,100,-1.709
1574950560.389093,84406.000,14124,3,GX,1,100,-1.312
1574950560.429540,84440.000,14142,3,GX,1,100,-1.862
1574950560.469986,84474.000,14142,3,GX,1,100,-1.526
1574950560.510432,84508.000,14142,3,GX,1,100,-0.488
1574950560.552068,84543.000,14160,3,GX,1,100,-0.427
1574950560.593704,84578.000,14160,3,GX,1,100,0.000
1574950560.635340,84613.000,14160,3,GX,1,100,0.092
1574950560.676381,84647.500,14179,2,GX,1,100,-0.641
1574950560.717422,84682.000,14179,2,GX,1,100,-0.427
1574950560.760644,84718.333,14197,3,GX,1,100,0.244
1574950560.803867,84754.667,14197,3,GX,1,100,-0.580
1574950560.847089,84791.000,14197,3,GX,1,100,-0.549
1574950560.884858,84822.750,14215,4,GX,1,100,0.244
1574950560.922628,84854.500,14215,4,GX,1,100,-0.153
1574950560.960398,84886.250,14215,4,GX,1,100,-0.580
1574950560.998168,84918.000,14215,4,GX,1,100,-0.122
1574950561.040398,84953.500,14232,2,GX,1,100,-0.031
1574950561.082629,84989.000,14232,2,GX,1,100,-0.092
1574950561.123472,85023.333,14250,3,GX,1,100,-0.275
1574950561.164315,85057.667,14250,3,GX,1,100,-0.458
1574950561.205158,85092.000,14250,3,GX,1,100,-0.183
1574950561.246397,85126.667,14266,3,GX,1,100,-0.214
1574950561.287637,85161.333,14266,3,GX,1,100,0.214
1574950561.328876,85196.000,14266,3,GX,1,100,1.556
1574950561.368926,85229.667,14284,3,GX,1,100,0.854
1574950561.408976,85263.333,14284,3,GX,1,100,-0.336
1574950561.449025,85297.000,14284,3,GX,1,100,-0.427
1574950561.486200,85328.250,14302,4,GX,1,100,-0.153
1574950561.523375,85359.500,14302,4,GX,1,100,-0.031
1574950561.560550,85390.750,14302,4,GX,1,100,0.214
1574950561.597725,85422.000,14302,4,GX,1,100,-0.122
1574950561.645309,85462.000,14321,2,GX,1,100,-0.580
1574950561.692893,85502.000,14321,2,GX,1,100,-0.427
1574950561.728878,85532.250,14339,4,GX,1,100,-0.397
1574950561.764864,85562.500,14339,4,GX,1,100,-0.580
1574950561.800849,85592.750,14339,4,GX,1,100,-0.580
1574950561.836834,85623.000,14339,4,GX,1,100,-0.519
1574950561.876884,85656.667,14357,3,GX,1,100,-0.458
1574950561.916934,85690.333,14357,3,GX,1,100,-0.275
1574950561.956984,85724.000,14357,3,GX,1,100,-0.366
1574950561.997430,85758.000,14376,4,GX,1,100,-0.397
1574950562.037876,85792.000,14376,4,GX,1,100,-0.122
1574950562.078323,85826.000,14376,4,GX,1,100,-0.214
1574950562.118769,85860.000,14376,4,GX,1,100,-0.275
1574950562.163577,85897.667,14398,3,GX,1,100,-0.641
1574950562.208385,85935.333,14398,3,GX,1,100,-0.854
1574950562.253194,85973.000,14398,3,GX,1,100,0.031
1574950562.294830,86008.000,14416,3,GX,1,100,0.244
1574950562.336466,86043.000,14416,3,GX,1,100,-0.732
1574950562.378102,86078.000,14416,3,GX,1,100,-0.854
1574950562.418151,86111.667,14434,3,GX,1,100,-1.068
1574950562.458201,86145.333,14434,3,GX,1,100,-1.038
1574950562.498251,86179.000,14434,3,GX,1,100,-0.427
1574950562.535922,86210.667,14452,3,GX,1,100,0.031
1574950562.573592,86242.333,14452,3,GX,1,100,-0.214
1574950562.611263,86274.000,14452,3,GX,1,100,0.061
1574950562.650916,86307.333,14471,3,GX,1,100,-0.977
1574950562.690569,86340.667,14471,3,GX,1,100,-1.495
1574950562.730222,86374.000,14471,3,GX,1,100,-0.702
1574950562.771462,86408.667,14489,3,GX,1,100,-1.465
1574950562.812701,86443.333,14489,3,GX,1,100,-1.099
1574950562.853941,86478.000,14489,3,GX,1,100,-0.031
1574950562.895180,86512.667,14506,3,GX,1,100,-0.427
1574950562.936419,86547.333,14506,3,GX,1,100,-0.519
1574950562.977659,86582.000,14506,3,GX,1,100,-0.397
1574950563.018105,86616.000,14524,3,GX,1,100,-0.641
1574950563.058552,86650.000,14524,3,GX,1,100,0.153
1574950563.098998,86684.000,14524,3,GX,1,100,-0.092
1574950563.140237,86718.667,14542,3,GX,1,100,-0.305
1574950563.181477,86753.333,14542,3,GX,1,100,1.068
1574950563.222716,86788.000,14542,3,GX,1,100,0.275
1574950563.261973,86821.000,14558,3,GX,1,100,-0.702
1574950563.301230,86854.000,14558,3,GX,1,100,-0.580
1574950563.340487,86887.000,14558,3,GX,1,100,-1.465
1574950563.380933,86921.000,14576,3,GX,1,100,-0.854
1574950563.421379,86955.000,14576,3,GX,1,100,-0.305
1574950563.461825,86989.000,14576,3,GX,1,100,-0.763
1574950563.503065,87023.667,14594,3,GX,1,100,-0.458
1574950563.544304,87058.333,14594,3,GX,1,100,-0.183
1574950563.585544,87093.000,14594,3,GX,1,100,-0.885
1574950563.625593,87126.667,14613,3,GX,1,100,-1.129
1574950563.665643,87160.333,14613,3,GX,1,100,-0.793
1574950563.705693,87194.000,14613,3,GX,1,100,-0.610
1574950563.747725,87229.333,14631,3,GX,1,100,-0.153
1574950563.789758,87264.667,14631,3,GX,1,100,0.061
1574950563.831790,87300.000,14631,3,GX,1,100,0.854
1574950563.871047,87333.000,14649,3,GX,1,100,2.960
1574950563.910304,87366.000,14649,3,GX,1,100,6.866
1574950563.949561,87399.000,14649,3,GX,1,100,6.714
1574950563.990800,87433.667,14667,3,GX,1,100,8.850
1574950564.032040,87468.333,14667,3,GX,1,100,8.820
1574950564.073279,87503.000,14667,3,GX,1,100,7.904
1574950564.114320,87537.500,14684,2,GX,1,100,11.871
1574950564.155361,87572.000,14684,2,GX,1,100,6.622
1574950564.196601,87606.667,14702,3,GX,1,100,2.441
1574950564.237840,87641.333,14702,3,GX,1,100,0.549
1574950564.279079,87676.000,14702,3,GX,1,100,-2.136
1574950564.317444,87708.250,14720,4,GX,1,100,-1.587
1574950564.355808,87740.500,14720,4,GX,1,100,-2.777
1574950564.394173,87772.750,14720,4,GX,1,100,-6.470
1574950564.432538,87805.000,14720,4,GX,1,100,-6.836
1574950564.471398,87837.667,14736,3,GX,1,100,-5.249
1574950564.510258,87870.333,14736,3,GX,1,100,-2.899
1574950564.549118,87903.000,14736,3,GX,1,100,-2.899
1574950564.588970,87936.500,14754,2,GX,1,100,-4.669
1574950564.628821,87970.000,14754,2,GX,1,100,-4.852
1574950564.674026,88008.000,14773,3,GX,1,100,-5.371
1574950564.719231,88046.000,14773,3,GX,1,100,-3.845
1574950564.764436,88084.000,14773,3,GX,1,100,1.526
1574950564.806072,88119.000,14791,3,GX,1,100,0.000
1574950564.847707,88154.000,14791,3,GX,1,100,-1.862
1574950564.889343,88189.000,14791,3,GX,1,100,-0.275
1574950564.927807,88221.333,14809,3,GX,1,100,-1.923
1574950564.966271,88253.667,14809,3,GX,1,100,-4.150
1574950565.004734,88286.000,14809,3,GX,1,100,-3.540
1574950565.042801,88318.000,14827,3,GX,1,100,-1.617
1574950565.080869,88350.000,14827,3,GX,1,100,-0.671
1574950565.118936,88382.000,14827,3,GX,1,100,-1.099
1574950565.158192,88415.000,14845,3,GX,1,100,-1.678
1574950565.197449,88448.000,14845,3,GX,1,100,-1.678
1574950565.236706,88481.000,14845,3,GX,1,100,-0.946
1574950565.277549,88515.333,14862,3,GX,1,100,-1.587
1574950565.318392,88549.667,14862,3,GX,1,100,-1.495
1574950565.359235,88584.000,14862,3,GX,1,100,-0.702
1574950565.404439,88622.000,14880,3,GX,1,100,0.641
1574950565.449644,88660.000,14880,3,GX,1,100,3.082
1574950565.494849,88698.000,14880,3,GX,1,100,4.272
1574950565.532519,88729.667,14896,3,GX,1,100,3.326
1574950565.570190,88761.333,14896,3,GX,1,100,0.977
1574950565.607861,88793.000,14896,3,GX,1,100,1.312
1574950565.649100,88827.667,14915,3,GX,1,100,1.465
1574950565.690339,88862.333,14915,3,GX,1,100,0.702
1574950565.731579,88897.000,14915,3,GX,1,100,1.404
1574950565.773215,88932.000,14933,3,GX,1,100,1.953
1574950565.814851,88967.000,14933,3,GX,1,100,1.373
1574950565.856487,89002.000,14933,3,GX,1,100,0.122
1574950565.894157,89033.667,14951,3,GX,1,100,0.793
1574950565.931828,89065.333,14951,3,GX,1,100,1.556
1574950565.969498,89097.000,14951,3,GX,1,100,-1.190
1574950566.010738,89131.667,14969,3,GX,1,100,-1.526
1574950566.051977,89166.333,14969,3,GX,1,100,-0.946
1574950566.093217,89201.000,14969,3,GX,1,100,-1.068
1574950566.131284,89233.000,14987,3,GX,1,100,-0.580
1574950566.169351,89265.000,14987,3,GX,1,100,-0.763
1574950566.207418,89297.000,14987,3,GX,1,100,-1.282
1574950566.247864,89331.000,15005,3,GX,1,100,-1.617
1574950566.288311,89365.000,15005,3,GX,1,100,-1.678
1574950566.328757,89399.000,15005,3,GX,1,100,-3.204
1574950566.370393,89434.000,15023,3,GX,1,100,-2.869
1574950566.412029,89469.000,15023,3,GX,1,100,-1.068
1574950566.453665,89504.000,15023,3,GX,1,100,-1.892
1574950566.495697,89539.333,15040,3,GX,1,100,-2.350
1574950566.537730,89574.667,15040,3,GX,1,100,-0.061
1574950566.579762,89610.000,15040,3,GX,1,100,-0.153
1574950566.617433,89641.667,15059,3,GX,1,100,-0.916
1574950566.655103,89673.333,15059,3,GX,1,100,0.000
1574950566.692774,89705.000,15059,3,GX,1,100,0.397
1574950566.735203,89740.667,15075,3,GX,1,100,-0.397
1574950566.777632,89776.333,15075,3,GX,1,100,-1.373
1574950566.820061,89812.000,15075,3,GX,1,100,-1.221
1574950566.857732,89843.667,15093,3,GX,1,100,0.854
1574950566.895402,89875.333,15093,3,GX,1,100,0.885
1574950566.933073,89907.000,15093,3,GX,1,100,-0.580
1574950566.971933,89939.667,15111,3,GX,1,100,-0.641
1574950567.010793,89972.333,15111,3,GX,1,100,0.153
1574950567.049654,90005.000,15111,3,GX,1,100,0.061
1574950567.094858,90043.000,15129,3,GX,1,100,-1.099
1574950567.140063,90081.000,15129,3,GX,1,100,-0.854
1574950567.185268,90119.000,15129,3,GX,1,100,-0.122
1574950567.225318,90152.667,15147,3,GX,1,100,-0.275
1574950567.265368,90186.333,15147,3,GX,1,100,-0.458
1574950567.305417,90220.000,15147,3,GX,1,100,-0.366
1574950567.347450,90255.333,15165,3,GX,1,100,-0.458
1574950567.389482,90290.667,15165,3,GX,1,100,-1.038
1574950567.431515,90326.000,15165,3,GX,1,100,-0.916
1574950567.468789,90357.333,15183,3,GX,1,100,-0.610
1574950567.506063,90388.667,15183,3,GX,1,100,-0.793
1574950567.543337,90420.000,15183,3,GX,1,100,-0.824
1574950567.581404,90452.000,15201,3,GX,1,100,-0.641
1574950567.619471,90484.000,15201,3,GX,1,100,-0.641
1574950567.657538,90516.000,15201,3,GX,1,100,-0.549
1574950567.697985,90550.000,15220,3,GX,1,100,-0.458
1574950567.738431,90584.000,15220,3,GX,1,100,-0.671
1574950567.778877,90618.000,15220,3,GX,1,100,-0.916
1574950567.818927,90651.667,15237,3,GX,1,100,0.000
1574950567.858977,90685.333,15237,3,GX,1,100,0.397
1574950567.899027,90719.000,15237,3,GX,1,100,-0.641
1574950567.944232,90757.000,15255,3,GX,1,100,-0.793
1574950567.989436,90795.000,15255,3,GX,1,100,-0.793
1574950568.034641,90833.000,15255,3,GX,1,100,-0.580
1574950568.072708,90865.000,15276,5,GX,1,100,-0.275
1574950568.110775,90897.000,15276,5,GX,1,100,-0.580
1574950568.148842,90929.000,15276,5,GX,1,100,-0.427
1574950568.186909,90961.000,15276,5,GX,1,100,-0.305
1574950568.224977,90993.000,15276,5,GX,1,100,-0.702
1574950568.264828,91026.500,15296,2,GX,1,100,-0.427
1574950568.304680,91060.000,15296,2,GX,1,100,-0.122
1574950568.345523,91094.333,15314,3,GX,1,100,-0.397
1574950568.386365,91128.667,15314,3,GX,1,100,-0.366
1574950568.427208,91163.000,15314,3,GX,1,100,-0.214
1574950568.468844,91198.000,15331,3,GX,1,100,-0.336
1574950568.510480,91233.000,15331,3,GX,1,100,-0.153
1574950568.552116,91268.000,15331,3,GX,1,100,-0.031
1574950568.593356,91302.667,15349,3,GX,1,100,-0.519
1574950568.634595,91337.333,15349,3,GX,1,100,-0.488
1574950568.675834,91372.000,15349,3,GX,1,100,-0.549
1574950568.713902,91404.000,15368,3,GX,1,100,-0.397
1574950568.751969,91436.000,15368,3,GX,1,100,-0.702
1574950568.790036,91468.000,15368,3,GX,1,100,-0.519
1574950568.832465,91503.667,15384,3,GX,1,100,0.641
1574950568.874894,91539.333,15384,3,GX,1,100,0.153
1574950568.917323,91575.000,15384,3,GX,1,100,-0.580
1574950568.957769,91609.000,15402,3,GX,1,100,-0.397
1574950568.998215,91643.000,15402,3,GX,1,100,-0.397
1574950569.038662,91677.000,15402,3,GX,1,100,-0.397
1574950569.079901,91711.667,15420,3,GX,1,100,-0.519
1574950569.121141,91746.333,15420,3,GX,1,100,-0.549
1574950569.162380,91781.000,15420,3,GX,1,100,-0.458
1574950569.204016,91816.000,15438,3,GX,1,100,-0.458
1574950569.245652,91851.000,15438,3,GX,1,100,-0.336
1574950569.287288,91886.000,15438,3,GX,1,100,-0.366
1574950569.324562,91917.333,15456,3,GX,1,100,-0.427
1574950569.361836,91948.667,15456,3,GX,1,100,-0.366
1574950569.399110,91980.000,15456,3,GX,1,100,-0.427
1574950569.437574,92012.333,15474,3,GX,1,100,-0.427
1574950569.476038,92044.667,15474,3,GX,1,100,-0.519
1574950569.514501,92077.000,15474,3,GX,1,100,-0.549
1574950569.558516,92114.000,15492,3,GX,1,100,-0.275
1574950569.602531,92151.000,15492,3,GX,1,100,-0.397
1574950569.646546,92188.000,15492,3,GX,1,100,-0.671
1574950569.683820,92219.333,15510,3,GX,1,100,-0.214
1574950569.721095,92250.667,15510,3,GX,1,100,-0.366
1574950569.758369,92282.000,15510,3,GX,1,100,-0.793
1574950569.803970,92320.333,15528,3,GX,1,100,0.305
1574950569.849571,92358.667,15528,3,GX,1,100,0.549
1574950569.895173,92397.000,15528,3,GX,1,100,-0.336
1574950569.931653,92427.667,15544,3,GX,1,100,-0.336
1574950569.968134,92458.333,15544,3,GX,1,100,-0.397
1574950570.004616,92489.000,15544,3,GX,1,100,-0.397
1574950570.046252,92524.000,15562,3,GX,1,100,-0.580
1574950570.087887,92559.000,15562,3,GX,1,100,-0.397
1574950570.129523,92594.000,15562,3,GX,1,100,-0.244
1574950570.174331,92631.667,15580,3,GX,1,100,-0.519
1574950570.219140,92669.333,15580,3,GX,1,100,-0.580
1574950570.263948,92707.000,15580,3,GX,1,100,-0.427
1574950570.303998,92740.667,15598,3,GX,1,100,-0.488
1574950570.344048,92774.333,15598,3,GX,1,100,-0.580
1574950570.384097,92808.000,15598,3,GX,1,100,-0.336
1574950570.422561,92840.333,15616,3,GX,1,100,0.000
1574950570.461025,92872.667,15616,3,GX,1,100,-0.275
1574950570.499488,92905.000,15616,3,GX,1,100,-0.458
1574950570.537952,92937.333,15634,3,GX,1,100,-0.183
1574950570.576416,92969.667,15634,3,GX,1,100,-0.397
1574950570.614879,93002.000,15634,3,GX,1,100,-0.763
1574950570.655722,93036.333,15653,3,GX,1,100,-0.519
1574950570.696565,93070.667,15653,3,GX,1,100,-0.183
1574950570.737408,93105.000,15653,3,GX,1,100,-0.763
1574950570.778647,93139.667,15670,3,GX,1,100,-0.549
1574950570.819887,93174.333,15670,3,GX,1,100,0.488
1574950570.861126,93209.000,15670,3,GX,1,100,0.061
1574950570.902366,93243.667,15688,3,GX,1,100,-0.458
1574950570.943605,93278.333,15688,3,GX,1,100,-0.610
1574950570.984844,93313.000,15688,3,GX,1,100,-0.488
1574950571.022912,93345.000,15706,3,GX,1,100,0.031
1574950571.060979,93377.000,15706,3,GX,1,100,-0.671
1574950571.099046,93409.000,15706,3,GX,1,100,-1.221
1574950571.141078,93444.333,15722,3,GX,1,100,0.122
1574950571.183111,93479.667,15722,3,GX,1,100,-0.031
1574950571.225143,93515.000,15722,3,GX,1,100,-1.099
1574950571.265590,93549.000,15740,3,GX,1,100,-0.549
1574950571.306036,93583.000,15740,3,GX,1,100,0.366
