EpochTimestamp,EmotiBitTimestamp,PacketNumber,DataLength,TypeTag,ProtocolVersion,DataReliability,PI
1574949840.700419,101270.000,17235,6,PI,1,100,135409
1574949840.700419,101270.000,17235,6,PI,1,100,135550
1574949840.700419,101270.000,17235,6,PI,1,100,135640
1574949840.700419,101270.000,17235,6,PI,1,100,135532
1574949840.700419,101270.000,17235,6,PI,1,100,135611
1574949840.700419,101270.000,17235,6,PI,1,100,135709
1574949840.741873,101305.000,17253,3,PI,1,100,135764
1574949840.783327,101340.000,17253,3,PI,1,100,135798
1574949840.824782,101375.000,17253,3,PI,1,100,135802
1574949840.869789,101413.000,17270,3,PI,1,100,135803
1574949840.914797,101451.000,17270,3,PI,1,100,135855
1574949840.959804,101489.000,17270,3,PI,1,100,135905
1574949840.997705,101521.000,17289,3,PI,1,100,135882
1574949841.035606,101553.000,17289,3,PI,1,100,136001
1574949841.073508,101585.000,17289,3,PI,1,100,135995
1574949841.111803,101617.333,17307,3,PI,1,100,136058
1574949841.150099,101649.667,17307,3,PI,1,100,136106
1574949841.188395,101682.000,17307,3,PI,1,100,136117
1574949841.228270,101715.667,17323,3,PI,1,100,135802
1574949841.268145,101749.333,17323,3,PI,1,100,135368
1574949841.308021,101783.000,17323,3,PI,1,100,135231
1574949841.348290,101817.000,17341,3,PI,1,100,135315
1574949841.388560,101851.000,17341,3,PI,1,100,135441
1574949841.428830,101885.000,17341,3,PI,1,100,135455
1574949841.470679,101920.333,17359,3,PI,1,100,135547
1574949841.512528,101955.667,17359,3,PI,1,100,135461
1574949841.554378,101991.000,17359,3,PI,1,100,135467
1574949841.592279,102023.000,17377,3,PI,1,100,135446
1574949841.630180,102055.000,17377,3,PI,1,100,135460
1574949841.668081,102087.000,17377,3,PI,1,100,135579
1574949841.705982,102119.000,17395,3,PI,1,100,135646
1574949841.743883,102151.000,17395,3,PI,1,100,135704
1574949841.781784,102183.000,17395,3,PI,1,100,135790
1574949841.821265,102216.333,17413,3,PI,1,100,135814
1574949841.860745,102249.667,17413,3,PI,1,100,135821
1574949841.900225,102283.000,17413,3,PI,1,100,135843
1574949841.940495,102317.000,17432,3,PI,1,100,135850
1574949841.980765,102351.000,17432,3,PI,1,100,135903
1574949842.021035,102385.000,17432,3,PI,1,100,135976
1574949842.062489,102420.000,17450,3,PI,1,100,135974
1574949842.103943,102455.000,17450,3,PI,1,100,136109
1574949842.145398,102490.000,17450,3,PI,1,100,136121
1574949842.185273,102523.667,17467,3,PI,1,100,136191
1574949842.225148,102557.333,17467,3,PI,1,100,136214
1574949842.265023,102591.000,17467,3,PI,1,100,135971
1574949842.303319,102623.333,17485,3,PI,1,100,135505
1574949842.341615,102655.667,17485,3,PI,1,100,135349
1574949842.379911,102688.000,17485,3,PI,1,100,135367
1574949842.418996,102721.000,17501,3,PI,1,100,135537
1574949842.458082,102754.000,17501,3,PI,1,100,135606
1574949842.497167,102787.000,17501,3,PI,1,100,135615
1574949842.537042,102820.667,17519,3,PI,1,100,135647
1574949842.576917,102854.333,17519,3,PI,1,100,135568
1574949842.616792,102888.000,17519,3,PI,1,100,135562
1574949842.659431,102924.000,17537,3,PI,1,100,135652
1574949842.702070,102960.000,17537,3,PI,1,100,135700
1574949842.744709,102996.000,17537,3,PI,1,100,135792
1574949842.783794,103029.000,17555,3,PI,1,100,135853
1574949842.822880,103062.000,17555,3,PI,1,100,135919
1574949842.861965,103095.000,17555,3,PI,1,100,135979
1574949842.899077,103126.333,17573,3,PI,1,100,136031
1574949842.936188,103157.667,17573,3,PI,1,100,136050
1574949842.973300,103189.000,17573,3,PI,1,100,136067
1574949843.012780,103222.333,17592,3,PI,1,100,136101
1574949843.052260,103255.667,17592,3,PI,1,100,136106
1574949843.091741,103289.000,17592,3,PI,1,100,136223
1574949843.135958,103326.333,17610,3,PI,1,100,136207
1574949843.180176,103363.667,17610,3,PI,1,100,136332
1574949843.224394,103401.000,17610,3,PI,1,100,136333
1574949843.265454,103435.667,17628,3,PI,1,100,136378
1574949843.306513,103470.333,17628,3,PI,1,100,136417
1574949843.347573,103505.000,17628,3,PI,1,100,136203
1574949843.388238,103539.333,17645,3,PI,1,100,135776
1574949843.428902,103573.667,17645,3,PI,1,100,135543
1574949843.469567,103608.000,17645,3,PI,1,100,135570
1574949843.506679,103639.333,17663,3,PI,1,100,135718
1574949843.543790,103670.667,17663,3,PI,1,100,135814
1574949843.580901,103702.000,17663,3,PI,1,100,135854
1574949843.620382,103735.333,17681,3,PI,1,100,135876
1574949843.659862,103768.667,17681,3,PI,1,100,135733
1574949843.699342,103802.000,17681,3,PI,1,100,135752
1574949843.740007,103836.333,17697,3,PI,1,100,135753
1574949843.780672,103870.667,17697,3,PI,1,100,135860
1574949843.821337,103905.000,17697,3,PI,1,100,135954
1574949843.862396,103939.667,17715,3,PI,1,100,136015
1574949843.903455,103974.333,17715,3,PI,1,100,136078
1574949843.944515,104009.000,17715,3,PI,1,100,136141
1574949843.985574,104043.667,17734,3,PI,1,100,136156
1574949844.026634,104078.333,17734,3,PI,1,100,136178
1574949844.067694,104113.000,17734,3,PI,1,100,136179
1574949844.105595,104145.000,17752,3,PI,1,100,136208
1574949844.143496,104177.000,17752,3,PI,1,100,136326
1574949844.181397,104209.000,17752,3,PI,1,100,136248
1574949844.219298,104241.000,17770,3,PI,1,100,136416
1574949844.257199,104273.000,17770,3,PI,1,100,136412
1574949844.295100,104305.000,17770,3,PI,1,100,136452
1574949844.334975,104338.667,17788,3,PI,1,100,136482
1574949844.374850,104372.333,17788,3,PI,1,100,136222
1574949844.414726,104406.000,17788,3,PI,1,100,135681
1574949844.455785,104440.667,17806,3,PI,1,100,135479
1574949844.496845,104475.333,17806,3,PI,1,100,135537
1574949844.537904,104510.000,17806,3,PI,1,100,135673
1574949844.580148,104545.667,17823,3,PI,1,100,135707
1574949844.622392,104581.333,17823,3,PI,1,100,135694
1574949844.664636,104617.000,17823,3,PI,1,100,135751
1574949844.703326,104649.667,17841,3,PI,1,100,135646
1574949844.742017,104682.333,17841,3,PI,1,100,135668
1574949844.780708,104715.000,17841,3,PI,1,100,135700
1574949844.818609,104747.000,17857,3,PI,1,100,135735
1574949844.856510,104779.000,17857,3,PI,1,100,135847
1574949844.894411,104811.000,17857,3,PI,1,100,135924
1574949844.938234,104848.000,17876,3,PI,1,100,135954
1574949844.982057,104885.000,17876,3,PI,1,100,135995
1574949845.025881,104922.000,17876,3,PI,1,100,136022
1574949845.066545,104956.333,17894,3,PI,1,100,136034
1574949845.107210,104990.667,17894,3,PI,1,100,136057
1574949845.147875,105025.000,17894,3,PI,1,100,136088
1574949845.189329,105060.000,17912,2,PI,1,100,136156
1574949845.230783,105095.000,17912,2,PI,1,100,136180
1574949845.270165,105128.250,17930,4,PI,1,100,136207
1574949845.309546,105161.500,17930,4,PI,1,100,136263
1574949845.348928,105194.750,17930,4,PI,1,100,136274
1574949845.388310,105228.000,17930,4,PI,1,100,136327
1574949845.425816,105259.667,17948,3,PI,1,100,136350
1574949845.463322,105291.333,17948,3,PI,1,100,136275
1574949845.500829,105323.000,17948,3,PI,1,100,135770
1574949845.540309,105356.333,17966,3,PI,1,100,135104
1574949845.579789,105389.667,17966,3,PI,1,100,134742
1574949845.619269,105423.000,17966,3,PI,1,100,134527
1574949845.659539,105457.000,17984,3,PI,1,100,134351
1574949845.699809,105491.000,17984,3,PI,1,100,134106
1574949845.740079,105525.000,17984,3,PI,1,100,134106
1574949845.781139,105559.667,18001,3,PI,1,100,133463
1574949845.822198,105594.333,18001,3,PI,1,100,132515
1574949845.863258,105629.000,18001,3,PI,1,100,131673
1574949845.903528,105663.000,18019,3,PI,1,100,130562
1574949845.943798,105697.000,18019,3,PI,1,100,130207
1574949845.984067,105731.000,18019,3,PI,1,100,130048
1574949846.021179,105762.333,18038,3,PI,1,100,129744
1574949846.058290,105793.667,18038,3,PI,1,100,129468
1574949846.095402,105825.000,18038,3,PI,1,100,129096
1574949846.135277,105858.667,18054,3,PI,1,100,129144
1574949846.175152,105892.333,18054,3,PI,1,100,129350
1574949846.215027,105926.000,18054,3,PI,1,100,128818
1574949846.255692,105960.333,18072,3,PI,1,100,126396
1574949846.296357,105994.667,18072,3,PI,1,100,107830
1574949846.337021,106029.000,18072,3,PI,1,100,103766
1574949846.377686,106063.333,18090,3,PI,1,100,111485
1574949846.418351,106097.667,18090,3,PI,1,100,111530
1574949846.459016,106132.000,18090,3,PI,1,100,113347
1574949846.500470,106167.000,18108,3,PI,1,100,114818
1574949846.541924,106202.000,18108,3,PI,1,100,116378
1574949846.583379,106237.000,18108,3,PI,1,100,118069
1574949846.620806,106268.600,18129,5,PI,1,100,118510
1574949846.658233,106300.200,18129,5,PI,1,100,116064
1574949846.695660,106331.800,18129,5,PI,1,100,106005
1574949846.733088,106363.400,18129,5,PI,1,100,118707
1574949846.770515,106395.000,18129,5,PI,1,100,119488
1574949846.810390,106428.667,18149,3,PI,1,100,119761
1574949846.850265,106462.333,18149,3,PI,1,100,119837
1574949846.890140,106496.000,18149,3,PI,1,100,120542
1574949846.931595,106531.000,18166,3,PI,1,100,120682
1574949846.973049,106566.000,18166,3,PI,1,100,120113
1574949847.014503,106601.000,18166,3,PI,1,100,110383
1574949847.055366,106635.500,18184,2,PI,1,100,117564
1574949847.096228,106670.000,18184,2,PI,1,100,122965
1574949847.139261,106706.333,18202,3,PI,1,100,124519
1574949847.182295,106742.667,18202,3,PI,1,100,126153
1574949847.225328,106779.000,18202,3,PI,1,100,127761
1574949847.263229,106811.000,18220,3,PI,1,100,128906
1574949847.301130,106843.000,18220,3,PI,1,100,130217
1574949847.339031,106875.000,18220,3,PI,1,100,131154
1574949847.374564,106905.000,18238,4,PI,1,100,132046
1574949847.410096,106935.000,18238,4,PI,1,100,132597
1574949847.445628,106965.000,18238,4,PI,1,100,133188
1574949847.481161,106995.000,18238,4,PI,1,100,133540
1574949847.519851,107027.667,18256,3,PI,1,100,133525
1574949847.558542,107060.333,18256,3,PI,1,100,133265
1574949847.597233,107093.000,18256,3,PI,1,100,132942
1574949847.636713,107126.333,18274,3,PI,1,100,132974
1574949847.676193,107159.667,18274,3,PI,1,100,132356
1574949847.715673,107193.000,18274,3,PI,1,100,131450
1574949847.756733,107227.667,18292,3,PI,1,100,131181
1574949847.797793,107262.333,18292,3,PI,1,100,130971
1574949847.838852,107297.000,18292,3,PI,1,100,131083
1574949847.879714,107331.500,18310,2,PI,1,100,131488
1574949847.920576,107366.000,18310,2,PI,1,100,131832
1574949847.962919,107401.750,18328,4,PI,1,100,131508
1574949848.005262,107437.500,18328,4,PI,1,100,131390
1574949848.047604,107473.250,18328,4,PI,1,100,131827
1574949848.089947,107509.000,18328,4,PI,1,100,132205
1574949848.131993,107544.500,18344,2,PI,1,100,132247
1574949848.174040,107580.000,18344,2,PI,1,100,132264
1574949848.212533,107612.500,18362,4,PI,1,100,132362
1574949848.251026,107645.000,18362,4,PI,1,100,132476
1574949848.289520,107677.500,18362,4,PI,1,100,132473
1574949848.328013,107710.000,18362,4,PI,1,100,132577
1574949848.366309,107742.333,18380,3,PI,1,100,132742
1574949848.404605,107774.667,18380,3,PI,1,100,132899
1574949848.442901,107807.000,18380,3,PI,1,100,133077
1574949848.482776,107840.667,18398,3,PI,1,100,133147
1574949848.522651,107874.333,18398,3,PI,1,100,133251
1574949848.562526,107908.000,18398,3,PI,1,100,133236
1574949848.602796,107942.000,18416,3,PI,1,100,132952
1574949848.643066,107976.000,18416,3,PI,1,100,132771
1574949848.683336,108010.000,18416,3,PI,1,100,132841
1574949848.730712,108050.000,18434,2,PI,1,100,132923
1574949848.778089,108090.000,18434,2,PI,1,100,132959
1574949848.817569,108123.333,18452,3,PI,1,100,133010
1574949848.857049,108156.667,18452,3,PI,1,100,133040
1574949848.896529,108190.000,18452,3,PI,1,100,133116
1574949848.934430,108222.000,18470,4,PI,1,100,133187
1574949848.972332,108254.000,18470,4,PI,1,100,133212
1574949849.010233,108286.000,18470,4,PI,1,100,133402
1574949849.048134,108318.000,18470,4,PI,1,100,133485
1574949849.088404,108352.000,18488,2,PI,1,100,133625
1574949849.128674,108386.000,18488,2,PI,1,100,133783
1574949849.169733,108420.667,18506,3,PI,1,100,133884
1574949849.210793,108455.333,18506,3,PI,1,100,133966
1574949849.251852,108490.000,18506,3,PI,1,100,134080
1574949849.293306,108525.000,18522,3,PI,1,100,134173
1574949849.334761,108560.000,18522,3,PI,1,100,134239
1574949849.376215,108595.000,18522,3,PI,1,100,134303
1574949849.416090,108628.667,18540,3,PI,1,100,134395
1574949849.455965,108662.333,18540,3,PI,1,100,134505
1574949849.495840,108696.000,18540,3,PI,1,100,134685
1574949849.533445,108727.750,18558,4,PI,1,100,134764
1574949849.571050,108759.500,18558,4,PI,1,100,134859
1574949849.608655,108791.250,18558,4,PI,1,100,134679
1574949849.646260,108823.000,18558,4,PI,1,100,134528
1574949849.686530,108857.000,18576,3,PI,1,100,134540
1574949849.726800,108891.000,18576,3,PI,1,100,134615
1574949849.767070,108925.000,18576,3,PI,1,100,134720
1574949849.807932,108959.500,18594,2,PI,1,100,134833
1574949849.848794,108994.000,18594,2,PI,1,100,134872
1574949849.889854,109028.667,18613,3,PI,1,100,134954
1574949849.930913,109063.333,18613,3,PI,1,100,134970
1574949849.971973,109098.000,18613,3,PI,1,100,135051
1574949850.012638,109132.333,18631,3,PI,1,100,135126
1574949850.053302,109166.667,18631,3,PI,1,100,135313
1574949850.093967,109201.000,18631,3,PI,1,100,135384
1574949850.130980,109232.250,18648,4,PI,1,100,135505
1574949850.167993,109263.500,18648,4,PI,1,100,135633
1574949850.205005,109294.750,18648,4,PI,1,100,135704
1574949850.242018,109326.000,18648,4,PI,1,100,135826
1574949850.283077,109360.667,18666,3,PI,1,100,135862
1574949850.324137,109395.333,18666,3,PI,1,100,135927
1574949850.365197,109430.000,18666,3,PI,1,100,136014
1574949850.402308,109461.333,18684,3,PI,1,100,136128
1574949850.439420,109492.667,18684,3,PI,1,100,136188
1574949850.476531,109524.000,18684,3,PI,1,100,136305
1574949850.517985,109559.000,18702,3,PI,1,100,136523
1574949850.559440,109594.000,18702,3,PI,1,100,136646
1574949850.600894,109629.000,18702,3,PI,1,100,136495
1574949850.642348,109664.000,18718,2,PI,1,100,136355
1574949850.683803,109699.000,18718,2,PI,1,100,136282
1574949850.725652,109734.333,18736,3,PI,1,100,136259
1574949850.767501,109769.667,18736,3,PI,1,100,136250
1574949850.809350,109805.000,18736,3,PI,1,100,136459
1574949850.850804,109840.000,18754,3,PI,1,100,136623
1574949850.892259,109875.000,18754,3,PI,1,100,136792
1574949850.933713,109910.000,18754,3,PI,1,100,136882
1574949850.975562,109945.333,18773,3,PI,1,100,136975
1574949851.017411,109980.667,18773,3,PI,1,100,137110
1574949851.059260,110016.000,18773,3,PI,1,100,137170
1574949851.100320,110050.667,18791,3,PI,1,100,137243
1574949851.141379,110085.333,18791,3,PI,1,100,137295
1574949851.182439,110120.000,18791,3,PI,1,100,137390
1574949851.219945,110151.667,18808,3,PI,1,100,137470
1574949851.257452,110183.333,18808,3,PI,1,100,137539
1574949851.294958,110215.000,18808,3,PI,1,100,137655
1574949851.336412,110250.000,18826,3,PI,1,100,137778
1574949851.377866,110285.000,18826,3,PI,1,100,137926
1574949851.419321,110320.000,18826,3,PI,1,100,137989
1574949851.461170,110355.333,18842,3,PI,1,100,138116
1574949851.503019,110390.667,18842,3,PI,1,100,138229
1574949851.544868,110426.000,18842,3,PI,1,100,138236
1574949851.582374,110457.667,18860,3,PI,1,100,138307
1574949851.619881,110489.333,18860,3,PI,1,100,138556
1574949851.657387,110521.000,18860,3,PI,1,100,138648
1574949851.700420,110557.333,18878,3,PI,1,100,138508
1574949851.743454,110593.667,18878,3,PI,1,100,138427
1574949851.786488,110630.000,18878,3,PI,1,100,138442
1574949851.821625,110659.667,18896,3,PI,1,100,138474
1574949851.856762,110689.333,18896,3,PI,1,100,138536
1574949851.891900,110719.000,18896,3,PI,1,100,138592
1574949851.931775,110752.667,18915,3,PI,1,100,138624
1574949851.971650,110786.333,18915,3,PI,1,100,138579
1574949852.011525,110820.000,18915,3,PI,1,100,138489
1574949852.051400,110853.667,18933,3,PI,1,100,138400
1574949852.091275,110887.333,18933,3,PI,1,100,138335
1574949852.131150,110921.000,18933,3,PI,1,100,138329
1574949852.172605,110956.000,18951,3,PI,1,100,138206
1574949852.214059,110991.000,18951,3,PI,1,100,138165
1574949852.255513,111026.000,18951,3,PI,1,100,138068
1574949852.296573,111060.667,18969,3,PI,1,100,137955
1574949852.337632,111095.333,18969,3,PI,1,100,137942
1574949852.378692,111130.000,18969,3,PI,1,100,138109
1574949852.419752,111164.667,18986,3,PI,1,100,138010
1574949852.460811,111199.333,18986,3,PI,1,100,137942
1574949852.501871,111234.000,18986,3,PI,1,100,137864
1574949852.539772,111266.000,19004,3,PI,1,100,137887
1574949852.577673,111298.000,19004,3,PI,1,100,137926
1574949852.615574,111330.000,19004,3,PI,1,100,138122
1574949852.655844,111364.000,19025,5,PI,1,100,138644
1574949852.696114,111398.000,19025,5,PI,1,100,139070
1574949852.736383,111432.000,19025,5,PI,1,100,139058
1574949852.776654,111466.000,19025,5,PI,1,100,139281
1574949852.816923,111500.000,19025,5,PI,1,100,139500
1574949852.858773,111535.333,19045,3,PI,1,100,139677
1574949852.900622,111570.667,19045,3,PI,1,100,139694
1574949852.942471,111606.000,19045,3,PI,1,100,139674
1574949852.981556,111639.000,19064,3,PI,1,100,139704
1574949853.020642,111672.000,19064,3,PI,1,100,139697
1574949853.059727,111705.000,19064,3,PI,1,100,139593
1574949853.098023,111737.333,19081,3,PI,1,100,139675
1574949853.136319,111769.667,19081,3,PI,1,100,139788
1574949853.174615,111802.000,19081,3,PI,1,100,139787
1574949853.213700,111835.000,19099,3,PI,1,100,139798
1574949853.252786,111868.000,19099,3,PI,1,100,139920
1574949853.291871,111901.000,19099,3,PI,1,100,139955
1574949853.332536,111935.333,19117,3,PI,1,100,139896
1574949853.373201,111969.667,19117,3,PI,1,100,139965
1574949853.413866,112004.000,19117,3,PI,1,100,139890
1574949853.455320,112039.000,19133,3,PI,1,100,139861
1574949853.496774,112074.000,19133,3,PI,1,100,139845
1574949853.538229,112109.000,19133,3,PI,1,100,139820
1574949853.577314,112142.000,19151,3,PI,1,100,139845
1574949853.616400,112175.000,19151,3,PI,1,100,139941
1574949853.655485,112208.000,19151,3,PI,1,100,139712
1574949853.693781,112240.333,19169,3,PI,1,100,139329
1574949853.732077,112272.667,19169,3,PI,1,100,139006
1574949853.770373,112305.000,19169,3,PI,1,100,138772
1574949853.808669,112337.333,19187,3,PI,1,100,138665
1574949853.846964,112369.667,19187,3,PI,1,100,138673
1574949853.885260,112402.000,19187,3,PI,1,100,138550
1574949853.925925,112436.333,19206,3,PI,1,100,138548
1574949853.966590,112470.667,19206,3,PI,1,100,138457
1574949854.007254,112505.000,19206,3,PI,1,100,138297
1574949854.048709,112540.000,19224,3,PI,1,100,138242
1574949854.090163,112575.000,19224,3,PI,1,100,138226
1574949854.131617,112610.000,19224,3,PI,1,100,138196
1574949854.173072,112645.000,19242,3,PI,1,100,138227
1574949854.214526,112680.000,19242,3,PI,1,100,138288
1574949854.255980,112715.000,19242,3,PI,1,100,138246
1574949854.293881,112747.000,19259,3,PI,1,100,138249
1574949854.331783,112779.000,19259,3,PI,1,100,138263
1574949854.369684,112811.000,19259,3,PI,1,100,138190
1574949854.409164,112844.333,19277,3,PI,1,100,138272
1574949854.448644,112877.667,19277,3,PI,1,100,138231
1574949854.488125,112911.000,19277,3,PI,1,100,138292
1574949854.526815,112943.667,19295,3,PI,1,100,138265
1574949854.565506,112976.333,19295,3,PI,1,100,138262
1574949854.604197,113009.000,19295,3,PI,1,100,138374
1574949854.643282,113042.000,19311,3,PI,1,100,138269
1574949854.682368,113075.000,19311,3,PI,1,100,137854
1574949854.721453,113108.000,19311,3,PI,1,100,137452
1574949854.758565,113139.333,19329,3,PI,1,100,137304
1574949854.795676,113170.667,19329,3,PI,1,100,137221
1574949854.832788,113202.000,19329,3,PI,1,100,137209
1574949854.874242,113237.000,19348,3,PI,1,100,137210
1574949854.915696,113272.000,19348,3,PI,1,100,137167
1574949854.957150,113307.000,19348,3,PI,1,100,137118
1574949854.993867,113338.000,19366,3,PI,1,100,136942
1574949855.030584,113369.000,19366,3,PI,1,100,136951
1574949855.067301,113400.000,19366,3,PI,1,100,136928
1574949855.105202,113432.000,19384,4,PI,1,100,136925
1574949855.143103,113464.000,19384,4,PI,1,100,137019
1574949855.181004,113496.000,19384,4,PI,1,100,137000
1574949855.218905,113528.000,19384,4,PI,1,100,137076
1574949855.259175,113562.000,19402,3,PI,1,100,137057
1574949855.299445,113596.000,19402,3,PI,1,100,137061
1574949855.339715,113630.000,19402,3,PI,1,100,137050
1574949855.379985,113664.000,19420,2,PI,1,100,137054
1574949855.420254,113698.000,19420,2,PI,1,100,137037
1574949855.465262,113736.000,19438,3,PI,1,100,137057
1574949855.510270,113774.000,19438,3,PI,1,100,137076
1574949855.555277,113812.000,19438,3,PI,1,100,137121
1574949855.593178,113844.000,19455,3,PI,1,100,137115
1574949855.631079,113876.000,19455,3,PI,1,100,137086
1574949855.668980,113908.000,19455,3,PI,1,100,136815
1574949855.710435,113943.000,19473,3,PI,1,100,136558
1574949855.751889,113978.000,19473,3,PI,1,100,136391
1574949855.793343,114013.000,19473,3,PI,1,100,136388
1574949855.834008,114047.333,19489,3,PI,1,100,136463
1574949855.874673,114081.667,19489,3,PI,1,100,136566
1574949855.915338,114116.000,19489,3,PI,1,100,136559
1574949855.952844,114147.667,19508,3,PI,1,100,136545
1574949855.990350,114179.333,19508,3,PI,1,100,136444
1574949856.027856,114211.000,19508,3,PI,1,100,136352
1574949856.067337,114244.333,19526,3,PI,1,100,136401
1574949856.106817,114277.667,19526,3,PI,1,100,136449
1574949856.146297,114311.000,19526,3,PI,1,100,136492
1574949856.190515,114348.333,19544,3,PI,1,100,136566
1574949856.234733,114385.667,19544,3,PI,1,100,136601
1574949856.278951,114423.000,19544,3,PI,1,100,136625
1574949856.319616,114457.333,19562,3,PI,1,100,136636
1574949856.360281,114491.667,19562,3,PI,1,100,136640
1574949856.400945,114526.000,19562,3,PI,1,100,136658
1574949856.441215,114560.000,19580,3,PI,1,100,136666
1574949856.481485,114594.000,19580,3,PI,1,100,136692
1574949856.521755,114628.000,19580,3,PI,1,100,136770
1574949856.559261,114659.667,19598,3,PI,1,100,136769
1574949856.596767,114691.333,19598,3,PI,1,100,136801
1574949856.634274,114723.000,19598,3,PI,1,100,136566
1574949856.673754,114756.333,19616,3,PI,1,100,136126
1574949856.713234,114789.667,19616,3,PI,1,100,135888
1574949856.752715,114823.000,19616,3,PI,1,100,135876
1574949856.793379,114857.333,19633,3,PI,1,100,135874
1574949856.834044,114891.667,19633,3,PI,1,100,135905
1574949856.874709,114926.000,19633,3,PI,1,100,135918
1574949856.915768,114960.667,19652,3,PI,1,100,135841
1574949856.956828,114995.333,19652,3,PI,1,100,135808
1574949856.997887,115030.000,19652,3,PI,1,100,135743
1574949857.039342,115065.000,19668,3,PI,1,100,135763
1574949857.080796,115100.000,19668,3,PI,1,100,135839
1574949857.122250,115135.000,19668,3,PI,1,100,135872
1574949857.159757,115166.667,19686,3,PI,1,100,135938
1574949857.197263,115198.333,19686,3,PI,1,100,135986
1574949857.234769,115230.000,19686,3,PI,1,100,136015
1574949857.273855,115263.000,19704,3,PI,1,100,136081
1574949857.312940,115296.000,19704,3,PI,1,100,136085
1574949857.352026,115329.000,19704,3,PI,1,100,136108
1574949857.391506,115362.333,19722,3,PI,1,100,136149
1574949857.430986,115395.667,19722,3,PI,1,100,136171
1574949857.470467,115429.000,19722,3,PI,1,100,136199
1574949857.511526,115463.667,19740,3,PI,1,100,136274
1574949857.552586,115498.333,19740,3,PI,1,100,136261
1574949857.593645,115533.000,19740,3,PI,1,100,136394
1574949857.635889,115568.667,19758,3,PI,1,100,136249
1574949857.678133,115604.333,19758,3,PI,1,100,135910
1574949857.720377,115640.000,19758,3,PI,1,100,135610
1574949857.757488,115671.333,19776,3,PI,1,100,135516
1574949857.794600,115702.667,19776,3,PI,1,100,135537
1574949857.831711,115734.000,19776,3,PI,1,100,135620
1574949857.870402,115766.667,19795,3,PI,1,100,135658
1574949857.909093,115799.333,19795,3,PI,1,100,135651
1574949857.947783,115832.000,19795,3,PI,1,100,135585
1574949857.988843,115866.667,19812,3,PI,1,100,135490
1574949858.029902,115901.333,19812,3,PI,1,100,135469
1574949858.070962,115936.000,19812,3,PI,1,100,135537
1574949858.112021,115970.667,19830,3,PI,1,100,135558
1574949858.153081,116005.333,19830,3,PI,1,100,135646
1574949858.194140,116040.000,19830,3,PI,1,100,135679
1574949858.235990,116075.333,19846,3,PI,1,100,135760
1574949858.277839,116110.667,19846,3,PI,1,100,135706
1574949858.319688,116146.000,19846,3,PI,1,100,135730
1574949858.361537,116181.333,19864,3,PI,1,100,135804
1574949858.403386,116216.667,19864,3,PI,1,100,135769
1574949858.445235,116252.000,19864,3,PI,1,100,135827
1574949858.486690,116287.000,19882,3,PI,1,100,135791
1574949858.528144,116322.000,19882,3,PI,1,100,135883
1574949858.569598,116357.000,19882,3,PI,1,100,135832
1574949858.605130,116387.000,19900,2,PI,1,100,135627
1574949858.640663,116417.000,19900,2,PI,1,100,135404
1574949858.681880,116451.800,19921,5,PI,1,100,135292
1574949858.723098,116486.600,19921,5,PI,1,100,135399
1574949858.764315,116521.400,19921,5,PI,1,100,135418
1574949858.805532,116556.200,19921,5,PI,1,100,135515
1574949858.846750,116591.000,19921,5,PI,1,100,135561
1574949858.887810,116625.667,19942,3,PI,1,100,135553
1574949858.928869,116660.333,19942,3,PI,1,100,135456
1574949858.969929,116695.000,19942,3,PI,1,100,135456
1574949859.010593,116729.333,19960,3,PI,1,100,135462
1574949859.051258,116763.667,19960,3,PI,1,100,135514
1574949859.091923,116798.000,19960,3,PI,1,100,135606
1574949859.134956,116834.333,19978,3,PI,1,100,135662
1574949859.177990,116870.667,19978,3,PI,1,100,135720
1574949859.221023,116907.000,19978,3,PI,1,100,135763
1574949859.262083,116941.667,19996,3,PI,1,100,135750
1574949859.303142,116976.333,19996,3,PI,1,100,135767
1574949859.344202,117011.000,19996,3,PI,1,100,135821
1574949859.384472,117045.000,20014,3,PI,1,100,135844
1574949859.424742,117079.000,20014,3,PI,1,100,135730
1574949859.465011,117113.000,20014,3,PI,1,100,135461
1574949859.503307,117145.333,20031,3,PI,1,100,135195
1574949859.541603,117177.667,20031,3,PI,1,100,135212
1574949859.579899,117210.000,20031,3,PI,1,100,135267
1574949859.618590,117242.667,20049,3,PI,1,100,135359
1574949859.657280,117275.333,20049,3,PI,1,100,135400
1574949859.695971,117308.000,20049,3,PI,1,100,135367
1574949859.736636,117342.333,20067,3,PI,1,100,135330
1574949859.777301,117376.667,20067,3,PI,1,100,135284
1574949859.817965,117411.000,20067,3,PI,1,100,135301
1574949859.862578,117448.667,20083,3,PI,1,100,135388
1574949859.907191,117486.333,20083,3,PI,1,100,135436
1574949859.951803,117524.000,20083,3,PI,1,100,135501
1574949859.993258,117559.000,20102,2,PI,1,100,135540
1574949860.034712,117594.000,20102,2,PI,1,100,135537
1574949860.072909,117626.250,20120,4,PI,1,100,135558
1574949860.111107,117658.500,20120,4,PI,1,100,135628
1574949860.149304,117690.750,20120,4,PI,1,100,135595
1574949860.187501,117723.000,20120,4,PI,1,100,135702
1574949860.225797,117755.333,20138,3,PI,1,100,135693
1574949860.264093,117787.667,20138,3,PI,1,100,135706
1574949860.302389,117820.000,20138,3,PI,1,100,135476
1574949860.342264,117853.667,20156,3,PI,1,100,135125
1574949860.382139,117887.333,20156,3,PI,1,100,135002
1574949860.422014,117921.000,20156,3,PI,1,100,135042
1574949860.463863,117956.333,20174,3,PI,1,100,135053
1574949860.505712,117991.667,20174,3,PI,1,100,135072
1574949860.547561,118027.000,20174,3,PI,1,100,135076
1574949860.589016,118062.000,20192,2,PI,1,100,135044
1574949860.630470,118097.000,20192,2,PI,1,100,135026
1574949860.669259,118129.750,20209,4,PI,1,100,135022
1574949860.708049,118162.500,20209,4,PI,1,100,134997
1574949860.746838,118195.250,20209,4,PI,1,100,135114
1574949860.785628,118228.000,20209,4,PI,1,100,135152
1574949860.823134,118259.667,20227,3,PI,1,100,135164
1574949860.860640,118291.333,20227,3,PI,1,100,135227
1574949860.898146,118323.000,20227,3,PI,1,100,135231
1574949860.938416,118357.000,20246,3,PI,1,100,135246
1574949860.978686,118391.000,20246,3,PI,1,100,135298
1574949861.018956,118425.000,20246,3,PI,1,100,135330
1574949861.060410,118460.000,20262,3,PI,1,100,135355
1574949861.101865,118495.000,20262,3,PI,1,100,135368
1574949861.143319,118530.000,20262,3,PI,1,100,135409
1574949861.184379,118564.667,20280,3,PI,1,100,135387
1574949861.225438,118599.333,20280,3,PI,1,100,135193
1574949861.266498,118634.000,20280,3,PI,1,100,134831
1574949861.305188,118666.667,20298,3,PI,1,100,134808
1574949861.343879,118699.333,20298,3,PI,1,100,134774
1574949861.382570,118732.000,20298,3,PI,1,100,134797
1574949861.419286,118763.000,20316,3,PI,1,100,134821
1574949861.456003,118794.000,20316,3,PI,1,100,134845
1574949861.492720,118825.000,20316,3,PI,1,100,134814
1574949861.532990,118859.000,20334,3,PI,1,100,134814
1574949861.573260,118893.000,20334,3,PI,1,100,134791
1574949861.613529,118927.000,20334,3,PI,1,100,134812
1574949861.654984,118962.000,20352,3,PI,1,100,134860
1574949861.696438,118997.000,20352,3,PI,1,100,134900
1574949861.737892,119032.000,20352,3,PI,1,100,134937
1574949861.779742,119067.333,20370,3,PI,1,100,135018
1574949861.821591,119102.667,20370,3,PI,1,100,135023
1574949861.863440,119138.000,20370,3,PI,1,100,135098
1574949861.901736,119170.333,20388,3,PI,1,100,135086
1574949861.940032,119202.667,20388,3,PI,1,100,135108
1574949861.978328,119235.000,20388,3,PI,1,100,135156
1574949862.020571,119270.667,20406,3,PI,1,100,135190
1574949862.062815,119306.333,20406,3,PI,1,100,135249
1574949862.105059,119342.000,20406,3,PI,1,100,135256
1574949862.143355,119374.333,20422,3,PI,1,100,135331
1574949862.181651,119406.667,20422,3,PI,1,100,135371
1574949862.219947,119439.000,20422,3,PI,1,100,135390
1574949862.263770,119476.000,20440,2,PI,1,100,135205
1574949862.307593,119513.000,20440,2,PI,1,100,134897
1574949862.344606,119544.250,20458,4,PI,1,100,134777
1574949862.381619,119575.500,20458,4,PI,1,100,134831
1574949862.418632,119606.750,20458,4,PI,1,100,134913
1574949862.455644,119638.000,20458,4,PI,1,100,134940
1574949862.501836,119677.000,20476,2,PI,1,100,134979
1574949862.548028,119716.000,20476,2,PI,1,100,134951
1574949862.585929,119748.000,20494,4,PI,1,100,134896
1574949862.623830,119780.000,20494,4,PI,1,100,134924
1574949862.661731,119812.000,20494,4,PI,1,100,134908
1574949862.699633,119844.000,20494,4,PI,1,100,134979
1574949862.737928,119876.333,20512,3,PI,1,100,135030
1574949862.776224,119908.667,20512,3,PI,1,100,135072
1574949862.814520,119941.000,20512,3,PI,1,100,135150
1574949862.856369,119976.333,20530,3,PI,1,100,135156
1574949862.898218,120011.667,20530,3,PI,1,100,135182
1574949862.940068,120047.000,20530,3,PI,1,100,135193
1574949862.976784,120078.000,20549,3,PI,1,100,135183
1574949863.013501,120109.000,20549,3,PI,1,100,135280
1574949863.050218,120140.000,20549,3,PI,1,100,135275
1574949863.089698,120173.333,20566,3,PI,1,100,135318
1574949863.129178,120206.667,20566,3,PI,1,100,135347
1574949863.168658,120240.000,20566,3,PI,1,100,135355
1574949863.207744,120273.000,20584,3,PI,1,100,135455
1574949863.246830,120306.000,20584,3,PI,1,100,135446
1574949863.285915,120339.000,20584,3,PI,1,100,135555
1574949863.327369,120374.000,20602,3,PI,1,100,135393
1574949863.368824,120409.000,20602,3,PI,1,100,135075
1574949863.410278,120444.000,20602,3,PI,1,100,134934
1574949863.451732,120479.000,20618,3,PI,1,100,134964
1574949863.493187,120514.000,20618,3,PI,1,100,135058
1574949863.534641,120549.000,20618,3,PI,1,100,135167
1574949863.576095,120584.000,20636,3,PI,1,100,135222
1574949863.617550,120619.000,20636,3,PI,1,100,135200
1574949863.659004,120654.000,20636,3,PI,1,100,135108
1574949863.701051,120689.500,20654,2,PI,1,100,135067
1574949863.743097,120725.000,20654,2,PI,1,100,135111
1574949863.781590,120757.500,20672,4,PI,1,100,135174
1574949863.820084,120790.000,20672,4,PI,1,100,135234
1574949863.858577,120822.500,20672,4,PI,1,100,135271
1574949863.897070,120855.000,20672,4,PI,1,100,135292
1574949863.935366,120887.333,20691,3,PI,1,100,135370
1574949863.973662,120919.667,20691,3,PI,1,100,135391
1574949864.011958,120952.000,20691,3,PI,1,100,135410
1574949864.051438,120985.333,20709,3,PI,1,100,135449
1574949864.090919,121018.667,20709,3,PI,1,100,135454
1574949864.130399,121052.000,20709,3,PI,1,100,135484
1574949864.171458,121086.667,20726,3,PI,1,100,135517
1574949864.212518,121121.333,20726,3,PI,1,100,135560
1574949864.253577,121156.000,20726,3,PI,1,100,135607
1574949864.300954,121196.000,20744,2,PI,1,100,135660
1574949864.348330,121236.000,20744,2,PI,1,100,135717
1574949864.387415,121269.000,20760,3,PI,1,100,135625
1574949864.426501,121302.000,20760,3,PI,1,100,135274
1574949864.465586,121335.000,20760,3,PI,1,100,134990
1574949864.503488,121367.000,20778,4,PI,1,100,134971
1574949864.541389,121399.000,20778,4,PI,1,100,134992
1574949864.579290,121431.000,20778,4,PI,1,100,135116
1574949864.617191,121463.000,20778,4,PI,1,100,135128
1574949864.657461,121497.000,20796,2,PI,1,100,135133
1574949864.697731,121531.000,20796,2,PI,1,100,135063
1574949864.738711,121565.600,20817,5,PI,1,100,135017
1574949864.779692,121600.200,20817,5,PI,1,100,134995
1574949864.820672,121634.800,20817,5,PI,1,100,135067
1574949864.861653,121669.400,20817,5,PI,1,100,135095
1574949864.902633,121704.000,20817,5,PI,1,100,135162
1574949864.944088,121739.000,20838,3,PI,1,100,135198
1574949864.985542,121774.000,20838,3,PI,1,100,135217
1574949865.026996,121809.000,20838,3,PI,1,100,135240
1574949865.064503,121840.667,20856,3,PI,1,100,135267
1574949865.102009,121872.333,20856,3,PI,1,100,135254
1574949865.139515,121904.000,20856,3,PI,1,100,135348
1574949865.177416,121936.000,20872,3,PI,1,100,135347
1574949865.215317,121968.000,20872,3,PI,1,100,135374
1574949865.253218,122000.000,20872,3,PI,1,100,135426
1574949865.293883,122034.333,20890,3,PI,1,100,135426
1574949865.334548,122068.667,20890,3,PI,1,100,135501
1574949865.375213,122103.000,20890,3,PI,1,100,135562
1574949865.415483,122137.000,20908,3,PI,1,100,135589
1574949865.455752,122171.000,20908,3,PI,1,100,135640
1574949865.496022,122205.000,20908,3,PI,1,100,135532
1574949865.537082,122239.667,20926,3,PI,1,100,135150
1574949865.578141,122274.333,20926,3,PI,1,100,134866
1574949865.619201,122309.000,20926,3,PI,1,100,134837
1574949865.657497,122341.333,20944,3,PI,1,100,134902
1574949865.695793,122373.667,20944,3,PI,1,100,134995
1574949865.734089,122406.000,20944,3,PI,1,100,134999
1574949865.771990,122438.000,20962,3,PI,1,100,134995
1574949865.809891,122470.000,20962,3,PI,1,100,134947
1574949865.847792,122502.000,20962,3,PI,1,100,134899
1574949865.889246,122537.000,20981,3,PI,1,100,134852
1574949865.930701,122572.000,20981,3,PI,1,100,134895
1574949865.972155,122607.000,20981,3,PI,1,100,134956
1574949866.010845,122639.667,20999,3,PI,1,100,135022
1574949866.049536,122672.333,20999,3,PI,1,100,135038
1574949866.088227,122705.000,20999,3,PI,1,100,135120
1574949866.125536,122736.500,21016,4,PI,1,100,135137
1574949866.162845,122768.000,21016,4,PI,1,100,135155
1574949866.200154,122799.500,21016,4,PI,1,100,135169
1574949866.237463,122831.000,21016,4,PI,1,100,135190
1574949866.283654,122870.000,21034,2,PI,1,100,135233
1574949866.329846,122909.000,21034,2,PI,1,100,135267
1574949866.366563,122940.000,21050,4,PI,1,100,135279
1574949866.403280,122971.000,21050,4,PI,1,100,135293
1574949866.439996,123002.000,21050,4,PI,1,100,135372
1574949866.476713,123033.000,21050,4,PI,1,100,135418
1574949866.524682,123073.500,21068,2,PI,1,100,135460
1574949866.572650,123114.000,21068,2,PI,1,100,135478
1574949866.608775,123144.500,21086,4,PI,1,100,135425
1574949866.644899,123175.000,21086,4,PI,1,100,135150
1574949866.681024,123205.500,21086,4,PI,1,100,134809
1574949866.717148,123236.000,21086,4,PI,1,100,134710
1574949866.757813,123270.333,21104,3,PI,1,100,134757
1574949866.798478,123304.667,21104,3,PI,1,100,134821
1574949866.839142,123339.000,21104,3,PI,1,100,134951
1574949866.880004,123373.500,21122,2,PI,1,100,134877
1574949866.920866,123408.000,21122,2,PI,1,100,134823
1574949866.962716,123443.333,21141,3,PI,1,100,134786
1574949867.004565,123478.667,21141,3,PI,1,100,134716
1574949867.046414,123514.000,21141,3,PI,1,100,134755
1574949867.085499,123547.000,21159,3,PI,1,100,134842
1574949867.124585,123580.000,21159,3,PI,1,100,134858
1574949867.163670,123613.000,21159,3,PI,1,100,134931
1574949867.204730,123647.667,21177,3,PI,1,100,134995
1574949867.245789,123682.333,21177,3,PI,1,100,134994
1574949867.286849,123717.000,21177,3,PI,1,100,134986
1574949867.324750,123749.000,21194,3,PI,1,100,135020
1574949867.362651,123781.000,21194,3,PI,1,100,135084
1574949867.400552,123813.000,21194,3,PI,1,100,135054
1574949867.439243,123845.667,21212,3,PI,1,100,135087
1574949867.477934,123878.333,21212,3,PI,1,100,135095
1574949867.516624,123911.000,21212,3,PI,1,100,135086
1574949867.556894,123945.000,21228,3,PI,1,100,135212
1574949867.597164,123979.000,21228,3,PI,1,100,135182
1574949867.637434,124013.000,21228,3,PI,1,100,135095
1574949867.678099,124047.333,21246,3,PI,1,100,134691
1574949867.718763,124081.667,21246,3,PI,1,100,134469
1574949867.759428,124116.000,21246,3,PI,1,100,134469
1574949867.800882,124151.000,21264,3,PI,1,100,134571
1574949867.842337,124186.000,21264,3,PI,1,100,134643
1574949867.883791,124221.000,21264,3,PI,1,100,134720
1574949867.925245,124256.000,21283,3,PI,1,100,134729
1574949867.966700,124291.000,21283,3,PI,1,100,134659
1574949868.008154,124326.000,21283,3,PI,1,100,134563
1574949868.046055,124358.000,21301,3,PI,1,100,134526
1574949868.083956,124390.000,21301,3,PI,1,100,134627
1574949868.121857,124422.000,21301,3,PI,1,100,134647
1574949868.162127,124456.000,21319,3,PI,1,100,134780
1574949868.202397,124490.000,21319,3,PI,1,100,134785
1574949868.242667,124524.000,21319,3,PI,1,100,134810
1574949868.283726,124558.667,21337,3,PI,1,100,134830
1574949868.324786,124593.333,21337,3,PI,1,100,134860
1574949868.365845,124628.000,21337,3,PI,1,100,134882
1574949868.406510,124662.333,21355,3,PI,1,100,134947
1574949868.447175,124696.667,21355,3,PI,1,100,134961
1574949868.487840,124731.000,21355,3,PI,1,100,135011
1574949868.526530,124763.667,21372,3,PI,1,100,135054
1574949868.565221,124796.333,21372,3,PI,1,100,135068
1574949868.603912,124829.000,21372,3,PI,1,100,135101
1574949868.641813,124861.000,21390,3,PI,1,100,134950
1574949868.679714,124893.000,21390,3,PI,1,100,134556
1574949868.717615,124925.000,21390,3,PI,1,100,134405
1574949868.757095,124958.333,21408,3,PI,1,100,134397
1574949868.796576,124991.667,21408,3,PI,1,100,134494
1574949868.836056,125025.000,21408,3,PI,1,100,134613
1574949868.877510,125060.000,21425,3,PI,1,100,134656
1574949868.918965,125095.000,21425,3,PI,1,100,134660
1574949868.960419,125130.000,21425,3,PI,1,100,134578
1574949869.001084,125164.333,21443,3,PI,1,100,134487
1574949869.041748,125198.667,21443,3,PI,1,100,134495
1574949869.082413,125233.000,21443,3,PI,1,100,134509
1574949869.121499,125266.000,21461,3,PI,1,100,134531
1574949869.160584,125299.000,21461,3,PI,1,100,134632
1574949869.199670,125332.000,21461,3,PI,1,100,134637
1574949869.237965,125364.333,21479,3,PI,1,100,134690
1574949869.276261,125396.667,21479,3,PI,1,100,134751
1574949869.314557,125429.000,21479,3,PI,1,100,134750
1574949869.353643,125462.000,21497,4,PI,1,100,134756
1574949869.392728,125495.000,21497,4,PI,1,100,134776
1574949869.431814,125528.000,21497,4,PI,1,100,134811
1574949869.470899,125561.000,21497,4,PI,1,100,134841
1574949869.512946,125596.500,21515,2,PI,1,100,134766
1574949869.554992,125632.000,21515,2,PI,1,100,134480
1574949869.596841,125667.333,21533,3,PI,1,100,134295
1574949869.638690,125702.667,21533,3,PI,1,100,134284
1574949869.680540,125738.000,21533,3,PI,1,100,134378
1574949869.721599,125772.667,21550,3,PI,1,100,134510
1574949869.762659,125807.333,21550,3,PI,1,100,134471
1574949869.803718,125842.000,21550,3,PI,1,100,134586
1574949869.845962,125877.667,21568,3,PI,1,100,134381
1574949869.888206,125913.333,21568,3,PI,1,100,134376
1574949869.930450,125949.000,21568,3,PI,1,100,134389
1574949869.971509,125983.667,21585,3,PI,1,100,134447
1574949870.012569,126018.333,21585,3,PI,1,100,134551
1574949870.053628,126053.000,21585,3,PI,1,100,134534
1574949870.096267,126089.000,21603,3,PI,1,100,134660
1574949870.138906,126125.000,21603,3,PI,1,100,134632
1574949870.181545,126161.000,21603,3,PI,1,100,134716
1574949870.219841,126193.333,21621,3,PI,1,100,134718
1574949870.258137,126225.667,21621,3,PI,1,100,134792
1574949870.296432,126258.000,21621,3,PI,1,100,134799
1574949870.338676,126293.667,21639,3,PI,1,100,134818
1574949870.380920,126329.333,21639,3,PI,1,100,134850
1574949870.423164,126365.000,21639,3,PI,1,100,134520
1574949870.464224,126399.667,21657,3,PI,1,100,134334
1574949870.505283,126434.333,21657,3,PI,1,100,134205
1574949870.546343,126469.000,21657,3,PI,1,100,134347
1574949870.586612,126503.000,21674,3,PI,1,100,134403
1574949870.626883,126537.000,21674,3,PI,1,100,134437
1574949870.667152,126571.000,21674,3,PI,1,100,134464
1574949870.705448,126603.333,21692,3,PI,1,100,134421
1574949870.743744,126635.667,21692,3,PI,1,100,134366
1574949870.782040,126668.000,21692,3,PI,1,100,134404
1574949870.824679,126704.000,21713,4,PI,1,100,134451
1574949870.867317,126740.000,21713,4,PI,1,100,134545
1574949870.909956,126776.000,21713,4,PI,1,100,134609
1574949870.952595,126812.000,21713,4,PI,1,100,134639
1574949870.990101,126843.667,21732,3,PI,1,100,134695
1574949871.027607,126875.333,21732,3,PI,1,100,134751
1574949871.065114,126907.000,21732,3,PI,1,100,134737
1574949871.105384,126941.000,21752,3,PI,1,100,134778
1574949871.145654,126975.000,21752,3,PI,1,100,134810
1574949871.185924,127009.000,21752,3,PI,1,100,134891
1574949871.226193,127043.000,21769,3,PI,1,100,134949
1574949871.266463,127077.000,21769,3,PI,1,100,135017
1574949871.306733,127111.000,21769,3,PI,1,100,134913
1574949871.348188,127146.000,21787,3,PI,1,100,134594
1574949871.389642,127181.000,21787,3,PI,1,100,134443
1574949871.431096,127216.000,21787,3,PI,1,100,134478
1574949871.472945,127251.333,21803,3,PI,1,100,134589
1574949871.514794,127286.667,21803,3,PI,1,100,134669
1574949871.556643,127322.000,21803,3,PI,1,100,134705
1574949871.594150,127353.667,21821,3,PI,1,100,134734
1574949871.631656,127385.333,21821,3,PI,1,100,134733
1574949871.669163,127417.000,21821,3,PI,1,100,134685
1574949871.709038,127450.667,21839,3,PI,1,100,134742
1574949871.748913,127484.333,21839,3,PI,1,100,134883
1574949871.788788,127518.000,21839,3,PI,1,100,134920
1574949871.829453,127552.333,21857,3,PI,1,100,135082
1574949871.870117,127586.667,21857,3,PI,1,100,135086
1574949871.910782,127621.000,21857,3,PI,1,100,135133
1574949871.951841,127655.667,21876,3,PI,1,100,135179
1574949871.992901,127690.333,21876,3,PI,1,100,135230
1574949872.033960,127725.000,21876,3,PI,1,100,135297
1574949872.073441,127758.333,21894,3,PI,1,100,135352
1574949872.112921,127791.667,21894,3,PI,1,100,135425
1574949872.152401,127825.000,21894,3,PI,1,100,135493
1574949872.189908,127856.667,21912,3,PI,1,100,135537
1574949872.227414,127888.333,21912,3,PI,1,100,135573
1574949872.264920,127920.000,21912,3,PI,1,100,135648
1574949872.305190,127954.000,21930,3,PI,1,100,135405
1574949872.345460,127988.000,21930,3,PI,1,100,135208
1574949872.385730,128022.000,21930,3,PI,1,100,135216
1574949872.426790,128056.667,21948,3,PI,1,100,135279
1574949872.467849,128091.333,21948,3,PI,1,100,135437
1574949872.508909,128126.000,21948,3,PI,1,100,135475
1574949872.549968,128160.667,21965,3,PI,1,100,135523
1574949872.591027,128195.333,21965,3,PI,1,100,135559
1574949872.632087,128230.000,21965,3,PI,1,100,135548
1574949872.671962,128263.667,21983,3,PI,1,100,135569
1574949872.711837,128297.333,21983,3,PI,1,100,135649
1574949872.751712,128331.000,21983,3,PI,1,100,135729
1574949872.788429,128362.000,21999,3,PI,1,100,135794
1574949872.825146,128393.000,21999,3,PI,1,100,135934
1574949872.861862,128424.000,21999,3,PI,1,100,135931
1574949872.901737,128457.667,22018,3,PI,1,100,136058
1574949872.941612,128491.333,22018,3,PI,1,100,136085
1574949872.981488,128525.000,22018,3,PI,1,100,136108
1574949873.021758,128559.000,22036,3,PI,1,100,136169
1574949873.062027,128593.000,22036,3,PI,1,100,136234
1574949873.102297,128627.000,22036,3,PI,1,100,136278
1574949873.142962,128661.333,22054,3,PI,1,100,136348
1574949873.183627,128695.667,22054,3,PI,1,100,136402
1574949873.224292,128730.000,22054,3,PI,1,100,136456
1574949873.265746,128765.000,22072,3,PI,1,100,136505
1574949873.307200,128800.000,22072,3,PI,1,100,136563
1574949873.348655,128835.000,22072,3,PI,1,100,136474
1574949873.386161,128866.667,22090,3,PI,1,100,136157
1574949873.423667,128898.333,22090,3,PI,1,100,135945
1574949873.461173,128930.000,22090,3,PI,1,100,136019
1574949873.501443,128964.000,22108,3,PI,1,100,136110
1574949873.541713,128998.000,22108,3,PI,1,100,136200
1574949873.581983,129032.000,22108,3,PI,1,100,136277
1574949873.619884,129064.000,22126,3,PI,1,100,136287
1574949873.657785,129096.000,22126,3,PI,1,100,136234
1574949873.695686,129128.000,22126,3,PI,1,100,136195
1574949873.734772,129161.000,22143,3,PI,1,100,136212
1574949873.773857,129194.000,22143,3,PI,1,100,136277
1574949873.812943,129227.000,22143,3,PI,1,100,136378
1574949873.852028,129260.000,22161,3,PI,1,100,136447
1574949873.891114,129293.000,22161,3,PI,1,100,136503
1574949873.930199,129326.000,22161,3,PI,1,100,136542
1574949873.966126,129356.333,22180,3,PI,1,100,136575
1574949874.002053,129386.667,22180,3,PI,1,100,136604
1574949874.037981,129417.000,22180,3,PI,1,100,136630
1574949874.077954,129450.750,22196,4,PI,1,100,136667
1574949874.117928,129484.500,22196,4,PI,1,100,136690
1574949874.157902,129518.250,22196,4,PI,1,100,136741
1574949874.197876,129552.000,22196,4,PI,1,100,136807
1574949874.235382,129583.667,22214,3,PI,1,100,136814
1574949874.272888,129615.333,22214,3,PI,1,100,136881
1574949874.310395,129647.000,22214,3,PI,1,100,136912
1574949874.354613,129684.333,22232,3,PI,1,100,136988
1574949874.398830,129721.667,22232,3,PI,1,100,136869
1574949874.443048,129759.000,22232,3,PI,1,100,136474
1574949874.483911,129793.500,22250,2,PI,1,100,136243
1574949874.524773,129828.000,22250,2,PI,1,100,136251
1574949874.562970,129860.250,22268,4,PI,1,100,136346
1574949874.601167,129892.500,22268,4,PI,1,100,136463
1574949874.639364,129924.750,22268,4,PI,1,100,136524
1574949874.677562,129957.000,22268,4,PI,1,100,136498
1574949874.719016,129992.000,22286,3,PI,1,100,136387
1574949874.760470,130027.000,22286,3,PI,1,100,136345
1574949874.801924,130062.000,22286,3,PI,1,100,136304
1574949874.842787,130096.500,22304,2,PI,1,100,136387
1574949874.883649,130131.000,22304,2,PI,1,100,136476
1574949874.923326,130164.500,22322,4,PI,1,100,136497
1574949874.963004,130198.000,22322,4,PI,1,100,136555
1574949875.002682,130231.500,22322,4,PI,1,100,136584
1574949875.042359,130265.000,22322,4,PI,1,100,136602
1574949875.086183,130302.000,22340,2,PI,1,100,136638
1574949875.130006,130339.000,22340,2,PI,1,100,136644
1574949875.166130,130369.500,22357,4,PI,1,100,136659
1574949875.202255,130400.000,22357,4,PI,1,100,136663
1574949875.238379,130430.500,22357,4,PI,1,100,136714
1574949875.274504,130461.000,22357,4,PI,1,100,136763
1574949875.313194,130493.667,22374,3,PI,1,100,136801
1574949875.351885,130526.333,22374,3,PI,1,100,136848
1574949875.390576,130559.000,22374,3,PI,1,100,136779
1574949875.429661,130592.000,22392,3,PI,1,100,136428
1574949875.468747,130625.000,22392,3,PI,1,100,136197
1574949875.507832,130658.000,22392,3,PI,1,100,136085
1574949875.548892,130692.667,22410,3,PI,1,100,136209
1574949875.589951,130727.333,22410,3,PI,1,100,136306
1574949875.631011,130762.000,22410,3,PI,1,100,136357
1574949875.672860,130797.333,22428,3,PI,1,100,136381
1574949875.714709,130832.667,22428,3,PI,1,100,136283
1574949875.756558,130868.000,22428,3,PI,1,100,136186
1574949875.800381,130905.000,22446,2,PI,1,100,136189
1574949875.844204,130942.000,22446,2,PI,1,100,136229
1574949875.881809,130973.750,22465,4,PI,1,100,136300
1574949875.919414,131005.500,22465,4,PI,1,100,136363
1574949875.957019,131037.250,22465,4,PI,1,100,136379
1574949875.994624,131069.000,22465,4,PI,1,100,136461
1574949876.034499,131102.667,22483,3,PI,1,100,136445
1574949876.074374,131136.333,22483,3,PI,1,100,136521
1574949876.114250,131170.000,22483,3,PI,1,100,136557
1574949876.155309,131204.667,22501,3,PI,1,100,136541
1574949876.196369,131239.333,22501,3,PI,1,100,136578
1574949876.237428,131274.000,22501,3,PI,1,100,136609
1574949876.278883,131309.000,22518,2,PI,1,100,136638
1574949876.320337,131344.000,22518,2,PI,1,100,136716
1574949876.359718,131377.250,22536,4,PI,1,100,136765
1574949876.399100,131410.500,22536,4,PI,1,100,136537
1574949876.438482,131443.750,22536,4,PI,1,100,136130
1574949876.477863,131477.000,22536,4,PI,1,100,135907
1574949876.515764,131509.000,22552,3,PI,1,100,135935
1574949876.553665,131541.000,22552,3,PI,1,100,136067
1574949876.591567,131573.000,22552,3,PI,1,100,136083
1574949876.631442,131606.667,22570,3,PI,1,100,136174
1574949876.671317,131640.333,22570,3,PI,1,100,136129
1574949876.711192,131674.000,22570,3,PI,1,100,136055
1574949876.751857,131708.333,22588,3,PI,1,100,136025
1574949876.792521,131742.667,22588,3,PI,1,100,136064
1574949876.833186,131777.000,22588,3,PI,1,100,136124
1574949876.873752,131811.250,22610,4,PI,1,100,136215
1574949876.914318,131845.500,22610,4,PI,1,100,136289
1574949876.954884,131879.750,22610,4,PI,1,100,136333
1574949876.995450,131914.000,22610,4,PI,1,100,136366
1574949877.034141,131946.667,22628,3,PI,1,100,136382
1574949877.072831,131979.333,22628,3,PI,1,100,136463
1574949877.111522,132012.000,22628,3,PI,1,100,136486
1574949877.149127,132043.750,22646,4,PI,1,100,136536
1574949877.186732,132075.500,22646,4,PI,1,100,136606
1574949877.224337,132107.250,22646,4,PI,1,100,136629
1574949877.261942,132139.000,22646,4,PI,1,100,136692
1574949877.302212,132173.000,22664,3,PI,1,100,136748
1574949877.342482,132207.000,22664,3,PI,1,100,136803
1574949877.382752,132241.000,22664,3,PI,1,100,136746
1574949877.425983,132277.500,22680,2,PI,1,100,136353
1574949877.469214,132314.000,22680,2,PI,1,100,136141
1574949877.509878,132348.333,22698,3,PI,1,100,136168
1574949877.550543,132382.667,22698,3,PI,1,100,136238
1574949877.591208,132417.000,22698,3,PI,1,100,136303
1574949877.633847,132453.000,22716,3,PI,1,100,136372
1574949877.676485,132489.000,22716,3,PI,1,100,136387
1574949877.719124,132525.000,22716,3,PI,1,100,136321
1574949877.760183,132559.667,22734,3,PI,1,100,136241
1574949877.801243,132594.333,22734,3,PI,1,100,136310
1574949877.842303,132629.000,22734,3,PI,1,100,136310
1574949877.884546,132664.667,22753,3,PI,1,100,136390
1574949877.926790,132700.333,22753,3,PI,1,100,136328
1574949877.969034,132736.000,22753,3,PI,1,100,136085
1574949878.010883,132771.333,22770,3,PI,1,100,135854
1574949878.052732,132806.667,22770,3,PI,1,100,135842
1574949878.094582,132842.000,22770,3,PI,1,100,135968
1574949878.132878,132874.333,22788,3,PI,1,100,136170
1574949878.171173,132906.667,22788,3,PI,1,100,136439
1574949878.209469,132939.000,22788,3,PI,1,100,136407
1574949878.250529,132973.667,22804,3,PI,1,100,136374
1574949878.291588,133008.333,22804,3,PI,1,100,136321
1574949878.332648,133043.000,22804,3,PI,1,100,136388
1574949878.374497,133078.333,22822,3,PI,1,100,136222
1574949878.416346,133113.667,22822,3,PI,1,100,135993
1574949878.458195,133149.000,22822,3,PI,1,100,135884
1574949878.497281,133182.000,22840,3,PI,1,100,135893
1574949878.536366,133215.000,22840,3,PI,1,100,136006
1574949878.575452,133248.000,22840,3,PI,1,100,136165
1574949878.616511,133282.667,22858,3,PI,1,100,136256
1574949878.657571,133317.333,22858,3,PI,1,100,136129
1574949878.698630,133352.000,22858,3,PI,1,100,135972
1574949878.736531,133384.000,22876,3,PI,1,100,135990
1574949878.774432,133416.000,22876,3,PI,1,100,136094
1574949878.812334,133448.000,22876,3,PI,1,100,136255
1574949878.851024,133480.667,22894,3,PI,1,100,136427
1574949878.889715,133513.333,22894,3,PI,1,100,136375
1574949878.928406,133546.000,22894,3,PI,1,100,136231
1574949878.968281,133579.667,22913,3,PI,1,100,136174
1574949879.008156,133613.333,22913,3,PI,1,100,136242
1574949879.048031,133647.000,22913,3,PI,1,100,136500
1574949879.089090,133681.667,22930,3,PI,1,100,136544
1574949879.130150,133716.333,22930,3,PI,1,100,136557
1574949879.171209,133751.000,22930,3,PI,1,100,136420
1574949879.212664,133786.000,22948,3,PI,1,100,136361
1574949879.254118,133821.000,22948,3,PI,1,100,136372
1574949879.295572,133856.000,22948,3,PI,1,100,136253
1574949879.334066,133888.500,22964,2,PI,1,100,136092
1574949879.372559,133921.000,22964,2,PI,1,100,136043
1574949879.412533,133954.750,22982,4,PI,1,100,136033
1574949879.452507,133988.500,22982,4,PI,1,100,136064
1574949879.492480,134022.250,22982,4,PI,1,100,136157
1574949879.532454,134056.000,22982,4,PI,1,100,136249
1574949879.572724,134090.000,23000,3,PI,1,100,136262
1574949879.612994,134124.000,23000,3,PI,1,100,136118
1574949879.653264,134158.000,23000,3,PI,1,100,136188
1574949879.693929,134192.333,23018,3,PI,1,100,136325
1574949879.734593,134226.667,23018,3,PI,1,100,136433
1574949879.775258,134261.000,23018,3,PI,1,100,136592
1574949879.816120,134295.500,23036,2,PI,1,100,136677
1574949879.856982,134330.000,23036,2,PI,1,100,136751
1574949879.896660,134363.500,23055,4,PI,1,100,136809
1574949879.936338,134397.000,23055,4,PI,1,100,136833
1574949879.976015,134430.500,23055,4,PI,1,100,136815
1574949880.015693,134464.000,23055,4,PI,1,100,136834
1574949880.053594,134496.000,23073,3,PI,1,100,136850
1574949880.091495,134528.000,23073,3,PI,1,100,136937
1574949880.129396,134560.000,23073,3,PI,1,100,137010
1574949880.168877,134593.333,23091,3,PI,1,100,136772
1574949880.208357,134626.667,23091,3,PI,1,100,136699
1574949880.247837,134660.000,23091,3,PI,1,100,136700
1574949880.289292,134695.000,23108,3,PI,1,100,136785
1574949880.330746,134730.000,23108,3,PI,1,100,136863
1574949880.372200,134765.000,23108,3,PI,1,100,136969
1574949880.412865,134799.333,23126,3,PI,1,100,137055
1574949880.453530,134833.667,23126,3,PI,1,100,137024
1574949880.494194,134868.000,23126,3,PI,1,100,137008
1574949880.533280,134901.000,23142,3,PI,1,100,137065
1574949880.572365,134934.000,23142,3,PI,1,100,137102
1574949880.611451,134967.000,23142,3,PI,1,100,137191
1574949880.649352,134999.000,23160,3,PI,1,100,137394
1574949880.687253,135031.000,23160,3,PI,1,100,137442
1574949880.725154,135063.000,23160,3,PI,1,100,137582
1574949880.764240,135096.000,23178,3,PI,1,100,137648
1574949880.803325,135129.000,23178,3,PI,1,100,137702
1574949880.842411,135162.000,23178,3,PI,1,100,137827
1574949880.883470,135196.667,23197,3,PI,1,100,137934
1574949880.924530,135231.333,23197,3,PI,1,100,137983
1574949880.965589,135266.000,23197,3,PI,1,100,137799
1574949881.006254,135300.333,23215,3,PI,1,100,137602
1574949881.046919,135334.667,23215,3,PI,1,100,137601
1574949881.087583,135369.000,23215,3,PI,1,100,137653
1574949881.129432,135404.333,23233,3,PI,1,100,137732
1574949881.171282,135439.667,23233,3,PI,1,100,137849
1574949881.213131,135475.000,23233,3,PI,1,100,137877
1574949881.250637,135506.667,23251,3,PI,1,100,137978
1574949881.288143,135538.333,23251,3,PI,1,100,137986
1574949881.325649,135570.000,23251,3,PI,1,100,137991
1574949881.364735,135603.000,23269,3,PI,1,100,138061
1574949881.403821,135636.000,23269,3,PI,1,100,138165
1574949881.442906,135669.000,23269,3,PI,1,100,138276
1574949881.481202,135701.333,23286,3,PI,1,100,138353
1574949881.519498,135733.667,23286,3,PI,1,100,138482
1574949881.557794,135766.000,23286,3,PI,1,100,138594
1574949881.596484,135798.667,23304,3,PI,1,100,138666
1574949881.635175,135831.333,23304,3,PI,1,100,138777
1574949881.673866,135864.000,23304,3,PI,1,100,138840
1574949881.710188,135894.667,23322,3,PI,1,100,138919
1574949881.746510,135925.333,23322,3,PI,1,100,139078
1574949881.782831,135956.000,23322,3,PI,1,100,139103
1574949881.823496,135990.333,23340,3,PI,1,100,138887
1574949881.864161,136024.667,23340,3,PI,1,100,138787
1574949881.904825,136059.000,23340,3,PI,1,100,138765
1574949881.940950,136089.500,23357,4,PI,1,100,138835
1574949881.977074,136120.000,23357,4,PI,1,100,138884
1574949882.013199,136150.500,23357,4,PI,1,100,138913
1574949882.049324,136181.000,23357,4,PI,1,100,138990
1574949882.087817,136213.500,23375,2,PI,1,100,138995
1574949882.126310,136246.000,23375,2,PI,1,100,139037
1574949882.169343,136282.333,23393,3,PI,1,100,139074
1574949882.212377,136318.667,23393,3,PI,1,100,139101
1574949882.255411,136355.000,23393,3,PI,1,100,139154
1574949882.293608,136387.250,23411,4,PI,1,100,139220
1574949882.331805,136419.500,23411,4,PI,1,100,139325
1574949882.370002,136451.750,23411,4,PI,1,100,139365
1574949882.408199,136484.000,23411,4,PI,1,100,139430
1574949882.448469,136518.000,23429,3,PI,1,100,139491
1574949882.488739,136552.000,23429,3,PI,1,100,139503
1574949882.529009,136586.000,23429,3,PI,1,100,139628
1574949882.569279,136620.000,23447,2,PI,1,100,139587
1574949882.609549,136654.000,23447,2,PI,1,100,139724
1574949882.650609,136688.667,23465,3,PI,1,100,139735
1574949882.691668,136723.333,23465,3,PI,1,100,139863
1574949882.732728,136758.000,23465,3,PI,1,100,139983
1574949882.776551,136795.000,23483,3,PI,1,100,139840
1574949882.820374,136832.000,23483,3,PI,1,100,139687
1574949882.864197,136869.000,23483,3,PI,1,100,139624
1574949882.902098,136901.000,23502,5,PI,1,100,139621
1574949882.939999,136933.000,23502,5,PI,1,100,139624
1574949882.977900,136965.000,23502,5,PI,1,100,139648
1574949883.015801,136997.000,23502,5,PI,1,100,139709
1574949883.053702,137029.000,23502,5,PI,1,100,139719
1574949883.091604,137061.000,23524,3,PI,1,100,139691
1574949883.129504,137093.000,23524,3,PI,1,100,139644
1574949883.167406,137125.000,23524,3,PI,1,100,139615
1574949883.205702,137157.333,23542,3,PI,1,100,139712
1574949883.243997,137189.667,23542,3,PI,1,100,139688
1574949883.282293,137222.000,23542,3,PI,1,100,139812
1574949883.322958,137256.333,23560,3,PI,1,100,139812
1574949883.363623,137290.667,23560,3,PI,1,100,139833
1574949883.404287,137325.000,23560,3,PI,1,100,139849
1574949883.449295,137363.000,23578,3,PI,1,100,139872
1574949883.494303,137401.000,23578,3,PI,1,100,139887
1574949883.539310,137439.000,23578,3,PI,1,100,139909
1574949883.579975,137473.333,23595,3,PI,1,100,139923
1574949883.620640,137507.667,23595,3,PI,1,100,140035
1574949883.661304,137542.000,23595,3,PI,1,100,140102
1574949883.698416,137573.333,23613,3,PI,1,100,139862
1574949883.735527,137604.667,23613,3,PI,1,100,139560
1574949883.772639,137636.000,23613,3,PI,1,100,139402
1574949883.811329,137668.667,23631,3,PI,1,100,139421
1574949883.850020,137701.333,23631,3,PI,1,100,139347
1574949883.888711,137734.000,23631,3,PI,1,100,139333
1574949883.929770,137768.667,23648,3,PI,1,100,139299
1574949883.970830,137803.333,23648,3,PI,1,100,139235
1574949884.011889,137838.000,23648,3,PI,1,100,139163
1574949884.053344,137873.000,23666,3,PI,1,100,139127
1574949884.094798,137908.000,23666,3,PI,1,100,139102
1574949884.136252,137943.000,23666,3,PI,1,100,139081
1574949884.177312,137977.667,23684,3,PI,1,100,139079
1574949884.218371,138012.333,23684,3,PI,1,100,139151
1574949884.259431,138047.000,23684,3,PI,1,100,139147
1574949884.296937,138078.667,23702,3,PI,1,100,139155
1574949884.334443,138110.333,23702,3,PI,1,100,139172
1574949884.371950,138142.000,23702,3,PI,1,100,139141
1574949884.409851,138174.000,23720,3,PI,1,100,139192
1574949884.447752,138206.000,23720,3,PI,1,100,139192
1574949884.485653,138238.000,23720,3,PI,1,100,139158
1574949884.525923,138272.000,23738,3,PI,1,100,139227
1574949884.566193,138306.000,23738,3,PI,1,100,139321
1574949884.606463,138340.000,23738,3,PI,1,100,139164
1574949884.647522,138374.667,23756,3,PI,1,100,138752
1574949884.688582,138409.333,23756,3,PI,1,100,138488
1574949884.729641,138444.000,23756,3,PI,1,100,138397
1574949884.770701,138478.667,23773,3,PI,1,100,138366
1574949884.811760,138513.333,23773,3,PI,1,100,138370
1574949884.852820,138548.000,23773,3,PI,1,100,138357
1574949884.890326,138579.667,23792,3,PI,1,100,138290
1574949884.927832,138611.333,23792,3,PI,1,100,138224
1574949884.965338,138643.000,23792,3,PI,1,100,138163
1574949885.003634,138675.333,23810,3,PI,1,100,138131
1574949885.041930,138707.667,23810,3,PI,1,100,138154
1574949885.080226,138740.000,23810,3,PI,1,100,138174
1574949885.119707,138773.333,23826,3,PI,1,100,138195
1574949885.159187,138806.667,23826,3,PI,1,100,138200
1574949885.198667,138840.000,23826,3,PI,1,100,138234
1574949885.239332,138874.333,23844,3,PI,1,100,138259
1574949885.279997,138908.667,23844,3,PI,1,100,138269
1574949885.320661,138943.000,23844,3,PI,1,100,138250
1574949885.357773,138974.333,23862,3,PI,1,100,138247
1574949885.394884,139005.667,23862,3,PI,1,100,138299
1574949885.431996,139037.000,23862,3,PI,1,100,138360
1574949885.472661,139071.333,23880,3,PI,1,100,138279
1574949885.513325,139105.667,23880,3,PI,1,100,137948
1574949885.553990,139140.000,23880,3,PI,1,100,137726
1574949885.595049,139174.667,23898,3,PI,1,100,137666
1574949885.636109,139209.333,23898,3,PI,1,100,137697
1574949885.677168,139244.000,23898,3,PI,1,100,137803
1574949885.719412,139279.667,23916,3,PI,1,100,137826
1574949885.761656,139315.333,23916,3,PI,1,100,137805
1574949885.803900,139351.000,23916,3,PI,1,100,137708
1574949885.845355,139386.000,23935,3,PI,1,100,137726
1574949885.886809,139421.000,23935,3,PI,1,100,137674
1574949885.928263,139456.000,23935,3,PI,1,100,137694
1574949885.964980,139487.000,23952,3,PI,1,100,137756
1574949886.001697,139518.000,23952,3,PI,1,100,137825
1574949886.038413,139549.000,23952,3,PI,1,100,137834
1574949886.080262,139584.333,23970,3,PI,1,100,137845
1574949886.122111,139619.667,23970,3,PI,1,100,137882
1574949886.163960,139655.000,23970,3,PI,1,100,137895
1574949886.209363,139693.333,23986,3,PI,1,100,137894
1574949886.254765,139731.667,23986,3,PI,1,100,137938
1574949886.300168,139770.000,23986,3,PI,1,100,137943
1574949886.337674,139801.667,24004,3,PI,1,100,137951
1574949886.375180,139833.333,24004,3,PI,1,100,137973
1574949886.412686,139865.000,24004,3,PI,1,100,137975
1574949886.454535,139900.333,24022,3,PI,1,100,137577
1574949886.496385,139935.667,24022,3,PI,1,100,137187
1574949886.538234,139971.000,24022,3,PI,1,100,137003
1574949886.575740,140002.667,24040,3,PI,1,100,136936
1574949886.613246,140034.333,24040,3,PI,1,100,137027
1574949886.650753,140066.000,24040,3,PI,1,100,136980
1574949886.689443,140098.667,24058,3,PI,1,100,137039
1574949886.728134,140131.333,24058,3,PI,1,100,136995
1574949886.766825,140164.000,24058,3,PI,1,100,136907
1574949886.805910,140197.000,24076,3,PI,1,100,136893
1574949886.844996,140230.000,24076,3,PI,1,100,136905
1574949886.884081,140263.000,24076,3,PI,1,100,136927
1574949886.925536,140298.000,24095,3,PI,1,100,136992
1574949886.966990,140333.000,24095,3,PI,1,100,137038
1574949887.008444,140368.000,24095,3,PI,1,100,137065
1574949887.049109,140402.333,24112,3,PI,1,100,137076
1574949887.089774,140436.667,24112,3,PI,1,100,137115
1574949887.130438,140471.000,24112,3,PI,1,100,137118
1574949887.171103,140505.333,24130,3,PI,1,100,137140
1574949887.211768,140539.667,24130,3,PI,1,100,137132
1574949887.252433,140574.000,24130,3,PI,1,100,137134
1574949887.293887,140609.000,24146,3,PI,1,100,137214
1574949887.335341,140644.000,24146,3,PI,1,100,137188
1574949887.376796,140679.000,24146,3,PI,1,100,137281
1574949887.414302,140710.667,24164,3,PI,1,100,137340
1574949887.451808,140742.333,24164,3,PI,1,100,137300
1574949887.489314,140774.000,24164,3,PI,1,100,136964
1574949887.528005,140806.667,24182,3,PI,1,100,136620
1574949887.566696,140839.333,24182,3,PI,1,100,136462
1574949887.605386,140872.000,24182,3,PI,1,100,136496
1574949887.649604,140909.333,24200,3,PI,1,100,136589
1574949887.693822,140946.667,24200,3,PI,1,100,136623
1574949887.738040,140984.000,24200,3,PI,1,100,136618
1574949887.778705,141018.333,24218,3,PI,1,100,136546
1574949887.819370,141052.667,24218,3,PI,1,100,136526
1574949887.860034,141087.000,24218,3,PI,1,100,136426
1574949887.902081,141122.500,24237,2,PI,1,100,136536
1574949887.944127,141158.000,24237,2,PI,1,100,136554
1574949887.982621,141190.500,24255,4,PI,1,100,136596
1574949888.021114,141223.000,24255,4,PI,1,100,136687
1574949888.059607,141255.500,24255,4,PI,1,100,136725
1574949888.098100,141288.000,24255,4,PI,1,100,136748
1574949888.136396,141320.333,24273,3,PI,1,100,136775
1574949888.174692,141352.667,24273,3,PI,1,100,136765
1574949888.212988,141385.000,24273,3,PI,1,100,136787
1574949888.253653,141419.333,24290,3,PI,1,100,136776
1574949888.294318,141453.667,24290,3,PI,1,100,136748
1574949888.334982,141488.000,24290,3,PI,1,100,136841
1574949888.375647,141522.333,24308,3,PI,1,100,136802
1574949888.416312,141556.667,24308,3,PI,1,100,136907
1574949888.456976,141591.000,24308,3,PI,1,100,136930
1574949888.498431,141626.000,24324,2,PI,1,100,136810
1574949888.539885,141661.000,24324,2,PI,1,100,136459
1574949888.578971,141694.000,24342,4,PI,1,100,136266
1574949888.618056,141727.000,24342,4,PI,1,100,136235
1574949888.657142,141760.000,24342,4,PI,1,100,136314
1574949888.696227,141793.000,24342,4,PI,1,100,136414
1574949888.733339,141824.333,24360,3,PI,1,100,136495
1574949888.770450,141855.667,24360,3,PI,1,100,136491
1574949888.807562,141887.000,24360,3,PI,1,100,136420
1574949888.847831,141921.000,24379,3,PI,1,100,136349
1574949888.888101,141955.000,24379,3,PI,1,100,136310
1574949888.928371,141989.000,24379,3,PI,1,100,136429
1574949888.969826,142024.000,24398,4,PI,1,100,136429
1574949889.011280,142059.000,24398,4,PI,1,100,136528
1574949889.052734,142094.000,24398,4,PI,1,100,136553
1574949889.094188,142129.000,24398,4,PI,1,100,136584
1574949889.135248,142163.667,24420,3,PI,1,100,136646
1574949889.176308,142198.333,24420,3,PI,1,100,136660
1574949889.217367,142233.000,24420,3,PI,1,100,136645
1574949889.259611,142268.667,24436,3,PI,1,100,136681
1574949889.301855,142304.333,24436,3,PI,1,100,136696
1574949889.344099,142340.000,24436,3,PI,1,100,136758
1574949889.382000,142372.000,24454,3,PI,1,100,136803
1574949889.419901,142404.000,24454,3,PI,1,100,136853
1574949889.457802,142436.000,24454,3,PI,1,100,136700
1574949889.500046,142471.667,24472,3,PI,1,100,136378
1574949889.542290,142507.333,24472,3,PI,1,100,136174
1574949889.584534,142543.000,24472,3,PI,1,100,136156
1574949889.625593,142577.667,24490,3,PI,1,100,136216
1574949889.666653,142612.333,24490,3,PI,1,100,136316
1574949889.707712,142647.000,24490,3,PI,1,100,136381
1574949889.749956,142682.667,24508,3,PI,1,100,136386
1574949889.792200,142718.333,24508,3,PI,1,100,136291
1574949889.834444,142754.000,24508,3,PI,1,100,136244
1574949889.875504,142788.667,24525,3,PI,1,100,136255
1574949889.916563,142823.333,24525,3,PI,1,100,136296
1574949889.957623,142858.000,24525,3,PI,1,100,136341
1574949889.999472,142893.333,24544,3,PI,1,100,136410
1574949890.041321,142928.667,24544,3,PI,1,100,136481
1574949890.083170,142964.000,24544,3,PI,1,100,136523
1574949890.120677,142995.667,24560,3,PI,1,100,136575
1574949890.158183,143027.333,24560,3,PI,1,100,136621
1574949890.195689,143059.000,24560,3,PI,1,100,136655
1574949890.233985,143091.333,24578,3,PI,1,100,136711
1574949890.272281,143123.667,24578,3,PI,1,100,136727
1574949890.310577,143156.000,24578,3,PI,1,100,136799
1574949890.356176,143194.500,24596,2,PI,1,100,136873
1574949890.401776,143233.000,24596,2,PI,1,100,136884
1574949890.443230,143268.000,24614,3,PI,1,100,136635
1574949890.484685,143303.000,24614,3,PI,1,100,136309
1574949890.526139,143338.000,24614,3,PI,1,100,136209
1574949890.564336,143370.250,24632,4,PI,1,100,136321
1574949890.602534,143402.500,24632,4,PI,1,100,136326
1574949890.640731,143434.750,24632,4,PI,1,100,136462
1574949890.678928,143467.000,24632,4,PI,1,100,136486
1574949890.720382,143502.000,24650,2,PI,1,100,136479
1574949890.761837,143537.000,24650,2,PI,1,100,136390
1574949890.803686,143572.333,24668,3,PI,1,100,136372
1574949890.845535,143607.667,24668,3,PI,1,100,136424
1574949890.887384,143643.000,24668,3,PI,1,100,136449
1574949890.925680,143675.333,24686,3,PI,1,100,136518
1574949890.963976,143707.667,24686,3,PI,1,100,136566
1574949891.002272,143740.000,24686,3,PI,1,100,136603
1574949891.043331,143774.667,24704,3,PI,1,100,136666
1574949891.084391,143809.333,24704,3,PI,1,100,136703
1574949891.125450,143844.000,24704,3,PI,1,100,136729
1574949891.165325,143877.667,24720,3,PI,1,100,136753
1574949891.205200,143911.333,24720,3,PI,1,100,136759
1574949891.245075,143945.000,24720,3,PI,1,100,136831
1574949891.285740,143979.333,24738,3,PI,1,100,136850
1574949891.326405,144013.667,24738,3,PI,1,100,136780
1574949891.367069,144048.000,24738,3,PI,1,100,136460
1574949891.407734,144082.333,24756,3,PI,1,100,136306
1574949891.448399,144116.667,24756,3,PI,1,100,136326
1574949891.489064,144151.000,24756,3,PI,1,100,136403
1574949891.528544,144184.333,24774,3,PI,1,100,136523
1574949891.568024,144217.667,24774,3,PI,1,100,136581
1574949891.607505,144251.000,24774,3,PI,1,100,136565
1574949891.645011,144282.667,24792,3,PI,1,100,136460
1574949891.682517,144314.333,24792,3,PI,1,100,136388
1574949891.720023,144346.000,24792,3,PI,1,100,136468
1574949891.759504,144379.333,24810,3,PI,1,100,136480
1574949891.798984,144412.667,24810,3,PI,1,100,136600
1574949891.838464,144446.000,24810,3,PI,1,100,136655
1574949891.879919,144481.000,24829,3,PI,1,100,136707
1574949891.921373,144516.000,24829,3,PI,1,100,136728
1574949891.962827,144551.000,24829,3,PI,1,100,136744
1574949892.003492,144585.333,24847,3,PI,1,100,136740
1574949892.044157,144619.667,24847,3,PI,1,100,136744
1574949892.084821,144654.000,24847,3,PI,1,100,136767
1574949892.124302,144687.333,24864,3,PI,1,100,136753
1574949892.163782,144720.667,24864,3,PI,1,100,136758
1574949892.203262,144754.000,24864,3,PI,1,100,136785
1574949892.241558,144786.333,24882,3,PI,1,100,136648
1574949892.279854,144818.667,24882,3,PI,1,100,136326
1574949892.318150,144851.000,24882,3,PI,1,100,136211
1574949892.356939,144883.750,24900,4,PI,1,100,136188
1574949892.395729,144916.500,24900,4,PI,1,100,136270
1574949892.434518,144949.250,24900,4,PI,1,100,136352
1574949892.473308,144982.000,24900,4,PI,1,100,136350
1574949892.514762,145017.000,24916,2,PI,1,100,136357
1574949892.556216,145052.000,24916,2,PI,1,100,136281
1574949892.596881,145086.333,24934,3,PI,1,100,136245
1574949892.637546,145120.667,24934,3,PI,1,100,136257
1574949892.678210,145155.000,24934,3,PI,1,100,136292
1574949892.718480,145189.000,24952,3,PI,1,100,136387
1574949892.758750,145223.000,24952,3,PI,1,100,136426
1574949892.799020,145257.000,24952,3,PI,1,100,136467
1574949892.837711,145289.667,24970,3,PI,1,100,136518
1574949892.876401,145322.333,24970,3,PI,1,100,136518
1574949892.915092,145355.000,24970,3,PI,1,100,136546
1574949892.953882,145387.750,24989,4,PI,1,100,136582
1574949892.992671,145420.500,24989,4,PI,1,100,136587
1574949893.031460,145453.250,24989,4,PI,1,100,136634
1574949893.070250,145486.000,24989,4,PI,1,100,136660
1574949893.108941,145518.667,25007,3,PI,1,100,136625
1574949893.147631,145551.333,25007,3,PI,1,100,136366
1574949893.186322,145584.000,25007,3,PI,1,100,136133
1574949893.225013,145616.667,25025,3,PI,1,100,136047
1574949893.263703,145649.333,25025,3,PI,1,100,136121
1574949893.302394,145682.000,25025,3,PI,1,100,136161
1574949893.338321,145712.333,25043,3,PI,1,100,136262
1574949893.374248,145742.667,25043,3,PI,1,100,136272
1574949893.410175,145773.000,25043,3,PI,1,100,136221
1574949893.451629,145808.000,25061,3,PI,1,100,136148
1574949893.493084,145843.000,25061,3,PI,1,100,136153
1574949893.534538,145878.000,25061,3,PI,1,100,136197
1574949893.570071,145908.000,25078,3,PI,1,100,136233
1574949893.605603,145938.000,25078,3,PI,1,100,136291
1574949893.641135,145968.000,25078,3,PI,1,100,136344
1574949893.681405,146002.000,25096,3,PI,1,100,136360
1574949893.721675,146036.000,25096,3,PI,1,100,136372
1574949893.761945,146070.000,25096,3,PI,1,100,136365
1574949893.799056,146101.333,25114,3,PI,1,100,136381
1574949893.836168,146132.667,25114,3,PI,1,100,136397
1574949893.873279,146164.000,25114,3,PI,1,100,136419
1574949893.911476,146196.250,25131,4,PI,1,100,136448
1574949893.949673,146228.500,25131,4,PI,1,100,136477
1574949893.987871,146260.750,25131,4,PI,1,100,136473
1574949894.026068,146293.000,25131,4,PI,1,100,136354
1574949894.066733,146327.333,25149,3,PI,1,100,135997
1574949894.107397,146361.667,25149,3,PI,1,100,136035
1574949894.148062,146396.000,25149,3,PI,1,100,136031
1574949894.188332,146430.000,25167,2,PI,1,100,136092
1574949894.228602,146464.000,25167,2,PI,1,100,136156
1574949894.274004,146502.333,25185,3,PI,1,100,136188
1574949894.319407,146540.667,25185,3,PI,1,100,136159
1574949894.364809,146579.000,25185,3,PI,1,100,136098
1574949894.403105,146611.333,25203,3,PI,1,100,136107
1574949894.441401,146643.667,25203,3,PI,1,100,136133
1574949894.479697,146676.000,25203,3,PI,1,100,136163
1574949894.517598,146708.000,25221,3,PI,1,100,136291
1574949894.555499,146740.000,25221,3,PI,1,100,136271
1574949894.593400,146772.000,25221,3,PI,1,100,136312
1574949894.631301,146804.000,25239,4,PI,1,100,136305
1574949894.669202,146836.000,25239,4,PI,1,100,136352
1574949894.707103,146868.000,25239,4,PI,1,100,136381
1574949894.745004,146900.000,25239,4,PI,1,100,136429
1574949894.783300,146932.333,25257,3,PI,1,100,136465
1574949894.821596,146964.667,25257,3,PI,1,100,136468
1574949894.859892,146997.000,25257,3,PI,1,100,136521
1574949894.900162,147031.000,25275,3,PI,1,100,136536
1574949894.940432,147065.000,25275,3,PI,1,100,136380
1574949894.980702,147099.000,25275,3,PI,1,100,136107
1574949895.024525,147136.000,25296,4,PI,1,100,135996
1574949895.068348,147173.000,25296,4,PI,1,100,136054
1574949895.112171,147210.000,25296,4,PI,1,100,136095
1574949895.155994,147247.000,25296,4,PI,1,100,136136
1574949895.195869,147280.667,25316,3,PI,1,100,136156
1574949895.235744,147314.333,25316,3,PI,1,100,136160
1574949895.275620,147348.000,25316,3,PI,1,100,136149
1574949895.313126,147379.667,25334,3,PI,1,100,136099
1574949895.350632,147411.333,25334,3,PI,1,100,136121
1574949895.388138,147443.000,25334,3,PI,1,100,136205
1574949895.428013,147476.667,25352,3,PI,1,100,136253
1574949895.467889,147510.333,25352,3,PI,1,100,136300
1574949895.507764,147544.000,25352,3,PI,1,100,136344
1574949895.548823,147578.667,25370,3,PI,1,100,136361
1574949895.589883,147613.333,25370,3,PI,1,100,136351
1574949895.630942,147648.000,25370,3,PI,1,100,136349
1574949895.672002,147682.667,25387,3,PI,1,100,136458
1574949895.713061,147717.333,25387,3,PI,1,100,136414
1574949895.754121,147752.000,25387,3,PI,1,100,136565
1574949895.794391,147786.000,25405,3,PI,1,100,136541
1574949895.834661,147820.000,25405,3,PI,1,100,136587
1574949895.874930,147854.000,25405,3,PI,1,100,136674
1574949895.912437,147885.667,25422,3,PI,1,100,136672
1574949895.949943,147917.333,25422,3,PI,1,100,136429
1574949895.987449,147949.000,25422,3,PI,1,100,136222
1574949896.026535,147982.000,25440,3,PI,1,100,136218
1574949896.065620,148015.000,25440,3,PI,1,100,136279
1574949896.104706,148048.000,25440,3,PI,1,100,136293
1574949896.144581,148081.667,25458,3,PI,1,100,136331
1574949896.184456,148115.333,25458,3,PI,1,100,136271
1574949896.224331,148149.000,25458,3,PI,1,100,136272
1574949896.264996,148183.333,25476,3,PI,1,100,136253
1574949896.305660,148217.667,25476,3,PI,1,100,136235
1574949896.346325,148252.000,25476,3,PI,1,100,136284
1574949896.388174,148287.333,25494,3,PI,1,100,136353
1574949896.430023,148322.667,25494,3,PI,1,100,136399
1574949896.471873,148358.000,25494,3,PI,1,100,136435
1574949896.508589,148389.000,25512,3,PI,1,100,136474
1574949896.545306,148420.000,25512,3,PI,1,100,136501
1574949896.582023,148451.000,25512,3,PI,1,100,136476
1574949896.622687,148485.333,25530,3,PI,1,100,136478
1574949896.663352,148519.667,25530,3,PI,1,100,136560
1574949896.704017,148554.000,25530,3,PI,1,100,136503
1574949896.741128,148585.333,25548,3,PI,1,100,136634
1574949896.778240,148616.667,25548,3,PI,1,100,136575
1574949896.815351,148648.000,25548,3,PI,1,100,136685
1574949896.854831,148681.333,25566,3,PI,1,100,136687
1574949896.894312,148714.667,25566,3,PI,1,100,136716
1574949896.933792,148748.000,25566,3,PI,1,100,136394
1574949896.972088,148780.333,25584,3,PI,1,100,136246
1574949897.010384,148812.667,25584,3,PI,1,100,136176
1574949897.048680,148845.000,25584,3,PI,1,100,136290
1574949897.085397,148876.000,25602,4,PI,1,100,136319
1574949897.122113,148907.000,25602,4,PI,1,100,136377
1574949897.158830,148938.000,25602,4,PI,1,100,136353
1574949897.195547,148969.000,25602,4,PI,1,100,136311
1574949897.238580,149005.333,25620,3,PI,1,100,136315
1574949897.281614,149041.667,25620,3,PI,1,100,136283
1574949897.324647,149078.000,25620,3,PI,1,100,136348
1574949897.365707,149112.667,25636,3,PI,1,100,136409
1574949897.406766,149147.333,25636,3,PI,1,100,136432
1574949897.447826,149182.000,25636,3,PI,1,100,136472
1574949897.485727,149214.000,25654,3,PI,1,100,136499
1574949897.523628,149246.000,25654,3,PI,1,100,136478
1574949897.561529,149278.000,25654,3,PI,1,100,136510
1574949897.607721,149317.000,25672,2,PI,1,100,136541
1574949897.653913,149356.000,25672,2,PI,1,100,136549
1574949897.692110,149388.250,25690,4,PI,1,100,136565
1574949897.730307,149420.500,25690,4,PI,1,100,136576
1574949897.768504,149452.750,25690,4,PI,1,100,136629
1574949897.806702,149485.000,25690,4,PI,1,100,136677
1574949897.848748,149520.500,25709,2,PI,1,100,136721
1574949897.890795,149556.000,25709,2,PI,1,100,136745
1574949897.931459,149590.333,25727,3,PI,1,100,136589
1574949897.972124,149624.667,25727,3,PI,1,100,136359
1574949898.012789,149659.000,25727,3,PI,1,100,136123
1574949898.053453,149693.333,25744,3,PI,1,100,136266
1574949898.094118,149727.667,25744,3,PI,1,100,136311
1574949898.134783,149762.000,25744,3,PI,1,100,136369
1574949898.173079,149794.333,25762,3,PI,1,100,136400
1574949898.211375,149826.667,25762,3,PI,1,100,136396
1574949898.249671,149859.000,25762,3,PI,1,100,136375
1574949898.288460,149891.750,25778,4,PI,1,100,136331
1574949898.327250,149924.500,25778,4,PI,1,100,136346
1574949898.366039,149957.250,25778,4,PI,1,100,136402
1574949898.404828,149990.000,25778,4,PI,1,100,136469
1574949898.442729,150022.000,25796,3,PI,1,100,136511
1574949898.480630,150054.000,25796,3,PI,1,100,136539
1574949898.518532,150086.000,25796,3,PI,1,100,136559
1574949898.557617,150119.000,25814,3,PI,1,100,136579
1574949898.596703,150152.000,25814,3,PI,1,100,136593
1574949898.635788,150185.000,25814,3,PI,1,100,136606
1574949898.676847,150219.667,25832,3,PI,1,100,136628
1574949898.717907,150254.333,25832,3,PI,1,100,136675
1574949898.758966,150289.000,25832,3,PI,1,100,136683
1574949898.800421,150324.000,25850,3,PI,1,100,136750
1574949898.841875,150359.000,25850,3,PI,1,100,136759
1574949898.883329,150394.000,25850,3,PI,1,100,136805
1574949898.928337,150432.000,25869,2,PI,1,100,136886
1574949898.973345,150470.000,25869,2,PI,1,100,136775
1574949899.010950,150501.750,25887,4,PI,1,100,136495
1574949899.048554,150533.500,25887,4,PI,1,100,136289
1574949899.086159,150565.250,25887,4,PI,1,100,136266
1574949899.123765,150597.000,25887,4,PI,1,100,136407
1574949899.163245,150630.333,25905,3,PI,1,100,136454
1574949899.202725,150663.667,25905,3,PI,1,100,136586
1574949899.242205,150697.000,25905,3,PI,1,100,136531
1574949899.283067,150731.500,25923,2,PI,1,100,136426
1574949899.323930,150766.000,25923,2,PI,1,100,136389
1574949899.365384,150801.000,25940,3,PI,1,100,136396
1574949899.406838,150836.000,25940,3,PI,1,100,136438
1574949899.448292,150871.000,25940,3,PI,1,100,136529
1574949899.488957,150905.333,25958,3,PI,1,100,136578
1574949899.529622,150939.667,25958,3,PI,1,100,136560
1574949899.570287,150974.000,25958,3,PI,1,100,136532
1574949899.607892,151005.750,25974,4,PI,1,100,136612
1574949899.645497,151037.500,25974,4,PI,1,100,136626
1574949899.683102,151069.250,25974,4,PI,1,100,136733
1574949899.720707,151101.000,25974,4,PI,1,100,136677
1574949899.759792,151134.000,25992,3,PI,1,100,136647
1574949899.798878,151167.000,25992,3,PI,1,100,136694
1574949899.837963,151200.000,25992,3,PI,1,100,136766
1574949899.879023,151234.667,26011,3,PI,1,100,136821
1574949899.920082,151269.333,26011,3,PI,1,100,136767
1574949899.961142,151304.000,26011,3,PI,1,100,136400
1574949900.002596,151339.000,26029,2,PI,1,100,136142
1574949900.044050,151374.000,26029,2,PI,1,100,136123
1574949900.085110,151408.667,26047,3,PI,1,100,136197
1574949900.126169,151443.333,26047,3,PI,1,100,136277
1574949900.167229,151478.000,26047,3,PI,1,100,136303
1574949900.204538,151509.500,26065,4,PI,1,100,136345
1574949900.241847,151541.000,26065,4,PI,1,100,136235
1574949900.279155,151572.500,26065,4,PI,1,100,136197
1574949900.316464,151604.000,26065,4,PI,1,100,136189
1574949900.355155,151636.667,26083,3,PI,1,100,136246
1574949900.393846,151669.333,26083,3,PI,1,100,136332
1574949900.432537,151702.000,26083,3,PI,1,100,136384
1574949900.474781,151737.667,26101,3,PI,1,100,136394
1574949900.517024,151773.333,26101,3,PI,1,100,136403
1574949900.559268,151809.000,26101,3,PI,1,100,136423
1574949900.600130,151843.500,26118,2,PI,1,100,136473
1574949900.640992,151878.000,26118,2,PI,1,100,136441
1574949900.682052,151912.667,26136,3,PI,1,100,136541
1574949900.723112,151947.333,26136,3,PI,1,100,136508
1574949900.764171,151982.000,26136,3,PI,1,100,136570
1574949900.806415,152017.667,26153,3,PI,1,100,136577
1574949900.848659,152053.333,26153,3,PI,1,100,136689
1574949900.890903,152089.000,26153,3,PI,1,100,136663
1574949900.932357,152124.000,26171,3,PI,1,100,136422
1574949900.973811,152159.000,26171,3,PI,1,100,136091
1574949901.015266,152194.000,26171,3,PI,1,100,136025
1574949901.056720,152229.000,26192,5,PI,1,100,136023
1574949901.098174,152264.000,26192,5,PI,1,100,136093
1574949901.139629,152299.000,26192,5,PI,1,100,136141
1574949901.181083,152334.000,26192,5,PI,1,100,136193
1574949901.222537,152369.000,26192,5,PI,1,100,136128
1574949901.260833,152401.333,26212,3,PI,1,100,136055
1574949901.299129,152433.667,26212,3,PI,1,100,136025
1574949901.337425,152466.000,26212,3,PI,1,100,136055
1574949901.378484,152500.667,26228,3,PI,1,100,136114
1574949901.419544,152535.333,26228,3,PI,1,100,136165
1574949901.460603,152570.000,26228,3,PI,1,100,136197
1574949901.502058,152605.000,26246,2,PI,1,100,136233
1574949901.543512,152640.000,26246,2,PI,1,100,136280
1574949901.587335,152677.000,26264,3,PI,1,100,136282
1574949901.631159,152714.000,26264,3,PI,1,100,136278
1574949901.674982,152751.000,26264,3,PI,1,100,136296
1574949901.712093,152782.333,26282,3,PI,1,100,136253
1574949901.749205,152813.667,26282,3,PI,1,100,136376
1574949901.786316,152845.000,26282,3,PI,1,100,136386
1574949901.826586,152879.000,26301,3,PI,1,100,136392
1574949901.866856,152913.000,26301,3,PI,1,100,136395
1574949901.907126,152947.000,26301,3,PI,1,100,136402
1574949901.945027,152979.000,26319,4,PI,1,100,136077
1574949901.982928,153011.000,26319,4,PI,1,100,135920
1574949902.020829,153043.000,26319,4,PI,1,100,135890
1574949902.058730,153075.000,26319,4,PI,1,100,135939
1574949902.098605,153108.667,26336,3,PI,1,100,136060
1574949902.138480,153142.333,26336,3,PI,1,100,136182
1574949902.178355,153176.000,26336,3,PI,1,100,136133
1574949902.225140,153215.500,26354,2,PI,1,100,136079
1574949902.271924,153255.000,26354,2,PI,1,100,136035
1574949902.309825,153287.000,26370,3,PI,1,100,136043
1574949902.347726,153319.000,26370,3,PI,1,100,136092
1574949902.385627,153351.000,26370,3,PI,1,100,136191
1574949902.426687,153385.667,26388,3,PI,1,100,136257
1574949902.467746,153420.333,26388,3,PI,1,100,136305
1574949902.508806,153455.000,26388,3,PI,1,100,136315
1574949902.550260,153490.000,26406,3,PI,1,100,136384
1574949902.591714,153525.000,26406,3,PI,1,100,136393
1574949902.633168,153560.000,26406,3,PI,1,100,136463
1574949902.672254,153593.000,26424,3,PI,1,100,136490
1574949902.711339,153626.000,26424,3,PI,1,100,136498
1574949902.750425,153659.000,26424,3,PI,1,100,136544
1574949902.791485,153693.667,26442,3,PI,1,100,136601
1574949902.832544,153728.333,26442,3,PI,1,100,136657
1574949902.873604,153763.000,26442,3,PI,1,100,136495
1574949902.913479,153796.667,26461,3,PI,1,100,136139
1574949902.953354,153830.333,26461,3,PI,1,100,135984
1574949902.993229,153864.000,26461,3,PI,1,100,135990
1574949903.033894,153898.333,26479,3,PI,1,100,136133
1574949903.074558,153932.667,26479,3,PI,1,100,136128
1574949903.115223,153967.000,26479,3,PI,1,100,136239
1574949903.155888,154001.333,26497,3,PI,1,100,136230
1574949903.196553,154035.667,26497,3,PI,1,100,136219
1574949903.237217,154070.000,26497,3,PI,1,100,136188
1574949903.277092,154103.667,26514,3,PI,1,100,136219
1574949903.316967,154137.333,26514,3,PI,1,100,136301
1574949903.356843,154171.000,26514,3,PI,1,100,136390
1574949903.394744,154203.000,26532,3,PI,1,100,136433
1574949903.432645,154235.000,26532,3,PI,1,100,136480
1574949903.470546,154267.000,26532,3,PI,1,100,136502
1574949903.509631,154300.000,26548,3,PI,1,100,136545
1574949903.548717,154333.000,26548,3,PI,1,100,136545
1574949903.587802,154366.000,26548,3,PI,1,100,136633
1574949903.629256,154401.000,26566,3,PI,1,100,136635
1574949903.670711,154436.000,26566,3,PI,1,100,136669
1574949903.712165,154471.000,26566,3,PI,1,100,136699
1574949903.752830,154505.333,26584,3,PI,1,100,136723
1574949903.793495,154539.667,26584,3,PI,1,100,136762
1574949903.834159,154574.000,26584,3,PI,1,100,136693
1574949903.874429,154608.000,26603,3,PI,1,100,136395
1574949903.914699,154642.000,26603,3,PI,1,100,136127
1574949903.954969,154676.000,26603,3,PI,1,100,136118
1574949903.992870,154708.000,26621,3,PI,1,100,136280
1574949904.030771,154740.000,26621,3,PI,1,100,136377
1574949904.068672,154772.000,26621,3,PI,1,100,136521
1574949904.106573,154804.000,26639,3,PI,1,100,136537
1574949904.144475,154836.000,26639,3,PI,1,100,136488
1574949904.182376,154868.000,26639,3,PI,1,100,136438
1574949904.223040,154902.333,26657,3,PI,1,100,136417
1574949904.263705,154936.667,26657,3,PI,1,100,136489
1574949904.304370,154971.000,26657,3,PI,1,100,136555
1574949904.345034,155005.333,26675,3,PI,1,100,136627
1574949904.385699,155039.667,26675,3,PI,1,100,136627
1574949904.426364,155074.000,26675,3,PI,1,100,136657
1574949904.468608,155109.667,26692,3,PI,1,100,136731
1574949904.510852,155145.333,26692,3,PI,1,100,136732
1574949904.553096,155181.000,26692,3,PI,1,100,136824
1574949904.594550,155216.000,26710,3,PI,1,100,136835
1574949904.636004,155251.000,26710,3,PI,1,100,136882
1574949904.677459,155286.000,26710,3,PI,1,100,136914
1574949904.719702,155321.667,26726,3,PI,1,100,136984
1574949904.761946,155357.333,26726,3,PI,1,100,137011
1574949904.804190,155393.000,26726,3,PI,1,100,137023
1574949904.846434,155428.667,26745,3,PI,1,100,136898
1574949904.888678,155464.333,26745,3,PI,1,100,136537
1574949904.930922,155500.000,26745,3,PI,1,100,136391
1574949904.968823,155532.000,26763,3,PI,1,100,136442
1574949905.006724,155564.000,26763,3,PI,1,100,136530
1574949905.044626,155596.000,26763,3,PI,1,100,136508
1574949905.087264,155632.000,26781,3,PI,1,100,136519
1574949905.129903,155668.000,26781,3,PI,1,100,136535
1574949905.172542,155704.000,26781,3,PI,1,100,136516
1574949905.212811,155738.000,26799,2,PI,1,100,136524
1574949905.253081,155772.000,26799,2,PI,1,100,136545
1574949905.294536,155807.000,26816,3,PI,1,100,136573
1574949905.335990,155842.000,26816,3,PI,1,100,136663
1574949905.377444,155877.000,26816,3,PI,1,100,136749
1574949905.419293,155912.333,26834,3,PI,1,100,136790
1574949905.461143,155947.667,26834,3,PI,1,100,136819
1574949905.502992,155983.000,26834,3,PI,1,100,136833
1574949905.540498,156014.667,26850,3,PI,1,100,136833
1574949905.578004,156046.333,26850,3,PI,1,100,136922
1574949905.615511,156078.000,26850,3,PI,1,100,136931
1574949905.653412,156110.000,26868,4,PI,1,100,136956
1574949905.691313,156142.000,26868,4,PI,1,100,137004
1574949905.729214,156174.000,26868,4,PI,1,100,137106
1574949905.767115,156206.000,26868,4,PI,1,100,137129
1574949905.806201,156239.000,26886,3,PI,1,100,137221
1574949905.845286,156272.000,26886,3,PI,1,100,137185
1574949905.884372,156305.000,26886,3,PI,1,100,136888
1574949905.925234,156339.500,26905,2,PI,1,100,136637
1574949905.966096,156374.000,26905,2,PI,1,100,136597
1574949906.011103,156412.000,26923,3,PI,1,100,136703
1574949906.056111,156450.000,26923,3,PI,1,100,136762
1574949906.101118,156488.000,26923,3,PI,1,100,136792
1574949906.139414,156520.333,26941,3,PI,1,100,136786
1574949906.177710,156552.667,26941,3,PI,1,100,136847
1574949906.216006,156585.000,26941,3,PI,1,100,136822
1574949906.257066,156619.667,26959,3,PI,1,100,136835
1574949906.298125,156654.333,26959,3,PI,1,100,136885
1574949906.339185,156689.000,26959,3,PI,1,100,136989
1574949906.380639,156724.000,26976,3,PI,1,100,137054
1574949906.422093,156759.000,26976,3,PI,1,100,137162
1574949906.463547,156794.000,26976,3,PI,1,100,137205
1574949906.501054,156825.667,26994,3,PI,1,100,137245
1574949906.538560,156857.333,26994,3,PI,1,100,137299
1574949906.576066,156889.000,26994,3,PI,1,100,137359
1574949906.618310,156924.667,27012,3,PI,1,100,137420
1574949906.660554,156960.333,27012,3,PI,1,100,137517
1574949906.702798,156996.000,27012,3,PI,1,100,137576
1574949906.743858,157030.667,27028,3,PI,1,100,137640
1574949906.784917,157065.333,27028,3,PI,1,100,137728
1574949906.825977,157100.000,27028,3,PI,1,100,137834
1574949906.866641,157134.333,27047,3,PI,1,100,137882
1574949906.907306,157168.667,27047,3,PI,1,100,138025
1574949906.947971,157203.000,27047,3,PI,1,100,138052
1574949906.989425,157238.000,27065,3,PI,1,100,138139
1574949907.030879,157273.000,27065,3,PI,1,100,138258
1574949907.072334,157308.000,27065,3,PI,1,100,138252
1574949907.109761,157339.600,27086,5,PI,1,100,137999
1574949907.147188,157371.200,27086,5,PI,1,100,137767
1574949907.184616,157402.800,27086,5,PI,1,100,137723
1574949907.222043,157434.400,27086,5,PI,1,100,137755
1574949907.259470,157466.000,27086,5,PI,1,100,137867
1574949907.299345,157499.667,27106,3,PI,1,100,137921
1574949907.339221,157533.333,27106,3,PI,1,100,137987
1574949907.379096,157567.000,27106,3,PI,1,100,137923
1574949907.420155,157601.667,27122,3,PI,1,100,137893
1574949907.461215,157636.333,27122,3,PI,1,100,137882
1574949907.502274,157671.000,27122,3,PI,1,100,137932
1574949907.543334,157705.667,27140,3,PI,1,100,138019
1574949907.584393,157740.333,27140,3,PI,1,100,138121
1574949907.625453,157775.000,27140,3,PI,1,100,138192
1574949907.665328,157808.667,27158,3,PI,1,100,138213
1574949907.705203,157842.333,27158,3,PI,1,100,138266
1574949907.745078,157876.000,27158,3,PI,1,100,138340
1574949907.781795,157907.000,27176,3,PI,1,100,138332
1574949907.818511,157938.000,27176,3,PI,1,100,138420
1574949907.855228,157969.000,27176,3,PI,1,100,138456
1574949907.894708,158002.333,27195,3,PI,1,100,138488
1574949907.934189,158035.667,27195,3,PI,1,100,138557
1574949907.973669,158069.000,27195,3,PI,1,100,138606
1574949908.014334,158103.333,27213,3,PI,1,100,138660
1574949908.054998,158137.667,27213,3,PI,1,100,138729
1574949908.095663,158172.000,27213,3,PI,1,100,138808
1574949908.136328,158206.333,27231,3,PI,1,100,138824
1574949908.176993,158240.667,27231,3,PI,1,100,138650
1574949908.217657,158275.000,27231,3,PI,1,100,138329
1574949908.259506,158310.333,27248,3,PI,1,100,138293
1574949908.301356,158345.667,27248,3,PI,1,100,138270
1574949908.343205,158381.000,27248,3,PI,1,100,138329
1574949908.384659,158416.000,27266,3,PI,1,100,138402
1574949908.426113,158451.000,27266,3,PI,1,100,138496
1574949908.467568,158486.000,27266,3,PI,1,100,138391
1574949908.509614,158521.500,27282,2,PI,1,100,138297
1574949908.551661,158557.000,27282,2,PI,1,100,138253
1574949908.593115,158592.000,27300,3,PI,1,100,138272
1574949908.634569,158627.000,27300,3,PI,1,100,138335
1574949908.676024,158662.000,27300,3,PI,1,100,138393
1574949908.716294,158696.000,27318,3,PI,1,100,138432
1574949908.756563,158730.000,27318,3,PI,1,100,138464
1574949908.796833,158764.000,27318,3,PI,1,100,138531
1574949908.835129,158796.333,27337,3,PI,1,100,138511
1574949908.873425,158828.667,27337,3,PI,1,100,138537
1574949908.911721,158861.000,27337,3,PI,1,100,138531
1574949908.950511,158893.750,27355,4,PI,1,100,138532
1574949908.989300,158926.500,27355,4,PI,1,100,138616
1574949909.028089,158959.250,27355,4,PI,1,100,138606
1574949909.066879,158992.000,27355,4,PI,1,100,138630
1574949909.106359,159025.333,27373,3,PI,1,100,138677
1574949909.145839,159058.667,27373,3,PI,1,100,138750
1574949909.185319,159092.000,27373,3,PI,1,100,138628
1574949909.223221,159124.000,27391,3,PI,1,100,138087
1574949909.261122,159156.000,27391,3,PI,1,100,137766
1574949909.299023,159188.000,27391,3,PI,1,100,137607
1574949909.333766,159217.333,27409,3,PI,1,100,137660
1574949909.368508,159246.667,27409,3,PI,1,100,137633
1574949909.403251,159276.000,27409,3,PI,1,100,137655
1574949909.441941,159308.667,27427,3,PI,1,100,137534
1574949909.480632,159341.333,27427,3,PI,1,100,137472
1574949909.519323,159374.000,27427,3,PI,1,100,137394
1574949909.558408,159407.000,27444,3,PI,1,100,137341
1574949909.597494,159440.000,27444,3,PI,1,100,137368
1574949909.636579,159473.000,27444,3,PI,1,100,137439
1574949909.678428,159508.333,27462,3,PI,1,100,137486
1574949909.720278,159543.667,27462,3,PI,1,100,137509
1574949909.762127,159579.000,27462,3,PI,1,100,137530
1574949909.801607,159612.333,27478,3,PI,1,100,137523
1574949909.841087,159645.667,27478,3,PI,1,100,137534
1574949909.880568,159679.000,27478,3,PI,1,100,137561
1574949909.921627,159713.667,27497,3,PI,1,100,137545
1574949909.962687,159748.333,27497,3,PI,1,100,137523
1574949910.003746,159783.000,27497,3,PI,1,100,137566
1574949910.045595,159818.333,27515,3,PI,1,100,137623
1574949910.087444,159853.667,27515,3,PI,1,100,137599
1574949910.129293,159889.000,27515,3,PI,1,100,137703
1574949910.167984,159921.667,27533,3,PI,1,100,137718
1574949910.206675,159954.333,27533,3,PI,1,100,137775
1574949910.245366,159987.000,27533,3,PI,1,100,137723
1574949910.284846,160020.333,27551,3,PI,1,100,137303
1574949910.324326,160053.667,27551,3,PI,1,100,136982
1574949910.363806,160087.000,27551,3,PI,1,100,136916
1574949910.401313,160118.667,27569,3,PI,1,100,136966
1574949910.438819,160150.333,27569,3,PI,1,100,137043
1574949910.476325,160182.000,27569,3,PI,1,100,137072
1574949910.514621,160214.333,27587,3,PI,1,100,137045
1574949910.552917,160246.667,27587,3,PI,1,100,136987
1574949910.591213,160279.000,27587,3,PI,1,100,136912
1574949910.631088,160312.667,27605,3,PI,1,100,136963
1574949910.670963,160346.333,27605,3,PI,1,100,136917
1574949910.710838,160380.000,27605,3,PI,1,100,137075
1574949910.751108,160414.000,27622,3,PI,1,100,137103
1574949910.791378,160448.000,27622,3,PI,1,100,137164
1574949910.831648,160482.000,27622,3,PI,1,100,137193
1574949910.877050,160520.333,27641,3,PI,1,100,137227
1574949910.922453,160558.667,27641,3,PI,1,100,137297
1574949910.967855,160597.000,27641,3,PI,1,100,137313
1574949911.005756,160629.000,27657,3,PI,1,100,137289
1574949911.043657,160661.000,27657,3,PI,1,100,137326
1574949911.081558,160693.000,27657,3,PI,1,100,137409
1574949911.119854,160725.333,27675,3,PI,1,100,137430
1574949911.158150,160757.667,27675,3,PI,1,100,137551
1574949911.196446,160790.000,27675,3,PI,1,100,137545
1574949911.237111,160824.333,27693,3,PI,1,100,137595
1574949911.277776,160858.667,27693,3,PI,1,100,137652
1574949911.318440,160893.000,27693,3,PI,1,100,137511
1574949911.359500,160927.667,27711,3,PI,1,100,137212
1574949911.400559,160962.333,27711,3,PI,1,100,137012
1574949911.441619,160997.000,27711,3,PI,1,100,137035
1574949911.483073,161032.000,27729,3,PI,1,100,137091
1574949911.524527,161067.000,27729,3,PI,1,100,137147
1574949911.565982,161102.000,27729,3,PI,1,100,137220
1574949911.604672,161134.667,27747,3,PI,1,100,137180
1574949911.643363,161167.333,27747,3,PI,1,100,137135
1574949911.682054,161200.000,27747,3,PI,1,100,137040
1574949911.719165,161231.333,27765,3,PI,1,100,137071
1574949911.756277,161262.667,27765,3,PI,1,100,137129
1574949911.793388,161294.000,27765,3,PI,1,100,137198
1574949911.833263,161327.667,27784,3,PI,1,100,137272
1574949911.873138,161361.333,27784,3,PI,1,100,137311
1574949911.913013,161395.000,27784,3,PI,1,100,137317
1574949911.953678,161429.333,27802,3,PI,1,100,137299
1574949911.994343,161463.667,27802,3,PI,1,100,137403
1574949912.035008,161498.000,27802,3,PI,1,100,137371
1574949912.075672,161532.333,27819,3,PI,1,100,137455
1574949912.116337,161566.667,27819,3,PI,1,100,137486
1574949912.157002,161601.000,27819,3,PI,1,100,137498
1574949912.197272,161635.000,27837,3,PI,1,100,137556
1574949912.237542,161669.000,27837,3,PI,1,100,137569
1574949912.277812,161703.000,27837,3,PI,1,100,137631
1574949912.316108,161735.333,27853,3,PI,1,100,137617
1574949912.354403,161767.667,27853,3,PI,1,100,137258
1574949912.392699,161800.000,27853,3,PI,1,100,136918
1574949912.433364,161834.333,27871,3,PI,1,100,136881
1574949912.474029,161868.667,27871,3,PI,1,100,136995
1574949912.514693,161903.000,27871,3,PI,1,100,137033
1574949912.552594,161935.000,27889,3,PI,1,100,137095
1574949912.590496,161967.000,27889,3,PI,1,100,137067
1574949912.628397,161999.000,27889,3,PI,1,100,136963
1574949912.668272,162032.667,27907,3,PI,1,100,136939
1574949912.708147,162066.333,27907,3,PI,1,100,136926
1574949912.748022,162100.000,27907,3,PI,1,100,136944
1574949912.787897,162133.667,27925,3,PI,1,100,137000
1574949912.827772,162167.333,27925,3,PI,1,100,137097
1574949912.867647,162201.000,27925,3,PI,1,100,137116
1574949912.907128,162234.333,27944,3,PI,1,100,137146
1574949912.946608,162267.667,27944,3,PI,1,100,137156
1574949912.986088,162301.000,27944,3,PI,1,100,137205
1574949913.023693,162332.750,27962,4,PI,1,100,137208
1574949913.061298,162364.500,27962,4,PI,1,100,137244
1574949913.098903,162396.250,27962,4,PI,1,100,137259
1574949913.136508,162428.000,27962,4,PI,1,100,137295
1574949913.175001,162460.500,27983,4,PI,1,100,137334
1574949913.213495,162493.000,27983,4,PI,1,100,137378
1574949913.251988,162525.500,27983,4,PI,1,100,137402
1574949913.290481,162558.000,27983,4,PI,1,100,137467
1574949913.334304,162595.000,28003,3,PI,1,100,137518
1574949913.378128,162632.000,28003,3,PI,1,100,137281
1574949913.421951,162669.000,28003,3,PI,1,100,136858
1574949913.460247,162701.333,28021,3,PI,1,100,136690
1574949913.498543,162733.667,28021,3,PI,1,100,136767
1574949913.536838,162766.000,28021,3,PI,1,100,136771
1574949913.577503,162800.333,28039,3,PI,1,100,136843
1574949913.618168,162834.667,28039,3,PI,1,100,136836
1574949913.658833,162869.000,28039,3,PI,1,100,136800
1574949913.700287,162904.000,28057,3,PI,1,100,136700
1574949913.741741,162939.000,28057,3,PI,1,100,136716
1574949913.783195,162974.000,28057,3,PI,1,100,136703
1574949913.823860,163008.333,28075,3,PI,1,100,136758
1574949913.864525,163042.667,28075,3,PI,1,100,136821
1574949913.905190,163077.000,28075,3,PI,1,100,136858
1574949913.946249,163111.667,28093,3,PI,1,100,136899
1574949913.987309,163146.333,28093,3,PI,1,100,136894
1574949914.028368,163181.000,28093,3,PI,1,100,136922
1574949914.064295,163211.333,28111,3,PI,1,100,136917
1574949914.100222,163241.667,28111,3,PI,1,100,136928
1574949914.136149,163272.000,28111,3,PI,1,100,136917
1574949914.174445,163304.333,28127,3,PI,1,100,136938
1574949914.212741,163336.667,28127,3,PI,1,100,136964
1574949914.251037,163369.000,28127,3,PI,1,100,137027
1574949914.290517,163402.333,28145,3,PI,1,100,137051
1574949914.329998,163435.667,28145,3,PI,1,100,137125
1574949914.369478,163469.000,28145,3,PI,1,100,137059
1574949914.410143,163503.333,28163,3,PI,1,100,136740
1574949914.450807,163537.667,28163,3,PI,1,100,136466
1574949914.491472,163572.000,28163,3,PI,1,100,136424
1574949914.536085,163609.667,28181,3,PI,1,100,136514
1574949914.580698,163647.333,28181,3,PI,1,100,136559
1574949914.625310,163685.000,28181,3,PI,1,100,136640
1574949914.664791,163718.333,28199,3,PI,1,100,136603
1574949914.704271,163751.667,28199,3,PI,1,100,136529
1574949914.743751,163785.000,28199,3,PI,1,100,136436
1574949914.781258,163816.667,28217,3,PI,1,100,136461
1574949914.818764,163848.333,28217,3,PI,1,100,136480
1574949914.856270,163880.000,28217,3,PI,1,100,136522
1574949914.895356,163913.000,28236,3,PI,1,100,136594
1574949914.934441,163946.000,28236,3,PI,1,100,136623
1574949914.973526,163979.000,28236,3,PI,1,100,136638
1574949915.014981,164014.000,28254,3,PI,1,100,136645
1574949915.056435,164049.000,28254,3,PI,1,100,136651
1574949915.097890,164084.000,28254,3,PI,1,100,136652
1574949915.138554,164118.333,28271,3,PI,1,100,136650
1574949915.179219,164152.667,28271,3,PI,1,100,136681
1574949915.219884,164187.000,28271,3,PI,1,100,136718
1574949915.260548,164221.333,28289,3,PI,1,100,136779
1574949915.301213,164255.667,28289,3,PI,1,100,136785
1574949915.341878,164290.000,28289,3,PI,1,100,136815
1574949915.379779,164322.000,28307,3,PI,1,100,136619
1574949915.417680,164354.000,28307,3,PI,1,100,136201
1574949915.455581,164386.000,28307,3,PI,1,100,136026
1574949915.493877,164418.333,28323,3,PI,1,100,136065
1574949915.532173,164450.667,28323,3,PI,1,100,136118
1574949915.570469,164483.000,28323,3,PI,1,100,136116
1574949915.611134,164517.333,28341,3,PI,1,100,136125
1574949915.651798,164551.667,28341,3,PI,1,100,136068
1574949915.692463,164586.000,28341,3,PI,1,100,136057
1574949915.732733,164620.000,28359,3,PI,1,100,135974
1574949915.773003,164654.000,28359,3,PI,1,100,136001
1574949915.813273,164688.000,28359,3,PI,1,100,136003
1574949915.853937,164722.333,28378,3,PI,1,100,136045
1574949915.894602,164756.667,28378,3,PI,1,100,136112
1574949915.935267,164791.000,28378,3,PI,1,100,136123
1574949915.973168,164823.000,28396,3,PI,1,100,136162
1574949916.011069,164855.000,28396,3,PI,1,100,136169
1574949916.048970,164887.000,28396,3,PI,1,100,136191
1574949916.088056,164920.000,28414,3,PI,1,100,136247
1574949916.127141,164953.000,28414,3,PI,1,100,136291
1574949916.166227,164986.000,28414,3,PI,1,100,136309
1574949916.207681,165021.000,28432,3,PI,1,100,136360
1574949916.249135,165056.000,28432,3,PI,1,100,136408
1574949916.290590,165091.000,28432,3,PI,1,100,136479
1574949916.330465,165124.667,28450,3,PI,1,100,136554
1574949916.370340,165158.333,28450,3,PI,1,100,136431
1574949916.410215,165192.000,28450,3,PI,1,100,136089
1574949916.450485,165226.000,28467,3,PI,1,100,135871
1574949916.490755,165260.000,28467,3,PI,1,100,135949
1574949916.531024,165294.000,28467,3,PI,1,100,136025
1574949916.572479,165329.000,28485,3,PI,1,100,136083
1574949916.613933,165364.000,28485,3,PI,1,100,136089
1574949916.655387,165399.000,28485,3,PI,1,100,136125
1574949916.691314,165429.333,28501,3,PI,1,100,136087
1574949916.727242,165459.667,28501,3,PI,1,100,136068
1574949916.763169,165490.000,28501,3,PI,1,100,136093
1574949916.808571,165528.333,28520,3,PI,1,100,136179
1574949916.853973,165566.667,28520,3,PI,1,100,136268
1574949916.899376,165605.000,28520,3,PI,1,100,136322
1574949916.938461,165638.000,28538,3,PI,1,100,136357
1574949916.977547,165671.000,28538,3,PI,1,100,136428
1574949917.016632,165704.000,28538,3,PI,1,100,136480
1574949917.054533,165736.000,28556,3,PI,1,100,136509
1574949917.092434,165768.000,28556,3,PI,1,100,136504
1574949917.130336,165800.000,28556,3,PI,1,100,136645
1574949917.169026,165832.667,28574,3,PI,1,100,136656
1574949917.207717,165865.333,28574,3,PI,1,100,136720
1574949917.246408,165898.000,28574,3,PI,1,100,136763
1574949917.287467,165932.667,28592,3,PI,1,100,136887
1574949917.328526,165967.333,28592,3,PI,1,100,136878
1574949917.369586,166002.000,28592,3,PI,1,100,136998
1574949917.410646,166036.667,28609,3,PI,1,100,136777
1574949917.451705,166071.333,28609,3,PI,1,100,136592
1574949917.492765,166106.000,28609,3,PI,1,100,136584
1574949917.536983,166143.333,28627,3,PI,1,100,136658
1574949917.581201,166180.667,28627,3,PI,1,100,136799
1574949917.625418,166218.000,28627,3,PI,1,100,136865
1574949917.661345,166248.333,28645,3,PI,1,100,136891
1574949917.697273,166278.667,28645,3,PI,1,100,136842
1574949917.733200,166309.000,28645,3,PI,1,100,136848
1574949917.773075,166342.667,28661,3,PI,1,100,136873
1574949917.812950,166376.333,28661,3,PI,1,100,136976
1574949917.852825,166410.000,28661,3,PI,1,100,137065
1574949917.890726,166442.000,28680,3,PI,1,100,137131
1574949917.928627,166474.000,28680,3,PI,1,100,137201
1574949917.966528,166506.000,28680,3,PI,1,100,137286
1574949918.006403,166539.667,28698,3,PI,1,100,137343
1574949918.046278,166573.333,28698,3,PI,1,100,137378
1574949918.086154,166607.000,28698,3,PI,1,100,137448
1574949918.130372,166644.333,28716,3,PI,1,100,137509
1574949918.174589,166681.667,28716,3,PI,1,100,137575
1574949918.218807,166719.000,28716,3,PI,1,100,137663
1574949918.259867,166753.667,28734,3,PI,1,100,137698
1574949918.300926,166788.333,28734,3,PI,1,100,137757
1574949918.341986,166823.000,28734,3,PI,1,100,137791
1574949918.382256,166857.000,28752,3,PI,1,100,137929
1574949918.422526,166891.000,28752,3,PI,1,100,137669
1574949918.462796,166925.000,28752,3,PI,1,100,137521
1574949918.500302,166956.667,28770,3,PI,1,100,137428
1574949918.537808,166988.333,28770,3,PI,1,100,137476
1574949918.575315,167020.000,28770,3,PI,1,100,137505
1574949918.614795,167053.333,28788,3,PI,1,100,137491
1574949918.654275,167086.667,28788,3,PI,1,100,137523
1574949918.693755,167120.000,28788,3,PI,1,100,137510
1574949918.734815,167154.667,28805,3,PI,1,100,137498
1574949918.775874,167189.333,28805,3,PI,1,100,137476
1574949918.816934,167224.000,28805,3,PI,1,100,137532
1574949918.857994,167258.667,28824,3,PI,1,100,137614
1574949918.899053,167293.333,28824,3,PI,1,100,137676
1574949918.940113,167328.000,28824,3,PI,1,100,137762
1574949918.980777,167362.333,28840,3,PI,1,100,137797
1574949919.021442,167396.667,28840,3,PI,1,100,137808
1574949919.062107,167431.000,28840,3,PI,1,100,137841
1574949919.099613,167462.667,28858,3,PI,1,100,137888
1574949919.137119,167494.333,28858,3,PI,1,100,137936
1574949919.174626,167526.000,28858,3,PI,1,100,137951
1574949919.213711,167559.000,28879,5,PI,1,100,138002
1574949919.252797,167592.000,28879,5,PI,1,100,138026
1574949919.291882,167625.000,28879,5,PI,1,100,138094
1574949919.330967,167658.000,28879,5,PI,1,100,138155
1574949919.370053,167691.000,28879,5,PI,1,100,138254
1574949919.411507,167726.000,28899,3,PI,1,100,138331
1574949919.452962,167761.000,28899,3,PI,1,100,138243
1574949919.494416,167796.000,28899,3,PI,1,100,138004
1574949919.534686,167830.000,28917,2,PI,1,100,137842
1574949919.574956,167864.000,28917,2,PI,1,100,137837
1574949919.614337,167897.250,28933,4,PI,1,100,137870
1574949919.653719,167930.500,28933,4,PI,1,100,137855
1574949919.693101,167963.750,28933,4,PI,1,100,137825
1574949919.732482,167997.000,28933,4,PI,1,100,137789
1574949919.770778,168029.333,28951,3,PI,1,100,137808
1574949919.809074,168061.667,28951,3,PI,1,100,137767
1574949919.847370,168094.000,28951,3,PI,1,100,137833
1574949919.886850,168127.333,28970,3,PI,1,100,137848
1574949919.926331,168160.667,28970,3,PI,1,100,137879
1574949919.965811,168194.000,28970,3,PI,1,100,137948
1574949920.008055,168229.667,28988,3,PI,1,100,137966
1574949920.050299,168265.333,28988,3,PI,1,100,138032
1574949920.092543,168301.000,28988,3,PI,1,100,138048
1574949920.132220,168334.500,29006,2,PI,1,100,138084
1574949920.171898,168368.000,29006,2,PI,1,100,138114
1574949920.214142,168403.667,29024,3,PI,1,100,138141
1574949920.256386,168439.333,29024,3,PI,1,100,138180
1574949920.298630,168475.000,29024,3,PI,1,100,138212
1574949920.339294,168509.333,29042,3,PI,1,100,138236
1574949920.379959,168543.667,29042,3,PI,1,100,138300
1574949920.420624,168578.000,29042,3,PI,1,100,138349
1574949920.461683,168612.667,29059,3,PI,1,100,138368
1574949920.502743,168647.333,29059,3,PI,1,100,138332
1574949920.543802,168682.000,29059,3,PI,1,100,138420
1574949920.585257,168717.000,29077,3,PI,1,100,138387
1574949920.626711,168752.000,29077,3,PI,1,100,138378
1574949920.668165,168787.000,29077,3,PI,1,100,138430
1574949920.706066,168819.000,29093,3,PI,1,100,138459
1574949920.743968,168851.000,29093,3,PI,1,100,138150
1574949920.781869,168883.000,29093,3,PI,1,100,137970
1574949920.827271,168921.333,29112,3,PI,1,100,137870
1574949920.872673,168959.667,29112,3,PI,1,100,137925
1574949920.918076,168998.000,29112,3,PI,1,100,137792
1574949920.955187,169029.333,29130,3,PI,1,100,137794
1574949920.992299,169060.667,29130,3,PI,1,100,137652
1574949921.029410,169092.000,29130,3,PI,1,100,137568
1574949921.070864,169127.000,29148,3,PI,1,100,137467
1574949921.112319,169162.000,29148,3,PI,1,100,137524
1574949921.153773,169197.000,29148,3,PI,1,100,137497
1574949921.194833,169231.667,29166,3,PI,1,100,137528
1574949921.235892,169266.333,29166,3,PI,1,100,137533
1574949921.276952,169301.000,29166,3,PI,1,100,137513
1574949921.319590,169337.000,29184,3,PI,1,100,137513
1574949921.362229,169373.000,29184,3,PI,1,100,137506
1574949921.404868,169409.000,29184,3,PI,1,100,137498
1574949921.446322,169444.000,29201,2,PI,1,100,137529
1574949921.487777,169479.000,29201,2,PI,1,100,137559
1574949921.527158,169512.250,29217,4,PI,1,100,137554
1574949921.566540,169545.500,29217,4,PI,1,100,137544
1574949921.605921,169578.750,29217,4,PI,1,100,137533
1574949921.645303,169612.000,29217,4,PI,1,100,137600
1574949921.683204,169644.000,29235,3,PI,1,100,137605
1574949921.721105,169676.000,29235,3,PI,1,100,137706
1574949921.759006,169708.000,29235,3,PI,1,100,137406
1574949921.798486,169741.333,29253,3,PI,1,100,137061
1574949921.837967,169774.667,29253,3,PI,1,100,136934
1574949921.877447,169808.000,29253,3,PI,1,100,136937
1574949921.918507,169842.667,29272,3,PI,1,100,136950
1574949921.959566,169877.333,29272,3,PI,1,100,136916
1574949922.000626,169912.000,29272,3,PI,1,100,136886
1574949922.041290,169946.333,29290,3,PI,1,100,136812
1574949922.081955,169980.667,29290,3,PI,1,100,136779
1574949922.122620,170015.000,29290,3,PI,1,100,136746
1574949922.162890,170049.000,29308,3,PI,1,100,136750
1574949922.203160,170083.000,29308,3,PI,1,100,136789
1574949922.243429,170117.000,29308,3,PI,1,100,136841
1574949922.284884,170152.000,29326,2,PI,1,100,136866
1574949922.326338,170187.000,29326,2,PI,1,100,136949
1574949922.365128,170219.750,29344,4,PI,1,100,136934
1574949922.403917,170252.500,29344,4,PI,1,100,136918
1574949922.442706,170285.250,29344,4,PI,1,100,136946
1574949922.481496,170318.000,29344,4,PI,1,100,136952
1574949922.524727,170354.500,29361,2,PI,1,100,136984
1574949922.567957,170391.000,29361,2,PI,1,100,137020
1574949922.607043,170424.000,29379,3,PI,1,100,137050
1574949922.646128,170457.000,29379,3,PI,1,100,137043
1574949922.685214,170490.000,29379,3,PI,1,100,137094
1574949922.725879,170524.333,29397,3,PI,1,100,137134
1574949922.766543,170558.667,29397,3,PI,1,100,137201
1574949922.807208,170593.000,29397,3,PI,1,100,137113
1574949922.848662,170628.000,29414,3,PI,1,100,136802
1574949922.890117,170663.000,29414,3,PI,1,100,136611
1574949922.931571,170698.000,29414,3,PI,1,100,136612
1574949922.971446,170731.667,29432,3,PI,1,100,136706
1574949923.011321,170765.333,29432,3,PI,1,100,136726
1574949923.051196,170799.000,29432,3,PI,1,100,136751
1574949923.089097,170831.000,29450,4,PI,1,100,136766
1574949923.126999,170863.000,29450,4,PI,1,100,136709
1574949923.164900,170895.000,29450,4,PI,1,100,136771
1574949923.202801,170927.000,29450,4,PI,1,100,136731
1574949923.243071,170961.000,29468,2,PI,1,100,136867
1574949923.283341,170995.000,29468,2,PI,1,100,136882
1574949923.324400,171029.667,29486,3,PI,1,100,136935
1574949923.365460,171064.333,29486,3,PI,1,100,136992
1574949923.406519,171099.000,29486,3,PI,1,100,137043
1574949923.447973,171134.000,29504,3,PI,1,100,137113
1574949923.489428,171169.000,29504,3,PI,1,100,137137
1574949923.530882,171204.000,29504,3,PI,1,100,137124
1574949923.571152,171238.000,29522,3,PI,1,100,137151
1574949923.611422,171272.000,29522,3,PI,1,100,137238
1574949923.651692,171306.000,29522,3,PI,1,100,137273
1574949923.688704,171337.250,29539,4,PI,1,100,137297
1574949923.725717,171368.500,29539,4,PI,1,100,137364
1574949923.762730,171399.750,29539,4,PI,1,100,137357
1574949923.799743,171431.000,29539,4,PI,1,100,137402
1574949923.839618,171464.667,29558,3,PI,1,100,137471
1574949923.879493,171498.333,29558,3,PI,1,100,137428
1574949923.919368,171532.000,29558,3,PI,1,100,137294
1574949923.960230,171566.500,29576,2,PI,1,100,137204
1574949924.001092,171601.000,29576,2,PI,1,100,137223
1574949924.043336,171636.667,29592,3,PI,1,100,137245
1574949924.085580,171672.333,29592,3,PI,1,100,137358
1574949924.127824,171708.000,29592,3,PI,1,100,137394
1574949924.169673,171743.333,29610,3,PI,1,100,137475
1574949924.211523,171778.667,29610,3,PI,1,100,137355
1574949924.253372,171814.000,29610,3,PI,1,100,137429
1574949924.294036,171848.333,29628,3,PI,1,100,137414
1574949924.334701,171882.667,29628,3,PI,1,100,137530
1574949924.375366,171917.000,29628,3,PI,1,100,137552
1574949924.418005,171953.000,29646,3,PI,1,100,137639
1574949924.460643,171989.000,29646,3,PI,1,100,137656
1574949924.503282,172025.000,29646,3,PI,1,100,137725
1574949924.541183,172057.000,29664,3,PI,1,100,137733
1574949924.579084,172089.000,29664,3,PI,1,100,137787
1574949924.616985,172121.000,29664,3,PI,1,100,137843
1574949924.661993,172159.000,29681,3,PI,1,100,137887
1574949924.707000,172197.000,29681,3,PI,1,100,137893
1574949924.752008,172235.000,29681,3,PI,1,100,137964
1574949924.789909,172267.000,29699,3,PI,1,100,138066
1574949924.827810,172299.000,29699,3,PI,1,100,137979
1574949924.865711,172331.000,29699,3,PI,1,100,137705
1574949924.907165,172366.000,29716,3,PI,1,100,137544
1574949924.948620,172401.000,29716,3,PI,1,100,137530
1574949924.990074,172436.000,29716,3,PI,1,100,137559
1574949925.037450,172476.000,29734,2,PI,1,100,137577
1574949925.084827,172516.000,29734,2,PI,1,100,137596
1574949925.122136,172547.500,29752,4,PI,1,100,137575
1574949925.159445,172579.000,29752,4,PI,1,100,137491
1574949925.196754,172610.500,29752,4,PI,1,100,137547
1574949925.234062,172642.000,29752,4,PI,1,100,137515
1574949925.273740,172675.500,29773,4,PI,1,100,137552
1574949925.313418,172709.000,29773,4,PI,1,100,137575
1574949925.353096,172742.500,29773,4,PI,1,100,137627
1574949925.392773,172776.000,29773,4,PI,1,100,137594
1574949925.431069,172808.333,29793,3,PI,1,100,137693
1574949925.469365,172840.667,29793,3,PI,1,100,137692
1574949925.507661,172873.000,29793,3,PI,1,100,137717
1574949925.547536,172906.667,29809,3,PI,1,100,137754
1574949925.587411,172940.333,29809,3,PI,1,100,137760
1574949925.627286,172974.000,29809,3,PI,1,100,137819
1574949925.671899,173011.667,29827,3,PI,1,100,137886
1574949925.716511,173049.333,29827,3,PI,1,100,137965
1574949925.761124,173087.000,29827,3,PI,1,100,137772
1574949925.797841,173118.000,29845,3,PI,1,100,137548
1574949925.834558,173149.000,29845,3,PI,1,100,137480
1574949925.871274,173180.000,29845,3,PI,1,100,137490
1574949925.912729,173215.000,29864,3,PI,1,100,137520
1574949925.954183,173250.000,29864,3,PI,1,100,137552
1574949925.995637,173285.000,29864,3,PI,1,100,137575
1574949926.036697,173319.667,29882,3,PI,1,100,137586
1574949926.077756,173354.333,29882,3,PI,1,100,137581
1574949926.118816,173389.000,29882,3,PI,1,100,137543
1574949926.157112,173421.333,29900,3,PI,1,100,137580
1574949926.195408,173453.667,29900,3,PI,1,100,137634
1574949926.233704,173486.000,29900,3,PI,1,100,137683
1574949926.275158,173521.000,29918,3,PI,1,100,137720
1574949926.316612,173556.000,29918,3,PI,1,100,137747
1574949926.358067,173591.000,29918,3,PI,1,100,137795
1574949926.397152,173624.000,29936,3,PI,1,100,137804
1574949926.436238,173657.000,29936,3,PI,1,100,137873
1574949926.475323,173690.000,29936,3,PI,1,100,137907
1574949926.515988,173724.333,29953,3,PI,1,100,138011
1574949926.556653,173758.667,29953,3,PI,1,100,138099
1574949926.597317,173793.000,29953,3,PI,1,100,138099
1574949926.639166,173828.333,29971,3,PI,1,100,137913
1574949926.681015,173863.667,29971,3,PI,1,100,137770
1574949926.722864,173899.000,29971,3,PI,1,100,137769
1574949926.761950,173932.000,29987,3,PI,1,100,137824
1574949926.801035,173965.000,29987,3,PI,1,100,137856
1574949926.840121,173998.000,29987,3,PI,1,100,137872
1574949926.878022,174030.000,30006,3,PI,1,100,137954
1574949926.915923,174062.000,30006,3,PI,1,100,137905
1574949926.953824,174094.000,30006,3,PI,1,100,137930
1574949926.992910,174127.000,30024,3,PI,1,100,137903
1574949927.031995,174160.000,30024,3,PI,1,100,137953
1574949927.071081,174193.000,30024,3,PI,1,100,137985
1574949927.111746,174227.333,30042,3,PI,1,100,138038
1574949927.152410,174261.667,30042,3,PI,1,100,138101
1574949927.193075,174296.000,30042,3,PI,1,100,138135
1574949927.234529,174331.000,30060,3,PI,1,100,138168
1574949927.275984,174366.000,30060,3,PI,1,100,138186
1574949927.317438,174401.000,30060,3,PI,1,100,138222
1574949927.356523,174434.000,30078,3,PI,1,100,138322
1574949927.395609,174467.000,30078,3,PI,1,100,138391
1574949927.434694,174500.000,30078,3,PI,1,100,138468
1574949927.472990,174532.333,30096,3,PI,1,100,138320
1574949927.511286,174564.667,30096,3,PI,1,100,138220
1574949927.549582,174597.000,30096,3,PI,1,100,138186
1574949927.587878,174629.333,30114,3,PI,1,100,138190
1574949927.626174,174661.667,30114,3,PI,1,100,138245
1574949927.664470,174694.000,30114,3,PI,1,100,138320
1574949927.705134,174728.333,30131,3,PI,1,100,138355
1574949927.745799,174762.667,30131,3,PI,1,100,138297
1574949927.786464,174797.000,30131,3,PI,1,100,138326
1574949927.828708,174832.667,30149,3,PI,1,100,138287
1574949927.870952,174868.333,30149,3,PI,1,100,138373
1574949927.913196,174904.000,30149,3,PI,1,100,138380
1574949927.954255,174938.667,30166,3,PI,1,100,138420
1574949927.995315,174973.333,30166,3,PI,1,100,138473
1574949928.036374,175008.000,30166,3,PI,1,100,138517
1574949928.078618,175043.667,30184,3,PI,1,100,138521
1574949928.120862,175079.333,30184,3,PI,1,100,138579
1574949928.163106,175115.000,30184,3,PI,1,100,138627
1574949928.203771,175149.333,30202,3,PI,1,100,138651
1574949928.244435,175183.667,30202,3,PI,1,100,138712
1574949928.285100,175218.000,30202,3,PI,1,100,138869
1574949928.324580,175251.333,30220,3,PI,1,100,138850
1574949928.364061,175284.667,30220,3,PI,1,100,138744
1574949928.403541,175318.000,30220,3,PI,1,100,138664
1574949928.443811,175352.000,30238,2,PI,1,100,138632
1574949928.484081,175386.000,30238,2,PI,1,100,138640
1574949928.526127,175421.500,30256,4,PI,1,100,138741
1574949928.568174,175457.000,30256,4,PI,1,100,138802
1574949928.610220,175492.500,30256,4,PI,1,100,138807
1574949928.652267,175528.000,30256,4,PI,1,100,138772
1574949928.693129,175562.500,30273,2,PI,1,100,138780
1574949928.733991,175597.000,30273,2,PI,1,100,138795
1574949928.776235,175632.667,30289,3,PI,1,100,138826
1574949928.818479,175668.333,30289,3,PI,1,100,138815
1574949928.860723,175704.000,30289,3,PI,1,100,138899
1574949928.901782,175738.667,30308,3,PI,1,100,138952
1574949928.942842,175773.333,30308,3,PI,1,100,138974
1574949928.983902,175808.000,30308,3,PI,1,100,138959
1574949929.024566,175842.333,30326,3,PI,1,100,139077
1574949929.065231,175876.667,30326,3,PI,1,100,139043
1574949929.105896,175911.000,30326,3,PI,1,100,139138
1574949929.143797,175943.000,30344,3,PI,1,100,139112
1574949929.181698,175975.000,30344,3,PI,1,100,139194
1574949929.219599,176007.000,30344,3,PI,1,100,139352
1574949929.262632,176043.333,30362,3,PI,1,100,139279
1574949929.305666,176079.667,30362,3,PI,1,100,139151
1574949929.348699,176116.000,30362,3,PI,1,100,139054
1574949929.385416,176147.000,30380,3,PI,1,100,138998
1574949929.422133,176178.000,30380,3,PI,1,100,138973
1574949929.458849,176209.000,30380,3,PI,1,100,139068
1574949929.498724,176242.667,30398,3,PI,1,100,139129
1574949929.538600,176276.333,30398,3,PI,1,100,139110
1574949929.578475,176310.000,30398,3,PI,1,100,139038
1574949929.618745,176344.000,30416,3,PI,1,100,139068
1574949929.659014,176378.000,30416,3,PI,1,100,139041
1574949929.699285,176412.000,30416,3,PI,1,100,139103
1574949929.740739,176447.000,30433,3,PI,1,100,139089
1574949929.782193,176482.000,30433,3,PI,1,100,139107
1574949929.823647,176517.000,30433,3,PI,1,100,139157
1574949929.867471,176554.000,30449,3,PI,1,100,139157
1574949929.911294,176591.000,30449,3,PI,1,100,139221
1574949929.955117,176628.000,30449,3,PI,1,100,139246
1574949929.992623,176659.667,30468,3,PI,1,100,139231
1574949930.030129,176691.333,30468,3,PI,1,100,139205
1574949930.067636,176723.000,30468,3,PI,1,100,139318
1574949930.107116,176756.333,30486,3,PI,1,100,139390
1574949930.146596,176789.667,30486,3,PI,1,100,139368
1574949930.186077,176823.000,30486,3,PI,1,100,139116
1574949930.226741,176857.333,30504,3,PI,1,100,138974
1574949930.267406,176891.667,30504,3,PI,1,100,138952
1574949930.308071,176926.000,30504,3,PI,1,100,138904
1574949930.348735,176960.333,30522,3,PI,1,100,138909
1574949930.389400,176994.667,30522,3,PI,1,100,138916
1574949930.430065,177029.000,30522,3,PI,1,100,138835
1574949930.470730,177063.333,30540,3,PI,1,100,138700
1574949930.511394,177097.667,30540,3,PI,1,100,138671
1574949930.552059,177132.000,30540,3,PI,1,100,138674
1574949930.589565,177163.667,30558,3,PI,1,100,138656
1574949930.627072,177195.333,30558,3,PI,1,100,138652
1574949930.664578,177227.000,30558,3,PI,1,100,138605
1574949930.704058,177260.333,30576,3,PI,1,100,138600
1574949930.743538,177293.667,30576,3,PI,1,100,138621
1574949930.783019,177327.000,30576,3,PI,1,100,138644
1574949930.823684,177361.333,30594,3,PI,1,100,138674
1574949930.864348,177395.667,30594,3,PI,1,100,138642
1574949930.905013,177430.000,30594,3,PI,1,100,138592
1574949930.946072,177464.667,30612,3,PI,1,100,138605
