EpochTimestamp,EmotiBitTimestamp,PacketNumber,DataLength,TypeTag,ProtocolVersion,DataReliability,PR
1574949840.700419,101270.000,17236,6,PR,1,100,153272
1574949840.700419,101270.000,17236,6,PR,1,100,153324
1574949840.700419,101270.000,17236,6,PR,1,100,153354
1574949840.700419,101270.000,17236,6,PR,1,100,153304
1574949840.700419,101270.000,17236,6,PR,1,100,153370
1574949840.700419,101270.000,17236,6,PR,1,100,153383
1574949840.741873,101305.000,17254,3,PR,1,100,153396
1574949840.783327,101340.000,17254,3,PR,1,100,153393
1574949840.824782,101375.000,17254,3,PR,1,100,153398
1574949840.869789,101413.000,17271,3,PR,1,100,153440
1574949840.914797,101451.000,17271,3,PR,1,100,153438
1574949840.959804,101489.000,17271,3,PR,1,100,153436
1574949840.997705,101521.000,17290,3,PR,1,100,153444
1574949841.035606,101553.000,17290,3,PR,1,100,153442
1574949841.073508,101585.000,17290,3,PR,1,100,153472
1574949841.111803,101617.333,17308,3,PR,1,100,153489
1574949841.150099,101649.667,17308,3,PR,1,100,153517
1574949841.188395,101682.000,17308,3,PR,1,100,153567
1574949841.228270,101715.667,17324,3,PR,1,100,153412
1574949841.268145,101749.333,17324,3,PR,1,100,153182
1574949841.308021,101783.000,17324,3,PR,1,100,153136
1574949841.348290,101817.000,17342,3,PR,1,100,153204
1574949841.388560,101851.000,17342,3,PR,1,100,153267
1574949841.428830,101885.000,17342,3,PR,1,100,153323
1574949841.470679,101920.333,17360,3,PR,1,100,153329
1574949841.512528,101955.667,17360,3,PR,1,100,153294
1574949841.554378,101991.000,17360,3,PR,1,100,153251
1574949841.592279,102023.000,17378,3,PR,1,100,153235
1574949841.630180,102055.000,17378,3,PR,1,100,153332
1574949841.668081,102087.000,17378,3,PR,1,100,153310
1574949841.705982,102119.000,17396,3,PR,1,100,153429
1574949841.743883,102151.000,17396,3,PR,1,100,153430
1574949841.781784,102183.000,17396,3,PR,1,100,153421
1574949841.821265,102216.333,17414,3,PR,1,100,153450
1574949841.860745,102249.667,17414,3,PR,1,100,153453
1574949841.900225,102283.000,17414,3,PR,1,100,153468
1574949841.940495,102317.000,17433,3,PR,1,100,153505
1574949841.980765,102351.000,17433,3,PR,1,100,153502
1574949842.021035,102385.000,17433,3,PR,1,100,153522
1574949842.062489,102420.000,17451,3,PR,1,100,153523
1574949842.103943,102455.000,17451,3,PR,1,100,153543
1574949842.145398,102490.000,17451,3,PR,1,100,153569
1574949842.185273,102523.667,17468,3,PR,1,100,153611
1574949842.225148,102557.333,17468,3,PR,1,100,153608
1574949842.265023,102591.000,17468,3,PR,1,100,153591
1574949842.303319,102623.333,17486,3,PR,1,100,153328
1574949842.341615,102655.667,17486,3,PR,1,100,153239
1574949842.379911,102688.000,17486,3,PR,1,100,153282
1574949842.418996,102721.000,17502,3,PR,1,100,153380
1574949842.458082,102754.000,17502,3,PR,1,100,153404
1574949842.497167,102787.000,17502,3,PR,1,100,153439
1574949842.537042,102820.667,17520,3,PR,1,100,153427
1574949842.576917,102854.333,17520,3,PR,1,100,153416
1574949842.616792,102888.000,17520,3,PR,1,100,153391
1574949842.659431,102924.000,17538,3,PR,1,100,153406
1574949842.702070,102960.000,17538,3,PR,1,100,153486
1574949842.744709,102996.000,17538,3,PR,1,100,153491
1574949842.783794,103029.000,17556,3,PR,1,100,153576
1574949842.822880,103062.000,17556,3,PR,1,100,153589
1574949842.861965,103095.000,17556,3,PR,1,100,153591
1574949842.899077,103126.333,17574,3,PR,1,100,153627
1574949842.936188,103157.667,17574,3,PR,1,100,153630
1574949842.973300,103189.000,17574,3,PR,1,100,153624
1574949843.012780,103222.333,17593,3,PR,1,100,153686
1574949843.052260,103255.667,17593,3,PR,1,100,153695
1574949843.091741,103289.000,17593,3,PR,1,100,153711
1574949843.135958,103326.333,17611,3,PR,1,100,153713
1574949843.180176,103363.667,17611,3,PR,1,100,153719
1574949843.224394,103401.000,17611,3,PR,1,100,153740
1574949843.265454,103435.667,17629,3,PR,1,100,153808
1574949843.306513,103470.333,17629,3,PR,1,100,153816
1574949843.347573,103505.000,17629,3,PR,1,100,153772
1574949843.388238,103539.333,17646,3,PR,1,100,153532
1574949843.428902,103573.667,17646,3,PR,1,100,153415
1574949843.469567,103608.000,17646,3,PR,1,100,153432
1574949843.506679,103639.333,17664,3,PR,1,100,153518
1574949843.543790,103670.667,17664,3,PR,1,100,153596
1574949843.580901,103702.000,17664,3,PR,1,100,153596
1574949843.620382,103735.333,17682,3,PR,1,100,153588
1574949843.659862,103768.667,17682,3,PR,1,100,153530
1574949843.699342,103802.000,17682,3,PR,1,100,153499
1574949843.740007,103836.333,17698,3,PR,1,100,153541
1574949843.780672,103870.667,17698,3,PR,1,100,153601
1574949843.821337,103905.000,17698,3,PR,1,100,153631
1574949843.862396,103939.667,17716,3,PR,1,100,153727
1574949843.903455,103974.333,17716,3,PR,1,100,153712
1574949843.944515,104009.000,17716,3,PR,1,100,153724
1574949843.985574,104043.667,17735,3,PR,1,100,153759
1574949844.026634,104078.333,17735,3,PR,1,100,153763
1574949844.067694,104113.000,17735,3,PR,1,100,153772
1574949844.105595,104145.000,17753,3,PR,1,100,153805
1574949844.143496,104177.000,17753,3,PR,1,100,153818
1574949844.181397,104209.000,17753,3,PR,1,100,153830
1574949844.219298,104241.000,17771,3,PR,1,100,153828
1574949844.257199,104273.000,17771,3,PR,1,100,153843
1574949844.295100,104305.000,17771,3,PR,1,100,153911
1574949844.334975,104338.667,17789,3,PR,1,100,153866
1574949844.374850,104372.333,17789,3,PR,1,100,153857
1574949844.414726,104406.000,17789,3,PR,1,100,153527
1574949844.455785,104440.667,17807,3,PR,1,100,153436
1574949844.496845,104475.333,17807,3,PR,1,100,153469
1574949844.537904,104510.000,17807,3,PR,1,100,153553
1574949844.580148,104545.667,17824,3,PR,1,100,153574
1574949844.622392,104581.333,17824,3,PR,1,100,153591
1574949844.664636,104617.000,17824,3,PR,1,100,153597
1574949844.703326,104649.667,17842,3,PR,1,100,153547
1574949844.742017,104682.333,17842,3,PR,1,100,153517
1574949844.780708,104715.000,17842,3,PR,1,100,153512
1574949844.818609,104747.000,17858,3,PR,1,100,153631
1574949844.856510,104779.000,17858,3,PR,1,100,153610
1574949844.894411,104811.000,17858,3,PR,1,100,153730
1574949844.938234,104848.000,17877,3,PR,1,100,153698
1574949844.982057,104885.000,17877,3,PR,1,100,153712
1574949845.025881,104922.000,17877,3,PR,1,100,153702
1574949845.066545,104956.333,17895,3,PR,1,100,153723
1574949845.107210,104990.667,17895,3,PR,1,100,153728
1574949845.147875,105025.000,17895,3,PR,1,100,153770
1574949845.189329,105060.000,17913,2,PR,1,100,153770
1574949845.230783,105095.000,17913,2,PR,1,100,153779
1574949845.270165,105128.250,17931,4,PR,1,100,153766
1574949845.309546,105161.500,17931,4,PR,1,100,153761
1574949845.348928,105194.750,17931,4,PR,1,100,153824
1574949845.388310,105228.000,17931,4,PR,1,100,153804
1574949845.425816,105259.667,17949,3,PR,1,100,153820
1574949845.463322,105291.333,17949,3,PR,1,100,153809
1574949845.500829,105323.000,17949,3,PR,1,100,153519
1574949845.540309,105356.333,17967,3,PR,1,100,153143
1574949845.579789,105389.667,17967,3,PR,1,100,152909
1574949845.619269,105423.000,17967,3,PR,1,100,152736
1574949845.659539,105457.000,17985,3,PR,1,100,152591
1574949845.699809,105491.000,17985,3,PR,1,100,152395
1574949845.740079,105525.000,17985,3,PR,1,100,152288
1574949845.781139,105559.667,18002,3,PR,1,100,151735
1574949845.822198,105594.333,18002,3,PR,1,100,150875
1574949845.863258,105629.000,18002,3,PR,1,100,150156
1574949845.903528,105663.000,18020,3,PR,1,100,149296
1574949845.943798,105697.000,18020,3,PR,1,100,148935
1574949845.984067,105731.000,18020,3,PR,1,100,148776
1574949846.021179,105762.333,18039,3,PR,1,100,148537
1574949846.058290,105793.667,18039,3,PR,1,100,148255
1574949846.095402,105825.000,18039,3,PR,1,100,147976
1574949846.135277,105858.667,18055,3,PR,1,100,148033
1574949846.175152,105892.333,18055,3,PR,1,100,148223
1574949846.215027,105926.000,18055,3,PR,1,100,147853
1574949846.255692,105960.333,18073,3,PR,1,100,146080
1574949846.296357,105994.667,18073,3,PR,1,100,132389
1574949846.337021,106029.000,18073,3,PR,1,100,130071
1574949846.377686,106063.333,18091,3,PR,1,100,136225
1574949846.418351,106097.667,18091,3,PR,1,100,136033
1574949846.459016,106132.000,18091,3,PR,1,100,137590
1574949846.500470,106167.000,18109,3,PR,1,100,139057
1574949846.541924,106202.000,18109,3,PR,1,100,140254
1574949846.583379,106237.000,18109,3,PR,1,100,141578
1574949846.620806,106268.600,18130,5,PR,1,100,141931
1574949846.658233,106300.200,18130,5,PR,1,100,140057
1574949846.695660,106331.800,18130,5,PR,1,100,132775
1574949846.733088,106363.400,18130,5,PR,1,100,142045
1574949846.770515,106395.000,18130,5,PR,1,100,142273
1574949846.810390,106428.667,18150,3,PR,1,100,142288
1574949846.850265,106462.333,18150,3,PR,1,100,142329
1574949846.890140,106496.000,18150,3,PR,1,100,142827
1574949846.931595,106531.000,18167,3,PR,1,100,142805
1574949846.973049,106566.000,18167,3,PR,1,100,142238
1574949847.014503,106601.000,18167,3,PR,1,100,135513
1574949847.055366,106635.500,18185,2,PR,1,100,140118
1574949847.096228,106670.000,18185,2,PR,1,100,143944
1574949847.139261,106706.333,18203,3,PR,1,100,144612
1574949847.182295,106742.667,18203,3,PR,1,100,145487
1574949847.225328,106779.000,18203,3,PR,1,100,146543
1574949847.263229,106811.000,18221,3,PR,1,100,147180
1574949847.301130,106843.000,18221,3,PR,1,100,147341
1574949847.339031,106875.000,18221,3,PR,1,100,148323
1574949847.374564,106905.000,18239,4,PR,1,100,148876
1574949847.410096,106935.000,18239,4,PR,1,100,149097
1574949847.445628,106965.000,18239,4,PR,1,100,149489
1574949847.481161,106995.000,18239,4,PR,1,100,149693
1574949847.519851,107027.667,18257,3,PR,1,100,149705
1574949847.558542,107060.333,18257,3,PR,1,100,149597
1574949847.597233,107093.000,18257,3,PR,1,100,149418
1574949847.636713,107126.333,18275,3,PR,1,100,149545
1574949847.676193,107159.667,18275,3,PR,1,100,149110
1574949847.715673,107193.000,18275,3,PR,1,100,148532
1574949847.756733,107227.667,18293,3,PR,1,100,148510
1574949847.797793,107262.333,18293,3,PR,1,100,148380
1574949847.838852,107297.000,18293,3,PR,1,100,148629
1574949847.879714,107331.500,18311,2,PR,1,100,149057
1574949847.920576,107366.000,18311,2,PR,1,100,149339
1574949847.962919,107401.750,18329,4,PR,1,100,149231
1574949848.005262,107437.500,18329,4,PR,1,100,149257
1574949848.047604,107473.250,18329,4,PR,1,100,149658
1574949848.089947,107509.000,18329,4,PR,1,100,149871
1574949848.131993,107544.500,18345,2,PR,1,100,149910
1574949848.174040,107580.000,18345,2,PR,1,100,149930
1574949848.212533,107612.500,18363,4,PR,1,100,150009
1574949848.251026,107645.000,18363,4,PR,1,100,150113
1574949848.289520,107677.500,18363,4,PR,1,100,150144
1574949848.328013,107710.000,18363,4,PR,1,100,150243
1574949848.366309,107742.333,18381,3,PR,1,100,150330
1574949848.404605,107774.667,18381,3,PR,1,100,150481
1574949848.442901,107807.000,18381,3,PR,1,100,150523
1574949848.482776,107840.667,18399,3,PR,1,100,150581
1574949848.522651,107874.333,18399,3,PR,1,100,150720
1574949848.562526,107908.000,18399,3,PR,1,100,150728
1574949848.602796,107942.000,18417,3,PR,1,100,150680
1574949848.643066,107976.000,18417,3,PR,1,100,150562
1574949848.683336,108010.000,18417,3,PR,1,100,150582
1574949848.730712,108050.000,18435,2,PR,1,100,150641
1574949848.778089,108090.000,18435,2,PR,1,100,150668
1574949848.817569,108123.333,18453,3,PR,1,100,150687
1574949848.857049,108156.667,18453,3,PR,1,100,150729
1574949848.896529,108190.000,18453,3,PR,1,100,150774
1574949848.934430,108222.000,18471,4,PR,1,100,150817
1574949848.972332,108254.000,18471,4,PR,1,100,150847
1574949849.010233,108286.000,18471,4,PR,1,100,150888
1574949849.048134,108318.000,18471,4,PR,1,100,150983
1574949849.088799,108352.333,18489,3,PR,1,100,151095
1574949849.129463,108386.667,18489,3,PR,1,100,151144
1574949849.170128,108421.000,18489,3,PR,1,100,151266
1574949849.210990,108455.500,18507,2,PR,1,100,151287
1574949849.251852,108490.000,18507,2,PR,1,100,151350
1574949849.293306,108525.000,18523,3,PR,1,100,151381
1574949849.334761,108560.000,18523,3,PR,1,100,151399
1574949849.376215,108595.000,18523,3,PR,1,100,151444
1574949849.416090,108628.667,18541,3,PR,1,100,151509
1574949849.455965,108662.333,18541,3,PR,1,100,151549
1574949849.495840,108696.000,18541,3,PR,1,100,151626
1574949849.533445,108727.750,18559,4,PR,1,100,151747
1574949849.571050,108759.500,18559,4,PR,1,100,151796
1574949849.608655,108791.250,18559,4,PR,1,100,151683
1574949849.646260,108823.000,18559,4,PR,1,100,151671
1574949849.686530,108857.000,18577,3,PR,1,100,151612
1574949849.726800,108891.000,18577,3,PR,1,100,151703
1574949849.767070,108925.000,18577,3,PR,1,100,151767
1574949849.807932,108959.500,18595,2,PR,1,100,151777
1574949849.848794,108994.000,18595,2,PR,1,100,151847
1574949849.889854,109028.667,18614,3,PR,1,100,151853
1574949849.930913,109063.333,18614,3,PR,1,100,151826
1574949849.971973,109098.000,18614,3,PR,1,100,151895
1574949850.012638,109132.333,18632,3,PR,1,100,151937
1574949850.053302,109166.667,18632,3,PR,1,100,151959
1574949850.093967,109201.000,18632,3,PR,1,100,152016
1574949850.130980,109232.250,18649,4,PR,1,100,152047
1574949850.167993,109263.500,18649,4,PR,1,100,152065
1574949850.205005,109294.750,18649,4,PR,1,100,152152
1574949850.242018,109326.000,18649,4,PR,1,100,152114
1574949850.283077,109360.667,18667,3,PR,1,100,152151
1574949850.324137,109395.333,18667,3,PR,1,100,152196
1574949850.365197,109430.000,18667,3,PR,1,100,152185
1574949850.402308,109461.333,18685,3,PR,1,100,152195
1574949850.439420,109492.667,18685,3,PR,1,100,152224
1574949850.476531,109524.000,18685,3,PR,1,100,152309
1574949850.517985,109559.000,18703,3,PR,1,100,152505
1574949850.559440,109594.000,18703,3,PR,1,100,152549
1574949850.600894,109629.000,18703,3,PR,1,100,152470
1574949850.642348,109664.000,18719,3,PR,1,100,152363
1574949850.683803,109699.000,18719,3,PR,1,100,152297
1574949850.725257,109734.000,18719,3,PR,1,100,152298
1574949850.767303,109769.500,18737,2,PR,1,100,152320
1574949850.809350,109805.000,18737,2,PR,1,100,152399
1574949850.850804,109840.000,18755,3,PR,1,100,152563
1574949850.892259,109875.000,18755,3,PR,1,100,152658
1574949850.933713,109910.000,18755,3,PR,1,100,152747
1574949850.975562,109945.333,18774,3,PR,1,100,152782
1574949851.017411,109980.667,18774,3,PR,1,100,152792
1574949851.059260,110016.000,18774,3,PR,1,100,152819
1574949851.100320,110050.667,18792,3,PR,1,100,152834
1574949851.141379,110085.333,18792,3,PR,1,100,152891
1574949851.182439,110120.000,18792,3,PR,1,100,152914
1574949851.219945,110151.667,18809,3,PR,1,100,152955
1574949851.257452,110183.333,18809,3,PR,1,100,152999
1574949851.294958,110215.000,18809,3,PR,1,100,153073
1574949851.336412,110250.000,18827,3,PR,1,100,153149
1574949851.377866,110285.000,18827,3,PR,1,100,153213
1574949851.419321,110320.000,18827,3,PR,1,100,153262
1574949851.461170,110355.333,18843,3,PR,1,100,153308
1574949851.503019,110390.667,18843,3,PR,1,100,153304
1574949851.544868,110426.000,18843,3,PR,1,100,153368
1574949851.582374,110457.667,18861,3,PR,1,100,153371
1574949851.619881,110489.333,18861,3,PR,1,100,153577
1574949851.657387,110521.000,18861,3,PR,1,100,153700
1574949851.700420,110557.333,18879,3,PR,1,100,153590
1574949851.743454,110593.667,18879,3,PR,1,100,153546
1574949851.786488,110630.000,18879,3,PR,1,100,153547
1574949851.821625,110659.667,18897,3,PR,1,100,153580
1574949851.856762,110689.333,18897,3,PR,1,100,153605
1574949851.891900,110719.000,18897,3,PR,1,100,153618
1574949851.931775,110752.667,18916,3,PR,1,100,153615
1574949851.971650,110786.333,18916,3,PR,1,100,153582
1574949852.011525,110820.000,18916,3,PR,1,100,153485
1574949852.051400,110853.667,18934,3,PR,1,100,153429
1574949852.091275,110887.333,18934,3,PR,1,100,153356
1574949852.131150,110921.000,18934,3,PR,1,100,153280
1574949852.172605,110956.000,18952,3,PR,1,100,153219
1574949852.214059,110991.000,18952,3,PR,1,100,153099
1574949852.255513,111026.000,18952,3,PR,1,100,153038
1574949852.296573,111060.667,18970,3,PR,1,100,153000
1574949852.337632,111095.333,18970,3,PR,1,100,152899
1574949852.378692,111130.000,18970,3,PR,1,100,153048
1574949852.419752,111164.667,18987,3,PR,1,100,152962
1574949852.460811,111199.333,18987,3,PR,1,100,152879
1574949852.501871,111234.000,18987,3,PR,1,100,152800
1574949852.539772,111266.000,19005,3,PR,1,100,152780
1574949852.577673,111298.000,19005,3,PR,1,100,152825
1574949852.615574,111330.000,19005,3,PR,1,100,153002
1574949852.655844,111364.000,19026,5,PR,1,100,153393
1574949852.696114,111398.000,19026,5,PR,1,100,153730
1574949852.736383,111432.000,19026,5,PR,1,100,153789
1574949852.776654,111466.000,19026,5,PR,1,100,153862
1574949852.816923,111500.000,19026,5,PR,1,100,153914
1574949852.858773,111535.333,19046,3,PR,1,100,154070
1574949852.900622,111570.667,19046,3,PR,1,100,154067
1574949852.942471,111606.000,19046,3,PR,1,100,154073
1574949852.981556,111639.000,19065,3,PR,1,100,154106
1574949853.020642,111672.000,19065,3,PR,1,100,154061
1574949853.059727,111705.000,19065,3,PR,1,100,154015
1574949853.098023,111737.333,19082,3,PR,1,100,154004
1574949853.136319,111769.667,19082,3,PR,1,100,154070
1574949853.174615,111802.000,19082,3,PR,1,100,154100
1574949853.213700,111835.000,19100,3,PR,1,100,154138
1574949853.252786,111868.000,19100,3,PR,1,100,154136
1574949853.291871,111901.000,19100,3,PR,1,100,154170
1574949853.332536,111935.333,19118,3,PR,1,100,154149
1574949853.373201,111969.667,19118,3,PR,1,100,154108
1574949853.413866,112004.000,19118,3,PR,1,100,154075
1574949853.455320,112039.000,19134,3,PR,1,100,154076
1574949853.496774,112074.000,19134,3,PR,1,100,154001
1574949853.538229,112109.000,19134,3,PR,1,100,154058
1574949853.577314,112142.000,19152,3,PR,1,100,154037
1574949853.616400,112175.000,19152,3,PR,1,100,154097
1574949853.655485,112208.000,19152,3,PR,1,100,154072
1574949853.693781,112240.333,19170,3,PR,1,100,153814
1574949853.732077,112272.667,19170,3,PR,1,100,153597
1574949853.770373,112305.000,19170,3,PR,1,100,153502
1574949853.808669,112337.333,19188,3,PR,1,100,153485
1574949853.846964,112369.667,19188,3,PR,1,100,153446
1574949853.885260,112402.000,19188,3,PR,1,100,153397
1574949853.925925,112436.333,19207,3,PR,1,100,153338
1574949853.966590,112470.667,19207,3,PR,1,100,153263
1574949854.007254,112505.000,19207,3,PR,1,100,153226
1574949854.048709,112540.000,19225,3,PR,1,100,153096
1574949854.090163,112575.000,19225,3,PR,1,100,153149
1574949854.131617,112610.000,19225,3,PR,1,100,153138
1574949854.173072,112645.000,19243,3,PR,1,100,153087
1574949854.214526,112680.000,19243,3,PR,1,100,153114
1574949854.255980,112715.000,19243,3,PR,1,100,153085
1574949854.293881,112747.000,19260,3,PR,1,100,153045
1574949854.331783,112779.000,19260,3,PR,1,100,153055
1574949854.369684,112811.000,19260,3,PR,1,100,153027
1574949854.409164,112844.333,19278,3,PR,1,100,152977
1574949854.448644,112877.667,19278,3,PR,1,100,152975
1574949854.488125,112911.000,19278,3,PR,1,100,152959
1574949854.526815,112943.667,19296,3,PR,1,100,152984
1574949854.565506,112976.333,19296,3,PR,1,100,152955
1574949854.604197,113009.000,19296,3,PR,1,100,152992
1574949854.643282,113042.000,19312,3,PR,1,100,152975
1574949854.682368,113075.000,19312,3,PR,1,100,152742
1574949854.721453,113108.000,19312,3,PR,1,100,152515
1574949854.758565,113139.333,19330,3,PR,1,100,152393
1574949854.795676,113170.667,19330,3,PR,1,100,152366
1574949854.832788,113202.000,19330,3,PR,1,100,152370
1574949854.874242,113237.000,19349,3,PR,1,100,152396
1574949854.915696,113272.000,19349,3,PR,1,100,152391
1574949854.957150,113307.000,19349,3,PR,1,100,152362
1574949854.993867,113338.000,19367,3,PR,1,100,152312
1574949855.030584,113369.000,19367,3,PR,1,100,152287
1574949855.067301,113400.000,19367,3,PR,1,100,152315
1574949855.105202,113432.000,19385,4,PR,1,100,152321
1574949855.143103,113464.000,19385,4,PR,1,100,152327
1574949855.181004,113496.000,19385,4,PR,1,100,152350
1574949855.218905,113528.000,19385,4,PR,1,100,152356
1574949855.259175,113562.000,19403,3,PR,1,100,152372
1574949855.299445,113596.000,19403,3,PR,1,100,152415
1574949855.339715,113630.000,19403,3,PR,1,100,152334
1574949855.379985,113664.000,19421,3,PR,1,100,152408
1574949855.420254,113698.000,19421,3,PR,1,100,152365
1574949855.460524,113732.000,19421,3,PR,1,100,152348
1574949855.507901,113772.000,19439,2,PR,1,100,152368
1574949855.555277,113812.000,19439,2,PR,1,100,152416
1574949855.593178,113844.000,19456,3,PR,1,100,152422
1574949855.631079,113876.000,19456,3,PR,1,100,152423
1574949855.668980,113908.000,19456,3,PR,1,100,152279
1574949855.710435,113943.000,19474,3,PR,1,100,152145
1574949855.751889,113978.000,19474,3,PR,1,100,152063
1574949855.793343,114013.000,19474,3,PR,1,100,152071
1574949855.834008,114047.333,19490,3,PR,1,100,152130
1574949855.874673,114081.667,19490,3,PR,1,100,152169
1574949855.915338,114116.000,19490,3,PR,1,100,152188
1574949855.952844,114147.667,19509,3,PR,1,100,152153
1574949855.990350,114179.333,19509,3,PR,1,100,152074
1574949856.027856,114211.000,19509,3,PR,1,100,152122
1574949856.067337,114244.333,19527,3,PR,1,100,152087
1574949856.106817,114277.667,19527,3,PR,1,100,152168
1574949856.146297,114311.000,19527,3,PR,1,100,152200
1574949856.190515,114348.333,19545,3,PR,1,100,152199
1574949856.234733,114385.667,19545,3,PR,1,100,152226
1574949856.278951,114423.000,19545,3,PR,1,100,152246
1574949856.319616,114457.333,19563,3,PR,1,100,152246
1574949856.360281,114491.667,19563,3,PR,1,100,152280
1574949856.400945,114526.000,19563,3,PR,1,100,152280
1574949856.441215,114560.000,19581,3,PR,1,100,152262
1574949856.481485,114594.000,19581,3,PR,1,100,152261
1574949856.521755,114628.000,19581,3,PR,1,100,152270
1574949856.559261,114659.667,19599,3,PR,1,100,152316
1574949856.596767,114691.333,19599,3,PR,1,100,152375
1574949856.634274,114723.000,19599,3,PR,1,100,152256
1574949856.673754,114756.333,19617,3,PR,1,100,152094
1574949856.713234,114789.667,19617,3,PR,1,100,151949
1574949856.752715,114823.000,19617,3,PR,1,100,151939
1574949856.793379,114857.333,19634,3,PR,1,100,151966
1574949856.834044,114891.667,19634,3,PR,1,100,151997
1574949856.874709,114926.000,19634,3,PR,1,100,152021
1574949856.915768,114960.667,19653,3,PR,1,100,151999
1574949856.956828,114995.333,19653,3,PR,1,100,151959
1574949856.997887,115030.000,19653,3,PR,1,100,151935
1574949857.039342,115065.000,19669,3,PR,1,100,151911
1574949857.080796,115100.000,19669,3,PR,1,100,151914
1574949857.122250,115135.000,19669,3,PR,1,100,152025
1574949857.159757,115166.667,19687,3,PR,1,100,152020
1574949857.197263,115198.333,19687,3,PR,1,100,152068
1574949857.234769,115230.000,19687,3,PR,1,100,152088
1574949857.273855,115263.000,19705,3,PR,1,100,152084
1574949857.312940,115296.000,19705,3,PR,1,100,152095
1574949857.352026,115329.000,19705,3,PR,1,100,152121
1574949857.391506,115362.333,19723,3,PR,1,100,152140
1574949857.430986,115395.667,19723,3,PR,1,100,152184
1574949857.470467,115429.000,19723,3,PR,1,100,152218
1574949857.511526,115463.667,19741,3,PR,1,100,152231
1574949857.552586,115498.333,19741,3,PR,1,100,152252
1574949857.593645,115533.000,19741,3,PR,1,100,152267
1574949857.635889,115568.667,19759,3,PR,1,100,152249
1574949857.678133,115604.333,19759,3,PR,1,100,152114
1574949857.720377,115640.000,19759,3,PR,1,100,151913
1574949857.757488,115671.333,19777,3,PR,1,100,151936
1574949857.794600,115702.667,19777,3,PR,1,100,151928
1574949857.831711,115734.000,19777,3,PR,1,100,151988
1574949857.870402,115766.667,19796,3,PR,1,100,151991
1574949857.909093,115799.333,19796,3,PR,1,100,151971
1574949857.947783,115832.000,19796,3,PR,1,100,151960
1574949857.988843,115866.667,19813,3,PR,1,100,151949
1574949858.029902,115901.333,19813,3,PR,1,100,151909
1574949858.070962,115936.000,19813,3,PR,1,100,151961
1574949858.112021,115970.667,19831,3,PR,1,100,151983
1574949858.153081,116005.333,19831,3,PR,1,100,151972
1574949858.194140,116040.000,19831,3,PR,1,100,151995
1574949858.235990,116075.333,19847,3,PR,1,100,152046
1574949858.277839,116110.667,19847,3,PR,1,100,152050
1574949858.319688,116146.000,19847,3,PR,1,100,152057
1574949858.361537,116181.333,19865,3,PR,1,100,152019
1574949858.403386,116216.667,19865,3,PR,1,100,152099
1574949858.445235,116252.000,19865,3,PR,1,100,152059
1574949858.486690,116287.000,19883,3,PR,1,100,152095
1574949858.528144,116322.000,19883,3,PR,1,100,152098
1574949858.569598,116357.000,19883,3,PR,1,100,152115
1574949858.605130,116387.000,19901,2,PR,1,100,152064
1574949858.640663,116417.000,19901,2,PR,1,100,151912
1574949858.681880,116451.800,19922,5,PR,1,100,151868
1574949858.723098,116486.600,19922,5,PR,1,100,151882
1574949858.764315,116521.400,19922,5,PR,1,100,151984
1574949858.805532,116556.200,19922,5,PR,1,100,151981
1574949858.846750,116591.000,19922,5,PR,1,100,152029
1574949858.887810,116625.667,19943,3,PR,1,100,151982
1574949858.928869,116660.333,19943,3,PR,1,100,151935
1574949858.969929,116695.000,19943,3,PR,1,100,152024
1574949859.010593,116729.333,19961,3,PR,1,100,151944
1574949859.051258,116763.667,19961,3,PR,1,100,152057
1574949859.091923,116798.000,19961,3,PR,1,100,152083
1574949859.134956,116834.333,19979,3,PR,1,100,152076
1574949859.177990,116870.667,19979,3,PR,1,100,152115
1574949859.221023,116907.000,19979,3,PR,1,100,152142
1574949859.262083,116941.667,19997,3,PR,1,100,152167
1574949859.303142,116976.333,19997,3,PR,1,100,152144
1574949859.344202,117011.000,19997,3,PR,1,100,152161
1574949859.384472,117045.000,20015,3,PR,1,100,152191
1574949859.424742,117079.000,20015,3,PR,1,100,152158
1574949859.465011,117113.000,20015,3,PR,1,100,152038
1574949859.503307,117145.333,20032,3,PR,1,100,151975
1574949859.541603,117177.667,20032,3,PR,1,100,151952
1574949859.579899,117210.000,20032,3,PR,1,100,151994
1574949859.618590,117242.667,20050,3,PR,1,100,152034
1574949859.657280,117275.333,20050,3,PR,1,100,152044
1574949859.695971,117308.000,20050,3,PR,1,100,152084
1574949859.736636,117342.333,20068,3,PR,1,100,152045
1574949859.777301,117376.667,20068,3,PR,1,100,152027
1574949859.817965,117411.000,20068,3,PR,1,100,152073
1574949859.862578,117448.667,20084,3,PR,1,100,152081
1574949859.907191,117486.333,20084,3,PR,1,100,152098
1574949859.951803,117524.000,20084,3,PR,1,100,152135
1574949859.993258,117559.000,20103,2,PR,1,100,152160
1574949860.034712,117594.000,20103,2,PR,1,100,152197
1574949860.072909,117626.250,20121,4,PR,1,100,152203
1574949860.111107,117658.500,20121,4,PR,1,100,152222
1574949860.149304,117690.750,20121,4,PR,1,100,152235
1574949860.187501,117723.000,20121,4,PR,1,100,152248
1574949860.225797,117755.333,20139,3,PR,1,100,152224
1574949860.264093,117787.667,20139,3,PR,1,100,152299
1574949860.302389,117820.000,20139,3,PR,1,100,152145
1574949860.342264,117853.667,20157,3,PR,1,100,152038
1574949860.382139,117887.333,20157,3,PR,1,100,151993
1574949860.422014,117921.000,20157,3,PR,1,100,151983
1574949860.463863,117956.333,20175,3,PR,1,100,152051
1574949860.505712,117991.667,20175,3,PR,1,100,152045
1574949860.547561,118027.000,20175,3,PR,1,100,152046
1574949860.589016,118062.000,20193,2,PR,1,100,152071
1574949860.630470,118097.000,20193,2,PR,1,100,152082
1574949860.669259,118129.750,20210,4,PR,1,100,152059
1574949860.708049,118162.500,20210,4,PR,1,100,152060
1574949860.746838,118195.250,20210,4,PR,1,100,152086
1574949860.785628,118228.000,20210,4,PR,1,100,152095
1574949860.823134,118259.667,20228,3,PR,1,100,152188
1574949860.860640,118291.333,20228,3,PR,1,100,152109
1574949860.898146,118323.000,20228,3,PR,1,100,152249
1574949860.938416,118357.000,20247,3,PR,1,100,152230
1574949860.978686,118391.000,20247,3,PR,1,100,152221
1574949861.018956,118425.000,20247,3,PR,1,100,152249
1574949861.060410,118460.000,20263,3,PR,1,100,152272
1574949861.101865,118495.000,20263,3,PR,1,100,152262
1574949861.143319,118530.000,20263,3,PR,1,100,152330
1574949861.184379,118564.667,20281,3,PR,1,100,152331
1574949861.225438,118599.333,20281,3,PR,1,100,152206
1574949861.266498,118634.000,20281,3,PR,1,100,152051
1574949861.305188,118666.667,20299,3,PR,1,100,151994
1574949861.343879,118699.333,20299,3,PR,1,100,152009
1574949861.382570,118732.000,20299,3,PR,1,100,152052
1574949861.419286,118763.000,20317,3,PR,1,100,152034
1574949861.456003,118794.000,20317,3,PR,1,100,152119
1574949861.492720,118825.000,20317,3,PR,1,100,152063
1574949861.532990,118859.000,20335,3,PR,1,100,152052
1574949861.573260,118893.000,20335,3,PR,1,100,152050
1574949861.613529,118927.000,20335,3,PR,1,100,152078
1574949861.654984,118962.000,20353,3,PR,1,100,152095
1574949861.696438,118997.000,20353,3,PR,1,100,152157
1574949861.737892,119032.000,20353,3,PR,1,100,152167
1574949861.779742,119067.333,20371,3,PR,1,100,152181
1574949861.821591,119102.667,20371,3,PR,1,100,152193
1574949861.863440,119138.000,20371,3,PR,1,100,152189
1574949861.901736,119170.333,20389,3,PR,1,100,152231
1574949861.940032,119202.667,20389,3,PR,1,100,152264
1574949861.978328,119235.000,20389,3,PR,1,100,152260
1574949862.020571,119270.667,20407,3,PR,1,100,152299
1574949862.062815,119306.333,20407,3,PR,1,100,152276
1574949862.105059,119342.000,20407,3,PR,1,100,152374
1574949862.143355,119374.333,20423,3,PR,1,100,152313
1574949862.181651,119406.667,20423,3,PR,1,100,152421
1574949862.219947,119439.000,20423,3,PR,1,100,152401
1574949862.263770,119476.000,20441,2,PR,1,100,152329
1574949862.307593,119513.000,20441,2,PR,1,100,152146
1574949862.344606,119544.250,20459,4,PR,1,100,152069
1574949862.381619,119575.500,20459,4,PR,1,100,152164
1574949862.418632,119606.750,20459,4,PR,1,100,152160
1574949862.455644,119638.000,20459,4,PR,1,100,152217
1574949862.498678,119674.333,20477,3,PR,1,100,152179
1574949862.541711,119710.667,20477,3,PR,1,100,152217
1574949862.584745,119747.000,20477,3,PR,1,100,152173
1574949862.623041,119779.333,20495,3,PR,1,100,152165
1574949862.661337,119811.667,20495,3,PR,1,100,152193
1574949862.699633,119844.000,20495,3,PR,1,100,152180
1574949862.737928,119876.333,20513,3,PR,1,100,152303
1574949862.776224,119908.667,20513,3,PR,1,100,152270
1574949862.814520,119941.000,20513,3,PR,1,100,152288
1574949862.856369,119976.333,20531,3,PR,1,100,152306
1574949862.898218,120011.667,20531,3,PR,1,100,152333
1574949862.940068,120047.000,20531,3,PR,1,100,152358
1574949862.976784,120078.000,20550,3,PR,1,100,152373
1574949863.013501,120109.000,20550,3,PR,1,100,152365
1574949863.050218,120140.000,20550,3,PR,1,100,152397
1574949863.089698,120173.333,20567,3,PR,1,100,152397
1574949863.129178,120206.667,20567,3,PR,1,100,152435
1574949863.168658,120240.000,20567,3,PR,1,100,152445
1574949863.207744,120273.000,20585,3,PR,1,100,152463
1574949863.246830,120306.000,20585,3,PR,1,100,152468
1574949863.285915,120339.000,20585,3,PR,1,100,152495
1574949863.327369,120374.000,20603,3,PR,1,100,152382
1574949863.368824,120409.000,20603,3,PR,1,100,152327
1574949863.410278,120444.000,20603,3,PR,1,100,152153
1574949863.451732,120479.000,20619,3,PR,1,100,152246
1574949863.493187,120514.000,20619,3,PR,1,100,152296
1574949863.534641,120549.000,20619,3,PR,1,100,152322
1574949863.576095,120584.000,20637,3,PR,1,100,152344
1574949863.617550,120619.000,20637,3,PR,1,100,152339
1574949863.659004,120654.000,20637,3,PR,1,100,152322
1574949863.701051,120689.500,20655,2,PR,1,100,152270
1574949863.743097,120725.000,20655,2,PR,1,100,152291
1574949863.781590,120757.500,20673,4,PR,1,100,152327
1574949863.820084,120790.000,20673,4,PR,1,100,152358
1574949863.858577,120822.500,20673,4,PR,1,100,152404
1574949863.897070,120855.000,20673,4,PR,1,100,152445
1574949863.935366,120887.333,20692,3,PR,1,100,152448
1574949863.973662,120919.667,20692,3,PR,1,100,152460
1574949864.011958,120952.000,20692,3,PR,1,100,152461
1574949864.051438,120985.333,20710,3,PR,1,100,152454
1574949864.090919,121018.667,20710,3,PR,1,100,152504
1574949864.130399,121052.000,20710,3,PR,1,100,152519
1574949864.171458,121086.667,20727,3,PR,1,100,152527
1574949864.212518,121121.333,20727,3,PR,1,100,152571
1574949864.253577,121156.000,20727,3,PR,1,100,152552
1574949864.300954,121196.000,20745,2,PR,1,100,152561
1574949864.348330,121236.000,20745,2,PR,1,100,152596
1574949864.387415,121269.000,20761,3,PR,1,100,152576
1574949864.426501,121302.000,20761,3,PR,1,100,152401
1574949864.465586,121335.000,20761,3,PR,1,100,152246
1574949864.503488,121367.000,20779,4,PR,1,100,152224
1574949864.541389,121399.000,20779,4,PR,1,100,152265
1574949864.579290,121431.000,20779,4,PR,1,100,152280
1574949864.617191,121463.000,20779,4,PR,1,100,152267
1574949864.657461,121497.000,20797,3,PR,1,100,152328
1574949864.697731,121531.000,20797,3,PR,1,100,152224
1574949864.738001,121565.000,20797,3,PR,1,100,152288
1574949864.779159,121599.750,20818,4,PR,1,100,152248
1574949864.820317,121634.500,20818,4,PR,1,100,152244
1574949864.861475,121669.250,20818,4,PR,1,100,152311
1574949864.902633,121704.000,20818,4,PR,1,100,152318
1574949864.944088,121739.000,20839,3,PR,1,100,152329
1574949864.985542,121774.000,20839,3,PR,1,100,152385
1574949865.026996,121809.000,20839,3,PR,1,100,152390
1574949865.064503,121840.667,20857,3,PR,1,100,152392
1574949865.102009,121872.333,20857,3,PR,1,100,152379
1574949865.139515,121904.000,20857,3,PR,1,100,152374
1574949865.177416,121936.000,20873,3,PR,1,100,152393
1574949865.215317,121968.000,20873,3,PR,1,100,152430
1574949865.253218,122000.000,20873,3,PR,1,100,152411
1574949865.293883,122034.333,20891,3,PR,1,100,152504
1574949865.334548,122068.667,20891,3,PR,1,100,152467
1574949865.375213,122103.000,20891,3,PR,1,100,152474
1574949865.415483,122137.000,20909,3,PR,1,100,152492
1574949865.455752,122171.000,20909,3,PR,1,100,152524
1574949865.496022,122205.000,20909,3,PR,1,100,152482
1574949865.537082,122239.667,20927,3,PR,1,100,152304
1574949865.578141,122274.333,20927,3,PR,1,100,152143
1574949865.619201,122309.000,20927,3,PR,1,100,152123
1574949865.657497,122341.333,20945,3,PR,1,100,152147
1574949865.695793,122373.667,20945,3,PR,1,100,152167
1574949865.734089,122406.000,20945,3,PR,1,100,152212
1574949865.771990,122438.000,20963,3,PR,1,100,152208
1574949865.809891,122470.000,20963,3,PR,1,100,152171
1574949865.847792,122502.000,20963,3,PR,1,100,152146
1574949865.889246,122537.000,20982,3,PR,1,100,152123
1574949865.930701,122572.000,20982,3,PR,1,100,152138
1574949865.972155,122607.000,20982,3,PR,1,100,152187
1574949866.010845,122639.667,21000,3,PR,1,100,152218
1574949866.049536,122672.333,21000,3,PR,1,100,152241
1574949866.088227,122705.000,21000,3,PR,1,100,152262
1574949866.125536,122736.500,21017,4,PR,1,100,152275
1574949866.162845,122768.000,21017,4,PR,1,100,152306
1574949866.200154,122799.500,21017,4,PR,1,100,152297
1574949866.237463,122831.000,21017,4,PR,1,100,152314
1574949866.283654,122870.000,21035,2,PR,1,100,152320
1574949866.329846,122909.000,21035,2,PR,1,100,152345
1574949866.366563,122940.000,21051,4,PR,1,100,152364
1574949866.403280,122971.000,21051,4,PR,1,100,152383
1574949866.439996,123002.000,21051,4,PR,1,100,152406
1574949866.476713,123033.000,21051,4,PR,1,100,152431
1574949866.524682,123073.500,21069,2,PR,1,100,152429
1574949866.572650,123114.000,21069,2,PR,1,100,152469
1574949866.608775,123144.500,21087,4,PR,1,100,152491
1574949866.644899,123175.000,21087,4,PR,1,100,152294
1574949866.681024,123205.500,21087,4,PR,1,100,152117
1574949866.717148,123236.000,21087,4,PR,1,100,152063
1574949866.757813,123270.333,21105,3,PR,1,100,152125
1574949866.798478,123304.667,21105,3,PR,1,100,152187
1574949866.839142,123339.000,21105,3,PR,1,100,152209
1574949866.880004,123373.500,21123,2,PR,1,100,152201
1574949866.920866,123408.000,21123,2,PR,1,100,152137
1574949866.962716,123443.333,21142,3,PR,1,100,152089
1574949867.004565,123478.667,21142,3,PR,1,100,152136
1574949867.046414,123514.000,21142,3,PR,1,100,152107
1574949867.085499,123547.000,21160,3,PR,1,100,152198
1574949867.124585,123580.000,21160,3,PR,1,100,152180
1574949867.163670,123613.000,21160,3,PR,1,100,152188
1574949867.204730,123647.667,21178,3,PR,1,100,152245
1574949867.245789,123682.333,21178,3,PR,1,100,152250
1574949867.286849,123717.000,21178,3,PR,1,100,152254
1574949867.324750,123749.000,21195,4,PR,1,100,152308
1574949867.362651,123781.000,21195,4,PR,1,100,152317
1574949867.400552,123813.000,21195,4,PR,1,100,152302
1574949867.438453,123845.000,21195,4,PR,1,100,152297
1574949867.478328,123878.667,21213,3,PR,1,100,152329
1574949867.518203,123912.333,21213,3,PR,1,100,152329
1574949867.558079,123946.000,21213,3,PR,1,100,152355
1574949867.597954,123979.667,21229,3,PR,1,100,152387
1574949867.637829,124013.333,21229,3,PR,1,100,152306
1574949867.677704,124047.000,21229,3,PR,1,100,152106
1574949867.718566,124081.500,21247,2,PR,1,100,152037
1574949867.759428,124116.000,21247,2,PR,1,100,152016
1574949867.800882,124151.000,21265,3,PR,1,100,152132
1574949867.842337,124186.000,21265,3,PR,1,100,152137
1574949867.883791,124221.000,21265,3,PR,1,100,152157
1574949867.925245,124256.000,21284,3,PR,1,100,152167
1574949867.966700,124291.000,21284,3,PR,1,100,152135
1574949868.008154,124326.000,21284,3,PR,1,100,152114
1574949868.046055,124358.000,21302,3,PR,1,100,152094
1574949868.083956,124390.000,21302,3,PR,1,100,152128
1574949868.121857,124422.000,21302,3,PR,1,100,152172
1574949868.162127,124456.000,21320,3,PR,1,100,152195
1574949868.202397,124490.000,21320,3,PR,1,100,152187
1574949868.242667,124524.000,21320,3,PR,1,100,152224
1574949868.283726,124558.667,21338,3,PR,1,100,152208
1574949868.324786,124593.333,21338,3,PR,1,100,152294
1574949868.365845,124628.000,21338,3,PR,1,100,152287
1574949868.406510,124662.333,21356,3,PR,1,100,152298
1574949868.447175,124696.667,21356,3,PR,1,100,152340
1574949868.487840,124731.000,21356,3,PR,1,100,152362
1574949868.526530,124763.667,21373,3,PR,1,100,152374
1574949868.565221,124796.333,21373,3,PR,1,100,152421
1574949868.603912,124829.000,21373,3,PR,1,100,152428
1574949868.641813,124861.000,21391,3,PR,1,100,152350
1574949868.679714,124893.000,21391,3,PR,1,100,152141
1574949868.717615,124925.000,21391,3,PR,1,100,152028
1574949868.757095,124958.333,21409,3,PR,1,100,152075
1574949868.796576,124991.667,21409,3,PR,1,100,152160
1574949868.836056,125025.000,21409,3,PR,1,100,152196
1574949868.877510,125060.000,21426,3,PR,1,100,152260
1574949868.918965,125095.000,21426,3,PR,1,100,152238
1574949868.960419,125130.000,21426,3,PR,1,100,152182
1574949869.001084,125164.333,21444,3,PR,1,100,152159
1574949869.041748,125198.667,21444,3,PR,1,100,152178
1574949869.082413,125233.000,21444,3,PR,1,100,152200
1574949869.121499,125266.000,21462,3,PR,1,100,152247
1574949869.160584,125299.000,21462,3,PR,1,100,152281
1574949869.199670,125332.000,21462,3,PR,1,100,152293
1574949869.237965,125364.333,21480,3,PR,1,100,152284
1574949869.276261,125396.667,21480,3,PR,1,100,152294
1574949869.314557,125429.000,21480,3,PR,1,100,152380
1574949869.353643,125462.000,21498,4,PR,1,100,152329
1574949869.392728,125495.000,21498,4,PR,1,100,152382
1574949869.431814,125528.000,21498,4,PR,1,100,152396
1574949869.470899,125561.000,21498,4,PR,1,100,152406
1574949869.512946,125596.500,21516,2,PR,1,100,152381
1574949869.554992,125632.000,21516,2,PR,1,100,152245
1574949869.596841,125667.333,21534,3,PR,1,100,152162
1574949869.638690,125702.667,21534,3,PR,1,100,152195
1574949869.680540,125738.000,21534,3,PR,1,100,152270
1574949869.721599,125772.667,21551,3,PR,1,100,152342
1574949869.762659,125807.333,21551,3,PR,1,100,152352
1574949869.803718,125842.000,21551,3,PR,1,100,152338
1574949869.845962,125877.667,21569,3,PR,1,100,152329
1574949869.888206,125913.333,21569,3,PR,1,100,152309
1574949869.930450,125949.000,21569,3,PR,1,100,152328
1574949869.971509,125983.667,21586,3,PR,1,100,152367
1574949870.012569,126018.333,21586,3,PR,1,100,152382
1574949870.053628,126053.000,21586,3,PR,1,100,152459
1574949870.096267,126089.000,21604,3,PR,1,100,152502
1574949870.138906,126125.000,21604,3,PR,1,100,152506
1574949870.181545,126161.000,21604,3,PR,1,100,152507
1574949870.219841,126193.333,21622,3,PR,1,100,152534
1574949870.258137,126225.667,21622,3,PR,1,100,152574
1574949870.296432,126258.000,21622,3,PR,1,100,152600
1574949870.338676,126293.667,21640,3,PR,1,100,152627
1574949870.380920,126329.333,21640,3,PR,1,100,152580
1574949870.423164,126365.000,21640,3,PR,1,100,152537
1574949870.464224,126399.667,21658,3,PR,1,100,152400
1574949870.505283,126434.333,21658,3,PR,1,100,152407
1574949870.546343,126469.000,21658,3,PR,1,100,152461
1574949870.586612,126503.000,21675,3,PR,1,100,152495
1574949870.626883,126537.000,21675,3,PR,1,100,152608
1574949870.667152,126571.000,21675,3,PR,1,100,152589
1574949870.705448,126603.333,21693,3,PR,1,100,152631
1574949870.743744,126635.667,21693,3,PR,1,100,152598
1574949870.782040,126668.000,21693,3,PR,1,100,152607
1574949870.824679,126704.000,21714,4,PR,1,100,152663
1574949870.867317,126740.000,21714,4,PR,1,100,152715
1574949870.909956,126776.000,21714,4,PR,1,100,152763
1574949870.952595,126812.000,21714,4,PR,1,100,152813
1574949870.990101,126843.667,21733,3,PR,1,100,152823
1574949871.027607,126875.333,21733,3,PR,1,100,152850
1574949871.065114,126907.000,21733,3,PR,1,100,152860
1574949871.105384,126941.000,21753,3,PR,1,100,152903
1574949871.145654,126975.000,21753,3,PR,1,100,152948
1574949871.185924,127009.000,21753,3,PR,1,100,152971
1574949871.226193,127043.000,21770,3,PR,1,100,153011
1574949871.266463,127077.000,21770,3,PR,1,100,153015
1574949871.306733,127111.000,21770,3,PR,1,100,152960
1574949871.348188,127146.000,21788,3,PR,1,100,152890
1574949871.389642,127181.000,21788,3,PR,1,100,152809
1574949871.431096,127216.000,21788,3,PR,1,100,152872
1574949871.472945,127251.333,21804,3,PR,1,100,152949
1574949871.514794,127286.667,21804,3,PR,1,100,152982
1574949871.556643,127322.000,21804,3,PR,1,100,153009
1574949871.594150,127353.667,21822,3,PR,1,100,153030
1574949871.631656,127385.333,21822,3,PR,1,100,153039
1574949871.669163,127417.000,21822,3,PR,1,100,153059
1574949871.709038,127450.667,21840,3,PR,1,100,153102
1574949871.748913,127484.333,21840,3,PR,1,100,153163
1574949871.788788,127518.000,21840,3,PR,1,100,153188
1574949871.829453,127552.333,21858,3,PR,1,100,153204
1574949871.870117,127586.667,21858,3,PR,1,100,153284
1574949871.910782,127621.000,21858,3,PR,1,100,153320
1574949871.951841,127655.667,21877,3,PR,1,100,153335
1574949871.992901,127690.333,21877,3,PR,1,100,153422
1574949872.033960,127725.000,21877,3,PR,1,100,153398
1574949872.073441,127758.333,21895,3,PR,1,100,153461
1574949872.112921,127791.667,21895,3,PR,1,100,153460
1574949872.152401,127825.000,21895,3,PR,1,100,153486
1574949872.189908,127856.667,21913,3,PR,1,100,153551
1574949872.227414,127888.333,21913,3,PR,1,100,153602
1574949872.264920,127920.000,21913,3,PR,1,100,153604
1574949872.305190,127954.000,21931,3,PR,1,100,153536
1574949872.345460,127988.000,21931,3,PR,1,100,153421
1574949872.385730,128022.000,21931,3,PR,1,100,153378
1574949872.426790,128056.667,21949,3,PR,1,100,153529
1574949872.467849,128091.333,21949,3,PR,1,100,153515
1574949872.508909,128126.000,21949,3,PR,1,100,153626
1574949872.549968,128160.667,21966,3,PR,1,100,153654
1574949872.591027,128195.333,21966,3,PR,1,100,153635
1574949872.632087,128230.000,21966,3,PR,1,100,153641
1574949872.671962,128263.667,21984,3,PR,1,100,153673
1574949872.711837,128297.333,21984,3,PR,1,100,153721
1574949872.751712,128331.000,21984,3,PR,1,100,153805
1574949872.788429,128362.000,22000,3,PR,1,100,153841
1574949872.825146,128393.000,22000,3,PR,1,100,153871
1574949872.861862,128424.000,22000,3,PR,1,100,153892
1574949872.901737,128457.667,22019,3,PR,1,100,153914
1574949872.941612,128491.333,22019,3,PR,1,100,153933
1574949872.981488,128525.000,22019,3,PR,1,100,154012
1574949873.021758,128559.000,22037,3,PR,1,100,153976
1574949873.062027,128593.000,22037,3,PR,1,100,154071
1574949873.102297,128627.000,22037,3,PR,1,100,154075
1574949873.142962,128661.333,22055,3,PR,1,100,154092
1574949873.183627,128695.667,22055,3,PR,1,100,154126
1574949873.224292,128730.000,22055,3,PR,1,100,154156
1574949873.265746,128765.000,22073,3,PR,1,100,154193
1574949873.307200,128800.000,22073,3,PR,1,100,154253
1574949873.348655,128835.000,22073,3,PR,1,100,154223
1574949873.386161,128866.667,22091,3,PR,1,100,154038
1574949873.423667,128898.333,22091,3,PR,1,100,153928
1574949873.461173,128930.000,22091,3,PR,1,100,153936
1574949873.501443,128964.000,22109,3,PR,1,100,154023
1574949873.541713,128998.000,22109,3,PR,1,100,154070
1574949873.581983,129032.000,22109,3,PR,1,100,154065
1574949873.619884,129064.000,22127,3,PR,1,100,154151
1574949873.657785,129096.000,22127,3,PR,1,100,154038
1574949873.695686,129128.000,22127,3,PR,1,100,154090
1574949873.734772,129161.000,22144,3,PR,1,100,154034
1574949873.773857,129194.000,22144,3,PR,1,100,154135
1574949873.812943,129227.000,22144,3,PR,1,100,154130
1574949873.852028,129260.000,22162,3,PR,1,100,154207
1574949873.891114,129293.000,22162,3,PR,1,100,154166
1574949873.930199,129326.000,22162,3,PR,1,100,154230
1574949873.969285,129359.000,22181,4,PR,1,100,154255
1574949874.008370,129392.000,22181,4,PR,1,100,154238
1574949874.047456,129425.000,22181,4,PR,1,100,154294
1574949874.086541,129458.000,22181,4,PR,1,100,154235
1574949874.123653,129489.333,22197,3,PR,1,100,154308
1574949874.160764,129520.667,22197,3,PR,1,100,154291
1574949874.197876,129552.000,22197,3,PR,1,100,154303
1574949874.235382,129583.667,22215,3,PR,1,100,154301
1574949874.272888,129615.333,22215,3,PR,1,100,154349
1574949874.310395,129647.000,22215,3,PR,1,100,154383
1574949874.354613,129684.333,22233,3,PR,1,100,154361
1574949874.398830,129721.667,22233,3,PR,1,100,154333
1574949874.443048,129759.000,22233,3,PR,1,100,154112
1574949874.483911,129793.500,22251,2,PR,1,100,153982
1574949874.524773,129828.000,22251,2,PR,1,100,154021
1574949874.562970,129860.250,22269,4,PR,1,100,154042
1574949874.601167,129892.500,22269,4,PR,1,100,154074
1574949874.639364,129924.750,22269,4,PR,1,100,154106
1574949874.677562,129957.000,22269,4,PR,1,100,154094
1574949874.719016,129992.000,22287,3,PR,1,100,154040
1574949874.760470,130027.000,22287,3,PR,1,100,153989
1574949874.801924,130062.000,22287,3,PR,1,100,153984
1574949874.842787,130096.500,22305,2,PR,1,100,153974
1574949874.883649,130131.000,22305,2,PR,1,100,153983
1574949874.923326,130164.500,22323,4,PR,1,100,154096
1574949874.963004,130198.000,22323,4,PR,1,100,154046
1574949875.002682,130231.500,22323,4,PR,1,100,154122
1574949875.042359,130265.000,22323,4,PR,1,100,154112
1574949875.086183,130302.000,22341,2,PR,1,100,154086
1574949875.130006,130339.000,22341,2,PR,1,100,154092
1574949875.166130,130369.500,22358,4,PR,1,100,154086
1574949875.202255,130400.000,22358,4,PR,1,100,154104
1574949875.238379,130430.500,22358,4,PR,1,100,154114
1574949875.274504,130461.000,22358,4,PR,1,100,154120
1574949875.313194,130493.667,22375,3,PR,1,100,154138
1574949875.351885,130526.333,22375,3,PR,1,100,154165
1574949875.390576,130559.000,22375,3,PR,1,100,154178
1574949875.429661,130592.000,22393,3,PR,1,100,153992
1574949875.468747,130625.000,22393,3,PR,1,100,153809
1574949875.507832,130658.000,22393,3,PR,1,100,153776
1574949875.548892,130692.667,22411,3,PR,1,100,153808
1574949875.589951,130727.333,22411,3,PR,1,100,153846
1574949875.631011,130762.000,22411,3,PR,1,100,153961
1574949875.672860,130797.333,22429,3,PR,1,100,153902
1574949875.714709,130832.667,22429,3,PR,1,100,153915
1574949875.756558,130868.000,22429,3,PR,1,100,153832
1574949875.800381,130905.000,22447,2,PR,1,100,153799
1574949875.844204,130942.000,22447,2,PR,1,100,153836
1574949875.881809,130973.750,22466,4,PR,1,100,153863
1574949875.919414,131005.500,22466,4,PR,1,100,153919
1574949875.957019,131037.250,22466,4,PR,1,100,153961
1574949875.994624,131069.000,22466,4,PR,1,100,153949
1574949876.034499,131102.667,22484,3,PR,1,100,153975
1574949876.074374,131136.333,22484,3,PR,1,100,153957
1574949876.114250,131170.000,22484,3,PR,1,100,153936
1574949876.155309,131204.667,22502,3,PR,1,100,154026
1574949876.196369,131239.333,22502,3,PR,1,100,153958
1574949876.237428,131274.000,22502,3,PR,1,100,154050
1574949876.278883,131309.000,22519,2,PR,1,100,154053
1574949876.320337,131344.000,22519,2,PR,1,100,154040
1574949876.359718,131377.250,22537,4,PR,1,100,154089
1574949876.399100,131410.500,22537,4,PR,1,100,153990
1574949876.438482,131443.750,22537,4,PR,1,100,153781
1574949876.477863,131477.000,22537,4,PR,1,100,153672
1574949876.515764,131509.000,22553,3,PR,1,100,153689
1574949876.553665,131541.000,22553,3,PR,1,100,153739
1574949876.591567,131573.000,22553,3,PR,1,100,153773
1574949876.631442,131606.667,22571,3,PR,1,100,153783
1574949876.671317,131640.333,22571,3,PR,1,100,153773
1574949876.711192,131674.000,22571,3,PR,1,100,153751
1574949876.751857,131708.333,22589,3,PR,1,100,153673
1574949876.792521,131742.667,22589,3,PR,1,100,153786
1574949876.833186,131777.000,22589,3,PR,1,100,153767
1574949876.873752,131811.250,22611,4,PR,1,100,153802
1574949876.914318,131845.500,22611,4,PR,1,100,153832
1574949876.954884,131879.750,22611,4,PR,1,100,153879
1574949876.995450,131914.000,22611,4,PR,1,100,153903
1574949877.034141,131946.667,22629,3,PR,1,100,153934
1574949877.072831,131979.333,22629,3,PR,1,100,153963
1574949877.111522,132012.000,22629,3,PR,1,100,153973
1574949877.149127,132043.750,22647,4,PR,1,100,153979
1574949877.186732,132075.500,22647,4,PR,1,100,153987
1574949877.224337,132107.250,22647,4,PR,1,100,154051
1574949877.261942,132139.000,22647,4,PR,1,100,154035
1574949877.302212,132173.000,22665,3,PR,1,100,154106
1574949877.342482,132207.000,22665,3,PR,1,100,154134
1574949877.382752,132241.000,22665,3,PR,1,100,154091
1574949877.425983,132277.500,22681,2,PR,1,100,153915
1574949877.469214,132314.000,22681,2,PR,1,100,153762
1574949877.509878,132348.333,22699,3,PR,1,100,153762
1574949877.550543,132382.667,22699,3,PR,1,100,153837
1574949877.591208,132417.000,22699,3,PR,1,100,153871
1574949877.633847,132453.000,22717,3,PR,1,100,153898
1574949877.676485,132489.000,22717,3,PR,1,100,153881
1574949877.719124,132525.000,22717,3,PR,1,100,153871
1574949877.760183,132559.667,22735,3,PR,1,100,153838
1574949877.801243,132594.333,22735,3,PR,1,100,153815
1574949877.842303,132629.000,22735,3,PR,1,100,153838
1574949877.884546,132664.667,22754,3,PR,1,100,153872
1574949877.926790,132700.333,22754,3,PR,1,100,153885
1574949877.969034,132736.000,22754,3,PR,1,100,153751
1574949878.010883,132771.333,22771,3,PR,1,100,153620
1574949878.052732,132806.667,22771,3,PR,1,100,153605
1574949878.094582,132842.000,22771,3,PR,1,100,153675
1574949878.132878,132874.333,22789,3,PR,1,100,153798
1574949878.171173,132906.667,22789,3,PR,1,100,153938
1574949878.209469,132939.000,22789,3,PR,1,100,153939
1574949878.250529,132973.667,22805,3,PR,1,100,153918
1574949878.291588,133008.333,22805,3,PR,1,100,153918
1574949878.332648,133043.000,22805,3,PR,1,100,153927
1574949878.374497,133078.333,22823,3,PR,1,100,153848
1574949878.416346,133113.667,22823,3,PR,1,100,153686
1574949878.458195,133149.000,22823,3,PR,1,100,153626
1574949878.497281,133182.000,22841,3,PR,1,100,153682
1574949878.536366,133215.000,22841,3,PR,1,100,153711
1574949878.575452,133248.000,22841,3,PR,1,100,153847
1574949878.616511,133282.667,22859,3,PR,1,100,153878
1574949878.657571,133317.333,22859,3,PR,1,100,153790
1574949878.698630,133352.000,22859,3,PR,1,100,153701
1574949878.736531,133384.000,22877,3,PR,1,100,153685
1574949878.774432,133416.000,22877,3,PR,1,100,153759
1574949878.812334,133448.000,22877,3,PR,1,100,153875
1574949878.851024,133480.667,22895,3,PR,1,100,153921
1574949878.889715,133513.333,22895,3,PR,1,100,153890
1574949878.928406,133546.000,22895,3,PR,1,100,153807
1574949878.968281,133579.667,22914,3,PR,1,100,153796
1574949879.008156,133613.333,22914,3,PR,1,100,153857
1574949879.048031,133647.000,22914,3,PR,1,100,153930
1574949879.089090,133681.667,22931,3,PR,1,100,153989
1574949879.130150,133716.333,22931,3,PR,1,100,153935
1574949879.171209,133751.000,22931,3,PR,1,100,153823
1574949879.212664,133786.000,22949,3,PR,1,100,153870
1574949879.254118,133821.000,22949,3,PR,1,100,153832
1574949879.295572,133856.000,22949,3,PR,1,100,153844
1574949879.337027,133891.000,22965,3,PR,1,100,153731
1574949879.378481,133926.000,22965,3,PR,1,100,153665
1574949879.419935,133961.000,22965,3,PR,1,100,153650
1574949879.457442,133992.667,22983,3,PR,1,100,153671
1574949879.494948,134024.333,22983,3,PR,1,100,153734
1574949879.532454,134056.000,22983,3,PR,1,100,153807
1574949879.572724,134090.000,23001,3,PR,1,100,153789
1574949879.612994,134124.000,23001,3,PR,1,100,153720
1574949879.653264,134158.000,23001,3,PR,1,100,153696
1574949879.693929,134192.333,23019,3,PR,1,100,153745
1574949879.734593,134226.667,23019,3,PR,1,100,153877
1574949879.775258,134261.000,23019,3,PR,1,100,153902
1574949879.816318,134295.667,23037,3,PR,1,100,153997
1574949879.857377,134330.333,23037,3,PR,1,100,153979
1574949879.898437,134365.000,23037,3,PR,1,100,154003
1574949879.937522,134398.000,23056,3,PR,1,100,154016
1574949879.976608,134431.000,23056,3,PR,1,100,153998
1574949880.015693,134464.000,23056,3,PR,1,100,153994
1574949880.053594,134496.000,23074,3,PR,1,100,154017
1574949880.091495,134528.000,23074,3,PR,1,100,154070
1574949880.129396,134560.000,23074,3,PR,1,100,154104
1574949880.168877,134593.333,23092,3,PR,1,100,153992
1574949880.208357,134626.667,23092,3,PR,1,100,153911
1574949880.247837,134660.000,23092,3,PR,1,100,153978
1574949880.289292,134695.000,23109,3,PR,1,100,153992
1574949880.330746,134730.000,23109,3,PR,1,100,154021
1574949880.372200,134765.000,23109,3,PR,1,100,154119
1574949880.412865,134799.333,23127,3,PR,1,100,154125
1574949880.453530,134833.667,23127,3,PR,1,100,154157
1574949880.494194,134868.000,23127,3,PR,1,100,154128
1574949880.533280,134901.000,23143,3,PR,1,100,154138
1574949880.572365,134934.000,23143,3,PR,1,100,154200
1574949880.611451,134967.000,23143,3,PR,1,100,154248
1574949880.649352,134999.000,23161,3,PR,1,100,154335
1574949880.687253,135031.000,23161,3,PR,1,100,154376
1574949880.725154,135063.000,23161,3,PR,1,100,154387
1574949880.764240,135096.000,23179,3,PR,1,100,154428
1574949880.803325,135129.000,23179,3,PR,1,100,154485
1574949880.842411,135162.000,23179,3,PR,1,100,154512
1574949880.883470,135196.667,23198,3,PR,1,100,154619
1574949880.924530,135231.333,23198,3,PR,1,100,154650
1574949880.965589,135266.000,23198,3,PR,1,100,154535
1574949881.006254,135300.333,23216,3,PR,1,100,154422
1574949881.046919,135334.667,23216,3,PR,1,100,154415
1574949881.087583,135369.000,23216,3,PR,1,100,154468
1574949881.129432,135404.333,23234,3,PR,1,100,154512
1574949881.171282,135439.667,23234,3,PR,1,100,154536
1574949881.213131,135475.000,23234,3,PR,1,100,154568
1574949881.250637,135506.667,23252,3,PR,1,100,154548
1574949881.288143,135538.333,23252,3,PR,1,100,154540
1574949881.325649,135570.000,23252,3,PR,1,100,154621
1574949881.364735,135603.000,23270,3,PR,1,100,154570
1574949881.403821,135636.000,23270,3,PR,1,100,154714
1574949881.442906,135669.000,23270,3,PR,1,100,154652
1574949881.481202,135701.333,23287,3,PR,1,100,154793
1574949881.519498,135733.667,23287,3,PR,1,100,154789
1574949881.557794,135766.000,23287,3,PR,1,100,154889
1574949881.596484,135798.667,23305,3,PR,1,100,154902
1574949881.635175,135831.333,23305,3,PR,1,100,154949
1574949881.673866,135864.000,23305,3,PR,1,100,154938
1574949881.710188,135894.667,23323,3,PR,1,100,154953
1574949881.746510,135925.333,23323,3,PR,1,100,155105
1574949881.782831,135956.000,23323,3,PR,1,100,155085
1574949881.823496,135990.333,23341,3,PR,1,100,154996
1574949881.864161,136024.667,23341,3,PR,1,100,154850
1574949881.904825,136059.000,23341,3,PR,1,100,154915
1574949881.940950,136089.500,23358,4,PR,1,100,154898
1574949881.977074,136120.000,23358,4,PR,1,100,154901
1574949882.013199,136150.500,23358,4,PR,1,100,154921
1574949882.049324,136181.000,23358,4,PR,1,100,154994
1574949882.087817,136213.500,23376,2,PR,1,100,154975
1574949882.126310,136246.000,23376,2,PR,1,100,154952
1574949882.169343,136282.333,23394,3,PR,1,100,154952
1574949882.212377,136318.667,23394,3,PR,1,100,154952
1574949882.255411,136355.000,23394,3,PR,1,100,154967
1574949882.293608,136387.250,23412,4,PR,1,100,155017
1574949882.331805,136419.500,23412,4,PR,1,100,155026
1574949882.370002,136451.750,23412,4,PR,1,100,155030
1574949882.408199,136484.000,23412,4,PR,1,100,155045
1574949882.448469,136518.000,23430,3,PR,1,100,155065
1574949882.488739,136552.000,23430,3,PR,1,100,155074
1574949882.529009,136586.000,23430,3,PR,1,100,155070
1574949882.569279,136620.000,23448,3,PR,1,100,155066
1574949882.609549,136654.000,23448,3,PR,1,100,155064
1574949882.649819,136688.000,23448,3,PR,1,100,155074
1574949882.691273,136723.000,23466,2,PR,1,100,155172
1574949882.732728,136758.000,23466,2,PR,1,100,155284
1574949882.776551,136795.000,23484,3,PR,1,100,155211
1574949882.820374,136832.000,23484,3,PR,1,100,155062
1574949882.864197,136869.000,23484,3,PR,1,100,154997
1574949882.902098,136901.000,23503,5,PR,1,100,154951
1574949882.939999,136933.000,23503,5,PR,1,100,154968
1574949882.977900,136965.000,23503,5,PR,1,100,155008
1574949883.015801,136997.000,23503,5,PR,1,100,154988
1574949883.053702,137029.000,23503,5,PR,1,100,154999
1574949883.091604,137061.000,23525,3,PR,1,100,154951
1574949883.129504,137093.000,23525,3,PR,1,100,154930
1574949883.167406,137125.000,23525,3,PR,1,100,154906
1574949883.205702,137157.333,23543,3,PR,1,100,154884
1574949883.243997,137189.667,23543,3,PR,1,100,154869
1574949883.282293,137222.000,23543,3,PR,1,100,154856
1574949883.322958,137256.333,23561,3,PR,1,100,154848
1574949883.363623,137290.667,23561,3,PR,1,100,154869
1574949883.404287,137325.000,23561,3,PR,1,100,154851
1574949883.449295,137363.000,23579,3,PR,1,100,154868
1574949883.494303,137401.000,23579,3,PR,1,100,154794
1574949883.539310,137439.000,23579,3,PR,1,100,154776
1574949883.579975,137473.333,23596,3,PR,1,100,154753
1574949883.620640,137507.667,23596,3,PR,1,100,154847
1574949883.661304,137542.000,23596,3,PR,1,100,154964
1574949883.698416,137573.333,23614,3,PR,1,100,154784
1574949883.735527,137604.667,23614,3,PR,1,100,154588
1574949883.772639,137636.000,23614,3,PR,1,100,154456
1574949883.811329,137668.667,23632,3,PR,1,100,154388
1574949883.850020,137701.333,23632,3,PR,1,100,154421
1574949883.888711,137734.000,23632,3,PR,1,100,154350
1574949883.929770,137768.667,23649,3,PR,1,100,154358
1574949883.970830,137803.333,23649,3,PR,1,100,154289
1574949884.011889,137838.000,23649,3,PR,1,100,154219
1574949884.053344,137873.000,23667,3,PR,1,100,154166
1574949884.094798,137908.000,23667,3,PR,1,100,154138
1574949884.136252,137943.000,23667,3,PR,1,100,154104
1574949884.177312,137977.667,23685,3,PR,1,100,154129
1574949884.218371,138012.333,23685,3,PR,1,100,154095
1574949884.259431,138047.000,23685,3,PR,1,100,154096
1574949884.296937,138078.667,23703,3,PR,1,100,154064
1574949884.334443,138110.333,23703,3,PR,1,100,153991
1574949884.371950,138142.000,23703,3,PR,1,100,154042
1574949884.409851,138174.000,23721,3,PR,1,100,153938
1574949884.447752,138206.000,23721,3,PR,1,100,154015
1574949884.485653,138238.000,23721,3,PR,1,100,153956
1574949884.525923,138272.000,23739,3,PR,1,100,153933
1574949884.566193,138306.000,23739,3,PR,1,100,154025
1574949884.606463,138340.000,23739,3,PR,1,100,153986
1574949884.647522,138374.667,23757,3,PR,1,100,153734
1574949884.688582,138409.333,23757,3,PR,1,100,153601
1574949884.729641,138444.000,23757,3,PR,1,100,153499
1574949884.770701,138478.667,23774,3,PR,1,100,153482
1574949884.811760,138513.333,23774,3,PR,1,100,153444
1574949884.852820,138548.000,23774,3,PR,1,100,153423
1574949884.890326,138579.667,23793,3,PR,1,100,153441
1574949884.927832,138611.333,23793,3,PR,1,100,153360
1574949884.965338,138643.000,23793,3,PR,1,100,153358
1574949885.003634,138675.333,23811,3,PR,1,100,153285
1574949885.041930,138707.667,23811,3,PR,1,100,153271
1574949885.080226,138740.000,23811,3,PR,1,100,153272
1574949885.119707,138773.333,23827,3,PR,1,100,153292
1574949885.159187,138806.667,23827,3,PR,1,100,153272
1574949885.198667,138840.000,23827,3,PR,1,100,153266
1574949885.239332,138874.333,23845,3,PR,1,100,153246
1574949885.279997,138908.667,23845,3,PR,1,100,153219
1574949885.320661,138943.000,23845,3,PR,1,100,153208
1574949885.357773,138974.333,23863,3,PR,1,100,153218
1574949885.394884,139005.667,23863,3,PR,1,100,153173
1574949885.431996,139037.000,23863,3,PR,1,100,153246
1574949885.472661,139071.333,23881,3,PR,1,100,153223
1574949885.513325,139105.667,23881,3,PR,1,100,153044
1574949885.553990,139140.000,23881,3,PR,1,100,152880
1574949885.595049,139174.667,23899,3,PR,1,100,152806
1574949885.636109,139209.333,23899,3,PR,1,100,152790
1574949885.677168,139244.000,23899,3,PR,1,100,152798
1574949885.719412,139279.667,23917,3,PR,1,100,152880
1574949885.761656,139315.333,23917,3,PR,1,100,152843
1574949885.803900,139351.000,23917,3,PR,1,100,152774
1574949885.845355,139386.000,23936,3,PR,1,100,152703
1574949885.886809,139421.000,23936,3,PR,1,100,152694
1574949885.928263,139456.000,23936,3,PR,1,100,152710
1574949885.964980,139487.000,23953,3,PR,1,100,152707
1574949886.001697,139518.000,23953,3,PR,1,100,152723
1574949886.038413,139549.000,23953,3,PR,1,100,152699
1574949886.080262,139584.333,23971,3,PR,1,100,152757
1574949886.122111,139619.667,23971,3,PR,1,100,152718
1574949886.163960,139655.000,23971,3,PR,1,100,152777
1574949886.209363,139693.333,23987,3,PR,1,100,152727
1574949886.254765,139731.667,23987,3,PR,1,100,152721
1574949886.300168,139770.000,23987,3,PR,1,100,152708
1574949886.337674,139801.667,24005,3,PR,1,100,152706
1574949886.375180,139833.333,24005,3,PR,1,100,152759
1574949886.412686,139865.000,24005,3,PR,1,100,152788
1574949886.454535,139900.333,24023,3,PR,1,100,152564
1574949886.496385,139935.667,24023,3,PR,1,100,152354
1574949886.538234,139971.000,24023,3,PR,1,100,152278
1574949886.575740,140002.667,24041,3,PR,1,100,152302
1574949886.613246,140034.333,24041,3,PR,1,100,152302
1574949886.650753,140066.000,24041,3,PR,1,100,152300
1574949886.689443,140098.667,24059,3,PR,1,100,152304
1574949886.728134,140131.333,24059,3,PR,1,100,152271
1574949886.766825,140164.000,24059,3,PR,1,100,152302
1574949886.805910,140197.000,24077,3,PR,1,100,152251
1574949886.844996,140230.000,24077,3,PR,1,100,152313
1574949886.884081,140263.000,24077,3,PR,1,100,152284
1574949886.925536,140298.000,24096,3,PR,1,100,152296
1574949886.966990,140333.000,24096,3,PR,1,100,152320
1574949887.008444,140368.000,24096,3,PR,1,100,152382
1574949887.049109,140402.333,24113,3,PR,1,100,152363
1574949887.089774,140436.667,24113,3,PR,1,100,152347
1574949887.130438,140471.000,24113,3,PR,1,100,152349
1574949887.171103,140505.333,24131,3,PR,1,100,152371
1574949887.211768,140539.667,24131,3,PR,1,100,152371
1574949887.252433,140574.000,24131,3,PR,1,100,152408
1574949887.293887,140609.000,24147,3,PR,1,100,152421
1574949887.335341,140644.000,24147,3,PR,1,100,152408
1574949887.376796,140679.000,24147,3,PR,1,100,152404
1574949887.414302,140710.667,24165,3,PR,1,100,152458
1574949887.451808,140742.333,24165,3,PR,1,100,152545
1574949887.489314,140774.000,24165,3,PR,1,100,152341
1574949887.528005,140806.667,24183,3,PR,1,100,152217
1574949887.566696,140839.333,24183,3,PR,1,100,152118
1574949887.605386,140872.000,24183,3,PR,1,100,152119
1574949887.649604,140909.333,24201,3,PR,1,100,152181
1574949887.693822,140946.667,24201,3,PR,1,100,152198
1574949887.738040,140984.000,24201,3,PR,1,100,152254
1574949887.778705,141018.333,24219,3,PR,1,100,152252
1574949887.819370,141052.667,24219,3,PR,1,100,152214
1574949887.860034,141087.000,24219,3,PR,1,100,152186
1574949887.902081,141122.500,24238,2,PR,1,100,152180
1574949887.944127,141158.000,24238,2,PR,1,100,152192
1574949887.982621,141190.500,24256,4,PR,1,100,152241
1574949888.021114,141223.000,24256,4,PR,1,100,152255
1574949888.059607,141255.500,24256,4,PR,1,100,152321
1574949888.098100,141288.000,24256,4,PR,1,100,152301
1574949888.136396,141320.333,24274,3,PR,1,100,152301
1574949888.174692,141352.667,24274,3,PR,1,100,152314
1574949888.212988,141385.000,24274,3,PR,1,100,152329
1574949888.253653,141419.333,24291,3,PR,1,100,152353
1574949888.294318,141453.667,24291,3,PR,1,100,152337
1574949888.334982,141488.000,24291,3,PR,1,100,152345
1574949888.375647,141522.333,24309,3,PR,1,100,152358
1574949888.416312,141556.667,24309,3,PR,1,100,152335
1574949888.456976,141591.000,24309,3,PR,1,100,152401
1574949888.497641,141625.333,24325,3,PR,1,100,152428
1574949888.538306,141659.667,24325,3,PR,1,100,152253
1574949888.578971,141694.000,24325,3,PR,1,100,152196
1574949888.618056,141727.000,24343,3,PR,1,100,152151
1574949888.657142,141760.000,24343,3,PR,1,100,152173
1574949888.696227,141793.000,24343,3,PR,1,100,152241
1574949888.733339,141824.333,24361,3,PR,1,100,152298
1574949888.770450,141855.667,24361,3,PR,1,100,152318
1574949888.807562,141887.000,24361,3,PR,1,100,152269
1574949888.847831,141921.000,24380,3,PR,1,100,152230
1574949888.888101,141955.000,24380,3,PR,1,100,152228
1574949888.928371,141989.000,24380,3,PR,1,100,152219
1574949888.969826,142024.000,24399,4,PR,1,100,152262
1574949889.011280,142059.000,24399,4,PR,1,100,152289
1574949889.052734,142094.000,24399,4,PR,1,100,152299
1574949889.094188,142129.000,24399,4,PR,1,100,152378
1574949889.135248,142163.667,24421,3,PR,1,100,152365
1574949889.176308,142198.333,24421,3,PR,1,100,152366
1574949889.217367,142233.000,24421,3,PR,1,100,152347
1574949889.259611,142268.667,24437,3,PR,1,100,152422
1574949889.301855,142304.333,24437,3,PR,1,100,152386
1574949889.344099,142340.000,24437,3,PR,1,100,152395
1574949889.382000,142372.000,24455,3,PR,1,100,152435
1574949889.419901,142404.000,24455,3,PR,1,100,152511
1574949889.457802,142436.000,24455,3,PR,1,100,152473
1574949889.500046,142471.667,24473,3,PR,1,100,152316
1574949889.542290,142507.333,24473,3,PR,1,100,152207
1574949889.584534,142543.000,24473,3,PR,1,100,152230
1574949889.625593,142577.667,24491,3,PR,1,100,152279
1574949889.666653,142612.333,24491,3,PR,1,100,152301
1574949889.707712,142647.000,24491,3,PR,1,100,152355
1574949889.749956,142682.667,24509,3,PR,1,100,152373
1574949889.792200,142718.333,24509,3,PR,1,100,152331
1574949889.834444,142754.000,24509,3,PR,1,100,152294
1574949889.875504,142788.667,24526,3,PR,1,100,152314
1574949889.916563,142823.333,24526,3,PR,1,100,152314
1574949889.957623,142858.000,24526,3,PR,1,100,152352
1574949889.999472,142893.333,24545,3,PR,1,100,152424
1574949890.041321,142928.667,24545,3,PR,1,100,152416
1574949890.083170,142964.000,24545,3,PR,1,100,152445
1574949890.120677,142995.667,24561,3,PR,1,100,152465
1574949890.158183,143027.333,24561,3,PR,1,100,152455
1574949890.195689,143059.000,24561,3,PR,1,100,152535
1574949890.233985,143091.333,24579,3,PR,1,100,152485
1574949890.272281,143123.667,24579,3,PR,1,100,152562
1574949890.310577,143156.000,24579,3,PR,1,100,152565
1574949890.356176,143194.500,24597,2,PR,1,100,152581
1574949890.401776,143233.000,24597,2,PR,1,100,152628
1574949890.443230,143268.000,24615,3,PR,1,100,152553
1574949890.484685,143303.000,24615,3,PR,1,100,152419
1574949890.526139,143338.000,24615,3,PR,1,100,152363
1574949890.564336,143370.250,24633,4,PR,1,100,152403
1574949890.602534,143402.500,24633,4,PR,1,100,152449
1574949890.640731,143434.750,24633,4,PR,1,100,152504
1574949890.678928,143467.000,24633,4,PR,1,100,152551
1574949890.720382,143502.000,24651,2,PR,1,100,152536
1574949890.761837,143537.000,24651,2,PR,1,100,152476
1574949890.803686,143572.333,24669,3,PR,1,100,152448
1574949890.845535,143607.667,24669,3,PR,1,100,152470
1574949890.887384,143643.000,24669,3,PR,1,100,152553
1574949890.925581,143675.250,24687,4,PR,1,100,152524
1574949890.963778,143707.500,24687,4,PR,1,100,152607
1574949891.001976,143739.750,24687,4,PR,1,100,152588
1574949891.040173,143772.000,24687,4,PR,1,100,152590
1574949891.082811,143808.000,24705,2,PR,1,100,152604
1574949891.125450,143844.000,24705,2,PR,1,100,152622
1574949891.165325,143877.667,24721,3,PR,1,100,152655
1574949891.205200,143911.333,24721,3,PR,1,100,152655
1574949891.245075,143945.000,24721,3,PR,1,100,152660
1574949891.285740,143979.333,24739,3,PR,1,100,152699
1574949891.326405,144013.667,24739,3,PR,1,100,152661
1574949891.367069,144048.000,24739,3,PR,1,100,152556
1574949891.407734,144082.333,24757,3,PR,1,100,152469
1574949891.448399,144116.667,24757,3,PR,1,100,152492
1574949891.489064,144151.000,24757,3,PR,1,100,152551
1574949891.528544,144184.333,24775,3,PR,1,100,152552
1574949891.568024,144217.667,24775,3,PR,1,100,152613
1574949891.607505,144251.000,24775,3,PR,1,100,152606
1574949891.645011,144282.667,24793,3,PR,1,100,152572
1574949891.682517,144314.333,24793,3,PR,1,100,152565
1574949891.720023,144346.000,24793,3,PR,1,100,152570
1574949891.759504,144379.333,24811,3,PR,1,100,152580
1574949891.798984,144412.667,24811,3,PR,1,100,152596
1574949891.838464,144446.000,24811,3,PR,1,100,152654
1574949891.879919,144481.000,24830,3,PR,1,100,152700
1574949891.921373,144516.000,24830,3,PR,1,100,152656
1574949891.962827,144551.000,24830,3,PR,1,100,152708
1574949892.003492,144585.333,24848,3,PR,1,100,152664
1574949892.044157,144619.667,24848,3,PR,1,100,152685
1574949892.084821,144654.000,24848,3,PR,1,100,152671
1574949892.124302,144687.333,24865,3,PR,1,100,152649
1574949892.163782,144720.667,24865,3,PR,1,100,152686
1574949892.203262,144754.000,24865,3,PR,1,100,152734
1574949892.241558,144786.333,24883,3,PR,1,100,152679
1574949892.279854,144818.667,24883,3,PR,1,100,152520
1574949892.318150,144851.000,24883,3,PR,1,100,152422
1574949892.356939,144883.750,24901,4,PR,1,100,152459
1574949892.395729,144916.500,24901,4,PR,1,100,152487
1574949892.434518,144949.250,24901,4,PR,1,100,152545
1574949892.473308,144982.000,24901,4,PR,1,100,152566
1574949892.513972,145016.333,24917,3,PR,1,100,152521
1574949892.554637,145050.667,24917,3,PR,1,100,152491
1574949892.595302,145085.000,24917,3,PR,1,100,152478
1574949892.636756,145120.000,24935,2,PR,1,100,152494
1574949892.678210,145155.000,24935,2,PR,1,100,152538
1574949892.718480,145189.000,24953,3,PR,1,100,152566
1574949892.758750,145223.000,24953,3,PR,1,100,152576
1574949892.799020,145257.000,24953,3,PR,1,100,152580
1574949892.837810,145289.750,24971,4,PR,1,100,152577
1574949892.876599,145322.500,24971,4,PR,1,100,152639
1574949892.915388,145355.250,24971,4,PR,1,100,152578
1574949892.954178,145388.000,24971,4,PR,1,100,152676
1574949892.992868,145420.667,24990,3,PR,1,100,152638
1574949893.031559,145453.333,24990,3,PR,1,100,152703
1574949893.070250,145486.000,24990,3,PR,1,100,152627
1574949893.108941,145518.667,25008,3,PR,1,100,152718
1574949893.147631,145551.333,25008,3,PR,1,100,152588
1574949893.186322,145584.000,25008,3,PR,1,100,152450
1574949893.225013,145616.667,25026,3,PR,1,100,152416
1574949893.263703,145649.333,25026,3,PR,1,100,152489
1574949893.302394,145682.000,25026,3,PR,1,100,152521
1574949893.338321,145712.333,25044,3,PR,1,100,152529
1574949893.374248,145742.667,25044,3,PR,1,100,152539
1574949893.410175,145773.000,25044,3,PR,1,100,152533
1574949893.451629,145808.000,25062,3,PR,1,100,152546
1574949893.493084,145843.000,25062,3,PR,1,100,152492
1574949893.534538,145878.000,25062,3,PR,1,100,152531
1574949893.570071,145908.000,25079,3,PR,1,100,152551
1574949893.605603,145938.000,25079,3,PR,1,100,152610
1574949893.641135,145968.000,25079,3,PR,1,100,152609
1574949893.681405,146002.000,25097,3,PR,1,100,152614
1574949893.721675,146036.000,25097,3,PR,1,100,152622
1574949893.761945,146070.000,25097,3,PR,1,100,152629
1574949893.799056,146101.333,25115,3,PR,1,100,152646
1574949893.836168,146132.667,25115,3,PR,1,100,152635
1574949893.873279,146164.000,25115,3,PR,1,100,152653
1574949893.911476,146196.250,25132,4,PR,1,100,152680
1574949893.949673,146228.500,25132,4,PR,1,100,152726
1574949893.987871,146260.750,25132,4,PR,1,100,152740
1574949894.026068,146293.000,25132,4,PR,1,100,152671
1574949894.066733,146327.333,25150,3,PR,1,100,152549
1574949894.107397,146361.667,25150,3,PR,1,100,152486
1574949894.148062,146396.000,25150,3,PR,1,100,152552
1574949894.188727,146430.333,25168,3,PR,1,100,152584
1574949894.229392,146464.667,25168,3,PR,1,100,152627
1574949894.270056,146499.000,25168,3,PR,1,100,152659
1574949894.317433,146539.000,25186,2,PR,1,100,152619
1574949894.364809,146579.000,25186,2,PR,1,100,152608
1574949894.403105,146611.333,25204,3,PR,1,100,152630
1574949894.441401,146643.667,25204,3,PR,1,100,152655
1574949894.479697,146676.000,25204,3,PR,1,100,152696
1574949894.517598,146708.000,25222,3,PR,1,100,152734
1574949894.555499,146740.000,25222,3,PR,1,100,152759
1574949894.593400,146772.000,25222,3,PR,1,100,152777
1574949894.631301,146804.000,25240,4,PR,1,100,152807
1574949894.669202,146836.000,25240,4,PR,1,100,152815
1574949894.707103,146868.000,25240,4,PR,1,100,152827
1574949894.745004,146900.000,25240,4,PR,1,100,152835
1574949894.783300,146932.333,25258,3,PR,1,100,152838
1574949894.821596,146964.667,25258,3,PR,1,100,152906
1574949894.859892,146997.000,25258,3,PR,1,100,152879
1574949894.900162,147031.000,25276,3,PR,1,100,152971
1574949894.940432,147065.000,25276,3,PR,1,100,152906
1574949894.980702,147099.000,25276,3,PR,1,100,152756
1574949895.024525,147136.000,25297,4,PR,1,100,152716
1574949895.068348,147173.000,25297,4,PR,1,100,152766
1574949895.112171,147210.000,25297,4,PR,1,100,152829
1574949895.155994,147247.000,25297,4,PR,1,100,152851
1574949895.195869,147280.667,25317,3,PR,1,100,152865
1574949895.235744,147314.333,25317,3,PR,1,100,152839
1574949895.275620,147348.000,25317,3,PR,1,100,152809
1574949895.313126,147379.667,25335,3,PR,1,100,152870
1574949895.350632,147411.333,25335,3,PR,1,100,152833
1574949895.388138,147443.000,25335,3,PR,1,100,152948
1574949895.428013,147476.667,25353,3,PR,1,100,152963
1574949895.467889,147510.333,25353,3,PR,1,100,152963
1574949895.507764,147544.000,25353,3,PR,1,100,152992
1574949895.548823,147578.667,25371,3,PR,1,100,153025
1574949895.589883,147613.333,25371,3,PR,1,100,153030
1574949895.630942,147648.000,25371,3,PR,1,100,153080
1574949895.672002,147682.667,25388,3,PR,1,100,153095
1574949895.713061,147717.333,25388,3,PR,1,100,153086
1574949895.754121,147752.000,25388,3,PR,1,100,153100
1574949895.794391,147786.000,25406,3,PR,1,100,153145
1574949895.834661,147820.000,25406,3,PR,1,100,153178
1574949895.874930,147854.000,25406,3,PR,1,100,153214
1574949895.912437,147885.667,25423,3,PR,1,100,153294
1574949895.949943,147917.333,25423,3,PR,1,100,153144
1574949895.987449,147949.000,25423,3,PR,1,100,153089
1574949896.026535,147982.000,25441,3,PR,1,100,153068
1574949896.065620,148015.000,25441,3,PR,1,100,153113
1574949896.104706,148048.000,25441,3,PR,1,100,153171
1574949896.144581,148081.667,25459,3,PR,1,100,153161
1574949896.184456,148115.333,25459,3,PR,1,100,153159
1574949896.224331,148149.000,25459,3,PR,1,100,153134
1574949896.264996,148183.333,25477,3,PR,1,100,153116
1574949896.305660,148217.667,25477,3,PR,1,100,153169
1574949896.346325,148252.000,25477,3,PR,1,100,153164
1574949896.388174,148287.333,25495,3,PR,1,100,153251
1574949896.430023,148322.667,25495,3,PR,1,100,153255
1574949896.471873,148358.000,25495,3,PR,1,100,153265
1574949896.508589,148389.000,25513,3,PR,1,100,153303
1574949896.545306,148420.000,25513,3,PR,1,100,153323
1574949896.582023,148451.000,25513,3,PR,1,100,153346
1574949896.622687,148485.333,25531,3,PR,1,100,153382
1574949896.663352,148519.667,25531,3,PR,1,100,153400
1574949896.704017,148554.000,25531,3,PR,1,100,153379
1574949896.741128,148585.333,25549,3,PR,1,100,153370
1574949896.778240,148616.667,25549,3,PR,1,100,153430
1574949896.815351,148648.000,25549,3,PR,1,100,153443
1574949896.854831,148681.333,25567,3,PR,1,100,153476
1574949896.894312,148714.667,25567,3,PR,1,100,153478
1574949896.933792,148748.000,25567,3,PR,1,100,153357
1574949896.972088,148780.333,25585,3,PR,1,100,153284
1574949897.010384,148812.667,25585,3,PR,1,100,153316
1574949897.048680,148845.000,25585,3,PR,1,100,153340
1574949897.085397,148876.000,25603,4,PR,1,100,153362
1574949897.122113,148907.000,25603,4,PR,1,100,153430
1574949897.158830,148938.000,25603,4,PR,1,100,153417
1574949897.195547,148969.000,25603,4,PR,1,100,153379
1574949897.238580,149005.333,25621,3,PR,1,100,153351
1574949897.281614,149041.667,25621,3,PR,1,100,153421
1574949897.324647,149078.000,25621,3,PR,1,100,153385
1574949897.365707,149112.667,25637,3,PR,1,100,153499
1574949897.406766,149147.333,25637,3,PR,1,100,153477
1574949897.447826,149182.000,25637,3,PR,1,100,153497
1574949897.485727,149214.000,25655,3,PR,1,100,153533
1574949897.523628,149246.000,25655,3,PR,1,100,153525
1574949897.561529,149278.000,25655,3,PR,1,100,153555
1574949897.607721,149317.000,25673,2,PR,1,100,153569
1574949897.653913,149356.000,25673,2,PR,1,100,153551
1574949897.692110,149388.250,25691,4,PR,1,100,153582
1574949897.730307,149420.500,25691,4,PR,1,100,153625
1574949897.768504,149452.750,25691,4,PR,1,100,153621
1574949897.806702,149485.000,25691,4,PR,1,100,153656
1574949897.848748,149520.500,25710,2,PR,1,100,153656
1574949897.890795,149556.000,25710,2,PR,1,100,153714
1574949897.931459,149590.333,25728,3,PR,1,100,153702
1574949897.972124,149624.667,25728,3,PR,1,100,153549
1574949898.012789,149659.000,25728,3,PR,1,100,153472
1574949898.053453,149693.333,25745,3,PR,1,100,153493
1574949898.094118,149727.667,25745,3,PR,1,100,153560
1574949898.134783,149762.000,25745,3,PR,1,100,153597
1574949898.173079,149794.333,25763,3,PR,1,100,153609
1574949898.211375,149826.667,25763,3,PR,1,100,153638
1574949898.249671,149859.000,25763,3,PR,1,100,153578
1574949898.288460,149891.750,25779,4,PR,1,100,153576
1574949898.327250,149924.500,25779,4,PR,1,100,153579
1574949898.366039,149957.250,25779,4,PR,1,100,153640
1574949898.404828,149990.000,25779,4,PR,1,100,153654
1574949898.442729,150022.000,25797,3,PR,1,100,153682
1574949898.480630,150054.000,25797,3,PR,1,100,153716
1574949898.518532,150086.000,25797,3,PR,1,100,153730
1574949898.557617,150119.000,25815,3,PR,1,100,153777
1574949898.596703,150152.000,25815,3,PR,1,100,153778
1574949898.635788,150185.000,25815,3,PR,1,100,153773
1574949898.676847,150219.667,25833,3,PR,1,100,153763
1574949898.717907,150254.333,25833,3,PR,1,100,153764
1574949898.758966,150289.000,25833,3,PR,1,100,153845
1574949898.800421,150324.000,25851,3,PR,1,100,153810
1574949898.841875,150359.000,25851,3,PR,1,100,153883
1574949898.883329,150394.000,25851,3,PR,1,100,153867
1574949898.928337,150432.000,25870,2,PR,1,100,153893
1574949898.973345,150470.000,25870,2,PR,1,100,153879
1574949899.010950,150501.750,25888,4,PR,1,100,153760
1574949899.048554,150533.500,25888,4,PR,1,100,153680
1574949899.086159,150565.250,25888,4,PR,1,100,153688
1574949899.123765,150597.000,25888,4,PR,1,100,153733
1574949899.163245,150630.333,25906,3,PR,1,100,153759
1574949899.202725,150663.667,25906,3,PR,1,100,153772
1574949899.242205,150697.000,25906,3,PR,1,100,153825
1574949899.283067,150731.500,25924,2,PR,1,100,153729
1574949899.323930,150766.000,25924,2,PR,1,100,153791
1574949899.365384,150801.000,25941,3,PR,1,100,153745
1574949899.406838,150836.000,25941,3,PR,1,100,153769
1574949899.448292,150871.000,25941,3,PR,1,100,153810
1574949899.488957,150905.333,25959,3,PR,1,100,153864
1574949899.529622,150939.667,25959,3,PR,1,100,153865
1574949899.570287,150974.000,25959,3,PR,1,100,153861
1574949899.607892,151005.750,25975,4,PR,1,100,153882
1574949899.645497,151037.500,25975,4,PR,1,100,153916
1574949899.683102,151069.250,25975,4,PR,1,100,153921
1574949899.720707,151101.000,25975,4,PR,1,100,153909
1574949899.759792,151134.000,25993,3,PR,1,100,153911
1574949899.798878,151167.000,25993,3,PR,1,100,153933
1574949899.837963,151200.000,25993,3,PR,1,100,154017
1574949899.879023,151234.667,26012,3,PR,1,100,154017
1574949899.920082,151269.333,26012,3,PR,1,100,154004
1574949899.961142,151304.000,26012,3,PR,1,100,153879
1574949900.002596,151339.000,26030,2,PR,1,100,153725
1574949900.044050,151374.000,26030,2,PR,1,100,153758
1574949900.085110,151408.667,26048,3,PR,1,100,153804
1574949900.126169,151443.333,26048,3,PR,1,100,153823
1574949900.167229,151478.000,26048,3,PR,1,100,153822
1574949900.204538,151509.500,26066,4,PR,1,100,153815
1574949900.241847,151541.000,26066,4,PR,1,100,153833
1574949900.279155,151572.500,26066,4,PR,1,100,153781
1574949900.316464,151604.000,26066,4,PR,1,100,153843
1574949900.355155,151636.667,26084,3,PR,1,100,153824
1574949900.393846,151669.333,26084,3,PR,1,100,153854
1574949900.432537,151702.000,26084,3,PR,1,100,153880
1574949900.474781,151737.667,26102,3,PR,1,100,153914
1574949900.517024,151773.333,26102,3,PR,1,100,153941
1574949900.559268,151809.000,26102,3,PR,1,100,153949
1574949900.600130,151843.500,26119,2,PR,1,100,153966
1574949900.640992,151878.000,26119,2,PR,1,100,153967
1574949900.682052,151912.667,26137,3,PR,1,100,153949
1574949900.723112,151947.333,26137,3,PR,1,100,154000
1574949900.764171,151982.000,26137,3,PR,1,100,154011
1574949900.806415,152017.667,26154,3,PR,1,100,154042
1574949900.848659,152053.333,26154,3,PR,1,100,154053
1574949900.890903,152089.000,26154,3,PR,1,100,154122
1574949900.932357,152124.000,26172,3,PR,1,100,153971
1574949900.973811,152159.000,26172,3,PR,1,100,153827
1574949901.015266,152194.000,26172,3,PR,1,100,153750
1574949901.056720,152229.000,26193,5,PR,1,100,153824
1574949901.098174,152264.000,26193,5,PR,1,100,153830
1574949901.139629,152299.000,26193,5,PR,1,100,153936
1574949901.181083,152334.000,26193,5,PR,1,100,153870
1574949901.222537,152369.000,26193,5,PR,1,100,153882
1574949901.260833,152401.333,26213,3,PR,1,100,153855
1574949901.299129,152433.667,26213,3,PR,1,100,153890
1574949901.337425,152466.000,26213,3,PR,1,100,153871
1574949901.378484,152500.667,26229,3,PR,1,100,153927
1574949901.419544,152535.333,26229,3,PR,1,100,153917
1574949901.460603,152570.000,26229,3,PR,1,100,153941
1574949901.502058,152605.000,26247,2,PR,1,100,153976
1574949901.543512,152640.000,26247,2,PR,1,100,153959
1574949901.587335,152677.000,26265,3,PR,1,100,153989
1574949901.631159,152714.000,26265,3,PR,1,100,153992
1574949901.674982,152751.000,26265,3,PR,1,100,154027
1574949901.712093,152782.333,26283,3,PR,1,100,154015
1574949901.749205,152813.667,26283,3,PR,1,100,154021
1574949901.786316,152845.000,26283,3,PR,1,100,154037
1574949901.825698,152878.250,26302,4,PR,1,100,154042
1574949901.865079,152911.500,26302,4,PR,1,100,154068
1574949901.904461,152944.750,26302,4,PR,1,100,154065
1574949901.943842,152978.000,26302,4,PR,1,100,153940
1574949901.982138,153010.333,26320,3,PR,1,100,153810
1574949902.020434,153042.667,26320,3,PR,1,100,153801
1574949902.058730,153075.000,26320,3,PR,1,100,153900
1574949902.098605,153108.667,26337,3,PR,1,100,153916
1574949902.138480,153142.333,26337,3,PR,1,100,154032
1574949902.178355,153176.000,26337,3,PR,1,100,153964
1574949902.225140,153215.500,26355,2,PR,1,100,153933
1574949902.271924,153255.000,26355,2,PR,1,100,153907
1574949902.309825,153287.000,26371,3,PR,1,100,153939
1574949902.347726,153319.000,26371,3,PR,1,100,154004
1574949902.385627,153351.000,26371,3,PR,1,100,154012
1574949902.426687,153385.667,26389,3,PR,1,100,154052
1574949902.467746,153420.333,26389,3,PR,1,100,154071
1574949902.508806,153455.000,26389,3,PR,1,100,154126
1574949902.550260,153490.000,26407,3,PR,1,100,154131
1574949902.591714,153525.000,26407,3,PR,1,100,154118
1574949902.633168,153560.000,26407,3,PR,1,100,154138
1574949902.672254,153593.000,26425,3,PR,1,100,154145
1574949902.711339,153626.000,26425,3,PR,1,100,154182
1574949902.750425,153659.000,26425,3,PR,1,100,154189
1574949902.791485,153693.667,26443,3,PR,1,100,154240
1574949902.832544,153728.333,26443,3,PR,1,100,154250
1574949902.873604,153763.000,26443,3,PR,1,100,154191
1574949902.913479,153796.667,26462,3,PR,1,100,154037
1574949902.953354,153830.333,26462,3,PR,1,100,153965
1574949902.993229,153864.000,26462,3,PR,1,100,154003
1574949903.033894,153898.333,26480,3,PR,1,100,154055
1574949903.074558,153932.667,26480,3,PR,1,100,154073
1574949903.115223,153967.000,26480,3,PR,1,100,154073
1574949903.155888,154001.333,26498,3,PR,1,100,154087
1574949903.196553,154035.667,26498,3,PR,1,100,154102
1574949903.237217,154070.000,26498,3,PR,1,100,154089
1574949903.277092,154103.667,26515,3,PR,1,100,154148
1574949903.316967,154137.333,26515,3,PR,1,100,154148
1574949903.356843,154171.000,26515,3,PR,1,100,154177
1574949903.394744,154203.000,26533,3,PR,1,100,154223
1574949903.432645,154235.000,26533,3,PR,1,100,154230
1574949903.470546,154267.000,26533,3,PR,1,100,154273
1574949903.509631,154300.000,26549,3,PR,1,100,154291
1574949903.548717,154333.000,26549,3,PR,1,100,154297
1574949903.587802,154366.000,26549,3,PR,1,100,154286
1574949903.629256,154401.000,26567,3,PR,1,100,154295
1574949903.670711,154436.000,26567,3,PR,1,100,154358
1574949903.712165,154471.000,26567,3,PR,1,100,154342
1574949903.752830,154505.333,26585,3,PR,1,100,154386
1574949903.793495,154539.667,26585,3,PR,1,100,154375
1574949903.834159,154574.000,26585,3,PR,1,100,154353
1574949903.874429,154608.000,26604,3,PR,1,100,154215
1574949903.914699,154642.000,26604,3,PR,1,100,154105
1574949903.954969,154676.000,26604,3,PR,1,100,154149
1574949903.992870,154708.000,26622,3,PR,1,100,154162
1574949904.030771,154740.000,26622,3,PR,1,100,154244
1574949904.068672,154772.000,26622,3,PR,1,100,154297
1574949904.106573,154804.000,26640,3,PR,1,100,154314
1574949904.144475,154836.000,26640,3,PR,1,100,154309
1574949904.182376,154868.000,26640,3,PR,1,100,154294
1574949904.223040,154902.333,26658,3,PR,1,100,154303
1574949904.263705,154936.667,26658,3,PR,1,100,154277
1574949904.304370,154971.000,26658,3,PR,1,100,154322
1574949904.345034,155005.333,26676,3,PR,1,100,154377
1574949904.385699,155039.667,26676,3,PR,1,100,154391
1574949904.426364,155074.000,26676,3,PR,1,100,154419
1574949904.468608,155109.667,26693,3,PR,1,100,154439
1574949904.510852,155145.333,26693,3,PR,1,100,154427
1574949904.553096,155181.000,26693,3,PR,1,100,154407
1574949904.594550,155216.000,26711,3,PR,1,100,154475
1574949904.636004,155251.000,26711,3,PR,1,100,154504
1574949904.677459,155286.000,26711,3,PR,1,100,154504
1574949904.719702,155321.667,26727,3,PR,1,100,154489
1574949904.761946,155357.333,26727,3,PR,1,100,154579
1574949904.804190,155393.000,26727,3,PR,1,100,154579
1574949904.846434,155428.667,26746,3,PR,1,100,154514
1574949904.888678,155464.333,26746,3,PR,1,100,154328
1574949904.930922,155500.000,26746,3,PR,1,100,154292
1574949904.968823,155532.000,26764,3,PR,1,100,154296
1574949905.006724,155564.000,26764,3,PR,1,100,154348
1574949905.044626,155596.000,26764,3,PR,1,100,154317
1574949905.087264,155632.000,26782,3,PR,1,100,154388
1574949905.129903,155668.000,26782,3,PR,1,100,154366
1574949905.172542,155704.000,26782,3,PR,1,100,154386
1574949905.212811,155738.000,26800,2,PR,1,100,154375
1574949905.253081,155772.000,26800,2,PR,1,100,154367
1574949905.294536,155807.000,26817,3,PR,1,100,154390
1574949905.335990,155842.000,26817,3,PR,1,100,154442
1574949905.377444,155877.000,26817,3,PR,1,100,154455
1574949905.419293,155912.333,26835,3,PR,1,100,154481
1574949905.461143,155947.667,26835,3,PR,1,100,154507
1574949905.502992,155983.000,26835,3,PR,1,100,154536
1574949905.540498,156014.667,26851,3,PR,1,100,154539
1574949905.578004,156046.333,26851,3,PR,1,100,154553
1574949905.615511,156078.000,26851,3,PR,1,100,154557
1574949905.653412,156110.000,26869,4,PR,1,100,154593
1574949905.691313,156142.000,26869,4,PR,1,100,154619
1574949905.729214,156174.000,26869,4,PR,1,100,154628
1574949905.767115,156206.000,26869,4,PR,1,100,154636
1574949905.806201,156239.000,26887,3,PR,1,100,154660
1574949905.845286,156272.000,26887,3,PR,1,100,154737
1574949905.884372,156305.000,26887,3,PR,1,100,154524
1574949905.925234,156339.500,26906,2,PR,1,100,154454
1574949905.966096,156374.000,26906,2,PR,1,100,154383
1574949906.011103,156412.000,26924,3,PR,1,100,154416
1574949906.056111,156450.000,26924,3,PR,1,100,154461
1574949906.101118,156488.000,26924,3,PR,1,100,154478
1574949906.139414,156520.333,26942,3,PR,1,100,154500
1574949906.177710,156552.667,26942,3,PR,1,100,154493
1574949906.216006,156585.000,26942,3,PR,1,100,154493
1574949906.257066,156619.667,26960,3,PR,1,100,154466
1574949906.298125,156654.333,26960,3,PR,1,100,154521
1574949906.339185,156689.000,26960,3,PR,1,100,154553
1574949906.380639,156724.000,26977,3,PR,1,100,154587
1574949906.422093,156759.000,26977,3,PR,1,100,154609
1574949906.463547,156794.000,26977,3,PR,1,100,154635
1574949906.501054,156825.667,26995,3,PR,1,100,154692
1574949906.538560,156857.333,26995,3,PR,1,100,154693
1574949906.576066,156889.000,26995,3,PR,1,100,154733
1574949906.618310,156924.667,27013,3,PR,1,100,154737
1574949906.660554,156960.333,27013,3,PR,1,100,154781
1574949906.702798,156996.000,27013,3,PR,1,100,154793
1574949906.743858,157030.667,27029,3,PR,1,100,154856
1574949906.784917,157065.333,27029,3,PR,1,100,154882
1574949906.825977,157100.000,27029,3,PR,1,100,154911
1574949906.866641,157134.333,27048,3,PR,1,100,154935
1574949906.907306,157168.667,27048,3,PR,1,100,154943
1574949906.947971,157203.000,27048,3,PR,1,100,155030
1574949906.989425,157238.000,27066,3,PR,1,100,154987
1574949907.030879,157273.000,27066,3,PR,1,100,155132
1574949907.072334,157308.000,27066,3,PR,1,100,155137
1574949907.109761,157339.600,27087,5,PR,1,100,154981
1574949907.147188,157371.200,27087,5,PR,1,100,154844
1574949907.184616,157402.800,27087,5,PR,1,100,154810
1574949907.222043,157434.400,27087,5,PR,1,100,154841
1574949907.259470,157466.000,27087,5,PR,1,100,154888
1574949907.299345,157499.667,27107,3,PR,1,100,154910
1574949907.339221,157533.333,27107,3,PR,1,100,154910
1574949907.379096,157567.000,27107,3,PR,1,100,154896
1574949907.420155,157601.667,27123,3,PR,1,100,154868
1574949907.461215,157636.333,27123,3,PR,1,100,154867
1574949907.502274,157671.000,27123,3,PR,1,100,154924
1574949907.543334,157705.667,27141,3,PR,1,100,154912
1574949907.584393,157740.333,27141,3,PR,1,100,154941
1574949907.625453,157775.000,27141,3,PR,1,100,154980
1574949907.665328,157808.667,27159,3,PR,1,100,154992
1574949907.705203,157842.333,27159,3,PR,1,100,155019
1574949907.745078,157876.000,27159,3,PR,1,100,155031
1574949907.781795,157907.000,27177,3,PR,1,100,155029
1574949907.818511,157938.000,27177,3,PR,1,100,155022
1574949907.855228,157969.000,27177,3,PR,1,100,155076
1574949907.894708,158002.333,27196,3,PR,1,100,155058
1574949907.934189,158035.667,27196,3,PR,1,100,155118
1574949907.973669,158069.000,27196,3,PR,1,100,155102
1574949908.014334,158103.333,27214,3,PR,1,100,155130
1574949908.054998,158137.667,27214,3,PR,1,100,155111
1574949908.095663,158172.000,27214,3,PR,1,100,155154
1574949908.136328,158206.333,27232,3,PR,1,100,155253
1574949908.176993,158240.667,27232,3,PR,1,100,155141
1574949908.217657,158275.000,27232,3,PR,1,100,154970
1574949908.259506,158310.333,27249,3,PR,1,100,154859
1574949908.301356,158345.667,27249,3,PR,1,100,154832
1574949908.343205,158381.000,27249,3,PR,1,100,154896
1574949908.384659,158416.000,27267,3,PR,1,100,154910
1574949908.426113,158451.000,27267,3,PR,1,100,154915
1574949908.467568,158486.000,27267,3,PR,1,100,154901
1574949908.509022,158521.000,27283,3,PR,1,100,154847
1574949908.550476,158556.000,27283,3,PR,1,100,154837
1574949908.591931,158591.000,27283,3,PR,1,100,154835
1574949908.633977,158626.500,27301,2,PR,1,100,154877
1574949908.676024,158662.000,27301,2,PR,1,100,154834
1574949908.716294,158696.000,27319,3,PR,1,100,154902
1574949908.756563,158730.000,27319,3,PR,1,100,154894
1574949908.796833,158764.000,27319,3,PR,1,100,154879
1574949908.835327,158796.500,27338,4,PR,1,100,154904
1574949908.873820,158829.000,27338,4,PR,1,100,154869
1574949908.912313,158861.500,27338,4,PR,1,100,154892
1574949908.950807,158894.000,27338,4,PR,1,100,154873
1574949908.989497,158926.667,27356,3,PR,1,100,154864
1574949909.028188,158959.333,27356,3,PR,1,100,154858
1574949909.066879,158992.000,27356,3,PR,1,100,154876
1574949909.106359,159025.333,27374,3,PR,1,100,154873
1574949909.145839,159058.667,27374,3,PR,1,100,154907
1574949909.185319,159092.000,27374,3,PR,1,100,154871
1574949909.223221,159124.000,27392,3,PR,1,100,154597
1574949909.261122,159156.000,27392,3,PR,1,100,154358
1574949909.299023,159188.000,27392,3,PR,1,100,154282
1574949909.333766,159217.333,27410,3,PR,1,100,154273
1574949909.368508,159246.667,27410,3,PR,1,100,154272
1574949909.403251,159276.000,27410,3,PR,1,100,154292
1574949909.441941,159308.667,27428,3,PR,1,100,154273
1574949909.480632,159341.333,27428,3,PR,1,100,154208
1574949909.519323,159374.000,27428,3,PR,1,100,154127
1574949909.558408,159407.000,27445,3,PR,1,100,154176
1574949909.597494,159440.000,27445,3,PR,1,100,154161
1574949909.636579,159473.000,27445,3,PR,1,100,154219
1574949909.678428,159508.333,27463,3,PR,1,100,154209
1574949909.720278,159543.667,27463,3,PR,1,100,154224
1574949909.762127,159579.000,27463,3,PR,1,100,154235
1574949909.801607,159612.333,27479,3,PR,1,100,154243
1574949909.841087,159645.667,27479,3,PR,1,100,154216
1574949909.880568,159679.000,27479,3,PR,1,100,154221
1574949909.921627,159713.667,27498,3,PR,1,100,154231
1574949909.962687,159748.333,27498,3,PR,1,100,154216
1574949910.003746,159783.000,27498,3,PR,1,100,154243
1574949910.045595,159818.333,27516,3,PR,1,100,154252
1574949910.087444,159853.667,27516,3,PR,1,100,154253
1574949910.129293,159889.000,27516,3,PR,1,100,154249
1574949910.167984,159921.667,27534,3,PR,1,100,154337
1574949910.206675,159954.333,27534,3,PR,1,100,154323
1574949910.245366,159987.000,27534,3,PR,1,100,154399
1574949910.284846,160020.333,27552,3,PR,1,100,154133
1574949910.324326,160053.667,27552,3,PR,1,100,153930
1574949910.363806,160087.000,27552,3,PR,1,100,153908
1574949910.401313,160118.667,27570,3,PR,1,100,153964
1574949910.438819,160150.333,27570,3,PR,1,100,153988
1574949910.476325,160182.000,27570,3,PR,1,100,153999
1574949910.514621,160214.333,27588,3,PR,1,100,154016
1574949910.552917,160246.667,27588,3,PR,1,100,153993
1574949910.591213,160279.000,27588,3,PR,1,100,153974
1574949910.631088,160312.667,27606,3,PR,1,100,153965
1574949910.670963,160346.333,27606,3,PR,1,100,153982
1574949910.710838,160380.000,27606,3,PR,1,100,153984
1574949910.751108,160414.000,27623,3,PR,1,100,154074
1574949910.791378,160448.000,27623,3,PR,1,100,154068
1574949910.831648,160482.000,27623,3,PR,1,100,154149
1574949910.877050,160520.333,27642,3,PR,1,100,154133
1574949910.922453,160558.667,27642,3,PR,1,100,154143
1574949910.967855,160597.000,27642,3,PR,1,100,154151
1574949911.005756,160629.000,27658,3,PR,1,100,154152
1574949911.043657,160661.000,27658,3,PR,1,100,154223
1574949911.081558,160693.000,27658,3,PR,1,100,154240
1574949911.119854,160725.333,27676,3,PR,1,100,154246
1574949911.158150,160757.667,27676,3,PR,1,100,154240
1574949911.196446,160790.000,27676,3,PR,1,100,154295
1574949911.237111,160824.333,27694,3,PR,1,100,154293
1574949911.277776,160858.667,27694,3,PR,1,100,154336
1574949911.318440,160893.000,27694,3,PR,1,100,154312
1574949911.359500,160927.667,27712,3,PR,1,100,154112
1574949911.400559,160962.333,27712,3,PR,1,100,154035
1574949911.441619,160997.000,27712,3,PR,1,100,154010
1574949911.483073,161032.000,27730,3,PR,1,100,154076
1574949911.524527,161067.000,27730,3,PR,1,100,154100
1574949911.565982,161102.000,27730,3,PR,1,100,154120
1574949911.604672,161134.667,27748,3,PR,1,100,154093
1574949911.643363,161167.333,27748,3,PR,1,100,154026
1574949911.682054,161200.000,27748,3,PR,1,100,154044
1574949911.719165,161231.333,27766,3,PR,1,100,154006
1574949911.756277,161262.667,27766,3,PR,1,100,154090
1574949911.793388,161294.000,27766,3,PR,1,100,154090
1574949911.833263,161327.667,27785,3,PR,1,100,154119
1574949911.873138,161361.333,27785,3,PR,1,100,154134
1574949911.913013,161395.000,27785,3,PR,1,100,154140
1574949911.953678,161429.333,27803,3,PR,1,100,154180
1574949911.994343,161463.667,27803,3,PR,1,100,154146
1574949912.035008,161498.000,27803,3,PR,1,100,154171
1574949912.075672,161532.333,27820,3,PR,1,100,154166
1574949912.116337,161566.667,27820,3,PR,1,100,154180
1574949912.157002,161601.000,27820,3,PR,1,100,154201
1574949912.197272,161635.000,27838,3,PR,1,100,154231
1574949912.237542,161669.000,27838,3,PR,1,100,154248
1574949912.277812,161703.000,27838,3,PR,1,100,154244
1574949912.316108,161735.333,27854,3,PR,1,100,154249
1574949912.354403,161767.667,27854,3,PR,1,100,154085
1574949912.392699,161800.000,27854,3,PR,1,100,153914
1574949912.433364,161834.333,27872,3,PR,1,100,153882
1574949912.474029,161868.667,27872,3,PR,1,100,153921
1574949912.514693,161903.000,27872,3,PR,1,100,153934
1574949912.552594,161935.000,27890,3,PR,1,100,153905
1574949912.590496,161967.000,27890,3,PR,1,100,153926
1574949912.628397,161999.000,27890,3,PR,1,100,153901
1574949912.668272,162032.667,27908,3,PR,1,100,153855
1574949912.708147,162066.333,27908,3,PR,1,100,153827
1574949912.748022,162100.000,27908,3,PR,1,100,153877
1574949912.787897,162133.667,27926,3,PR,1,100,153889
1574949912.827772,162167.333,27926,3,PR,1,100,153892
1574949912.867647,162201.000,27926,3,PR,1,100,153933
1574949912.907128,162234.333,27945,3,PR,1,100,153947
1574949912.946608,162267.667,27945,3,PR,1,100,153962
1574949912.986088,162301.000,27945,3,PR,1,100,153923
1574949913.023693,162332.750,27963,4,PR,1,100,153979
1574949913.061298,162364.500,27963,4,PR,1,100,153961
1574949913.098903,162396.250,27963,4,PR,1,100,154000
1574949913.136508,162428.000,27963,4,PR,1,100,153970
1574949913.175001,162460.500,27984,4,PR,1,100,154036
1574949913.213495,162493.000,27984,4,PR,1,100,153962
1574949913.251988,162525.500,27984,4,PR,1,100,154051
1574949913.290481,162558.000,27984,4,PR,1,100,154027
1574949913.334304,162595.000,28004,3,PR,1,100,154056
1574949913.378128,162632.000,28004,3,PR,1,100,153946
1574949913.421951,162669.000,28004,3,PR,1,100,153718
1574949913.460247,162701.333,28022,3,PR,1,100,153642
1574949913.498543,162733.667,28022,3,PR,1,100,153649
1574949913.536838,162766.000,28022,3,PR,1,100,153680
1574949913.577503,162800.333,28040,3,PR,1,100,153675
1574949913.618168,162834.667,28040,3,PR,1,100,153722
1574949913.658833,162869.000,28040,3,PR,1,100,153683
1574949913.700287,162904.000,28058,3,PR,1,100,153600
1574949913.741741,162939.000,28058,3,PR,1,100,153550
1574949913.783195,162974.000,28058,3,PR,1,100,153570
1574949913.823860,163008.333,28076,3,PR,1,100,153606
1574949913.864525,163042.667,28076,3,PR,1,100,153615
1574949913.905190,163077.000,28076,3,PR,1,100,153659
1574949913.946249,163111.667,28094,3,PR,1,100,153628
1574949913.987309,163146.333,28094,3,PR,1,100,153637
1574949914.028368,163181.000,28094,3,PR,1,100,153654
1574949914.064295,163211.333,28112,3,PR,1,100,153664
1574949914.100222,163241.667,28112,3,PR,1,100,153649
1574949914.136149,163272.000,28112,3,PR,1,100,153627
1574949914.174445,163304.333,28128,3,PR,1,100,153617
1574949914.212741,163336.667,28128,3,PR,1,100,153652
1574949914.251037,163369.000,28128,3,PR,1,100,153678
1574949914.290517,163402.333,28146,3,PR,1,100,153664
1574949914.329998,163435.667,28146,3,PR,1,100,153661
1574949914.369478,163469.000,28146,3,PR,1,100,153662
1574949914.410143,163503.333,28164,3,PR,1,100,153506
1574949914.450807,163537.667,28164,3,PR,1,100,153333
1574949914.491472,163572.000,28164,3,PR,1,100,153350
1574949914.536085,163609.667,28182,3,PR,1,100,153342
1574949914.580698,163647.333,28182,3,PR,1,100,153385
1574949914.625310,163685.000,28182,3,PR,1,100,153423
1574949914.664791,163718.333,28200,3,PR,1,100,153438
1574949914.704271,163751.667,28200,3,PR,1,100,153367
1574949914.743751,163785.000,28200,3,PR,1,100,153317
1574949914.781258,163816.667,28218,3,PR,1,100,153260
1574949914.818764,163848.333,28218,3,PR,1,100,153293
1574949914.856270,163880.000,28218,3,PR,1,100,153346
1574949914.895356,163913.000,28237,3,PR,1,100,153373
1574949914.934441,163946.000,28237,3,PR,1,100,153408
1574949914.973526,163979.000,28237,3,PR,1,100,153380
1574949915.014981,164014.000,28255,3,PR,1,100,153371
1574949915.056435,164049.000,28255,3,PR,1,100,153369
1574949915.097890,164084.000,28255,3,PR,1,100,153386
1574949915.138554,164118.333,28272,3,PR,1,100,153405
1574949915.179219,164152.667,28272,3,PR,1,100,153394
1574949915.219884,164187.000,28272,3,PR,1,100,153382
1574949915.260548,164221.333,28290,3,PR,1,100,153377
1574949915.301213,164255.667,28290,3,PR,1,100,153442
1574949915.341878,164290.000,28290,3,PR,1,100,153411
1574949915.379779,164322.000,28308,3,PR,1,100,153366
1574949915.417680,164354.000,28308,3,PR,1,100,153120
1574949915.455581,164386.000,28308,3,PR,1,100,153025
1574949915.493877,164418.333,28324,3,PR,1,100,153054
1574949915.532173,164450.667,28324,3,PR,1,100,153091
1574949915.570469,164483.000,28324,3,PR,1,100,153102
1574949915.611134,164517.333,28342,3,PR,1,100,153104
1574949915.651798,164551.667,28342,3,PR,1,100,153083
1574949915.692463,164586.000,28342,3,PR,1,100,153050
1574949915.732733,164620.000,28360,3,PR,1,100,153058
1574949915.773003,164654.000,28360,3,PR,1,100,152999
1574949915.813273,164688.000,28360,3,PR,1,100,153095
1574949915.853937,164722.333,28379,3,PR,1,100,153093
1574949915.894602,164756.667,28379,3,PR,1,100,153105
1574949915.935267,164791.000,28379,3,PR,1,100,153135
1574949915.973168,164823.000,28397,3,PR,1,100,153161
1574949916.011069,164855.000,28397,3,PR,1,100,153199
1574949916.048970,164887.000,28397,3,PR,1,100,153208
1574949916.088056,164920.000,28415,3,PR,1,100,153222
1574949916.127141,164953.000,28415,3,PR,1,100,153214
1574949916.166227,164986.000,28415,3,PR,1,100,153244
1574949916.207681,165021.000,28433,3,PR,1,100,153280
1574949916.249135,165056.000,28433,3,PR,1,100,153265
1574949916.290590,165091.000,28433,3,PR,1,100,153344
1574949916.330465,165124.667,28451,3,PR,1,100,153330
1574949916.370340,165158.333,28451,3,PR,1,100,153298
1574949916.410215,165192.000,28451,3,PR,1,100,153153
1574949916.450485,165226.000,28468,3,PR,1,100,153060
1574949916.490755,165260.000,28468,3,PR,1,100,153060
1574949916.531024,165294.000,28468,3,PR,1,100,153115
1574949916.572479,165329.000,28486,3,PR,1,100,153175
1574949916.613933,165364.000,28486,3,PR,1,100,153160
1574949916.655387,165399.000,28486,3,PR,1,100,153165
1574949916.691314,165429.333,28502,3,PR,1,100,153174
1574949916.727242,165459.667,28502,3,PR,1,100,153172
1574949916.763169,165490.000,28502,3,PR,1,100,153195
1574949916.808571,165528.333,28521,3,PR,1,100,153224
1574949916.853973,165566.667,28521,3,PR,1,100,153268
1574949916.899376,165605.000,28521,3,PR,1,100,153319
1574949916.938461,165638.000,28539,3,PR,1,100,153368
1574949916.977547,165671.000,28539,3,PR,1,100,153377
1574949917.016632,165704.000,28539,3,PR,1,100,153407
1574949917.054533,165736.000,28557,3,PR,1,100,153433
1574949917.092434,165768.000,28557,3,PR,1,100,153471
1574949917.130336,165800.000,28557,3,PR,1,100,153478
1574949917.169026,165832.667,28575,3,PR,1,100,153495
1574949917.207717,165865.333,28575,3,PR,1,100,153525
1574949917.246408,165898.000,28575,3,PR,1,100,153550
1574949917.287467,165932.667,28593,3,PR,1,100,153580
1574949917.328526,165967.333,28593,3,PR,1,100,153608
1574949917.369586,166002.000,28593,3,PR,1,100,153640
1574949917.410646,166036.667,28610,3,PR,1,100,153574
1574949917.451705,166071.333,28610,3,PR,1,100,153467
1574949917.492765,166106.000,28610,3,PR,1,100,153507
1574949917.536983,166143.333,28628,3,PR,1,100,153519
1574949917.581201,166180.667,28628,3,PR,1,100,153558
1574949917.625418,166218.000,28628,3,PR,1,100,153595
1574949917.661345,166248.333,28646,3,PR,1,100,153594
1574949917.697273,166278.667,28646,3,PR,1,100,153634
1574949917.733200,166309.000,28646,3,PR,1,100,153620
1574949917.773075,166342.667,28662,3,PR,1,100,153637
1574949917.812950,166376.333,28662,3,PR,1,100,153644
1574949917.852825,166410.000,28662,3,PR,1,100,153733
1574949917.890726,166442.000,28681,3,PR,1,100,153775
1574949917.928627,166474.000,28681,3,PR,1,100,153777
1574949917.966528,166506.000,28681,3,PR,1,100,153785
1574949918.006403,166539.667,28699,3,PR,1,100,153778
1574949918.046278,166573.333,28699,3,PR,1,100,153875
1574949918.086154,166607.000,28699,3,PR,1,100,153845
1574949918.130372,166644.333,28717,3,PR,1,100,153911
1574949918.174589,166681.667,28717,3,PR,1,100,153910
1574949918.218807,166719.000,28717,3,PR,1,100,153917
1574949918.259867,166753.667,28735,3,PR,1,100,153939
1574949918.300926,166788.333,28735,3,PR,1,100,153970
1574949918.341986,166823.000,28735,3,PR,1,100,154024
1574949918.382256,166857.000,28753,3,PR,1,100,154072
1574949918.422526,166891.000,28753,3,PR,1,100,153998
1574949918.462796,166925.000,28753,3,PR,1,100,153847
1574949918.500302,166956.667,28771,3,PR,1,100,153854
1574949918.537808,166988.333,28771,3,PR,1,100,153828
1574949918.575315,167020.000,28771,3,PR,1,100,153903
1574949918.614795,167053.333,28789,3,PR,1,100,153858
1574949918.654275,167086.667,28789,3,PR,1,100,153855
1574949918.693755,167120.000,28789,3,PR,1,100,153859
1574949918.734815,167154.667,28806,3,PR,1,100,153851
1574949918.775874,167189.333,28806,3,PR,1,100,153860
1574949918.816934,167224.000,28806,3,PR,1,100,153885
1574949918.857994,167258.667,28825,3,PR,1,100,153881
1574949918.899053,167293.333,28825,3,PR,1,100,153899
1574949918.940113,167328.000,28825,3,PR,1,100,153875
1574949918.980777,167362.333,28841,3,PR,1,100,153956
1574949919.021442,167396.667,28841,3,PR,1,100,153928
1574949919.062107,167431.000,28841,3,PR,1,100,153978
1574949919.099613,167462.667,28859,3,PR,1,100,153949
1574949919.137119,167494.333,28859,3,PR,1,100,153950
1574949919.174626,167526.000,28859,3,PR,1,100,153963
1574949919.213711,167559.000,28880,5,PR,1,100,153938
1574949919.252797,167592.000,28880,5,PR,1,100,153975
1574949919.291882,167625.000,28880,5,PR,1,100,153967
1574949919.330967,167658.000,28880,5,PR,1,100,153979
1574949919.370053,167691.000,28880,5,PR,1,100,153977
1574949919.411507,167726.000,28900,3,PR,1,100,154052
1574949919.452962,167761.000,28900,3,PR,1,100,154069
1574949919.494416,167796.000,28900,3,PR,1,100,153923
1574949919.534686,167830.000,28918,2,PR,1,100,153846
1574949919.574956,167864.000,28918,2,PR,1,100,153821
1574949919.614337,167897.250,28934,4,PR,1,100,153843
1574949919.653719,167930.500,28934,4,PR,1,100,153793
1574949919.693101,167963.750,28934,4,PR,1,100,153800
1574949919.732482,167997.000,28934,4,PR,1,100,153823
1574949919.770778,168029.333,28952,3,PR,1,100,153778
1574949919.809074,168061.667,28952,3,PR,1,100,153762
1574949919.847370,168094.000,28952,3,PR,1,100,153738
1574949919.886850,168127.333,28971,3,PR,1,100,153781
1574949919.926331,168160.667,28971,3,PR,1,100,153749
1574949919.965811,168194.000,28971,3,PR,1,100,153815
1574949920.008055,168229.667,28989,3,PR,1,100,153794
1574949920.050299,168265.333,28989,3,PR,1,100,153784
1574949920.092543,168301.000,28989,3,PR,1,100,153792
1574949920.132220,168334.500,29007,2,PR,1,100,153781
1574949920.171898,168368.000,29007,2,PR,1,100,153788
1574949920.214142,168403.667,29025,3,PR,1,100,153755
1574949920.256386,168439.333,29025,3,PR,1,100,153759
1574949920.298630,168475.000,29025,3,PR,1,100,153752
1574949920.339294,168509.333,29043,3,PR,1,100,153792
1574949920.379959,168543.667,29043,3,PR,1,100,153756
1574949920.420624,168578.000,29043,3,PR,1,100,153761
1574949920.461683,168612.667,29060,3,PR,1,100,153752
1574949920.502743,168647.333,29060,3,PR,1,100,153765
1574949920.543802,168682.000,29060,3,PR,1,100,153738
1574949920.585257,168717.000,29078,3,PR,1,100,153722
1574949920.626711,168752.000,29078,3,PR,1,100,153685
1574949920.668165,168787.000,29078,3,PR,1,100,153745
1574949920.706066,168819.000,29094,3,PR,1,100,153780
1574949920.743968,168851.000,29094,3,PR,1,100,153632
1574949920.781869,168883.000,29094,3,PR,1,100,153523
1574949920.827271,168921.333,29113,3,PR,1,100,153498
1574949920.872673,168959.667,29113,3,PR,1,100,153510
1574949920.918076,168998.000,29113,3,PR,1,100,153456
1574949920.955187,169029.333,29131,3,PR,1,100,153361
1574949920.992299,169060.667,29131,3,PR,1,100,153344
1574949921.029410,169092.000,29131,3,PR,1,100,153302
1574949921.070864,169127.000,29149,3,PR,1,100,153278
1574949921.112319,169162.000,29149,3,PR,1,100,153238
1574949921.153773,169197.000,29149,3,PR,1,100,153318
1574949921.194833,169231.667,29167,3,PR,1,100,153270
1574949921.235892,169266.333,29167,3,PR,1,100,153347
1574949921.276952,169301.000,29167,3,PR,1,100,153275
1574949921.319590,169337.000,29185,3,PR,1,100,153253
1574949921.362229,169373.000,29185,3,PR,1,100,153248
1574949921.404868,169409.000,29185,3,PR,1,100,153255
1574949921.446322,169444.000,29202,2,PR,1,100,153240
1574949921.487777,169479.000,29202,2,PR,1,100,153235
1574949921.527158,169512.250,29218,4,PR,1,100,153232
1574949921.566540,169545.500,29218,4,PR,1,100,153215
1574949921.605921,169578.750,29218,4,PR,1,100,153210
1574949921.645303,169612.000,29218,4,PR,1,100,153208
1574949921.683204,169644.000,29236,3,PR,1,100,153228
1574949921.721105,169676.000,29236,3,PR,1,100,153256
1574949921.759006,169708.000,29236,3,PR,1,100,153173
1574949921.798486,169741.333,29254,3,PR,1,100,152981
1574949921.837967,169774.667,29254,3,PR,1,100,152939
1574949921.877447,169808.000,29254,3,PR,1,100,152948
1574949921.918507,169842.667,29273,3,PR,1,100,152931
1574949921.959566,169877.333,29273,3,PR,1,100,152939
1574949922.000626,169912.000,29273,3,PR,1,100,152986
1574949922.041290,169946.333,29291,3,PR,1,100,152939
1574949922.081955,169980.667,29291,3,PR,1,100,152924
1574949922.122620,170015.000,29291,3,PR,1,100,152928
1574949922.162890,170049.000,29309,3,PR,1,100,152922
1574949922.203160,170083.000,29309,3,PR,1,100,152979
1574949922.243429,170117.000,29309,3,PR,1,100,152995
1574949922.284884,170152.000,29327,2,PR,1,100,153008
1574949922.326338,170187.000,29327,2,PR,1,100,153012
1574949922.365128,170219.750,29345,4,PR,1,100,153016
1574949922.403917,170252.500,29345,4,PR,1,100,153033
1574949922.442706,170285.250,29345,4,PR,1,100,153049
1574949922.481496,170318.000,29345,4,PR,1,100,153070
1574949922.524727,170354.500,29362,2,PR,1,100,153032
1574949922.567957,170391.000,29362,2,PR,1,100,153053
1574949922.607043,170424.000,29380,3,PR,1,100,153071
1574949922.646128,170457.000,29380,3,PR,1,100,153092
1574949922.685214,170490.000,29380,3,PR,1,100,153122
1574949922.725879,170524.333,29398,3,PR,1,100,153128
1574949922.766543,170558.667,29398,3,PR,1,100,153148
1574949922.807208,170593.000,29398,3,PR,1,100,153150
1574949922.848662,170628.000,29415,3,PR,1,100,153055
1574949922.890117,170663.000,29415,3,PR,1,100,152929
1574949922.931571,170698.000,29415,3,PR,1,100,152979
1574949922.971446,170731.667,29433,3,PR,1,100,152996
1574949923.011321,170765.333,29433,3,PR,1,100,153065
1574949923.051196,170799.000,29433,3,PR,1,100,153074
1574949923.089097,170831.000,29451,4,PR,1,100,153084
1574949923.126999,170863.000,29451,4,PR,1,100,153116
1574949923.164900,170895.000,29451,4,PR,1,100,153098
1574949923.202801,170927.000,29451,4,PR,1,100,153127
1574949923.243071,170961.000,29469,2,PR,1,100,153128
1574949923.283341,170995.000,29469,2,PR,1,100,153180
1574949923.324400,171029.667,29487,3,PR,1,100,153200
1574949923.365460,171064.333,29487,3,PR,1,100,153276
1574949923.406519,171099.000,29487,3,PR,1,100,153253
1574949923.447973,171134.000,29505,3,PR,1,100,153275
1574949923.489428,171169.000,29505,3,PR,1,100,153283
1574949923.530882,171204.000,29505,3,PR,1,100,153286
1574949923.571152,171238.000,29523,3,PR,1,100,153320
1574949923.611422,171272.000,29523,3,PR,1,100,153324
1574949923.651692,171306.000,29523,3,PR,1,100,153337
1574949923.688704,171337.250,29540,4,PR,1,100,153320
1574949923.725717,171368.500,29540,4,PR,1,100,153314
1574949923.762730,171399.750,29540,4,PR,1,100,153370
1574949923.799743,171431.000,29540,4,PR,1,100,153306
1574949923.839618,171464.667,29559,3,PR,1,100,153440
1574949923.879493,171498.333,29559,3,PR,1,100,153407
1574949923.919368,171532.000,29559,3,PR,1,100,153328
1574949923.960230,171566.500,29577,2,PR,1,100,153273
1574949924.001092,171601.000,29577,2,PR,1,100,153293
1574949924.043336,171636.667,29593,3,PR,1,100,153334
1574949924.085580,171672.333,29593,3,PR,1,100,153352
1574949924.127824,171708.000,29593,3,PR,1,100,153387
1574949924.169673,171743.333,29611,3,PR,1,100,153373
1574949924.211523,171778.667,29611,3,PR,1,100,153373
1574949924.253372,171814.000,29611,3,PR,1,100,153370
1574949924.294036,171848.333,29629,3,PR,1,100,153381
1574949924.334701,171882.667,29629,3,PR,1,100,153373
1574949924.375366,171917.000,29629,3,PR,1,100,153437
1574949924.418005,171953.000,29647,3,PR,1,100,153435
1574949924.460643,171989.000,29647,3,PR,1,100,153441
1574949924.503282,172025.000,29647,3,PR,1,100,153449
1574949924.541183,172057.000,29665,3,PR,1,100,153484
1574949924.579084,172089.000,29665,3,PR,1,100,153447
1574949924.616985,172121.000,29665,3,PR,1,100,153483
1574949924.661993,172159.000,29682,3,PR,1,100,153476
1574949924.707000,172197.000,29682,3,PR,1,100,153522
1574949924.752008,172235.000,29682,3,PR,1,100,153490
1574949924.789909,172267.000,29700,3,PR,1,100,153675
1574949924.827810,172299.000,29700,3,PR,1,100,153588
1574949924.865711,172331.000,29700,3,PR,1,100,153500
1574949924.907165,172366.000,29717,3,PR,1,100,153333
1574949924.948620,172401.000,29717,3,PR,1,100,153409
1574949924.990074,172436.000,29717,3,PR,1,100,153367
1574949925.037450,172476.000,29735,2,PR,1,100,153372
1574949925.084827,172516.000,29735,2,PR,1,100,153385
1574949925.122136,172547.500,29753,4,PR,1,100,153399
1574949925.159445,172579.000,29753,4,PR,1,100,153397
1574949925.196754,172610.500,29753,4,PR,1,100,153370
1574949925.234062,172642.000,29753,4,PR,1,100,153377
1574949925.273740,172675.500,29774,4,PR,1,100,153362
1574949925.313418,172709.000,29774,4,PR,1,100,153393
1574949925.353096,172742.500,29774,4,PR,1,100,153388
1574949925.392773,172776.000,29774,4,PR,1,100,153388
1574949925.431069,172808.333,29794,3,PR,1,100,153381
1574949925.469365,172840.667,29794,3,PR,1,100,153383
1574949925.507661,172873.000,29794,3,PR,1,100,153410
1574949925.547536,172906.667,29810,3,PR,1,100,153420
1574949925.587411,172940.333,29810,3,PR,1,100,153425
1574949925.627286,172974.000,29810,3,PR,1,100,153395
1574949925.671899,173011.667,29828,3,PR,1,100,153448
1574949925.716511,173049.333,29828,3,PR,1,100,153542
1574949925.761124,173087.000,29828,3,PR,1,100,153516
1574949925.797841,173118.000,29846,3,PR,1,100,153377
1574949925.834558,173149.000,29846,3,PR,1,100,153325
1574949925.871274,173180.000,29846,3,PR,1,100,153307
1574949925.912729,173215.000,29865,3,PR,1,100,153354
1574949925.954183,173250.000,29865,3,PR,1,100,153375
1574949925.995637,173285.000,29865,3,PR,1,100,153384
1574949926.036697,173319.667,29883,3,PR,1,100,153363
1574949926.077756,173354.333,29883,3,PR,1,100,153346
1574949926.118816,173389.000,29883,3,PR,1,100,153409
1574949926.157112,173421.333,29901,3,PR,1,100,153380
1574949926.195408,173453.667,29901,3,PR,1,100,153438
1574949926.233704,173486.000,29901,3,PR,1,100,153399
1574949926.275158,173521.000,29919,3,PR,1,100,153414
1574949926.316612,173556.000,29919,3,PR,1,100,153421
1574949926.358067,173591.000,29919,3,PR,1,100,153469
1574949926.397152,173624.000,29937,3,PR,1,100,153465
1574949926.436238,173657.000,29937,3,PR,1,100,153464
1574949926.475323,173690.000,29937,3,PR,1,100,153455
1574949926.515988,173724.333,29954,3,PR,1,100,153451
1574949926.556653,173758.667,29954,3,PR,1,100,153591
1574949926.597317,173793.000,29954,3,PR,1,100,153575
1574949926.639166,173828.333,29972,3,PR,1,100,153530
1574949926.681015,173863.667,29972,3,PR,1,100,153433
1574949926.722864,173899.000,29972,3,PR,1,100,153390
1574949926.761950,173932.000,29988,3,PR,1,100,153413
1574949926.801035,173965.000,29988,3,PR,1,100,153418
1574949926.840121,173998.000,29988,3,PR,1,100,153447
1574949926.878022,174030.000,30007,3,PR,1,100,153491
1574949926.915923,174062.000,30007,3,PR,1,100,153476
1574949926.953824,174094.000,30007,3,PR,1,100,153425
1574949926.992910,174127.000,30025,3,PR,1,100,153418
1574949927.031995,174160.000,30025,3,PR,1,100,153425
1574949927.071081,174193.000,30025,3,PR,1,100,153476
1574949927.111746,174227.333,30043,3,PR,1,100,153508
1574949927.152410,174261.667,30043,3,PR,1,100,153490
1574949927.193075,174296.000,30043,3,PR,1,100,153491
1574949927.234529,174331.000,30061,3,PR,1,100,153518
1574949927.275984,174366.000,30061,3,PR,1,100,153543
1574949927.317438,174401.000,30061,3,PR,1,100,153522
1574949927.356523,174434.000,30079,3,PR,1,100,153547
1574949927.395609,174467.000,30079,3,PR,1,100,153623
1574949927.434694,174500.000,30079,3,PR,1,100,153675
1574949927.472990,174532.333,30097,3,PR,1,100,153656
1574949927.511286,174564.667,30097,3,PR,1,100,153513
1574949927.549582,174597.000,30097,3,PR,1,100,153527
1574949927.587878,174629.333,30115,3,PR,1,100,153483
1574949927.626174,174661.667,30115,3,PR,1,100,153528
1574949927.664470,174694.000,30115,3,PR,1,100,153545
1574949927.705134,174728.333,30132,3,PR,1,100,153569
1574949927.745799,174762.667,30132,3,PR,1,100,153561
1574949927.786464,174797.000,30132,3,PR,1,100,153505
1574949927.828708,174832.667,30150,3,PR,1,100,153491
1574949927.870952,174868.333,30150,3,PR,1,100,153467
1574949927.913196,174904.000,30150,3,PR,1,100,153511
1574949927.954255,174938.667,30167,3,PR,1,100,153472
1574949927.995315,174973.333,30167,3,PR,1,100,153574
1574949928.036374,175008.000,30167,3,PR,1,100,153484
1574949928.078618,175043.667,30185,3,PR,1,100,153553
1574949928.120862,175079.333,30185,3,PR,1,100,153537
1574949928.163106,175115.000,30185,3,PR,1,100,153581
1574949928.203771,175149.333,30203,3,PR,1,100,153534
1574949928.244435,175183.667,30203,3,PR,1,100,153593
1574949928.285100,175218.000,30203,3,PR,1,100,153687
1574949928.324580,175251.333,30221,3,PR,1,100,153763
1574949928.364061,175284.667,30221,3,PR,1,100,153635
1574949928.403541,175318.000,30221,3,PR,1,100,153568
1574949928.448154,175355.667,30239,3,PR,1,100,153534
1574949928.492766,175393.333,30239,3,PR,1,100,153556
1574949928.537379,175431.000,30239,3,PR,1,100,153559
1574949928.575675,175463.333,30257,3,PR,1,100,153622
1574949928.613971,175495.667,30257,3,PR,1,100,153632
1574949928.652267,175528.000,30257,3,PR,1,100,153601
1574949928.693129,175562.500,30274,2,PR,1,100,153554
1574949928.733991,175597.000,30274,2,PR,1,100,153543
1574949928.776235,175632.667,30290,3,PR,1,100,153549
1574949928.818479,175668.333,30290,3,PR,1,100,153576
1574949928.860723,175704.000,30290,3,PR,1,100,153557
1574949928.901782,175738.667,30309,3,PR,1,100,153584
1574949928.942842,175773.333,30309,3,PR,1,100,153581
1574949928.983902,175808.000,30309,3,PR,1,100,153594
1574949929.024566,175842.333,30327,3,PR,1,100,153586
1574949929.065231,175876.667,30327,3,PR,1,100,153566
1574949929.105896,175911.000,30327,3,PR,1,100,153552
1574949929.143797,175943.000,30345,3,PR,1,100,153569
1574949929.181698,175975.000,30345,3,PR,1,100,153611
1574949929.219599,176007.000,30345,3,PR,1,100,153793
1574949929.262632,176043.333,30363,3,PR,1,100,153748
1574949929.305666,176079.667,30363,3,PR,1,100,153611
1574949929.348699,176116.000,30363,3,PR,1,100,153533
1574949929.385416,176147.000,30381,3,PR,1,100,153490
1574949929.422133,176178.000,30381,3,PR,1,100,153514
1574949929.458849,176209.000,30381,3,PR,1,100,153527
1574949929.498724,176242.667,30399,3,PR,1,100,153557
1574949929.538600,176276.333,30399,3,PR,1,100,153533
1574949929.578475,176310.000,30399,3,PR,1,100,153516
1574949929.618745,176344.000,30417,3,PR,1,100,153457
1574949929.659014,176378.000,30417,3,PR,1,100,153428
1574949929.699285,176412.000,30417,3,PR,1,100,153402
1574949929.740739,176447.000,30434,3,PR,1,100,153421
1574949929.782193,176482.000,30434,3,PR,1,100,153412
1574949929.823647,176517.000,30434,3,PR,1,100,153453
1574949929.867471,176554.000,30450,3,PR,1,100,153415
1574949929.911294,176591.000,30450,3,PR,1,100,153404
1574949929.955117,176628.000,30450,3,PR,1,100,153391
1574949929.992623,176659.667,30469,3,PR,1,100,153372
1574949930.030129,176691.333,30469,3,PR,1,100,153402
1574949930.067636,176723.000,30469,3,PR,1,100,153379
1574949930.107116,176756.333,30487,3,PR,1,100,153517
1574949930.146596,176789.667,30487,3,PR,1,100,153497
1574949930.186077,176823.000,30487,3,PR,1,100,153362
1574949930.226741,176857.333,30505,3,PR,1,100,153250
1574949930.267406,176891.667,30505,3,PR,1,100,153250
1574949930.308071,176926.000,30505,3,PR,1,100,153216
1574949930.348735,176960.333,30523,3,PR,1,100,153194
1574949930.389400,176994.667,30523,3,PR,1,100,153195
1574949930.430065,177029.000,30523,3,PR,1,100,153153
1574949930.470730,177063.333,30541,3,PR,1,100,153090
1574949930.511394,177097.667,30541,3,PR,1,100,153052
1574949930.552059,177132.000,30541,3,PR,1,100,153018
1574949930.589565,177163.667,30559,3,PR,1,100,152988
1574949930.627072,177195.333,30559,3,PR,1,100,152927
1574949930.664578,177227.000,30559,3,PR,1,100,152937
1574949930.704058,177260.333,30577,3,PR,1,100,152894
1574949930.743538,177293.667,30577,3,PR,1,100,152958
1574949930.783019,177327.000,30577,3,PR,1,100,152915
1574949930.823684,177361.333,30595,3,PR,1,100,152914
1574949930.864348,177395.667,30595,3,PR,1,100,152885
1574949930.905013,177430.000,30595,3,PR,1,100,152837
1574949930.946072,177464.667,30613,3,PR,1,100,152851
