EpochTimestamp,EmotiBitTimestamp,PacketNumber,DataLength,TypeTag,ProtocolVersion,DataReliability,TH
1574949840.722922,101289.000,17242,2,TH,1,100,16010
1574949840.722922,101289.000,17242,2,TH,1,100,16002
1574949840.856761,101402.000,17277,1,TH,1,100,16030
1574949840.995337,101519.000,17296,1,TH,1,100,15996
1574949841.120884,101625.000,17313,1,TH,1,100,15996
1574949841.248800,101733.000,17330,1,TH,1,100,15990
1574949841.385007,101848.000,17348,1,TH,1,100,15956
1574949841.522398,101964.000,17366,1,TH,1,100,15982
1574949841.651499,102073.000,17384,1,TH,1,100,15974
1574949841.778231,102180.000,17402,1,TH,1,100,15976
1574949841.909700,102291.000,17420,1,TH,1,100,15976
1574949842.047092,102407.000,17439,1,TH,1,100,15976
1574949842.183299,102522.000,17474,1,TH,1,100,15964
1574949842.312399,102631.000,17491,1,TH,1,100,15982
1574949842.441500,102740.000,17508,1,TH,1,100,15978
1574949842.576523,102854.000,17526,1,TH,1,100,15968
1574949842.710361,102967.000,17544,1,TH,1,100,15942
1574949842.844199,103080.000,17562,1,TH,1,100,15970
1574949842.969746,103186.000,17580,1,TH,1,100,15930
1574949843.098847,103295.000,17599,1,TH,1,100,15922
1574949843.235054,103410.000,17617,1,TH,1,100,15908
1574949843.373630,103527.000,17652,1,TH,1,100,15890
1574949843.506284,103639.000,17670,1,TH,1,100,15918
1574949843.629462,103743.000,17687,1,TH,1,100,15914
1574949843.765669,103858.000,17704,1,TH,1,100,15894
1574949843.904245,103975.000,17722,1,TH,1,100,15856
1574949844.036899,104087.000,17741,1,TH,1,100,15890
1574949844.167184,104197.000,17759,1,TH,1,100,15894
1574949844.295100,104305.000,17777,1,TH,1,100,15886
1574949844.425385,104415.000,17795,1,TH,1,100,15896
1574949844.563961,104532.000,17830,1,TH,1,100,15918
1574949844.706090,104652.000,17847,1,TH,1,100,15924
1574949844.830453,104757.000,17864,1,TH,1,100,15922
1574949844.959554,104866.000,17883,1,TH,1,100,15938
1574949845.096945,104982.000,17901,1,TH,1,100,15900
1574949845.233152,105097.000,17919,1,TH,1,100,15950
1574949845.366990,105210.000,17937,1,TH,1,100,15966
1574949845.491353,105315.000,17955,1,TH,1,100,15978
1574949845.620454,105424.000,17973,1,TH,1,100,16072
1574949845.757845,105540.000,18008,1,TH,1,100,16120
1574949845.897606,105658.000,18026,1,TH,1,100,15230
1574949846.023153,105764.000,18044,1,TH,1,100,15310
1574949846.152254,105873.000,18061,1,TH,1,100,15602
1574949846.288460,105988.000,18079,1,TH,1,100,15562
1574949846.421114,106100.000,18097,1,TH,1,100,15102
1574949846.559690,106217.000,18115,1,TH,1,100,15178
1574949846.682869,106321.000,18136,1,TH,1,100,15440
1574949846.810785,106429.000,18155,1,TH,1,100,15682
1574949846.946992,106544.000,18173,1,TH,1,100,15844
1574949847.085568,106661.000,18191,1,TH,1,100,15952
1574949847.218222,106773.000,18209,1,TH,1,100,16042
1574949847.342585,106878.000,18227,1,TH,1,100,16108
1574949847.471685,106987.000,18245,1,TH,1,100,16184
1574949847.598417,107094.000,18263,1,TH,1,100,16280
1574949847.731071,107206.000,18281,1,TH,1,100,16344
1574949847.869647,107323.000,18317,1,TH,1,100,16290
1574949848.010591,107442.000,18334,1,TH,1,100,16264
1574949848.146798,107557.000,18351,1,TH,1,100,16296
1574949848.280637,107670.000,18369,1,TH,1,100,16380
1574949848.406184,107776.000,18387,1,TH,1,100,16410
1574949848.538838,107888.000,18405,1,TH,1,100,16410
1574949848.673861,108002.000,18423,1,TH,1,100,16398
1574949848.811252,108118.000,18441,1,TH,1,100,16380
1574949848.939168,108226.000,18477,1,TH,1,100,16340
1574949849.069453,108336.000,18495,1,TH,1,100,16330
1574949849.202107,108448.000,18512,1,TH,1,100,16338
1574949849.340683,108565.000,18529,1,TH,1,100,16328
1574949849.479259,108682.000,18547,1,TH,1,100,16274
1574949849.601253,108785.000,18565,1,TH,1,100,16292
1574949849.731538,108895.000,18583,1,TH,1,100,16288
1574949849.871298,109013.000,18601,1,TH,1,100,16270
1574949850.003952,109125.000,18620,1,TH,1,100,16244
1574949850.137790,109238.000,18655,1,TH,1,100,16206
1574949850.262153,109343.000,18673,1,TH,1,100,16246
1574949850.394807,109455.000,18691,1,TH,1,100,16240
1574949850.522723,109563.000,18708,1,TH,1,100,16234
1574949850.662483,109681.000,18725,1,TH,1,100,16228
1574949850.802243,109799.000,18743,1,TH,1,100,16192
1574949850.936082,109912.000,18761,1,TH,1,100,16172
1574949851.078211,110032.000,18780,1,TH,1,100,16194
1574949851.214418,110147.000,18815,1,TH,1,100,16160
1574949851.350625,110262.000,18832,1,TH,1,100,16150
1574949851.492754,110382.000,18849,1,TH,1,100,16148
1574949851.621855,110491.000,18867,1,TH,1,100,16128
1574949851.747402,110597.000,18885,1,TH,1,100,16100
1574949851.882425,110711.000,18903,1,TH,1,100,16128
1574949852.012710,110821.000,18922,1,TH,1,100,16128
1574949852.146548,110934.000,18940,1,TH,1,100,16102
1574949852.286308,111052.000,18958,1,TH,1,100,16106
1574949852.417778,111163.000,18993,1,TH,1,100,16148
1574949852.544509,111270.000,19011,1,TH,1,100,16176
1574949852.677163,111382.000,19032,2,TH,1,100,16154
1574949852.809817,111494.000,19032,2,TH,1,100,16082
1574949852.948393,111611.000,19052,1,TH,1,100,16016
1574949853.079862,111722.000,19088,1,TH,1,100,15962
1574949853.204225,111827.000,19106,1,TH,1,100,16030
1574949853.339248,111941.000,19123,1,TH,1,100,15956
1574949853.477824,112058.000,19140,1,TH,1,100,15952
1574949853.611662,112171.000,19158,1,TH,1,100,15900
1574949853.737209,112277.000,19176,1,TH,1,100,15904
1574949853.867494,112387.000,19194,1,TH,1,100,15916
1574949854.000148,112499.000,19213,1,TH,1,100,15914
1574949854.137539,112615.000,19231,1,TH,1,100,15912
1574949854.272562,112729.000,19266,1,TH,1,100,15884
1574949854.402847,112839.000,19284,1,TH,1,100,15946
1574949854.529579,112946.000,19301,1,TH,1,100,16002
1574949854.663417,113059.000,19318,1,TH,1,100,16010
1574949854.793702,113169.000,19336,1,TH,1,100,16020
1574949854.921618,113277.000,19355,1,TH,1,100,15996
1574949855.057825,113392.000,19373,1,TH,1,100,16056
1574949855.183373,113498.000,19391,1,TH,1,100,16112
1574949855.312473,113607.000,19409,1,TH,1,100,16126
1574949855.451049,113724.000,19427,1,TH,1,100,16134
1574949855.589625,113841.000,19462,1,TH,1,100,16132
1574949855.724648,113955.000,19479,1,TH,1,100,16178
1574949855.867961,114076.000,19496,1,TH,1,100,16186
1574949855.992324,114181.000,19515,1,TH,1,100,16176
1574949856.122609,114291.000,19533,1,TH,1,100,16140
1574949856.257632,114405.000,19551,1,TH,1,100,16194
1574949856.392654,114519.000,19569,1,TH,1,100,16196
1574949856.527677,114633.000,19587,1,TH,1,100,16166
1574949856.654409,114740.000,19605,1,TH,1,100,16136
1574949856.784694,114850.000,19640,1,TH,1,100,16092
1574949856.922085,114966.000,19658,1,TH,1,100,16114
1574949857.061846,115084.000,19675,1,TH,1,100,16128
1574949857.189762,115192.000,19693,1,TH,1,100,16082
1574949857.316494,115299.000,19711,1,TH,1,100,16044
1574949857.452700,115414.000,19729,1,TH,1,100,16096
1574949857.586539,115527.000,19747,1,TH,1,100,16118
1574949857.726299,115645.000,19765,1,TH,1,100,16110
1574949857.851846,115751.000,19783,1,TH,1,100,16058
1574949857.982131,115861.000,19819,1,TH,1,100,16096
1574949858.115969,115974.000,19836,1,TH,1,100,16126
1574949858.256914,116093.000,19853,1,TH,1,100,16122
1574949858.394306,116209.000,19871,1,TH,1,100,16094
1574949858.530513,116324.000,19889,1,TH,1,100,16104
1574949858.671457,116443.000,19907,1,TH,1,100,16100
1574949858.807664,116558.000,19928,1,TH,1,100,16090
1574949858.942687,116672.000,19949,1,TH,1,100,16082
1574949859.081263,116789.000,19967,1,TH,1,100,16104
1574949859.223392,116909.000,19985,1,TH,1,100,16086
1574949859.359599,117024.000,20003,1,TH,1,100,16082
1574949859.493437,117137.000,20038,1,TH,1,100,16084
1574949859.618985,117243.000,20056,1,TH,1,100,16104
1574949859.750454,117354.000,20073,1,TH,1,100,16084
1574949859.889030,117471.000,20090,1,TH,1,100,16008
1574949860.026421,117587.000,20109,1,TH,1,100,15920
1574949860.154337,117695.000,20127,1,TH,1,100,15894
1574949860.281069,117802.000,20145,1,TH,1,100,15874
1574949860.414907,117915.000,20163,1,TH,1,100,15870
1574949860.553483,118032.000,20181,1,TH,1,100,15870
1574949860.692059,118149.000,20216,1,TH,1,100,15878
1574949860.815238,118253.000,20234,1,TH,1,100,15908
1574949860.944338,118362.000,20252,1,TH,1,100,15912
1574949861.082914,118479.000,20269,1,TH,1,100,15904
1574949861.216753,118592.000,20287,1,TH,1,100,15894
1574949861.350591,118705.000,20305,1,TH,1,100,15946
1574949861.474954,118810.000,20323,1,TH,1,100,15958
1574949861.606423,118921.000,20341,1,TH,1,100,15956
1574949861.743814,119037.000,20359,1,TH,1,100,15952
1574949861.882390,119154.000,20395,1,TH,1,100,15922
1574949862.011491,119263.000,20412,1,TH,1,100,15990
1574949862.145329,119376.000,20429,1,TH,1,100,16030
1574949862.285089,119494.000,20447,1,TH,1,100,16016
1574949862.415375,119604.000,20465,1,TH,1,100,16036
1574949862.550397,119718.000,20483,1,TH,1,100,16058
1574949862.688973,119835.000,20501,1,TH,1,100,16032
1574949862.816889,119943.000,20519,1,TH,1,100,16014
1574949862.943621,120050.000,20537,1,TH,1,100,15986
1574949863.078644,120164.000,20573,1,TH,1,100,15986
1574949863.208929,120274.000,20591,1,TH,1,100,16020
1574949863.342767,120387.000,20608,1,TH,1,100,16022
1574949863.481343,120504.000,20625,1,TH,1,100,16006
1574949863.621103,120622.000,20643,1,TH,1,100,16014
1574949863.758494,120738.000,20661,1,TH,1,100,16018
1574949863.887595,120847.000,20679,1,TH,1,100,15976
1574949864.013142,120953.000,20698,1,TH,1,100,15982
1574949864.149349,121068.000,20733,1,TH,1,100,15980
1574949864.284372,121182.000,20750,1,TH,1,100,16000
1574949864.420579,121297.000,20767,1,TH,1,100,16028
1574949864.547311,121404.000,20785,1,TH,1,100,16004
1574949864.678780,121515.000,20803,1,TH,1,100,16000
1574949864.812618,121628.000,20824,1,TH,1,100,15994
1574949864.950010,121744.000,20845,1,TH,1,100,15986
1574949865.085032,121858.000,20862,1,TH,1,100,15972
1574949865.207026,121961.000,20879,1,TH,1,100,15994
1574949865.339680,122073.000,20897,1,TH,1,100,16000
1574949865.478256,122190.000,20915,1,TH,1,100,15988
1574949865.612094,122303.000,20933,1,TH,1,100,16044
1574949865.740011,122411.000,20951,1,TH,1,100,16016
1574949865.866742,122518.000,20969,1,TH,1,100,16026
1574949866.001765,122632.000,20988,1,TH,1,100,16024
1574949866.133235,122743.000,21023,1,TH,1,100,16002
1574949866.267073,122856.000,21040,1,TH,1,100,16044
1574949866.402095,122970.000,21057,1,TH,1,100,16064
1574949866.533565,123081.000,21075,1,TH,1,100,16040
1574949866.666219,123193.000,21093,1,TH,1,100,16034
1574949866.800057,123306.000,21111,1,TH,1,100,16068
1574949866.935079,123420.000,21129,1,TH,1,100,16094
1574949867.078393,123541.000,21148,1,TH,1,100,16080
1574949867.203940,123647.000,21166,1,TH,1,100,16050
1574949867.331856,123755.000,21201,1,TH,1,100,16084
1574949867.466879,123869.000,21218,1,TH,1,100,16124
1574949867.598348,123980.000,21235,1,TH,1,100,16150
1574949867.735740,124096.000,21253,1,TH,1,100,16112
1574949867.873131,124212.000,21271,1,TH,1,100,16106
1574949868.001048,124320.000,21290,1,TH,1,100,16128
1574949868.127779,124427.000,21308,1,TH,1,100,16114
1574949868.261618,124540.000,21326,1,TH,1,100,16114
1574949868.397825,124655.000,21344,1,TH,1,100,16098
1574949868.535216,124771.000,21379,1,TH,1,100,16088
1574949868.661948,124878.000,21397,1,TH,1,100,16132
1574949868.788680,124985.000,21414,1,TH,1,100,16108
1574949868.924887,125100.000,21432,1,TH,1,100,16090
1574949869.063462,125217.000,21450,1,TH,1,100,16046
1574949869.193748,125327.000,21468,1,TH,1,100,16074
1574949869.320479,125434.000,21486,1,TH,1,100,16060
1574949869.453133,125546.000,21504,1,TH,1,100,16060
1574949869.586971,125659.000,21522,1,TH,1,100,16036
1574949869.724363,125775.000,21557,1,TH,1,100,15974
1574949869.867676,125896.000,21574,1,TH,1,100,16044
1574949870.005068,126012.000,21592,1,TH,1,100,16024
1574949870.142459,126128.000,21610,1,TH,1,100,15984
1574949870.285773,126249.000,21628,1,TH,1,100,16032
1574949870.423164,126365.000,21646,1,TH,1,100,16012
1574949870.561740,126482.000,21681,1,TH,1,100,16002
1574949870.695578,126595.000,21699,1,TH,1,100,16026
1574949870.825863,126705.000,21720,2,TH,1,100,16026
1574949870.956148,126815.000,21720,2,TH,1,100,16022
1574949871.094724,126932.000,21739,1,TH,1,100,16018
1574949871.228562,127045.000,21776,1,TH,1,100,15958
1574949871.362401,127158.000,21793,1,TH,1,100,16010
1574949871.499792,127274.000,21810,1,TH,1,100,16010
1574949871.624155,127379.000,21828,1,TH,1,100,15992
1574949871.753255,127488.000,21846,1,TH,1,100,15984
1574949871.889462,127603.000,21864,1,TH,1,100,15992
1574949872.025670,127718.000,21883,1,TH,1,100,16016
1574949872.158323,127830.000,21901,1,TH,1,100,15998
1574949872.285055,127937.000,21919,1,TH,1,100,15996
1574949872.417709,128049.000,21937,1,TH,1,100,15988
1574949872.556285,128166.000,21972,1,TH,1,100,15982
1574949872.697229,128285.000,21989,1,TH,1,100,16012
1574949872.818039,128387.000,22006,1,TH,1,100,15988
1574949872.945955,128495.000,22025,1,TH,1,100,15978
1574949873.084531,128612.000,22043,1,TH,1,100,15974
1574949873.217185,128724.000,22061,1,TH,1,100,16016
1574949873.354577,128840.000,22079,1,TH,1,100,16004
1574949873.478940,128945.000,22097,1,TH,1,100,15994
1574949873.611593,129057.000,22115,1,TH,1,100,15994
1574949873.738325,129164.000,22150,1,TH,1,100,15998
1574949873.870979,129276.000,22168,1,TH,1,100,16010
1574949874.002448,129387.000,22186,1,TH,1,100,16028
1574949874.129180,129494.000,22203,1,TH,1,100,16016
1574949874.261834,129606.000,22221,1,TH,1,100,16006
1574949874.394488,129718.000,22239,1,TH,1,100,16014
1574949874.528326,129831.000,22257,1,TH,1,100,16046
1574949874.668086,129949.000,22275,1,TH,1,100,16024
1574949874.804293,130064.000,22293,1,TH,1,100,16010
1574949874.941685,130180.000,22329,1,TH,1,100,15982
1574949875.070785,130289.000,22346,1,TH,1,100,16020
1574949875.201070,130399.000,22364,1,TH,1,100,16030
1574949875.326618,130505.000,22381,1,TH,1,100,16006
1574949875.459271,130617.000,22399,1,TH,1,100,16002
1574949875.593110,130730.000,22417,1,TH,1,100,16000
1574949875.731685,130847.000,22435,1,TH,1,100,16036
1574949875.861970,130957.000,22453,1,TH,1,100,16016
1574949875.987518,131063.000,22472,1,TH,1,100,16020
1574949876.121356,131176.000,22490,1,TH,1,100,16020
1574949876.259932,131293.000,22525,1,TH,1,100,16012
1574949876.396139,131408.000,22542,1,TH,1,100,16054
1574949876.521686,131514.000,22559,1,TH,1,100,16064
1574949876.651971,131624.000,22577,1,TH,1,100,16024
1574949876.784625,131736.000,22595,1,TH,1,100,16006
1574949876.920832,131851.000,22617,1,TH,1,100,16034
1574949877.055855,131965.000,22635,1,TH,1,100,16006
1574949877.179033,132069.000,22653,1,TH,1,100,16032
1574949877.308134,132178.000,22670,1,TH,1,100,16036
1574949877.447894,132296.000,22687,1,TH,1,100,16016
1574949877.584101,132411.000,22705,1,TH,1,100,16040
1574949877.721493,132527.000,22723,1,TH,1,100,16048
1574949877.864806,132648.000,22741,1,TH,1,100,16026
1574949878.001013,132763.000,22777,1,TH,1,100,15982
1574949878.138405,132879.000,22794,1,TH,1,100,16088
1574949878.281718,133000.000,22811,1,TH,1,100,16042
1574949878.417925,133115.000,22829,1,TH,1,100,16040
1574949878.551764,133228.000,22847,1,TH,1,100,16092
1574949878.678495,133335.000,22865,1,TH,1,100,16038
1574949878.814702,133450.000,22883,1,TH,1,100,16050
1574949878.942618,133558.000,22901,1,TH,1,100,16032
1574949879.078825,133673.000,22937,1,TH,1,100,16028
1574949879.215033,133788.000,22954,1,TH,1,100,16080
1574949879.351240,133903.000,22971,1,TH,1,100,16036
1574949879.475603,134008.000,22989,1,TH,1,100,16036
1574949879.604703,134117.000,23007,1,TH,1,100,16006
1574949879.739726,134231.000,23025,1,TH,1,100,16034
1574949879.879486,134349.000,23043,1,TH,1,100,16038
1574949880.008587,134458.000,23062,1,TH,1,100,16018
1574949880.135319,134565.000,23080,1,TH,1,100,16032
1574949880.269157,134678.000,23115,1,TH,1,100,15996
1574949880.404179,134792.000,23132,1,TH,1,100,16002
1574949880.542755,134909.000,23149,1,TH,1,100,16058
1574949880.669487,135016.000,23167,1,TH,1,100,16030
1574949880.795034,135122.000,23185,1,TH,1,100,15986
1574949880.930057,135236.000,23204,1,TH,1,100,16018
1574949881.068633,135353.000,23222,1,TH,1,100,16038
1574949881.206024,135469.000,23240,1,TH,1,100,16004
1574949881.329203,135573.000,23258,1,TH,1,100,15994
1574949881.460672,135684.000,23293,1,TH,1,100,15990
1574949881.589773,135793.000,23311,1,TH,1,100,16010
1574949881.715320,135899.000,23329,1,TH,1,100,16042
1574949881.846790,136010.000,23346,1,TH,1,100,16026
1574949881.977074,136120.000,23364,1,TH,1,100,16020
1574949882.101438,136225.000,23382,1,TH,1,100,16014
1574949882.234091,136337.000,23400,1,TH,1,100,15966
1574949882.371483,136453.000,23418,1,TH,1,100,16014
1574949882.501768,136563.000,23436,1,TH,1,100,16030
1574949882.640344,136680.000,23454,1,TH,1,100,16024
1574949882.776551,136795.000,23472,1,TH,1,100,16012
1574949882.910389,136908.000,23509,2,TH,1,100,16018
1574949883.044227,137021.000,23509,2,TH,1,100,16028
1574949883.169775,137127.000,23531,1,TH,1,100,16028
1574949883.300059,137237.000,23549,1,TH,1,100,16030
1574949883.435082,137351.000,23567,1,TH,1,100,16020
1574949883.571289,137466.000,23602,1,TH,1,100,15990
1574949883.703943,137578.000,23620,1,TH,1,100,16066
1574949883.830675,137685.000,23637,1,TH,1,100,16056
1574949883.962144,137796.000,23655,1,TH,1,100,16042
1574949884.100720,137913.000,23673,1,TH,1,100,16022
1574949884.241665,138032.000,23691,1,TH,1,100,16072
1574949884.364843,138136.000,23709,1,TH,1,100,16078
1574949884.491575,138243.000,23727,1,TH,1,100,16086
1574949884.628966,138359.000,23745,1,TH,1,100,16088
1574949884.761620,138471.000,23780,1,TH,1,100,16064
1574949884.899012,138587.000,23799,1,TH,1,100,16134
1574949885.023375,138692.000,23816,1,TH,1,100,16128
1574949885.154844,138803.000,23833,1,TH,1,100,16124
1574949885.281576,138910.000,23851,1,TH,1,100,16110
1574949885.414230,139022.000,23869,1,TH,1,100,16108
1574949885.546883,139134.000,23887,1,TH,1,100,16136
1574949885.680722,139247.000,23905,1,TH,1,100,16168
1574949885.822851,139367.000,23923,1,TH,1,100,16146
1574949885.960242,139483.000,23959,1,TH,1,100,16114
1574949886.095265,139597.000,23976,1,TH,1,100,16200
1574949886.235025,139715.000,23993,1,TH,1,100,16192
1574949886.374785,139833.000,24011,1,TH,1,100,16182
1574949886.510992,139948.000,24029,1,TH,1,100,16224
1574949886.641277,140058.000,24047,1,TH,1,100,16202
1574949886.768009,140165.000,24065,1,TH,1,100,16188
1574949886.903032,140279.000,24083,1,TH,1,100,16170
1574949887.038054,140393.000,24119,1,TH,1,100,16132
1574949887.173077,140507.000,24136,1,TH,1,100,16178
1574949887.311653,140624.000,24153,1,TH,1,100,16184
1574949887.443122,140735.000,24171,1,TH,1,100,16142
1574949887.567485,140840.000,24189,1,TH,1,100,16160
1574949887.702508,140954.000,24207,1,TH,1,100,16194
1574949887.841084,141071.000,24225,1,TH,1,100,16200
1574949887.977291,141186.000,24244,1,TH,1,100,16174
1574949888.104023,141293.000,24262,1,TH,1,100,16144
1574949888.234308,141403.000,24297,1,TH,1,100,16162
1574949888.366961,141515.000,24314,1,TH,1,100,16192
1574949888.504353,141631.000,24331,1,TH,1,100,16196
1574949888.640560,141746.000,24349,1,TH,1,100,16178
1574949888.763738,141850.000,24367,1,TH,1,100,16166
1574949888.892839,141959.000,24386,1,TH,1,100,16172
1574949889.031415,142076.000,24405,1,TH,1,100,16202
1574949889.167622,142191.000,24426,1,TH,1,100,16176
1574949889.305013,142307.000,24443,1,TH,1,100,16204
1574949889.448327,142428.000,24461,1,TH,1,100,16200
1574949889.584534,142543.000,24479,1,TH,1,100,16190
1574949889.721925,142659.000,24497,1,TH,1,100,16178
1574949889.865239,142780.000,24532,1,TH,1,100,16150
1574949890.001446,142895.000,24550,1,TH,1,100,16202
1574949890.135284,143008.000,24567,1,TH,1,100,16188
1574949890.262016,143115.000,24585,1,TH,1,100,16156
1574949890.394670,143227.000,24603,1,TH,1,100,16182
1574949890.528508,143340.000,24621,1,TH,1,100,16212
1574949890.669453,143459.000,24639,1,TH,1,100,16186
1574949890.805660,143574.000,24657,1,TH,1,100,16180
1574949890.944236,143691.000,24693,1,TH,1,100,16182
1574949891.068599,143796.000,24710,1,TH,1,100,16206
1574949891.197699,143905.000,24727,1,TH,1,100,16220
1574949891.331537,144018.000,24745,1,TH,1,100,16192
1574949891.466560,144132.000,24763,1,TH,1,100,16164
1574949891.600398,144245.000,24781,1,TH,1,100,16216
1574949891.725945,144351.000,24799,1,TH,1,100,16208
1574949891.859784,144464.000,24817,1,TH,1,100,16192
1574949891.994806,144578.000,24836,1,TH,1,100,16176
1574949892.133382,144695.000,24871,1,TH,1,100,16130
1574949892.261298,144803.000,24889,1,TH,1,100,16190
1574949892.386846,144909.000,24906,1,TH,1,100,16184
1574949892.520684,145022.000,24923,1,TH,1,100,16158
1574949892.659260,145139.000,24941,1,TH,1,100,16144
1574949892.793098,145252.000,24959,1,TH,1,100,16156
1574949892.918645,145358.000,24977,1,TH,1,100,16160
1574949893.050115,145469.000,24996,1,TH,1,100,16148
1574949893.180400,145579.000,25014,1,TH,1,100,16144
1574949893.305947,145685.000,25032,1,TH,1,100,16132
1574949893.437417,145796.000,25050,1,TH,1,100,16112
1574949893.567702,145906.000,25085,1,TH,1,100,16118
1574949893.693249,146012.000,25103,1,TH,1,100,16152
1574949893.825903,146124.000,25120,1,TH,1,100,16148
1574949893.951450,146230.000,25138,1,TH,1,100,16146
1574949894.080551,146339.000,25156,1,TH,1,100,16136
1574949894.219126,146456.000,25174,1,TH,1,100,16114
1574949894.356518,146572.000,25192,1,TH,1,100,16158
1574949894.483250,146679.000,25210,1,TH,1,100,16138
1574949894.621826,146796.000,25228,1,TH,1,100,16124
1574949894.747373,146902.000,25246,1,TH,1,100,16106
1574949894.877658,147012.000,25282,1,TH,1,100,16100
1574949895.012681,147126.000,25303,2,TH,1,100,16124
1574949895.147703,147240.000,25303,2,TH,1,100,16152
1574949895.281542,147353.000,25323,1,TH,1,100,16150
1574949895.408273,147460.000,25341,1,TH,1,100,16120
1574949895.539743,147571.000,25359,1,TH,1,100,16114
1574949895.678319,147688.000,25394,1,TH,1,100,16114
1574949895.818079,147806.000,25411,1,TH,1,100,16150
1574949895.942442,147911.000,25429,1,TH,1,100,16134
1574949896.069174,148018.000,25447,1,TH,1,100,16114
1574949896.206565,148134.000,25465,1,TH,1,100,16106
1574949896.339219,148246.000,25483,1,TH,1,100,16138
1574949896.477795,148363.000,25501,1,TH,1,100,16114
1574949896.602158,148468.000,25519,1,TH,1,100,16102
1574949896.733627,148579.000,25537,1,TH,1,100,16106
1574949896.860359,148686.000,25573,1,TH,1,100,16108
1574949896.991828,148797.000,25591,1,TH,1,100,16136
1574949897.122113,148907.000,25609,1,TH,1,100,16146
1574949897.248845,149014.000,25626,1,TH,1,100,16122
1574949897.385052,149129.000,25643,1,TH,1,100,16112
1574949897.523628,149246.000,25661,1,TH,1,100,16116
1574949897.657466,149359.000,25679,1,TH,1,100,16136
1574949897.797226,149477.000,25697,1,TH,1,100,16114
1574949897.933433,149592.000,25716,1,TH,1,100,16110
1574949898.069640,149707.000,25751,1,TH,1,100,16112
1574949898.201110,149818.000,25768,1,TH,1,100,16124
1574949898.331395,149928.000,25785,1,TH,1,100,16114
1574949898.456942,150034.000,25803,1,TH,1,100,16102
1574949898.587227,150144.000,25821,1,TH,1,100,16098
1574949898.721066,150257.000,25839,1,TH,1,100,16112
1574949898.858457,150373.000,25857,1,TH,1,100,16140
1574949898.991111,150485.000,25876,1,TH,1,100,16116
1574949899.116658,150591.000,25894,1,TH,1,100,16112
1574949899.249312,150703.000,25912,1,TH,1,100,16112
1574949899.387888,150820.000,25947,1,TH,1,100,16116
1574949899.522910,150934.000,25964,1,TH,1,100,16146
1574949899.650826,151042.000,25981,1,TH,1,100,16118
1574949899.779927,151151.000,25999,1,TH,1,100,16106
1574949899.911397,151262.000,26018,1,TH,1,100,16088
1574949900.049972,151379.000,26036,1,TH,1,100,16138
1574949900.187364,151495.000,26054,1,TH,1,100,16116
1574949900.310542,151599.000,26072,1,TH,1,100,16108
1574949900.438459,151707.000,26090,1,TH,1,100,16102
1574949900.578219,151825.000,26125,1,TH,1,100,16088
1574949900.714426,151940.000,26142,1,TH,1,100,16136
1574949900.851817,152056.000,26160,1,TH,1,100,16128
1574949900.993946,152176.000,26178,1,TH,1,100,16108
1574949901.130153,152291.000,26199,1,TH,1,100,16136
1574949901.266361,152406.000,26218,1,TH,1,100,16110
1574949901.409674,152527.000,26235,1,TH,1,100,16082
1574949901.545881,152642.000,26253,1,TH,1,100,16122
1574949901.677351,152753.000,26271,1,TH,1,100,16132
1574949901.818295,152872.000,26289,1,TH,1,100,16112
1574949901.946211,152980.000,26308,1,TH,1,100,16086
1574949902.072943,153087.000,26343,1,TH,1,100,16084
1574949902.209150,153202.000,26360,1,TH,1,100,16118
1574949902.346542,153318.000,26377,1,TH,1,100,16124
1574949902.481564,153432.000,26395,1,TH,1,100,16102
1574949902.622509,153551.000,26413,1,TH,1,100,16132
1574949902.752794,153661.000,26431,1,TH,1,100,16126
1574949902.879526,153768.000,26449,1,TH,1,100,16114
1574949903.010995,153879.000,26468,1,TH,1,100,16104
1574949903.147202,153994.000,26486,1,TH,1,100,16096
1574949903.285778,154111.000,26521,1,TH,1,100,16110
1574949903.414879,154220.000,26538,1,TH,1,100,16130
1574949903.540426,154326.000,26555,1,TH,1,100,16108
1574949903.676633,154441.000,26573,1,TH,1,100,16100
1574949903.815209,154558.000,26591,1,TH,1,100,16106
1574949903.949047,154671.000,26610,1,TH,1,100,16124
1574949904.074594,154777.000,26628,1,TH,1,100,16108
1574949904.203695,154886.000,26646,1,TH,1,100,16098
1574949904.336349,154998.000,26664,1,TH,1,100,16100
1574949904.473740,155114.000,26699,1,TH,1,100,16080
1574949904.617054,155235.000,26716,1,TH,1,100,16120
1574949904.755630,155352.000,26733,1,TH,1,100,16098
1574949904.891837,155467.000,26752,1,TH,1,100,16098
1574949905.035150,155588.000,26770,1,TH,1,100,16108
1574949905.172542,155704.000,26788,1,TH,1,100,16088
1574949905.308749,155819.000,26823,1,TH,1,100,16068
1574949905.444956,155934.000,26840,1,TH,1,100,16110
1574949905.576425,156045.000,26857,1,TH,1,100,16088
1574949905.705526,156154.000,26875,1,TH,1,100,16088
1574949905.834626,156263.000,26893,1,TH,1,100,16050
1574949905.968464,156376.000,26912,1,TH,1,100,16102
1574949906.103487,156490.000,26930,1,TH,1,100,16108
1574949906.246801,156611.000,26948,1,TH,1,100,16082
1574949906.383008,156726.000,26983,1,TH,1,100,16038
1574949906.516846,156839.000,27001,1,TH,1,100,16112
1574949906.642393,156945.000,27018,1,TH,1,100,16106
1574949906.776232,157058.000,27035,1,TH,1,100,16100
1574949906.912438,157173.000,27054,1,TH,1,100,16058
1574949907.051014,157290.000,27072,1,TH,1,100,16100
1574949907.177746,157397.000,27093,1,TH,1,100,16100
1574949907.304478,157504.000,27112,1,TH,1,100,16072
1574949907.441869,157620.000,27129,1,TH,1,100,16068
1574949907.575708,157733.000,27147,1,TH,1,100,16058
1574949907.713099,157849.000,27165,1,TH,1,100,16076
1574949907.837462,157954.000,27183,1,TH,1,100,16104
1574949907.966563,158063.000,27202,1,TH,1,100,16106
1574949908.101585,158177.000,27220,1,TH,1,100,16094
1574949908.240161,158294.000,27255,1,TH,1,100,16086
1574949908.376368,158409.000,27272,1,TH,1,100,16094
1574949908.516128,158527.000,27289,1,TH,1,100,16126
1574949908.655889,158645.000,27307,1,TH,1,100,16102
1574949908.789727,158758.000,27325,1,TH,1,100,16144
1574949908.915274,158864.000,27344,1,TH,1,100,16152
1574949909.046744,158975.000,27362,1,TH,1,100,16136
1574949909.178213,159086.000,27380,1,TH,1,100,16134
1574949909.302576,159191.000,27398,1,TH,1,100,16132
1574949909.431677,159300.000,27416,1,TH,1,100,16122
1574949909.559593,159408.000,27451,1,TH,1,100,16118
1574949909.692247,159520.000,27468,1,TH,1,100,16162
1574949909.830822,159637.000,27485,1,TH,1,100,16178
1574949909.965845,159751.000,27504,1,TH,1,100,16156
1574949910.102052,159866.000,27522,1,TH,1,100,16162
1574949910.235890,159979.000,27540,1,TH,1,100,16188
1574949910.366175,160089.000,27558,1,TH,1,100,16172
1574949910.492907,160196.000,27576,1,TH,1,100,16164
1574949910.620823,160304.000,27594,1,TH,1,100,16158
1574949910.753477,160416.000,27629,1,TH,1,100,16128
1574949910.890869,160532.000,27647,1,TH,1,100,16166
1574949911.024707,160645.000,27664,1,TH,1,100,16190
1574949911.150254,160751.000,27682,1,TH,1,100,16172
1574949911.282908,160863.000,27700,1,TH,1,100,16148
1574949911.422668,160981.000,27718,1,TH,1,100,16184
1574949911.557691,161095.000,27736,1,TH,1,100,16204
1574949911.687976,161205.000,27754,1,TH,1,100,16176
1574949911.813523,161311.000,27772,1,TH,1,100,16166
1574949911.944993,161422.000,27791,1,TH,1,100,16168
1574949912.082384,161538.000,27826,1,TH,1,100,16162
1574949912.222144,161656.000,27843,1,TH,1,100,16204
1574949912.347692,161762.000,27860,1,TH,1,100,16182
1574949912.475608,161870.000,27878,1,TH,1,100,16178
1574949912.608262,161982.000,27896,1,TH,1,100,16170
1574949912.742100,162095.000,27914,1,TH,1,100,16190
1574949912.871201,162204.000,27932,1,TH,1,100,16190
1574949913.003854,162316.000,27951,1,TH,1,100,16172
1574949913.136508,162428.000,27969,1,TH,1,100,16170
1574949913.263240,162535.000,27990,1,TH,1,100,16148
1574949913.400631,162651.000,28010,1,TH,1,100,16170
1574949913.538023,162767.000,28028,1,TH,1,100,16196
1574949913.673045,162881.000,28046,1,TH,1,100,16176
1574949913.813990,163000.000,28082,1,TH,1,100,16160
1574949913.944275,163110.000,28100,1,TH,1,100,16164
1574949914.071007,163217.000,28117,1,TH,1,100,16192
1574949914.202476,163328.000,28134,1,TH,1,100,16182
1574949914.331577,163437.000,28152,1,TH,1,100,16176
1574949914.467784,163552.000,28170,1,TH,1,100,16124
1574949914.602807,163666.000,28188,1,TH,1,100,16180
1574949914.736645,163779.000,28206,1,TH,1,100,16180
1574949914.862192,163885.000,28224,1,TH,1,100,16164
1574949914.994846,163997.000,28243,1,TH,1,100,16154
1574949915.129869,164111.000,28278,1,TH,1,100,16122
1574949915.268445,164228.000,28296,1,TH,1,100,16166
1574949915.399914,164339.000,28313,1,TH,1,100,16182
1574949915.523093,164443.000,28330,1,TH,1,100,16156
1574949915.656931,164556.000,28348,1,TH,1,100,16140
1574949915.795506,164673.000,28366,1,TH,1,100,16160
1574949915.929345,164786.000,28385,1,TH,1,100,16178
1574949916.054892,164892.000,28403,1,TH,1,100,16148
1574949916.185177,165002.000,28421,1,TH,1,100,16144
1574949916.320200,165116.000,28439,1,TH,1,100,16138
1574949916.455222,165230.000,28474,1,TH,1,100,16130
1574949916.592614,165346.000,28491,1,TH,1,100,16156
1574949916.727636,165460.000,28508,1,TH,1,100,16152
1574949916.860290,165572.000,28527,1,TH,1,100,16092
1574949916.995313,165686.000,28545,1,TH,1,100,16158
1574949917.130336,165800.000,28563,1,TH,1,100,16150
1574949917.260621,165910.000,28581,1,TH,1,100,16138
1574949917.400381,166028.000,28616,1,TH,1,100,16124
1574949917.536588,166143.000,28634,1,TH,1,100,16130
1574949917.665688,166252.000,28651,1,TH,1,100,16156
1574949917.805449,166370.000,28668,1,TH,1,100,16126
1574949917.930996,166476.000,28687,1,TH,1,100,16102
1574949918.062465,166587.000,28705,1,TH,1,100,16110
1574949918.197488,166701.000,28723,1,TH,1,100,16142
1574949918.333695,166816.000,28741,1,TH,1,100,16148
1574949918.468718,166930.000,28759,1,TH,1,100,16128
1574949918.593081,167035.000,28777,1,TH,1,100,16082
1574949918.725734,167147.000,28812,1,TH,1,100,16120
1574949918.864310,167264.000,28830,1,TH,1,100,16144
1574949919.004071,167382.000,28847,1,TH,1,100,16132
1574949919.129618,167488.000,28865,1,TH,1,100,16106
1574949919.256350,167595.000,28886,1,TH,1,100,16122
1574949919.392557,167710.000,28906,1,TH,1,100,16128
1574949919.526395,167823.000,28923,1,TH,1,100,16106
1574949919.666155,167941.000,28940,1,TH,1,100,16148
1574949919.790518,168046.000,28958,1,TH,1,100,16138
1574949919.918434,168154.000,28977,1,TH,1,100,16126
1574949920.053457,168268.000,28995,1,TH,1,100,16152
1574949920.193217,168386.000,29013,1,TH,1,100,16164
1574949920.330609,168502.000,29031,1,TH,1,100,16156
1574949920.465631,168616.000,29066,1,TH,1,100,16146
1574949920.605392,168734.000,29083,1,TH,1,100,16182
1574949920.742783,168850.000,29100,1,TH,1,100,16182
1574949920.878990,168965.000,29119,1,TH,1,100,16132
1574949921.019935,169084.000,29137,1,TH,1,100,16188
1574949921.156142,169199.000,29155,1,TH,1,100,16200
1574949921.292349,169314.000,29173,1,TH,1,100,16176
1574949921.435663,169435.000,29207,1,TH,1,100,16174
1574949921.571869,169550.000,29224,1,TH,1,100,16200
1574949921.697417,169656.000,29242,1,TH,1,100,16190
1574949921.827702,169766.000,29260,1,TH,1,100,16190
1574949921.962724,169880.000,29279,1,TH,1,100,16192
1574949922.095378,169992.000,29297,1,TH,1,100,16224
1574949922.233954,170109.000,29315,1,TH,1,100,16202
1574949922.370161,170224.000,29333,1,TH,1,100,16196
1574949922.498077,170332.000,29368,1,TH,1,100,16192
1574949922.624809,170439.000,29386,1,TH,1,100,16212
1574949922.758647,170552.000,29403,1,TH,1,100,16238
1574949922.896039,170668.000,29421,1,TH,1,100,16228
1574949923.034615,170785.000,29439,1,TH,1,100,16178
1574949923.157793,170889.000,29457,1,TH,1,100,16222
1574949923.289263,171000.000,29475,1,TH,1,100,16228
1574949923.429023,171118.000,29493,1,TH,1,100,16212
1574949923.562861,171231.000,29511,1,TH,1,100,16208
1574949923.695515,171343.000,29546,1,TH,1,100,16192
1574949923.819878,171448.000,29565,1,TH,1,100,16224
1574949923.951347,171559.000,29582,1,TH,1,100,16228
1574949924.088739,171675.000,29599,1,TH,1,100,16218
1574949924.232052,171796.000,29617,1,TH,1,100,16184
1574949924.368259,171911.000,29635,1,TH,1,100,16234
1574949924.505651,172027.000,29653,1,TH,1,100,16218
1574949924.647780,172147.000,29688,1,TH,1,100,16198
1574949924.783987,172262.000,29705,1,TH,1,100,16210
1574949924.921378,172378.000,29723,1,TH,1,100,16246
1574949925.062323,172497.000,29741,1,TH,1,100,16184
1574949925.196161,172610.000,29759,1,TH,1,100,16236
1574949925.332368,172725.000,29780,1,TH,1,100,16234
1574949925.459100,172832.000,29799,1,TH,1,100,16206
1574949925.589385,172942.000,29816,1,TH,1,100,16224
1574949925.722039,173054.000,29834,1,TH,1,100,16218
1574949925.861799,173172.000,29852,1,TH,1,100,16236
1574949925.998006,173287.000,29871,1,TH,1,100,16242
1574949926.136582,173404.000,29889,1,TH,1,100,16212
1574949926.262129,173510.000,29907,1,TH,1,100,16186
1574949926.388861,173617.000,29925,1,TH,1,100,16164
1574949926.522699,173730.000,29960,1,TH,1,100,16198
1574949926.661275,173847.000,29977,1,TH,1,100,16240
1574949926.795114,173960.000,29994,1,TH,1,100,16214
1574949926.920661,174066.000,30013,1,TH,1,100,16158
1574949927.052130,174177.000,30031,1,TH,1,100,16182
1574949927.185968,174290.000,30049,1,TH,1,100,16228
1574949927.323360,174406.000,30067,1,TH,1,100,16214
1574949927.454829,174517.000,30085,1,TH,1,100,16198
1574949927.578008,174621.000,30103,1,TH,1,100,16198
1574949927.711846,174734.000,30138,1,TH,1,100,16188
1574949927.850422,174851.000,30155,1,TH,1,100,16210
1574949927.987813,174967.000,30173,1,TH,1,100,16232
1574949928.124020,175082.000,30191,1,TH,1,100,16172
1574949928.267334,175203.000,30209,1,TH,1,100,16234
1574949928.403541,175318.000,30227,1,TH,1,100,16224
1574949928.539748,175433.000,30245,1,TH,1,100,16212
1574949928.683062,175554.000,30279,1,TH,1,100,16202
1574949928.819268,175669.000,30296,1,TH,1,100,16242
1574949928.956660,175785.000,30315,1,TH,1,100,16212
1574949929.096420,175903.000,30333,1,TH,1,100,16252
1574949929.221968,176009.000,30351,1,TH,1,100,16242
1574949929.352253,176119.000,30369,1,TH,1,100,16240
1574949929.487275,176233.000,30387,1,TH,1,100,16216
1574949929.619929,176345.000,30405,1,TH,1,100,16218
1574949929.754952,176459.000,30439,1,TH,1,100,16220
1574949929.898265,176580.000,30456,1,TH,1,100,16246
1574949930.022628,176685.000,30475,1,TH,1,100,16230
1574949930.150544,176793.000,30493,1,TH,1,100,16228
1574949930.286751,176908.000,30511,1,TH,1,100,16220
1574949930.421774,177022.000,30529,1,TH,1,100,16262
1574949930.557981,177137.000,30547,1,TH,1,100,16234
1574949930.684713,177244.000,30565,1,TH,1,100,16224
1574949930.814998,177354.000,30583,1,TH,1,100,16218
1574949930.952389,177470.000,30619,1,TH,1,100,16226
1574949931.092149,177588.000,30636,1,TH,1,100,16270
1574949931.218881,177695.000,30653,1,TH,1,100,16238
1574949931.349166,177805.000,30674,2,TH,1,100,16228
1574949931.479451,177915.000,30674,2,TH,1,100,16290
1574949931.613290,178028.000,30694,1,TH,1,100,16270
1574949931.750681,178144.000,30729,1,TH,1,100,16190
1574949931.891626,178263.000,30746,1,TH,1,100,16256
1574949932.026648,178377.000,30764,1,TH,1,100,16258
1574949932.164040,178493.000,30782,1,TH,1,100,16208
1574949932.306169,178613.000,30800,1,TH,1,100,16248
1574949932.443560,178729.000,30818,1,TH,1,100,16236
1574949932.580952,178845.000,30836,1,TH,1,100,16230
1574949932.724265,178966.000,30870,1,TH,1,100,16240
1574949932.858104,179079.000,30887,1,TH,1,100,16258
1574949932.983651,179185.000,30906,1,TH,1,100,16230
1574949933.116305,179297.000,30924,1,TH,1,100,16188
1574949933.241852,179403.000,30942,1,TH,1,100,16230
1574949933.374506,179515.000,30960,1,TH,1,100,16252
1574949933.513082,179632.000,30978,1,TH,1,100,16254
1574949933.654026,179751.000,30996,1,TH,1,100,16234
1574949933.789049,179865.000,31031,1,TH,1,100,16210
1574949933.925256,179980.000,31048,1,TH,1,100,16250
1574949934.050803,180086.000,31067,1,TH,1,100,16238
1574949934.183457,180198.000,31084,1,TH,1,100,16234
1574949934.318480,180312.000,31102,1,TH,1,100,16190
1574949934.455871,180428.000,31120,1,TH,1,100,16262
1574949934.584972,180537.000,31138,1,TH,1,100,16250
1574949934.712888,180645.000,31156,1,TH,1,100,16230
1574949934.845542,180757.000,31174,1,TH,1,100,16232
1574949934.984118,180874.000,31210,1,TH,1,100,16198
1574949935.123878,180992.000,31227,1,TH,1,100,16256
1574949935.244688,181094.000,31244,1,TH,1,100,16264
1574949935.372604,181202.000,31262,1,TH,1,100,16236
1574949935.512364,181320.000,31280,1,TH,1,100,16228
1574949935.645018,181432.000,31298,1,TH,1,100,16240
1574949935.780041,181546.000,31316,1,TH,1,100,16258
1574949935.919801,181664.000,31334,1,TH,1,100,16228
1574949936.050086,181774.000,31353,1,TH,1,100,16218
1574949936.185108,181888.000,31388,1,TH,1,100,16246
1574949936.323684,182005.000,31405,1,TH,1,100,16244
1574949936.455154,182116.000,31422,1,TH,1,100,16246
1574949936.588992,182229.000,31440,1,TH,1,100,16190
1574949936.727568,182346.000,31458,1,TH,1,100,16256
1574949936.854300,182453.000,31476,1,TH,1,100,16254
1574949936.981031,182560.000,31494,1,TH,1,100,16256
1574949937.118423,182676.000,31513,1,TH,1,100,16244
1574949937.255814,182792.000,31548,1,TH,1,100,16198
1574949937.391429,182906.500,31569,2,TH,1,100,16258
1574949937.527044,183021.000,31569,2,TH,1,100,16252
1574949937.660882,183134.000,31589,1,TH,1,100,16276
1574949937.786430,183240.000,31607,1,TH,1,100,16226
1574949937.916715,183350.000,31643,1,TH,1,100,16208
1574949938.052922,183465.000,31661,1,TH,1,100,16256
1574949938.190313,183581.000,31678,1,TH,1,100,16264
1574949938.320598,183691.000,31695,1,TH,1,100,16222
1574949938.444961,183796.000,31713,1,TH,1,100,16226
1574949938.579984,183910.000,31731,1,TH,1,100,16244
1574949938.718560,184027.000,31749,1,TH,1,100,16278
1574949938.853582,184141.000,31767,1,TH,1,100,16248
1574949938.979130,184247.000,31785,1,TH,1,100,16238
1574949939.109415,184357.000,31804,1,TH,1,100,16220
1574949939.242068,184469.000,31839,1,TH,1,100,16238
1574949939.379460,184585.000,31856,1,TH,1,100,16274
1574949939.513298,184698.000,31873,1,TH,1,100,16272
1574949939.643583,184808.000,31891,1,TH,1,100,16248
1574949939.771499,184916.000,31909,1,TH,1,100,16264
1574949939.906522,185030.000,31927,1,TH,1,100,16266
1574949940.036807,185140.000,31946,1,TH,1,100,16262
1574949940.165907,185249.000,31964,1,TH,1,100,16248
1574949940.300930,185363.000,31982,1,TH,1,100,16236
1574949940.431215,185473.000,32017,1,TH,1,100,16200
1574949940.559131,185581.000,32035,1,TH,1,100,16274
1574949940.694154,185695.000,32052,1,TH,1,100,16260
1574949940.818517,185800.000,32069,1,TH,1,100,16260
1574949940.946433,185908.000,32088,1,TH,1,100,16248
1574949941.083824,186024.000,32106,1,TH,1,100,16226
1574949941.222400,186141.000,32124,1,TH,1,100,16284
1574949941.357423,186255.000,32142,1,TH,1,100,16276
1574949941.500736,186376.000,32160,1,TH,1,100,16258
1574949941.625099,186481.000,32195,1,TH,1,100,16248
1574949941.754200,186590.000,32213,1,TH,1,100,16278
1574949941.890407,186705.000,32230,1,TH,1,100,16296
1574949942.025429,186819.000,32248,1,TH,1,100,16276
1574949942.161637,186934.000,32266,1,TH,1,100,16256
1574949942.288368,187041.000,32284,1,TH,1,100,16276
1574949942.417469,187150.000,32302,1,TH,1,100,16300
1574949942.554860,187266.000,32320,1,TH,1,100,16280
1574949942.694621,187384.000,32338,1,TH,1,100,16296
1574949942.822537,187492.000,32373,1,TH,1,100,16246
1574949942.949269,187599.000,32392,1,TH,1,100,16290
1574949943.084291,187713.000,32409,1,TH,1,100,16284
1574949943.218130,187826.000,32426,1,TH,1,100,16276
1574949943.356705,187943.000,32444,1,TH,1,100,16218
1574949943.483437,188050.000,32465,1,TH,1,100,16270
1574949943.611353,188158.000,32485,1,TH,1,100,16258
1574949943.736901,188264.000,32503,1,TH,1,100,16260
1574949943.866001,188373.000,32520,1,TH,1,100,16284
1574949943.993917,188481.000,32539,1,TH,1,100,16288
1574949944.119465,188587.000,32556,1,TH,1,100,16266
1574949944.248565,188696.000,32574,1,TH,1,100,16250
1574949944.376482,188804.000,32592,1,TH,1,100,16246
1574949944.502029,188910.000,32610,1,TH,1,100,16236
1574949944.632314,189020.000,32628,1,TH,1,100,16256
1574949944.768521,189135.000,32646,1,TH,1,100,16272
1574949944.901175,189247.000,32664,1,TH,1,100,16254
1574949945.039751,189364.000,32683,1,TH,1,100,16238
1574949945.177142,189480.000,32718,1,TH,1,100,16232
1574949945.302690,189586.000,32735,1,TH,1,100,16262
1574949945.438896,189701.000,32752,1,TH,1,100,16234
1574949945.564444,189807.000,32770,1,TH,1,100,16230
1574949945.697098,189919.000,32788,1,TH,1,100,16188
1574949945.832120,190033.000,32806,1,TH,1,100,16244
1574949945.969512,190149.000,32825,1,TH,1,100,16252
1574949946.098612,190258.000,32843,1,TH,1,100,16228
1574949946.227713,190367.000,32861,1,TH,1,100,16222
1574949946.360367,190479.000,32896,1,TH,1,100,16180
1574949946.498943,190596.000,32913,1,TH,1,100,16234
1574949946.638703,190714.000,32930,1,TH,1,100,16252
1574949946.760697,190817.000,32948,1,TH,1,100,16228
1574949946.889798,190926.000,32967,1,TH,1,100,16220
1574949947.028373,191043.000,32985,1,TH,1,100,16246
1574949947.161027,191155.000,33003,1,TH,1,100,16248
1574949947.296050,191269.000,33021,1,TH,1,100,16228
1574949947.420413,191374.000,33039,1,TH,1,100,16222
1574949947.553067,191486.000,33074,1,TH,1,100,16200
1574949947.680983,191594.000,33092,1,TH,1,100,16238
1574949947.813637,191706.000,33109,1,TH,1,100,16246
1574949947.946290,191818.000,33127,1,TH,1,100,16236
1574949948.074207,191926.000,33145,1,TH,1,100,16228
1574949948.206861,192038.000,33163,1,TH,1,100,16190
1574949948.338330,192149.000,33181,1,TH,1,100,16238
1574949948.465062,192256.000,33199,1,TH,1,100,16250
1574949948.601269,192371.000,33217,1,TH,1,100,16238
1574949948.737476,192486.000,33235,1,TH,1,100,16222
1574949948.871314,192599.000,33271,1,TH,1,100,16188
1574949949.009890,192716.000,33288,1,TH,1,100,16238
1574949949.142544,192828.000,33305,1,TH,1,100,16244
1574949949.271644,192937.000,33323,1,TH,1,100,16214
1574949949.401929,193047.000,33341,1,TH,1,100,16200
1574949949.538136,193162.000,33362,1,TH,1,100,16230
1574949949.675528,193278.000,33382,1,TH,1,100,16216
1574949949.803444,193386.000,33399,1,TH,1,100,16218
1574949949.928991,193492.000,33417,1,TH,1,100,16236
1574949950.064014,193606.000,33435,1,TH,1,100,16214
1574949950.202590,193723.000,33453,1,TH,1,100,16206
1574949950.337612,193837.000,33471,1,TH,1,100,16248
1574949950.463160,193943.000,33489,1,TH,1,100,16226
1574949950.593445,194053.000,33507,1,TH,1,100,16214
1574949950.726099,194165.000,33525,1,TH,1,100,16208
1574949950.862306,194280.000,33561,1,TH,1,100,16204
1574949950.996144,194393.000,33579,1,TH,1,100,16224
1574949951.122876,194500.000,33596,1,TH,1,100,16222
1574949951.254345,194611.000,33613,1,TH,1,100,16208
1574949951.389368,194725.000,33631,1,TH,1,100,16186
1574949951.524390,194839.000,33649,1,TH,1,100,16238
1574949951.655860,194950.000,33667,1,TH,1,100,16226
1574949951.789698,195063.000,33685,1,TH,1,100,16198
1574949951.924721,195177.000,33704,1,TH,1,100,16204
1574949952.056190,195288.000,33739,1,TH,1,100,16194
1574949952.190028,195401.000,33756,1,TH,1,100,16230
1574949952.325051,195515.000,33773,1,TH,1,100,16220
1574949952.452967,195623.000,33791,1,TH,1,100,16202
1574949952.591543,195740.000,33809,1,TH,1,100,16190
1574949952.727750,195855.000,33827,1,TH,1,100,16226
1574949952.859219,195966.000,33845,1,TH,1,100,16208
1574949953.001348,196086.000,33864,1,TH,1,100,16188
1574949953.125711,196191.000,33899,1,TH,1,100,16184
1574949953.254812,196300.000,33917,1,TH,1,100,16196
1574949953.389835,196414.000,33934,1,TH,1,100,16214
1574949953.524857,196528.000,33951,1,TH,1,100,16202
1574949953.661064,196643.000,33969,1,TH,1,100,16152
1574949953.785427,196748.000,33987,1,TH,1,100,16188
1574949953.919266,196861.000,34006,1,TH,1,100,16214
1574949954.055472,196976.000,34024,1,TH,1,100,16226
1574949954.194048,197093.000,34042,1,TH,1,100,16190
1574949954.321965,197201.000,34060,1,TH,1,100,16146
1574949954.448696,197308.000,34095,1,TH,1,100,16198
1574949954.583719,197422.000,34112,1,TH,1,100,16246
1574949954.717557,197535.000,34129,1,TH,1,100,16204
1574949954.856133,197652.000,34148,1,TH,1,100,16168
1574949954.982865,197759.000,34166,1,TH,1,100,16196
1574949955.110781,197867.000,34184,1,TH,1,100,16214
1574949955.236328,197973.000,34202,1,TH,1,100,16224
1574949955.365429,198082.000,34220,1,TH,1,100,16204
1574949955.493345,198190.000,34238,1,TH,1,100,16200
1574949955.618892,198296.000,34259,1,TH,1,100,16198
1574949955.752731,198409.000,34279,1,TH,1,100,16190
1574949955.892491,198527.000,34298,1,TH,1,100,16202
1574949956.026329,198640.000,34316,1,TH,1,100,16214
1574949956.164905,198757.000,34334,1,TH,1,100,16196
1574949956.301112,198872.000,34352,1,TH,1,100,16190
1574949956.433766,198984.000,34387,1,TH,1,100,16196
1574949956.572342,199101.000,34404,1,TH,1,100,16220
1574949956.710917,199218.000,34421,1,TH,1,100,16204
1574949956.834096,199322.000,34440,1,TH,1,100,16156
1574949956.970303,199437.000,34458,1,TH,1,100,16198
1574949957.095850,199543.000,34476,1,TH,1,100,16214
1574949957.228504,199655.000,34494,1,TH,1,100,16200
1574949957.363527,199769.000,34512,1,TH,1,100,16192
1574949957.500918,199885.000,34547,1,TH,1,100,16188
1574949957.630019,199994.000,34565,1,TH,1,100,16194
1574949957.759120,200103.000,34582,1,TH,1,100,16214
1574949957.890589,200214.000,34601,1,TH,1,100,16214
1574949958.029165,200331.000,34618,1,TH,1,100,16184
1574949958.168925,200449.000,34636,1,TH,1,100,16184
1574949958.290919,200552.000,34654,1,TH,1,100,16206
1574949958.421204,200662.000,34672,1,TH,1,100,16218
1574949958.560965,200780.000,34690,1,TH,1,100,16194
1574949958.693618,200892.000,34708,1,TH,1,100,16192
1574949958.828641,201006.000,34744,1,TH,1,100,16194
1574949958.953004,201111.000,34761,1,TH,1,100,16222
1574949959.085658,201223.000,34778,1,TH,1,100,16220
1574949959.213574,201331.000,34796,1,TH,1,100,16194
1574949959.346228,201443.000,34814,1,TH,1,100,16158
1574949959.478882,201555.000,34832,1,TH,1,100,16204
1574949959.606798,201663.000,34850,1,TH,1,100,16224
1574949959.739452,201775.000,34868,1,TH,1,100,16204
1574949959.870921,201886.000,34887,1,TH,1,100,16204
1574949959.998837,201994.000,34905,1,TH,1,100,16202
1574949960.136229,202110.000,34940,1,TH,1,100,16190
1574949960.273620,202226.000,34957,1,TH,1,100,16220
1574949960.406274,202338.000,34974,1,TH,1,100,16250
1574949960.546034,202456.000,34992,1,TH,1,100,16216
1574949960.685794,202574.000,35010,1,TH,1,100,16246
1574949960.823186,202690.000,35028,1,TH,1,100,16232
1574949960.951102,202798.000,35047,1,TH,1,100,16216
1574949961.079018,202906.000,35065,1,TH,1,100,16224
1574949961.215225,203021.000,35100,1,TH,1,100,16208
1574949961.350248,203135.000,35117,1,TH,1,100,16260
1574949961.486455,203250.000,35134,1,TH,1,100,16266
1574949961.615556,203359.000,35155,2,TH,1,100,16236
1574949961.744656,203468.000,35155,2,TH,1,100,16238
1574949961.878494,203581.000,35193,1,TH,1,100,16242
1574949962.015886,203697.000,35210,1,TH,1,100,16248
1574949962.149724,203810.000,35227,1,TH,1,100,16266
1574949962.272902,203914.000,35245,1,TH,1,100,16244
1574949962.407925,204028.000,35263,1,TH,1,100,16210
1574949962.546501,204145.000,35281,1,TH,1,100,16260
1574949962.680339,204258.000,35299,1,TH,1,100,16264
1574949962.808255,204366.000,35317,1,TH,1,100,16240
1574949962.934987,204473.000,35336,1,TH,1,100,16236
1574949963.070010,204587.000,35354,1,TH,1,100,16230
1574949963.201479,204698.000,35389,1,TH,1,100,16236
1574949963.335317,204811.000,35406,1,TH,1,100,16256
1574949963.470340,204925.000,35423,1,TH,1,100,16244
1574949963.601810,205036.000,35441,1,TH,1,100,16228
1574949963.735648,205149.000,35459,1,TH,1,100,16242
1574949963.870670,205263.000,35478,1,TH,1,100,16258
1574949963.998587,205371.000,35496,1,TH,1,100,16238
1574949964.137162,205488.000,35514,1,TH,1,100,16226
1574949964.275738,205605.000,35549,1,TH,1,100,16192
1574949964.410761,205719.000,35566,1,TH,1,100,16262
1574949964.554074,205840.000,35583,1,TH,1,100,16240
1574949964.679622,205946.000,35601,1,TH,1,100,16220
1574949964.809907,206056.000,35620,1,TH,1,100,16216
1574949964.941376,206167.000,35638,1,TH,1,100,16258
1574949965.072845,206278.000,35656,1,TH,1,100,16250
1574949965.210237,206394.000,35674,1,TH,1,100,16236
1574949965.347628,206510.000,35709,1,TH,1,100,16214
1574949965.475545,206618.000,35727,1,TH,1,100,16246
1574949965.601092,206724.000,35745,1,TH,1,100,16266
1574949965.738483,206840.000,35762,1,TH,1,100,16262
1574949965.872322,206953.000,35780,1,TH,1,100,16242
1574949966.010898,207070.000,35798,1,TH,1,100,16242
1574949966.137629,207177.000,35816,1,TH,1,100,16266
1574949966.264361,207284.000,35834,1,TH,1,100,16268
1574949966.399384,207398.000,35852,1,TH,1,100,16246
1574949966.537960,207515.000,35870,1,TH,1,100,16236
1574949966.668245,207625.000,35905,1,TH,1,100,16226
1574949966.793792,207731.000,35924,1,TH,1,100,16272
1574949966.928815,207845.000,35941,1,TH,1,100,16264
1574949967.069759,207964.000,35958,1,TH,1,100,16244
1574949967.203598,208077.000,35976,1,TH,1,100,16238
1574949967.343358,208195.000,35994,1,TH,1,100,16266
1574949967.479565,208310.000,36012,1,TH,1,100,16250
1574949967.615772,208425.000,36030,1,TH,1,100,16232
1574949967.754348,208542.000,36051,1,TH,1,100,16254
1574949967.889370,208656.000,36072,1,TH,1,100,16242
1574949968.023209,208769.000,36090,1,TH,1,100,16248
1574949968.160600,208885.000,36108,1,TH,1,100,16234
1574949968.295623,208999.000,36143,1,TH,1,100,16230
1574949968.430645,209113.000,36160,1,TH,1,100,16274
1574949968.566852,209228.000,36177,1,TH,1,100,16256
1574949968.699506,209340.000,36195,1,TH,1,100,16236
1574949968.826238,209447.000,36214,1,TH,1,100,16258
1574949968.955338,209556.000,36232,1,TH,1,100,16264
1574949969.087992,209668.000,36250,1,TH,1,100,16274
1574949969.225384,209784.000,36268,1,TH,1,100,16258
1574949969.361591,209899.000,36303,1,TH,1,100,16240
1574949969.485954,210004.000,36321,1,TH,1,100,16264
1574949969.616239,210114.000,36339,1,TH,1,100,16268
1574949969.755999,210232.000,36356,1,TH,1,100,16284
1574949969.889837,210345.000,36374,1,TH,1,100,16248
1574949970.022491,210457.000,36392,1,TH,1,100,16258
1574949970.149223,210564.000,36410,1,TH,1,100,16254
1574949970.279508,210674.000,36428,1,TH,1,100,16276
1574949970.416899,210790.000,36446,1,TH,1,100,16288
1574949970.556659,210908.000,36464,1,TH,1,100,16250
1574949970.681022,211013.000,36499,1,TH,1,100,16252
1574949970.808939,211121.000,36518,1,TH,1,100,16258
1574949970.941592,211233.000,36535,1,TH,1,100,16274
1574949971.073062,211344.000,36552,1,TH,1,100,16270
1574949971.199794,211451.000,36570,1,TH,1,100,16244
1574949971.332448,211563.000,36588,1,TH,1,100,16228
1574949971.463917,211674.000,36606,1,TH,1,100,16208
1574949971.591833,211782.000,36624,1,TH,1,100,16282
1574949971.724487,211894.000,36642,1,TH,1,100,16250
1574949971.854772,212004.000,36661,1,TH,1,100,16254
1574949971.988610,212117.000,36679,1,TH,1,100,16244
1574949972.128370,212235.000,36714,1,TH,1,100,16250
1574949972.264577,212350.000,36731,1,TH,1,100,16274
1574949972.401969,212466.000,36748,1,TH,1,100,16254
1574949972.529885,212574.000,36766,1,TH,1,100,16234
1574949972.658986,212683.000,36784,1,TH,1,100,16270
1574949972.785717,212790.000,36803,1,TH,1,100,16268
1574949972.918371,212902.000,36821,1,TH,1,100,16280
1574949973.054578,213017.000,36839,1,TH,1,100,16252
1574949973.191970,213133.000,36874,1,TH,1,100,16244
1574949973.321070,213242.000,36892,1,TH,1,100,16306
1574949973.446618,213348.000,36910,1,TH,1,100,16284
1574949973.581640,213462.000,36927,1,TH,1,100,16282
1574949973.719032,213578.000,36947,2,TH,1,100,16246
1574949973.856423,213694.000,36947,2,TH,1,100,16258
1574949973.981971,213800.000,36985,1,TH,1,100,16260
1574949974.113440,213911.000,37003,1,TH,1,100,16286
1574949974.247278,214024.000,37020,1,TH,1,100,16294
1574949974.383485,214139.000,37037,1,TH,1,100,16264
1574949974.518508,214253.000,37055,1,TH,1,100,16266
1574949974.641686,214357.000,37073,1,TH,1,100,16278
1574949974.773156,214468.000,37092,1,TH,1,100,16268
1574949974.906994,214581.000,37110,1,TH,1,100,16270
1574949975.042017,214695.000,37128,1,TH,1,100,16270
1574949975.173486,214806.000,37163,1,TH,1,100,16234
1574949975.307324,214919.000,37180,1,TH,1,100,16272
1574949975.442347,215033.000,37197,1,TH,1,100,16306
1574949975.572632,215143.000,37215,1,TH,1,100,16268
1574949975.705286,215255.000,37233,1,TH,1,100,16232
1574949975.839124,215368.000,37252,1,TH,1,100,16290
1574949975.968225,215477.000,37270,1,TH,1,100,16296
1574949976.106800,215594.000,37288,1,TH,1,100,16280
1574949976.243007,215709.000,37306,1,TH,1,100,16264
1574949976.376846,215822.000,37341,1,TH,1,100,16250
1574949976.517790,215941.000,37358,1,TH,1,100,16290
1574949976.643338,216047.000,37375,1,TH,1,100,16280
1574949976.773623,216157.000,37394,1,TH,1,100,16264
1574949976.906276,216269.000,37412,1,TH,1,100,16256
1574949977.041299,216383.000,37430,1,TH,1,100,16296
1574949977.177506,216498.000,37448,1,TH,1,100,16296
1574949977.301869,216603.000,37466,1,TH,1,100,16266
1574949977.430970,216712.000,37484,1,TH,1,100,16264
1574949977.567177,216827.000,37519,1,TH,1,100,16254
1574949977.705753,216944.000,37536,1,TH,1,100,16270
1574949977.834853,217053.000,37554,1,TH,1,100,16292
1574949977.961585,217160.000,37572,1,TH,1,100,16270
1574949978.095423,217273.000,37590,1,TH,1,100,16254
1574949978.229261,217386.000,37608,1,TH,1,100,16262
1574949978.367837,217503.000,37626,1,TH,1,100,16284
1574949978.495754,217611.000,37644,1,TH,1,100,16270
1574949978.624854,217720.000,37662,1,TH,1,100,16270
1574949978.758692,217833.000,37680,1,TH,1,100,16262
1574949978.898453,217951.000,37715,1,TH,1,100,16254
1574949979.034660,218066.000,37732,1,TH,1,100,16278
1574949979.169682,218180.000,37750,1,TH,1,100,16264
1574949979.308258,218297.000,37768,1,TH,1,100,16266
1574949979.443281,218411.000,37786,1,TH,1,100,16282
1574949979.579488,218526.000,37804,1,TH,1,100,16268
1574949979.716879,218642.000,37822,1,TH,1,100,16254
1574949979.851902,218756.000,37844,1,TH,1,100,16246
1574949979.985740,218869.000,37862,1,TH,1,100,16256
1574949980.124316,218986.000,37882,1,TH,1,100,16266
1574949980.260523,219101.000,37900,1,TH,1,100,16256
1574949980.386070,219207.000,37935,1,TH,1,100,16246
1574949980.522277,219322.000,37953,1,TH,1,100,16278
1574949980.647825,219428.000,37970,1,TH,1,100,16282
1574949980.779294,219539.000,37988,1,TH,1,100,16266
1574949980.915501,219654.000,38006,1,TH,1,100,16248
1574949981.052893,219770.000,38024,1,TH,1,100,16280
1574949981.183178,219880.000,38042,1,TH,1,100,16266
1574949981.308725,219986.000,38060,1,TH,1,100,16290
1574949981.443748,220100.000,38078,1,TH,1,100,16258
1574949981.582324,220217.000,38113,1,TH,1,100,16244
1574949981.723268,220336.000,38131,1,TH,1,100,16274
1574949981.845262,220439.000,38149,1,TH,1,100,16272
1574949981.974363,220548.000,38167,1,TH,1,100,16268
1574949982.114123,220666.000,38184,1,TH,1,100,16256
1574949982.246777,220778.000,38202,1,TH,1,100,16274
1574949982.382984,220893.000,38220,1,TH,1,100,16282
1574949982.507347,220998.000,38238,1,TH,1,100,16256
1574949982.638816,221109.000,38256,1,TH,1,100,16254
1574949982.765548,221216.000,38274,1,TH,1,100,16248
1574949982.898202,221328.000,38310,1,TH,1,100,16238
1574949983.029671,221439.000,38328,1,TH,1,100,16264
1574949983.156403,221546.000,38345,1,TH,1,100,16276
1574949983.289057,221658.000,38362,1,TH,1,100,16258
1574949983.420526,221769.000,38380,1,TH,1,100,16244
1574949983.546074,221875.000,38398,1,TH,1,100,16238
1574949983.683465,221991.000,38416,1,TH,1,100,16242
1574949983.822041,222108.000,38435,1,TH,1,100,16264
1574949983.955879,222221.000,38453,1,TH,1,100,16242
1574949984.095639,222339.000,38488,1,TH,1,100,16232
1574949984.236584,222458.000,38505,1,TH,1,100,16246
1574949984.373976,222574.000,38522,1,TH,1,100,16254
1574949984.503076,222683.000,38540,1,TH,1,100,16224
1574949984.629808,222790.000,38558,1,TH,1,100,16234
1574949984.764831,222904.000,38577,1,TH,1,100,16254
1574949984.899853,223018.000,38595,1,TH,1,100,16260
1574949985.037245,223134.000,38613,1,TH,1,100,16244
1574949985.162792,223240.000,38631,1,TH,1,100,16184
1574949985.294261,223351.000,38666,1,TH,1,100,16198
1574949985.428100,223464.000,38683,1,TH,1,100,16256
1574949985.565491,223580.000,38700,1,TH,1,100,16264
1574949985.700514,223694.000,38718,1,TH,1,100,16198
1574949985.828430,223802.000,38738,2,TH,1,100,16220
1574949985.956346,223910.000,38738,2,TH,1,100,16234
1574949986.094922,224027.000,38777,1,TH,1,100,16192
1574949986.227576,224139.000,38794,1,TH,1,100,16260
1574949986.356676,224248.000,38811,1,TH,1,100,16234
1574949986.482224,224354.000,38829,1,TH,1,100,16230
1574949986.617246,224468.000,38847,1,TH,1,100,16242
1574949986.748716,224579.000,38866,1,TH,1,100,16254
1574949986.882554,224692.000,38884,1,TH,1,100,16234
1574949987.017577,224806.000,38902,1,TH,1,100,16240
1574949987.146677,224915.000,38920,1,TH,1,100,16232
1574949987.279331,225027.000,38955,1,TH,1,100,16224
1574949987.414354,225141.000,38973,1,TH,1,100,16252
1574949987.543454,225250.000,38990,1,TH,1,100,16246
1574949987.676108,225362.000,39007,1,TH,1,100,16238
1574949987.809946,225475.000,39026,1,TH,1,100,16230
1574949987.944969,225589.000,39044,1,TH,1,100,16260
1574949988.087098,225709.000,39062,1,TH,1,100,16240
1574949988.219752,225821.000,39080,1,TH,1,100,16240
1574949988.354774,225935.000,39115,1,TH,1,100,16210
1574949988.481506,226042.000,39133,1,TH,1,100,16264
1574949988.611791,226152.000,39150,1,TH,1,100,16266
1574949988.749183,226268.000,39168,1,TH,1,100,16248
1574949988.886574,226384.000,39186,1,TH,1,100,16180
1574949989.015675,226493.000,39204,1,TH,1,100,16266
1574949989.141222,226599.000,39222,1,TH,1,100,16264
1574949989.277429,226714.000,39240,1,TH,1,100,16250
1574949989.411268,226827.000,39258,1,TH,1,100,16234
1574949989.549843,226944.000,39293,1,TH,1,100,16200
1574949989.677759,227052.000,39311,1,TH,1,100,16256
1574949989.804491,227159.000,39329,1,TH,1,100,16260
1574949989.940698,227274.000,39346,1,TH,1,100,16286
1574949990.079274,227391.000,39364,1,TH,1,100,16228
1574949990.210743,227502.000,39382,1,TH,1,100,16258
1574949990.336291,227608.000,39400,1,TH,1,100,16252
1574949990.468945,227720.000,39418,1,TH,1,100,16252
1574949990.605152,227835.000,39436,1,TH,1,100,16228
1574949990.741359,227950.000,39472,1,TH,1,100,16196
1574949990.878750,228066.000,39489,1,TH,1,100,16226
1574949991.013773,228180.000,39506,1,TH,1,100,16238
1574949991.147611,228293.000,39524,1,TH,1,100,16222
1574949991.286187,228410.000,39542,1,TH,1,100,16222
1574949991.421210,228524.000,39560,1,TH,1,100,16236
1574949991.556232,228638.000,39578,1,TH,1,100,16228
1574949991.694808,228755.000,39596,1,TH,1,100,16210
1574949991.832200,228871.000,39633,2,TH,1,100,16206
1574949991.969591,228987.000,39633,2,TH,1,100,16248
1574949992.106982,229103.000,39655,1,TH,1,100,16246
1574949992.232530,229209.000,39673,1,TH,1,100,16218
1574949992.367553,229323.000,39708,1,TH,1,100,16182
1574949992.500206,229435.000,39726,1,TH,1,100,16248
1574949992.634044,229548.000,39743,1,TH,1,100,16252
1574949992.772620,229665.000,39761,1,TH,1,100,16232
1574949992.908827,229780.000,39779,1,TH,1,100,16216
1574949993.034375,229886.000,39797,1,TH,1,100,16262
1574949993.163475,229995.000,39815,1,TH,1,100,16254
1574949993.303236,230113.000,39833,1,TH,1,100,16278
1574949993.437074,230226.000,39851,1,TH,1,100,16222
1574949993.570912,230339.000,39886,1,TH,1,100,16208
1574949993.697644,230446.000,39904,1,TH,1,100,16260
1574949993.827929,230556.000,39922,1,TH,1,100,16258
1574949993.964136,230671.000,39939,1,TH,1,100,16260
1574949994.103896,230789.000,39957,1,TH,1,100,16216
1574949994.229444,230895.000,39975,1,TH,1,100,16266
1574949994.356175,231002.000,39993,1,TH,1,100,16264
1574949994.493567,231118.000,40011,1,TH,1,100,16244
1574949994.629774,231233.000,40029,1,TH,1,100,16230
1574949994.765981,231348.000,40065,1,TH,1,100,16226
1574949994.906925,231467.000,40082,1,TH,1,100,16266
1574949995.043133,231582.000,40099,1,TH,1,100,16246
1574949995.178155,231696.000,40117,1,TH,1,100,16232
1574949995.319100,231815.000,40135,1,TH,1,100,16268
1574949995.456491,231931.000,40153,1,TH,1,100,16282
1574949995.591514,232045.000,40171,1,TH,1,100,16244
1574949995.731274,232163.000,40205,1,TH,1,100,16230
1574949995.871034,232281.000,40223,1,TH,1,100,16268
1574949996.008426,232397.000,40241,1,TH,1,100,16224
1574949996.137527,232506.000,40259,1,TH,1,100,16252
1574949996.265443,232614.000,40277,1,TH,1,100,16270
1574949996.400465,232728.000,40295,1,TH,1,100,16274
1574949996.536672,232843.000,40313,1,TH,1,100,16242
1574949996.670511,232956.000,40331,1,TH,1,100,16238
1574949996.807902,233072.000,40367,1,TH,1,100,16252
1574949996.938187,233182.000,40384,1,TH,1,100,16278
1574949997.062550,233287.000,40401,1,TH,1,100,16252
1574949997.195204,233399.000,40419,1,TH,1,100,16250
1574949997.333780,233516.000,40437,1,TH,1,100,16244
1574949997.469987,233631.000,40455,1,TH,1,100,16282
1574949997.596719,233738.000,40473,1,TH,1,100,16262
1574949997.727003,233848.000,40491,1,TH,1,100,16250
1574949997.859657,233960.000,40510,1,TH,1,100,16252
1574949997.995864,234075.000,40531,1,TH,1,100,16236
1574949998.130887,234189.000,40551,1,TH,1,100,16230
1574949998.254066,234293.000,40569,1,TH,1,100,16274
1574949998.383166,234402.000,40587,1,TH,1,100,16262
1574949998.517004,234515.000,40605,1,TH,1,100,16244
1574949998.652027,234629.000,40623,1,TH,1,100,16256
1574949998.785865,234742.000,40658,1,TH,1,100,16260
1574949998.927994,234862.000,40676,1,TH,1,100,16272
1574949999.067755,234980.000,40693,1,TH,1,100,16252
1574949999.201593,235093.000,40711,1,TH,1,100,16266
1574949999.344906,235214.000,40729,1,TH,1,100,16264
1574949999.483482,235331.000,40747,1,TH,1,100,16248
1574949999.618505,235445.000,40782,1,TH,1,100,16226
1574949999.760634,235565.000,40799,1,TH,1,100,16274
1574949999.893288,235677.000,40817,1,TH,1,100,16260
1574950000.028310,235791.000,40835,1,TH,1,100,16224
1574950000.155042,235898.000,40853,1,TH,1,100,16252
1574950000.285327,236008.000,40871,1,TH,1,100,16274
1574950000.422719,236124.000,40889,1,TH,1,100,16256
1574950000.560110,236240.000,40907,1,TH,1,100,16238
1574950000.689210,236349.000,40942,1,TH,1,100,16198
1574950000.814758,236455.000,40961,1,TH,1,100,16252
1574950000.952149,236571.000,40978,1,TH,1,100,16266
1574950001.085988,236684.000,40995,1,TH,1,100,16256
1574950001.224563,236801.000,41013,1,TH,1,100,16202
1574950001.352479,236909.000,41031,1,TH,1,100,16250
1574950001.479211,237016.000,41049,1,TH,1,100,16272
1574950001.615418,237131.000,41067,1,TH,1,100,16266
1574950001.753994,237248.000,41085,1,TH,1,100,16234
1574950001.884279,237358.000,41121,1,TH,1,100,16204
1574950002.009827,237464.000,41139,1,TH,1,100,16256
1574950002.141296,237575.000,41156,1,TH,1,100,16242
1574950002.277503,237690.000,41173,1,TH,1,100,16266
1574950002.411341,237803.000,41191,1,TH,1,100,16246
1574950002.548733,237919.000,41209,1,TH,1,100,16236
1574950002.682571,238032.000,41227,1,TH,1,100,16270
1574950002.816409,238145.000,41245,1,TH,1,100,16242
1574950002.954985,238262.000,41264,1,TH,1,100,16222
1574950003.090008,238376.000,41299,1,TH,1,100,16186
1574950003.226215,238491.000,41316,1,TH,1,100,16258
1574950003.364791,238608.000,41333,1,TH,1,100,16242
1574950003.504551,238726.000,41351,1,TH,1,100,16220
1574950003.639574,238840.000,41369,1,TH,1,100,16262
1574950003.776965,238956.000,41387,1,TH,1,100,16236
1574950003.902512,239062.000,41406,1,TH,1,100,16230
1574950004.035166,239174.000,41427,1,TH,1,100,16216
1574950004.171373,239289.000,41447,1,TH,1,100,16200
1574950004.305211,239402.000,41465,1,TH,1,100,16260
1574950004.443787,239519.000,41483,1,TH,1,100,16254
1574950004.579994,239634.000,41501,1,TH,1,100,16230
1574950004.705542,239740.000,41536,1,TH,1,100,16224
1574950004.834642,239849.000,41555,1,TH,1,100,16236
1574950004.973218,239966.000,41572,1,TH,1,100,16256
1574950005.107056,240079.000,41589,1,TH,1,100,16236
1574950005.240895,240192.000,41607,1,TH,1,100,16220
1574950005.367626,240299.000,41625,1,TH,1,100,16232
1574950005.497911,240409.000,41643,1,TH,1,100,16254
1574950005.636487,240526.000,41661,1,TH,1,100,16238
1574950005.776248,240644.000,41679,1,TH,1,100,16218
1574950005.901795,240750.000,41715,1,TH,1,100,16202
1574950006.028527,240857.000,41733,1,TH,1,100,16238
1574950006.165918,240973.000,41750,1,TH,1,100,16224
1574950006.302125,241088.000,41767,1,TH,1,100,16230
1574950006.438332,241203.000,41785,1,TH,1,100,16180
1574950006.579277,241322.000,41803,1,TH,1,100,16246
1574950006.715484,241437.000,41821,1,TH,1,100,16224
1574950006.850507,241551.000,41839,1,TH,1,100,16216
1574950006.991451,241670.000,41874,1,TH,1,100,16208
1574950007.128843,241786.000,41891,1,TH,1,100,16244
1574950007.265050,241901.000,41909,1,TH,1,100,16214
1574950007.403625,242018.000,41927,1,TH,1,100,16230
1574950007.542201,242135.000,41945,1,TH,1,100,16236
1574950007.679593,242251.000,41963,1,TH,1,100,16216
1574950007.808693,242360.000,41981,1,TH,1,100,16192
1574950007.936610,242468.000,42017,1,TH,1,100,16188
1574950008.071632,242582.000,42034,1,TH,1,100,16230
1574950008.211392,242700.000,42051,1,TH,1,100,16220
1574950008.346415,242814.000,42069,1,TH,1,100,16200
1574950008.484991,242931.000,42087,1,TH,1,100,16214
1574950008.615276,243041.000,42105,1,TH,1,100,16242
1574950008.739639,243146.000,42123,1,TH,1,100,16212
1574950008.872293,243258.000,42141,1,TH,1,100,16204
1574950009.010869,243375.000,42177,1,TH,1,100,16198
1574950009.147076,243490.000,42195,1,TH,1,100,16206
1574950009.273807,243597.000,42213,1,TH,1,100,16228
1574950009.404092,243707.000,42230,1,TH,1,100,16208
1574950009.536746,243819.000,42247,1,TH,1,100,16198
1574950009.674138,243935.000,42265,1,TH,1,100,16198
1574950009.809160,244049.000,42283,1,TH,1,100,16220
1574950009.932339,244153.000,42302,1,TH,1,100,16208
1574950010.061440,244262.000,42323,1,TH,1,100,16200
1574950010.201200,244380.000,42343,1,TH,1,100,16186
1574950010.337407,244495.000,42361,1,TH,1,100,16208
1574950010.474798,244611.000,42379,1,TH,1,100,16214
1574950010.618112,244732.000,42397,1,TH,1,100,16202
1574950010.754319,244847.000,42432,1,TH,1,100,16190
1574950010.891710,244963.000,42450,1,TH,1,100,16208
1574950011.033839,245083.000,42467,1,TH,1,100,16200
1574950011.170046,245198.000,42485,1,TH,1,100,16182
1574950011.306253,245313.000,42503,1,TH,1,100,16206
1574950011.447198,245432.000,42521,1,TH,1,100,16204
1574950011.578667,245543.000,42539,1,TH,1,100,16180
1574950011.713690,245657.000,42574,1,TH,1,100,16166
1574950011.840422,245764.000,42593,1,TH,1,100,16204
1574950011.973076,245876.000,42610,1,TH,1,100,16206
1574950012.109283,245991.000,42627,1,TH,1,100,16208
1574950012.246674,246107.000,42645,1,TH,1,100,16130
1574950012.381697,246221.000,42663,1,TH,1,100,16212
1574950012.521457,246339.000,42681,1,TH,1,100,16198
1574950012.645820,246444.000,42699,1,TH,1,100,16176
1574950012.774921,246553.000,42717,1,TH,1,100,16172
1574950012.909943,246667.000,42753,1,TH,1,100,16170
1574950013.048519,246784.000,42770,1,TH,1,100,16186
1574950013.178804,246894.000,42787,1,TH,1,100,16202
1574950013.305536,247001.000,42805,1,TH,1,100,16168
1574950013.438190,247113.000,42823,1,TH,1,100,16168
1574950013.573212,247227.000,42841,1,TH,1,100,16182
1574950013.711788,247344.000,42859,1,TH,1,100,16196
1574950013.840889,247453.000,42877,1,TH,1,100,16178
1574950013.966436,247559.000,42896,1,TH,1,100,16172
1574950014.100274,247672.000,42914,1,TH,1,100,16168
1574950014.238850,247789.000,42948,1,TH,1,100,16172
1574950014.379795,247908.000,42965,1,TH,1,100,16184
1574950014.513633,248021.000,42983,1,TH,1,100,16150
1574950014.656947,248142.000,43001,1,TH,1,100,16192
1574950014.799076,248262.000,43019,1,TH,1,100,16182
1574950014.931730,248374.000,43037,1,TH,1,100,16170
1574950015.075043,248495.000,43073,1,TH,1,100,16162
1574950015.212435,248611.000,43090,1,TH,1,100,16208
1574950015.349826,248727.000,43107,1,TH,1,100,16158
1574950015.486033,248842.000,43125,1,TH,1,100,16182
1574950015.617502,248953.000,43143,1,TH,1,100,16198
1574950015.745419,249061.000,43161,1,TH,1,100,16182
1574950015.874519,249170.000,43179,1,TH,1,100,16180
1574950016.009542,249284.000,43198,1,TH,1,100,16172
1574950016.146933,249400.000,43219,1,TH,1,100,16154
1574950016.283140,249515.000,43239,1,TH,1,100,16156
1574950016.408688,249621.000,43257,1,TH,1,100,16196
1574950016.537788,249730.000,43275,1,TH,1,100,16180
1574950016.673995,249845.000,43293,1,TH,1,100,16168
1574950016.810202,249960.000,43328,1,TH,1,100,16144
1574950016.944041,250073.000,43347,1,TH,1,100,16190
1574950017.070772,250180.000,43364,1,TH,1,100,16188
1574950017.201057,250290.000,43381,1,TH,1,100,16204
1574950017.339633,250407.000,43399,1,TH,1,100,16128
1574950017.479393,250525.000,43417,1,TH,1,100,16208
1574950017.604941,250631.000,43435,1,TH,1,100,16180
1574950017.734041,250740.000,43453,1,TH,1,100,16182
1574950017.869064,250854.000,43471,1,TH,1,100,16180
1574950018.005271,250969.000,43507,1,TH,1,100,16134
1574950018.140294,251083.000,43524,1,TH,1,100,16204
1574950018.281238,251202.000,43541,1,TH,1,100,16184
1574950018.417445,251317.000,43559,1,TH,1,100,16166
1574950018.552468,251431.000,43577,1,TH,1,100,16196
1574950018.693413,251550.000,43595,1,TH,1,100,16170
1574950018.830804,251666.000,43613,1,TH,1,100,16168
1574950018.967011,251781.000,43649,1,TH,1,100,16170
1574950019.107956,251900.000,43666,1,TH,1,100,16190
1574950019.244163,252015.000,43683,1,TH,1,100,16186
1574950019.381554,252131.000,43701,1,TH,1,100,16164
1574950019.510655,252240.000,43719,1,TH,1,100,16200
1574950019.640940,252350.000,43737,1,TH,1,100,16202
1574950019.766487,252456.000,43755,1,TH,1,100,16172
1574950019.899141,252568.000,43773,1,TH,1,100,16164
1574950020.035348,252683.000,43809,1,TH,1,100,16162
1574950020.172740,252799.000,43827,1,TH,1,100,16190
1574950020.303025,252909.000,43844,1,TH,1,100,16186
1574950020.427387,253014.000,43861,1,TH,1,100,16168
1574950020.560041,253126.000,43879,1,TH,1,100,16166
1574950020.698617,253243.000,43897,1,TH,1,100,16156
1574950020.834824,253358.000,43915,1,TH,1,100,16192
1574950020.961556,253465.000,43933,1,TH,1,100,16170
1574950021.091841,253575.000,43952,1,TH,1,100,16166
1574950021.224495,253687.000,43970,1,TH,1,100,16158
1574950021.361886,253803.000,44005,1,TH,1,100,16146
1574950021.496909,253917.000,44022,1,TH,1,100,16186
1574950021.618903,254020.000,44039,1,TH,1,100,16174
1574950021.750372,254131.000,44057,1,TH,1,100,16156
1574950021.887764,254247.000,44075,1,TH,1,100,16132
1574950022.023971,254362.000,44094,1,TH,1,100,16180
1574950022.161362,254478.000,44115,1,TH,1,100,16166
1574950022.304676,254599.000,44135,1,TH,1,100,16140
1574950022.440883,254714.000,44153,1,TH,1,100,16162
1574950022.578274,254830.000,44171,1,TH,1,100,16184
1574950022.721588,254951.000,44189,1,TH,1,100,16156
1574950022.857795,255066.000,44224,1,TH,1,100,16136
1574950022.995186,255182.000,44242,1,TH,1,100,16184
1574950023.137316,255302.000,44259,1,TH,1,100,16154
1574950023.273523,255417.000,44277,1,TH,1,100,16142
1574950023.407361,255530.000,44295,1,TH,1,100,16180
1574950023.534092,255637.000,44313,1,TH,1,100,16174
1574950023.669115,255751.000,44331,1,TH,1,100,16154
1574950023.795847,255858.000,44349,1,TH,1,100,16150
1574950023.932054,255973.000,44385,1,TH,1,100,16132
1574950024.069445,256089.000,44403,1,TH,1,100,16154
1574950024.206837,256205.000,44420,1,TH,1,100,16170
1574950024.344228,256321.000,44437,1,TH,1,100,16130
1574950024.473329,256430.000,44455,1,TH,1,100,16170
1574950024.600061,256537.000,44473,1,TH,1,100,16156
1574950024.732714,256649.000,44491,1,TH,1,100,16174
1574950024.868922,256764.000,44509,1,TH,1,100,16158
1574950025.007497,256881.000,44545,1,TH,1,100,16144
1574950025.136598,256990.000,44563,1,TH,1,100,16162
1574950025.262145,257096.000,44581,1,TH,1,100,16166
1574950025.398352,257211.000,44598,1,TH,1,100,16180
1574950025.536928,257328.000,44615,1,TH,1,100,16142
1574950025.669582,257440.000,44633,1,TH,1,100,16158
1574950025.795129,257546.000,44651,1,TH,1,100,16166
1574950025.925414,257656.000,44669,1,TH,1,100,16178
1574950026.061621,257771.000,44688,1,TH,1,100,16164
1574950026.195460,257884.000,44706,1,TH,1,100,16150
1574950026.338773,258005.000,44740,1,TH,1,100,16140
1574950026.476165,258121.000,44757,1,TH,1,100,16166
1574950026.613556,258237.000,44775,1,TH,1,100,16134
1574950026.756870,258358.000,44793,1,TH,1,100,16164
1574950026.894261,258474.000,44811,1,TH,1,100,16166
1574950027.030468,258589.000,44829,1,TH,1,100,16154
1574950027.173782,258710.000,44865,1,TH,1,100,16144
1574950027.309988,258825.000,44882,1,TH,1,100,16182
1574950027.437905,258933.000,44899,1,TH,1,100,16160
1574950027.576481,259050.000,44917,1,TH,1,100,16134
1574950027.700844,259155.000,44935,1,TH,1,100,16172
1574950027.829944,259264.000,44953,1,TH,1,100,16178
1574950027.969704,259382.000,44971,1,TH,1,100,16176
1574950028.105911,259497.000,44990,1,TH,1,100,16156
1574950028.237381,259608.000,45011,1,TH,1,100,16136
1574950028.361744,259713.000,45031,1,TH,1,100,16146
1574950028.495582,259826.000,45049,1,TH,1,100,16174
1574950028.632973,259942.000,45067,1,TH,1,100,16170
1574950028.773918,260061.000,45085,1,TH,1,100,16160
1574950028.897097,260165.000,45103,1,TH,1,100,16112
1574950029.025013,260273.000,45139,1,TH,1,100,16134
1574950029.163589,260390.000,45156,1,TH,1,100,16172
1574950029.297427,260503.000,45173,1,TH,1,100,16182
1574950029.434819,260619.000,45191,1,TH,1,100,16126
1574950029.559181,260724.000,45209,1,TH,1,100,16150
1574950029.688282,260833.000,45227,1,TH,1,100,16162
1574950029.824489,260948.000,45245,1,TH,1,100,16184
1574950029.965434,261067.000,45263,1,TH,1,100,16146
1574950030.101641,261182.000,45299,1,TH,1,100,16140
1574950030.236663,261296.000,45316,1,TH,1,100,16170
1574950030.377608,261415.000,45333,1,TH,1,100,16160
1574950030.515000,261531.000,45351,1,TH,1,100,16142
1574950030.651206,261646.000,45369,1,TH,1,100,16168
1574950030.792151,261765.000,45387,1,TH,1,100,16148
1574950030.929543,261881.000,45405,1,TH,1,100,16140
1574950031.065750,261996.000,45441,1,TH,1,100,16124
1574950031.204326,262113.000,45458,1,TH,1,100,16166
1574950031.338164,262226.000,45475,1,TH,1,100,16148
1574950031.463711,262332.000,45493,1,TH,1,100,16138
1574950031.595181,262443.000,45511,1,TH,1,100,16126
1574950031.721912,262550.000,45529,1,TH,1,100,16160
1574950031.854566,262662.000,45547,1,TH,1,100,16170
1574950031.993142,262779.000,45565,1,TH,1,100,16138
1574950032.130533,262895.000,45584,1,TH,1,100,16130
1574950032.256081,263001.000,45619,1,TH,1,100,16130
1574950032.382813,263108.000,45637,1,TH,1,100,16158
1574950032.517835,263222.000,45654,1,TH,1,100,16154
1574950032.655227,263338.000,45671,1,TH,1,100,16160
1574950032.791434,263453.000,45689,1,TH,1,100,16130
1574950032.914612,263557.000,45707,1,TH,1,100,16162
1574950033.047266,263669.000,45726,1,TH,1,100,16152
1574950033.185842,263786.000,45744,1,TH,1,100,16152
1574950033.319680,263899.000,45762,1,TH,1,100,16148
1574950033.449965,264009.000,45797,1,TH,1,100,16134
1574950033.576697,264116.000,45815,1,TH,1,100,16170
1574950033.708166,264227.000,45832,1,TH,1,100,16186
1574950033.845558,264343.000,45849,1,TH,1,100,16202
1574950033.988871,264464.000,45867,1,TH,1,100,16146
1574950034.125078,264579.000,45886,1,TH,1,100,16204
1574950034.262470,264695.000,45907,1,TH,1,100,16186
1574950034.405783,264816.000,45927,1,TH,1,100,16166
1574950034.541990,264931.000,45945,1,TH,1,100,16186
1574950034.679382,265047.000,45963,1,TH,1,100,16200
1574950034.822695,265168.000,45981,1,TH,1,100,16184
1574950034.958902,265283.000,46016,1,TH,1,100,16140
1574950035.096294,265399.000,46034,1,TH,1,100,16228
1574950035.238423,265519.000,46051,1,TH,1,100,16218
1574950035.371077,265631.000,46069,1,TH,1,100,16204
1574950035.506099,265745.000,46087,1,TH,1,100,16236
1574950035.632831,265852.000,46105,1,TH,1,100,16234
1574950035.763116,265962.000,46123,1,TH,1,100,16222
1574950035.900507,266078.000,46141,1,TH,1,100,16216
1574950036.037899,266194.000,46177,1,TH,1,100,16202
1574950036.168184,266304.000,46195,1,TH,1,100,16264
1574950036.293731,266410.000,46212,1,TH,1,100,16256
1574950036.426385,266522.000,46229,1,TH,1,100,16246
1574950036.563777,266638.000,46247,1,TH,1,100,16200
1574950036.702353,266755.000,46265,1,TH,1,100,16260
1574950036.831453,266864.000,46283,1,TH,1,100,16248
1574950036.955816,266969.000,46301,1,TH,1,100,16254
1574950037.092023,267084.000,46319,1,TH,1,100,16240
1574950037.230599,267201.000,46355,1,TH,1,100,16198
1574950037.363253,267313.000,46373,1,TH,1,100,16256
1574950037.489985,267420.000,46390,1,TH,1,100,16262
1574950037.619085,267529.000,46408,1,TH,1,100,16270
1574950037.752923,267642.000,46425,1,TH,1,100,16242
1574950037.886761,267755.000,46443,1,TH,1,100,16224
1574950038.024153,267871.000,46461,1,TH,1,100,16268
1574950038.157991,267984.000,46480,1,TH,1,100,16252
1574950038.291829,268097.000,46498,1,TH,1,100,16236
1574950038.429221,268213.000,46533,1,TH,1,100,16228
1574950038.563059,268326.000,46550,1,TH,1,100,16256
1574950038.698082,268440.000,46567,1,TH,1,100,16248
1574950038.834289,268555.000,46585,1,TH,1,100,16218
1574950038.970496,268670.000,46603,1,TH,1,100,16242
1574950039.104334,268783.000,46621,1,TH,1,100,16262
1574950039.240541,268898.000,46640,1,TH,1,100,16246
1574950039.373195,269010.000,46658,1,TH,1,100,16232
1574950039.502295,269119.000,46693,1,TH,1,100,16200
1574950039.631396,269228.000,46711,1,TH,1,100,16252
1574950039.766419,269342.000,46728,1,TH,1,100,16262
1574950039.895519,269451.000,46745,1,TH,1,100,16236
1574950040.034095,269568.000,46763,1,TH,1,100,16212
1574950040.169118,269682.000,46782,1,TH,1,100,16250
1574950040.302956,269795.000,46803,1,TH,1,100,16242
1574950040.427319,269900.000,46822,1,TH,1,100,16226
1574950040.558788,270011.000,46839,1,TH,1,100,16240
1574950040.697364,270128.000,46857,1,TH,1,100,16218
1574950040.838309,270247.000,46875,1,TH,1,100,16242
1574950040.962672,270352.000,46893,1,TH,1,100,16260
1574950041.089404,270459.000,46911,1,TH,1,100,16240
1574950041.226795,270575.000,46930,1,TH,1,100,16228
1574950041.360633,270688.000,46948,1,TH,1,100,16222
1574950041.498025,270804.000,46983,1,TH,1,100,16226
1574950041.622388,270909.000,47001,1,TH,1,100,16240
1574950041.751488,271018.000,47018,1,TH,1,100,16248
1574950041.886511,271132.000,47035,1,TH,1,100,16226
1574950042.027456,271251.000,47053,1,TH,1,100,16218
1574950042.164847,271367.000,47072,1,TH,1,100,16250
1574950042.301054,271482.000,47090,1,TH,1,100,16230
1574950042.441999,271601.000,47125,1,TH,1,100,16210
1574950042.579390,271717.000,47142,1,TH,1,100,16226
1574950042.715597,271832.000,47159,1,TH,1,100,16236
1574950042.855358,271950.000,47177,1,TH,1,100,16174
1574950042.991565,272065.000,47195,1,TH,1,100,16238
1574950043.125403,272178.000,47213,1,TH,1,100,16222
1574950043.267532,272298.000,47232,1,TH,1,100,16216
1574950043.402555,272412.000,47267,1,TH,1,100,16180
1574950043.528102,272518.000,47285,1,TH,1,100,16250
1574950043.659571,272629.000,47302,1,TH,1,100,16238
1574950043.785119,272735.000,47319,1,TH,1,100,16226
1574950043.920141,272849.000,47337,1,TH,1,100,16232
1574950044.055164,272963.000,47355,1,TH,1,100,16200
1574950044.193740,273080.000,47374,1,TH,1,100,16250
1574950044.319287,273186.000,47392,1,TH,1,100,16230
1574950044.447203,273294.000,47410,1,TH,1,100,16224
1574950044.583411,273409.000,47428,1,TH,1,100,16212
1574950044.720802,273525.000,47463,1,TH,1,100,16176
1574950044.857009,273640.000,47480,1,TH,1,100,16240
1574950044.980187,273744.000,47498,1,TH,1,100,16218
1574950045.110472,273854.000,47516,1,TH,1,100,16218
1574950045.250233,273972.000,47534,1,TH,1,100,16174
1574950045.382886,274084.000,47552,1,TH,1,100,16238
1574950045.514356,274195.000,47570,1,TH,1,100,16234
1574950045.638719,274300.000,47588,1,TH,1,100,16216
1574950045.772557,274413.000,47606,1,TH,1,100,16212
1574950045.901658,274522.000,47624,1,TH,1,100,16204
1574950046.034312,274634.000,47660,1,TH,1,100,16202
1574950046.168150,274747.000,47678,1,TH,1,100,16214
1574950046.299027,274857.500,47699,2,TH,1,100,16224
1574950046.429904,274968.000,47699,2,TH,1,100,16202
1574950046.564927,275082.000,47717,1,TH,1,100,16240
1574950046.692843,275190.000,47737,1,TH,1,100,16196
1574950046.830234,275306.000,47771,1,TH,1,100,16198
1574950046.967626,275422.000,47788,1,TH,1,100,16220
1574950047.102648,275536.000,47807,1,TH,1,100,16202
1574950047.244777,275656.000,47825,1,TH,1,100,16214
1574950047.372694,275764.000,47843,1,TH,1,100,16222
1574950047.499425,275871.000,47861,1,TH,1,100,16216
1574950047.634448,275985.000,47879,1,TH,1,100,16196
1574950047.764733,276095.000,47897,1,TH,1,100,16198
1574950047.900940,276210.000,47932,1,TH,1,100,16194
1574950048.035963,276324.000,47949,1,TH,1,100,16234
1574950048.167432,276435.000,47967,1,TH,1,100,16212
1574950048.292979,276541.000,47985,1,TH,1,100,16198
1574950048.426818,276654.000,48003,1,TH,1,100,16168
1574950048.561841,276768.000,48021,1,TH,1,100,16218
1574950048.700416,276885.000,48039,1,TH,1,100,16232
1574950048.830701,276995.000,48057,1,TH,1,100,16200
1574950048.955064,277100.000,48075,1,TH,1,100,16192
1574950049.090087,277214.000,48111,1,TH,1,100,16186
1574950049.228663,277331.000,48128,1,TH,1,100,16202
1574950049.362501,277444.000,48145,1,TH,1,100,16218
1574950049.488048,277550.000,48163,1,TH,1,100,16190
1574950049.619518,277661.000,48181,1,TH,1,100,16188
1574950049.756909,277777.000,48199,1,TH,1,100,16214
1574950049.890747,277890.000,48217,1,TH,1,100,16214
1574950050.029323,278007.000,48235,1,TH,1,100,16190
1574950050.164346,278121.000,48271,1,TH,1,100,16184
1574950050.300553,278236.000,48289,1,TH,1,100,16210
1574950050.436760,278351.000,48306,1,TH,1,100,16204
1574950050.571783,278465.000,48323,1,TH,1,100,16198
1574950050.702068,278575.000,48341,1,TH,1,100,16150
1574950050.835906,278688.000,48359,1,TH,1,100,16224
1574950050.969744,278801.000,48377,1,TH,1,100,16218
1574950051.103582,278914.000,48395,1,TH,1,100,16192
1574950051.243343,279032.000,48431,1,TH,1,100,16182
1574950051.375996,279144.000,48449,1,TH,1,100,16204
1574950051.506281,279254.000,48466,1,TH,1,100,16212
1574950051.634197,279362.000,48483,1,TH,1,100,16188
1574950051.765667,279473.000,48501,1,TH,1,100,16190
1574950051.903058,279589.000,48519,1,TH,1,100,16186
1574950052.041634,279706.000,48537,1,TH,1,100,16214
1574950052.165997,279811.000,48556,1,TH,1,100,16202
1574950052.295098,279920.000,48574,1,TH,1,100,16194
1574950052.434858,280038.000,48595,1,TH,1,100,16184
1574950052.568696,280151.000,48615,1,TH,1,100,16174
1574950052.704903,280266.000,48633,1,TH,1,100,16218
1574950052.831635,280373.000,48651,1,TH,1,100,16220
1574950052.960736,280482.000,48669,1,TH,1,100,16204
1574950053.096943,280597.000,48687,1,TH,1,100,16190
1574950053.235519,280714.000,48723,1,TH,1,100,16178
1574950053.363435,280822.000,48741,1,TH,1,100,16216
1574950053.490166,280929.000,48758,1,TH,1,100,16196
1574950053.622820,281041.000,48775,1,TH,1,100,16184
1574950053.753105,281151.000,48793,1,TH,1,100,16184
1574950053.878653,281257.000,48811,1,TH,1,100,16162
1574950054.010122,281368.000,48829,1,TH,1,100,16216
1574950054.139223,281477.000,48848,1,TH,1,100,16214
1574950054.265954,281584.000,48866,1,TH,1,100,16212
1574950054.396240,281694.000,48884,1,TH,1,100,16178
1574950054.524156,281802.000,48902,1,TH,1,100,16182
1574950054.650887,281909.000,48920,1,TH,1,100,16178
1574950054.783541,282021.000,48955,1,TH,1,100,16178
1574950054.919748,282136.000,48972,1,TH,1,100,16184
1574950055.053586,282249.000,48990,1,TH,1,100,16212
1574950055.196900,282370.000,49008,1,TH,1,100,16162
1574950055.333107,282485.000,49026,1,TH,1,100,16204
1574950055.461023,282593.000,49044,1,TH,1,100,16198
1574950055.588939,282701.000,49062,1,TH,1,100,16186
1574950055.723962,282815.000,49080,1,TH,1,100,16176
1574950055.861353,282931.000,49115,1,TH,1,100,16166
1574950055.994007,283043.000,49133,1,TH,1,100,16212
1574950056.119555,283149.000,49151,1,TH,1,100,16198
1574950056.252208,283261.000,49168,1,TH,1,100,16198
1574950056.390784,283378.000,49186,1,TH,1,100,16180
1574950056.525807,283492.000,49204,1,TH,1,100,16136
1574950056.654907,283601.000,49222,1,TH,1,100,16198
1574950056.780455,283707.000,49240,1,TH,1,100,16184
1574950056.911924,283818.000,49258,1,TH,1,100,16186
1574950057.049316,283934.000,49276,1,TH,1,100,16176
1574950057.186707,284050.000,49312,1,TH,1,100,16176
1574950057.313439,284157.000,49330,1,TH,1,100,16212
1574950057.442540,284266.000,49347,1,TH,1,100,16210
1574950057.577562,284380.000,49364,1,TH,1,100,16172
1574950057.716138,284497.000,49382,1,TH,1,100,16184
1574950057.844054,284605.000,49400,1,TH,1,100,16216
1574950057.979077,284719.000,49418,1,TH,1,100,16182
1574950058.116468,284835.000,49437,1,TH,1,100,16186
1574950058.244385,284943.000,49455,1,TH,1,100,16140
1574950058.377630,285055.500,49493,2,TH,1,100,16182
1574950058.510877,285168.000,49493,2,TH,1,100,16208
1574950058.637608,285275.000,49513,1,TH,1,100,16180
1574950058.773815,285390.000,49531,1,TH,1,100,16194
1574950058.911207,285506.000,49549,1,TH,1,100,16182
1574950059.046229,285620.000,49585,1,TH,1,100,16192
1574950059.188359,285740.000,49602,1,TH,1,100,16230
1574950059.317459,285849.000,49619,1,TH,1,100,16194
1574950059.444191,285956.000,49637,1,TH,1,100,16154
1574950059.576845,286068.000,49655,1,TH,1,100,16180
1574950059.711867,286182.000,49673,1,TH,1,100,16220
1574950059.849259,286298.000,49691,1,TH,1,100,16208
1574950059.977175,286406.000,49709,1,TH,1,100,16188
1574950060.103907,286513.000,49728,1,TH,1,100,16188
1574950060.240114,286628.000,49763,1,TH,1,100,16174
1574950060.378690,286745.000,49780,1,TH,1,100,16226
1574950060.511343,286857.000,49797,1,TH,1,100,16212
1574950060.636891,286963.000,49815,1,TH,1,100,16186
1574950060.768360,287074.000,49833,1,TH,1,100,16178
1574950060.901014,287186.000,49851,1,TH,1,100,16218
1574950061.038405,287302.000,49869,1,TH,1,100,16216
1574950061.168690,287412.000,49888,1,TH,1,100,16196
1574950061.297791,287521.000,49906,1,TH,1,100,16190
1574950061.423338,287627.000,49924,1,TH,1,100,16172
1574950061.555992,287739.000,49959,1,TH,1,100,16194
1574950061.686277,287849.000,49977,1,TH,1,100,16220
1574950061.811825,287955.000,49994,1,TH,1,100,16218
1574950061.945663,288068.000,50011,1,TH,1,100,16190
1574950062.075948,288178.000,50030,1,TH,1,100,16188
1574950062.201495,288284.000,50048,1,TH,1,100,16154
1574950062.335333,288397.000,50066,1,TH,1,100,16208
1574950062.460881,288503.000,50084,1,TH,1,100,16220
1574950062.591166,288613.000,50102,1,TH,1,100,16226
1574950062.727373,288728.000,50120,1,TH,1,100,16190
1574950062.861211,288841.000,50138,1,TH,1,100,16192
1574950062.996234,288955.000,50173,1,TH,1,100,16202
1574950063.137178,289074.000,50190,1,TH,1,100,16224
1574950063.268648,289185.000,50208,1,TH,1,100,16198
1574950063.402486,289298.000,50226,1,TH,1,100,16196
1574950063.526849,289403.000,50244,1,TH,1,100,16210
1574950063.659503,289515.000,50262,1,TH,1,100,16226
1574950063.795710,289630.000,50280,1,TH,1,100,16214
1574950063.934286,289747.000,50298,1,TH,1,100,16198
1574950064.059833,289853.000,50334,1,TH,1,100,16198
1574950064.188934,289962.000,50352,1,TH,1,100,16220
1574950064.327509,290079.000,50369,1,TH,1,100,16226
1574950064.462532,290193.000,50389,2,TH,1,100,16222
1574950064.597555,290307.000,50389,2,TH,1,100,16206
1574950064.721918,290412.000,50409,1,TH,1,100,16206
1574950064.851018,290521.000,50444,1,TH,1,100,16204
1574950064.987225,290636.000,50462,1,TH,1,100,16238
1574950065.125801,290753.000,50479,1,TH,1,100,16216
1574950065.258455,290865.000,50497,1,TH,1,100,16180
1574950065.384002,290971.000,50515,1,TH,1,100,16194
1574950065.517841,291084.000,50533,1,TH,1,100,16238
1574950065.650494,291196.000,50551,1,TH,1,100,16230
1574950065.774857,291301.000,50569,1,TH,1,100,16218
1574950065.907511,291413.000,50587,1,TH,1,100,16200
1574950066.038980,291524.000,50606,1,TH,1,100,16202
1574950066.164528,291630.000,50641,1,TH,1,100,16190
1574950066.295997,291741.000,50659,1,TH,1,100,16216
1574950066.426282,291851.000,50677,1,TH,1,100,16232
1574950066.551830,291957.000,50694,1,TH,1,100,16216
1574950066.684484,292069.000,50711,1,TH,1,100,16206
1574950066.819506,292183.000,50729,1,TH,1,100,16198
1574950066.953344,292296.000,50748,1,TH,1,100,16228
1574950067.096658,292417.000,50766,1,TH,1,100,16214
1574950067.234049,292533.000,50784,1,TH,1,100,16206
1574950067.360781,292640.000,50819,1,TH,1,100,16188
1574950067.488697,292748.000,50837,1,TH,1,100,16220
1574950067.623720,292862.000,50854,1,TH,1,100,16220
1574950067.761111,292978.000,50871,1,TH,1,100,16224
1574950067.896134,293092.000,50889,1,TH,1,100,16178
1574950068.019313,293196.000,50908,1,TH,1,100,16200
1574950068.151966,293308.000,50926,1,TH,1,100,16222
1574950068.290542,293425.000,50944,1,TH,1,100,16214
1574950068.425565,293539.000,50962,1,TH,1,100,16204
1574950068.555850,293649.000,50980,1,TH,1,100,16164
1574950068.681397,293755.000,51015,1,TH,1,100,16206
1574950068.812867,293866.000,51032,1,TH,1,100,16206
1574950068.950258,293982.000,51050,1,TH,1,100,16230
1574950069.088834,294099.000,51068,1,TH,1,100,16202
1574950069.216750,294207.000,51086,1,TH,1,100,16204
1574950069.349404,294319.000,51104,1,TH,1,100,16238
1574950069.489164,294437.000,51122,1,TH,1,100,16220
1574950069.617080,294545.000,51140,1,TH,1,100,16206
1574950069.750919,294658.000,51158,1,TH,1,100,16202
1574950069.889494,294775.000,51193,1,TH,1,100,16220
1574950070.018595,294884.000,51211,1,TH,1,100,16238
1574950070.151249,294996.000,51228,1,TH,1,100,16226
1574950070.289825,295113.000,51246,1,TH,1,100,16162
1574950070.415372,295219.000,51264,1,TH,1,100,16246
1574950070.542104,295326.000,51285,1,TH,1,100,16244
1574950070.678311,295441.000,51304,1,TH,1,100,16212
1574950070.815702,295557.000,51321,1,TH,1,100,16228
1574950070.950725,295671.000,51340,1,TH,1,100,16178
1574950071.091670,295790.000,51358,1,TH,1,100,16248
1574950071.229061,295906.000,51376,1,TH,1,100,16232
1574950071.368821,296024.000,51394,1,TH,1,100,16224
1574950071.493184,296129.000,51429,1,TH,1,100,16214
1574950071.619916,296236.000,51447,1,TH,1,100,16246
1574950071.756123,296351.000,51464,1,TH,1,100,16258
1574950071.891146,296465.000,51481,1,TH,1,100,16254
1574950072.023800,296577.000,51500,1,TH,1,100,16208
1574950072.149347,296683.000,51518,1,TH,1,100,16232
1574950072.282001,296795.000,51536,1,TH,1,100,16250
1574950072.417023,296909.000,51554,1,TH,1,100,16262
1574950072.554415,297025.000,51572,1,TH,1,100,16248
1574950072.684700,297135.000,51590,1,TH,1,100,16226
1574950072.807878,297239.000,51625,1,TH,1,100,16232
1574950072.941717,297352.000,51644,1,TH,1,100,16264
1574950073.080292,297469.000,51661,1,TH,1,100,16280
1574950073.218868,297586.000,51678,1,TH,1,100,16252
1574950073.356260,297702.000,51696,1,TH,1,100,16268
1574950073.498389,297822.000,51714,1,TH,1,100,16270
1574950073.635780,297938.000,51732,1,TH,1,100,16256
1574950073.771987,298053.000,51767,1,TH,1,100,16242
1574950073.915301,298174.000,51784,1,TH,1,100,16284
1574950074.051508,298289.000,51802,1,TH,1,100,16272
1574950074.187715,298404.000,51820,1,TH,1,100,16248
1574950074.326291,298521.000,51838,1,TH,1,100,16284
1574950074.458945,298633.000,51856,1,TH,1,100,16264
1574950074.588045,298742.000,51874,1,TH,1,100,16260
1574950074.715961,298850.000,51892,1,TH,1,100,16256
1574950074.848615,298962.000,51927,1,TH,1,100,16222
1574950074.983638,299076.000,51945,1,TH,1,100,16286
1574950075.125767,299196.000,51962,1,TH,1,100,16270
1574950075.261974,299311.000,51980,1,TH,1,100,16244
1574950075.395812,299424.000,51998,1,TH,1,100,16294
1574950075.520175,299529.000,52016,1,TH,1,100,16298
1574950075.652829,299641.000,52034,1,TH,1,100,16280
1574950075.789036,299756.000,52052,1,TH,1,100,16264
1574950075.929981,299875.000,52087,1,TH,1,100,16244
1574950076.054344,299980.000,52106,1,TH,1,100,16292
1574950076.181075,300087.000,52123,1,TH,1,100,16292
1574950076.318467,300203.000,52140,1,TH,1,100,16272
1574950076.452305,300316.000,52158,1,TH,1,100,16224
1574950076.589696,300432.000,52179,1,TH,1,100,16294
1574950076.714059,300537.000,52199,1,TH,1,100,16258
1574950076.843160,300646.000,52217,1,TH,1,100,16228
1574950076.978183,300760.000,52235,1,TH,1,100,16284
1574950077.116759,300877.000,52252,1,TH,1,100,16232
1574950077.251781,300991.000,52270,1,TH,1,100,16276
1574950077.389173,301107.000,52288,1,TH,1,100,16276
1574950077.528933,301225.000,52306,1,TH,1,100,16254
1574950077.665140,301340.000,52341,1,TH,1,100,16228
1574950077.802531,301456.000,52358,1,TH,1,100,16266
1574950077.943476,301575.000,52375,1,TH,1,100,16268
1574950078.079683,301690.000,52394,1,TH,1,100,16246
1574950078.217075,301806.000,52412,1,TH,1,100,16274
1574950078.359204,301926.000,52430,1,TH,1,100,16256
1574950078.494226,302040.000,52448,1,TH,1,100,16248
1574950078.619774,302146.000,52466,1,TH,1,100,16234
1574950078.751243,302257.000,52501,1,TH,1,100,16270
1574950078.875606,302362.000,52519,1,TH,1,100,16274
1574950079.008260,302474.000,52537,1,TH,1,100,16270
1574950079.146836,302591.000,52554,1,TH,1,100,16248
1574950079.286596,302709.000,52572,1,TH,1,100,16244
1574950079.412143,302815.000,52590,1,TH,1,100,16280
1574950079.540060,302923.000,52608,1,TH,1,100,16278
1574950079.675082,303037.000,52626,1,TH,1,100,16258
1574950079.812474,303153.000,52644,1,TH,1,100,16242
1574950079.948681,303268.000,52679,1,TH,1,100,16250
1574950080.071859,303372.000,52698,1,TH,1,100,16284
1574950080.203329,303483.000,52715,1,TH,1,100,16270
1574950080.343089,303601.000,52732,1,TH,1,100,16244
1574950080.476927,303714.000,52750,1,TH,1,100,16246
1574950080.608397,303825.000,52768,1,TH,1,100,16274
1574950080.732759,303930.000,52786,1,TH,1,100,16260
1574950080.864229,304041.000,52804,1,TH,1,100,16260
1574950081.001620,304157.000,52822,1,TH,1,100,16238
1574950081.143749,304277.000,52858,1,TH,1,100,16232
1574950081.279956,304392.000,52875,1,TH,1,100,16266
1574950081.417348,304508.000,52892,1,TH,1,100,16248
1574950081.560661,304629.000,52910,1,TH,1,100,16232
1574950081.696868,304744.000,52928,1,TH,1,100,16254
1574950081.834260,304860.000,52946,1,TH,1,100,16246
1574950081.977573,304981.000,52982,1,TH,1,100,16220
1574950082.113780,305096.000,52999,1,TH,1,100,16260
1574950082.249987,305211.000,53016,1,TH,1,100,16268
1574950082.389748,305329.000,53034,1,TH,1,100,16212
1574950082.522402,305441.000,53052,1,TH,1,100,16266
1574950082.659793,305557.000,53073,1,TH,1,100,16264
1574950082.786525,305664.000,53092,1,TH,1,100,16226
1574950082.920363,305777.000,53109,1,TH,1,100,16272
1574950083.047095,305884.000,53128,1,TH,1,100,16206
1574950083.182117,305998.000,53146,1,TH,1,100,16240
1574950083.317140,306112.000,53164,1,TH,1,100,16256
1574950083.455716,306229.000,53182,1,TH,1,100,16238
1574950083.581263,306335.000,53200,1,TH,1,100,16222
1574950083.709179,306443.000,53218,1,TH,1,100,16194
1574950083.843018,306556.000,53253,1,TH,1,100,16220
1574950083.981593,306673.000,53270,1,TH,1,100,16260
1574950084.114247,306785.000,53288,1,TH,1,100,16244
1574950084.239795,306891.000,53306,1,TH,1,100,16192
1574950084.371264,307002.000,53324,1,TH,1,100,16216
1574950084.505102,307115.000,53342,1,TH,1,100,16258
1574950084.642494,307231.000,53360,1,TH,1,100,16244
1574950084.773963,307342.000,53378,1,TH,1,100,16228
1574950084.897142,307446.000,53396,1,TH,1,100,16226
1574950085.032164,307560.000,53432,1,TH,1,100,16210
1574950085.168371,307675.000,53449,1,TH,1,100,16254
1574950085.302210,307788.000,53466,1,TH,1,100,16244
1574950085.434863,307900.000,53484,1,TH,1,100,16224
1574950085.571070,308015.000,53502,1,TH,1,100,16232
1574950085.703724,308127.000,53520,1,TH,1,100,16260
1574950085.837563,308240.000,53538,1,TH,1,100,16248
1574950085.972585,308354.000,53556,1,TH,1,100,16218
1574950086.107608,308468.000,53592,1,TH,1,100,16224
1574950086.240262,308580.000,53609,1,TH,1,100,16256
1574950086.380022,308698.000,53627,1,TH,1,100,16258
1574950086.517413,308814.000,53644,1,TH,1,100,16232
1574950086.644145,308921.000,53662,1,TH,1,100,16232
1574950086.783905,309039.000,53680,1,TH,1,100,16252
1574950086.909453,309145.000,53698,1,TH,1,100,16236
1574950087.038553,309254.000,53716,1,TH,1,100,16230
1574950087.173576,309368.000,53735,1,TH,1,100,16218
1574950087.306230,309480.000,53770,1,TH,1,100,16186
1574950087.443621,309596.000,53787,1,TH,1,100,16260
1574950087.582197,309713.000,53804,1,TH,1,100,16248
1574950087.707744,309819.000,53822,1,TH,1,100,16210
1574950087.835660,309927.000,53840,1,TH,1,100,16192
1574950087.974236,310044.000,53858,1,TH,1,100,16236
1574950088.108075,310157.000,53877,1,TH,1,100,16252
1574950088.244282,310272.000,53895,1,TH,1,100,16224
1574950088.371013,310379.000,53913,1,TH,1,100,16214
1574950088.498930,310487.000,53948,1,TH,1,100,16204
1574950088.636913,310603.500,53969,2,TH,1,100,16242
1574950088.774897,310720.000,53969,2,TH,1,100,16238
1574950088.903997,310829.000,53989,1,TH,1,100,16248
1574950089.030729,310936.000,54007,1,TH,1,100,16224
1574950089.165752,311050.000,54043,1,TH,1,100,16214
1574950089.303144,311166.000,54060,1,TH,1,100,16240
1574950089.439350,311281.000,54078,1,TH,1,100,16254
1574950089.580295,311400.000,54095,1,TH,1,100,16210
1574950089.717687,311516.000,54113,1,TH,1,100,16252
1574950089.853894,311631.000,54131,1,TH,1,100,16232
1574950089.994838,311750.000,54149,1,TH,1,100,16216
1574950090.132230,311866.000,54185,1,TH,1,100,16178
1574950090.267252,311980.000,54202,1,TH,1,100,16250
1574950090.407013,312098.000,54219,1,TH,1,100,16228
1574950090.542035,312212.000,54237,1,TH,1,100,16226
1574950090.678242,312327.000,54255,1,TH,1,100,16252
1574950090.821556,312448.000,54273,1,TH,1,100,16234
1574950090.958947,312564.000,54308,1,TH,1,100,16222
1574950091.084495,312670.000,54327,1,TH,1,100,16250
1574950091.214780,312780.000,54344,1,TH,1,100,16238
1574950091.349802,312894.000,54361,1,TH,1,100,16242
1574950091.487194,313010.000,54379,1,TH,1,100,16230
1574950091.619848,313122.000,54397,1,TH,1,100,16238
1574950091.745395,313228.000,54415,1,TH,1,100,16244
1574950091.878049,313340.000,54433,1,TH,1,100,16240
1574950092.016624,313457.000,54451,1,TH,1,100,16226
1574950092.151647,313571.000,54470,1,TH,1,100,16218
1574950092.281932,313681.000,54505,1,TH,1,100,16216
1574950092.411033,313790.000,54523,1,TH,1,100,16252
1574950092.543687,313902.000,54540,1,TH,1,100,16256
1574950092.681078,314018.000,54557,1,TH,1,100,16236
1574950092.819654,314135.000,54575,1,TH,1,100,16220
1574950092.941648,314238.000,54593,1,TH,1,100,16256
1574950093.070749,314347.000,54611,1,TH,1,100,16250
1574950093.203403,314459.000,54630,1,TH,1,100,16216
1574950093.337241,314572.000,54648,1,TH,1,100,16220
1574950093.466341,314681.000,54666,1,TH,1,100,16212
1574950093.598995,314793.000,54701,1,TH,1,100,16218
1574950093.732833,314906.000,54719,1,TH,1,100,16248
1574950093.860749,315014.000,54736,1,TH,1,100,16232
1574950093.993403,315126.000,54753,1,TH,1,100,16220
1574950094.126057,315238.000,54772,1,TH,1,100,16212
1574950094.252789,315345.000,54790,1,TH,1,100,16240
1574950094.390180,315461.000,54808,1,TH,1,100,16252
1574950094.527572,315577.000,54826,1,TH,1,100,16222
1574950094.662594,315691.000,54844,1,TH,1,100,16218
1574950094.803539,315810.000,54865,1,TH,1,100,16222
1574950094.939746,315925.000,54885,1,TH,1,100,16250
1574950095.077137,316041.000,54903,1,TH,1,100,16228
1574950095.203869,316148.000,54922,1,TH,1,100,16210
1574950095.330601,316255.000,54940,1,TH,1,100,16174
1574950095.466808,316370.000,54975,1,TH,1,100,16220
1574950095.601831,316484.000,54992,1,TH,1,100,16250
1574950095.735669,316597.000,55009,1,TH,1,100,16232
1574950095.862401,316704.000,55027,1,TH,1,100,16190
1574950095.995054,316816.000,55045,1,TH,1,100,16190
1574950096.130077,316930.000,55064,1,TH,1,100,16250
1574950096.267469,317046.000,55082,1,TH,1,100,16228
1574950096.400122,317158.000,55100,1,TH,1,100,16214
1574950096.523301,317262.000,55118,1,TH,1,100,16180
1574950096.657139,317375.000,55153,1,TH,1,100,16206
1574950096.795715,317492.000,55170,1,TH,1,100,16238
1574950096.930738,317606.000,55187,1,TH,1,100,16260
1574950097.057470,317713.000,55206,1,TH,1,100,16206
1574950097.190123,317825.000,55224,1,TH,1,100,16214
1574950097.320408,317935.000,55242,1,TH,1,100,16246
1574950097.447140,318042.000,55260,1,TH,1,100,16228
1574950097.582163,318156.000,55278,1,TH,1,100,16220
1574950097.711263,318265.000,55296,1,TH,1,100,16212
1574950097.837995,318372.000,55314,1,TH,1,100,16212
1574950097.973018,318486.000,55350,1,TH,1,100,16202
1574950098.103303,318596.000,55368,1,TH,1,100,16244
1574950098.231219,318704.000,55385,1,TH,1,100,16240
1574950098.360319,318813.000,55402,1,TH,1,100,16218
1574950098.495342,318927.000,55420,1,TH,1,100,16212
1574950098.624443,319036.000,55438,1,TH,1,100,16202
1574950098.763019,319153.000,55456,1,TH,1,100,16246
1574950098.899226,319268.000,55474,1,TH,1,100,16230
1574950099.031879,319380.000,55492,1,TH,1,100,16218
1574950099.174009,319500.000,55528,1,TH,1,100,16198
1574950099.298372,319605.000,55546,1,TH,1,100,16246
1574950099.428657,319715.000,55563,1,TH,1,100,16248
1574950099.563679,319829.000,55580,1,TH,1,100,16230
1574950099.698702,319943.000,55598,1,TH,1,100,16202
1574950099.833724,320057.000,55616,1,TH,1,100,16240
1574950099.960456,320164.000,55634,1,TH,1,100,16242
1574950100.090741,320274.000,55653,1,TH,1,100,16252
1574950100.226948,320389.000,55671,1,TH,1,100,16218
1574950100.365524,320506.000,55706,1,TH,1,100,16182
1574950100.492256,320613.000,55724,1,TH,1,100,16254
1574950100.618988,320720.000,55741,1,TH,1,100,16244
1574950100.754602,320834.500,55761,2,TH,1,100,16236
1574950100.890217,320949.000,55761,2,TH,1,100,16228
1574950101.029978,321067.000,55799,1,TH,1,100,16222
1574950101.157894,321175.000,55817,1,TH,1,100,16246
1574950101.289363,321286.000,55835,1,TH,1,100,16240
1574950101.414911,321392.000,55852,1,TH,1,100,16232
1574950101.546380,321503.000,55869,1,TH,1,100,16222
1574950101.677849,321614.000,55887,1,TH,1,100,16212
1574950101.802212,321719.000,55905,1,TH,1,100,16228
1574950101.933682,321830.000,55923,1,TH,1,100,16260
1574950102.065151,321941.000,55942,1,TH,1,100,16248
1574950102.188330,322045.000,55960,1,TH,1,100,16238
1574950102.319799,322156.000,55978,1,TH,1,100,16224
1574950102.445346,322262.000,55996,1,TH,1,100,16226
1574950102.580369,322376.000,56031,1,TH,1,100,16208
1574950102.717760,322492.000,56048,1,TH,1,100,16258
1574950102.852783,322606.000,56065,1,TH,1,100,16264
1574950102.986621,322719.000,56084,1,TH,1,100,16234
1574950103.129935,322840.000,56102,1,TH,1,100,16256
1574950103.267326,322956.000,56120,1,TH,1,100,16286
1574950103.395242,323064.000,56138,1,TH,1,100,16230
1574950103.524343,323173.000,56156,1,TH,1,100,16228
1574950103.658181,323286.000,56191,1,TH,1,100,16198
1574950103.793204,323400.000,56208,1,TH,1,100,16242
1574950103.930595,323516.000,56226,1,TH,1,100,16260
1574950104.053774,323620.000,56244,1,TH,1,100,16240
1574950104.185243,323731.000,56262,1,TH,1,100,16236
1574950104.325004,323849.000,56280,1,TH,1,100,16232
1574950104.458842,323962.000,56298,1,TH,1,100,16268
1574950104.591496,324074.000,56316,1,TH,1,100,16250
1574950104.715858,324179.000,56334,1,TH,1,100,16234
1574950104.847328,324290.000,56352,1,TH,1,100,16236
1574950104.984719,324406.000,56388,1,TH,1,100,16240
1574950105.124480,324524.000,56405,1,TH,1,100,16274
1574950105.257133,324636.000,56422,1,TH,1,100,16244
1574950105.386234,324745.000,56440,1,TH,1,100,16206
1574950105.525994,324863.000,56458,1,TH,1,100,16264
1574950105.658648,324975.000,56476,1,TH,1,100,16256
1574950105.790118,325086.000,56494,1,TH,1,100,16246
1574950105.929878,325204.000,56530,1,TH,1,100,16236
1574950106.063716,325317.000,56548,1,TH,1,100,16244
1574950106.196370,325429.000,56565,1,TH,1,100,16276
1574950106.336130,325547.000,56582,1,TH,1,100,16248
1574950106.465231,325656.000,56600,1,TH,1,100,16246
1574950106.591963,325763.000,56618,1,TH,1,100,16260
1574950106.726985,325877.000,56636,1,TH,1,100,16264
1574950106.857270,325987.000,56657,1,TH,1,100,16248
1574950106.991108,326100.000,56675,1,TH,1,100,16236
1574950107.130869,326218.000,56692,1,TH,1,100,16246
1574950107.267076,326333.000,56712,1,TH,1,100,16266
1574950107.405652,326450.000,56730,1,TH,1,100,16280
1574950107.532383,326557.000,56748,1,TH,1,100,16242
1574950107.659115,326664.000,56766,1,TH,1,100,16242
1574950107.792953,326777.000,56784,1,TH,1,100,16240
1574950107.931529,326894.000,56818,1,TH,1,100,16234
1574950108.065367,327007.000,56836,1,TH,1,100,16256
1574950108.190915,327113.000,56854,1,TH,1,100,16248
1574950108.322384,327224.000,56872,1,TH,1,100,16246
1574950108.456222,327337.000,56890,1,TH,1,100,16248
1574950108.593614,327453.000,56908,1,TH,1,100,16272
1574950108.726268,327565.000,56926,1,TH,1,100,16248
1574950108.849446,327669.000,56944,1,TH,1,100,16242
1574950108.983284,327782.000,56962,1,TH,1,100,16238
1574950109.121860,327899.000,56998,1,TH,1,100,16228
1574950109.261621,328017.000,57015,1,TH,1,100,16272
1574950109.394274,328129.000,57032,1,TH,1,100,16244
1574950109.536403,328249.000,57050,1,TH,1,100,16252
1574950109.676164,328367.000,57068,1,TH,1,100,16262
1574950109.808817,328479.000,57086,1,TH,1,100,16246
1574950109.953315,328601.000,57122,1,TH,1,100,16230
1574950110.093076,328719.000,57139,1,TH,1,100,16258
1574950110.226914,328832.000,57156,1,TH,1,100,16250
1574950110.370227,328953.000,57174,1,TH,1,100,16220
1574950110.506434,329068.000,57192,1,TH,1,100,16260
1574950110.637904,329179.000,57210,1,TH,1,100,16244
1574950110.778848,329298.000,57228,1,TH,1,100,16230
1574950110.903211,329403.000,57246,1,TH,1,100,16226
1574950111.031128,329511.000,57282,1,TH,1,100,16248
1574950111.168519,329627.000,57299,1,TH,1,100,16264
1574950111.304726,329742.000,57316,1,TH,1,100,16244
1574950111.438564,329855.000,57334,1,TH,1,100,16200
1574950111.562927,329960.000,57352,1,TH,1,100,16236
1574950111.695581,330072.000,57370,1,TH,1,100,16264
1574950111.832973,330188.000,57388,1,TH,1,100,16258
1574950111.972733,330306.000,57406,1,TH,1,100,16236
1574950112.099465,330413.000,57425,1,TH,1,100,16200
1574950112.226196,330520.000,57460,1,TH,1,100,16250
1574950112.363588,330636.000,57477,1,TH,1,100,16264
1574950112.497426,330749.000,57494,1,TH,1,100,16258
1574950112.637186,330867.000,57512,1,TH,1,100,16198
1574950112.761549,330972.000,57530,1,TH,1,100,16248
1574950112.888281,331079.000,57551,1,TH,1,100,16270
1574950113.024488,331194.000,57569,1,TH,1,100,16236
1574950113.165433,331313.000,57586,1,TH,1,100,16254
1574950113.302824,331429.000,57606,1,TH,1,100,16232
1574950113.439031,331544.000,57624,1,TH,1,100,16266
1574950113.579976,331663.000,57642,1,TH,1,100,16262
1574950113.717367,331779.000,57660,1,TH,1,100,16242
1574950113.853575,331894.000,57695,1,TH,1,100,16238
1574950113.994519,332013.000,57712,1,TH,1,100,16270
1574950114.131911,332129.000,57730,1,TH,1,100,16240
1574950114.264564,332241.000,57748,1,TH,1,100,16232
1574950114.403140,332358.000,57766,1,TH,1,100,16264
1574950114.538163,332472.000,57784,1,TH,1,100,16250
1574950114.674370,332587.000,57802,1,TH,1,100,16244
1574950114.808208,332700.000,57837,1,TH,1,100,16238
1574950114.940862,332812.000,57855,1,TH,1,100,16270
1574950115.066409,332918.000,57873,1,TH,1,100,16274
1574950115.196694,333028.000,57890,1,TH,1,100,16258
1574950115.330533,333141.000,57908,1,TH,1,100,16240
1574950115.466740,333256.000,57926,1,TH,1,100,16262
1574950115.600578,333369.000,57944,1,TH,1,100,16282
1574950115.724941,333474.000,57962,1,TH,1,100,16278
1574950115.856410,333585.000,57980,1,TH,1,100,16254
1574950115.996171,333703.000,58016,1,TH,1,100,16248
1574950116.131193,333817.000,58034,1,TH,1,100,16258
1574950116.262662,333928.000,58051,1,TH,1,100,16280
1574950116.389394,334035.000,58068,1,TH,1,100,16262
1574950116.522048,334147.000,58086,1,TH,1,100,16258
1574950116.659440,334263.000,58104,1,TH,1,100,16274
1574950116.799200,334381.000,58122,1,TH,1,100,16292
1574950116.921194,334484.000,58140,1,TH,1,100,16268
1574950117.050294,334593.000,58158,1,TH,1,100,16264
1574950117.182948,334705.000,58177,1,TH,1,100,16254
1574950117.316787,334818.000,58212,1,TH,1,100,16224
1574950117.444703,334926.000,58230,1,TH,1,100,16296
1574950117.577357,335038.000,58247,1,TH,1,100,16290
1574950117.710010,335150.000,58264,1,TH,1,100,16280
1574950117.837927,335258.000,58282,1,TH,1,100,16268
1574950117.970580,335370.000,58300,1,TH,1,100,16264
1574950118.103234,335482.000,58319,1,TH,1,100,16302
1574950118.229966,335589.000,58337,1,TH,1,100,16302
1574950118.367357,335705.000,58355,1,TH,1,100,16288
1574950118.504749,335821.000,58373,1,TH,1,100,16274
1574950118.638587,335934.000,58408,1,TH,1,100,16270
1574950118.778347,336052.000,58425,1,TH,1,100,16300
1574950118.915739,336168.000,58445,2,TH,1,100,16284
1574950119.053130,336284.000,58445,2,TH,1,100,16274
1574950119.181046,336392.000,58483,1,TH,1,100,16270
1574950119.308963,336500.000,58501,1,TH,1,100,16312
1574950119.442801,336613.000,58518,1,TH,1,100,16318
1574950119.577823,336727.000,58535,1,TH,1,100,16294
1574950119.712846,336841.000,58553,1,TH,1,100,16270
1574950119.838393,336947.000,58571,1,TH,1,100,16306
1574950119.969863,337058.000,58589,1,TH,1,100,16284
1574950120.103701,337171.000,58608,1,TH,1,100,16302
1574950120.241092,337287.000,58626,1,TH,1,100,16276
1574950120.374931,337400.000,58661,1,TH,1,100,16258
1574950120.496925,337503.000,58679,1,TH,1,100,16308
1574950120.630763,337616.000,58696,1,TH,1,100,16306
1574950120.769339,337733.000,58713,1,TH,1,100,16294
1574950120.903177,337846.000,58731,1,TH,1,100,16254
1574950121.029909,337953.000,58750,1,TH,1,100,16272
1574950121.164932,338067.000,58768,1,TH,1,100,16300
1574950121.295217,338177.000,58786,1,TH,1,100,16288
1574950121.421948,338284.000,58804,1,TH,1,100,16274
1574950121.556971,338398.000,58822,1,TH,1,100,16260
1574950121.686072,338507.000,58857,1,TH,1,100,16218
1574950121.813988,338615.000,58875,1,TH,1,100,16270
1574950121.950195,338730.000,58892,1,TH,1,100,16294
1574950122.080480,338840.000,58910,1,TH,1,100,16272
1574950122.210765,338950.000,58928,1,TH,1,100,16264
1574950122.338681,339058.000,58946,1,TH,1,100,16218
1574950122.476072,339174.000,58964,1,TH,1,100,16268
1574950122.603989,339282.000,58982,1,TH,1,100,16286
1574950122.742564,339399.000,59000,1,TH,1,100,16266
1574950122.879956,339515.000,59018,1,TH,1,100,16252
1574950123.012610,339627.000,59054,1,TH,1,100,16258
1574950123.136973,339732.000,59072,1,TH,1,100,16276
1574950123.269627,339844.000,59089,1,TH,1,100,16276
1574950123.405833,339959.000,59106,1,TH,1,100,16258
1574950123.545594,340077.000,59124,1,TH,1,100,16206
1574950123.671141,340183.000,59142,1,TH,1,100,16280
1574950123.799057,340291.000,59160,1,TH,1,100,16270
1574950123.936449,340407.000,59178,1,TH,1,100,16256
1574950124.070287,340520.000,59197,1,TH,1,100,16242
1574950124.207679,340636.000,59232,1,TH,1,100,16206
1574950124.332042,340741.000,59250,1,TH,1,100,16270
1574950124.459958,340849.000,59267,1,TH,1,100,16282
1574950124.597349,340965.000,59284,1,TH,1,100,16262
1574950124.734740,341081.000,59302,1,TH,1,100,16214
1574950124.873316,341198.000,59320,1,TH,1,100,16278
1574950125.010708,341314.000,59341,1,TH,1,100,16258
1574950125.151653,341433.000,59360,1,TH,1,100,16230
1574950125.289044,341549.000,59380,1,TH,1,100,16292
1574950125.426435,341665.000,59398,1,TH,1,100,16286
1574950125.568564,341785.000,59416,1,TH,1,100,16238
1574950125.707140,341902.000,59451,1,TH,1,100,16216
1574950125.844532,342018.000,59468,1,TH,1,100,16266
1574950125.987845,342139.000,59485,1,TH,1,100,16246
1574950126.125237,342255.000,59504,1,TH,1,100,16242
1574950126.263813,342372.000,59522,1,TH,1,100,16276
1574950126.396466,342484.000,59540,1,TH,1,100,16256
1574950126.527936,342595.000,59558,1,TH,1,100,16238
1574950126.653483,342701.000,59576,1,TH,1,100,16204
1574950126.783768,342811.000,59611,1,TH,1,100,16234
1574950126.918791,342925.000,59628,1,TH,1,100,16264
1574950127.056182,343041.000,59646,1,TH,1,100,16286
1574950127.195943,343159.000,59664,1,TH,1,100,16202
1574950127.332150,343274.000,59682,1,TH,1,100,16272
1574950127.461250,343383.000,59700,1,TH,1,100,16258
1574950127.589166,343491.000,59718,1,TH,1,100,16264
1574950127.723005,343604.000,59736,1,TH,1,100,16246
1574950127.860396,343720.000,59771,1,TH,1,100,16236
1574950127.998972,343837.000,59789,1,TH,1,100,16280
1574950128.122150,343941.000,59807,1,TH,1,100,16262
1574950128.252435,344051.000,59824,1,TH,1,100,16258
1574950128.392196,344169.000,59842,1,TH,1,100,16232
1574950128.526034,344282.000,59860,1,TH,1,100,16266
1574950128.659872,344395.000,59878,1,TH,1,100,16270
1574950128.784235,344500.000,59896,1,TH,1,100,16254
1574950128.915704,344611.000,59914,1,TH,1,100,16256
1574950129.053096,344727.000,59950,1,TH,1,100,16250
1574950129.195225,344847.000,59967,1,TH,1,100,16242
1574950129.331432,344962.000,59984,1,TH,1,100,16268
1574950129.468823,345078.000,60002,1,TH,1,100,16224
1574950129.609768,345197.000,60020,1,TH,1,100,16278
1574950129.745975,345312.000,60038,1,TH,1,100,16270
1574950129.883367,345428.000,60056,1,TH,1,100,16252
1574950130.025496,345548.000,60090,1,TH,1,100,16262
1574950130.161703,345663.000,60108,1,TH,1,100,16290
1574950130.296726,345777.000,60126,1,TH,1,100,16262
1574950130.436486,345895.000,60144,1,TH,1,100,16278
1574950130.566771,346005.000,60162,1,TH,1,100,16294
1574950130.693502,346112.000,60180,1,TH,1,100,16276
1574950130.827341,346225.000,60198,1,TH,1,100,16256
1574950130.956441,346334.000,60216,1,TH,1,100,16260
1574950131.093833,346450.000,60237,1,TH,1,100,16240
1574950131.230040,346565.000,60256,1,TH,1,100,16254
1574950131.366247,346680.000,60276,1,TH,1,100,16278
1574950131.504823,346797.000,60294,1,TH,1,100,16266
1574950131.632739,346905.000,60329,1,TH,1,100,16220
1574950131.759471,347012.000,60347,1,TH,1,100,16272
1574950131.893309,347125.000,60364,1,TH,1,100,16282
1574950132.031885,347242.000,60381,1,TH,1,100,16296
1574950132.165723,347355.000,60400,1,TH,1,100,16258
1574950132.291270,347461.000,60418,1,TH,1,100,16268
1574950132.421555,347571.000,60436,1,TH,1,100,16270
1574950132.555393,347684.000,60454,1,TH,1,100,16306
1574950132.692785,347800.000,60472,1,TH,1,100,16274
1574950132.826623,347913.000,60490,1,TH,1,100,16252
1574950132.949802,348017.000,60525,1,TH,1,100,16258
1574950133.080087,348127.000,60544,1,TH,1,100,16278
1574950133.213925,348240.000,60561,1,TH,1,100,16288
1574950133.346579,348352.000,60578,1,TH,1,100,16280
1574950133.475679,348461.000,60596,1,TH,1,100,16254
1574950133.609518,348574.000,60614,1,TH,1,100,16260
1574950133.742172,348686.000,60632,1,TH,1,100,16290
1574950133.874825,348798.000,60650,1,TH,1,100,16290
1574950134.008663,348911.000,60668,1,TH,1,100,16252
1574950134.143686,349025.000,60687,1,TH,1,100,16258
1574950134.278709,349139.000,60721,1,TH,1,100,16264
1574950134.422022,349260.000,60739,1,TH,1,100,16280
1574950134.558229,349375.000,60756,1,TH,1,100,16256
1574950134.690883,349487.000,60774,1,TH,1,100,16272
1574950134.817615,349594.000,60792,1,TH,1,100,16292
1574950134.953822,349709.000,60810,1,TH,1,100,16280
1574950135.081738,349817.000,60828,1,TH,1,100,16260
1574950135.219130,349933.000,60847,1,TH,1,100,16254
1574950135.354152,350047.000,60882,1,TH,1,100,16258
1574950135.487990,350160.000,60900,1,TH,1,100,16288
1574950135.612353,350265.000,60917,1,TH,1,100,16268
1574950135.743823,350376.000,60934,1,TH,1,100,16266
1574950135.881214,350492.000,60952,1,TH,1,100,16226
1574950136.020974,350610.000,60970,1,TH,1,100,16284
1574950136.148891,350718.000,60989,1,TH,1,100,16272
1574950136.275622,350825.000,61007,1,TH,1,100,16262
1574950136.413014,350941.000,61025,1,TH,1,100,16246
1574950136.546852,351054.000,61060,1,TH,1,100,16230
1574950136.686612,351172.000,61077,1,TH,1,100,16286
1574950136.812160,351278.000,61094,1,TH,1,100,16270
1574950136.941260,351387.000,61112,1,TH,1,100,16262
1574950137.075099,351500.000,61132,1,TH,1,100,16240
1574950137.217228,351620.000,61154,1,TH,1,100,16248
1574950137.358172,351739.000,61171,1,TH,1,100,16240
1574950137.492011,351852.000,61188,1,TH,1,100,16266
1574950137.634140,351972.000,61206,1,TH,1,100,16266
1574950137.773900,352090.000,61224,1,TH,1,100,16274
1574950137.907738,352203.000,61242,1,TH,1,100,16252
1574950138.048683,352322.000,61278,1,TH,1,100,16238
1574950138.184890,352437.000,61295,1,TH,1,100,16274
1574950138.317544,352549.000,61312,1,TH,1,100,16264
1574950138.456120,352666.000,61330,1,TH,1,100,16218
1574950138.595880,352784.000,61348,1,TH,1,100,16280
1574950138.730902,352898.000,61366,1,TH,1,100,16266
1574950138.865925,353012.000,61384,1,TH,1,100,16246
1574950138.998579,353124.000,61402,1,TH,1,100,16246
1574950139.125311,353231.000,61438,1,TH,1,100,16256
1574950139.255596,353341.000,61456,1,TH,1,100,16278
1574950139.388249,353453.000,61473,1,TH,1,100,16284
1574950139.525641,353569.000,61490,1,TH,1,100,16254
1574950139.660664,353683.000,61508,1,TH,1,100,16236
1574950139.785027,353788.000,61526,1,TH,1,100,16284
1574950139.916496,353899.000,61544,1,TH,1,100,16282
1574950140.056256,354017.000,61562,1,TH,1,100,16264
1574950140.190094,354130.000,61581,1,TH,1,100,16254
1574950140.322748,354242.000,61616,1,TH,1,100,16242
1574950140.447111,354347.000,61634,1,TH,1,100,16282
1574950140.579765,354459.000,61651,1,TH,1,100,16274
1574950140.717156,354575.000,61668,1,TH,1,100,16254
1574950140.856917,354693.000,61686,1,TH,1,100,16234
1574950140.983649,354800.000,61704,1,TH,1,100,16274
1574950141.110380,354907.000,61722,1,TH,1,100,16282
1574950141.245403,355021.000,61741,1,TH,1,100,16244
1574950141.381610,355136.000,61759,1,TH,1,100,16252
1574950141.508342,355243.000,61777,1,TH,1,100,16220
1574950141.643364,355357.000,61812,1,TH,1,100,16246
1574950141.779571,355472.000,61829,1,TH,1,100,16266
1574950141.905119,355578.000,61847,1,TH,1,100,16260
1574950142.040141,355692.000,61864,1,TH,1,100,16210
1574950142.173980,355805.000,61883,1,TH,1,100,16244
1574950142.300711,355912.000,61901,1,TH,1,100,16284
1574950142.435734,356026.000,61919,1,TH,1,100,16274
1574950142.573125,356142.000,61937,1,TH,1,100,16254
1574950142.706964,356255.000,61955,1,TH,1,100,16236
1574950142.846724,356373.000,61989,1,TH,1,100,16264
1574950142.979378,356485.000,62006,1,TH,1,100,16282
1574950143.107294,356593.000,62028,2,TH,1,100,16250
1574950143.235210,356701.000,62028,2,TH,1,100,16256
1574950143.371417,356816.000,62048,1,TH,1,100,16268
1574950143.508809,356932.000,62083,1,TH,1,100,16254
1574950143.640278,357043.000,62100,1,TH,1,100,16286
1574950143.764641,357148.000,62117,1,TH,1,100,16264
1574950143.899663,357262.000,62135,1,TH,1,100,16256
1574950144.038239,357379.000,62153,1,TH,1,100,16240
1574950144.173262,357493.000,62172,1,TH,1,100,16284
1574950144.298810,357599.000,62190,1,TH,1,100,16266
1574950144.427910,357708.000,62208,1,TH,1,100,16260
1574950144.560564,357820.000,62226,1,TH,1,100,16258
1574950144.699140,357937.000,62261,1,TH,1,100,16248
1574950144.831794,358049.000,62278,1,TH,1,100,16288
1574950144.962079,358159.000,62296,1,TH,1,100,16282
1574950145.088810,358266.000,62314,1,TH,1,100,16264
1574950145.223833,358380.000,62332,1,TH,1,100,16228
1574950145.354118,358490.000,62350,1,TH,1,100,16258
1574950145.482034,358598.000,62368,1,TH,1,100,16284
1574950145.618241,358713.000,62386,1,TH,1,100,16280
1574950145.747342,358822.000,62404,1,TH,1,100,16262
1574950145.876442,358931.000,62422,1,TH,1,100,16258
1574950146.015018,359048.000,62458,1,TH,1,100,16250
1574950146.145303,359158.000,62476,1,TH,1,100,16284
1574950146.276772,359269.000,62493,1,TH,1,100,16284
1574950146.403504,359376.000,62510,1,TH,1,100,16264
1574950146.537343,359489.000,62528,1,TH,1,100,16262
1574950146.671181,359602.000,62546,1,TH,1,100,16290
1574950146.814494,359723.000,62564,1,TH,1,100,16290
1574950146.950701,359838.000,62582,1,TH,1,100,16270
1574950147.086908,359953.000,62618,1,TH,1,100,16228
1574950147.211271,360058.000,62636,1,TH,1,100,16290
1574950147.343925,360170.000,62653,1,TH,1,100,16264
1574950147.478948,360284.000,62670,1,TH,1,100,16302
1574950147.618708,360402.000,62688,1,TH,1,100,16240
1574950147.745440,360509.000,62706,1,TH,1,100,16284
1574950147.872172,360616.000,62724,1,TH,1,100,16292
