34740,5363,4,EA,1,100,0.605573
34740,5363,4,EA,1,100,0.605628
34740,5363,4,EA,1,100,0.605575
34740,5363,4,EA,1,100,0.605678
34790,5381,2,EA,1,100,0.605424
34841,5381,2,EA,1,100,0.605700
34891,5399,2,EA,1,100,0.605237
34942,5399,2,EA,1,100,0.605396
34992,5418,2,EA,1,100,0.605432
35043,5418,2,EA,1,100,0.605471
35093,5436,2,EA,1,100,0.605326
35144,5436,2,EA,1,100,0.605455
35194,5454,2,EA,1,100,0.605309
35245,5454,2,EA,1,100,0.605585
35295,5472,2,EA,1,100,0.605249
35346,5472,2,EA,1,100,0.605060
35396,5490,2,EA,1,100,0.605354
35447,5490,2,EA,1,100,0.605591
35497,5508,2,EA,1,100,0.604983
35548,5508,2,EA,1,100,0.605223
35598,5526,2,EA,1,100,0.605573
35649,5526,2,EA,1,100,0.605142
35699,5545,2,EA,1,100,0.604864
35750,5545,2,EA,1,100,0.605215
35783,5563,3,EA,1,100,0.605042
35817,5563,3,EA,1,100,0.605138
35851,5563,3,EA,1,100,0.604891
35901,5581,2,EA,1,100,0.605042
35952,5581,2,EA,1,100,0.604790
36002,5599,2,EA,1,100,0.604882
36053,5599,2,EA,1,100,0.604804
36103,5617,2,EA,1,100,0.604687
36154,5617,2,EA,1,100,0.604967
36204,5635,2,EA,1,100,0.604750
36255,5635,2,EA,1,100,0.604973
36305,5653,2,EA,1,100,0.604631
36356,5653,2,EA,1,100,0.604792
36406,5671,2,EA,1,100,0.604679
36457,5671,2,EA,1,100,0.604592
36507,5690,2,EA,1,100,0.604512
36558,5690,2,EA,1,100,0.604653
36608,5708,2,EA,1,100,0.604715
36659,5708,2,EA,1,100,0.604576
36709,5726,2,EA,1,100,0.604234
36760,5726,2,EA,1,100,0.604274
36810,5744,2,EA,1,100,0.604806
36861,5744,2,EA,1,100,0.604300
36911,5762,2,EA,1,100,0.603984
36962,5762,2,EA,1,100,0.604002
37001,5783,4,EA,1,100,0.604343
37041,5783,4,EA,1,100,0.604226
37080,5783,4,EA,1,100,0.603859
37120,5783,4,EA,1,100,0.604101
37170,5804,2,EA,1,100,0.604137
37221,5804,2,EA,1,100,0.604180
37271,5822,2,EA,1,100,0.604451
37322,5822,2,EA,1,100,0.604107
37372,5840,2,EA,1,100,0.604002
37423,5840,2,EA,1,100,0.604071
37473,5858,2,EA,1,100,0.604395
37524,5858,2,EA,1,100,0.604047
37574,5876,2,EA,1,100,0.603819
37625,5876,2,EA,1,100,0.603891
37675,5894,2,EA,1,100,0.603942
37726,5894,2,EA,1,100,0.603855
37776,5912,2,EA,1,100,0.603704
37827,5912,2,EA,1,100,0.603724
37877,5930,2,EA,1,100,0.603861
37928,5930,2,EA,1,100,0.603444
37978,5949,2,EA,1,100,0.603565
38029,5949,2,EA,1,100,0.603747
38079,5967,2,EA,1,100,0.603906
38130,5967,2,EA,1,100,0.603654
38180,5985,2,EA,1,100,0.603392
38231,5985,2,EA,1,100,0.603450
38281,6003,2,EA,1,100,0.603960
38332,6003,2,EA,1,100,0.603747
38382,6021,2,EA,1,100,0.603303
38433,6021,2,EA,1,100,0.603203
38483,6039,2,EA,1,100,0.603509
38534,6039,2,EA,1,100,0.603765
38584,6057,2,EA,1,100,0.602947
38635,6057,2,EA,1,100,0.603412
38668,6076,3,EA,1,100,0.603638
38702,6076,3,EA,1,100,0.603934
38736,6076,3,EA,1,100,0.603289
38786,6094,2,EA,1,100,0.603213
38837,6094,2,EA,1,100,0.603859
38887,6112,2,EA,1,100,0.603831
38938,6112,2,EA,1,100,0.603398
38988,6130,2,EA,1,100,0.603452
39039,6130,2,EA,1,100,0.603610
39089,6148,2,EA,1,100,0.603710
39140,6148,2,EA,1,100,0.603454
39190,6166,2,EA,1,100,0.603485
39241,6166,2,EA,1,100,0.603362
39291,6184,2,EA,1,100,0.603926
39342,6184,2,EA,1,100,0.603285
39392,6202,2,EA,1,100,0.603444
39443,6202,2,EA,1,100,0.603547
39493,6221,2,EA,1,100,0.603716
39544,6221,2,EA,1,100,0.603279
39594,6239,2,EA,1,100,0.603491
39645,6239,2,EA,1,100,0.603322
39695,6257,2,EA,1,100,0.603642
39746,6257,2,EA,1,100,0.603612
39796,6275,2,EA,1,100,0.603172
39847,6275,2,EA,1,100,0.603336
39897,6293,2,EA,1,100,0.603817
39948,6293,2,EA,1,100,0.603499
39998,6311,2,EA,1,100,0.602876
40049,6311,2,EA,1,100,0.603195
40099,6329,2,EA,1,100,0.603690
40150,6329,2,EA,1,100,0.603640
40187,6348,4,EA,1,100,0.603144
40224,6348,4,EA,1,100,0.603243
40261,6348,4,EA,1,100,0.602935
40299,6348,4,EA,1,100,0.602995
40349,6366,2,EA,1,100,0.603088
40400,6366,2,EA,1,100,0.603219
40450,6384,2,EA,1,100,0.602919
40501,6384,2,EA,1,100,0.602852
40551,6402,2,EA,1,100,0.602917
40602,6402,2,EA,1,100,0.603185
40652,6420,2,EA,1,100,0.602812
40703,6420,2,EA,1,100,0.602723
40753,6438,2,EA,1,100,0.602826
40804,6438,2,EA,1,100,0.602995
40854,6456,2,EA,1,100,0.602647
40905,6456,2,EA,1,100,0.602494
40955,6475,2,EA,1,100,0.602844
41006,6475,2,EA,1,100,0.602683
41056,6493,2,EA,1,100,0.602445
41107,6493,2,EA,1,100,0.602653
41157,6511,2,EA,1,100,0.602413
41208,6511,2,EA,1,100,0.602409
41258,6529,2,EA,1,100,0.602292
41309,6529,2,EA,1,100,0.602270
41359,6547,2,EA,1,100,0.602727
41410,6547,2,EA,1,100,0.602198
41460,6565,2,EA,1,100,0.602484
41511,6565,2,EA,1,100,0.602385
41561,6583,2,EA,1,100,0.602665
41612,6583,2,EA,1,100,0.602582
41662,6602,2,EA,1,100,0.602516
41713,6602,2,EA,1,100,0.602816
41746,6620,3,EA,1,100,0.602915
41780,6620,3,EA,1,100,0.602909
41814,6620,3,EA,1,100,0.603386
41864,6638,2,EA,1,100,0.603203
41915,6638,2,EA,1,100,0.603497
41965,6656,2,EA,1,100,0.603797
42016,6656,2,EA,1,100,0.603660
42066,6674,2,EA,1,100,0.604135
42117,6674,2,EA,1,100,0.604341
42167,6692,2,EA,1,100,0.604298
42218,6692,2,EA,1,100,0.604750
42268,6710,2,EA,1,100,0.604844
42319,6710,2,EA,1,100,0.605309
42369,6728,2,EA,1,100,0.605779
42420,6728,2,EA,1,100,0.605676
42470,6747,2,EA,1,100,0.605958
42521,6747,2,EA,1,100,0.606595
42571,6765,2,EA,1,100,0.606780
42622,6765,2,EA,1,100,0.607122
42672,6783,2,EA,1,100,0.607626
42723,6783,2,EA,1,100,0.608017
42773,6801,2,EA,1,100,0.608595
42824,6801,2,EA,1,100,0.609046
42874,6819,2,EA,1,100,0.609042
42925,6819,2,EA,1,100,0.609352
42975,6837,2,EA,1,100,0.609581
43026,6837,2,EA,1,100,0.610204
43076,6855,2,EA,1,100,0.610053
43127,6855,2,EA,1,100,0.610419
43177,6874,2,EA,1,100,0.610629
43228,6874,2,EA,1,100,0.611157
43278,6892,2,EA,1,100,0.611138
43329,6892,2,EA,1,100,0.611408
43362,6910,3,EA,1,100,0.611471
43396,6910,3,EA,1,100,0.611684
43430,6910,3,EA,1,100,0.611666
43480,6928,2,EA,1,100,0.611763
43531,6928,2,EA,1,100,0.612196
43581,6946,2,EA,1,100,0.611942
43632,6946,2,EA,1,100,0.612331
43682,6964,2,EA,1,100,0.612083
43733,6964,2,EA,1,100,0.612419
43783,6982,2,EA,1,100,0.612283
43834,6982,2,EA,1,100,0.612589
43884,7000,2,EA,1,100,0.612502
43935,7000,2,EA,1,100,0.612603
43985,7019,2,EA,1,100,0.612853
44036,7019,2,EA,1,100,0.612681
44086,7037,2,EA,1,100,0.612309
44137,7037,2,EA,1,100,0.612548
44187,7055,2,EA,1,100,0.612633
44238,7055,2,EA,1,100,0.612651
44288,7073,2,EA,1,100,0.612490
44339,7073,2,EA,1,100,0.612710
44389,7091,2,EA,1,100,0.612786
44440,7091,2,EA,1,100,0.613332
44490,7109,2,EA,1,100,0.613046
44541,7109,2,EA,1,100,0.613012
44591,7127,2,EA,1,100,0.613340
44642,7127,2,EA,1,100,0.613749
44692,7146,2,EA,1,100,0.613578
44743,7146,2,EA,1,100,0.613974
44793,7164,2,EA,1,100,0.614109
44844,7164,2,EA,1,100,0.614424
44877,7182,3,EA,1,100,0.614563
44911,7182,3,EA,1,100,0.614430
44945,7182,3,EA,1,100,0.614768
44995,7200,2,EA,1,100,0.615209
45046,7200,2,EA,1,100,0.615161
45096,7218,2,EA,1,100,0.615185
45147,7218,2,EA,1,100,0.615634
45197,7236,2,EA,1,100,0.615709
45248,7236,2,EA,1,100,0.615805
45298,7254,2,EA,1,100,0.616404
45349,7254,2,EA,1,100,0.616335
45399,7273,2,EA,1,100,0.616732
45450,7273,2,EA,1,100,0.616716
45500,7291,2,EA,1,100,0.616694
45551,7291,2,EA,1,100,0.617024
45601,7309,2,EA,1,100,0.617304
45652,7309,2,EA,1,100,0.617314
45702,7327,2,EA,1,100,0.617225
45753,7327,2,EA,1,100,0.617260
45803,7345,2,EA,1,100,0.617838
45854,7345,2,EA,1,100,0.617884
45904,7363,2,EA,1,100,0.617910
45955,7363,2,EA,1,100,0.617878
46005,7381,2,EA,1,100,0.617896
46056,7381,2,EA,1,100,0.618011
46106,7399,2,EA,1,100,0.617838
46157,7399,2,EA,1,100,0.617964
46207,7418,2,EA,1,100,0.618095
46258,7418,2,EA,1,100,0.618039
46308,7436,2,EA,1,100,0.618168
46359,7436,2,EA,1,100,0.617993
46392,7454,3,EA,1,100,0.617896
46426,7454,3,EA,1,100,0.617566
46460,7454,3,EA,1,100,0.617662
46510,7472,2,EA,1,100,0.617868
46561,7472,2,EA,1,100,0.617826
46611,7490,2,EA,1,100,0.617719
46662,7490,2,EA,1,100,0.617838
46712,7508,2,EA,1,100,0.617405
46763,7508,2,EA,1,100,0.617396
46813,7526,2,EA,1,100,0.617485
46864,7526,2,EA,1,100,0.617405
46914,7545,2,EA,1,100,0.617489
46965,7545,2,EA,1,100,0.617463
47015,7563,2,EA,1,100,0.617241
47066,7563,2,EA,1,100,0.617266
47116,7581,2,EA,1,100,0.617217
47167,7581,2,EA,1,100,0.617374
47217,7599,2,EA,1,100,0.617358
47268,7599,2,EA,1,100,0.616756
47318,7617,2,EA,1,100,0.617046
47369,7617,2,EA,1,100,0.617010
47419,7635,2,EA,1,100,0.616869
47470,7635,2,EA,1,100,0.616959
47520,7653,2,EA,1,100,0.616758
47571,7653,2,EA,1,100,0.616625
47621,7671,2,EA,1,100,0.616615
47672,7671,2,EA,1,100,0.616796
47722,7690,2,EA,1,100,0.616681
47773,7690,2,EA,1,100,0.616637
47823,7708,2,EA,1,100,0.616730
47874,7708,2,EA,1,100,0.616502
47913,7729,4,EA,1,100,0.616244
47953,7729,4,EA,1,100,0.616565
47992,7729,4,EA,1,100,0.616289
48032,7729,4,EA,1,100,0.616174
48082,7749,2,EA,1,100,0.616335
48133,7749,2,EA,1,100,0.616559
48183,7767,2,EA,1,100,0.616128
48234,7767,2,EA,1,100,0.616103
48284,7785,2,EA,1,100,0.616093
48335,7785,2,EA,1,100,0.615701
48385,7804,2,EA,1,100,0.615844
48436,7804,2,EA,1,100,0.616109
48486,7822,2,EA,1,100,0.616017
48537,7822,2,EA,1,100,0.615880
48587,7840,2,EA,1,100,0.615854
48638,7840,2,EA,1,100,0.615956
48688,7858,2,EA,1,100,0.615968
48739,7858,2,EA,1,100,0.615705
48789,7876,2,EA,1,100,0.615676
48840,7876,2,EA,1,100,0.615733
48890,7894,2,EA,1,100,0.615819
48941,7894,2,EA,1,100,0.615652
48991,7912,2,EA,1,100,0.615568
49042,7912,2,EA,1,100,0.615475
49092,7930,2,EA,1,100,0.615664
49143,7930,2,EA,1,100,0.615354
49193,7949,2,EA,1,100,0.615392
49244,7949,2,EA,1,100,0.614784
49294,7967,2,EA,1,100,0.615276
49345,7967,2,EA,1,100,0.614977
49378,7985,3,EA,1,100,0.614905
49412,7985,3,EA,1,100,0.614631
49446,7985,3,EA,1,100,0.615032
49496,8003,2,EA,1,100,0.614915
49547,8003,2,EA,1,100,0.614768
49597,8021,2,EA,1,100,0.614552
49648,8021,2,EA,1,100,0.615010
49698,8039,2,EA,1,100,0.614947
49749,8039,2,EA,1,100,0.614917
49799,8057,2,EA,1,100,0.614589
49850,8057,2,EA,1,100,0.615110
49900,8076,2,EA,1,100,0.614792
49951,8076,2,EA,1,100,0.614710
50001,8094,2,EA,1,100,0.614347
50052,8094,2,EA,1,100,0.614323
50102,8112,2,EA,1,100,0.614303
50153,8112,2,EA,1,100,0.614714
50203,8130,2,EA,1,100,0.614460
50254,8130,2,EA,1,100,0.614591
50304,8148,2,EA,1,100,0.613934
50355,8148,2,EA,1,100,0.613745
50405,8166,2,EA,1,100,0.613292
50456,8166,2,EA,1,100,0.612115
50506,8184,2,EA,1,100,0.611741
50557,8184,2,EA,1,100,0.612323
50607,8202,2,EA,1,100,0.613016
50658,8202,2,EA,1,100,0.613078
50708,8221,2,EA,1,100,0.612085
50759,8221,2,EA,1,100,0.610720
50809,8239,2,EA,1,100,0.610446
50860,8239,2,EA,1,100,0.609745
50893,8257,3,EA,1,100,0.609795
50927,8257,3,EA,1,100,0.609557
50961,8257,3,EA,1,100,0.609817
51011,8275,2,EA,1,100,0.609505
51062,8275,2,EA,1,100,0.609338
51112,8293,2,EA,1,100,0.609581
51163,8293,2,EA,1,100,0.609410
51213,8311,2,EA,1,100,0.609056
51264,8311,2,EA,1,100,0.609285
51314,8329,2,EA,1,100,0.609618
51365,8329,2,EA,1,100,0.609263
51415,8348,2,EA,1,100,0.608532
51466,8348,2,EA,1,100,0.608619
51516,8366,2,EA,1,100,0.608838
51567,8366,2,EA,1,100,0.609054
51617,8384,2,EA,1,100,0.609507
51668,8384,2,EA,1,100,0.610109
51718,8402,2,EA,1,100,0.610575
51769,8402,2,EA,1,100,0.611088
51819,8420,2,EA,1,100,0.611030
51870,8420,2,EA,1,100,0.611209
51920,8438,2,EA,1,100,0.611354
51971,8438,2,EA,1,100,0.611406
52021,8456,2,EA,1,100,0.610438
52072,8456,2,EA,1,100,0.610168
52122,8475,2,EA,1,100,0.609823
52173,8475,2,EA,1,100,0.610234
52223,8493,2,EA,1,100,0.610506
52274,8493,2,EA,1,100,0.610597
52324,8511,2,EA,1,100,0.610738
52375,8511,2,EA,1,100,0.610683
52425,8529,2,EA,1,100,0.610423
52476,8529,2,EA,1,100,0.610282
52509,8547,3,EA,1,100,0.610613
52543,8547,3,EA,1,100,0.610796
52577,8547,3,EA,1,100,0.610703
52627,8565,2,EA,1,100,0.610355
52678,8565,2,EA,1,100,0.610135
52728,8583,2,EA,1,100,0.610444
52779,8583,2,EA,1,100,0.610242
52829,8601,2,EA,1,100,0.610067
52880,8601,2,EA,1,100,0.610671
52930,8620,2,EA,1,100,0.610881
52981,8620,2,EA,1,100,0.610615
53031,8638,2,EA,1,100,0.610752
53082,8638,2,EA,1,100,0.611072
53132,8656,2,EA,1,100,0.610641
53183,8656,2,EA,1,100,0.609716
53233,8674,2,EA,1,100,0.609580
53284,8674,2,EA,1,100,0.610411
53334,8692,2,EA,1,100,0.611358
53385,8692,2,EA,1,100,0.611636
53435,8710,2,EA,1,100,0.611251
53486,8710,2,EA,1,100,0.611574
53536,8728,2,EA,1,100,0.611404
53587,8728,2,EA,1,100,0.611052
53637,8747,2,EA,1,100,0.610881
53688,8747,2,EA,1,100,0.610911
53738,8765,2,EA,1,100,0.610730
53789,8765,2,EA,1,100,0.610740
53839,8783,2,EA,1,100,0.610379
53890,8783,2,EA,1,100,0.610333
53940,8801,2,EA,1,100,0.610435
53991,8801,2,EA,1,100,0.610109
54024,8819,3,EA,1,100,0.609795
54058,8819,3,EA,1,100,0.609906
54092,8819,3,EA,1,100,0.609789
54142,8837,2,EA,1,100,0.609535
54193,8837,2,EA,1,100,0.609729
54243,8855,2,EA,1,100,0.609370
54294,8855,2,EA,1,100,0.609626
54344,8874,2,EA,1,100,0.609636
54395,8874,2,EA,1,100,0.609167
54445,8892,2,EA,1,100,0.609016
54496,8892,2,EA,1,100,0.609142
54546,8910,2,EA,1,100,0.609618
54597,8910,2,EA,1,100,0.609509
54647,8928,2,EA,1,100,0.609690
54698,8928,2,EA,1,100,0.609483
54748,8946,2,EA,1,100,0.609324
54799,8946,2,EA,1,100,0.609040
54849,8964,2,EA,1,100,0.609036
54900,8964,2,EA,1,100,0.608762
54950,8982,2,EA,1,100,0.609358
55001,8982,2,EA,1,100,0.609078
55051,9000,2,EA,1,100,0.608945
55102,9000,2,EA,1,100,0.608889
55152,9019,2,EA,1,100,0.608905
55203,9019,2,EA,1,100,0.608905
55253,9037,2,EA,1,100,0.608619
55304,9037,2,EA,1,100,0.608490
55354,9055,2,EA,1,100,0.608574
55405,9055,2,EA,1,100,0.608570
55455,9073,2,EA,1,100,0.608290
55506,9073,2,EA,1,100,0.607759
55556,9091,2,EA,1,100,0.608012
55607,9091,2,EA,1,100,0.607890
55640,9109,3,EA,1,100,0.606605
55674,9109,3,EA,1,100,0.605974
55708,9109,3,EA,1,100,0.605926
55758,9127,2,EA,1,100,0.606484
55809,9127,2,EA,1,100,0.607720
55859,9146,2,EA,1,100,0.608200
55910,9146,2,EA,1,100,0.608095
55960,9164,2,EA,1,100,0.608174
56011,9164,2,EA,1,100,0.607781
56061,9182,2,EA,1,100,0.608043
56112,9182,2,EA,1,100,0.607831
56162,9200,2,EA,1,100,0.607404
56213,9200,2,EA,1,100,0.607243
56263,9218,2,EA,1,100,0.607062
56314,9218,2,EA,1,100,0.606496
56364,9236,2,EA,1,100,0.606025
56415,9236,2,EA,1,100,0.605726
56465,9254,2,EA,1,100,0.605209
56516,9254,2,EA,1,100,0.605859
56566,9272,2,EA,1,100,0.606806
56617,9272,2,EA,1,100,0.606447
56667,9291,2,EA,1,100,0.605976
56718,9291,2,EA,1,100,0.606601
56768,9309,2,EA,1,100,0.606558
56819,9309,2,EA,1,100,0.606723
56869,9327,2,EA,1,100,0.606397
56920,9327,2,EA,1,100,0.606157
56970,9345,2,EA,1,100,0.606272
57021,9345,2,EA,1,100,0.606317
57054,9363,3,EA,1,100,0.605849
57088,9363,3,EA,1,100,0.606081
57122,9363,3,EA,1,100,0.606292
57172,9381,2,EA,1,100,0.606327
57223,9381,2,EA,1,100,0.606059
57273,9399,2,EA,1,100,0.606492
57324,9399,2,EA,1,100,0.607036
57374,9418,2,EA,1,100,0.607092
57425,9418,2,EA,1,100,0.606941
57475,9436,2,EA,1,100,0.606717
57526,9436,2,EA,1,100,0.607032
57576,9454,2,EA,1,100,0.606941
57627,9454,2,EA,1,100,0.606766
57677,9472,2,EA,1,100,0.606794
57728,9472,2,EA,1,100,0.607245
57778,9490,2,EA,1,100,0.607217
57829,9490,2,EA,1,100,0.607521
57879,9508,2,EA,1,100,0.607652
57930,9508,2,EA,1,100,0.607930
57980,9526,2,EA,1,100,0.607980
58031,9526,2,EA,1,100,0.608234
58081,9545,2,EA,1,100,0.608236
58132,9545,2,EA,1,100,0.608268
58182,9563,2,EA,1,100,0.608385
58233,9563,2,EA,1,100,0.608323
58283,9581,2,EA,1,100,0.607861
58334,9581,2,EA,1,100,0.608079
58384,9599,2,EA,1,100,0.607994
58435,9599,2,EA,1,100,0.608158
58485,9617,2,EA,1,100,0.607745
58536,9617,2,EA,1,100,0.607749
58569,9635,3,EA,1,100,0.607781
58603,9635,3,EA,1,100,0.607449
58637,9635,3,EA,1,100,0.607273
58687,9653,2,EA,1,100,0.606931
58738,9653,2,EA,1,100,0.607432
58798,9674,3,EA,1,100,0.606709
58859,9674,3,EA,1,100,0.606429
58920,9674,3,EA,1,100,0.606160
58970,9695,2,EA,1,100,0.606029
59021,9695,2,EA,1,100,0.606017
59071,9713,2,EA,1,100,0.606611
59122,9713,2,EA,1,100,0.606685
59155,9731,3,EA,1,100,0.606572
59189,9731,3,EA,1,100,0.606719
59223,9731,3,EA,1,100,0.607209
59273,9749,2,EA,1,100,0.607163
59324,9749,2,EA,1,100,0.607678
59374,9767,2,EA,1,100,0.607215
59425,9767,2,EA,1,100,0.607142
59475,9785,2,EA,1,100,0.607356
59526,9785,2,EA,1,100,0.607078
59576,9804,2,EA,1,100,0.607285
59627,9804,2,EA,1,100,0.607483
59677,9822,2,EA,1,100,0.607354
59728,9822,2,EA,1,100,0.607310
59778,9840,2,EA,1,100,0.607622
59829,9840,2,EA,1,100,0.607646
59879,9858,2,EA,1,100,0.607714
59930,9858,2,EA,1,100,0.608063
59980,9876,2,EA,1,100,0.607998
60031,9876,2,EA,1,100,0.608147
60081,9894,2,EA,1,100,0.608411
60132,9894,2,EA,1,100,0.608349
60182,9912,2,EA,1,100,0.608407
60233,9912,2,EA,1,100,0.608476
60283,9930,2,EA,1,100,0.608564
60334,9930,2,EA,1,100,0.608488
60384,9949,2,EA,1,100,0.608508
60435,9949,2,EA,1,100,0.608794
60485,9967,2,EA,1,100,0.608730
60536,9967,2,EA,1,100,0.608724
60586,9985,2,EA,1,100,0.608593
60637,9985,2,EA,1,100,0.608645
60687,10003,2,EA,1,100,0.608806
60738,10003,2,EA,1,100,0.608613
60771,10021,3,EA,1,100,0.608867
60805,10021,3,EA,1,100,0.608675
60839,10021,3,EA,1,100,0.608788
60889,10039,2,EA,1,100,0.608814
60940,10039,2,EA,1,100,0.608957
60990,10057,2,EA,1,100,0.609416
61041,10057,2,EA,1,100,0.604866
61091,10076,2,EA,1,100,0.611912
61142,10076,2,EA,1,100,0.614963
61192,10094,2,EA,1,100,0.616405
61243,10094,2,EA,1,100,0.619566
61293,10112,2,EA,1,100,0.620277
61344,10112,2,EA,1,100,0.620530
61394,10130,2,EA,1,100,0.620575
61445,10130,2,EA,1,100,0.620808
61495,10148,2,EA,1,100,0.621173
61546,10148,2,EA,1,100,0.620897
61596,10166,2,EA,1,100,0.620478
61647,10166,2,EA,1,100,0.621125
61697,10184,2,EA,1,100,0.621922
61748,10184,2,EA,1,100,0.621884
61798,10203,2,EA,1,100,0.620331
61849,10203,2,EA,1,100,0.621650
61899,10221,2,EA,1,100,0.622875
61950,10221,2,EA,1,100,0.623153
62000,10239,2,EA,1,100,0.621022
62051,10239,2,EA,1,100,0.621816
62101,10257,2,EA,1,100,0.622835
62152,10257,2,EA,1,100,0.623340
62202,10275,2,EA,1,100,0.620947
62253,10275,2,EA,1,100,0.621471
62286,10293,3,EA,1,100,0.622905
62320,10293,3,EA,1,100,0.623499
62354,10293,3,EA,1,100,0.620923
62404,10311,2,EA,1,100,0.621578
62455,10311,2,EA,1,100,0.622970
62505,10329,2,EA,1,100,0.623534
62556,10329,2,EA,1,100,0.621233
62606,10348,2,EA,1,100,0.621854
62657,10348,2,EA,1,100,0.622716
62707,10366,2,EA,1,100,0.623691
62758,10366,2,EA,1,100,0.622196
62808,10384,2,EA,1,100,0.621842
62859,10384,2,EA,1,100,0.623078
62909,10402,2,EA,1,100,0.623862
62960,10402,2,EA,1,100,0.622859
63010,10420,2,EA,1,100,0.622196
63061,10420,2,EA,1,100,0.623137
63111,10438,2,EA,1,100,0.623936
63162,10438,2,EA,1,100,0.623413
63212,10456,2,EA,1,100,0.621685
63263,10456,2,EA,1,100,0.622132
63313,10475,2,EA,1,100,0.623622
63364,10475,2,EA,1,100,0.623213
63414,10493,2,EA,1,100,0.621568
63465,10493,2,EA,1,100,0.622071
63515,10511,2,EA,1,100,0.623346
63566,10511,2,EA,1,100,0.623300
63616,10529,2,EA,1,100,0.621542
63667,10529,2,EA,1,100,0.622093
63717,10547,2,EA,1,100,0.623181
63768,10547,2,EA,1,100,0.623227
63818,10565,2,EA,1,100,0.621467
63869,10565,2,EA,1,100,0.621878
63902,10583,3,EA,1,100,0.622756
63936,10583,3,EA,1,100,0.623534
63970,10583,3,EA,1,100,0.621779
64020,10601,2,EA,1,100,0.621957
64071,10601,2,EA,1,100,0.622796
64121,10620,2,EA,1,100,0.623477
64172,10620,2,EA,1,100,0.621906
64222,10638,2,EA,1,100,0.621955
64273,10638,2,EA,1,100,0.622674
64323,10656,2,EA,1,100,0.623141
64374,10656,2,EA,1,100,0.622059
64424,10674,2,EA,1,100,0.621739
64475,10674,2,EA,1,100,0.622206
64525,10692,2,EA,1,100,0.623127
64576,10692,2,EA,1,100,0.622198
64626,10710,2,EA,1,100,0.621707
64677,10710,2,EA,1,100,0.622090
64727,10728,2,EA,1,100,0.623109
64778,10728,2,EA,1,100,0.622500
64828,10747,2,EA,1,100,0.621866
64879,10747,2,EA,1,100,0.622055
64929,10765,2,EA,1,100,0.622698
64980,10765,2,EA,1,100,0.622398
65030,10783,2,EA,1,100,0.621389
65081,10783,2,EA,1,100,0.621505
65131,10801,2,EA,1,100,0.622069
65182,10801,2,EA,1,100,0.621773
65232,10819,2,EA,1,100,0.620381
65283,10819,2,EA,1,100,0.620845
65333,10837,2,EA,1,100,0.621489
65384,10837,2,EA,1,100,0.621727
65417,10855,3,EA,1,100,0.620001
65451,10855,3,EA,1,100,0.619989
65485,10855,3,EA,1,100,0.620704
65535,10874,2,EA,1,100,0.621588
65586,10874,2,EA,1,100,0.620253
65636,10892,2,EA,1,100,0.620682
65687,10892,2,EA,1,100,0.621258
65737,10910,2,EA,1,100,0.622039
65788,10910,2,EA,1,100,0.620424
65838,10928,2,EA,1,100,0.620456
65889,10928,2,EA,1,100,0.620696
65939,10946,2,EA,1,100,0.621233
65990,10946,2,EA,1,100,0.619950
66040,10964,2,EA,1,100,0.619769
66091,10964,2,EA,1,100,0.619946
66141,10982,2,EA,1,100,0.620730
66192,10982,2,EA,1,100,0.619249
66242,11000,2,EA,1,100,0.616820
66293,11000,2,EA,1,100,0.615890
66344,11019,3,EA,1,100,0.614575
66395,11019,3,EA,1,100,0.611072
66446,11019,3,EA,1,100,0.609519
66496,11037,2,EA,1,100,0.607833
66547,11037,2,EA,1,100,0.606468
66597,11055,2,EA,1,100,0.606518
66648,11055,2,EA,1,100,0.606669
66698,11073,2,EA,1,100,0.605654
66749,11073,2,EA,1,100,0.605068
66799,11091,2,EA,1,100,0.605412
66850,11091,2,EA,1,100,0.605138
66900,11109,2,EA,1,100,0.603980
66951,11109,2,EA,1,100,0.604208
66984,11127,3,EA,1,100,0.604268
67018,11127,3,EA,1,100,0.604308
67052,11127,3,EA,1,100,0.602965
67102,11146,2,EA,1,100,0.603372
67153,11146,2,EA,1,100,0.603887
67203,11164,2,EA,1,100,0.604623
67254,11164,2,EA,1,100,0.604061
67304,11182,2,EA,1,100,0.604071
67355,11182,2,EA,1,100,0.604443
67405,11200,2,EA,1,100,0.604599
67456,11200,2,EA,1,100,0.604147
67506,11218,2,EA,1,100,0.604407
67557,11218,2,EA,1,100,0.604709
67607,11236,2,EA,1,100,0.605255
67658,11236,2,EA,1,100,0.604856
67708,11254,2,EA,1,100,0.604315
67759,11254,2,EA,1,100,0.604321
67809,11273,2,EA,1,100,0.604949
67860,11273,2,EA,1,100,0.604560
67910,11291,2,EA,1,100,0.604137
67961,11291,2,EA,1,100,0.604312
68011,11309,2,EA,1,100,0.604478
68062,11309,2,EA,1,100,0.604296
68112,11327,2,EA,1,100,0.604216
68163,11327,2,EA,1,100,0.604043
68213,11345,2,EA,1,100,0.604159
68264,11345,2,EA,1,100,0.604141
68314,11363,2,EA,1,100,0.603467
68365,11363,2,EA,1,100,0.603944
68398,11381,3,EA,1,100,0.604296
68432,11381,3,EA,1,100,0.604550
68466,11381,3,EA,1,100,0.604433
68516,11400,2,EA,1,100,0.604627
68567,11400,2,EA,1,100,0.604850
68617,11418,2,EA,1,100,0.605209
68668,11418,2,EA,1,100,0.605237
68719,11436,2,EA,1,100,0.605507
68770,11436,2,EA,1,100,0.605769
68820,11454,2,EA,1,100,0.605801
68870,11454,2,EA,1,100,0.605757
68920,11472,2,EA,1,100,0.605738
68971,11472,2,EA,1,100,0.606137
69021,11490,2,EA,1,100,0.606111
69072,11490,2,EA,1,100,0.605813
69122,11508,2,EA,1,100,0.606319
69173,11508,2,EA,1,100,0.606290
69223,11526,2,EA,1,100,0.606099
69274,11526,2,EA,1,100,0.606141
69324,11545,2,EA,1,100,0.605944
69375,11545,2,EA,1,100,0.605632
69425,11563,2,EA,1,100,0.606105
69476,11563,2,EA,1,100,0.605998
69526,11581,2,EA,1,100,0.605843
69577,11581,2,EA,1,100,0.605982
69627,11599,2,EA,1,100,0.605884
69678,11599,2,EA,1,100,0.605942
69730,11620,3,EA,1,100,0.606101
69783,11620,3,EA,1,100,0.606017
69836,11620,3,EA,1,100,0.606361
69886,11640,2,EA,1,100,0.606550
69937,11640,2,EA,1,100,0.606315
69970,11658,3,EA,1,100,0.606214
70004,11658,3,EA,1,100,0.606268
70038,11658,3,EA,1,100,0.606452
70088,11677,2,EA,1,100,0.606796
70139,11677,2,EA,1,100,0.607356
70189,11695,2,EA,1,100,0.607402
70240,11695,2,EA,1,100,0.607743
70290,11713,2,EA,1,100,0.608216
70341,11713,2,EA,1,100,0.608381
70391,11731,2,EA,1,100,0.608238
70442,11731,2,EA,1,100,0.608687
70492,11749,2,EA,1,100,0.608409
70543,11749,2,EA,1,100,0.608540
70593,11767,2,EA,1,100,0.608532
70644,11767,2,EA,1,100,0.608216
70694,11785,2,EA,1,100,0.608832
70745,11785,2,EA,1,100,0.609982
70795,11804,2,EA,1,100,0.611340
70846,11804,2,EA,1,100,0.611449
70896,11822,2,EA,1,100,0.612111
70947,11822,2,EA,1,100,0.611445
70997,11840,2,EA,1,100,0.611642
71048,11840,2,EA,1,100,0.612299
71098,11858,2,EA,1,100,0.612403
71149,11858,2,EA,1,100,0.612123
71199,11876,2,EA,1,100,0.612309
71250,11876,2,EA,1,100,0.612417
71283,11894,3,EA,1,100,0.613112
71317,11894,3,EA,1,100,0.613050
71351,11894,3,EA,1,100,0.613354
71401,11912,2,EA,1,100,0.613209
71452,11912,2,EA,1,100,0.613507
71502,11931,2,EA,1,100,0.613632
71553,11931,2,EA,1,100,0.613634
71603,11949,2,EA,1,100,0.613610
71654,11949,2,EA,1,100,0.613870
71704,11967,2,EA,1,100,0.613993
71755,11967,2,EA,1,100,0.613934
71805,11985,2,EA,1,100,0.614039
71856,11985,2,EA,1,100,0.614339
71906,12003,2,EA,1,100,0.614343
71957,12003,2,EA,1,100,0.614631
72007,12021,2,EA,1,100,0.614492
72058,12021,2,EA,1,100,0.614911
72108,12039,2,EA,1,100,0.615046
72159,12039,2,EA,1,100,0.615125
72209,12057,2,EA,1,100,0.615715
72260,12057,2,EA,1,100,0.616115
72310,12076,2,EA,1,100,0.616075
72361,12076,2,EA,1,100,0.616742
72411,12094,2,EA,1,100,0.616538
72462,12094,2,EA,1,100,0.617360
72512,12112,2,EA,1,100,0.617155
72563,12112,2,EA,1,100,0.617687
72613,12130,2,EA,1,100,0.617473
72664,12130,2,EA,1,100,0.617688
72714,12148,2,EA,1,100,0.617614
72765,12148,2,EA,1,100,0.617993
72815,12166,2,EA,1,100,0.617797
72866,12166,2,EA,1,100,0.618069
72899,12184,3,EA,1,100,0.618255
72933,12184,3,EA,1,100,0.618055
72967,12184,3,EA,1,100,0.617985
73017,12203,2,EA,1,100,0.617868
73068,12203,2,EA,1,100,0.620833
73118,12221,2,EA,1,100,0.621836
73169,12221,2,EA,1,100,0.621981
73219,12239,2,EA,1,100,0.623701
73270,12239,2,EA,1,100,0.624778
73320,12257,2,EA,1,100,0.626813
73371,12257,2,EA,1,100,0.627324
73421,12275,2,EA,1,100,0.627552
73472,12275,2,EA,1,100,0.627880
73522,12293,2,EA,1,100,0.628688
73573,12293,2,EA,1,100,0.628652
73623,12311,2,EA,1,100,0.628128
73674,12311,2,EA,1,100,0.628911
73724,12329,2,EA,1,100,0.629318
73775,12329,2,EA,1,100,0.629330
73825,12348,2,EA,1,100,0.628186
73876,12348,2,EA,1,100,0.628740
73926,12366,2,EA,1,100,0.629622
73977,12366,2,EA,1,100,0.629616
74027,12384,2,EA,1,100,0.628227
74078,12384,2,EA,1,100,0.628666
74128,12402,2,EA,1,100,0.629518
74179,12402,2,EA,1,100,0.629397
74229,12420,2,EA,1,100,0.628041
74280,12420,2,EA,1,100,0.628249
74330,12438,2,EA,1,100,0.629135
74381,12438,2,EA,1,100,0.629858
74431,12456,2,EA,1,100,0.627783
74482,12456,2,EA,1,100,0.627836
74515,12475,3,EA,1,100,0.628791
74549,12475,3,EA,1,100,0.629520
74583,12475,3,EA,1,100,0.627743
74633,12493,2,EA,1,100,0.627653
74684,12493,2,EA,1,100,0.628490
74734,12511,2,EA,1,100,0.629199
74785,12511,2,EA,1,100,0.627624
74835,12529,2,EA,1,100,0.626988
74886,12529,2,EA,1,100,0.627620
74936,12547,2,EA,1,100,0.628402
74987,12547,2,EA,1,100,0.627193
75037,12565,2,EA,1,100,0.626474
75088,12565,2,EA,1,100,0.627121
75138,12583,2,EA,1,100,0.627878
75189,12583,2,EA,1,100,0.627207
75239,12602,2,EA,1,100,0.626086
75290,12602,2,EA,1,100,0.626772
75340,12620,2,EA,1,100,0.627014
75391,12620,2,EA,1,100,0.626448
75441,12638,2,EA,1,100,0.625294
75492,12638,2,EA,1,100,0.625121
75542,12656,2,EA,1,100,0.621256
75593,12656,2,EA,1,100,0.613467
75643,12675,2,EA,1,100,0.606564
75694,12675,2,EA,1,100,0.603708
75744,12694,2,EA,1,100,0.600486
75795,12694,2,EA,1,100,0.597182
75845,12713,2,EA,1,100,0.594280
75896,12713,2,EA,1,100,0.592471
75946,12731,2,EA,1,100,0.591353
75997,12731,2,EA,1,100,0.592113
76030,12750,3,EA,1,100,0.600737
76064,12750,3,EA,1,100,0.609855
76098,12750,3,EA,1,100,0.613858
76148,12768,2,EA,1,100,0.614405
76199,12768,2,EA,1,100,0.614174
76249,12786,2,EA,1,100,0.614826
76300,12786,2,EA,1,100,0.616881
76350,12804,2,EA,1,100,0.617574
76401,12804,2,EA,1,100,0.617703
76451,12822,2,EA,1,100,0.617882
76502,12822,2,EA,1,100,0.618631
76552,12840,2,EA,1,100,0.618895
76603,12840,2,EA,1,100,0.618782
76653,12858,2,EA,1,100,0.618508
76704,12858,2,EA,1,100,0.618770
76754,12877,2,EA,1,100,0.619008
76805,12877,2,EA,1,100,0.618464
76855,12895,2,EA,1,100,0.617628
76906,12895,2,EA,1,100,0.615715
76956,12913,2,EA,1,100,0.611098
77007,12913,2,EA,1,100,0.601614
77057,12932,2,EA,1,100,0.597013
77108,12932,2,EA,1,100,0.593960
77158,12951,2,EA,1,100,0.590818
77209,12951,2,EA,1,100,0.587353
77259,12970,2,EA,1,100,0.584266
77310,12970,2,EA,1,100,0.582453
77360,12988,2,EA,1,100,0.582108
77411,12988,2,EA,1,100,0.584815
77461,13007,2,EA,1,100,0.594645
77512,13007,2,EA,1,100,0.602238
77562,13025,2,EA,1,100,0.606452
77613,13025,2,EA,1,100,0.609398
77646,13043,3,EA,1,100,0.610172
77680,13043,3,EA,1,100,0.610629
77714,13043,3,EA,1,100,0.611821
77764,13061,2,EA,1,100,0.612770
77815,13061,2,EA,1,100,0.614965
77865,13079,2,EA,1,100,0.615443
77916,13079,2,EA,1,100,0.614305
77966,13097,2,EA,1,100,0.613799
78017,13097,2,EA,1,100,0.613229
78067,13115,2,EA,1,100,0.612822
78118,13115,2,EA,1,100,0.611414
78168,13133,2,EA,1,100,0.607118
78219,13133,2,EA,1,100,0.600083
78269,13153,2,EA,1,100,0.592409
78320,13153,2,EA,1,100,0.588521
78370,13172,2,EA,1,100,0.585057
78421,13172,2,EA,1,100,0.581754
78471,13191,2,EA,1,100,0.578588
78522,13191,2,EA,1,100,0.579603
78572,13209,2,EA,1,100,0.589154
78623,13209,2,EA,1,100,0.598782
78673,13227,2,EA,1,100,0.600469
78724,13227,2,EA,1,100,0.602627
78774,13245,2,EA,1,100,0.605052
78825,13245,2,EA,1,100,0.606877
78875,13263,2,EA,1,100,0.609056
78926,13263,2,EA,1,100,0.611018
78976,13282,2,EA,1,100,0.611799
79027,13282,2,EA,1,100,0.615008
79077,13300,2,EA,1,100,0.619233
79128,13300,2,EA,1,100,0.620450
79161,13318,3,EA,1,100,0.620978
79195,13318,3,EA,1,100,0.621632
79229,13318,3,EA,1,100,0.621886
79279,13336,2,EA,1,100,0.622386
79330,13336,2,EA,1,100,0.622788
79380,13354,2,EA,1,100,0.623024
79431,13354,2,EA,1,100,0.623101
79481,13372,2,EA,1,100,0.622945
79532,13372,2,EA,1,100,0.623642
79582,13390,2,EA,1,100,0.623646
79633,13390,2,EA,1,100,0.623485
79683,13408,2,EA,1,100,0.623636
79734,13408,2,EA,1,100,0.623882
79784,13427,2,EA,1,100,0.623888
79835,13427,2,EA,1,100,0.623606
79885,13445,2,EA,1,100,0.623518
79936,13445,2,EA,1,100,0.623771
79986,13463,2,EA,1,100,0.623765
80037,13463,2,EA,1,100,0.623650
80087,13481,2,EA,1,100,0.623441
80138,13481,2,EA,1,100,0.623578
80188,13499,2,EA,1,100,0.623667
80239,13499,2,EA,1,100,0.623526
80289,13517,2,EA,1,100,0.623213
80340,13517,2,EA,1,100,0.623127
80390,13535,2,EA,1,100,0.623024
80441,13535,2,EA,1,100,0.622825
80491,13554,2,EA,1,100,0.622851
80542,13554,2,EA,1,100,0.622498
80587,13575,4,EA,1,100,0.622680
80633,13575,4,EA,1,100,0.622619
80678,13575,4,EA,1,100,0.622055
80724,13575,4,EA,1,100,0.622313
80774,13595,2,EA,1,100,0.622154
80825,13595,2,EA,1,100,0.621880
80875,13613,2,EA,1,100,0.622178
80926,13613,2,EA,1,100,0.621934
80976,13631,2,EA,1,100,0.621477
81027,13631,2,EA,1,100,0.621531
81077,13649,2,EA,1,100,0.621530
81128,13649,2,EA,1,100,0.621264
81178,13667,2,EA,1,100,0.621270
81229,13667,2,EA,1,100,0.621008
81279,13686,2,EA,1,100,0.620756
81330,13686,2,EA,1,100,0.620957
81363,13704,3,EA,1,100,0.620524
81397,13704,3,EA,1,100,0.620599
81431,13704,3,EA,1,100,0.620543
81481,13722,2,EA,1,100,0.620406
81532,13722,2,EA,1,100,0.619922
81582,13740,2,EA,1,100,0.619946
81633,13740,2,EA,1,100,0.619834
81683,13758,2,EA,1,100,0.619735
81734,13758,2,EA,1,100,0.619664
81784,13776,2,EA,1,100,0.619578
81835,13776,2,EA,1,100,0.619233
81885,13794,2,EA,1,100,0.619473
81936,13794,2,EA,1,100,0.619179
81986,13813,2,EA,1,100,0.619223
82037,13813,2,EA,1,100,0.618863
82087,13831,2,EA,1,100,0.618833
82138,13831,2,EA,1,100,0.618452
82188,13849,2,EA,1,100,0.618484
82239,13849,2,EA,1,100,0.618694
82289,13867,2,EA,1,100,0.618575
82340,13867,2,EA,1,100,0.618142
82390,13885,2,EA,1,100,0.618234
82441,13885,2,EA,1,100,0.618007
82491,13903,2,EA,1,100,0.618077
82542,13903,2,EA,1,100,0.618115
82592,13921,2,EA,1,100,0.617787
82643,13921,2,EA,1,100,0.617678
82693,13940,2,EA,1,100,0.617495
82744,13940,2,EA,1,100,0.617487
82794,13958,2,EA,1,100,0.616792
82845,13958,2,EA,1,100,0.617215
82895,13976,2,EA,1,100,0.617189
82946,13976,2,EA,1,100,0.617008
82979,13994,3,EA,1,100,0.617016
83013,13994,3,EA,1,100,0.616816
83047,13994,3,EA,1,100,0.616591
83097,14012,2,EA,1,100,0.616951
83148,14012,2,EA,1,100,0.616597
83198,14030,2,EA,1,100,0.616577
83249,14030,2,EA,1,100,0.616355
83299,14048,2,EA,1,100,0.616351
83350,14048,2,EA,1,100,0.616115
83400,14066,2,EA,1,100,0.616053
83451,14066,2,EA,1,100,0.615932
83501,14085,2,EA,1,100,0.616206
83552,14085,2,EA,1,100,0.615757
83602,14103,2,EA,1,100,0.615692
83653,14103,2,EA,1,100,0.615715
83703,14121,2,EA,1,100,0.616055
83754,14121,2,EA,1,100,0.615777
83804,14139,2,EA,1,100,0.615566
83855,14139,2,EA,1,100,0.615453
83905,14157,2,EA,1,100,0.615453
83956,14157,2,EA,1,100,0.615167
84006,14175,2,EA,1,100,0.615167
84057,14175,2,EA,1,100,0.614828
84107,14193,2,EA,1,100,0.615018
84158,14193,2,EA,1,100,0.615294
84208,14212,2,EA,1,100,0.614915
84259,14212,2,EA,1,100,0.615139
84309,14230,2,EA,1,100,0.614810
84360,14230,2,EA,1,100,0.615110
84410,14248,2,EA,1,100,0.614939
84461,14248,2,EA,1,100,0.614319
84494,14266,3,EA,1,100,0.614279
84528,14266,3,EA,1,100,0.614548
84562,14266,3,EA,1,100,0.614200
84612,14284,2,EA,1,100,0.614156
84663,14284,2,EA,1,100,0.614277
84713,14302,2,EA,1,100,0.614182
84764,14302,2,EA,1,100,0.614166
84814,14320,2,EA,1,100,0.614214
84865,14320,2,EA,1,100,0.614303
84915,14338,2,EA,1,100,0.614091
84966,14338,2,EA,1,100,0.614561
85016,14357,2,EA,1,100,0.613902
85067,14357,2,EA,1,100,0.613864
85117,14375,2,EA,1,100,0.613848
85168,14375,2,EA,1,100,0.613688
85218,14393,2,EA,1,100,0.613582
85269,14393,2,EA,1,100,0.613678
85319,14411,2,EA,1,100,0.613741
85370,14411,2,EA,1,100,0.613795
85420,14429,2,EA,1,100,0.613713
85471,14429,2,EA,1,100,0.613829
85521,14447,2,EA,1,100,0.613282
85572,14447,2,EA,1,100,0.613511
85622,14465,2,EA,1,100,0.612957
85673,14465,2,EA,1,100,0.613257
85723,14484,2,EA,1,100,0.613042
85774,14484,2,EA,1,100,0.613360
85824,14502,2,EA,1,100,0.612790
85875,14502,2,EA,1,100,0.613026
85925,14520,2,EA,1,100,0.613215
85976,14520,2,EA,1,100,0.612959
86026,14538,2,EA,1,100,0.612607
86077,14538,2,EA,1,100,0.612556
86110,14556,3,EA,1,100,0.612341
86144,14556,3,EA,1,100,0.612605
86178,14556,3,EA,1,100,0.611958
86228,14574,2,EA,1,100,0.611854
86279,14574,2,EA,1,100,0.611767
86329,14592,2,EA,1,100,0.611809
86380,14592,2,EA,1,100,0.611688
86430,14611,2,EA,1,100,0.611622
86481,14611,2,EA,1,100,0.611604
86531,14629,2,EA,1,100,0.611362
86582,14629,2,EA,1,100,0.611275
86632,14647,2,EA,1,100,0.611296
86683,14647,2,EA,1,100,0.611203
86733,14665,2,EA,1,100,0.611561
86784,14665,2,EA,1,100,0.611358
86834,14683,2,EA,1,100,0.611283
86885,14683,2,EA,1,100,0.611567
86935,14701,2,EA,1,100,0.611882
86986,14701,2,EA,1,100,0.611995
87036,14719,2,EA,1,100,0.611888
87087,14719,2,EA,1,100,0.611688
87137,14737,2,EA,1,100,0.611709
87188,14737,2,EA,1,100,0.611922
87238,14756,2,EA,1,100,0.611765
87289,14756,2,EA,1,100,0.612166
87339,14774,2,EA,1,100,0.612305
87390,14774,2,EA,1,100,0.612575
87440,14792,2,EA,1,100,0.612385
87491,14792,2,EA,1,100,0.612339
87524,14810,3,EA,1,100,0.612714
87558,14810,3,EA,1,100,0.612992
87592,14810,3,EA,1,100,0.612504
87642,14828,2,EA,1,100,0.612297
87693,14828,2,EA,1,100,0.612623
87743,14846,2,EA,1,100,0.612657
87794,14846,2,EA,1,100,0.612681
87844,14864,2,EA,1,100,0.612232
87895,14864,2,EA,1,100,0.612498
87945,14883,2,EA,1,100,0.612496
87996,14883,2,EA,1,100,0.612480
88046,14901,2,EA,1,100,0.612510
88097,14901,2,EA,1,100,0.612673
88147,14919,2,EA,1,100,0.612629
88198,14919,2,EA,1,100,0.612272
88248,14937,2,EA,1,100,0.612121
88299,14937,2,EA,1,100,0.612093
88349,14955,2,EA,1,100,0.611928
88400,14955,2,EA,1,100,0.611920
88450,14973,2,EA,1,100,0.611968
88501,14973,2,EA,1,100,0.611978
88551,14991,2,EA,1,100,0.611872
88602,14991,2,EA,1,100,0.611922
88652,15010,2,EA,1,100,0.611781
88703,15010,2,EA,1,100,0.611801
88753,15028,2,EA,1,100,0.611582
88804,15028,2,EA,1,100,0.611465
88854,15046,2,EA,1,100,0.611163
88905,15046,2,EA,1,100,0.611028
88955,15064,2,EA,1,100,0.611207
89006,15064,2,EA,1,100,0.611038
89039,15082,3,EA,1,100,0.610760
89073,15082,3,EA,1,100,0.610637
89107,15082,3,EA,1,100,0.610550
89157,15100,2,EA,1,100,0.610484
89208,15100,2,EA,1,100,0.612327
89258,15118,2,EA,1,100,0.612975
89309,15118,2,EA,1,100,0.612212
89359,15136,2,EA,1,100,0.611606
89410,15136,2,EA,1,100,0.611273
89460,15155,2,EA,1,100,0.610981
89511,15155,2,EA,1,100,0.612035
89561,15173,2,EA,1,100,0.614258
89612,15173,2,EA,1,100,0.614387
89662,15191,2,EA,1,100,0.614262
89713,15191,2,EA,1,100,0.614287
89763,15209,2,EA,1,100,0.614275
89814,15209,2,EA,1,100,0.614154
89864,15227,2,EA,1,100,0.614041
89915,15227,2,EA,1,100,0.613721
89965,15245,2,EA,1,100,0.611652
90016,15245,2,EA,1,100,0.610289
90066,15263,2,EA,1,100,0.610689
90117,15263,2,EA,1,100,0.609475
90167,15282,2,EA,1,100,0.608860
90218,15282,2,EA,1,100,0.607392
90268,15300,2,EA,1,100,0.607253
90319,15300,2,EA,1,100,0.607213
90369,15318,2,EA,1,100,0.608266
90420,15318,2,EA,1,100,0.612150
90470,15336,2,EA,1,100,0.613773
90521,15336,2,EA,1,100,0.615106
90571,15354,2,EA,1,100,0.615312
90622,15354,2,EA,1,100,0.615523
90672,15372,2,EA,1,100,0.614843
90723,15372,2,EA,1,100,0.614033
90756,15390,3,EA,1,100,0.611048
90790,15390,3,EA,1,100,0.608963
90824,15390,3,EA,1,100,0.606605
90874,15408,2,EA,1,100,0.604510
90925,15408,2,EA,1,100,0.600141
90975,15427,2,EA,1,100,0.592548
91026,15427,2,EA,1,100,0.588723
91076,15446,2,EA,1,100,0.585379
91127,15446,2,EA,1,100,0.582479
91177,15465,2,EA,1,100,0.580038
91228,15465,2,EA,1,100,0.578090
91278,15484,2,EA,1,100,0.576994
91329,15484,2,EA,1,100,0.576859
91379,15502,2,EA,1,100,0.581405
91430,15502,2,EA,1,100,0.591527
91475,15523,4,EA,1,100,0.601283
91521,15523,4,EA,1,100,0.605463
91566,15523,4,EA,1,100,0.608556
91612,15523,4,EA,1,100,0.611888
91662,15544,2,EA,1,100,0.613253
91713,15544,2,EA,1,100,0.614424
91763,15562,2,EA,1,100,0.615556
91814,15562,2,EA,1,100,0.616732
91864,15580,2,EA,1,100,0.617993
91915,15580,2,EA,1,100,0.618381
91965,15598,2,EA,1,100,0.618609
92016,15598,2,EA,1,100,0.618694
92066,15616,2,EA,1,100,0.617251
92117,15616,2,EA,1,100,0.615241
92167,15634,2,EA,1,100,0.615020
92218,15634,2,EA,1,100,0.614552
92268,15652,2,EA,1,100,0.614905
92319,15652,2,EA,1,100,0.614502
92369,15670,2,EA,1,100,0.614458
92420,15670,2,EA,1,100,0.615515
92470,15689,2,EA,1,100,0.616178
92521,15689,2,EA,1,100,0.617088
92569,15707,3,EA,1,100,0.617723
92617,15707,3,EA,1,100,0.617155
92666,15707,3,EA,1,100,0.616690
92716,15725,2,EA,1,100,0.615574
92767,15725,2,EA,1,100,0.614005
92817,15743,2,EA,1,100,0.612192
92868,15743,2,EA,1,100,0.608873
92918,15761,2,EA,1,100,0.603591
92969,15761,2,EA,1,100,0.595571
93002,15780,3,EA,1,100,0.591462
93036,15780,3,EA,1,100,0.587394
93070,15780,3,EA,1,100,0.583285
93120,15800,2,EA,1,100,0.579136
93171,15800,2,EA,1,100,0.575873
93221,15819,2,EA,1,100,0.572489
93272,15819,2,EA,1,100,0.569508
93322,15838,2,EA,1,100,0.569768
93373,15838,2,EA,1,100,0.575498
93423,15856,2,EA,1,100,0.580116
93474,15856,2,EA,1,100,0.595027
93524,15874,2,EA,1,100,0.601269
93575,15874,2,EA,1,100,0.603066
93625,15892,2,EA,1,100,0.605577
93676,15892,2,EA,1,100,0.610264
93726,15910,2,EA,1,100,0.611016
93777,15910,2,EA,1,100,0.612230
93827,15928,2,EA,1,100,0.613227
93878,15928,2,EA,1,100,0.615483
93928,15947,2,EA,1,100,0.616726
93979,15947,2,EA,1,100,0.617125
94029,15965,2,EA,1,100,0.616569
94080,15965,2,EA,1,100,0.616611
94130,15983,2,EA,1,100,0.617431
94181,15983,2,EA,1,100,0.618375
94231,16001,2,EA,1,100,0.619058
94282,16001,2,EA,1,100,0.617733
94332,16019,2,EA,1,100,0.619084
94383,16019,2,EA,1,100,0.620742
94416,16037,3,EA,1,100,0.622410
94450,16037,3,EA,1,100,0.623254
94484,16037,3,EA,1,100,0.622178
94534,16055,2,EA,1,100,0.618496
94585,16055,2,EA,1,100,0.616708
94635,16074,2,EA,1,100,0.610361
94686,16074,2,EA,1,100,0.607469
94736,16092,2,EA,1,100,0.605368
94787,16092,2,EA,1,100,0.599690
94837,16111,2,EA,1,100,0.594362
94888,16111,2,EA,1,100,0.590657
94938,16130,2,EA,1,100,0.586668
94989,16130,2,EA,1,100,0.582962
95039,16149,2,EA,1,100,0.579095
95090,16149,2,EA,1,100,0.575631
95140,16168,2,EA,1,100,0.575200
95191,16168,2,EA,1,100,0.583105
95241,16186,2,EA,1,100,0.586068
95292,16186,2,EA,1,100,0.593120
95342,16204,2,EA,1,100,0.602482
95393,16204,2,EA,1,100,0.605988
95443,16223,2,EA,1,100,0.609086
95494,16223,2,EA,1,100,0.612832
95544,16241,2,EA,1,100,0.614635
95595,16241,2,EA,1,100,0.615459
95645,16259,2,EA,1,100,0.616611
95696,16259,2,EA,1,100,0.617769
95746,16277,2,EA,1,100,0.618736
95797,16277,2,EA,1,100,0.619644
95847,16295,2,EA,1,100,0.620345
95898,16295,2,EA,1,100,0.621026
95931,16313,3,EA,1,100,0.621669
95965,16313,3,EA,1,100,0.622114
95999,16313,3,EA,1,100,0.622531
96049,16331,2,EA,1,100,0.622823
96100,16331,2,EA,1,100,0.623733
96150,16350,2,EA,1,100,0.623999
96201,16350,2,EA,1,100,0.624335
96251,16368,2,EA,1,100,0.624430
96302,16368,2,EA,1,100,0.624907
96352,16386,2,EA,1,100,0.625038
96403,16386,2,EA,1,100,0.625221
96453,16404,2,EA,1,100,0.625481
96504,16404,2,EA,1,100,0.625405
96554,16422,2,EA,1,100,0.625798
96605,16422,2,EA,1,100,0.626164
96655,16440,2,EA,1,100,0.625854
96706,16440,2,EA,1,100,0.625928
96756,16458,2,EA,1,100,0.626152
96807,16458,2,EA,1,100,0.626416
96857,16477,2,EA,1,100,0.626122
96908,16477,2,EA,1,100,0.626555
96958,16495,2,EA,1,100,0.626351
97009,16495,2,EA,1,100,0.626686
97059,16513,2,EA,1,100,0.626531
97110,16513,2,EA,1,100,0.626577
97160,16531,2,EA,1,100,0.626569
97211,16531,2,EA,1,100,0.626660
97261,16549,2,EA,1,100,0.626781
97312,16549,2,EA,1,100,0.626768
97362,16567,2,EA,1,100,0.626649
97413,16567,2,EA,1,100,0.626875
97463,16585,2,EA,1,100,0.626438
97514,16585,2,EA,1,100,0.626573
97547,16603,3,EA,1,100,0.626730
97581,16603,3,EA,1,100,0.626519
97615,16603,3,EA,1,100,0.626710
97665,16622,2,EA,1,100,0.626674
97716,16622,2,EA,1,100,0.626364
97766,16640,2,EA,1,100,0.626716
97817,16640,2,EA,1,100,0.626279
97867,16658,2,EA,1,100,0.626305
97918,16658,2,EA,1,100,0.626160
97968,16676,2,EA,1,100,0.626323
98019,16676,2,EA,1,100,0.625930
98069,16694,2,EA,1,100,0.626009
98120,16694,2,EA,1,100,0.625886
98170,16712,2,EA,1,100,0.625765
98221,16712,2,EA,1,100,0.625765
98271,16730,2,EA,1,100,0.625278
98322,16730,2,EA,1,100,0.625354
98372,16749,2,EA,1,100,0.625624
98423,16749,2,EA,1,100,0.625332
98473,16767,2,EA,1,100,0.625179
98524,16767,2,EA,1,100,0.624996
98574,16785,2,EA,1,100,0.624899
98625,16785,2,EA,1,100,0.625070
98675,16803,2,EA,1,100,0.624950
98726,16803,2,EA,1,100,0.624788
98776,16821,2,EA,1,100,0.624855
98827,16821,2,EA,1,100,0.624811
98877,16839,2,EA,1,100,0.625099
98928,16839,2,EA,1,100,0.624678
98961,16857,3,EA,1,100,0.625089
98995,16857,3,EA,1,100,0.625145
99029,16857,3,EA,1,100,0.624950
99079,16876,2,EA,1,100,0.625000
99130,16876,2,EA,1,100,0.625028
99180,16894,2,EA,1,100,0.624831
99231,16894,2,EA,1,100,0.625147
99281,16912,2,EA,1,100,0.625062
99332,16912,2,EA,1,100,0.625209
99382,16930,2,EA,1,100,0.625514
99433,16930,2,EA,1,100,0.625288
99483,16948,2,EA,1,100,0.625340
99534,16948,2,EA,1,100,0.625471
99584,16966,2,EA,1,100,0.625572
99635,16966,2,EA,1,100,0.625689
99685,16984,2,EA,1,100,0.625544
99736,16984,2,EA,1,100,0.625933
99786,17002,2,EA,1,100,0.626078
99837,17002,2,EA,1,100,0.625828
99887,17021,2,EA,1,100,0.626088
99938,17021,2,EA,1,100,0.626370
99988,17039,2,EA,1,100,0.626555
100039,17039,2,EA,1,100,0.626843
100089,17057,2,EA,1,100,0.626817
100140,17057,2,EA,1,100,0.626996
100190,17075,2,EA,1,100,0.627131
100241,17075,2,EA,1,100,0.627383
100291,17093,2,EA,1,100,0.627369
100342,17093,2,EA,1,100,0.627469
100392,17111,2,EA,1,100,0.628017
100443,17111,2,EA,1,100,0.628033
100493,17129,2,EA,1,100,0.627757
100544,17129,2,EA,1,100,0.628158
100594,17148,2,EA,1,100,0.628219
100645,17148,2,EA,1,100,0.628293
100678,17166,3,EA,1,100,0.628098
100712,17166,3,EA,1,100,0.628561
100746,17166,3,EA,1,100,0.628452
100796,17184,2,EA,1,100,0.628591
100847,17184,2,EA,1,100,0.628501
100897,17202,2,EA,1,100,0.628730
100948,17202,2,EA,1,100,0.628545
100998,17220,2,EA,1,100,0.628476
101049,17220,2,EA,1,100,0.628291
101099,17238,2,EA,1,100,0.628527
101150,17238,2,EA,1,100,0.628702
101200,17256,2,EA,1,100,0.628404
101251,17256,2,EA,1,100,0.628539
101301,17274,2,EA,1,100,0.628488
101352,17274,2,EA,1,100,0.628335
101402,17293,2,EA,1,100,0.628281
101453,17293,2,EA,1,100,0.628108
101503,17311,2,EA,1,100,0.628146
101554,17311,2,EA,1,100,0.628215
101604,17329,2,EA,1,100,0.628142
101655,17329,2,EA,1,100,0.628400
101705,17347,2,EA,1,100,0.627999
101756,17347,2,EA,1,100,0.628241
101806,17365,2,EA,1,100,0.628198
101857,17365,2,EA,1,100,0.627959
101907,17383,2,EA,1,100,0.628053
101958,17383,2,EA,1,100,0.628204
102008,17401,2,EA,1,100,0.628200
102059,17401,2,EA,1,100,0.628400
102092,17420,3,EA,1,100,0.628235
102126,17420,3,EA,1,100,0.628257
102160,17420,3,EA,1,100,0.628646
102210,17438,2,EA,1,100,0.628547
102261,17438,2,EA,1,100,0.628799
102311,17456,2,EA,1,100,0.628867
102362,17456,2,EA,1,100,0.628867
102416,17477,3,EA,1,100,0.629018
102470,17477,3,EA,1,100,0.628919
102524,17477,3,EA,1,100,0.629193
102574,17497,2,EA,1,100,0.629197
102625,17497,2,EA,1,100,0.629298
102675,17515,2,EA,1,100,0.629359
102726,17515,2,EA,1,100,0.629401
102776,17533,2,EA,1,100,0.629085
102827,17533,2,EA,1,100,0.629361
102877,17552,2,EA,1,100,0.629544
102928,17552,2,EA,1,100,0.629294
102978,17570,2,EA,1,100,0.629161
103029,17570,2,EA,1,100,0.629423
103079,17588,2,EA,1,100,0.629558
103130,17588,2,EA,1,100,0.629185
103180,17606,2,EA,1,100,0.629163
103231,17606,2,EA,1,100,0.629058
103281,17624,2,EA,1,100,0.629411
103332,17624,2,EA,1,100,0.630112
103365,17642,3,EA,1,100,0.630190
103399,17642,3,EA,1,100,0.630434
103433,17642,3,EA,1,100,0.630545
103483,17660,2,EA,1,100,0.630557
103534,17660,2,EA,1,100,0.630352
103584,17679,2,EA,1,100,0.630456
103635,17679,2,EA,1,100,0.630597
103685,17697,2,EA,1,100,0.630535
103736,17697,2,EA,1,100,0.630148
103786,17715,2,EA,1,100,0.626378
103837,17715,2,EA,1,100,0.622339
103887,17733,2,EA,1,100,0.621785
103938,17733,2,EA,1,100,0.620786
103988,17751,2,EA,1,100,0.619171
104039,17751,2,EA,1,100,0.617904
104089,17769,2,EA,1,100,0.617294
104140,17769,2,EA,1,100,0.616041
104190,17787,2,EA,1,100,0.614845
104241,17787,2,EA,1,100,0.614540
104291,17805,2,EA,1,100,0.615010
104342,17805,2,EA,1,100,0.614347
104392,17824,2,EA,1,100,0.612816
104443,17824,2,EA,1,100,0.611610
104493,17842,2,EA,1,100,0.610850
104544,17842,2,EA,1,100,0.610450
104594,17860,2,EA,1,100,0.609219
104645,17860,2,EA,1,100,0.609205
104695,17878,2,EA,1,100,0.612150
104746,17878,2,EA,1,100,0.617697
104779,17896,3,EA,1,100,0.622176
104813,17896,3,EA,1,100,0.622978
104847,17896,3,EA,1,100,0.623836
104897,17914,2,EA,1,100,0.623945
104948,17914,2,EA,1,100,0.624581
104998,17932,2,EA,1,100,0.625203
105049,17932,2,EA,1,100,0.625709
105099,17951,2,EA,1,100,0.626122
105150,17951,2,EA,1,100,0.626400
105200,17969,2,EA,1,100,0.626581
105251,17969,2,EA,1,100,0.626903
105301,17987,2,EA,1,100,0.627413
105352,17987,2,EA,1,100,0.627379
105402,18005,2,EA,1,100,0.627540
105453,18005,2,EA,1,100,0.627804
105503,18023,2,EA,1,100,0.627882
105554,18023,2,EA,1,100,0.627681
105604,18041,2,EA,1,100,0.627979
105655,18041,2,EA,1,100,0.628424
105705,18059,2,EA,1,100,0.628495
105756,18059,2,EA,1,100,0.628488
105806,18078,2,EA,1,100,0.628072
105857,18078,2,EA,1,100,0.628571
105907,18096,2,EA,1,100,0.628734
105958,18096,2,EA,1,100,0.628690
106008,18114,2,EA,1,100,0.628349
106059,18114,2,EA,1,100,0.628686
106109,18132,2,EA,1,100,0.628529
106160,18132,2,EA,1,100,0.628785
106210,18150,2,EA,1,100,0.628561
106261,18150,2,EA,1,100,0.629103
106311,18168,2,EA,1,100,0.629582
106362,18168,2,EA,1,100,0.628541
106395,18186,3,EA,1,100,0.628356
106429,18186,3,EA,1,100,0.628166
106463,18186,3,EA,1,100,0.628478
106513,18204,2,EA,1,100,0.628583
106564,18204,2,EA,1,100,0.628571
106614,18223,2,EA,1,100,0.628335
106665,18223,2,EA,1,100,0.628585
106715,18241,2,EA,1,100,0.628428
106766,18241,2,EA,1,100,0.628283
106816,18259,2,EA,1,100,0.628100
106867,18259,2,EA,1,100,0.628597
106917,18277,2,EA,1,100,0.628206
106968,18277,2,EA,1,100,0.627350
107018,18295,2,EA,1,100,0.626722
107069,18295,2,EA,1,100,0.626420
107119,18313,2,EA,1,100,0.625965
107170,18313,2,EA,1,100,0.626021
107220,18331,2,EA,1,100,0.625699
107271,18331,2,EA,1,100,0.625981
107321,18350,2,EA,1,100,0.625830
107372,18350,2,EA,1,100,0.625667
107422,18368,2,EA,1,100,0.625985
107473,18368,2,EA,1,100,0.625473
107523,18386,2,EA,1,100,0.625268
107574,18386,2,EA,1,100,0.625117
107624,18404,2,EA,1,100,0.624734
107675,18404,2,EA,1,100,0.623324
107725,18422,2,EA,1,100,0.619654
107776,18422,2,EA,1,100,0.609154
107826,18441,2,EA,1,100,0.603869
107877,18441,2,EA,1,100,0.599801
107910,18460,3,EA,1,100,0.595168
107944,18460,3,EA,1,100,0.591341
107978,18460,3,EA,1,100,0.587514
108028,18480,2,EA,1,100,0.584533
108079,18480,2,EA,1,100,0.584155
108129,18499,2,EA,1,100,0.599718
108180,18499,2,EA,1,100,0.609207
108230,18517,2,EA,1,100,0.611739
108281,18517,2,EA,1,100,0.613515
108331,18535,2,EA,1,100,0.614196
108382,18535,2,EA,1,100,0.616399
108432,18553,2,EA,1,100,0.618698
108483,18553,2,EA,1,100,0.619302
108533,18571,2,EA,1,100,0.620917
108584,18571,2,EA,1,100,0.622573
108634,18589,2,EA,1,100,0.622845
108685,18589,2,EA,1,100,0.622611
108735,18607,2,EA,1,100,0.622688
108786,18607,2,EA,1,100,0.622716
108836,18626,2,EA,1,100,0.622194
108887,18626,2,EA,1,100,0.621900
108937,18644,2,EA,1,100,0.621650
108988,18644,2,EA,1,100,0.621006
109038,18662,2,EA,1,100,0.621205
109089,18662,2,EA,1,100,0.617840
109139,18681,2,EA,1,100,0.605036
109190,18681,2,EA,1,100,0.599398
109240,18700,2,EA,1,100,0.595370
109291,18700,2,EA,1,100,0.591019
109341,18719,2,EA,1,100,0.587192
109392,18719,2,EA,1,100,0.583647
109442,18738,2,EA,1,100,0.580465
109493,18738,2,EA,1,100,0.588205
109543,18757,2,EA,1,100,0.604300
109594,18757,2,EA,1,100,0.609666
109627,18775,3,EA,1,100,0.613489
109661,18775,3,EA,1,100,0.616182
109695,18775,3,EA,1,100,0.617697
109745,18793,2,EA,1,100,0.618963
109796,18793,2,EA,1,100,0.620454
109846,18811,2,EA,1,100,0.621201
109897,18811,2,EA,1,100,0.621938
109947,18829,2,EA,1,100,0.622746
109998,18829,2,EA,1,100,0.623407
110048,18847,2,EA,1,100,0.624162
110099,18847,2,EA,1,100,0.624625
110149,18865,2,EA,1,100,0.623870
110200,18865,2,EA,1,100,0.623270
110250,18883,2,EA,1,100,0.623147
110301,18883,2,EA,1,100,0.622682
110351,18902,2,EA,1,100,0.621056
110402,18902,2,EA,1,100,0.606989
110452,18921,2,EA,1,100,0.600606
110503,18921,2,EA,1,100,0.596296
110553,18940,2,EA,1,100,0.592550
110604,18940,2,EA,1,100,0.589045
110654,18959,2,EA,1,100,0.585621
110705,18959,2,EA,1,100,0.582842
110755,18978,2,EA,1,100,0.584904
110806,18978,2,EA,1,100,0.600866
110856,18996,2,EA,1,100,0.607652
110907,18996,2,EA,1,100,0.611968
110957,19014,2,EA,1,100,0.614305
111008,19014,2,EA,1,100,0.616994
111041,19033,3,EA,1,100,0.618607
111075,19033,3,EA,1,100,0.619485
111109,19033,3,EA,1,100,0.620815
111159,19051,2,EA,1,100,0.621642
111210,19051,2,EA,1,100,0.622341
111260,19069,2,EA,1,100,0.623157
111311,19069,2,EA,1,100,0.623761
111361,19087,2,EA,1,100,0.624490
111412,19087,2,EA,1,100,0.624903
111462,19105,2,EA,1,100,0.625161
111513,19105,2,EA,1,100,0.626086
111563,19123,2,EA,1,100,0.626267
111614,19123,2,EA,1,100,0.626623
111664,19141,2,EA,1,100,0.627028
111715,19141,2,EA,1,100,0.627129
111765,19160,2,EA,1,100,0.627471
111816,19160,2,EA,1,100,0.627931
111866,19178,2,EA,1,100,0.627997
111917,19178,2,EA,1,100,0.628114
111967,19196,2,EA,1,100,0.628301
112018,19196,2,EA,1,100,0.628456
112068,19214,2,EA,1,100,0.628819
112119,19214,2,EA,1,100,0.628579
112169,19232,2,EA,1,100,0.628845
112220,19232,2,EA,1,100,0.629137
112270,19250,2,EA,1,100,0.629046
112321,19250,2,EA,1,100,0.629357
112371,19268,2,EA,1,100,0.629455
112422,19268,2,EA,1,100,0.629534
112472,19286,2,EA,1,100,0.629880
112523,19286,2,EA,1,100,0.629912
112573,19305,2,EA,1,100,0.629864
112624,19305,2,EA,1,100,0.630297
112657,19323,3,EA,1,100,0.630265
112691,19323,3,EA,1,100,0.630454
112725,19323,3,EA,1,100,0.630378
112775,19341,2,EA,1,100,0.630327
112826,19341,2,EA,1,100,0.630384
112876,19359,2,EA,1,100,0.630615
112927,19359,2,EA,1,100,0.630648
112977,19377,2,EA,1,100,0.630738
113028,19377,2,EA,1,100,0.630642
113078,19395,2,EA,1,100,0.630803
113129,19395,2,EA,1,100,0.630795
113179,19413,2,EA,1,100,0.630704
113230,19413,2,EA,1,100,0.631065
113275,19435,4,EA,1,100,0.630954
113321,19435,4,EA,1,100,0.630845
113366,19435,4,EA,1,100,0.631050
113412,19435,4,EA,1,100,0.630704
113462,19455,2,EA,1,100,0.630940
113513,19455,2,EA,1,100,0.631179
113563,19473,2,EA,1,100,0.630942
113614,19473,2,EA,1,100,0.631008
113664,19491,2,EA,1,100,0.630911
113715,19491,2,EA,1,100,0.630913
113765,19509,2,EA,1,100,0.630833
113816,19509,2,EA,1,100,0.630827
113866,19527,2,EA,1,100,0.630636
113917,19527,2,EA,1,100,0.630795
113967,19545,2,EA,1,100,0.630847
114018,19545,2,EA,1,100,0.630807
114068,19564,2,EA,1,100,0.630706
114119,19564,2,EA,1,100,0.630897
114169,19582,2,EA,1,100,0.630750
114220,19582,2,EA,1,100,0.630869
114270,19600,2,EA,1,100,0.630746
114321,19600,2,EA,1,100,0.630730
114371,19618,2,EA,1,100,0.630271
114422,19618,2,EA,1,100,0.630926
114472,19636,2,EA,1,100,0.630466
114523,19636,2,EA,1,100,0.630638
114573,19654,2,EA,1,100,0.630464
114624,19654,2,EA,1,100,0.630527
114674,19672,2,EA,1,100,0.630646
114725,19672,2,EA,1,100,0.630354
114775,19691,2,EA,1,100,0.630124
114826,19691,2,EA,1,100,0.630478
114859,19709,3,EA,1,100,0.630412
114893,19709,3,EA,1,100,0.630404
114927,19709,3,EA,1,100,0.630154
114977,19727,2,EA,1,100,0.630287
115028,19727,2,EA,1,100,0.630301
115078,19745,2,EA,1,100,0.630172
115129,19745,2,EA,1,100,0.630227
115179,19763,2,EA,1,100,0.630078
115230,19763,2,EA,1,100,0.630432
115280,19781,2,EA,1,100,0.630255
115331,19781,2,EA,1,100,0.630217
115381,19799,2,EA,1,100,0.630172
115432,19799,2,EA,1,100,0.630051
115482,19817,2,EA,1,100,0.630066
115533,19817,2,EA,1,100,0.630146
115583,19836,2,EA,1,100,0.630009
115634,19836,2,EA,1,100,0.629816
115684,19854,2,EA,1,100,0.629749
115735,19854,2,EA,1,100,0.629735
115785,19872,2,EA,1,100,0.629971
115836,19872,2,EA,1,100,0.629955
115886,19890,2,EA,1,100,0.629927
115937,19890,2,EA,1,100,0.629719
115987,19908,2,EA,1,100,0.629773
116038,19908,2,EA,1,100,0.629876
116088,19926,2,EA,1,100,0.629804
116139,19926,2,EA,1,100,0.629814
116189,19944,2,EA,1,100,0.629733
116240,19944,2,EA,1,100,0.629689
116273,19963,3,EA,1,100,0.629494
116307,19963,3,EA,1,100,0.629933
116341,19963,3,EA,1,100,0.629596
116391,19981,2,EA,1,100,0.629780
116442,19981,2,EA,1,100,0.629600
116492,19999,2,EA,1,100,0.629773
116543,19999,2,EA,1,100,0.629441
116593,20017,2,EA,1,100,0.629747
116644,20017,2,EA,1,100,0.629677
116694,20035,2,EA,1,100,0.629794
116745,20035,2,EA,1,100,0.629496
116795,20053,2,EA,1,100,0.629770
116846,20053,2,EA,1,100,0.629479
116896,20071,2,EA,1,100,0.629540
116947,20071,2,EA,1,100,0.629560
116997,20090,2,EA,1,100,0.629590
117048,20090,2,EA,1,100,0.629423
117098,20108,2,EA,1,100,0.629369
117149,20108,2,EA,1,100,0.629089
117199,20126,2,EA,1,100,0.629516
117250,20126,2,EA,1,100,0.629399
117300,20144,2,EA,1,100,0.629359
117351,20144,2,EA,1,100,0.629342
117401,20162,2,EA,1,100,0.629479
117452,20162,2,EA,1,100,0.629298
117502,20180,2,EA,1,100,0.628877
117553,20180,2,EA,1,100,0.629137
117603,20198,2,EA,1,100,0.629000
117654,20198,2,EA,1,100,0.629232
117704,20216,2,EA,1,100,0.629296
117755,20216,2,EA,1,100,0.629183
117805,20235,2,EA,1,100,0.629203
117856,20235,2,EA,1,100,0.629312
117906,20253,2,EA,1,100,0.629342
117957,20253,2,EA,1,100,0.629258
117990,20271,3,EA,1,100,0.628843
118024,20271,3,EA,1,100,0.629087
118058,20271,3,EA,1,100,0.629004
118108,20289,2,EA,1,100,0.628950
118159,20289,2,EA,1,100,0.629278
118209,20307,2,EA,1,100,0.629058
118260,20307,2,EA,1,100,0.628692
118310,20325,2,EA,1,100,0.628919
118361,20325,2,EA,1,100,0.628879
118411,20343,2,EA,1,100,0.628811
118462,20343,2,EA,1,100,0.628831
118519,20362,3,EA,1,100,0.628913
118576,20362,3,EA,1,100,0.629135
118633,20362,3,EA,1,100,0.628760
118683,20380,2,EA,1,100,0.628917
118734,20380,2,EA,1,100,0.628549
118784,20398,2,EA,1,100,0.628640
118835,20398,2,EA,1,100,0.628537
118868,20416,3,EA,1,100,0.628484
118902,20416,3,EA,1,100,0.628356
118936,20416,3,EA,1,100,0.628617
118986,20434,2,EA,1,100,0.628750
119037,20434,2,EA,1,100,0.628478
119087,20452,2,EA,1,100,0.628758
119138,20452,2,EA,1,100,0.628488
119188,20470,2,EA,1,100,0.628650
119239,20470,2,EA,1,100,0.628674
119289,20489,2,EA,1,100,0.628694
119340,20489,2,EA,1,100,0.628690
119390,20507,2,EA,1,100,0.628633
119441,20507,2,EA,1,100,0.628845
119491,20525,2,EA,1,100,0.628919
119542,20525,2,EA,1,100,0.628877
119592,20543,2,EA,1,100,0.629161
119643,20543,2,EA,1,100,0.629129
119693,20561,2,EA,1,100,0.629030
119744,20561,2,EA,1,100,0.629413
119794,20579,2,EA,1,100,0.629588
119845,20579,2,EA,1,100,0.629584
119895,20597,2,EA,1,100,0.629737
119946,20597,2,EA,1,100,0.629939
119996,20616,2,EA,1,100,0.630480
120047,20616,2,EA,1,100,0.630444
120097,20634,2,EA,1,100,0.630624
120148,20634,2,EA,1,100,0.631002
120198,20652,2,EA,1,100,0.631121
120249,20652,2,EA,1,100,0.631260
120299,20670,2,EA,1,100,0.631566
120350,20670,2,EA,1,100,0.631876
120400,20688,2,EA,1,100,0.631997
120451,20688,2,EA,1,100,0.632235
120484,20706,3,EA,1,100,0.632209
120518,20706,3,EA,1,100,0.632275
120552,20706,3,EA,1,100,0.632464
120602,20724,2,EA,1,100,0.632396
120653,20724,2,EA,1,100,0.632805
120703,20742,2,EA,1,100,0.632634
120754,20742,2,EA,1,100,0.632716
120804,20761,2,EA,1,100,0.633212
120855,20761,2,EA,1,100,0.632895
120905,20779,2,EA,1,100,0.633061
120956,20779,2,EA,1,100,0.632742
121006,20797,2,EA,1,100,0.632996
121057,20797,2,EA,1,100,0.632754
121107,20815,2,EA,1,100,0.632879
121158,20815,2,EA,1,100,0.633047
121208,20833,2,EA,1,100,0.632928
121259,20833,2,EA,1,100,0.633077
121309,20851,2,EA,1,100,0.633061
121360,20851,2,EA,1,100,0.632847
121410,20869,2,EA,1,100,0.632823
121461,20869,2,EA,1,100,0.632714
121511,20888,2,EA,1,100,0.632648
121562,20888,2,EA,1,100,0.632690
121612,20906,2,EA,1,100,0.632924
121663,20906,2,EA,1,100,0.632783
121713,20924,2,EA,1,100,0.632813
121764,20924,2,EA,1,100,0.633028
121814,20942,2,EA,1,100,0.632998
121865,20942,2,EA,1,100,0.633373
121915,20960,2,EA,1,100,0.633355
121966,20960,2,EA,1,100,0.633173
121999,20978,3,EA,1,100,0.633723
122033,20978,3,EA,1,100,0.634054
122067,20978,3,EA,1,100,0.634323
122117,20996,2,EA,1,100,0.634326
122168,20996,2,EA,1,100,0.634342
122218,21015,2,EA,1,100,0.634648
122269,21015,2,EA,1,100,0.634201
122319,21033,2,EA,1,100,0.634781
122370,21033,2,EA,1,100,0.634849
122420,21051,2,EA,1,100,0.634817
122471,21051,2,EA,1,100,0.635045
122521,21069,2,EA,1,100,0.634881
122572,21069,2,EA,1,100,0.635248
122622,21087,2,EA,1,100,0.635278
122673,21087,2,EA,1,100,0.635437
122723,21105,2,EA,1,100,0.635556
122774,21105,2,EA,1,100,0.635586
122824,21123,2,EA,1,100,0.635208
122875,21123,2,EA,1,100,0.635601
122925,21141,2,EA,1,100,0.635349
122976,21141,2,EA,1,100,0.635478
123026,21160,2,EA,1,100,0.635754
123077,21160,2,EA,1,100,0.635955
123127,21178,2,EA,1,100,0.635725
123178,21178,2,EA,1,100,0.635784
123228,21196,2,EA,1,100,0.636130
123279,21196,2,EA,1,100,0.635818
123329,21214,2,EA,1,100,0.635735
123380,21214,2,EA,1,100,0.635911
123430,21232,2,EA,1,100,0.636154
123481,21232,2,EA,1,100,0.636346
123514,21250,3,EA,1,100,0.636356
123548,21250,3,EA,1,100,0.636199
123582,21250,3,EA,1,100,0.636370
123632,21268,2,EA,1,100,0.636454
123683,21268,2,EA,1,100,0.636158
123733,21287,2,EA,1,100,0.636489
123784,21287,2,EA,1,100,0.636517
123834,21305,2,EA,1,100,0.636094
123885,21305,2,EA,1,100,0.624567
123935,21323,2,EA,1,100,0.616438
123986,21323,2,EA,1,100,0.613215
124036,21342,2,EA,1,100,0.610631
124087,21342,2,EA,1,100,0.610180
124137,21360,2,EA,1,100,0.609978
124188,21360,2,EA,1,100,0.609360
124240,21381,3,EA,1,100,0.608625
124292,21381,3,EA,1,100,0.608498
124345,21381,3,EA,1,100,0.608446
124395,21401,2,EA,1,100,0.608141
124446,21401,2,EA,1,100,0.608222
124496,21420,2,EA,1,100,0.608599
124547,21420,2,EA,1,100,0.608456
124597,21438,2,EA,1,100,0.608298
124648,21438,2,EA,1,100,0.608168
124698,21456,2,EA,1,100,0.608081
124749,21456,2,EA,1,100,0.608023
124799,21474,2,EA,1,100,0.607531
124850,21474,2,EA,1,100,0.607310
124900,21492,2,EA,1,100,0.607364
124951,21492,2,EA,1,100,0.606615
124984,21510,3,EA,1,100,0.605694
125018,21510,3,EA,1,100,0.605392
125052,21510,3,EA,1,100,0.604528
125102,21528,2,EA,1,100,0.604842
125153,21528,2,EA,1,100,0.604679
125203,21547,2,EA,1,100,0.604804
125254,21547,2,EA,1,100,0.604679
125304,21565,2,EA,1,100,0.604113
125355,21565,2,EA,1,100,0.603366
125405,21583,2,EA,1,100,0.603271
125456,21583,2,EA,1,100,0.603454
125506,21601,2,EA,1,100,0.603207
125557,21601,2,EA,1,100,0.602876
125607,21619,2,EA,1,100,0.603025
125658,21619,2,EA,1,100,0.603170
125708,21637,2,EA,1,100,0.602169
125759,21637,2,EA,1,100,0.601771
125809,21655,2,EA,1,100,0.601533
125860,21655,2,EA,1,100,0.601380
125910,21673,2,EA,1,100,0.601420
125961,21673,2,EA,1,100,0.601533
126011,21692,2,EA,1,100,0.600804
126062,21692,2,EA,1,100,0.601104
126112,21710,2,EA,1,100,0.600923
126163,21710,2,EA,1,100,0.600860
126213,21728,2,EA,1,100,0.600643
126264,21728,2,EA,1,100,0.600661
126314,21746,2,EA,1,100,0.599636
126365,21746,2,EA,1,100,0.599781
126415,21764,2,EA,1,100,0.600147
126466,21764,2,EA,1,100,0.600149
126499,21782,3,EA,1,100,0.600490
126533,21782,3,EA,1,100,0.600018
126567,21782,3,EA,1,100,0.600131
126617,21800,2,EA,1,100,0.599674
126668,21800,2,EA,1,100,0.599831
126718,21819,2,EA,1,100,0.599754
126769,21819,2,EA,1,100,0.599805
126819,21837,2,EA,1,100,0.599186
126870,21837,2,EA,1,100,0.599102
126920,21855,2,EA,1,100,0.599120
126971,21855,2,EA,1,100,0.598832
127021,21873,2,EA,1,100,0.598397
127072,21873,2,EA,1,100,0.597897
127122,21891,2,EA,1,100,0.597434
127173,21891,2,EA,1,100,0.596550
127223,21909,2,EA,1,100,0.596695
127274,21909,2,EA,1,100,0.596637
127324,21927,2,EA,1,100,0.595922
127375,21927,2,EA,1,100,0.596234
127425,21946,2,EA,1,100,0.596020
127476,21946,2,EA,1,100,0.595746
127526,21964,2,EA,1,100,0.595839
127577,21964,2,EA,1,100,0.595740
127627,21982,2,EA,1,100,0.595452
127678,21982,2,EA,1,100,0.595474
127728,22000,2,EA,1,100,0.595547
127779,22000,2,EA,1,100,0.595545
127829,22018,2,EA,1,100,0.595267
127880,22018,2,EA,1,100,0.595182
127930,22036,2,EA,1,100,0.594890
127981,22036,2,EA,1,100,0.595132
128014,22054,3,EA,1,100,0.595142
128048,22054,3,EA,1,100,0.595057
128082,22054,3,EA,1,100,0.594999
128132,22072,2,EA,1,100,0.594850
128183,22072,2,EA,1,100,0.594908
128233,22091,2,EA,1,100,0.595150
128284,22091,2,EA,1,100,0.595130
128334,22109,2,EA,1,100,0.595231
128385,22109,2,EA,1,100,0.595432
128435,22127,2,EA,1,100,0.595563
128486,22127,2,EA,1,100,0.595450
128536,22145,2,EA,1,100,0.595559
128587,22145,2,EA,1,100,0.595484
128637,22163,2,EA,1,100,0.595168
128688,22163,2,EA,1,100,0.595154
128738,22181,2,EA,1,100,0.594677
128789,22181,2,EA,1,100,0.594854
128839,22199,2,EA,1,100,0.594385
128890,22199,2,EA,1,100,0.593956
128940,22218,2,EA,1,100,0.593670
128991,22218,2,EA,1,100,0.593408
129041,22236,2,EA,1,100,0.593037
129092,22236,2,EA,1,100,0.592375
129142,22254,2,EA,1,100,0.592616
129193,22254,2,EA,1,100,0.592777
129243,22272,2,EA,1,100,0.592564
129294,22272,2,EA,1,100,0.592620
129344,22290,2,EA,1,100,0.592431
129395,22290,2,EA,1,100,0.592654
129445,22308,2,EA,1,100,0.592320
129496,22308,2,EA,1,100,0.592137
129546,22326,2,EA,1,100,0.591756
129597,22326,2,EA,1,100,0.591899
129630,22344,3,EA,1,100,0.591478
129664,22344,3,EA,1,100,0.590977
129698,22344,3,EA,1,100,0.591496
129748,22363,2,EA,1,100,0.591112
129799,22363,2,EA,1,100,0.590999
129849,22381,2,EA,1,100,0.590592
129900,22381,2,EA,1,100,0.590310
129950,22399,2,EA,1,100,0.590310
130001,22399,2,EA,1,100,0.590054
130051,22417,2,EA,1,100,0.589792
130102,22417,2,EA,1,100,0.590358
130152,22435,2,EA,1,100,0.589867
130203,22435,2,EA,1,100,0.589853
130253,22453,2,EA,1,100,0.590024
130304,22453,2,EA,1,100,0.590252
130354,22471,2,EA,1,100,0.590308
130405,22471,2,EA,1,100,0.590705
130455,22490,2,EA,1,100,0.590264
130506,22490,2,EA,1,100,0.590221
130556,22508,2,EA,1,100,0.590580
130607,22508,2,EA,1,100,0.590546
130657,22526,2,EA,1,100,0.590745
130708,22526,2,EA,1,100,0.590518
130758,22544,2,EA,1,100,0.590654
130809,22544,2,EA,1,100,0.590572
130859,22562,2,EA,1,100,0.590385
130910,22562,2,EA,1,100,0.590727
130960,22580,2,EA,1,100,0.590066
131011,22580,2,EA,1,100,0.590580
131061,22598,2,EA,1,100,0.590661
131112,22598,2,EA,1,100,0.590159
131145,22617,3,EA,1,100,0.590884
131179,22617,3,EA,1,100,0.590707
131213,22617,3,EA,1,100,0.590767
131263,22635,2,EA,1,100,0.590431
131314,22635,2,EA,1,100,0.590187
131364,22653,2,EA,1,100,0.590167
131415,22653,2,EA,1,100,0.590179
131465,22671,2,EA,1,100,0.589831
131516,22671,2,EA,1,100,0.589891
131566,22689,2,EA,1,100,0.589867
131617,22689,2,EA,1,100,0.589774
131667,22707,2,EA,1,100,0.589341
131718,22707,2,EA,1,100,0.589422
131768,22725,2,EA,1,100,0.589353
131819,22725,2,EA,1,100,0.589611
131869,22743,2,EA,1,100,0.589003
131920,22743,2,EA,1,100,0.589813
131970,22762,2,EA,1,100,0.589633
132021,22762,2,EA,1,100,0.588987
132071,22780,2,EA,1,100,0.588930
132122,22780,2,EA,1,100,0.589561
132172,22798,2,EA,1,100,0.590457
132223,22798,2,EA,1,100,0.590985
132273,22816,2,EA,1,100,0.590580
132324,22816,2,EA,1,100,0.590072
132374,22834,2,EA,1,100,0.591247
132425,22834,2,EA,1,100,0.595210
132475,22852,2,EA,1,100,0.594814
132526,22852,2,EA,1,100,0.596908
132576,22870,2,EA,1,100,0.607213
132627,22870,2,EA,1,100,0.608752
132660,22889,3,EA,1,100,0.606065
132694,22889,3,EA,1,100,0.603894
132728,22889,3,EA,1,100,0.601402
132778,22907,2,EA,1,100,0.601660
132829,22907,2,EA,1,100,0.601873
132879,22925,2,EA,1,100,0.607420
132930,22925,2,EA,1,100,0.604200
132980,22943,2,EA,1,100,0.605064
133031,22943,2,EA,1,100,0.595746
133081,22961,2,EA,1,100,0.595019
133132,22961,2,EA,1,100,0.595940
133182,22979,2,EA,1,100,0.598147
133233,22979,2,EA,1,100,0.600830
133283,22997,2,EA,1,100,0.601628
133334,22997,2,EA,1,100,0.600053
133384,23015,2,EA,1,100,0.594073
133435,23015,2,EA,1,100,0.592775
133485,23034,2,EA,1,100,0.592131
133536,23034,2,EA,1,100,0.591537
133586,23052,2,EA,1,100,0.590693
133637,23052,2,EA,1,100,0.595281
133687,23070,2,EA,1,100,0.595213
133738,23070,2,EA,1,100,0.595239
133788,23088,2,EA,1,100,0.595196
133839,23088,2,EA,1,100,0.595299
133889,23106,2,EA,1,100,0.594804
133940,23106,2,EA,1,100,0.594769
133990,23124,2,EA,1,100,0.594933
134041,23124,2,EA,1,100,0.594620
134091,23142,2,EA,1,100,0.594604
134142,23142,2,EA,1,100,0.594598
134175,23161,3,EA,1,100,0.594344
134209,23161,3,EA,1,100,0.594101
134243,23161,3,EA,1,100,0.594465
134293,23179,2,EA,1,100,0.593980
134344,23179,2,EA,1,100,0.600842
134394,23197,2,EA,1,100,0.607904
134445,23197,2,EA,1,100,0.608367
134495,23215,2,EA,1,100,0.608862
134546,23215,2,EA,1,100,0.602135
134596,23233,2,EA,1,100,0.600332
134647,23233,2,EA,1,100,0.601585
134697,23251,2,EA,1,100,0.602290
134748,23251,2,EA,1,100,0.602468
134798,23269,2,EA,1,100,0.602911
134849,23269,2,EA,1,100,0.601839
134899,23288,2,EA,1,100,0.601938
134950,23288,2,EA,1,100,0.601906
135000,23306,2,EA,1,100,0.600449
135051,23306,2,EA,1,100,0.600858
135096,23327,4,EA,1,100,0.612597
135142,23327,4,EA,1,100,0.619872
135187,23327,4,EA,1,100,0.621284
135233,23327,4,EA,1,100,0.622849
135283,23347,2,EA,1,100,0.623695
135334,23347,2,EA,1,100,0.624414
135384,23365,2,EA,1,100,0.625516
135435,23365,2,EA,1,100,0.626311
135485,23383,2,EA,1,100,0.626666
135536,23383,2,EA,1,100,0.626035
135586,23401,2,EA,1,100,0.627806
135637,23401,2,EA,1,100,0.628307
135687,23420,2,EA,1,100,0.628891
135738,23420,2,EA,1,100,0.629195
135788,23438,2,EA,1,100,0.629248
135839,23438,2,EA,1,100,0.629824
135889,23456,2,EA,1,100,0.629824
135940,23456,2,EA,1,100,0.629910
135990,23474,2,EA,1,100,0.630499
136041,23474,2,EA,1,100,0.631030
136091,23492,2,EA,1,100,0.630730
136142,23492,2,EA,1,100,0.630907
136192,23510,2,EA,1,100,0.631824
136243,23510,2,EA,1,100,0.632293
136293,23528,2,EA,1,100,0.632253
136344,23528,2,EA,1,100,0.631681
136377,23547,3,EA,1,100,0.631514
136411,23547,3,EA,1,100,0.631554
136445,23547,3,EA,1,100,0.632094
136495,23565,2,EA,1,100,0.632700
136546,23565,2,EA,1,100,0.632984
136596,23583,2,EA,1,100,0.633101
136647,23583,2,EA,1,100,0.633413
136697,23601,2,EA,1,100,0.633242
136748,23601,2,EA,1,100,0.633189
136798,23619,2,EA,1,100,0.633540
136849,23619,2,EA,1,100,0.633326
136899,23637,2,EA,1,100,0.633697
136950,23637,2,EA,1,100,0.633727
137000,23655,2,EA,1,100,0.633546
137051,23655,2,EA,1,100,0.633953
137101,23673,2,EA,1,100,0.634035
137152,23673,2,EA,1,100,0.634229
137202,23692,2,EA,1,100,0.633840
137253,23692,2,EA,1,100,0.633832
137303,23710,2,EA,1,100,0.633627
137354,23710,2,EA,1,100,0.633036
137404,23728,2,EA,1,100,0.633677
137455,23728,2,EA,1,100,0.633876
137505,23746,2,EA,1,100,0.633983
137556,23746,2,EA,1,100,0.634348
137606,23764,2,EA,1,100,0.634301
137657,23764,2,EA,1,100,0.634211
137707,23782,2,EA,1,100,0.633407
137758,23782,2,EA,1,100,0.632638
137808,23800,2,EA,1,100,0.631925
137859,23800,2,EA,1,100,0.631143
137892,23819,3,EA,1,100,0.630946
137926,23819,3,EA,1,100,0.630593
137960,23819,3,EA,1,100,0.630072
138010,23837,2,EA,1,100,0.629657
138061,23837,2,EA,1,100,0.630178
138111,23855,2,EA,1,100,0.629767
138162,23855,2,EA,1,100,0.629536
138212,23873,2,EA,1,100,0.630301
138263,23873,2,EA,1,100,0.632180
138313,23891,2,EA,1,100,0.632714
138364,23891,2,EA,1,100,0.632630
138414,23909,2,EA,1,100,0.632497
138465,23909,2,EA,1,100,0.633055
138515,23927,2,EA,1,100,0.633095
138566,23927,2,EA,1,100,0.633044
138616,23946,2,EA,1,100,0.632922
138667,23946,2,EA,1,100,0.632926
138717,23964,2,EA,1,100,0.633218
138768,23964,2,EA,1,100,0.633343
138818,23982,2,EA,1,100,0.633500
138869,23982,2,EA,1,100,0.633643
138919,24000,2,EA,1,100,0.633490
138970,24000,2,EA,1,100,0.633181
139020,24018,2,EA,1,100,0.633578
139071,24018,2,EA,1,100,0.633596
139121,24036,2,EA,1,100,0.633534
139172,24036,2,EA,1,100,0.633538
139222,24054,2,EA,1,100,0.633544
139273,24054,2,EA,1,100,0.633880
139323,24072,2,EA,1,100,0.633463
139374,24072,2,EA,1,100,0.633629
139424,24091,2,EA,1,100,0.633768
139475,24091,2,EA,1,100,0.633651
139508,24109,3,EA,1,100,0.633888
139542,24109,3,EA,1,100,0.633751
139576,24109,3,EA,1,100,0.633534
139626,24127,2,EA,1,100,0.633784
139677,24127,2,EA,1,100,0.633572
139727,24145,2,EA,1,100,0.633474
139778,24145,2,EA,1,100,0.633806
139828,24163,2,EA,1,100,0.633554
139879,24163,2,EA,1,100,0.633768
139929,24181,2,EA,1,100,0.633846
139980,24181,2,EA,1,100,0.633475
140030,24199,2,EA,1,100,0.633578
140081,24199,2,EA,1,100,0.633711
140131,24218,2,EA,1,100,0.634021
140182,24218,2,EA,1,100,0.633806
140232,24236,2,EA,1,100,0.633802
140283,24236,2,EA,1,100,0.633576
140333,24254,2,EA,1,100,0.633510
140384,24254,2,EA,1,100,0.633637
140434,24272,2,EA,1,100,0.633351
140485,24272,2,EA,1,100,0.633451
140535,24290,2,EA,1,100,0.633548
140586,24290,2,EA,1,100,0.633600
140636,24308,2,EA,1,100,0.633328
140687,24308,2,EA,1,100,0.633465
140737,24326,2,EA,1,100,0.633759
140788,24326,2,EA,1,100,0.633890
140838,24344,2,EA,1,100,0.633534
140889,24344,2,EA,1,100,0.633387
140922,24363,3,EA,1,100,0.633643
140956,24363,3,EA,1,100,0.633693
140990,24363,3,EA,1,100,0.633687
141040,24381,2,EA,1,100,0.633584
141091,24381,2,EA,1,100,0.633880
141141,24399,2,EA,1,100,0.633961
141192,24399,2,EA,1,100,0.633457
141242,24417,2,EA,1,100,0.633657
141293,24417,2,EA,1,100,0.633832
141343,24435,2,EA,1,100,0.633870
141394,24435,2,EA,1,100,0.633872
141444,24453,2,EA,1,100,0.633705
141495,24453,2,EA,1,100,0.633971
141545,24471,2,EA,1,100,0.633917
141596,24471,2,EA,1,100,0.633834
141646,24490,2,EA,1,100,0.633399
141697,24490,2,EA,1,100,0.633768
141747,24508,2,EA,1,100,0.633786
141798,24508,2,EA,1,100,0.633731
141848,24526,2,EA,1,100,0.632899
141899,24526,2,EA,1,100,0.633349
141949,24544,2,EA,1,100,0.633453
142000,24544,2,EA,1,100,0.633528
142050,24562,2,EA,1,100,0.632785
142101,24562,2,EA,1,100,0.632926
142151,24580,2,EA,1,100,0.633141
142202,24580,2,EA,1,100,0.633189
142252,24598,2,EA,1,100,0.632315
142303,24598,2,EA,1,100,0.632342
142353,24617,2,EA,1,100,0.632879
142404,24617,2,EA,1,100,0.633508
142454,24635,2,EA,1,100,0.632130
142505,24635,2,EA,1,100,0.631727
142538,24653,3,EA,1,100,0.632392
142572,24653,3,EA,1,100,0.632356
142606,24653,3,EA,1,100,0.631828
142656,24671,2,EA,1,100,0.631199
142707,24671,2,EA,1,100,0.631908
142757,24689,2,EA,1,100,0.632338
142808,24689,2,EA,1,100,0.631739
142858,24707,2,EA,1,100,0.630847
142909,24707,2,EA,1,100,0.631608
142959,24725,2,EA,1,100,0.632021
143010,24725,2,EA,1,100,0.631320
143060,24743,2,EA,1,100,0.630640
143111,24743,2,EA,1,100,0.630827
143161,24762,2,EA,1,100,0.631590
143212,24762,2,EA,1,100,0.630956
143262,24780,2,EA,1,100,0.630251
143313,24780,2,EA,1,100,0.630517
143363,24798,2,EA,1,100,0.631417
143414,24798,2,EA,1,100,0.630954
143464,24816,2,EA,1,100,0.629910
143515,24816,2,EA,1,100,0.630333
143565,24834,2,EA,1,100,0.631220
143616,24834,2,EA,1,100,0.631236
143666,24852,2,EA,1,100,0.630172
143717,24852,2,EA,1,100,0.630390
143767,24870,2,EA,1,100,0.631488
143818,24870,2,EA,1,100,0.631733
143868,24889,2,EA,1,100,0.630309
143919,24889,2,EA,1,100,0.630676
143969,24907,2,EA,1,100,0.631471
144020,24907,2,EA,1,100,0.631953
144053,24925,3,EA,1,100,0.630750
144087,24925,3,EA,1,100,0.630384
144121,24925,3,EA,1,100,0.631056
144171,24943,2,EA,1,100,0.631566
144222,24943,2,EA,1,100,0.630829
144278,24961,3,EA,1,100,0.629985
144335,24961,3,EA,1,100,0.630317
144392,24961,3,EA,1,100,0.630327
144442,24979,2,EA,1,100,0.630001
144493,24979,2,EA,1,100,0.630547
144543,24997,2,EA,1,100,0.630289
144594,24997,2,EA,1,100,0.630049
144644,25016,2,EA,1,100,0.630875
144695,25016,2,EA,1,100,0.630865
144745,25034,2,EA,1,100,0.629449
144796,25034,2,EA,1,100,0.629216
144846,25052,2,EA,1,100,0.630329
144897,25052,2,EA,1,100,0.629737
144930,25070,3,EA,1,100,0.623534
144964,25070,3,EA,1,100,0.624557
144998,25070,3,EA,1,100,0.625240
145048,25088,2,EA,1,100,0.625087
145099,25088,2,EA,1,100,0.624561
145149,25106,2,EA,1,100,0.623989
145200,25106,2,EA,1,100,0.624055
145250,25124,2,EA,1,100,0.623711
145301,25124,2,EA,1,100,0.623574
145351,25143,2,EA,1,100,0.622049
145402,25143,2,EA,1,100,0.611547
145452,25161,2,EA,1,100,0.608846
145503,25161,2,EA,1,100,0.607590
145553,25179,2,EA,1,100,0.607596
145604,25179,2,EA,1,100,0.607463
145654,25197,2,EA,1,100,0.607122
145705,25197,2,EA,1,100,0.606216
145755,25215,2,EA,1,100,0.605869
145806,25215,2,EA,1,100,0.605833
145856,25233,2,EA,1,100,0.605531
145907,25233,2,EA,1,100,0.605158
145957,25251,2,EA,1,100,0.604701
146008,25251,2,EA,1,100,0.604407
146062,25272,3,EA,1,100,0.604584
146116,25272,3,EA,1,100,0.604447
146171,25272,3,EA,1,100,0.604147
146221,25293,2,EA,1,100,0.604494
146272,25293,2,EA,1,100,0.604464
146305,25311,3,EA,1,100,0.604409
146339,25311,3,EA,1,100,0.604544
146373,25311,3,EA,1,100,0.604298
146423,25329,2,EA,1,100,0.604317
146474,25329,2,EA,1,100,0.604572
146524,25347,2,EA,1,100,0.604447
146575,25347,2,EA,1,100,0.604317
146625,25365,2,EA,1,100,0.604468
146676,25365,2,EA,1,100,0.604401
146726,25383,2,EA,1,100,0.604147
146777,25383,2,EA,1,100,0.603879
146827,25402,2,EA,1,100,0.603624
146878,25402,2,EA,1,100,0.603626
146928,25420,2,EA,1,100,0.603686
146979,25420,2,EA,1,100,0.603599
147029,25438,2,EA,1,100,0.603458
147080,25438,2,EA,1,100,0.603541
147130,25456,2,EA,1,100,0.603755
147181,25456,2,EA,1,100,0.603573
147231,25474,2,EA,1,100,0.604002
147282,25474,2,EA,1,100,0.604071
147332,25492,2,EA,1,100,0.604222
147383,25492,2,EA,1,100,0.604733
147433,25510,2,EA,1,100,0.604981
147484,25510,2,EA,1,100,0.604933
147534,25528,2,EA,1,100,0.605807
147585,25528,2,EA,1,100,0.606174
147635,25547,2,EA,1,100,0.606089
147686,25547,2,EA,1,100,0.606182
147719,25565,3,EA,1,100,0.606500
147753,25565,3,EA,1,100,0.606377
147787,25565,3,EA,1,100,0.606452
147837,25583,2,EA,1,100,0.606365
147888,25583,2,EA,1,100,0.606582
147938,25601,2,EA,1,100,0.606732
147989,25601,2,EA,1,100,0.606663
148039,25619,2,EA,1,100,0.606552
148090,25619,2,EA,1,100,0.606530
148140,25637,2,EA,1,100,0.606141
148191,25637,2,EA,1,100,0.605541
148241,25655,2,EA,1,100,0.605235
148292,25655,2,EA,1,100,0.605152
148342,25674,2,EA,1,100,0.604955
148393,25674,2,EA,1,100,0.604671
148443,25692,2,EA,1,100,0.604145
148494,25692,2,EA,1,100,0.603982
148544,25710,2,EA,1,100,0.604024
148595,25710,2,EA,1,100,0.604079
148645,25728,2,EA,1,100,0.603602
148696,25728,2,EA,1,100,0.603821
148746,25746,2,EA,1,100,0.603869
148797,25746,2,EA,1,100,0.603914
148847,25764,2,EA,1,100,0.604224
148898,25764,2,EA,1,100,0.603942
148948,25782,2,EA,1,100,0.604284
148999,25782,2,EA,1,100,0.603936
149049,25800,2,EA,1,100,0.603311
149100,25800,2,EA,1,100,0.603755
149150,25819,2,EA,1,100,0.603795
149201,25819,2,EA,1,100,0.603940
149251,25837,2,EA,1,100,0.603527
149302,25837,2,EA,1,100,0.603436
149352,25855,2,EA,1,100,0.603960
149403,25855,2,EA,1,100,0.603408
149436,25873,3,EA,1,100,0.603396
149470,25873,3,EA,1,100,0.603614
149504,25873,3,EA,1,100,0.603732
149554,25891,2,EA,1,100,0.604057
149605,25891,2,EA,1,100,0.603724
149655,25909,2,EA,1,100,0.603898
149706,25909,2,EA,1,100,0.604131
149756,25927,2,EA,1,100,0.603938
149807,25927,2,EA,1,100,0.604081
149857,25946,2,EA,1,100,0.604588
149908,25946,2,EA,1,100,0.604621
149958,25964,2,EA,1,100,0.604782
150009,25964,2,EA,1,100,0.604522
150059,25982,2,EA,1,100,0.604375
150110,25982,2,EA,1,100,0.604421
150160,26000,2,EA,1,100,0.604695
150211,26000,2,EA,1,100,0.604496
150261,26018,2,EA,1,100,0.604536
150312,26018,2,EA,1,100,0.604921
150362,26036,2,EA,1,100,0.604784
150413,26036,2,EA,1,100,0.605031
150463,26054,2,EA,1,100,0.604550
150514,26054,2,EA,1,100,0.604089
150564,26073,2,EA,1,100,0.603954
150615,26073,2,EA,1,100,0.603861
150665,26091,2,EA,1,100,0.603283
150716,26091,2,EA,1,100,0.603513
150766,26109,2,EA,1,100,0.603813
150817,26109,2,EA,1,100,0.603825
150867,26127,2,EA,1,100,0.603416
150918,26127,2,EA,1,100,0.603497
150951,26145,3,EA,1,100,0.603346
150985,26145,3,EA,1,100,0.603473
151019,26145,3,EA,1,100,0.603140
151069,26163,2,EA,1,100,0.602786
151120,26163,2,EA,1,100,0.602911
151170,26181,2,EA,1,100,0.602705
151221,26181,2,EA,1,100,0.602588
151271,26199,2,EA,1,100,0.602121
151322,26199,2,EA,1,100,0.602550
151372,26218,2,EA,1,100,0.602480
151423,26218,2,EA,1,100,0.602153
151473,26236,2,EA,1,100,0.601867
151524,26236,2,EA,1,100,0.601992
151574,26254,2,EA,1,100,0.602474
151625,26254,2,EA,1,100,0.602186
151675,26272,2,EA,1,100,0.602270
151726,26272,2,EA,1,100,0.601898
151776,26290,2,EA,1,100,0.602242
151827,26290,2,EA,1,100,0.602341
151877,26308,2,EA,1,100,0.601942
151928,26308,2,EA,1,100,0.602053
151978,26326,2,EA,1,100,0.602179
152029,26326,2,EA,1,100,0.602331
152079,26345,2,EA,1,100,0.602232
152130,26345,2,EA,1,100,0.602333
152180,26363,2,EA,1,100,0.602212
152231,26363,2,EA,1,100,0.602351
152281,26381,2,EA,1,100,0.602222
152332,26381,2,EA,1,100,0.602488
152382,26399,2,EA,1,100,0.602347
152433,26399,2,EA,1,100,0.602558
152466,26417,3,EA,1,100,0.602367
152500,26417,3,EA,1,100,0.602218
152534,26417,3,EA,1,100,0.602502
152584,26435,2,EA,1,100,0.602466
152635,26435,2,EA,1,100,0.602476
152685,26453,2,EA,1,100,0.602429
152736,26453,2,EA,1,100,0.602836
152786,26472,2,EA,1,100,0.603064
152837,26472,2,EA,1,100,0.602770
152887,26490,2,EA,1,100,0.602379
152938,26490,2,EA,1,100,0.602756
152988,26508,2,EA,1,100,0.602633
153039,26508,2,EA,1,100,0.602564
153089,26526,2,EA,1,100,0.602546
153140,26526,2,EA,1,100,0.602459
153190,26544,2,EA,1,100,0.602756
153241,26544,2,EA,1,100,0.602818
153291,26562,2,EA,1,100,0.602433
153342,26562,2,EA,1,100,0.602675
153392,26580,2,EA,1,100,0.602760
153443,26580,2,EA,1,100,0.602890
153493,26598,2,EA,1,100,0.602770
153544,26598,2,EA,1,100,0.602613
153594,26617,2,EA,1,100,0.602772
153645,26617,2,EA,1,100,0.602528
153695,26635,2,EA,1,100,0.602677
153746,26635,2,EA,1,100,0.602697
153796,26653,2,EA,1,100,0.602794
153847,26653,2,EA,1,100,0.602991
153897,26671,2,EA,1,100,0.602796
153948,26671,2,EA,1,100,0.602812
153998,26689,2,EA,1,100,0.603009
154049,26689,2,EA,1,100,0.602991
154082,26707,3,EA,1,100,0.602766
154116,26707,3,EA,1,100,0.602935
154150,26707,3,EA,1,100,0.602941
154200,26725,2,EA,1,100,0.602794
154251,26725,2,EA,1,100,0.603102
154301,26744,2,EA,1,100,0.603078
154352,26744,2,EA,1,100,0.602872
154402,26762,2,EA,1,100,0.602749
154453,26762,2,EA,1,100,0.603062
154503,26780,2,EA,1,100,0.602786
154554,26780,2,EA,1,100,0.603050
154604,26798,2,EA,1,100,0.603124
154655,26798,2,EA,1,100,0.602826
154705,26816,2,EA,1,100,0.602737
154756,26816,2,EA,1,100,0.603317
154806,26834,2,EA,1,100,0.603269
154857,26834,2,EA,1,100,0.603414
154907,26852,2,EA,1,100,0.603185
154958,26852,2,EA,1,100,0.603313
155008,26870,2,EA,1,100,0.603747
155059,26870,2,EA,1,100,0.603595
155109,26889,2,EA,1,100,0.603807
155160,26889,2,EA,1,100,0.603690
155210,26907,2,EA,1,100,0.603891
155261,26907,2,EA,1,100,0.604041
155311,26925,2,EA,1,100,0.603924
155362,26925,2,EA,1,100,0.603803
155412,26943,2,EA,1,100,0.604105
155463,26943,2,EA,1,100,0.604403
155513,26961,2,EA,1,100,0.604772
155564,26961,2,EA,1,100,0.604715
155597,26979,3,EA,1,100,0.605052
155631,26979,3,EA,1,100,0.605017
155665,26979,3,EA,1,100,0.604671
155715,26997,2,EA,1,100,0.604697
155766,26997,2,EA,1,100,0.604959
155816,27016,2,EA,1,100,0.605191
155867,27016,2,EA,1,100,0.604760
155917,27034,2,EA,1,100,0.604961
155968,27034,2,EA,1,100,0.605114
156018,27052,2,EA,1,100,0.605398
156069,27052,2,EA,1,100,0.605207
156119,27070,2,EA,1,100,0.605346
156170,27070,2,EA,1,100,0.605458
156220,27088,2,EA,1,100,0.605446
156271,27088,2,EA,1,100,0.605537
156321,27106,2,EA,1,100,0.605465
156372,27106,2,EA,1,100,0.605642
156422,27124,2,EA,1,100,0.605807
156473,27124,2,EA,1,100,0.605587
156523,27143,2,EA,1,100,0.605688
156574,27143,2,EA,1,100,0.605741
156624,27161,2,EA,1,100,0.605573
156675,27161,2,EA,1,100,0.606053
156725,27179,2,EA,1,100,0.605946
156776,27179,2,EA,1,100,0.605910
156826,27197,2,EA,1,100,0.605771
156877,27197,2,EA,1,100,0.606339
156922,27218,4,EA,1,100,0.605726
156968,27218,4,EA,1,100,0.606035
157013,27218,4,EA,1,100,0.606099
157059,27218,4,EA,1,100,0.606268
157109,27238,2,EA,1,100,0.606111
157160,27238,2,EA,1,100,0.606298
157210,27256,2,EA,1,100,0.606103
157261,27256,2,EA,1,100,0.606208
157311,27275,2,EA,1,100,0.606482
157362,27275,2,EA,1,100,0.606484
157412,27293,2,EA,1,100,0.606176
157463,27293,2,EA,1,100,0.606337
157513,27311,2,EA,1,100,0.606542
157564,27311,2,EA,1,100,0.606470
157614,27329,2,EA,1,100,0.606578
157665,27329,2,EA,1,100,0.606313
157698,27347,3,EA,1,100,0.606589
157732,27347,3,EA,1,100,0.606494
157766,27347,3,EA,1,100,0.606484
157816,27365,2,EA,1,100,0.606689
157867,27365,2,EA,1,100,0.606520
157917,27383,2,EA,1,100,0.606959
157968,27383,2,EA,1,100,0.606484
158018,27402,2,EA,1,100,0.606687
158069,27402,2,EA,1,100,0.606778
158119,27420,2,EA,1,100,0.606987
158170,27420,2,EA,1,100,0.606862
158220,27438,2,EA,1,100,0.606683
158271,27438,2,EA,1,100,0.606643
158321,27456,2,EA,1,100,0.606655
158372,27456,2,EA,1,100,0.606879
158422,27474,2,EA,1,100,0.606903
158473,27474,2,EA,1,100,0.606713
158523,27492,2,EA,1,100,0.606864
158574,27492,2,EA,1,100,0.606657
158624,27510,2,EA,1,100,0.606574
158675,27510,2,EA,1,100,0.606746
158725,27528,2,EA,1,100,0.606526
158776,27528,2,EA,1,100,0.606697
158826,27547,2,EA,1,100,0.606323
158877,27547,2,EA,1,100,0.606572
158927,27565,2,EA,1,100,0.606802
158978,27565,2,EA,1,100,0.606699
159028,27583,2,EA,1,100,0.606431
159079,27583,2,EA,1,100,0.606675
159129,27601,2,EA,1,100,0.606721
159180,27601,2,EA,1,100,0.606540
159230,27619,2,EA,1,100,0.606391
159281,27619,2,EA,1,100,0.606294
159314,27637,3,EA,1,100,0.606445
159348,27637,3,EA,1,100,0.606550
159382,27637,3,EA,1,100,0.606260
159432,27655,2,EA,1,100,0.606234
159483,27655,2,EA,1,100,0.606740
159533,27674,2,EA,1,100,0.606556
159584,27674,2,EA,1,100,0.606365
159634,27692,2,EA,1,100,0.606439
159685,27692,2,EA,1,100,0.606544
159735,27710,2,EA,1,100,0.606592
159786,27710,2,EA,1,100,0.606665
159836,27728,2,EA,1,100,0.606492
159887,27728,2,EA,1,100,0.606725
159937,27746,2,EA,1,100,0.606582
159988,27746,2,EA,1,100,0.606768
160038,27764,2,EA,1,100,0.606462
160089,27764,2,EA,1,100,0.606643
160139,27782,2,EA,1,100,0.606806
160190,27782,2,EA,1,100,0.606824
160240,27801,2,EA,1,100,0.606723
160291,27801,2,EA,1,100,0.606667
160341,27819,2,EA,1,100,0.606490
160392,27819,2,EA,1,100,0.607060
160442,27837,2,EA,1,100,0.606592
160493,27837,2,EA,1,100,0.606494
160543,27855,2,EA,1,100,0.606766
160594,27855,2,EA,1,100,0.606476
160644,27873,2,EA,1,100,0.606488
160695,27873,2,EA,1,100,0.606736
160745,27891,2,EA,1,100,0.606651
160796,27891,2,EA,1,100,0.606762
160846,27909,2,EA,1,100,0.606697
160897,27909,2,EA,1,100,0.606550
160930,27927,3,EA,1,100,0.606498
160964,27927,3,EA,1,100,0.606897
160998,27927,3,EA,1,100,0.606482
161048,27946,2,EA,1,100,0.606359
161099,27946,2,EA,1,100,0.606669
161149,27964,2,EA,1,100,0.606643
161200,27964,2,EA,1,100,0.606566
161250,27982,2,EA,1,100,0.606357
161301,27982,2,EA,1,100,0.606516
161351,28000,2,EA,1,100,0.606619
161402,28000,2,EA,1,100,0.606530
161452,28018,2,EA,1,100,0.606526
161503,28018,2,EA,1,100,0.606250
161553,28036,2,EA,1,100,0.606822
161604,28036,2,EA,1,100,0.606413
161654,28054,2,EA,1,100,0.606296
161705,28054,2,EA,1,100,0.606623
161755,28073,2,EA,1,100,0.606786
161806,28073,2,EA,1,100,0.606145
161856,28091,2,EA,1,100,0.606306
161907,28091,2,EA,1,100,0.606313
161957,28109,2,EA,1,100,0.606391
162008,28109,2,EA,1,100,0.606393
162058,28127,2,EA,1,100,0.606077
162109,28127,2,EA,1,100,0.606079
162159,28145,2,EA,1,100,0.606514
162210,28145,2,EA,1,100,0.606321
162260,28163,2,EA,1,100,0.606139
162311,28163,2,EA,1,100,0.606367
162361,28181,2,EA,1,100,0.606234
162412,28181,2,EA,1,100,0.606280
162445,28199,3,EA,1,100,0.606065
162479,28199,3,EA,1,100,0.606006
162513,28199,3,EA,1,100,0.606188
162563,28218,2,EA,1,100,0.606075
162614,28218,2,EA,1,100,0.606238
162664,28236,2,EA,1,100,0.605882
162715,28236,2,EA,1,100,0.606057
162765,28254,2,EA,1,100,0.606027
162816,28254,2,EA,1,100,0.606004
162866,28272,2,EA,1,100,0.606055
162917,28272,2,EA,1,100,0.605861
162967,28290,2,EA,1,100,0.606077
163018,28290,2,EA,1,100,0.606047
163068,28308,2,EA,1,100,0.605970
163119,28308,2,EA,1,100,0.605769
163169,28326,2,EA,1,100,0.605940
163220,28326,2,EA,1,100,0.605916
163270,28345,2,EA,1,100,0.605751
163321,28345,2,EA,1,100,0.605662
163371,28363,2,EA,1,100,0.605829
163422,28363,2,EA,1,100,0.605547
163472,28381,2,EA,1,100,0.605628
163523,28381,2,EA,1,100,0.605710
163573,28399,2,EA,1,100,0.605473
163624,28399,2,EA,1,100,0.605638
163674,28417,2,EA,1,100,0.605797
163725,28417,2,EA,1,100,0.605267
163775,28435,2,EA,1,100,0.605716
163826,28435,2,EA,1,100,0.605793
163876,28453,2,EA,1,100,0.605467
163927,28453,2,EA,1,100,0.605813
163977,28472,2,EA,1,100,0.605680
164028,28472,2,EA,1,100,0.605712
164061,28490,3,EA,1,100,0.605569
164095,28490,3,EA,1,100,0.605358
164129,28490,3,EA,1,100,0.605320
164179,28508,2,EA,1,100,0.605571
164230,28508,2,EA,1,100,0.605281
164280,28526,2,EA,1,100,0.605354
164331,28526,2,EA,1,100,0.605712
164381,28544,2,EA,1,100,0.605444
164432,28544,2,EA,1,100,0.605156
164482,28562,2,EA,1,100,0.605436
164533,28562,2,EA,1,100,0.605344
164583,28580,2,EA,1,100,0.605279
164634,28580,2,EA,1,100,0.605326
164684,28598,2,EA,1,100,0.605243
164735,28598,2,EA,1,100,0.605207
164785,28617,2,EA,1,100,0.605287
164836,28617,2,EA,1,100,0.605130
164886,28635,2,EA,1,100,0.604991
164937,28635,2,EA,1,100,0.604850
164987,28653,2,EA,1,100,0.605098
165038,28653,2,EA,1,100,0.605116
165088,28671,2,EA,1,100,0.605088
165139,28671,2,EA,1,100,0.604228
165189,28689,2,EA,1,100,0.604937
165240,28689,2,EA,1,100,0.605056
165290,28707,2,EA,1,100,0.604885
165341,28707,2,EA,1,100,0.604856
165391,28725,2,EA,1,100,0.604995
165442,28725,2,EA,1,100,0.604814
165492,28744,2,EA,1,100,0.604643
165543,28744,2,EA,1,100,0.604528
165576,28762,3,EA,1,100,0.604814
165610,28762,3,EA,1,100,0.604621
165644,28762,3,EA,1,100,0.604669
165694,28780,2,EA,1,100,0.604889
165745,28780,2,EA,1,100,0.604615
165795,28798,2,EA,1,100,0.604995
165846,28798,2,EA,1,100,0.604492
165896,28816,2,EA,1,100,0.604443
165947,28816,2,EA,1,100,0.604639
165997,28834,2,EA,1,100,0.604784
166048,28834,2,EA,1,100,0.604264
166098,28852,2,EA,1,100,0.604699
166149,28852,2,EA,1,100,0.604604
166199,28870,2,EA,1,100,0.604447
166250,28870,2,EA,1,100,0.604466
166300,28889,2,EA,1,100,0.604663
166351,28889,2,EA,1,100,0.604554
166401,28907,2,EA,1,100,0.604361
166452,28907,2,EA,1,100,0.604369
166502,28925,2,EA,1,100,0.604103
166553,28925,2,EA,1,100,0.604365
166603,28943,2,EA,1,100,0.604449
166654,28943,2,EA,1,100,0.604188
166704,28961,2,EA,1,100,0.604208
166755,28961,2,EA,1,100,0.604190
166805,28979,2,EA,1,100,0.604373
166856,28979,2,EA,1,100,0.604329
166906,28997,2,EA,1,100,0.604049
166957,28997,2,EA,1,100,0.604129
167007,29016,2,EA,1,100,0.603968
167058,29016,2,EA,1,100,0.604107
167108,29034,2,EA,1,100,0.603603
167159,29034,2,EA,1,100,0.603869
167192,29052,3,EA,1,100,0.604035
167226,29052,3,EA,1,100,0.603799
167260,29052,3,EA,1,100,0.603791
167310,29070,2,EA,1,100,0.603477
167361,29070,2,EA,1,100,0.603432
167411,29088,2,EA,1,100,0.603340
167462,29088,2,EA,1,100,0.603205
167512,29106,2,EA,1,100,0.603106
167563,29106,2,EA,1,100,0.602737
167613,29124,2,EA,1,100,0.602421
167664,29124,2,EA,1,100,0.602474
167714,29143,2,EA,1,100,0.602135
167765,29143,2,EA,1,100,0.602004
167810,29164,4,EA,1,100,0.602409
167856,29164,4,EA,1,100,0.602274
167901,29164,4,EA,1,100,0.602049
167947,29164,4,EA,1,100,0.602550
167998,29184,2,EA,1,100,0.602457
168049,29184,2,EA,1,100,0.602282
168099,29202,2,EA,1,100,0.602520
168150,29202,2,EA,1,100,0.602065
168200,29220,2,EA,1,100,0.602190
168251,29220,2,EA,1,100,0.602310
168301,29238,2,EA,1,100,0.602562
168352,29238,2,EA,1,100,0.602639
168402,29256,2,EA,1,100,0.602270
168453,29256,2,EA,1,100,0.602071
168503,29275,2,EA,1,100,0.602230
168554,29275,2,EA,1,100,0.602510
168604,29293,2,EA,1,100,0.602383
168655,29293,2,EA,1,100,0.603122
168705,29311,2,EA,1,100,0.603197
168756,29311,2,EA,1,100,0.603265
168806,29329,2,EA,1,100,0.603279
168857,29329,2,EA,1,100,0.603406
168907,29347,2,EA,1,100,0.603591
168958,29347,2,EA,1,100,0.603342
169008,29365,2,EA,1,100,0.603483
169059,29365,2,EA,1,100,0.603342
169109,29383,2,EA,1,100,0.603670
169160,29383,2,EA,1,100,0.604147
169210,29402,2,EA,1,100,0.604149
169261,29402,2,EA,1,100,0.604022
169311,29420,2,EA,1,100,0.604292
169362,29420,2,EA,1,100,0.604258
169395,29438,3,EA,1,100,0.603825
169429,29438,3,EA,1,100,0.603908
169463,29438,3,EA,1,100,0.604111
169513,29456,2,EA,1,100,0.603883
169564,29456,2,EA,1,100,0.603845
169614,29474,2,EA,1,100,0.603753
169665,29474,2,EA,1,100,0.603696
169715,29492,2,EA,1,100,0.603599
169766,29492,2,EA,1,100,0.603747
169816,29510,2,EA,1,100,0.603420
169867,29510,2,EA,1,100,0.603438
169917,29528,2,EA,1,100,0.603084
169968,29528,2,EA,1,100,0.603390
170018,29547,2,EA,1,100,0.603585
170069,29547,2,EA,1,100,0.604109
170113,29565,4,EA,1,100,0.603940
170157,29565,4,EA,1,100,0.604721
170201,29565,4,EA,1,100,0.605015
170245,29565,4,EA,1,100,0.605368
170295,29583,2,EA,1,100,0.605666
170346,29583,2,EA,1,100,0.605575
170396,29601,2,EA,1,100,0.606238
170447,29601,2,EA,1,100,0.606405
170497,29619,2,EA,1,100,0.606822
170548,29619,2,EA,1,100,0.607314
170598,29637,2,EA,1,100,0.607527
170649,29637,2,EA,1,100,0.607811
170699,29656,2,EA,1,100,0.607803
170750,29656,2,EA,1,100,0.608629
170800,29674,2,EA,1,100,0.608605
170851,29674,2,EA,1,100,0.608711
170901,29692,2,EA,1,100,0.608995
170952,29692,2,EA,1,100,0.608782
171002,29710,2,EA,1,100,0.609195
171053,29710,2,EA,1,100,0.609056
171103,29728,2,EA,1,100,0.609374
171154,29728,2,EA,1,100,0.609165
171204,29746,2,EA,1,100,0.609507
171255,29746,2,EA,1,100,0.609122
171305,29764,2,EA,1,100,0.609114
171356,29764,2,EA,1,100,0.609140
171406,29782,2,EA,1,100,0.609074
171457,29782,2,EA,1,100,0.608987
171507,29801,2,EA,1,100,0.608832
171558,29801,2,EA,1,100,0.608724
171608,29819,2,EA,1,100,0.608720
171659,29819,2,EA,1,100,0.608639
171692,29837,3,EA,1,100,0.608325
171726,29837,3,EA,1,100,0.608107
171760,29837,3,EA,1,100,0.608311
171810,29855,2,EA,1,100,0.608504
171861,29855,2,EA,1,100,0.608429
171911,29873,2,EA,1,100,0.608536
171962,29873,2,EA,1,100,0.608699
172012,29891,2,EA,1,100,0.608695
172063,29891,2,EA,1,100,0.608822
172113,29909,2,EA,1,100,0.608685
172164,29909,2,EA,1,100,0.608669
172214,29928,2,EA,1,100,0.608860
172265,29928,2,EA,1,100,0.608496
172315,29946,2,EA,1,100,0.608385
172366,29946,2,EA,1,100,0.609036
172416,29964,2,EA,1,100,0.609120
172467,29964,2,EA,1,100,0.609112
172517,29982,2,EA,1,100,0.608687
172568,29982,2,EA,1,100,0.609014
172618,30000,2,EA,1,100,0.608975
172669,30000,2,EA,1,100,0.609060
172719,30018,2,EA,1,100,0.608834
172770,30018,2,EA,1,100,0.608969
172820,30036,2,EA,1,100,0.609185
172871,30036,2,EA,1,100,0.609064
172921,30054,2,EA,1,100,0.608790
172972,30054,2,EA,1,100,0.609046
173022,30073,2,EA,1,100,0.609114
173073,30073,2,EA,1,100,0.609247
173123,30091,2,EA,1,100,0.609052
173174,30091,2,EA,1,100,0.609191
173224,30109,2,EA,1,100,0.608925
173275,30109,2,EA,1,100,0.609350
173308,30127,3,EA,1,100,0.609352
173342,30127,3,EA,1,100,0.608903
173376,30127,3,EA,1,100,0.609461
173426,30145,2,EA,1,100,0.609044
173477,30145,2,EA,1,100,0.609509
173527,30163,2,EA,1,100,0.609165
173578,30163,2,EA,1,100,0.609285
173628,30181,2,EA,1,100,0.609199
173679,30181,2,EA,1,100,0.609314
173729,30200,2,EA,1,100,0.609114
173780,30200,2,EA,1,100,0.609080
173830,30218,2,EA,1,100,0.609151
173881,30218,2,EA,1,100,0.609227
173931,30236,2,EA,1,100,0.609084
173982,30236,2,EA,1,100,0.609298
174032,30254,2,EA,1,100,0.608963
174083,30254,2,EA,1,100,0.609040
174133,30272,2,EA,1,100,0.608993
174184,30272,2,EA,1,100,0.609084
174234,30290,2,EA,1,100,0.608965
174285,30290,2,EA,1,100,0.609219
174335,30308,2,EA,1,100,0.608818
174386,30308,2,EA,1,100,0.608929
174436,30327,2,EA,1,100,0.608911
174487,30327,2,EA,1,100,0.609056
174537,30345,2,EA,1,100,0.608997
174588,30345,2,EA,1,100,0.608931
174638,30363,2,EA,1,100,0.608925
174689,30363,2,EA,1,100,0.608703
174739,30381,2,EA,1,100,0.608800
174790,30381,2,EA,1,100,0.608836
174823,30399,3,EA,1,100,0.608705
174857,30399,3,EA,1,100,0.608792
174891,30399,3,EA,1,100,0.608903
174941,30417,2,EA,1,100,0.608518
174992,30417,2,EA,1,100,0.608720
175042,30435,2,EA,1,100,0.608691
175093,30435,2,EA,1,100,0.608810
175143,30453,2,EA,1,100,0.608568
175194,30453,2,EA,1,100,0.608613
175244,30472,2,EA,1,100,0.608713
175295,30472,2,EA,1,100,0.608625
175345,30490,2,EA,1,100,0.608637
175396,30490,2,EA,1,100,0.608327
175446,30508,2,EA,1,100,0.608476
175497,30508,2,EA,1,100,0.608284
175547,30526,2,EA,1,100,0.608160
175598,30526,2,EA,1,100,0.608492
175648,30544,2,EA,1,100,0.608512
175699,30544,2,EA,1,100,0.608278
175749,30562,2,EA,1,100,0.608293
175800,30562,2,EA,1,100,0.608097
175850,30580,2,EA,1,100,0.608230
175901,30580,2,EA,1,100,0.608198
175951,30599,2,EA,1,100,0.608363
176002,30599,2,EA,1,100,0.608180
176052,30617,2,EA,1,100,0.608202
176103,30617,2,EA,1,100,0.608075
176153,30635,2,EA,1,100,0.607914
176204,30635,2,EA,1,100,0.608087
176254,30653,2,EA,1,100,0.607815
176305,30653,2,EA,1,100,0.607938
176338,30671,3,EA,1,100,0.607861
176372,30671,3,EA,1,100,0.607608
176406,30671,3,EA,1,100,0.607680
176456,30689,2,EA,1,100,0.607910
176507,30689,2,EA,1,100,0.607688
176557,30707,2,EA,1,100,0.607849
176608,30707,2,EA,1,100,0.607652
176658,30726,2,EA,1,100,0.607823
176709,30726,2,EA,1,100,0.607575
176759,30744,2,EA,1,100,0.607344
176810,30744,2,EA,1,100,0.607646
176860,30762,2,EA,1,100,0.607642
176911,30762,2,EA,1,100,0.607841
176961,30780,2,EA,1,100,0.607308
177012,30780,2,EA,1,100,0.607430
177062,30798,2,EA,1,100,0.607424
177113,30798,2,EA,1,100,0.607402
177163,30816,2,EA,1,100,0.607146
177214,30816,2,EA,1,100,0.607505
177264,30834,2,EA,1,100,0.607483
177315,30834,2,EA,1,100,0.607394
177365,30852,2,EA,1,100,0.607312
177416,30852,2,EA,1,100,0.607110
177466,30871,2,EA,1,100,0.607114
177517,30871,2,EA,1,100,0.607465
177567,30889,2,EA,1,100,0.607320
177618,30889,2,EA,1,100,0.606983
177668,30907,2,EA,1,100,0.607632
177719,30907,2,EA,1,100,0.607273
177769,30925,2,EA,1,100,0.607388
177820,30925,2,EA,1,100,0.607066
177853,30943,3,EA,1,100,0.607376
177887,30943,3,EA,1,100,0.607199
177921,30943,3,EA,1,100,0.607088
177971,30961,2,EA,1,100,0.607195
178022,30961,2,EA,1,100,0.606826
178072,30979,2,EA,1,100,0.607457
178123,30979,2,EA,1,100,0.606776
178173,30998,2,EA,1,100,0.606862
178224,30998,2,EA,1,100,0.606919
178274,31016,2,EA,1,100,0.606933
178325,31016,2,EA,1,100,0.606480
178375,31034,2,EA,1,100,0.606629
178426,31034,2,EA,1,100,0.606750
178476,31052,2,EA,1,100,0.606597
178527,31052,2,EA,1,100,0.606816
178577,31070,2,EA,1,100,0.606518
178628,31070,2,EA,1,100,0.606240
178678,31088,2,EA,1,100,0.606371
178729,31088,2,EA,1,100,0.606425
178782,31109,3,EA,1,100,0.605884
178836,31109,3,EA,1,100,0.605912
178890,31109,3,EA,1,100,0.605998
178940,31130,2,EA,1,100,0.605694
178991,31130,2,EA,1,100,0.605604
179041,31148,2,EA,1,100,0.605747
179092,31148,2,EA,1,100,0.605332
179125,31166,3,EA,1,100,0.605424
179159,31166,3,EA,1,100,0.605332
179193,31166,3,EA,1,100,0.605106
179243,31184,2,EA,1,100,0.604673
179294,31184,2,EA,1,100,0.604931
179344,31202,2,EA,1,100,0.604737
179395,31202,2,EA,1,100,0.604490
179445,31220,2,EA,1,100,0.604091
179496,31220,2,EA,1,100,0.604315
179546,31238,2,EA,1,100,0.604272
179597,31238,2,EA,1,100,0.603924
179647,31257,2,EA,1,100,0.603710
179698,31257,2,EA,1,100,0.603831
179748,31275,2,EA,1,100,0.604151
179799,31275,2,EA,1,100,0.603682
179849,31293,2,EA,1,100,0.603505
179900,31293,2,EA,1,100,0.603364
179950,31311,2,EA,1,100,0.604127
180001,31311,2,EA,1,100,0.603890
180051,31329,2,EA,1,100,0.603491
180102,31329,2,EA,1,100,0.603712
180152,31347,2,EA,1,100,0.604176
180203,31347,2,EA,1,100,0.604097
180253,31365,2,EA,1,100,0.603642
180304,31365,2,EA,1,100,0.603519
180354,31383,2,EA,1,100,0.603827
180405,31383,2,EA,1,100,0.603904
180455,31402,2,EA,1,100,0.603640
180506,31402,2,EA,1,100,0.603630
180556,31420,2,EA,1,100,0.603994
180607,31420,2,EA,1,100,0.604022
180657,31438,2,EA,1,100,0.603575
180708,31438,2,EA,1,100,0.603791
180741,31456,3,EA,1,100,0.603650
180775,31456,3,EA,1,100,0.603563
180809,31456,3,EA,1,100,0.603656
180859,31474,2,EA,1,100,0.603698
180910,31474,2,EA,1,100,0.603986
180960,31492,2,EA,1,100,0.604381
181011,31492,2,EA,1,100,0.603674
181061,31510,2,EA,1,100,0.603710
181112,31510,2,EA,1,100,0.604167
181162,31529,2,EA,1,100,0.604159
181213,31529,2,EA,1,100,0.603821
181263,31547,2,EA,1,100,0.603896
181314,31547,2,EA,1,100,0.604149
181364,31565,2,EA,1,100,0.604045
181415,31565,2,EA,1,100,0.603932
181465,31583,2,EA,1,100,0.603789
181516,31583,2,EA,1,100,0.604067
181566,31601,2,EA,1,100,0.604367
181617,31601,2,EA,1,100,0.604169
181667,31619,2,EA,1,100,0.603849
181718,31619,2,EA,1,100,0.604240
181768,31637,2,EA,1,100,0.603946
181819,31637,2,EA,1,100,0.604121
181869,31655,2,EA,1,100,0.603686
181920,31655,2,EA,1,100,0.604109
181970,31674,2,EA,1,100,0.603916
182021,31674,2,EA,1,100,0.603998
182071,31692,2,EA,1,100,0.603622
182122,31692,2,EA,1,100,0.603618
182172,31710,2,EA,1,100,0.603894
182223,31710,2,EA,1,100,0.604073
182256,31728,3,EA,1,100,0.603545
182290,31728,3,EA,1,100,0.603867
182324,31728,3,EA,1,100,0.604008
182374,31746,2,EA,1,100,0.603793
182425,31746,2,EA,1,100,0.603688
182475,31764,2,EA,1,100,0.603485
182526,31764,2,EA,1,100,0.603694
182576,31782,2,EA,1,100,0.603791
182627,31782,2,EA,1,100,0.603761
182677,31801,2,EA,1,100,0.603336
182728,31801,2,EA,1,100,0.603716
182778,31819,2,EA,1,100,0.603753
182829,31819,2,EA,1,100,0.603531
182879,31837,2,EA,1,100,0.603499
182930,31837,2,EA,1,100,0.603549
182980,31855,2,EA,1,100,0.603688
183031,31855,2,EA,1,100,0.603757
183081,31873,2,EA,1,100,0.603364
183132,31873,2,EA,1,100,0.603197
183182,31891,2,EA,1,100,0.603525
183233,31891,2,EA,1,100,0.603434
183283,31909,2,EA,1,100,0.603217
183334,31909,2,EA,1,100,0.603426
183384,31928,2,EA,1,100,0.603664
183435,31928,2,EA,1,100,0.603102
183485,31946,2,EA,1,100,0.603362
183536,31946,2,EA,1,100,0.603164
183586,31964,2,EA,1,100,0.603158
183637,31964,2,EA,1,100,0.603017
183687,31982,2,EA,1,100,0.603134
183738,31982,2,EA,1,100,0.603128
183788,32000,2,EA,1,100,0.603197
183839,32000,2,EA,1,100,0.603301
183872,32018,3,EA,1,100,0.603009
183906,32018,3,EA,1,100,0.603243
183940,32018,3,EA,1,100,0.602824
183990,32036,2,EA,1,100,0.602957
184041,32036,2,EA,1,100,0.602880
184091,32054,2,EA,1,100,0.602665
184142,32054,2,EA,1,100,0.602836
184192,32073,2,EA,1,100,0.602780
184243,32073,2,EA,1,100,0.602528
184293,32091,2,EA,1,100,0.602534
184344,32091,2,EA,1,100,0.602903
184394,32109,2,EA,1,100,0.602947
184445,32109,2,EA,1,100,0.602379
184495,32127,2,EA,1,100,0.602631
184546,32127,2,EA,1,100,0.602727
184596,32145,2,EA,1,100,0.602586
184647,32145,2,EA,1,100,0.602302
184697,32163,2,EA,1,100,0.602236
184748,32163,2,EA,1,100,0.602570
184798,32181,2,EA,1,100,0.602447
184849,32181,2,EA,1,100,0.602631
184899,32200,2,EA,1,100,0.602421
184950,32200,2,EA,1,100,0.602393
185000,32218,2,EA,1,100,0.602125
185051,32218,2,EA,1,100,0.602234
185101,32236,2,EA,1,100,0.602228
185152,32236,2,EA,1,100,0.602149
185202,32254,2,EA,1,100,0.602192
185253,32254,2,EA,1,100,0.602371
185303,32272,2,EA,1,100,0.602081
185354,32272,2,EA,1,100,0.601867
185404,32290,2,EA,1,100,0.602139
185455,32290,2,EA,1,100,0.602071
185488,32308,3,EA,1,100,0.601883
185522,32308,3,EA,1,100,0.601875
185556,32308,3,EA,1,100,0.602018
185606,32327,2,EA,1,100,0.601982
185657,32327,2,EA,1,100,0.601881
185707,32345,2,EA,1,100,0.601706
185758,32345,2,EA,1,100,0.601980
185808,32363,2,EA,1,100,0.602137
185859,32363,2,EA,1,100,0.601887
185909,32381,2,EA,1,100,0.601591
185960,32381,2,EA,1,100,0.601388
186010,32399,2,EA,1,100,0.601716
186061,32399,2,EA,1,100,0.601469
186111,32417,2,EA,1,100,0.601650
186162,32417,2,EA,1,100,0.601839
186212,32435,2,EA,1,100,0.601853
186263,32435,2,EA,1,100,0.601807
186313,32453,2,EA,1,100,0.601799
186364,32453,2,EA,1,100,0.601591
186414,32472,2,EA,1,100,0.601759
186465,32472,2,EA,1,100,0.601622
186515,32490,2,EA,1,100,0.601791
186566,32490,2,EA,1,100,0.601477
186616,32508,2,EA,1,100,0.601952
186667,32508,2,EA,1,100,0.601477
186717,32526,2,EA,1,100,0.601374
186768,32526,2,EA,1,100,0.601464
186818,32544,2,EA,1,100,0.601539
186869,32544,2,EA,1,100,0.601785
186902,32562,3,EA,1,100,0.601575
186936,32562,3,EA,1,100,0.601376
186970,32562,3,EA,1,100,0.601648
187020,32580,2,EA,1,100,0.601660
187071,32580,2,EA,1,100,0.601472
187121,32599,2,EA,1,100,0.601763
187172,32599,2,EA,1,100,0.601632
187222,32617,2,EA,1,100,0.601664
187273,32617,2,EA,1,100,0.601825
187323,32635,2,EA,1,100,0.601507
187374,32635,2,EA,1,100,0.601448
187424,32653,2,EA,1,100,0.601841
187475,32653,2,EA,1,100,0.601569
187525,32671,2,EA,1,100,0.601426
187576,32671,2,EA,1,100,0.601581
187626,32689,2,EA,1,100,0.601527
187677,32689,2,EA,1,100,0.601273
187727,32707,2,EA,1,100,0.601334
187778,32707,2,EA,1,100,0.601513
187828,32725,2,EA,1,100,0.601122
187879,32725,2,EA,1,100,0.601891
187929,32744,2,EA,1,100,0.601219
187980,32744,2,EA,1,100,0.601267
188030,32762,2,EA,1,100,0.601440
188081,32762,2,EA,1,100,0.601158
188131,32780,2,EA,1,100,0.601398
188182,32780,2,EA,1,100,0.601326
188232,32798,2,EA,1,100,0.601537
188283,32798,2,EA,1,100,0.601299
188333,32816,2,EA,1,100,0.601372
188384,32816,2,EA,1,100,0.601261
188434,32834,2,EA,1,100,0.601170
188485,32834,2,EA,1,100,0.601172
188535,32852,2,EA,1,100,0.601166
188586,32852,2,EA,1,100,0.601152
188619,32871,3,EA,1,100,0.601458
188653,32871,3,EA,1,100,0.601197
188687,32871,3,EA,1,100,0.600999
188737,32889,2,EA,1,100,0.601060
188788,32889,2,EA,1,100,0.601191
188838,32907,2,EA,1,100,0.601045
188889,32907,2,EA,1,100,0.600218
188939,32925,2,EA,1,100,0.600947
188990,32925,2,EA,1,100,0.600788
189040,32943,2,EA,1,100,0.600923
189091,32943,2,EA,1,100,0.600798
189141,32961,2,EA,1,100,0.600592
189192,32961,2,EA,1,100,0.601080
189242,32979,2,EA,1,100,0.600713
189293,32979,2,EA,1,100,0.601072
189343,32998,2,EA,1,100,0.600751
189394,32998,2,EA,1,100,0.600870
189444,33016,2,EA,1,100,0.600401
189495,33016,2,EA,1,100,0.600677
189545,33034,2,EA,1,100,0.600717
189596,33034,2,EA,1,100,0.600314
189641,33055,4,EA,1,100,0.600737
189686,33055,4,EA,1,100,0.600653
189731,33055,4,EA,1,100,0.600369
189776,33055,4,EA,1,100,0.600385
189826,33075,2,EA,1,100,0.600399
189877,33075,2,EA,1,100,0.600260
189927,33093,2,EA,1,100,0.600447
189978,33093,2,EA,1,100,0.600256
190028,33111,2,EA,1,100,0.599946
190079,33111,2,EA,1,100,0.600181
190129,33130,2,EA,1,100,0.600429
190180,33130,2,EA,1,100,0.600163
190230,33148,2,EA,1,100,0.600465
190281,33148,2,EA,1,100,0.600220
190331,33166,2,EA,1,100,0.600006
190382,33166,2,EA,1,100,0.600266
190432,33184,2,EA,1,100,0.599966
190483,33184,2,EA,1,100,0.600067
190533,33202,2,EA,1,100,0.600224
190584,33202,2,EA,1,100,0.600071
190634,33220,2,EA,1,100,0.599956
190685,33220,2,EA,1,100,0.600047
190735,33238,2,EA,1,100,0.599968
190786,33238,2,EA,1,100,0.599922
190819,33257,3,EA,1,100,0.599821
190853,33257,3,EA,1,100,0.600250
190887,33257,3,EA,1,100,0.600008
190937,33275,2,EA,1,100,0.599887
190988,33275,2,EA,1,100,0.599912
191038,33293,2,EA,1,100,0.599863
191089,33293,2,EA,1,100,0.599738
191139,33311,2,EA,1,100,0.599642
191190,33311,2,EA,1,100,0.599767
191240,33329,2,EA,1,100,0.599823
191291,33329,2,EA,1,100,0.599950
191341,33347,2,EA,1,100,0.599416
191392,33347,2,EA,1,100,0.599666
191442,33365,2,EA,1,100,0.599382
191493,33365,2,EA,1,100,0.599495
191543,33383,2,EA,1,100,0.599724
191594,33383,2,EA,1,100,0.599376
191644,33402,2,EA,1,100,0.599333
191695,33402,2,EA,1,100,0.599287
191745,33420,2,EA,1,100,0.599229
191796,33420,2,EA,1,100,0.599331
191846,33438,2,EA,1,100,0.599275
191897,33438,2,EA,1,100,0.599178
191947,33456,2,EA,1,100,0.599251
191998,33456,2,EA,1,100,0.599158
192048,33474,2,EA,1,100,0.599090
192099,33474,2,EA,1,100,0.598842
192149,33492,2,EA,1,100,0.599243
192200,33492,2,EA,1,100,0.598985
192250,33510,2,EA,1,100,0.599118
192301,33510,2,EA,1,100,0.598814
192334,33529,3,EA,1,100,0.598957
192368,33529,3,EA,1,100,0.598870
192402,33529,3,EA,1,100,0.598635
192452,33547,2,EA,1,100,0.598737
192503,33547,2,EA,1,100,0.598838
192553,33565,2,EA,1,100,0.599019
192604,33565,2,EA,1,100,0.598848
192654,33583,2,EA,1,100,0.598683
192705,33583,2,EA,1,100,0.598816
192755,33601,2,EA,1,100,0.598937
192806,33601,2,EA,1,100,0.598471
192856,33619,2,EA,1,100,0.598534
192907,33619,2,EA,1,100,0.598963
192957,33637,2,EA,1,100,0.598455
193008,33637,2,EA,1,100,0.598554
193058,33655,2,EA,1,100,0.598518
193109,33655,2,EA,1,100,0.598298
193159,33674,2,EA,1,100,0.598584
193210,33674,2,EA,1,100,0.598423
193260,33692,2,EA,1,100,0.598363
193311,33692,2,EA,1,100,0.598631
193361,33710,2,EA,1,100,0.598588
193412,33710,2,EA,1,100,0.598020
193462,33728,2,EA,1,100,0.598191
193513,33728,2,EA,1,100,0.598439
193563,33746,2,EA,1,100,0.598334
193614,33746,2,EA,1,100,0.598488
193664,33764,2,EA,1,100,0.598246
193715,33764,2,EA,1,100,0.597988
193765,33782,2,EA,1,100,0.598290
193816,33782,2,EA,1,100,0.598063
193849,33801,3,EA,1,100,0.598097
193883,33801,3,EA,1,100,0.598268
193917,33801,3,EA,1,100,0.598175
193967,33819,2,EA,1,100,0.598069
194018,33819,2,EA,1,100,0.597926
194068,33837,2,EA,1,100,0.597803
194119,33837,2,EA,1,100,0.598228
194169,33855,2,EA,1,100,0.598147
194220,33855,2,EA,1,100,0.597801
194270,33873,2,EA,1,100,0.597968
194321,33873,2,EA,1,100,0.598296
194371,33891,2,EA,1,100,0.598050
194422,33891,2,EA,1,100,0.598085
194472,33909,2,EA,1,100,0.597829
194523,33909,2,EA,1,100,0.597805
194573,33928,2,EA,1,100,0.598264
194624,33928,2,EA,1,100,0.598381
194674,33946,2,EA,1,100,0.597932
194725,33946,2,EA,1,100,0.597871
194775,33964,2,EA,1,100,0.597952
194826,33964,2,EA,1,100,0.597720
194876,33982,2,EA,1,100,0.597769
194927,33982,2,EA,1,100,0.597698
194977,34000,2,EA,1,100,0.597851
195028,34000,2,EA,1,100,0.597654
195078,34018,2,EA,1,100,0.597819
195129,34018,2,EA,1,100,0.597617
195179,34036,2,EA,1,100,0.597760
195230,34036,2,EA,1,100,0.597916
195280,34054,2,EA,1,100,0.597539
195331,34054,2,EA,1,100,0.597356
195381,34073,2,EA,1,100,0.597716
195432,34073,2,EA,1,100,0.597476
195465,34091,3,EA,1,100,0.597325
195499,34091,3,EA,1,100,0.597255
195533,34091,3,EA,1,100,0.597396
195583,34109,2,EA,1,100,0.597627
195634,34109,2,EA,1,100,0.597045
195684,34127,2,EA,1,100,0.597180
195735,34127,2,EA,1,100,0.597362
195785,34145,2,EA,1,100,0.597255
195836,34145,2,EA,1,100,0.596910
195886,34163,2,EA,1,100,0.597263
195937,34163,2,EA,1,100,0.597138
195988,34181,3,EA,1,100,0.597025
196039,34181,3,EA,1,100,0.597474
196091,34181,3,EA,1,100,0.597484
196141,34200,2,EA,1,100,0.596912
196192,34200,2,EA,1,100,0.597045
196242,34218,2,EA,1,100,0.596981
196293,34218,2,EA,1,100,0.596822
196343,34236,2,EA,1,100,0.597013
196394,34236,2,EA,1,100,0.596979
196444,34254,2,EA,1,100,0.596983
196495,34254,2,EA,1,100,0.596916
196545,34272,2,EA,1,100,0.596709
196596,34272,2,EA,1,100,0.596725
196646,34290,2,EA,1,100,0.596683
196697,34290,2,EA,1,100,0.596757
196747,34308,2,EA,1,100,0.596862
196798,34308,2,EA,1,100,0.596502
196831,34327,3,EA,1,100,0.597009
196865,34327,3,EA,1,100,0.596757
196899,34327,3,EA,1,100,0.596645
196949,34345,2,EA,1,100,0.596729
197000,34345,2,EA,1,100,0.596514
197050,34363,2,EA,1,100,0.596596
197101,34363,2,EA,1,100,0.596776
197151,34381,2,EA,1,100,0.596604
197202,34381,2,EA,1,100,0.596886
197252,34399,2,EA,1,100,0.596743
197303,34399,2,EA,1,100,0.596790
197353,34417,2,EA,1,100,0.596961
197404,34417,2,EA,1,100,0.596755
197454,34435,2,EA,1,100,0.596729
197505,34435,2,EA,1,100,0.597108
197555,34454,2,EA,1,100,0.596908
197606,34454,2,EA,1,100,0.596828
197656,34472,2,EA,1,100,0.597174
197707,34472,2,EA,1,100,0.596894
197757,34490,2,EA,1,100,0.596641
197808,34490,2,EA,1,100,0.597100
197858,34508,2,EA,1,100,0.596870
197909,34508,2,EA,1,100,0.596840
197959,34526,2,EA,1,100,0.595958
198010,34526,2,EA,1,100,0.595843
198060,34544,2,EA,1,100,0.596361
198111,34544,2,EA,1,100,0.596925
198161,34562,2,EA,1,100,0.596467
198212,34562,2,EA,1,100,0.596423
198262,34580,2,EA,1,100,0.596751
198313,34580,2,EA,1,100,0.596596
198346,34599,3,EA,1,100,0.596687
198380,34599,3,EA,1,100,0.596586
198414,34599,3,EA,1,100,0.597062
198464,34617,2,EA,1,100,0.596526
198515,34617,2,EA,1,100,0.596667
198565,34635,2,EA,1,100,0.596429
198616,34635,2,EA,1,100,0.596320
198666,34653,2,EA,1,100,0.596725
198717,34653,2,EA,1,100,0.596574
198767,34671,2,EA,1,100,0.595960
198818,34671,2,EA,1,100,0.596477
198868,34689,2,EA,1,100,0.596282
198919,34689,2,EA,1,100,0.596163
198969,34707,2,EA,1,100,0.596185
199020,34707,2,EA,1,100,0.596391
199070,34726,2,EA,1,100,0.596272
199121,34726,2,EA,1,100,0.596385
199171,34744,2,EA,1,100,0.596248
199222,34744,2,EA,1,100,0.595966
199272,34762,2,EA,1,100,0.596401
199323,34762,2,EA,1,100,0.596020
199373,34780,2,EA,1,100,0.596107
199424,34780,2,EA,1,100,0.595992
199474,34798,2,EA,1,100,0.595948
199525,34798,2,EA,1,100,0.596159
199575,34816,2,EA,1,100,0.596262
199626,34816,2,EA,1,100,0.596205
199676,34834,2,EA,1,100,0.596401
199727,34834,2,EA,1,100,0.596612
199777,34853,2,EA,1,100,0.596510
199828,34853,2,EA,1,100,0.596582
199878,34871,2,EA,1,100,0.597045
199929,34871,2,EA,1,100,0.597247
199979,34889,2,EA,1,100,0.597734
200030,34889,2,EA,1,100,0.598145
200063,34907,3,EA,1,100,0.598576
200097,34907,3,EA,1,100,0.598935
200131,34907,3,EA,1,100,0.599386
200181,34925,2,EA,1,100,0.599815
200232,34925,2,EA,1,100,0.600363
200282,34943,2,EA,1,100,0.601106
200333,34943,2,EA,1,100,0.601634
200383,34961,2,EA,1,100,0.601833
200434,34961,2,EA,1,100,0.602423
200484,34979,2,EA,1,100,0.602919
200535,34979,2,EA,1,100,0.603281
200587,35001,3,EA,1,100,0.603823
200640,35001,3,EA,1,100,0.604456
200693,35001,3,EA,1,100,0.604778
200743,35021,2,EA,1,100,0.605158
200794,35021,2,EA,1,100,0.605728
200844,35039,2,EA,1,100,0.605869
200895,35039,2,EA,1,100,0.606389
200945,35057,2,EA,1,100,0.606661
200996,35057,2,EA,1,100,0.606955
201046,35075,2,EA,1,100,0.607247
201097,35075,2,EA,1,100,0.607289
201147,35093,2,EA,1,100,0.607815
201198,35093,2,EA,1,100,0.607948
201248,35111,2,EA,1,100,0.608172
201299,35111,2,EA,1,100,0.608095
201332,35130,3,EA,1,100,0.608762
201366,35130,3,EA,1,100,0.608564
201400,35130,3,EA,1,100,0.608234
201450,35148,2,EA,1,100,0.608687
201501,35148,2,EA,1,100,0.608945
201551,35166,2,EA,1,100,0.608705
201602,35166,2,EA,1,100,0.608836
201652,35184,2,EA,1,100,0.608897
201703,35184,2,EA,1,100,0.608687
201753,35202,2,EA,1,100,0.608778
201804,35202,2,EA,1,100,0.608865
201854,35220,2,EA,1,100,0.608635
201905,35220,2,EA,1,100,0.608748
201955,35238,2,EA,1,100,0.608720
202006,35238,2,EA,1,100,0.608512
202056,35257,2,EA,1,100,0.608603
202107,35257,2,EA,1,100,0.608657
202157,35275,2,EA,1,100,0.608641
202208,35275,2,EA,1,100,0.608516
202258,35293,2,EA,1,100,0.608383
202309,35293,2,EA,1,100,0.608315
202359,35311,2,EA,1,100,0.608647
202410,35311,2,EA,1,100,0.608506
202460,35329,2,EA,1,100,0.608343
202511,35329,2,EA,1,100,0.608466
202561,35347,2,EA,1,100,0.608387
202612,35347,2,EA,1,100,0.608200
202662,35365,2,EA,1,100,0.608186
202713,35365,2,EA,1,100,0.608097
202763,35383,2,EA,1,100,0.608200
202814,35383,2,EA,1,100,0.608085
202864,35402,2,EA,1,100,0.607847
202915,35402,2,EA,1,100,0.607809
202965,35420,2,EA,1,100,0.608218
203016,35420,2,EA,1,100,0.607994
203049,35438,3,EA,1,100,0.607845
203083,35438,3,EA,1,100,0.607626
203117,35438,3,EA,1,100,0.607972
203167,35456,2,EA,1,100,0.607934
203218,35456,2,EA,1,100,0.607878
203268,35474,2,EA,1,100,0.607410
203319,35474,2,EA,1,100,0.607712
203369,35492,2,EA,1,100,0.607992
203420,35492,2,EA,1,100,0.607594
203470,35510,2,EA,1,100,0.607578
203521,35510,2,EA,1,100,0.607344
203571,35529,2,EA,1,100,0.607414
203622,35529,2,EA,1,100,0.607384
203672,35547,2,EA,1,100,0.607672
203723,35547,2,EA,1,100,0.607581
203773,35565,2,EA,1,100,0.607281
203824,35565,2,EA,1,100,0.607428
203874,35583,2,EA,1,100,0.606903
203925,35583,2,EA,1,100,0.607124
203975,35601,2,EA,1,100,0.607271
204026,35601,2,EA,1,100,0.607314
204076,35619,2,EA,1,100,0.607016
204127,35619,2,EA,1,100,0.607074
204177,35637,2,EA,1,100,0.607328
204228,35637,2,EA,1,100,0.607237
204278,35656,2,EA,1,100,0.606881
204329,35656,2,EA,1,100,0.606474
204379,35674,2,EA,1,100,0.606862
204430,35674,2,EA,1,100,0.606798
204463,35692,3,EA,1,100,0.606691
204497,35692,3,EA,1,100,0.606615
204531,35692,3,EA,1,100,0.606760
204581,35710,2,EA,1,100,0.606842
204632,35710,2,EA,1,100,0.606520
204682,35728,2,EA,1,100,0.606548
204733,35728,2,EA,1,100,0.606673
204783,35746,2,EA,1,100,0.606417
204834,35746,2,EA,1,100,0.606305
204884,35764,2,EA,1,100,0.606713
204935,35764,2,EA,1,100,0.606685
204985,35782,2,EA,1,100,0.606850
205036,35782,2,EA,1,100,0.606840
205086,35801,2,EA,1,100,0.606337
205137,35801,2,EA,1,100,0.606766
205187,35819,2,EA,1,100,0.606597
205238,35819,2,EA,1,100,0.606480
205288,35837,2,EA,1,100,0.606437
205339,35837,2,EA,1,100,0.606572
205389,35855,2,EA,1,100,0.606429
205440,35855,2,EA,1,100,0.606633
205490,35873,2,EA,1,100,0.606268
205541,35873,2,EA,1,100,0.606018
205591,35891,2,EA,1,100,0.606439
205642,35891,2,EA,1,100,0.606524
205692,35909,2,EA,1,100,0.606468
205743,35909,2,EA,1,100,0.606298
205793,35928,2,EA,1,100,0.606345
205844,35928,2,EA,1,100,0.606274
205894,35946,2,EA,1,100,0.606405
205945,35946,2,EA,1,100,0.605849
205995,35964,2,EA,1,100,0.605934
206046,35964,2,EA,1,100,0.606182
206079,35982,3,EA,1,100,0.606151
206113,35982,3,EA,1,100,0.606069
206147,35982,3,EA,1,100,0.606067
206197,36000,2,EA,1,100,0.606256
206248,36000,2,EA,1,100,0.605904
206298,36018,2,EA,1,100,0.605972
206349,36018,2,EA,1,100,0.606155
206399,36036,2,EA,1,100,0.606035
206450,36036,2,EA,1,100,0.605962
206500,36055,2,EA,1,100,0.606087
206551,36055,2,EA,1,100,0.606055
206601,36073,2,EA,1,100,0.605861
206652,36073,2,EA,1,100,0.605841
206702,36091,2,EA,1,100,0.605704
206753,36091,2,EA,1,100,0.605714
206803,36109,2,EA,1,100,0.605688
206854,36109,2,EA,1,100,0.605859
206904,36127,2,EA,1,100,0.605467
206955,36127,2,EA,1,100,0.605648
207005,36145,2,EA,1,100,0.605644
207056,36145,2,EA,1,100,0.605831
207106,36163,2,EA,1,100,0.604870
207157,36163,2,EA,1,100,0.604508
207207,36181,2,EA,1,100,0.605138
207258,36181,2,EA,1,100,0.605364
207308,36200,2,EA,1,100,0.605299
207359,36200,2,EA,1,100,0.604915
207409,36218,2,EA,1,100,0.605481
207460,36218,2,EA,1,100,0.605275
207510,36236,2,EA,1,100,0.605122
207561,36236,2,EA,1,100,0.605038
207594,36254,3,EA,1,100,0.605124
207628,36254,3,EA,1,100,0.605187
207662,36254,3,EA,1,100,0.604852
207712,36272,2,EA,1,100,0.604641
207763,36272,2,EA,1,100,0.605068
207813,36290,2,EA,1,100,0.605324
207864,36290,2,EA,1,100,0.604752
207914,36308,2,EA,1,100,0.604516
207965,36308,2,EA,1,100,0.604844
208015,36327,2,EA,1,100,0.605021
208066,36327,2,EA,1,100,0.604762
208116,36345,2,EA,1,100,0.604594
208167,36345,2,EA,1,100,0.604987
208217,36363,2,EA,1,100,0.605003
208268,36363,2,EA,1,100,0.604441
208318,36381,2,EA,1,100,0.604653
208369,36381,2,EA,1,100,0.604752
208419,36399,2,EA,1,100,0.604872
208470,36399,2,EA,1,100,0.604959
208520,36417,2,EA,1,100,0.604304
208571,36417,2,EA,1,100,0.604349
208621,36435,2,EA,1,100,0.604667
208672,36435,2,EA,1,100,0.604621
208722,36453,2,EA,1,100,0.604377
208773,36453,2,EA,1,100,0.604582
208823,36472,2,EA,1,100,0.604524
208874,36472,2,EA,1,100,0.604331
208924,36490,2,EA,1,100,0.604268
208975,36490,2,EA,1,100,0.604198
209025,36508,2,EA,1,100,0.604248
209076,36508,2,EA,1,100,0.604389
209109,36526,3,EA,1,100,0.603952
209143,36526,3,EA,1,100,0.603938
209177,36526,3,EA,1,100,0.604226
209227,36544,2,EA,1,100,0.604399
209278,36544,2,EA,1,100,0.604208
209328,36562,2,EA,1,100,0.603978
209379,36562,2,EA,1,100,0.604315
209429,36580,2,EA,1,100,0.604194
209480,36580,2,EA,1,100,0.603974
209530,36599,2,EA,1,100,0.603620
209581,36599,2,EA,1,100,0.603879
209631,36617,2,EA,1,100,0.604296
209682,36617,2,EA,1,100,0.603738
209732,36635,2,EA,1,100,0.603732
209783,36635,2,EA,1,100,0.603938
209833,36653,2,EA,1,100,0.603942
209884,36653,2,EA,1,100,0.604061
209934,36671,2,EA,1,100,0.603918
209985,36671,2,EA,1,100,0.603396
210035,36689,2,EA,1,100,0.603640
210086,36689,2,EA,1,100,0.603819
210136,36707,2,EA,1,100,0.603543
210187,36707,2,EA,1,100,0.603724
210237,36726,2,EA,1,100,0.603622
210288,36726,2,EA,1,100,0.603805
210338,36744,2,EA,1,100,0.602878
210389,36744,2,EA,1,100,0.603563
210439,36762,2,EA,1,100,0.603322
210490,36762,2,EA,1,100,0.603464
210540,36780,2,EA,1,100,0.603390
210591,36780,2,EA,1,100,0.603467
210641,36798,2,EA,1,100,0.603388
210692,36798,2,EA,1,100,0.603467
210725,36816,3,EA,1,100,0.603249
210759,36816,3,EA,1,100,0.603003
210793,36816,3,EA,1,100,0.603460
210843,36834,2,EA,1,100,0.603483
210894,36834,2,EA,1,100,0.603112
210944,36852,2,EA,1,100,0.603315
210995,36852,2,EA,1,100,0.603404
211045,36871,2,EA,1,100,0.603362
211096,36871,2,EA,1,100,0.603164
211146,36889,2,EA,1,100,0.602955
211197,36889,2,EA,1,100,0.603046
211247,36907,2,EA,1,100,0.603074
211298,36907,2,EA,1,100,0.603126
211348,36925,2,EA,1,100,0.602911
211399,36925,2,EA,1,100,0.602820
211444,36946,4,EA,1,100,0.602913
211490,36946,4,EA,1,100,0.603056
211535,36946,4,EA,1,100,0.602872
211581,36946,4,EA,1,100,0.602901
211631,36966,2,EA,1,100,0.602663
211682,36966,2,EA,1,100,0.602846
211732,36983,2,EA,1,100,0.602731
211783,36983,2,EA,1,100,0.602613
211833,37001,2,EA,1,100,0.602629
211884,37001,2,EA,1,100,0.602760
211934,37019,2,EA,1,100,0.602643
211985,37019,2,EA,1,100,0.602756
212035,37037,2,EA,1,100,0.602756
212086,37037,2,EA,1,100,0.602516
212136,37055,2,EA,1,100,0.602737
212187,37055,2,EA,1,100,0.602798
212237,37073,2,EA,1,100,0.602574
212288,37073,2,EA,1,100,0.602669
212338,37091,2,EA,1,100,0.602647
212389,37091,2,EA,1,100,0.602379
212439,37109,2,EA,1,100,0.602590
212490,37109,2,EA,1,100,0.602522
212540,37128,2,EA,1,100,0.602294
212591,37128,2,EA,1,100,0.602359
212641,37146,2,EA,1,100,0.602284
212692,37146,2,EA,1,100,0.602302
212742,37164,2,EA,1,100,0.602337
212793,37164,2,EA,1,100,0.602278
212826,37182,3,EA,1,100,0.602010
212860,37182,3,EA,1,100,0.602179
212894,37182,3,EA,1,100,0.602264
212944,37200,2,EA,1,100,0.602093
212995,37200,2,EA,1,100,0.602117
213045,37218,2,EA,1,100,0.602266
213096,37218,2,EA,1,100,0.601954
213146,37236,2,EA,1,100,0.602135
213197,37236,2,EA,1,100,0.601708
213247,37255,2,EA,1,100,0.601442
213298,37255,2,EA,1,100,0.601660
213348,37273,2,EA,1,100,0.601904
213399,37273,2,EA,1,100,0.601666
213450,37291,2,EA,1,100,0.601688
213501,37291,2,EA,1,100,0.601906
213551,37309,2,EA,1,100,0.601217
213602,37309,2,EA,1,100,0.601698
213652,37327,2,EA,1,100,0.601499
213703,37327,2,EA,1,100,0.601446
213753,37345,2,EA,1,100,0.601388
213804,37345,2,EA,1,100,0.601525
213854,37363,2,EA,1,100,0.601323
213905,37363,2,EA,1,100,0.601519
213955,37382,2,EA,1,100,0.601581
214006,37382,2,EA,1,100,0.601515
214056,37400,2,EA,1,100,0.601319
214107,37400,2,EA,1,100,0.601215
214157,37418,2,EA,1,100,0.601521
214208,37418,2,EA,1,100,0.601444
214258,37436,2,EA,1,100,0.600854
214309,37436,2,EA,1,100,0.600814
214342,37454,3,EA,1,100,0.601279
214376,37454,3,EA,1,100,0.601328
214410,37454,3,EA,1,100,0.601045
214460,37472,2,EA,1,100,0.601126
214511,37472,2,EA,1,100,0.601066
214561,37490,2,EA,1,100,0.601025
214612,37490,2,EA,1,100,0.601174
214662,37508,2,EA,1,100,0.600866
214713,37508,2,EA,1,100,0.600818
214763,37527,2,EA,1,100,0.600927
214814,37527,2,EA,1,100,0.600749
214864,37545,2,EA,1,100,0.600534
214915,37545,2,EA,1,100,0.600965
214965,37563,2,EA,1,100,0.600854
215016,37563,2,EA,1,100,0.600751
215066,37581,2,EA,1,100,0.600868
215117,37581,2,EA,1,100,0.600812
215167,37599,2,EA,1,100,0.600536
