87487,14762,3,EL,1,100,0.416730
87487,14762,3,EL,1,100,0.415320
87487,14762,3,EL,1,100,0.415521
87536,14780,2,EL,1,100,0.415118
87586,14780,2,EL,1,100,0.416327
87620,14798,3,EL,1,100,0.416931
87654,14798,3,EL,1,100,0.417133
87688,14798,3,EL,1,100,0.415924
87738,14816,2,EL,1,100,0.415924
87788,14816,2,EL,1,100,0.416931
87838,14834,2,EL,1,100,0.416125
87889,14834,2,EL,1,100,0.416730
87939,14853,2,EL,1,100,0.417133
87990,14853,2,EL,1,100,0.417334
88040,14871,2,EL,1,100,0.416528
88091,14871,2,EL,1,100,0.414917
88141,14889,2,EL,1,100,0.416125
88192,14889,2,EL,1,100,0.414716
88242,14907,2,EL,1,100,0.416730
88293,14907,2,EL,1,100,0.417133
88343,14925,2,EL,1,100,0.416125
88394,14925,2,EL,1,100,0.417535
88444,14943,2,EL,1,100,0.416327
88495,14943,2,EL,1,100,0.417334
88545,14961,2,EL,1,100,0.417334
88596,14961,2,EL,1,100,0.417133
88646,14980,2,EL,1,100,0.417334
88697,14980,2,EL,1,100,0.417334
88747,14998,2,EL,1,100,0.417535
88798,14998,2,EL,1,100,0.416931
88848,15016,2,EL,1,100,0.418945
88899,15016,2,EL,1,100,0.416931
88949,15034,2,EL,1,100,0.418140
89000,15034,2,EL,1,100,0.417938
89034,15052,3,EL,1,100,0.418542
89068,15052,3,EL,1,100,0.417938
89102,15052,3,EL,1,100,0.417334
89152,15070,2,EL,1,100,0.417535
89203,15070,2,EL,1,100,0.417334
89253,15088,2,EL,1,100,0.416931
89303,15088,2,EL,1,100,0.417334
89353,15106,2,EL,1,100,0.418140
89404,15106,2,EL,1,100,0.416730
89455,15125,2,EL,1,100,0.418542
89506,15125,2,EL,1,100,0.417737
89556,15143,2,EL,1,100,0.417535
89606,15143,2,EL,1,100,0.417938
89656,15161,2,EL,1,100,0.418140
89707,15161,2,EL,1,100,0.418542
89757,15179,2,EL,1,100,0.418744
89808,15179,2,EL,1,100,0.417334
89858,15197,2,EL,1,100,0.417535
89909,15197,2,EL,1,100,0.417737
89959,15215,2,EL,1,100,0.418542
90010,15215,2,EL,1,100,0.417133
90060,15233,2,EL,1,100,0.418341
90111,15233,2,EL,1,100,0.418945
90162,15252,2,EL,1,100,0.418341
90213,15252,2,EL,1,100,0.418542
90263,15270,2,EL,1,100,0.418542
90313,15270,2,EL,1,100,0.418945
90363,15288,2,EL,1,100,0.419147
90414,15288,2,EL,1,100,0.418744
90464,15306,2,EL,1,100,0.417737
90515,15306,2,EL,1,100,0.418542
90549,15324,3,EL,1,100,0.418744
90583,15324,3,EL,1,100,0.418945
90617,15324,3,EL,1,100,0.418744
90667,15342,2,EL,1,100,0.419147
90717,15342,2,EL,1,100,0.418140
90767,15360,2,EL,1,100,0.419550
90818,15360,2,EL,1,100,0.417535
90868,15378,2,EL,1,100,0.420154
90919,15378,2,EL,1,100,0.418744
90970,15397,2,EL,1,100,0.419550
91021,15397,2,EL,1,100,0.419147
91071,15415,2,EL,1,100,0.419751
91121,15415,2,EL,1,100,0.417535
91171,15433,2,EL,1,100,0.418140
91222,15433,2,EL,1,100,0.418945
91272,15451,2,EL,1,100,0.418341
91323,15451,2,EL,1,100,0.419348
91373,15469,2,EL,1,100,0.420154
91424,15469,2,EL,1,100,0.420154
91478,15490,3,EL,1,100,0.420154
91532,15490,3,EL,1,100,0.419550
91587,15490,3,EL,1,100,0.420154
91637,15511,2,EL,1,100,0.419550
91687,15511,2,EL,1,100,0.419952
91737,15528,2,EL,1,100,0.419751
91788,15528,2,EL,1,100,0.420959
91838,15546,2,EL,1,100,0.419952
91889,15546,2,EL,1,100,0.419348
91939,15564,2,EL,1,100,0.419147
91990,15564,2,EL,1,100,0.420758
92024,15582,3,EL,1,100,0.420758
92058,15582,3,EL,1,100,0.420154
92092,15582,3,EL,1,100,0.419751
92142,15600,2,EL,1,100,0.419147
92192,15600,2,EL,1,100,0.419550
92242,15618,2,EL,1,100,0.420355
92293,15618,2,EL,1,100,0.419550
92343,15636,2,EL,1,100,0.421161
92394,15636,2,EL,1,100,0.419550
92444,15655,2,EL,1,100,0.420557
92495,15655,2,EL,1,100,0.420355
92545,15673,2,EL,1,100,0.420154
92596,15673,2,EL,1,100,0.420758
92647,15691,2,EL,1,100,0.419751
92698,15691,2,EL,1,100,0.418945
92748,15709,2,EL,1,100,0.419751
92798,15709,2,EL,1,100,0.418542
92848,15727,2,EL,1,100,0.420758
92899,15727,2,EL,1,100,0.419348
92949,15745,2,EL,1,100,0.418744
93000,15745,2,EL,1,100,0.419147
93050,15763,2,EL,1,100,0.417334
93101,15763,2,EL,1,100,0.418140
93151,15782,2,EL,1,100,0.418542
93202,15782,2,EL,1,100,0.418341
93252,15800,2,EL,1,100,0.417535
93303,15800,2,EL,1,100,0.417737
93337,15818,3,EL,1,100,0.417737
93371,15818,3,EL,1,100,0.417334
93405,15818,3,EL,1,100,0.417535
93455,15836,2,EL,1,100,0.416528
93505,15836,2,EL,1,100,0.416327
93555,15854,2,EL,1,100,0.416125
93606,15854,2,EL,1,100,0.417334
93656,15872,2,EL,1,100,0.416125
93707,15872,2,EL,1,100,0.414917
93757,15890,2,EL,1,100,0.415118
93808,15890,2,EL,1,100,0.415521
93858,15909,2,EL,1,100,0.416327
93909,15909,2,EL,1,100,0.415723
93959,15927,2,EL,1,100,0.415118
94010,15927,2,EL,1,100,0.415118
94060,15945,2,EL,1,100,0.415723
94111,15945,2,EL,1,100,0.416125
94162,15963,2,EL,1,100,0.415320
94214,15963,2,EL,1,100,0.413507
94264,15981,2,EL,1,100,0.414111
94314,15981,2,EL,1,100,0.413507
94364,15999,2,EL,1,100,0.414514
94414,15999,2,EL,1,100,0.413507
94464,16017,2,EL,1,100,0.412903
94515,16017,2,EL,1,100,0.413306
94565,16035,2,EL,1,100,0.413104
94616,16035,2,EL,1,100,0.412903
94666,16054,2,EL,1,100,0.413104
94717,16054,2,EL,1,100,0.412299
94767,16072,2,EL,1,100,0.411694
94818,16072,2,EL,1,100,0.412097
94868,16090,2,EL,1,100,0.413104
94919,16090,2,EL,1,100,0.413104
94953,16108,3,EL,1,100,0.412299
94987,16108,3,EL,1,100,0.411896
95021,16108,3,EL,1,100,0.411292
95071,16126,2,EL,1,100,0.412500
95121,16126,2,EL,1,100,0.412097
95171,16144,2,EL,1,100,0.410284
95222,16144,2,EL,1,100,0.411694
95272,16162,2,EL,1,100,0.411694
95323,16162,2,EL,1,100,0.410284
95373,16181,2,EL,1,100,0.410889
95424,16181,2,EL,1,100,0.410486
95474,16199,2,EL,1,100,0.411493
95525,16199,2,EL,1,100,0.410889
95575,16217,2,EL,1,100,0.411896
95626,16217,2,EL,1,100,0.411090
95676,16235,2,EL,1,100,0.411090
95727,16235,2,EL,1,100,0.410486
95777,16253,2,EL,1,100,0.411292
95828,16253,2,EL,1,100,0.410889
95878,16271,2,EL,1,100,0.410486
95929,16271,2,EL,1,100,0.411292
95979,16289,2,EL,1,100,0.411090
96030,16289,2,EL,1,100,0.410083
96080,16307,2,EL,1,100,0.411090
96131,16307,2,EL,1,100,0.410083
96181,16326,2,EL,1,100,0.410889
96232,16326,2,EL,1,100,0.410083
96282,16344,2,EL,1,100,0.411896
96333,16344,2,EL,1,100,0.410687
96383,16362,2,EL,1,100,0.411090
96434,16362,2,EL,1,100,0.411694
96484,16380,2,EL,1,100,0.410687
96535,16380,2,EL,1,100,0.411694
96569,16398,3,EL,1,100,0.411292
96603,16398,3,EL,1,100,0.410889
96638,16398,3,EL,1,100,0.410687
96688,16416,2,EL,1,100,0.412500
96738,16416,2,EL,1,100,0.411493
96788,16434,2,EL,1,100,0.411090
96839,16434,2,EL,1,100,0.410889
96889,16453,2,EL,1,100,0.410687
96940,16453,2,EL,1,100,0.411694
96990,16471,2,EL,1,100,0.410687
97041,16471,2,EL,1,100,0.412097
97091,16489,2,EL,1,100,0.412097
97142,16489,2,EL,1,100,0.411493
97192,16507,2,EL,1,100,0.412097
97243,16507,2,EL,1,100,0.411493
97293,16525,2,EL,1,100,0.411694
97344,16525,2,EL,1,100,0.412500
97394,16543,2,EL,1,100,0.411896
97445,16543,2,EL,1,100,0.410889
97495,16561,2,EL,1,100,0.411694
97546,16561,2,EL,1,100,0.410083
97596,16580,2,EL,1,100,0.411896
97647,16580,2,EL,1,100,0.413708
97697,16598,2,EL,1,100,0.411493
97748,16598,2,EL,1,100,0.411896
97798,16616,2,EL,1,100,0.411896
97849,16616,2,EL,1,100,0.411292
97883,16634,3,EL,1,100,0.411694
97917,16634,3,EL,1,100,0.410889
97952,16634,3,EL,1,100,0.412903
98002,16652,2,EL,1,100,0.411896
98052,16652,2,EL,1,100,0.412500
98102,16670,2,EL,1,100,0.412500
98152,16670,2,EL,1,100,0.411694
98202,16688,2,EL,1,100,0.412500
98253,16688,2,EL,1,100,0.411493
98303,16706,2,EL,1,100,0.412299
98354,16706,2,EL,1,100,0.412903
98404,16725,2,EL,1,100,0.412097
98455,16725,2,EL,1,100,0.413104
98505,16743,2,EL,1,100,0.414111
98556,16743,2,EL,1,100,0.412903
98606,16761,2,EL,1,100,0.413507
98657,16761,2,EL,1,100,0.412903
98707,16779,2,EL,1,100,0.412701
98758,16779,2,EL,1,100,0.412903
98808,16797,2,EL,1,100,0.414514
98859,16797,2,EL,1,100,0.414514
98910,16815,2,EL,1,100,0.412701
98961,16815,2,EL,1,100,0.414313
99011,16833,2,EL,1,100,0.412097
99061,16833,2,EL,1,100,0.414716
99111,16852,2,EL,1,100,0.414514
99162,16852,2,EL,1,100,0.413910
99213,16870,2,EL,1,100,0.414111
99264,16870,2,EL,1,100,0.413104
99314,16888,2,EL,1,100,0.414514
99364,16888,2,EL,1,100,0.413910
99414,16906,2,EL,1,100,0.413910
99465,16906,2,EL,1,100,0.413306
99515,16924,2,EL,1,100,0.415118
99566,16924,2,EL,1,100,0.414917
99600,16942,3,EL,1,100,0.414111
99634,16942,3,EL,1,100,0.415320
99669,16942,3,EL,1,100,0.414313
99719,16960,2,EL,1,100,0.413910
99769,16960,2,EL,1,100,0.415118
99819,16978,2,EL,1,100,0.414313
99869,16978,2,EL,1,100,0.413306
99920,16997,2,EL,1,100,0.413910
99971,16997,2,EL,1,100,0.413708
100021,17015,2,EL,1,100,0.415320
100071,17015,2,EL,1,100,0.414111
100121,17033,2,EL,1,100,0.414917
100172,17033,2,EL,1,100,0.413306
100222,17051,2,EL,1,100,0.414514
100273,17051,2,EL,1,100,0.414716
100323,17069,2,EL,1,100,0.414917
100374,17069,2,EL,1,100,0.415118
100425,17087,2,EL,1,100,0.415320
100477,17087,2,EL,1,100,0.415118
100526,17105,2,EL,1,100,0.415320
100576,17105,2,EL,1,100,0.414514
100626,17124,2,EL,1,100,0.416125
100677,17124,2,EL,1,100,0.415320
100728,17142,2,EL,1,100,0.415723
100780,17142,2,EL,1,100,0.416327
100829,17160,2,EL,1,100,0.416528
100879,17160,2,EL,1,100,0.416730
100929,17178,2,EL,1,100,0.417334
100980,17178,2,EL,1,100,0.417133
101030,17196,2,EL,1,100,0.417133
101081,17196,2,EL,1,100,0.418140
101131,17214,2,EL,1,100,0.419751
101182,17214,2,EL,1,100,0.419952
101232,17232,2,EL,1,100,0.421564
101283,17232,2,EL,1,100,0.423779
101317,17251,3,EL,1,100,0.423578
101351,17251,3,EL,1,100,0.424786
101385,17251,3,EL,1,100,0.426196
101435,17269,2,EL,1,100,0.426196
101485,17269,2,EL,1,100,0.427002
101535,17287,2,EL,1,100,0.427203
101586,17287,2,EL,1,100,0.426599
101636,17305,2,EL,1,100,0.426599
101687,17305,2,EL,1,100,0.426196
101737,17323,2,EL,1,100,0.425391
101788,17323,2,EL,1,100,0.426196
101838,17341,2,EL,1,100,0.425793
101889,17341,2,EL,1,100,0.425189
101939,17359,2,EL,1,100,0.427405
101990,17359,2,EL,1,100,0.424182
102040,17377,2,EL,1,100,0.423981
102091,17377,2,EL,1,100,0.424384
102141,17396,2,EL,1,100,0.423376
102192,17396,2,EL,1,100,0.423779
102243,17414,2,EL,1,100,0.422772
102294,17414,2,EL,1,100,0.424182
102339,17435,4,EL,1,100,0.423578
102384,17435,4,EL,1,100,0.422571
102429,17435,4,EL,1,100,0.422571
102475,17435,4,EL,1,100,0.424384
102525,17454,2,EL,1,100,0.422974
102576,17454,2,EL,1,100,0.423981
102626,17473,2,EL,1,100,0.425995
102676,17473,2,EL,1,100,0.424786
102726,17491,2,EL,1,100,0.428210
102777,17491,2,EL,1,100,0.429016
102827,17510,2,EL,1,100,0.430829
102878,17510,2,EL,1,100,0.430627
102929,17528,2,EL,1,100,0.432037
102981,17528,2,EL,1,100,0.430829
103030,17546,2,EL,1,100,0.430225
103080,17546,2,EL,1,100,0.429016
103130,17564,2,EL,1,100,0.429620
103181,17564,2,EL,1,100,0.427606
103231,17582,2,EL,1,100,0.427606
103282,17582,2,EL,1,100,0.425995
103332,17600,2,EL,1,100,0.425995
103383,17600,2,EL,1,100,0.426196
103433,17618,2,EL,1,100,0.424786
103484,17618,2,EL,1,100,0.424988
103518,17636,3,EL,1,100,0.423779
103552,17636,3,EL,1,100,0.424384
103586,17636,3,EL,1,100,0.422974
103636,17655,2,EL,1,100,0.421564
103686,17655,2,EL,1,100,0.422772
103736,17673,2,EL,1,100,0.421362
103787,17673,2,EL,1,100,0.421967
103837,17691,2,EL,1,100,0.420355
103888,17691,2,EL,1,100,0.420959
103938,17709,2,EL,1,100,0.421765
103989,17709,2,EL,1,100,0.421161
104039,17727,2,EL,1,100,0.421967
104090,17727,2,EL,1,100,0.420959
104141,17745,2,EL,1,100,0.422974
104193,17745,2,EL,1,100,0.424182
104242,17763,2,EL,1,100,0.425793
104292,17763,2,EL,1,100,0.426599
104342,17782,2,EL,1,100,0.427808
104393,17782,2,EL,1,100,0.427405
104444,17801,2,EL,1,100,0.429218
104496,17801,2,EL,1,100,0.428613
104545,17819,2,EL,1,100,0.428613
104595,17819,2,EL,1,100,0.428210
104645,17837,2,EL,1,100,0.427203
104696,17837,2,EL,1,100,0.425592
104746,17855,2,EL,1,100,0.423981
104797,17855,2,EL,1,100,0.424384
104847,17873,2,EL,1,100,0.424384
104898,17873,2,EL,1,100,0.424988
104932,17891,3,EL,1,100,0.423578
104966,17891,3,EL,1,100,0.421967
105000,17891,3,EL,1,100,0.421564
105050,17909,2,EL,1,100,0.421362
105100,17909,2,EL,1,100,0.421765
105150,17928,2,EL,1,100,0.420355
105201,17928,2,EL,1,100,0.419348
105251,17946,2,EL,1,100,0.418744
105302,17946,2,EL,1,100,0.420154
105352,17964,2,EL,1,100,0.418341
105403,17964,2,EL,1,100,0.418744
105453,17982,2,EL,1,100,0.418945
105504,17982,2,EL,1,100,0.417737
105554,18000,2,EL,1,100,0.418542
105605,18000,2,EL,1,100,0.417737
105655,18018,2,EL,1,100,0.417535
105706,18018,2,EL,1,100,0.417334
105757,18036,2,EL,1,100,0.417334
105809,18036,2,EL,1,100,0.416528
105858,18055,2,EL,1,100,0.417535
105908,18055,2,EL,1,100,0.416730
105958,18073,2,EL,1,100,0.416931
106009,18073,2,EL,1,100,0.416730
106059,18091,2,EL,1,100,0.417938
106110,18091,2,EL,1,100,0.417133
106160,18109,2,EL,1,100,0.416931
106211,18109,2,EL,1,100,0.415521
106261,18127,2,EL,1,100,0.416528
106312,18127,2,EL,1,100,0.416125
106362,18145,2,EL,1,100,0.415723
106413,18145,2,EL,1,100,0.415521
106463,18163,2,EL,1,100,0.415521
106514,18163,2,EL,1,100,0.415723
106548,18182,3,EL,1,100,0.415924
106582,18182,3,EL,1,100,0.415320
106616,18182,3,EL,1,100,0.415723
106666,18200,2,EL,1,100,0.415320
106716,18200,2,EL,1,100,0.414716
106766,18218,2,EL,1,100,0.414716
106817,18218,2,EL,1,100,0.416327
106867,18236,2,EL,1,100,0.416125
106918,18236,2,EL,1,100,0.414716
106968,18254,2,EL,1,100,0.415320
107019,18254,2,EL,1,100,0.415320
107069,18272,2,EL,1,100,0.415924
107120,18272,2,EL,1,100,0.415320
107170,18290,2,EL,1,100,0.416730
107221,18290,2,EL,1,100,0.414917
107271,18308,2,EL,1,100,0.416327
107322,18308,2,EL,1,100,0.414917
107372,18327,2,EL,1,100,0.415118
107423,18327,2,EL,1,100,0.414716
107473,18345,2,EL,1,100,0.415924
107524,18345,2,EL,1,100,0.416327
107574,18363,2,EL,1,100,0.415723
107625,18363,2,EL,1,100,0.415521
107675,18381,2,EL,1,100,0.415320
107726,18381,2,EL,1,100,0.415723
107776,18399,2,EL,1,100,0.415723
107827,18399,2,EL,1,100,0.415723
107877,18417,2,EL,1,100,0.414917
107928,18417,2,EL,1,100,0.416528
107962,18435,3,EL,1,100,0.414716
107996,18435,3,EL,1,100,0.412701
108031,18435,3,EL,1,100,0.415723
108081,18454,2,EL,1,100,0.416528
108131,18454,2,EL,1,100,0.415723
108181,18472,2,EL,1,100,0.416125
108231,18472,2,EL,1,100,0.414716
108281,18490,2,EL,1,100,0.417133
108332,18490,2,EL,1,100,0.416931
108383,18508,2,EL,1,100,0.415118
108434,18508,2,EL,1,100,0.415118
108484,18526,2,EL,1,100,0.416327
108534,18526,2,EL,1,100,0.415320
108584,18544,2,EL,1,100,0.417334
108635,18544,2,EL,1,100,0.417133
108685,18562,2,EL,1,100,0.416125
108736,18562,2,EL,1,100,0.415723
108786,18581,2,EL,1,100,0.416730
108837,18581,2,EL,1,100,0.416730
108887,18599,2,EL,1,100,0.417334
108938,18599,2,EL,1,100,0.417133
108988,18617,2,EL,1,100,0.417535
109039,18617,2,EL,1,100,0.417535
109090,18635,2,EL,1,100,0.416730
109141,18635,2,EL,1,100,0.416931
109191,18653,2,EL,1,100,0.417938
109241,18653,2,EL,1,100,0.416125
109291,18671,2,EL,1,100,0.417938
109342,18671,2,EL,1,100,0.416931
109392,18689,2,EL,1,100,0.417737
109443,18689,2,EL,1,100,0.417535
109477,18707,3,EL,1,100,0.417334
109511,18707,3,EL,1,100,0.417334
109546,18707,3,EL,1,100,0.417737
109596,18726,2,EL,1,100,0.418140
109646,18726,2,EL,1,100,0.417938
109696,18744,2,EL,1,100,0.418341
109746,18744,2,EL,1,100,0.417535
109796,18762,2,EL,1,100,0.417334
109847,18762,2,EL,1,100,0.417334
109898,18780,2,EL,1,100,0.418945
109950,18780,2,EL,1,100,0.417535
109999,18798,2,EL,1,100,0.418744
110049,18798,2,EL,1,100,0.417938
110099,18816,2,EL,1,100,0.417133
110150,18816,2,EL,1,100,0.417535
110200,18834,2,EL,1,100,0.417334
110251,18834,2,EL,1,100,0.417938
110301,18853,2,EL,1,100,0.418542
110352,18853,2,EL,1,100,0.418542
110402,18871,2,EL,1,100,0.417938
110453,18871,2,EL,1,100,0.418140
110503,18889,2,EL,1,100,0.418542
110554,18889,2,EL,1,100,0.418542
110604,18907,2,EL,1,100,0.418140
110655,18907,2,EL,1,100,0.419348
110698,18925,4,EL,1,100,0.419550
110742,18925,4,EL,1,100,0.419952
110786,18925,4,EL,1,100,0.418744
110830,18925,4,EL,1,100,0.419348
110880,18943,2,EL,1,100,0.419550
110931,18943,2,EL,1,100,0.420758
110981,18960,2,EL,1,100,0.420154
111031,18960,2,EL,1,100,0.420758
111081,18979,2,EL,1,100,0.421161
111132,18979,2,EL,1,100,0.419751
111183,18997,2,EL,1,100,0.419952
111234,18997,2,EL,1,100,0.419751
111284,19015,2,EL,1,100,0.419550
111334,19015,2,EL,1,100,0.419348
111384,19033,2,EL,1,100,0.419348
111435,19033,2,EL,1,100,0.418744
111486,19051,2,EL,1,100,0.419751
111537,19051,2,EL,1,100,0.419751
111587,19069,2,EL,1,100,0.418744
111637,19069,2,EL,1,100,0.418341
111687,19087,2,EL,1,100,0.418945
111738,19087,2,EL,1,100,0.419952
111788,19106,2,EL,1,100,0.419751
111839,19106,2,EL,1,100,0.420557
111889,19124,2,EL,1,100,0.419952
111940,19124,2,EL,1,100,0.420758
111974,19142,3,EL,1,100,0.419751
112008,19142,3,EL,1,100,0.419952
112043,19142,3,EL,1,100,0.419751
112092,19160,2,EL,1,100,0.419952
112142,19160,2,EL,1,100,0.419751
112192,19178,2,EL,1,100,0.420557
112243,19178,2,EL,1,100,0.419550
112294,19196,2,EL,1,100,0.419952
112346,19196,2,EL,1,100,0.420154
112395,19214,2,EL,1,100,0.420355
112445,19214,2,EL,1,100,0.420355
112495,19232,2,EL,1,100,0.420758
112546,19232,2,EL,1,100,0.420557
112596,19251,2,EL,1,100,0.421362
112647,19251,2,EL,1,100,0.419952
112697,19269,2,EL,1,100,0.420355
112748,19269,2,EL,1,100,0.421161
112799,19287,2,EL,1,100,0.419550
112850,19287,2,EL,1,100,0.419751
112900,19305,2,EL,1,100,0.420557
112950,19305,2,EL,1,100,0.420355
113000,19323,2,EL,1,100,0.419952
113051,19323,2,EL,1,100,0.419952
113101,19341,2,EL,1,100,0.420959
113152,19341,2,EL,1,100,0.419751
113202,19359,2,EL,1,100,0.419751
113253,19359,2,EL,1,100,0.419751
113294,19381,4,EL,1,100,0.419348
113336,19381,4,EL,1,100,0.420758
113377,19381,4,EL,1,100,0.421765
113419,19381,4,EL,1,100,0.420355
113471,19401,2,EL,1,100,0.421765
113523,19401,2,EL,1,100,0.421362
113573,19419,2,EL,1,100,0.421967
113623,19419,2,EL,1,100,0.420959
113673,19437,2,EL,1,100,0.421967
113724,19437,2,EL,1,100,0.421362
113774,19455,2,EL,1,100,0.420959
113825,19455,2,EL,1,100,0.421362
113875,19473,2,EL,1,100,0.422168
113926,19473,2,EL,1,100,0.421564
113976,19491,2,EL,1,100,0.421765
114027,19491,2,EL,1,100,0.421765
114077,19510,2,EL,1,100,0.420959
114128,19510,2,EL,1,100,0.421161
114178,19528,2,EL,1,100,0.421161
114229,19528,2,EL,1,100,0.421967
114279,19546,2,EL,1,100,0.420154
114330,19546,2,EL,1,100,0.422369
114380,19564,2,EL,1,100,0.420557
114431,19564,2,EL,1,100,0.422571
114481,19582,2,EL,1,100,0.420154
114532,19582,2,EL,1,100,0.421362
114566,19600,3,EL,1,100,0.420557
114600,19600,3,EL,1,100,0.421161
114635,19600,3,EL,1,100,0.421161
114684,19618,2,EL,1,100,0.422168
114734,19618,2,EL,1,100,0.422369
114784,19637,2,EL,1,100,0.421362
114835,19637,2,EL,1,100,0.422772
114885,19655,2,EL,1,100,0.422571
114936,19655,2,EL,1,100,0.422168
114986,19673,2,EL,1,100,0.421362
115037,19673,2,EL,1,100,0.420557
115087,19691,2,EL,1,100,0.421967
115138,19691,2,EL,1,100,0.422772
115188,19709,2,EL,1,100,0.421362
115239,19709,2,EL,1,100,0.421967
115289,19727,2,EL,1,100,0.422571
115340,19727,2,EL,1,100,0.421765
115390,19745,2,EL,1,100,0.422772
115441,19745,2,EL,1,100,0.421967
115491,19763,2,EL,1,100,0.422369
115542,19763,2,EL,1,100,0.422369
115592,19782,2,EL,1,100,0.422571
115643,19782,2,EL,1,100,0.421967
115693,19800,2,EL,1,100,0.422168
115744,19800,2,EL,1,100,0.421564
115794,19818,2,EL,1,100,0.422369
115845,19818,2,EL,1,100,0.420959
115895,19836,2,EL,1,100,0.423981
115946,19836,2,EL,1,100,0.421967
115996,19854,2,EL,1,100,0.422369
116047,19854,2,EL,1,100,0.422571
116081,19872,3,EL,1,100,0.423376
116115,19872,3,EL,1,100,0.422369
116149,19872,3,EL,1,100,0.422974
116199,19890,2,EL,1,100,0.423175
116250,19890,2,EL,1,100,0.422168
116300,19909,2,EL,1,100,0.423779
116350,19909,2,EL,1,100,0.422571
116400,19927,2,EL,1,100,0.422974
116451,19927,2,EL,1,100,0.422974
116501,19945,2,EL,1,100,0.423981
116552,19945,2,EL,1,100,0.423175
116602,19963,2,EL,1,100,0.422974
116653,19963,2,EL,1,100,0.422571
116703,19981,2,EL,1,100,0.422168
116754,19981,2,EL,1,100,0.422974
116804,19999,2,EL,1,100,0.421967
116855,19999,2,EL,1,100,0.421967
116905,20017,2,EL,1,100,0.424786
116956,20017,2,EL,1,100,0.422369
117007,20036,2,EL,1,100,0.423175
117058,20036,2,EL,1,100,0.424786
117108,20054,2,EL,1,100,0.422974
117158,20054,2,EL,1,100,0.422974
117208,20072,2,EL,1,100,0.423981
117259,20072,2,EL,1,100,0.424585
117309,20090,2,EL,1,100,0.424182
117360,20090,2,EL,1,100,0.423779
117411,20108,2,EL,1,100,0.422571
117462,20108,2,EL,1,100,0.423779
117512,20126,2,EL,1,100,0.423578
117562,20126,2,EL,1,100,0.424786
117612,20144,2,EL,1,100,0.423779
117663,20144,2,EL,1,100,0.422772
117713,20162,2,EL,1,100,0.423779
117764,20162,2,EL,1,100,0.424384
117798,20181,3,EL,1,100,0.424585
117832,20181,3,EL,1,100,0.424182
117866,20181,3,EL,1,100,0.424585
117916,20199,2,EL,1,100,0.423175
117966,20199,2,EL,1,100,0.424585
118016,20217,2,EL,1,100,0.424585
118067,20217,2,EL,1,100,0.424585
118118,20235,2,EL,1,100,0.425189
118170,20235,2,EL,1,100,0.423578
118219,20253,2,EL,1,100,0.424384
118269,20253,2,EL,1,100,0.424988
118319,20271,2,EL,1,100,0.424384
118370,20271,2,EL,1,100,0.425189
118420,20289,2,EL,1,100,0.423175
118471,20289,2,EL,1,100,0.423779
118522,20308,2,EL,1,100,0.425391
118573,20308,2,EL,1,100,0.424585
118623,20326,2,EL,1,100,0.424384
118673,20326,2,EL,1,100,0.425793
118723,20344,2,EL,1,100,0.424786
118774,20344,2,EL,1,100,0.424585
118824,20362,2,EL,1,100,0.423981
118875,20362,2,EL,1,100,0.424988
118925,20380,2,EL,1,100,0.425793
118976,20380,2,EL,1,100,0.426801
119026,20398,2,EL,1,100,0.425391
119077,20398,2,EL,1,100,0.424988
119127,20416,2,EL,1,100,0.425391
119178,20416,2,EL,1,100,0.425995
119228,20435,2,EL,1,100,0.425793
119279,20435,2,EL,1,100,0.424384
119313,20453,3,EL,1,100,0.424585
119347,20453,3,EL,1,100,0.425592
119382,20453,3,EL,1,100,0.426599
119432,20471,2,EL,1,100,0.424384
119482,20471,2,EL,1,100,0.425189
119532,20489,2,EL,1,100,0.425793
119582,20489,2,EL,1,100,0.426599
119632,20507,2,EL,1,100,0.425391
119683,20507,2,EL,1,100,0.425995
119733,20525,2,EL,1,100,0.425995
119784,20525,2,EL,1,100,0.427002
119834,20543,2,EL,1,100,0.425995
119885,20543,2,EL,1,100,0.425189
119935,20561,2,EL,1,100,0.426801
119986,20561,2,EL,1,100,0.425391
120036,20580,2,EL,1,100,0.426599
120087,20580,2,EL,1,100,0.423779
120138,20598,2,EL,1,100,0.425189
120189,20598,2,EL,1,100,0.426599
120239,20616,2,EL,1,100,0.426599
120289,20616,2,EL,1,100,0.425592
120339,20634,2,EL,1,100,0.427002
120390,20634,2,EL,1,100,0.427405
120440,20652,2,EL,1,100,0.426196
120491,20652,2,EL,1,100,0.427002
120541,20670,2,EL,1,100,0.427002
120592,20670,2,EL,1,100,0.426398
120642,20688,2,EL,1,100,0.427405
120693,20688,2,EL,1,100,0.427002
120743,20707,2,EL,1,100,0.428009
120794,20707,2,EL,1,100,0.426599
120828,20725,3,EL,1,100,0.427405
120862,20725,3,EL,1,100,0.427002
120896,20725,3,EL,1,100,0.426801
120946,20743,2,EL,1,100,0.425995
120996,20743,2,EL,1,100,0.427405
121046,20761,2,EL,1,100,0.426599
121097,20761,2,EL,1,100,0.426398
121147,20779,2,EL,1,100,0.427405
121198,20779,2,EL,1,100,0.427203
121248,20797,2,EL,1,100,0.427808
121299,20797,2,EL,1,100,0.426801
121349,20815,2,EL,1,100,0.427606
121400,20815,2,EL,1,100,0.426801
121450,20833,2,EL,1,100,0.427002
121501,20833,2,EL,1,100,0.426196
121551,20852,2,EL,1,100,0.428613
121602,20852,2,EL,1,100,0.427606
121652,20870,2,EL,1,100,0.427606
121703,20870,2,EL,1,100,0.427203
121753,20888,2,EL,1,100,0.427405
121804,20888,2,EL,1,100,0.427606
121854,20906,2,EL,1,100,0.427002
121905,20906,2,EL,1,100,0.427405
121955,20924,2,EL,1,100,0.428009
122006,20924,2,EL,1,100,0.426398
122056,20942,2,EL,1,100,0.427002
122107,20942,2,EL,1,100,0.427606
122157,20960,2,EL,1,100,0.428412
122208,20960,2,EL,1,100,0.427808
122258,20979,2,EL,1,100,0.428009
122309,20979,2,EL,1,100,0.428009
122359,20997,2,EL,1,100,0.427606
122410,20997,2,EL,1,100,0.428613
122444,21015,3,EL,1,100,0.427808
122478,21015,3,EL,1,100,0.427203
122512,21015,3,EL,1,100,0.427405
122562,21033,2,EL,1,100,0.427002
122612,21033,2,EL,1,100,0.427203
122662,21051,2,EL,1,100,0.426801
122713,21051,2,EL,1,100,0.428009
122763,21069,2,EL,1,100,0.428815
122814,21069,2,EL,1,100,0.427606
122864,21087,2,EL,1,100,0.427203
122915,21087,2,EL,1,100,0.427405
122965,21106,2,EL,1,100,0.428210
123016,21106,2,EL,1,100,0.429218
123066,21124,2,EL,1,100,0.429822
123117,21124,2,EL,1,100,0.428412
123167,21142,2,EL,1,100,0.427606
123218,21142,2,EL,1,100,0.430023
123268,21160,2,EL,1,100,0.428210
123319,21160,2,EL,1,100,0.428815
123369,21178,2,EL,1,100,0.429218
123420,21178,2,EL,1,100,0.427808
123470,21196,2,EL,1,100,0.428815
123521,21196,2,EL,1,100,0.428815
123571,21214,2,EL,1,100,0.429419
123622,21214,2,EL,1,100,0.428412
123672,21232,2,EL,1,100,0.428210
123723,21232,2,EL,1,100,0.428009
123773,21251,2,EL,1,100,0.428009
123824,21251,2,EL,1,100,0.429016
123874,21269,2,EL,1,100,0.429218
123925,21269,2,EL,1,100,0.428815
123959,21287,3,EL,1,100,0.430023
123993,21287,3,EL,1,100,0.430829
124028,21287,3,EL,1,100,0.429016
124077,21305,2,EL,1,100,0.429016
124127,21305,2,EL,1,100,0.428815
124187,21326,3,EL,1,100,0.427606
124247,21326,3,EL,1,100,0.429822
124307,21326,3,EL,1,100,0.429620
124358,21346,2,EL,1,100,0.428613
124409,21346,2,EL,1,100,0.429620
124459,21365,2,EL,1,100,0.429016
124510,21365,2,EL,1,100,0.429822
124560,21383,2,EL,1,100,0.430829
124611,21383,2,EL,1,100,0.429016
124645,21401,3,EL,1,100,0.430426
124679,21401,3,EL,1,100,0.428815
124713,21401,3,EL,1,100,0.430627
124763,21419,2,EL,1,100,0.429419
124813,21419,2,EL,1,100,0.430627
124863,21437,2,EL,1,100,0.429822
124914,21437,2,EL,1,100,0.429419
124964,21455,2,EL,1,100,0.430225
125015,21455,2,EL,1,100,0.429218
125065,21473,2,EL,1,100,0.431030
125116,21473,2,EL,1,100,0.430627
125166,21491,2,EL,1,100,0.430426
125217,21491,2,EL,1,100,0.428613
125267,21510,2,EL,1,100,0.429218
125318,21510,2,EL,1,100,0.429620
125368,21528,2,EL,1,100,0.430627
125419,21528,2,EL,1,100,0.430426
125469,21546,2,EL,1,100,0.428815
125520,21546,2,EL,1,100,0.429016
125570,21564,2,EL,1,100,0.429822
125621,21564,2,EL,1,100,0.430627
125671,21582,2,EL,1,100,0.430023
125722,21582,2,EL,1,100,0.430627
125773,21600,2,EL,1,100,0.429822
125824,21600,2,EL,1,100,0.430225
125874,21618,2,EL,1,100,0.431232
125924,21618,2,EL,1,100,0.428613
125974,21637,2,EL,1,100,0.430829
126025,21637,2,EL,1,100,0.430225
126075,21655,2,EL,1,100,0.430225
126126,21655,2,EL,1,100,0.431635
126160,21673,3,EL,1,100,0.431433
126194,21673,3,EL,1,100,0.431433
126229,21673,3,EL,1,100,0.430023
126278,21691,2,EL,1,100,0.431030
126328,21691,2,EL,1,100,0.430627
126378,21709,2,EL,1,100,0.431433
126429,21709,2,EL,1,100,0.430426
126479,21727,2,EL,1,100,0.430829
126530,21727,2,EL,1,100,0.431433
126581,21745,2,EL,1,100,0.429218
126633,21745,2,EL,1,100,0.429620
126682,21763,2,EL,1,100,0.431232
126732,21763,2,EL,1,100,0.430829
126782,21782,2,EL,1,100,0.431836
126833,21782,2,EL,1,100,0.430829
126883,21800,2,EL,1,100,0.431836
126934,21800,2,EL,1,100,0.431030
126984,21818,2,EL,1,100,0.430225
127035,21818,2,EL,1,100,0.429822
127085,21836,2,EL,1,100,0.430829
127136,21836,2,EL,1,100,0.431836
127186,21854,2,EL,1,100,0.432642
127237,21854,2,EL,1,100,0.431635
127288,21872,2,EL,1,100,0.431836
127340,21872,2,EL,1,100,0.432037
127389,21890,2,EL,1,100,0.431836
127439,21890,2,EL,1,100,0.431030
127489,21909,2,EL,1,100,0.431232
127540,21909,2,EL,1,100,0.431635
127590,21927,2,EL,1,100,0.432440
127641,21927,2,EL,1,100,0.432037
127691,21945,2,EL,1,100,0.431433
127742,21945,2,EL,1,100,0.431836
127776,21963,3,EL,1,100,0.432843
127810,21963,3,EL,1,100,0.432642
127844,21963,3,EL,1,100,0.431635
127894,21981,2,EL,1,100,0.432239
127944,21981,2,EL,1,100,0.433044
127994,21999,2,EL,1,100,0.431836
128045,21999,2,EL,1,100,0.432642
128095,22017,2,EL,1,100,0.431635
128146,22017,2,EL,1,100,0.433447
128196,22036,2,EL,1,100,0.431836
128247,22036,2,EL,1,100,0.432440
128297,22054,2,EL,1,100,0.432843
128348,22054,2,EL,1,100,0.432440
128398,22072,2,EL,1,100,0.432642
128449,22072,2,EL,1,100,0.432239
128499,22090,2,EL,1,100,0.432440
128550,22090,2,EL,1,100,0.433447
128600,22108,2,EL,1,100,0.432642
128651,22108,2,EL,1,100,0.433447
128701,22126,2,EL,1,100,0.432843
128752,22126,2,EL,1,100,0.432642
128802,22144,2,EL,1,100,0.432843
128853,22144,2,EL,1,100,0.432239
128903,22162,2,EL,1,100,0.433246
128954,22162,2,EL,1,100,0.433044
129005,22181,2,EL,1,100,0.432843
129056,22181,2,EL,1,100,0.433447
129106,22199,2,EL,1,100,0.432843
129156,22199,2,EL,1,100,0.432642
129206,22217,2,EL,1,100,0.434253
129257,22217,2,EL,1,100,0.432843
129307,22235,2,EL,1,100,0.432642
129358,22235,2,EL,1,100,0.434253
129408,22253,2,EL,1,100,0.433044
129459,22253,2,EL,1,100,0.433447
129493,22271,3,EL,1,100,0.432843
129527,22271,3,EL,1,100,0.432440
129561,22271,3,EL,1,100,0.433447
129611,22289,2,EL,1,100,0.433649
129661,22289,2,EL,1,100,0.433447
129711,22308,2,EL,1,100,0.431433
129762,22308,2,EL,1,100,0.434253
129812,22326,2,EL,1,100,0.433044
129863,22326,2,EL,1,100,0.433246
129913,22344,2,EL,1,100,0.435663
129964,22344,2,EL,1,100,0.433044
130014,22362,2,EL,1,100,0.434052
130065,22362,2,EL,1,100,0.433649
130116,22380,2,EL,1,100,0.434857
130167,22380,2,EL,1,100,0.433447
130217,22398,2,EL,1,100,0.433850
130267,22398,2,EL,1,100,0.433246
130317,22416,2,EL,1,100,0.433850
130368,22416,2,EL,1,100,0.433850
130418,22435,2,EL,1,100,0.434253
130469,22435,2,EL,1,100,0.434052
130519,22453,2,EL,1,100,0.433850
130570,22453,2,EL,1,100,0.434857
130620,22471,2,EL,1,100,0.434052
130671,22471,2,EL,1,100,0.435059
130721,22489,2,EL,1,100,0.433850
130772,22489,2,EL,1,100,0.435864
130822,22507,2,EL,1,100,0.434454
130873,22507,2,EL,1,100,0.434656
130907,22525,3,EL,1,100,0.434656
130941,22525,3,EL,1,100,0.434656
130976,22525,3,EL,1,100,0.434253
131026,22543,2,EL,1,100,0.434857
131076,22543,2,EL,1,100,0.434253
131126,22561,2,EL,1,100,0.434857
131176,22561,2,EL,1,100,0.433246
131226,22580,2,EL,1,100,0.434052
131277,22580,2,EL,1,100,0.434454
131328,22598,2,EL,1,100,0.433649
131379,22598,2,EL,1,100,0.434253
131429,22616,2,EL,1,100,0.434253
131479,22616,2,EL,1,100,0.434454
131529,22634,2,EL,1,100,0.435059
131580,22634,2,EL,1,100,0.434857
131630,22652,2,EL,1,100,0.435059
131681,22652,2,EL,1,100,0.434253
131731,22670,2,EL,1,100,0.434454
131782,22670,2,EL,1,100,0.436469
131833,22688,2,EL,1,100,0.434656
131884,22688,2,EL,1,100,0.435461
131934,22707,2,EL,1,100,0.435260
131984,22707,2,EL,1,100,0.435663
132034,22725,2,EL,1,100,0.435059
132085,22725,2,EL,1,100,0.435663
132135,22743,2,EL,1,100,0.436066
132186,22743,2,EL,1,100,0.435059
132236,22761,2,EL,1,100,0.435864
132287,22761,2,EL,1,100,0.435059
132337,22779,2,EL,1,100,0.434857
132388,22779,2,EL,1,100,0.434857
132438,22797,2,EL,1,100,0.435059
132489,22797,2,EL,1,100,0.434253
132523,22815,3,EL,1,100,0.435663
132557,22815,3,EL,1,100,0.435260
132591,22815,3,EL,1,100,0.435663
132641,22833,2,EL,1,100,0.436267
132691,22833,2,EL,1,100,0.436469
132741,22852,2,EL,1,100,0.436670
132792,22852,2,EL,1,100,0.436670
132842,22870,2,EL,1,100,0.435663
132893,22870,2,EL,1,100,0.436670
132943,22888,2,EL,1,100,0.437073
132994,22888,2,EL,1,100,0.436066
133044,22906,2,EL,1,100,0.436066
133095,22906,2,EL,1,100,0.436469
133145,22924,2,EL,1,100,0.436267
133196,22924,2,EL,1,100,0.436670
133247,22942,2,EL,1,100,0.436066
133298,22942,2,EL,1,100,0.435461
133348,22960,2,EL,1,100,0.436871
133398,22960,2,EL,1,100,0.435461
133448,22979,2,EL,1,100,0.436670
133499,22979,2,EL,1,100,0.436871
133549,22997,2,EL,1,100,0.435461
133600,22997,2,EL,1,100,0.436469
133650,23015,2,EL,1,100,0.436670
133701,23015,2,EL,1,100,0.436469
133751,23033,2,EL,1,100,0.436267
133802,23033,2,EL,1,100,0.435461
133852,23051,2,EL,1,100,0.437073
133903,23051,2,EL,1,100,0.436670
133953,23069,2,EL,1,100,0.435461
134004,23069,2,EL,1,100,0.438080
134054,23087,2,EL,1,100,0.436469
134105,23087,2,EL,1,100,0.435864
134139,23106,3,EL,1,100,0.437274
134173,23106,3,EL,1,100,0.436871
134207,23106,3,EL,1,100,0.436066
134257,23124,2,EL,1,100,0.435461
134307,23124,2,EL,1,100,0.436267
134357,23142,2,EL,1,100,0.437476
134408,23142,2,EL,1,100,0.435663
134458,23160,2,EL,1,100,0.437677
134509,23160,2,EL,1,100,0.436469
134559,23178,2,EL,1,100,0.437073
134610,23178,2,EL,1,100,0.437274
134660,23196,2,EL,1,100,0.436670
134711,23196,2,EL,1,100,0.436469
134762,23214,2,EL,1,100,0.435864
134814,23214,2,EL,1,100,0.437274
134863,23232,2,EL,1,100,0.436670
134913,23232,2,EL,1,100,0.436066
134963,23251,2,EL,1,100,0.437878
135014,23251,2,EL,1,100,0.435059
135059,23272,4,EL,1,100,0.436066
135104,23272,4,EL,1,100,0.436066
135149,23272,4,EL,1,100,0.435461
135195,23272,4,EL,1,100,0.436267
135246,23292,2,EL,1,100,0.436267
135298,23292,2,EL,1,100,0.437073
135348,23310,2,EL,1,100,0.436670
135398,23310,2,EL,1,100,0.436267
135448,23328,2,EL,1,100,0.437073
135499,23328,2,EL,1,100,0.436469
135549,23346,2,EL,1,100,0.437274
135600,23346,2,EL,1,100,0.436871
135650,23365,2,EL,1,100,0.436871
135701,23365,2,EL,1,100,0.436469
135752,23383,2,EL,1,100,0.437274
135804,23383,2,EL,1,100,0.436469
135853,23401,2,EL,1,100,0.435864
135903,23401,2,EL,1,100,0.435260
135953,23419,2,EL,1,100,0.437677
136004,23419,2,EL,1,100,0.436066
136054,23437,2,EL,1,100,0.435663
136105,23437,2,EL,1,100,0.436871
136155,23455,2,EL,1,100,0.437073
136206,23455,2,EL,1,100,0.436670
136256,23473,2,EL,1,100,0.436267
136307,23473,2,EL,1,100,0.437073
136341,23491,3,EL,1,100,0.436670
136375,23491,3,EL,1,100,0.436267
136409,23491,3,EL,1,100,0.437677
136459,23510,2,EL,1,100,0.436670
136510,23510,2,EL,1,100,0.436670
136560,23528,2,EL,1,100,0.436871
136610,23528,2,EL,1,100,0.436469
136660,23546,2,EL,1,100,0.438080
136711,23546,2,EL,1,100,0.437677
136770,23564,3,EL,1,100,0.436871
136830,23564,3,EL,1,100,0.436871
136890,23564,3,EL,1,100,0.437274
136940,23582,2,EL,1,100,0.436871
136990,23582,2,EL,1,100,0.439288
137024,23600,3,EL,1,100,0.437878
137058,23600,3,EL,1,100,0.437878
137092,23600,3,EL,1,100,0.437476
137142,23619,2,EL,1,100,0.437677
137192,23619,2,EL,1,100,0.438483
137242,23637,2,EL,1,100,0.438885
137293,23637,2,EL,1,100,0.438080
137344,23655,2,EL,1,100,0.438684
137395,23655,2,EL,1,100,0.437677
137445,23673,2,EL,1,100,0.438684
137495,23673,2,EL,1,100,0.439288
137545,23691,2,EL,1,100,0.438885
137596,23691,2,EL,1,100,0.437073
137646,23709,2,EL,1,100,0.437274
137697,23709,2,EL,1,100,0.438684
137748,23727,2,EL,1,100,0.438684
137799,23727,2,EL,1,100,0.438885
137849,23745,2,EL,1,100,0.439288
137899,23745,2,EL,1,100,0.437878
137949,23764,2,EL,1,100,0.439490
138000,23764,2,EL,1,100,0.438684
138050,23782,2,EL,1,100,0.438483
138101,23782,2,EL,1,100,0.438281
138151,23800,2,EL,1,100,0.438483
138202,23800,2,EL,1,100,0.438684
138252,23818,2,EL,1,100,0.439288
138303,23818,2,EL,1,100,0.437878
138353,23836,2,EL,1,100,0.438281
138404,23836,2,EL,1,100,0.439288
138454,23854,2,EL,1,100,0.438885
138505,23854,2,EL,1,100,0.438684
138555,23872,2,EL,1,100,0.438684
138606,23872,2,EL,1,100,0.438684
138656,23891,2,EL,1,100,0.439288
138707,23891,2,EL,1,100,0.439288
138741,23909,3,EL,1,100,0.439087
138775,23909,3,EL,1,100,0.437878
138809,23909,3,EL,1,100,0.439288
138859,23927,2,EL,1,100,0.439893
138909,23927,2,EL,1,100,0.439288
138960,23945,2,EL,1,100,0.436670
139011,23945,2,EL,1,100,0.439087
139061,23963,2,EL,1,100,0.439288
139111,23963,2,EL,1,100,0.439288
139161,23981,2,EL,1,100,0.439893
139212,23981,2,EL,1,100,0.438885
139262,23999,2,EL,1,100,0.439893
139313,23999,2,EL,1,100,0.438684
139364,24017,2,EL,1,100,0.438080
139415,24017,2,EL,1,100,0.439288
139465,24036,2,EL,1,100,0.438684
139515,24036,2,EL,1,100,0.438684
139565,24054,2,EL,1,100,0.440094
139616,24054,2,EL,1,100,0.438483
139666,24072,2,EL,1,100,0.439087
139717,24072,2,EL,1,100,0.440497
139767,24090,2,EL,1,100,0.440295
139818,24090,2,EL,1,100,0.438281
139868,24108,2,EL,1,100,0.440094
139919,24108,2,EL,1,100,0.440094
139953,24126,3,EL,1,100,0.439490
139987,24126,3,EL,1,100,0.439288
140022,24126,3,EL,1,100,0.440094
140072,24144,2,EL,1,100,0.440295
140122,24144,2,EL,1,100,0.439288
140172,24163,2,EL,1,100,0.439490
140222,24163,2,EL,1,100,0.439288
140272,24181,2,EL,1,100,0.440094
140323,24181,2,EL,1,100,0.439893
140373,24199,2,EL,1,100,0.439087
140424,24199,2,EL,1,100,0.439490
140474,24217,2,EL,1,100,0.440497
140525,24217,2,EL,1,100,0.440698
140575,24235,2,EL,1,100,0.441302
140626,24235,2,EL,1,100,0.440295
140676,24253,2,EL,1,100,0.440900
140727,24253,2,EL,1,100,0.440497
140777,24271,2,EL,1,100,0.439490
140828,24271,2,EL,1,100,0.439490
140878,24290,2,EL,1,100,0.440295
140929,24290,2,EL,1,100,0.440295
140979,24308,2,EL,1,100,0.439490
141030,24308,2,EL,1,100,0.440094
141080,24326,2,EL,1,100,0.439490
141131,24326,2,EL,1,100,0.440295
141181,24344,2,EL,1,100,0.440698
141232,24344,2,EL,1,100,0.440295
141283,24362,2,EL,1,100,0.441101
141335,24362,2,EL,1,100,0.439691
141384,24380,2,EL,1,100,0.440295
141434,24380,2,EL,1,100,0.440497
141484,24398,2,EL,1,100,0.441101
141535,24398,2,EL,1,100,0.440094
141585,24416,2,EL,1,100,0.440900
141636,24416,2,EL,1,100,0.439490
141686,24435,2,EL,1,100,0.439691
141737,24435,2,EL,1,100,0.439893
141771,24453,3,EL,1,100,0.440295
141805,24453,3,EL,1,100,0.440497
141839,24453,3,EL,1,100,0.439087
141889,24471,2,EL,1,100,0.439893
141939,24471,2,EL,1,100,0.440698
141990,24489,2,EL,1,100,0.439490
142042,24489,2,EL,1,100,0.439893
142091,24507,2,EL,1,100,0.440900
142141,24507,2,EL,1,100,0.440295
142191,24525,2,EL,1,100,0.438684
142242,24525,2,EL,1,100,0.439087
142292,24543,2,EL,1,100,0.439490
142343,24543,2,EL,1,100,0.440295
142393,24562,2,EL,1,100,0.440094
142444,24562,2,EL,1,100,0.440094
142494,24580,2,EL,1,100,0.440497
142545,24580,2,EL,1,100,0.440295
142595,24598,2,EL,1,100,0.439087
142646,24598,2,EL,1,100,0.439691
142696,24616,2,EL,1,100,0.439893
142747,24616,2,EL,1,100,0.439691
142797,24634,2,EL,1,100,0.439288
142848,24634,2,EL,1,100,0.439691
142899,24652,2,EL,1,100,0.439288
142950,24652,2,EL,1,100,0.440497
143000,24670,2,EL,1,100,0.440295
143050,24670,2,EL,1,100,0.438684
143100,24688,2,EL,1,100,0.438885
143151,24688,2,EL,1,100,0.440497
143201,24707,2,EL,1,100,0.440094
143252,24707,2,EL,1,100,0.439893
143302,24725,2,EL,1,100,0.440295
143353,24725,2,EL,1,100,0.439691
143387,24743,3,EL,1,100,0.439490
143421,24743,3,EL,1,100,0.440295
143455,24743,3,EL,1,100,0.439087
143505,24761,2,EL,1,100,0.439893
143555,24761,2,EL,1,100,0.440295
143605,24779,2,EL,1,100,0.440698
143656,24779,2,EL,1,100,0.440094
143706,24797,2,EL,1,100,0.439893
143757,24797,2,EL,1,100,0.439288
143807,24815,2,EL,1,100,0.439691
143858,24815,2,EL,1,100,0.439087
143908,24834,2,EL,1,100,0.438281
143959,24834,2,EL,1,100,0.440698
144009,24852,2,EL,1,100,0.439893
144060,24852,2,EL,1,100,0.441101
144110,24870,2,EL,1,100,0.439288
144161,24870,2,EL,1,100,0.439490
144211,24888,2,EL,1,100,0.439490
144262,24888,2,EL,1,100,0.440094
144313,24906,2,EL,1,100,0.438885
144365,24906,2,EL,1,100,0.439490
144414,24924,2,EL,1,100,0.439691
144464,24924,2,EL,1,100,0.439490
144514,24942,2,EL,1,100,0.439691
144565,24942,2,EL,1,100,0.439087
144615,24961,2,EL,1,100,0.440295
144666,24961,2,EL,1,100,0.439490
144716,24979,2,EL,1,100,0.439288
144767,24979,2,EL,1,100,0.442108
144817,24997,2,EL,1,100,0.440094
144868,24997,2,EL,1,100,0.441302
144902,25015,3,EL,1,100,0.440094
144936,25015,3,EL,1,100,0.439691
144970,25015,3,EL,1,100,0.440094
145020,25033,2,EL,1,100,0.440497
145070,25033,2,EL,1,100,0.440295
145120,25051,2,EL,1,100,0.441705
145171,25051,2,EL,1,100,0.439288
145221,25069,2,EL,1,100,0.440698
145272,25069,2,EL,1,100,0.441101
145322,25087,2,EL,1,100,0.440295
145373,25087,2,EL,1,100,0.439288
145423,25106,2,EL,1,100,0.441705
145474,25106,2,EL,1,100,0.440497
145524,25124,2,EL,1,100,0.439490
145575,25124,2,EL,1,100,0.439893
145625,25142,2,EL,1,100,0.439691
145676,25142,2,EL,1,100,0.439691
145726,25160,2,EL,1,100,0.440497
145777,25160,2,EL,1,100,0.440295
145827,25178,2,EL,1,100,0.440295
145878,25178,2,EL,1,100,0.438885
145928,25196,2,EL,1,100,0.441504
145979,25196,2,EL,1,100,0.439893
146033,25217,3,EL,1,100,0.440295
146087,25217,3,EL,1,100,0.440295
146141,25217,3,EL,1,100,0.441907
146174,25238,3,EL,1,100,0.440295
146208,25238,3,EL,1,100,0.441101
146242,25238,3,EL,1,100,0.440295
146292,25256,2,EL,1,100,0.441705
146342,25256,2,EL,1,100,0.441101
146392,25274,2,EL,1,100,0.442108
146443,25274,2,EL,1,100,0.442108
146493,25292,2,EL,1,100,0.440295
146544,25292,2,EL,1,100,0.441504
146594,25310,2,EL,1,100,0.440900
146645,25310,2,EL,1,100,0.440094
146695,25328,2,EL,1,100,0.440698
146746,25328,2,EL,1,100,0.441504
146796,25346,2,EL,1,100,0.442511
146847,25346,2,EL,1,100,0.441705
146898,25365,2,EL,1,100,0.440900
146949,25365,2,EL,1,100,0.440295
146999,25383,2,EL,1,100,0.440698
147049,25383,2,EL,1,100,0.440900
147099,25401,2,EL,1,100,0.441907
147150,25401,2,EL,1,100,0.440698
147200,25419,2,EL,1,100,0.441907
147251,25419,2,EL,1,100,0.440698
147301,25437,2,EL,1,100,0.442511
147352,25437,2,EL,1,100,0.442310
147402,25455,2,EL,1,100,0.441504
147453,25455,2,EL,1,100,0.440900
147503,25473,2,EL,1,100,0.441302
147554,25473,2,EL,1,100,0.442310
147604,25492,2,EL,1,100,0.441101
147655,25492,2,EL,1,100,0.440900
147705,25510,2,EL,1,100,0.442108
147756,25510,2,EL,1,100,0.442310
147790,25528,3,EL,1,100,0.443115
147824,25528,3,EL,1,100,0.441101
147858,25528,3,EL,1,100,0.441504
147908,25546,2,EL,1,100,0.442108
147959,25546,2,EL,1,100,0.442108
148009,25564,2,EL,1,100,0.441705
148059,25564,2,EL,1,100,0.442310
148109,25582,2,EL,1,100,0.442108
148160,25582,2,EL,1,100,0.442310
148210,25600,2,EL,1,100,0.441907
148261,25600,2,EL,1,100,0.441705
148311,25618,2,EL,1,100,0.442712
148362,25618,2,EL,1,100,0.441907
148412,25637,2,EL,1,100,0.442712
148463,25637,2,EL,1,100,0.441705
148514,25655,2,EL,1,100,0.442914
148565,25655,2,EL,1,100,0.442511
148615,25673,2,EL,1,100,0.443719
148665,25673,2,EL,1,100,0.442310
148715,25691,2,EL,1,100,0.441907
148766,25691,2,EL,1,100,0.441705
148816,25709,2,EL,1,100,0.443115
148867,25709,2,EL,1,100,0.441907
148917,25727,2,EL,1,100,0.443921
148968,25727,2,EL,1,100,0.444122
149018,25745,2,EL,1,100,0.441907
149069,25745,2,EL,1,100,0.443115
149119,25764,2,EL,1,100,0.441907
149170,25764,2,EL,1,100,0.442310
149204,25782,3,EL,1,100,0.443317
149238,25782,3,EL,1,100,0.443317
149272,25782,3,EL,1,100,0.441907
149322,25800,2,EL,1,100,0.441907
149372,25800,2,EL,1,100,0.443317
149422,25818,2,EL,1,100,0.443719
149473,25818,2,EL,1,100,0.442914
149523,25836,2,EL,1,100,0.443921
149574,25836,2,EL,1,100,0.442511
149624,25854,2,EL,1,100,0.443317
149675,25854,2,EL,1,100,0.442108
149725,25872,2,EL,1,100,0.444122
149776,25872,2,EL,1,100,0.442108
149826,25891,2,EL,1,100,0.442914
149877,25891,2,EL,1,100,0.442712
149927,25909,2,EL,1,100,0.442310
149978,25909,2,EL,1,100,0.443921
150028,25927,2,EL,1,100,0.443317
150079,25927,2,EL,1,100,0.444727
150130,25945,2,EL,1,100,0.442914
150182,25945,2,EL,1,100,0.443317
150231,25963,2,EL,1,100,0.443921
150281,25963,2,EL,1,100,0.442511
150332,25981,2,EL,1,100,0.443719
150384,25981,2,EL,1,100,0.442108
150433,25999,2,EL,1,100,0.441907
150483,25999,2,EL,1,100,0.442914
150533,26017,2,EL,1,100,0.443317
150584,26017,2,EL,1,100,0.442310
150634,26036,2,EL,1,100,0.443921
150685,26036,2,EL,1,100,0.442712
150735,26054,2,EL,1,100,0.442712
150786,26054,2,EL,1,100,0.442310
150820,26072,3,EL,1,100,0.443115
150854,26072,3,EL,1,100,0.442712
150888,26072,3,EL,1,100,0.443518
150938,26090,2,EL,1,100,0.441705
150988,26090,2,EL,1,100,0.442511
151038,26108,2,EL,1,100,0.443115
151089,26108,2,EL,1,100,0.443518
151139,26126,2,EL,1,100,0.443518
151190,26126,2,EL,1,100,0.442712
151240,26144,2,EL,1,100,0.442914
151291,26144,2,EL,1,100,0.441705
151341,26163,2,EL,1,100,0.443115
151392,26163,2,EL,1,100,0.442712
151442,26181,2,EL,1,100,0.441705
151493,26181,2,EL,1,100,0.443317
151543,26199,2,EL,1,100,0.442310
151594,26199,2,EL,1,100,0.443317
151644,26217,2,EL,1,100,0.443518
151695,26217,2,EL,1,100,0.442310
151745,26235,2,EL,1,100,0.441504
151796,26235,2,EL,1,100,0.441504
151847,26253,2,EL,1,100,0.442511
151899,26253,2,EL,1,100,0.443317
151948,26271,2,EL,1,100,0.441504
151998,26271,2,EL,1,100,0.442511
152048,26289,2,EL,1,100,0.442310
152099,26289,2,EL,1,100,0.441907
152149,26308,2,EL,1,100,0.443518
152200,26308,2,EL,1,100,0.442712
152250,26326,2,EL,1,100,0.441907
152301,26326,2,EL,1,100,0.442712
152351,26344,2,EL,1,100,0.442511
152402,26344,2,EL,1,100,0.442914
152436,26362,3,EL,1,100,0.444122
152470,26362,3,EL,1,100,0.442914
152504,26362,3,EL,1,100,0.442310
152554,26380,2,EL,1,100,0.441504
152604,26380,2,EL,1,100,0.443115
152654,26398,2,EL,1,100,0.443115
152705,26398,2,EL,1,100,0.441907
152755,26416,2,EL,1,100,0.443317
152806,26416,2,EL,1,100,0.442511
152856,26435,2,EL,1,100,0.442712
152907,26435,2,EL,1,100,0.442108
152957,26453,2,EL,1,100,0.443317
153008,26453,2,EL,1,100,0.441504
153058,26471,2,EL,1,100,0.443115
153109,26471,2,EL,1,100,0.443115
153159,26489,2,EL,1,100,0.443317
153210,26489,2,EL,1,100,0.441705
153260,26507,2,EL,1,100,0.442712
153311,26507,2,EL,1,100,0.443317
153362,26525,2,EL,1,100,0.444324
153413,26525,2,EL,1,100,0.443518
153463,26543,2,EL,1,100,0.443719
153513,26543,2,EL,1,100,0.443317
153563,26562,2,EL,1,100,0.443317
153614,26562,2,EL,1,100,0.444122
153664,26580,2,EL,1,100,0.444122
153715,26580,2,EL,1,100,0.443518
153749,26598,3,EL,1,100,0.443317
153783,26598,3,EL,1,100,0.441302
153818,26598,3,EL,1,100,0.443518
153868,26616,2,EL,1,100,0.442712
153918,26616,2,EL,1,100,0.444122
153968,26634,2,EL,1,100,0.444122
154018,26634,2,EL,1,100,0.443921
154068,26652,2,EL,1,100,0.443115
154119,26652,2,EL,1,100,0.444727
154169,26670,2,EL,1,100,0.445129
154220,26670,2,EL,1,100,0.443115
154270,26688,2,EL,1,100,0.444727
154321,26688,2,EL,1,100,0.443518
154371,26707,2,EL,1,100,0.443317
154422,26707,2,EL,1,100,0.443317
154472,26725,2,EL,1,100,0.444122
154523,26725,2,EL,1,100,0.443921
154573,26743,2,EL,1,100,0.444122
154624,26743,2,EL,1,100,0.444525
154674,26761,2,EL,1,100,0.443518
154725,26761,2,EL,1,100,0.444122
154775,26779,2,EL,1,100,0.443317
154826,26779,2,EL,1,100,0.442310
154876,26797,2,EL,1,100,0.444525
154927,26797,2,EL,1,100,0.443921
154977,26815,2,EL,1,100,0.444122
155028,26815,2,EL,1,100,0.443317
155079,26834,2,EL,1,100,0.443719
155130,26834,2,EL,1,100,0.443518
155180,26852,2,EL,1,100,0.444928
155230,26852,2,EL,1,100,0.443518
155280,26870,2,EL,1,100,0.444525
155331,26870,2,EL,1,100,0.445129
155381,26888,2,EL,1,100,0.444928
155432,26888,2,EL,1,100,0.444525
155466,26906,3,EL,1,100,0.442914
155500,26906,3,EL,1,100,0.444122
155534,26906,3,EL,1,100,0.444928
155584,26924,2,EL,1,100,0.445331
155634,26924,2,EL,1,100,0.444122
155684,26942,2,EL,1,100,0.444324
155735,26942,2,EL,1,100,0.443115
155785,26961,2,EL,1,100,0.443518
155836,26961,2,EL,1,100,0.445331
155886,26979,2,EL,1,100,0.445331
155937,26979,2,EL,1,100,0.444525
155987,26997,2,EL,1,100,0.444525
156038,26997,2,EL,1,100,0.444727
156088,27015,2,EL,1,100,0.444727
156139,27015,2,EL,1,100,0.444324
156189,27033,2,EL,1,100,0.444928
156240,27033,2,EL,1,100,0.444324
156291,27051,2,EL,1,100,0.444324
156342,27051,2,EL,1,100,0.444324
156392,27069,2,EL,1,100,0.444324
156442,27069,2,EL,1,100,0.444324
156492,27087,2,EL,1,100,0.445532
156543,27087,2,EL,1,100,0.444122
156594,27106,2,EL,1,100,0.444122
156645,27106,2,EL,1,100,0.444727
156695,27124,2,EL,1,100,0.444324
156745,27124,2,EL,1,100,0.444122
156795,27142,2,EL,1,100,0.445532
156846,27142,2,EL,1,100,0.444525
156891,27163,4,EL,1,100,0.444928
156937,27163,4,EL,1,100,0.445331
156983,27163,4,EL,1,100,0.444727
157029,27163,4,EL,1,100,0.445331
157079,27183,2,EL,1,100,0.445532
157130,27183,2,EL,1,100,0.444525
157180,27201,2,EL,1,100,0.445331
157230,27201,2,EL,1,100,0.444727
157281,27220,2,EL,1,100,0.445734
157332,27220,2,EL,1,100,0.445331
157382,27238,2,EL,1,100,0.444122
157432,27238,2,EL,1,100,0.446338
157482,27256,2,EL,1,100,0.445331
157533,27256,2,EL,1,100,0.445129
157583,27274,2,EL,1,100,0.444928
157634,27274,2,EL,1,100,0.446539
157668,27292,3,EL,1,100,0.445734
157702,27292,3,EL,1,100,0.446338
157736,27292,3,EL,1,100,0.444928
157786,27310,2,EL,1,100,0.445129
157836,27310,2,EL,1,100,0.444727
157886,27328,2,EL,1,100,0.444324
157937,27328,2,EL,1,100,0.444122
157987,27346,2,EL,1,100,0.445532
158038,27346,2,EL,1,100,0.445331
158088,27365,2,EL,1,100,0.446338
158139,27365,2,EL,1,100,0.445129
158189,27383,2,EL,1,100,0.445331
158240,27383,2,EL,1,100,0.445331
158290,27401,2,EL,1,100,0.446539
158341,27401,2,EL,1,100,0.445734
158392,27419,2,EL,1,100,0.446539
158443,27419,2,EL,1,100,0.444727
158493,27437,2,EL,1,100,0.447144
158543,27437,2,EL,1,100,0.445331
158593,27455,2,EL,1,100,0.446136
158644,27455,2,EL,1,100,0.446136
158694,27473,2,EL,1,100,0.444727
158745,27473,2,EL,1,100,0.446136
158795,27492,2,EL,1,100,0.444928
158846,27492,2,EL,1,100,0.446338
158896,27510,2,EL,1,100,0.446338
158947,27510,2,EL,1,100,0.445734
158997,27528,2,EL,1,100,0.447345
159048,27528,2,EL,1,100,0.446741
159098,27546,2,EL,1,100,0.445532
159149,27546,2,EL,1,100,0.446338
159183,27564,3,EL,1,100,0.446539
159217,27564,3,EL,1,100,0.446136
159252,27564,3,EL,1,100,0.446741
159302,27582,2,EL,1,100,0.446338
159352,27582,2,EL,1,100,0.446338
159402,27600,2,EL,1,100,0.446539
159452,27600,2,EL,1,100,0.445935
159502,27618,2,EL,1,100,0.445935
159553,27618,2,EL,1,100,0.447546
159604,27637,2,EL,1,100,0.445935
159655,27637,2,EL,1,100,0.447144
159705,27655,2,EL,1,100,0.447546
159755,27655,2,EL,1,100,0.445734
159805,27673,2,EL,1,100,0.446338
159856,27673,2,EL,1,100,0.447748
159906,27691,2,EL,1,100,0.446741
159957,27691,2,EL,1,100,0.446741
160008,27709,2,EL,1,100,0.446741
160059,27709,2,EL,1,100,0.445935
160109,27727,2,EL,1,100,0.446338
160159,27727,2,EL,1,100,0.445935
160209,27745,2,EL,1,100,0.445935
160260,27745,2,EL,1,100,0.445734
160311,27764,2,EL,1,100,0.446338
160362,27764,2,EL,1,100,0.446741
160412,27782,2,EL,1,100,0.445532
160462,27782,2,EL,1,100,0.446741
160512,27800,2,EL,1,100,0.446136
160563,27800,2,EL,1,100,0.446338
160613,27818,2,EL,1,100,0.444525
160664,27818,2,EL,1,100,0.445129
160698,27836,3,EL,1,100,0.446539
160732,27836,3,EL,1,100,0.446338
160767,27836,3,EL,1,100,0.446539
160817,27854,2,EL,1,100,0.446136
160867,27854,2,EL,1,100,0.446338
160917,27872,2,EL,1,100,0.445734
160967,27872,2,EL,1,100,0.446338
161017,27891,2,EL,1,100,0.446136
161068,27891,2,EL,1,100,0.446338
161118,27909,2,EL,1,100,0.444727
161169,27909,2,EL,1,100,0.445935
161219,27927,2,EL,1,100,0.445935
161270,27927,2,EL,1,100,0.444928
161320,27945,2,EL,1,100,0.446338
161371,27945,2,EL,1,100,0.446136
161421,27963,2,EL,1,100,0.446136
161472,27963,2,EL,1,100,0.445331
161523,27981,2,EL,1,100,0.445129
161574,27981,2,EL,1,100,0.445331
161624,27999,2,EL,1,100,0.446338
161674,27999,2,EL,1,100,0.445935
161724,28017,2,EL,1,100,0.444928
161775,28017,2,EL,1,100,0.445532
161825,28036,2,EL,1,100,0.445734
161876,28036,2,EL,1,100,0.445532
161926,28054,2,EL,1,100,0.446539
161977,28054,2,EL,1,100,0.446539
162027,28072,2,EL,1,100,0.445935
162078,28072,2,EL,1,100,0.446741
162128,28090,2,EL,1,100,0.446338
162179,28090,2,EL,1,100,0.445734
162229,28108,2,EL,1,100,0.445532
162280,28108,2,EL,1,100,0.445734
162314,28126,3,EL,1,100,0.445331
162348,28126,3,EL,1,100,0.447748
162383,28126,3,EL,1,100,0.446942
162432,28144,2,EL,1,100,0.444525
162482,28144,2,EL,1,100,0.445331
162532,28163,2,EL,1,100,0.445935
162583,28163,2,EL,1,100,0.446942
162633,28181,2,EL,1,100,0.448956
162684,28181,2,EL,1,100,0.446942
162742,28199,3,EL,1,100,0.445935
162800,28199,3,EL,1,100,0.446539
162858,28199,3,EL,1,100,0.445532
162908,28217,2,EL,1,100,0.445935
162958,28217,2,EL,1,100,0.445935
163008,28235,2,EL,1,100,0.447345
163059,28235,2,EL,1,100,0.446942
163109,28253,2,EL,1,100,0.446539
163160,28253,2,EL,1,100,0.447748
163194,28271,3,EL,1,100,0.446741
163228,28271,3,EL,1,100,0.447546
163262,28271,3,EL,1,100,0.446136
163312,28290,2,EL,1,100,0.447144
163362,28290,2,EL,1,100,0.445734
163412,28308,2,EL,1,100,0.446942
163463,28308,2,EL,1,100,0.448755
163514,28326,2,EL,1,100,0.447748
163565,28326,2,EL,1,100,0.447144
163615,28344,2,EL,1,100,0.446539
163665,28344,2,EL,1,100,0.447949
163715,28362,2,EL,1,100,0.448553
163766,28362,2,EL,1,100,0.447546
163816,28380,2,EL,1,100,0.447144
163867,28380,2,EL,1,100,0.448553
163917,28398,2,EL,1,100,0.447546
163968,28398,2,EL,1,100,0.447345
164018,28417,2,EL,1,100,0.446942
164069,28417,2,EL,1,100,0.447748
164119,28435,2,EL,1,100,0.447748
164170,28435,2,EL,1,100,0.447345
164220,28453,2,EL,1,100,0.448352
164271,28453,2,EL,1,100,0.448553
164322,28471,2,EL,1,100,0.446942
164374,28471,2,EL,1,100,0.448352
164423,28489,2,EL,1,100,0.445734
164473,28489,2,EL,1,100,0.447345
164523,28507,2,EL,1,100,0.447546
164574,28507,2,EL,1,100,0.448151
164624,28525,2,EL,1,100,0.448352
164675,28525,2,EL,1,100,0.447546
164709,28543,3,EL,1,100,0.446539
164743,28543,3,EL,1,100,0.446942
164777,28543,3,EL,1,100,0.447949
164827,28562,2,EL,1,100,0.447748
164877,28562,2,EL,1,100,0.446741
164927,28580,2,EL,1,100,0.448352
164978,28580,2,EL,1,100,0.447144
165029,28598,2,EL,1,100,0.447949
165081,28598,2,EL,1,100,0.446942
165130,28616,2,EL,1,100,0.447546
165180,28616,2,EL,1,100,0.447144
165230,28634,2,EL,1,100,0.447949
165281,28634,2,EL,1,100,0.447949
165331,28652,2,EL,1,100,0.448151
165382,28652,2,EL,1,100,0.448553
165432,28670,2,EL,1,100,0.447748
165483,28670,2,EL,1,100,0.448553
165533,28689,2,EL,1,100,0.447748
165584,28689,2,EL,1,100,0.447949
165634,28707,2,EL,1,100,0.447546
165685,28707,2,EL,1,100,0.447949
165735,28725,2,EL,1,100,0.448352
165786,28725,2,EL,1,100,0.448755
165836,28743,2,EL,1,100,0.448151
165887,28743,2,EL,1,100,0.449561
165938,28761,2,EL,1,100,0.449359
165990,28761,2,EL,1,100,0.447748
166039,28779,2,EL,1,100,0.448553
166089,28779,2,EL,1,100,0.449963
166139,28797,2,EL,1,100,0.448553
166190,28797,2,EL,1,100,0.448352
166240,28816,2,EL,1,100,0.448956
166291,28816,2,EL,1,100,0.448553
166341,28834,2,EL,1,100,0.447949
166392,28834,2,EL,1,100,0.447949
166426,28852,3,EL,1,100,0.447345
166460,28852,3,EL,1,100,0.448352
166494,28852,3,EL,1,100,0.448956
166544,28870,2,EL,1,100,0.448151
166594,28870,2,EL,1,100,0.448553
166644,28888,2,EL,1,100,0.448755
166695,28888,2,EL,1,100,0.449359
166746,28906,2,EL,1,100,0.448151
166798,28906,2,EL,1,100,0.449158
166847,28924,2,EL,1,100,0.450366
166897,28924,2,EL,1,100,0.448352
166947,28942,2,EL,1,100,0.449762
166998,28942,2,EL,1,100,0.448956
167048,28961,2,EL,1,100,0.448755
167099,28961,2,EL,1,100,0.447748
167149,28979,2,EL,1,100,0.448553
167200,28979,2,EL,1,100,0.447748
167250,28997,2,EL,1,100,0.448956
167301,28997,2,EL,1,100,0.451373
167351,29015,2,EL,1,100,0.450165
167402,29015,2,EL,1,100,0.448755
167453,29033,2,EL,1,100,0.450769
167504,29033,2,EL,1,100,0.449158
167554,29051,2,EL,1,100,0.449762
167604,29051,2,EL,1,100,0.449158
167654,29069,2,EL,1,100,0.450769
167705,29069,2,EL,1,100,0.449762
167755,29088,2,EL,1,100,0.449762
167806,29088,2,EL,1,100,0.449963
167847,29109,4,EL,1,100,0.449762
167888,29109,4,EL,1,100,0.449963
167929,29109,4,EL,1,100,0.449963
167971,29109,4,EL,1,100,0.450568
168020,29129,2,EL,1,100,0.450366
168070,29129,2,EL,1,100,0.449158
168120,29147,2,EL,1,100,0.450165
168171,29147,2,EL,1,100,0.450165
168221,29165,2,EL,1,100,0.450366
168272,29165,2,EL,1,100,0.450568
168322,29183,2,EL,1,100,0.450366
168373,29183,2,EL,1,100,0.450568
168424,29201,2,EL,1,100,0.450366
168475,29201,2,EL,1,100,0.450970
168525,29220,2,EL,1,100,0.451172
168575,29220,2,EL,1,100,0.449963
168625,29238,2,EL,1,100,0.449762
168676,29238,2,EL,1,100,0.450568
168726,29256,2,EL,1,100,0.450366
168777,29256,2,EL,1,100,0.450568
168827,29274,2,EL,1,100,0.449762
168878,29274,2,EL,1,100,0.450568
168928,29292,2,EL,1,100,0.449561
168979,29292,2,EL,1,100,0.449963
169029,29310,2,EL,1,100,0.450366
169080,29310,2,EL,1,100,0.450165
169130,29328,2,EL,1,100,0.448956
169181,29328,2,EL,1,100,0.450568
169215,29347,3,EL,1,100,0.449561
169249,29347,3,EL,1,100,0.450165
169284,29347,3,EL,1,100,0.451172
169333,29365,2,EL,1,100,0.451575
169383,29365,2,EL,1,100,0.450165
169433,29383,2,EL,1,100,0.449963
169484,29383,2,EL,1,100,0.450568
169534,29401,2,EL,1,100,0.448956
169585,29401,2,EL,1,100,0.450769
169635,29419,2,EL,1,100,0.451172
169686,29419,2,EL,1,100,0.450165
169736,29437,2,EL,1,100,0.449561
169787,29437,2,EL,1,100,0.448755
169837,29455,2,EL,1,100,0.450970
169888,29455,2,EL,1,100,0.450769
169939,29473,2,EL,1,100,0.450769
169990,29473,2,EL,1,100,0.449963
170040,29492,2,EL,1,100,0.448553
170090,29492,2,EL,1,100,0.449561
170140,29510,2,EL,1,100,0.449359
170191,29510,2,EL,1,100,0.450568
170241,29528,2,EL,1,100,0.449963
170292,29528,2,EL,1,100,0.448755
170342,29546,2,EL,1,100,0.449561
170393,29546,2,EL,1,100,0.449762
170443,29564,2,EL,1,100,0.450970
170494,29564,2,EL,1,100,0.450366
170544,29582,2,EL,1,100,0.448553
170595,29582,2,EL,1,100,0.449158
170645,29600,2,EL,1,100,0.450568
170696,29600,2,EL,1,100,0.449762
170746,29619,2,EL,1,100,0.449561
170797,29619,2,EL,1,100,0.449762
170831,29637,3,EL,1,100,0.449561
170865,29637,3,EL,1,100,0.448956
170899,29637,3,EL,1,100,0.449158
170949,29655,2,EL,1,100,0.449963
170999,29655,2,EL,1,100,0.448553
171049,29673,2,EL,1,100,0.448956
171100,29673,2,EL,1,100,0.450366
171150,29691,2,EL,1,100,0.449762
171201,29691,2,EL,1,100,0.449561
171251,29709,2,EL,1,100,0.449359
171302,29709,2,EL,1,100,0.448956
171352,29727,2,EL,1,100,0.450366
171403,29727,2,EL,1,100,0.448352
171453,29746,2,EL,1,100,0.449762
171504,29746,2,EL,1,100,0.449158
171554,29764,2,EL,1,100,0.449158
171605,29764,2,EL,1,100,0.449963
171655,29782,2,EL,1,100,0.448755
171706,29782,2,EL,1,100,0.448956
171756,29800,2,EL,1,100,0.450165
171807,29800,2,EL,1,100,0.449963
171857,29818,2,EL,1,100,0.450366
171908,29818,2,EL,1,100,0.450366
171958,29836,2,EL,1,100,0.450568
172009,29836,2,EL,1,100,0.449561
172059,29854,2,EL,1,100,0.450165
172110,29854,2,EL,1,100,0.448956
172160,29872,2,EL,1,100,0.450568
172211,29872,2,EL,1,100,0.451373
172245,29891,3,EL,1,100,0.450568
172279,29891,3,EL,1,100,0.451172
172313,29891,3,EL,1,100,0.449762
172363,29909,2,EL,1,100,0.450970
172414,29909,2,EL,1,100,0.449561
172464,29927,2,EL,1,100,0.450366
172514,29927,2,EL,1,100,0.450366
172565,29945,2,EL,1,100,0.449561
172616,29945,2,EL,1,100,0.449359
172666,29963,2,EL,1,100,0.450165
172716,29963,2,EL,1,100,0.450970
172766,29981,2,EL,1,100,0.450769
172817,29981,2,EL,1,100,0.450366
172867,29999,2,EL,1,100,0.450568
172918,29999,2,EL,1,100,0.450769
172968,30018,2,EL,1,100,0.450366
173019,30018,2,EL,1,100,0.450165
173069,30036,2,EL,1,100,0.450165
173120,30036,2,EL,1,100,0.449963
173170,30054,2,EL,1,100,0.450568
173221,30054,2,EL,1,100,0.450568
173271,30072,2,EL,1,100,0.451373
173322,30072,2,EL,1,100,0.451373
173372,30090,2,EL,1,100,0.450769
173423,30090,2,EL,1,100,0.449963
173473,30108,2,EL,1,100,0.451172
173524,30108,2,EL,1,100,0.449762
173574,30126,2,EL,1,100,0.450769
173625,30126,2,EL,1,100,0.449359
173675,30144,2,EL,1,100,0.452179
173726,30144,2,EL,1,100,0.451776
173776,30163,2,EL,1,100,0.450165
173827,30163,2,EL,1,100,0.452380
173861,30181,3,EL,1,100,0.450366
173895,30181,3,EL,1,100,0.451172
173929,30181,3,EL,1,100,0.451172
173979,30199,2,EL,1,100,0.451172
174029,30199,2,EL,1,100,0.450769
174079,30217,2,EL,1,100,0.449561
174130,30217,2,EL,1,100,0.451373
174180,30235,2,EL,1,100,0.451978
174231,30235,2,EL,1,100,0.450970
174281,30253,2,EL,1,100,0.452783
174332,30253,2,EL,1,100,0.450366
174382,30271,2,EL,1,100,0.451575
174433,30271,2,EL,1,100,0.450568
174483,30290,2,EL,1,100,0.451776
174534,30290,2,EL,1,100,0.450568
174584,30308,2,EL,1,100,0.451978
174635,30308,2,EL,1,100,0.451373
174685,30326,2,EL,1,100,0.452380
174736,30326,2,EL,1,100,0.451776
174786,30344,2,EL,1,100,0.450366
174837,30344,2,EL,1,100,0.450970
174887,30362,2,EL,1,100,0.450970
174938,30362,2,EL,1,100,0.451172
174988,30380,2,EL,1,100,0.451776
175039,30380,2,EL,1,100,0.451575
175089,30398,2,EL,1,100,0.450769
175140,30398,2,EL,1,100,0.451776
175190,30417,2,EL,1,100,0.452179
175241,30417,2,EL,1,100,0.451978
175275,30435,3,EL,1,100,0.453387
175309,30435,3,EL,1,100,0.452783
175344,30435,3,EL,1,100,0.451373
175394,30453,2,EL,1,100,0.451172
175444,30453,2,EL,1,100,0.451575
175494,30471,2,EL,1,100,0.452985
175544,30471,2,EL,1,100,0.452582
175594,30489,2,EL,1,100,0.452380
175645,30489,2,EL,1,100,0.450568
175695,30507,2,EL,1,100,0.452985
175746,30507,2,EL,1,100,0.451776
175796,30525,2,EL,1,100,0.452985
175847,30525,2,EL,1,100,0.452985
175897,30543,2,EL,1,100,0.452582
175948,30543,2,EL,1,100,0.451776
175998,30562,2,EL,1,100,0.452582
176049,30562,2,EL,1,100,0.451776
176099,30580,2,EL,1,100,0.453186
176150,30580,2,EL,1,100,0.453186
176200,30598,2,EL,1,100,0.452783
176251,30598,2,EL,1,100,0.453387
176301,30616,2,EL,1,100,0.452783
176352,30616,2,EL,1,100,0.452179
176402,30634,2,EL,1,100,0.451776
176453,30634,2,EL,1,100,0.452985
176503,30652,2,EL,1,100,0.452179
176554,30652,2,EL,1,100,0.453387
176604,30670,2,EL,1,100,0.452783
176655,30670,2,EL,1,100,0.452179
176705,30689,2,EL,1,100,0.452380
176756,30689,2,EL,1,100,0.452380
176790,30707,3,EL,1,100,0.453186
176824,30707,3,EL,1,100,0.452380
176858,30707,3,EL,1,100,0.453387
176908,30725,2,EL,1,100,0.453387
176959,30725,2,EL,1,100,0.452783
177009,30743,2,EL,1,100,0.452582
177059,30743,2,EL,1,100,0.452783
177109,30761,2,EL,1,100,0.452985
177160,30761,2,EL,1,100,0.452783
177210,30779,2,EL,1,100,0.452380
177261,30779,2,EL,1,100,0.453387
177311,30797,2,EL,1,100,0.454193
177362,30797,2,EL,1,100,0.452985
177412,30815,2,EL,1,100,0.453589
177463,30815,2,EL,1,100,0.453387
177513,30834,2,EL,1,100,0.453992
177564,30834,2,EL,1,100,0.452985
177614,30852,2,EL,1,100,0.454596
177665,30852,2,EL,1,100,0.453589
177716,30870,2,EL,1,100,0.453387
177767,30870,2,EL,1,100,0.453992
177817,30888,2,EL,1,100,0.453992
177867,30888,2,EL,1,100,0.452783
177917,30906,2,EL,1,100,0.453992
177968,30906,2,EL,1,100,0.453992
178018,30924,2,EL,1,100,0.452985
178069,30924,2,EL,1,100,0.453790
178119,30942,2,EL,1,100,0.453992
178170,30942,2,EL,1,100,0.453790
178220,30961,2,EL,1,100,0.453992
178271,30961,2,EL,1,100,0.454596
178321,30979,2,EL,1,100,0.453186
178372,30979,2,EL,1,100,0.453387
178422,30997,2,EL,1,100,0.452985
178473,30997,2,EL,1,100,0.453992
178507,31015,3,EL,1,100,0.452582
178541,31015,3,EL,1,100,0.453387
178575,31015,3,EL,1,100,0.454596
178625,31033,2,EL,1,100,0.454797
178675,31033,2,EL,1,100,0.452985
178735,31054,3,EL,1,100,0.454395
178796,31054,3,EL,1,100,0.452985
178857,31054,3,EL,1,100,0.455200
178908,31074,2,EL,1,100,0.454596
178960,31074,2,EL,1,100,0.454596
178993,31093,3,EL,1,100,0.454193
179027,31093,3,EL,1,100,0.454193
179061,31093,3,EL,1,100,0.452985
179111,31111,2,EL,1,100,0.454395
179162,31111,2,EL,1,100,0.453992
179212,31129,2,EL,1,100,0.453992
179262,31129,2,EL,1,100,0.453186
179312,31147,2,EL,1,100,0.454797
179363,31147,2,EL,1,100,0.454797
179413,31165,2,EL,1,100,0.454395
179464,31165,2,EL,1,100,0.454395
179514,31183,2,EL,1,100,0.453790
179565,31183,2,EL,1,100,0.454193
179615,31201,2,EL,1,100,0.454193
179666,31201,2,EL,1,100,0.453387
179716,31220,2,EL,1,100,0.455402
179767,31220,2,EL,1,100,0.453387
179817,31238,2,EL,1,100,0.454193
179868,31238,2,EL,1,100,0.453992
179919,31256,2,EL,1,100,0.454395
179970,31256,2,EL,1,100,0.454395
180020,31274,2,EL,1,100,0.453589
180070,31274,2,EL,1,100,0.454999
180120,31292,2,EL,1,100,0.454395
180171,31292,2,EL,1,100,0.453186
180221,31310,2,EL,1,100,0.454395
180272,31310,2,EL,1,100,0.452783
180322,31328,2,EL,1,100,0.453992
180373,31328,2,EL,1,100,0.453186
180423,31347,2,EL,1,100,0.453387
180474,31347,2,EL,1,100,0.454596
180524,31365,2,EL,1,100,0.453589
180575,31365,2,EL,1,100,0.454395
180625,31383,2,EL,1,100,0.453589
180676,31383,2,EL,1,100,0.454193
180726,31401,2,EL,1,100,0.453186
180777,31401,2,EL,1,100,0.452985
180811,31419,3,EL,1,100,0.453186
180845,31419,3,EL,1,100,0.453992
180879,31419,3,EL,1,100,0.453790
180929,31437,2,EL,1,100,0.453589
180979,31437,2,EL,1,100,0.454193
181030,31455,2,EL,1,100,0.453186
181081,31455,2,EL,1,100,0.452582
181131,31473,2,EL,1,100,0.453186
181181,31473,2,EL,1,100,0.453186
181231,31492,2,EL,1,100,0.453387
181282,31492,2,EL,1,100,0.453790
181332,31510,2,EL,1,100,0.451978
181383,31510,2,EL,1,100,0.452380
181434,31528,2,EL,1,100,0.453387
181485,31528,2,EL,1,100,0.453790
181535,31546,2,EL,1,100,0.452179
181585,31546,2,EL,1,100,0.453186
181635,31564,2,EL,1,100,0.452582
181686,31564,2,EL,1,100,0.452179
181737,31582,2,EL,1,100,0.452985
181788,31582,2,EL,1,100,0.452380
181838,31600,2,EL,1,100,0.452179
181888,31600,2,EL,1,100,0.451776
181938,31619,2,EL,1,100,0.452179
181989,31619,2,EL,1,100,0.451776
182039,31637,2,EL,1,100,0.451978
182090,31637,2,EL,1,100,0.451776
182140,31655,2,EL,1,100,0.451575
182191,31655,2,EL,1,100,0.451172
182241,31673,2,EL,1,100,0.451172
182292,31673,2,EL,1,100,0.451776
182326,31691,3,EL,1,100,0.450366
182360,31691,3,EL,1,100,0.451776
182394,31691,3,EL,1,100,0.451575
182444,31709,2,EL,1,100,0.451776
182494,31709,2,EL,1,100,0.451776
182545,31727,2,EL,1,100,0.451575
182597,31727,2,EL,1,100,0.452179
182646,31746,2,EL,1,100,0.450769
182696,31746,2,EL,1,100,0.449158
182746,31764,2,EL,1,100,0.450970
182797,31764,2,EL,1,100,0.451575
182847,31782,2,EL,1,100,0.452380
182898,31782,2,EL,1,100,0.449359
182948,31800,2,EL,1,100,0.450568
182999,31800,2,EL,1,100,0.450970
183049,31818,2,EL,1,100,0.450568
183100,31818,2,EL,1,100,0.451776
183150,31836,2,EL,1,100,0.450366
183201,31836,2,EL,1,100,0.451373
183251,31854,2,EL,1,100,0.451172
183302,31854,2,EL,1,100,0.450769
183352,31872,2,EL,1,100,0.450366
183403,31872,2,EL,1,100,0.448956
183453,31891,2,EL,1,100,0.449359
183504,31891,2,EL,1,100,0.450568
183554,31909,2,EL,1,100,0.449963
183605,31909,2,EL,1,100,0.451172
183655,31927,2,EL,1,100,0.449762
183706,31927,2,EL,1,100,0.449359
183756,31945,2,EL,1,100,0.449963
183807,31945,2,EL,1,100,0.449963
183841,31963,3,EL,1,100,0.449963
183875,31963,3,EL,1,100,0.450769
183909,31963,3,EL,1,100,0.450568
183959,31981,2,EL,1,100,0.450165
184009,31981,2,EL,1,100,0.449359
184060,31999,2,EL,1,100,0.449963
184112,31999,2,EL,1,100,0.450366
184161,32018,2,EL,1,100,0.449762
184211,32018,2,EL,1,100,0.450165
184261,32036,2,EL,1,100,0.450970
184312,32036,2,EL,1,100,0.451373
184362,32054,2,EL,1,100,0.449359
184413,32054,2,EL,1,100,0.449762
184463,32072,2,EL,1,100,0.448956
184514,32072,2,EL,1,100,0.449158
184564,32090,2,EL,1,100,0.449963
184615,32090,2,EL,1,100,0.449762
184665,32108,2,EL,1,100,0.449359
184716,32108,2,EL,1,100,0.450366
184766,32126,2,EL,1,100,0.450165
184817,32126,2,EL,1,100,0.448956
184867,32144,2,EL,1,100,0.450366
184918,32144,2,EL,1,100,0.449963
184969,32163,2,EL,1,100,0.450366
185020,32163,2,EL,1,100,0.450165
185070,32181,2,EL,1,100,0.449359
185120,32181,2,EL,1,100,0.449561
185170,32199,2,EL,1,100,0.450366
185221,32199,2,EL,1,100,0.450165
185271,32217,2,EL,1,100,0.449359
185322,32217,2,EL,1,100,0.450165
185372,32235,2,EL,1,100,0.450366
185423,32235,2,EL,1,100,0.449762
185457,32253,3,EL,1,100,0.449158
185491,32253,3,EL,1,100,0.450769
185525,32253,3,EL,1,100,0.449561
185575,32271,2,EL,1,100,0.449359
185625,32271,2,EL,1,100,0.449359
185675,32290,2,EL,1,100,0.449561
185726,32290,2,EL,1,100,0.450165
185776,32308,2,EL,1,100,0.450366
185827,32308,2,EL,1,100,0.449762
185877,32326,2,EL,1,100,0.450366
185928,32326,2,EL,1,100,0.449359
185978,32344,2,EL,1,100,0.449158
186029,32344,2,EL,1,100,0.449158
186079,32362,2,EL,1,100,0.450165
186130,32362,2,EL,1,100,0.448755
186180,32380,2,EL,1,100,0.448956
186231,32380,2,EL,1,100,0.450165
186281,32398,2,EL,1,100,0.448956
186332,32398,2,EL,1,100,0.449762
186383,32417,2,EL,1,100,0.450165
186434,32417,2,EL,1,100,0.449762
186484,32435,2,EL,1,100,0.449561
186534,32435,2,EL,1,100,0.449762
186584,32453,2,EL,1,100,0.450970
186635,32453,2,EL,1,100,0.448553
186685,32471,2,EL,1,100,0.449561
186736,32471,2,EL,1,100,0.449963
186786,32489,2,EL,1,100,0.450568
186837,32489,2,EL,1,100,0.450568
186871,32507,3,EL,1,100,0.449762
186905,32507,3,EL,1,100,0.449762
186939,32507,3,EL,1,100,0.449561
186989,32525,2,EL,1,100,0.450366
187039,32525,2,EL,1,100,0.450970
187089,32543,2,EL,1,100,0.449762
187140,32543,2,EL,1,100,0.448755
187191,32562,2,EL,1,100,0.448956
187243,32562,2,EL,1,100,0.450970
187293,32580,2,EL,1,100,0.451172
187343,32580,2,EL,1,100,0.450165
187393,32598,2,EL,1,100,0.450165
187443,32598,2,EL,1,100,0.449561
187493,32616,2,EL,1,100,0.450366
187544,32616,2,EL,1,100,0.449158
187594,32634,2,EL,1,100,0.449963
187645,32634,2,EL,1,100,0.450568
187695,32652,2,EL,1,100,0.449359
187746,32652,2,EL,1,100,0.450769
187796,32670,2,EL,1,100,0.448553
187847,32670,2,EL,1,100,0.449359
187897,32689,2,EL,1,100,0.448151
187948,32689,2,EL,1,100,0.449359
187999,32707,2,EL,1,100,0.450165
188051,32707,2,EL,1,100,0.451172
188100,32725,2,EL,1,100,0.450366
188150,32725,2,EL,1,100,0.447748
188200,32743,2,EL,1,100,0.448755
188251,32743,2,EL,1,100,0.450165
188301,32761,2,EL,1,100,0.448352
188352,32761,2,EL,1,100,0.449561
188402,32779,2,EL,1,100,0.449762
188453,32779,2,EL,1,100,0.447546
188487,32797,3,EL,1,100,0.449762
188521,32797,3,EL,1,100,0.448956
188555,32797,3,EL,1,100,0.449561
188605,32816,2,EL,1,100,0.449359
188655,32816,2,EL,1,100,0.448956
188711,32834,3,EL,1,100,0.449963
188768,32834,3,EL,1,100,0.449762
188825,32834,3,EL,1,100,0.448352
188875,32852,2,EL,1,100,0.448151
188925,32852,2,EL,1,100,0.448956
188976,32870,2,EL,1,100,0.448352
189028,32870,2,EL,1,100,0.449561
189077,32888,2,EL,1,100,0.449963
189127,32888,2,EL,1,100,0.449359
189177,32906,2,EL,1,100,0.449762
189228,32906,2,EL,1,100,0.449963
189278,32924,2,EL,1,100,0.448956
189329,32924,2,EL,1,100,0.449963
189363,32943,3,EL,1,100,0.448956
189397,32943,3,EL,1,100,0.449561
189431,32943,3,EL,1,100,0.448553
189481,32961,2,EL,1,100,0.449359
189531,32961,2,EL,1,100,0.449561
189581,32979,2,EL,1,100,0.450165
189632,32979,2,EL,1,100,0.449158
189688,33000,3,EL,1,100,0.450165
189744,33000,3,EL,1,100,0.449158
189800,33000,3,EL,1,100,0.450165
189852,33020,2,EL,1,100,0.449158
189904,33020,2,EL,1,100,0.448553
189954,33038,2,EL,1,100,0.449561
190004,33038,2,EL,1,100,0.448755
190054,33056,2,EL,1,100,0.450366
190105,33056,2,EL,1,100,0.449158
190155,33075,2,EL,1,100,0.448956
190206,33075,2,EL,1,100,0.449158
190256,33093,2,EL,1,100,0.448352
190307,33093,2,EL,1,100,0.447546
190357,33111,2,EL,1,100,0.448956
190408,33111,2,EL,1,100,0.447345
190442,33129,3,EL,1,100,0.448755
190476,33129,3,EL,1,100,0.447546
190510,33129,3,EL,1,100,0.447949
190560,33147,2,EL,1,100,0.448755
190610,33147,2,EL,1,100,0.448151
190660,33165,2,EL,1,100,0.447748
190711,33165,2,EL,1,100,0.446942
190761,33183,2,EL,1,100,0.447949
190812,33183,2,EL,1,100,0.447546
190862,33202,2,EL,1,100,0.447345
190913,33202,2,EL,1,100,0.447949
190963,33220,2,EL,1,100,0.447144
191014,33220,2,EL,1,100,0.446741
191064,33238,2,EL,1,100,0.447345
191115,33238,2,EL,1,100,0.446942
191166,33256,2,EL,1,100,0.447546
191217,33256,2,EL,1,100,0.446741
191267,33274,2,EL,1,100,0.448755
191317,33274,2,EL,1,100,0.446942
191367,33292,2,EL,1,100,0.446741
191418,33292,2,EL,1,100,0.447949
191468,33310,2,EL,1,100,0.447748
191519,33310,2,EL,1,100,0.447546
191570,33328,2,EL,1,100,0.446942
191621,33328,2,EL,1,100,0.446136
191671,33347,2,EL,1,100,0.446942
191721,33347,2,EL,1,100,0.446741
191771,33365,2,EL,1,100,0.446741
191822,33365,2,EL,1,100,0.446539
191872,33383,2,EL,1,100,0.445935
191923,33383,2,EL,1,100,0.446338
191973,33401,2,EL,1,100,0.446338
192024,33401,2,EL,1,100,0.446942
192074,33419,2,EL,1,100,0.446338
192125,33419,2,EL,1,100,0.447949
192159,33437,3,EL,1,100,0.447546
192193,33437,3,EL,1,100,0.445331
192227,33437,3,EL,1,100,0.446741
192277,33455,2,EL,1,100,0.446741
192327,33455,2,EL,1,100,0.446942
192377,33474,2,EL,1,100,0.446338
192428,33474,2,EL,1,100,0.446338
192478,33492,2,EL,1,100,0.447345
192529,33492,2,EL,1,100,0.448151
192579,33510,2,EL,1,100,0.448151
192630,33510,2,EL,1,100,0.447345
192680,33528,2,EL,1,100,0.446741
192731,33528,2,EL,1,100,0.446539
192781,33546,2,EL,1,100,0.448755
192832,33546,2,EL,1,100,0.448553
192882,33564,2,EL,1,100,0.447144
192933,33564,2,EL,1,100,0.447748
192983,33582,2,EL,1,100,0.447144
193034,33582,2,EL,1,100,0.446741
193085,33601,2,EL,1,100,0.447546
193136,33601,2,EL,1,100,0.447546
193186,33619,2,EL,1,100,0.447345
193236,33619,2,EL,1,100,0.447546
193286,33637,2,EL,1,100,0.445129
193337,33637,2,EL,1,100,0.446338
193387,33655,2,EL,1,100,0.446942
193438,33655,2,EL,1,100,0.448352
193472,33673,3,EL,1,100,0.447345
193506,33673,3,EL,1,100,0.446338
193540,33673,3,EL,1,100,0.446741
193590,33691,2,EL,1,100,0.447144
193640,33691,2,EL,1,100,0.447345
193690,33709,2,EL,1,100,0.446338
193741,33709,2,EL,1,100,0.447748
193791,33727,2,EL,1,100,0.447345
193842,33727,2,EL,1,100,0.446539
193892,33746,2,EL,1,100,0.446338
193943,33746,2,EL,1,100,0.447345
193993,33764,2,EL,1,100,0.447345
194044,33764,2,EL,1,100,0.447144
194094,33782,2,EL,1,100,0.446136
194145,33782,2,EL,1,100,0.447748
194195,33800,2,EL,1,100,0.447144
194246,33800,2,EL,1,100,0.446741
194296,33818,2,EL,1,100,0.446942
194347,33818,2,EL,1,100,0.447748
194397,33836,2,EL,1,100,0.446539
194448,33836,2,EL,1,100,0.446338
194498,33854,2,EL,1,100,0.446136
194549,33854,2,EL,1,100,0.447144
194599,33873,2,EL,1,100,0.446539
194650,33873,2,EL,1,100,0.447345
194700,33891,2,EL,1,100,0.446942
194751,33891,2,EL,1,100,0.447546
194801,33909,2,EL,1,100,0.447345
194852,33909,2,EL,1,100,0.445129
194902,33927,2,EL,1,100,0.446942
194953,33927,2,EL,1,100,0.446942
195003,33945,2,EL,1,100,0.447345
195054,33945,2,EL,1,100,0.446539
195088,33963,3,EL,1,100,0.446942
195122,33963,3,EL,1,100,0.446942
195156,33963,3,EL,1,100,0.446136
195206,33981,2,EL,1,100,0.446539
195257,33981,2,EL,1,100,0.446942
195307,33999,2,EL,1,100,0.446338
195357,33999,2,EL,1,100,0.446741
195407,34018,2,EL,1,100,0.447144
195458,34018,2,EL,1,100,0.446539
195508,34036,2,EL,1,100,0.447546
195559,34036,2,EL,1,100,0.447345
195609,34054,2,EL,1,100,0.445734
195660,34054,2,EL,1,100,0.446942
195710,34072,2,EL,1,100,0.446136
195761,34072,2,EL,1,100,0.447748
195811,34090,2,EL,1,100,0.446741
195862,34090,2,EL,1,100,0.445331
195913,34108,2,EL,1,100,0.445734
195964,34108,2,EL,1,100,0.444525
196014,34126,2,EL,1,100,0.446741
196064,34126,2,EL,1,100,0.445935
196114,34145,2,EL,1,100,0.445331
196165,34145,2,EL,1,100,0.445532
196215,34163,2,EL,1,100,0.444928
196266,34163,2,EL,1,100,0.446741
196316,34181,2,EL,1,100,0.446338
196367,34181,2,EL,1,100,0.445129
196417,34199,2,EL,1,100,0.446338
196468,34199,2,EL,1,100,0.445129
196518,34217,2,EL,1,100,0.445129
196569,34217,2,EL,1,100,0.445532
196619,34235,2,EL,1,100,0.445734
196670,34235,2,EL,1,100,0.446136
196720,34253,2,EL,1,100,0.445532
196771,34253,2,EL,1,100,0.445532
196805,34272,3,EL,1,100,0.445734
196839,34272,3,EL,1,100,0.445935
196873,34272,3,EL,1,100,0.444928
196923,34290,2,EL,1,100,0.446539
196973,34290,2,EL,1,100,0.444727
197023,34308,2,EL,1,100,0.445734
197074,34308,2,EL,1,100,0.445129
197125,34326,2,EL,1,100,0.445331
197176,34326,2,EL,1,100,0.445331
197226,34344,2,EL,1,100,0.446136
197276,34344,2,EL,1,100,0.444525
197326,34362,2,EL,1,100,0.445734
197377,34362,2,EL,1,100,0.445331
197427,34380,2,EL,1,100,0.444525
197478,34380,2,EL,1,100,0.446136
197529,34398,2,EL,1,100,0.445935
197580,34398,2,EL,1,100,0.444928
197630,34417,2,EL,1,100,0.446539
197680,34417,2,EL,1,100,0.445734
197730,34435,2,EL,1,100,0.445331
197781,34435,2,EL,1,100,0.444928
197831,34453,2,EL,1,100,0.445129
197882,34453,2,EL,1,100,0.445331
197932,34471,2,EL,1,100,0.445331
197983,34471,2,EL,1,100,0.445129
198033,34489,2,EL,1,100,0.446741
198084,34489,2,EL,1,100,0.444525
198134,34507,2,EL,1,100,0.445331
198185,34507,2,EL,1,100,0.444928
198235,34525,2,EL,1,100,0.445734
198286,34525,2,EL,1,100,0.445129
198320,34544,3,EL,1,100,0.445129
198354,34544,3,EL,1,100,0.444525
198388,34544,3,EL,1,100,0.444727
198438,34562,2,EL,1,100,0.445532
198488,34562,2,EL,1,100,0.444324
198538,34580,2,EL,1,100,0.445935
198589,34580,2,EL,1,100,0.445532
198639,34598,2,EL,1,100,0.444928
198690,34598,2,EL,1,100,0.445331
198740,34616,2,EL,1,100,0.445935
198791,34616,2,EL,1,100,0.445935
198841,34634,2,EL,1,100,0.445532
198892,34634,2,EL,1,100,0.445532
198942,34652,2,EL,1,100,0.445532
198993,34652,2,EL,1,100,0.444928
199043,34670,2,EL,1,100,0.444727
199094,34670,2,EL,1,100,0.446136
199144,34689,2,EL,1,100,0.445935
199195,34689,2,EL,1,100,0.446741
199245,34707,2,EL,1,100,0.445129
199296,34707,2,EL,1,100,0.445331
199346,34725,2,EL,1,100,0.445532
199397,34725,2,EL,1,100,0.446539
199448,34743,2,EL,1,100,0.445935
199499,34743,2,EL,1,100,0.446741
199549,34761,2,EL,1,100,0.445734
199599,34761,2,EL,1,100,0.445935
199649,34779,2,EL,1,100,0.445935
199700,34779,2,EL,1,100,0.446942
199750,34797,2,EL,1,100,0.444928
199801,34797,2,EL,1,100,0.445935
199835,34816,3,EL,1,100,0.444727
199869,34816,3,EL,1,100,0.444324
199904,34816,3,EL,1,100,0.445734
199953,34834,2,EL,1,100,0.444727
200003,34834,2,EL,1,100,0.443518
200053,34852,2,EL,1,100,0.445935
200104,34852,2,EL,1,100,0.445734
200154,34870,2,EL,1,100,0.445331
200205,34870,2,EL,1,100,0.444122
200255,34888,2,EL,1,100,0.444122
200306,34888,2,EL,1,100,0.444525
200356,34906,2,EL,1,100,0.444122
200407,34906,2,EL,1,100,0.443719
200457,34924,2,EL,1,100,0.443518
200508,34924,2,EL,1,100,0.443921
200553,34946,4,EL,1,100,0.442310
200598,34946,4,EL,1,100,0.443719
200643,34946,4,EL,1,100,0.443921
200688,34946,4,EL,1,100,0.442108
200739,34965,2,EL,1,100,0.443518
200790,34965,2,EL,1,100,0.443115
200840,34984,2,EL,1,100,0.442914
200890,34984,2,EL,1,100,0.442914
200940,35002,2,EL,1,100,0.441504
200991,35002,2,EL,1,100,0.441907
201041,35020,2,EL,1,100,0.442511
201092,35020,2,EL,1,100,0.441302
201142,35038,2,EL,1,100,0.442310
201193,35038,2,EL,1,100,0.442310
201243,35056,2,EL,1,100,0.441302
201294,35056,2,EL,1,100,0.442310
201345,35075,2,EL,1,100,0.440497
201396,35075,2,EL,1,100,0.442310
201446,35093,2,EL,1,100,0.441302
201496,35093,2,EL,1,100,0.439893
201546,35111,2,EL,1,100,0.441101
201597,35111,2,EL,1,100,0.441302
201648,35129,2,EL,1,100,0.440698
201700,35129,2,EL,1,100,0.441101
201749,35147,2,EL,1,100,0.440094
201799,35147,2,EL,1,100,0.440698
201849,35165,2,EL,1,100,0.440698
201900,35165,2,EL,1,100,0.440698
201950,35183,2,EL,1,100,0.439490
202001,35183,2,EL,1,100,0.440295
202051,35202,2,EL,1,100,0.440295
202102,35202,2,EL,1,100,0.441101
202136,35220,3,EL,1,100,0.440900
202170,35220,3,EL,1,100,0.439893
202204,35220,3,EL,1,100,0.440497
202254,35238,2,EL,1,100,0.438885
202304,35238,2,EL,1,100,0.439893
202354,35256,2,EL,1,100,0.438885
202405,35256,2,EL,1,100,0.440094
202455,35274,2,EL,1,100,0.439691
202506,35274,2,EL,1,100,0.440295
202556,35292,2,EL,1,100,0.441302
202607,35292,2,EL,1,100,0.439893
202657,35310,2,EL,1,100,0.440900
202708,35310,2,EL,1,100,0.439490
202758,35328,2,EL,1,100,0.439288
202809,35328,2,EL,1,100,0.438483
202859,35347,2,EL,1,100,0.439691
202910,35347,2,EL,1,100,0.439893
202960,35365,2,EL,1,100,0.441302
203011,35365,2,EL,1,100,0.439691
203061,35383,2,EL,1,100,0.440295
203112,35383,2,EL,1,100,0.440497
203163,35401,2,EL,1,100,0.440497
203214,35401,2,EL,1,100,0.438885
203264,35419,2,EL,1,100,0.440497
203314,35419,2,EL,1,100,0.440497
203364,35437,2,EL,1,100,0.439893
203415,35437,2,EL,1,100,0.439691
203465,35455,2,EL,1,100,0.441302
203516,35455,2,EL,1,100,0.439691
203566,35474,2,EL,1,100,0.439288
203617,35474,2,EL,1,100,0.439087
203651,35492,3,EL,1,100,0.441101
203685,35492,3,EL,1,100,0.438281
203719,35492,3,EL,1,100,0.439893
203769,35510,2,EL,1,100,0.440295
203819,35510,2,EL,1,100,0.440497
203869,35528,2,EL,1,100,0.439893
203920,35528,2,EL,1,100,0.439288
203970,35546,2,EL,1,100,0.440497
204021,35546,2,EL,1,100,0.441504
204071,35564,2,EL,1,100,0.440295
204122,35564,2,EL,1,100,0.439490
204172,35582,2,EL,1,100,0.441302
204223,35582,2,EL,1,100,0.439490
204273,35601,2,EL,1,100,0.440497
204324,35601,2,EL,1,100,0.438885
204375,35619,2,EL,1,100,0.439288
204427,35619,2,EL,1,100,0.439893
204477,35637,2,EL,1,100,0.439087
204527,35637,2,EL,1,100,0.438684
204577,35655,2,EL,1,100,0.440295
204628,35655,2,EL,1,100,0.439490
204678,35673,2,EL,1,100,0.440094
204729,35673,2,EL,1,100,0.439691
204779,35691,2,EL,1,100,0.439288
204830,35691,2,EL,1,100,0.438885
204880,35709,2,EL,1,100,0.439288
204931,35709,2,EL,1,100,0.439087
204981,35727,2,EL,1,100,0.438080
205032,35727,2,EL,1,100,0.438483
205082,35746,2,EL,1,100,0.440094
205133,35746,2,EL,1,100,0.439288
205167,35764,3,EL,1,100,0.438684
205201,35764,3,EL,1,100,0.439087
205235,35764,3,EL,1,100,0.438483
205285,35782,2,EL,1,100,0.438885
205335,35782,2,EL,1,100,0.438483
205385,35800,2,EL,1,100,0.438483
205436,35800,2,EL,1,100,0.438483
205487,35818,2,EL,1,100,0.437476
205538,35818,2,EL,1,100,0.438684
205588,35836,2,EL,1,100,0.437878
205638,35836,2,EL,1,100,0.438281
205688,35854,2,EL,1,100,0.438483
205739,35854,2,EL,1,100,0.437878
205789,35873,2,EL,1,100,0.438281
205840,35873,2,EL,1,100,0.439490
205890,35891,2,EL,1,100,0.438080
205941,35891,2,EL,1,100,0.438281
205992,35909,2,EL,1,100,0.438080
206044,35909,2,EL,1,100,0.437878
206093,35927,2,EL,1,100,0.438483
206143,35927,2,EL,1,100,0.438483
206193,35945,2,EL,1,100,0.437073
206244,35945,2,EL,1,100,0.437878
206295,35963,2,EL,1,100,0.436871
206346,35963,2,EL,1,100,0.438080
206396,35981,2,EL,1,100,0.437677
206446,35981,2,EL,1,100,0.437073
206496,35999,2,EL,1,100,0.437677
206547,35999,2,EL,1,100,0.436871
206597,36018,2,EL,1,100,0.438080
206648,36018,2,EL,1,100,0.436267
206698,36036,2,EL,1,100,0.437073
206749,36036,2,EL,1,100,0.436267
206783,36054,3,EL,1,100,0.438080
206817,36054,3,EL,1,100,0.437073
206851,36054,3,EL,1,100,0.437274
206901,36072,2,EL,1,100,0.436871
206951,36072,2,EL,1,100,0.437073
207002,36090,2,EL,1,100,0.435864
207053,36090,2,EL,1,100,0.436670
207103,36108,2,EL,1,100,0.438080
207153,36108,2,EL,1,100,0.436670
207203,36126,2,EL,1,100,0.436871
207254,36126,2,EL,1,100,0.437677
207304,36145,2,EL,1,100,0.437476
207355,36145,2,EL,1,100,0.437476
207405,36163,2,EL,1,100,0.437878
207456,36163,2,EL,1,100,0.436871
207506,36181,2,EL,1,100,0.438080
207557,36181,2,EL,1,100,0.437878
207607,36199,2,EL,1,100,0.438281
207658,36199,2,EL,1,100,0.437073
207708,36217,2,EL,1,100,0.438483
207759,36217,2,EL,1,100,0.437677
207809,36235,2,EL,1,100,0.436066
207860,36235,2,EL,1,100,0.438080
207911,36253,2,EL,1,100,0.438483
207962,36253,2,EL,1,100,0.438080
208012,36272,2,EL,1,100,0.437476
208062,36272,2,EL,1,100,0.437476
208112,36290,2,EL,1,100,0.437677
208163,36290,2,EL,1,100,0.438080
208213,36308,2,EL,1,100,0.437677
208264,36308,2,EL,1,100,0.437878
208314,36326,2,EL,1,100,0.437878
208365,36326,2,EL,1,100,0.437677
208399,36344,3,EL,1,100,0.439087
208433,36344,3,EL,1,100,0.436871
208467,36344,3,EL,1,100,0.437476
208517,36362,2,EL,1,100,0.438281
208567,36362,2,EL,1,100,0.439691
208617,36380,2,EL,1,100,0.438885
208668,36380,2,EL,1,100,0.437274
208718,36398,2,EL,1,100,0.438281
208769,36398,2,EL,1,100,0.437073
208819,36417,2,EL,1,100,0.438483
208870,36417,2,EL,1,100,0.438885
208920,36435,2,EL,1,100,0.438483
208971,36435,2,EL,1,100,0.439691
209021,36453,2,EL,1,100,0.437878
209072,36453,2,EL,1,100,0.438885
209122,36471,2,EL,1,100,0.438483
209173,36471,2,EL,1,100,0.439288
209223,36489,2,EL,1,100,0.437878
209274,36489,2,EL,1,100,0.437878
209325,36507,2,EL,1,100,0.438281
209377,36507,2,EL,1,100,0.439288
209427,36525,2,EL,1,100,0.437274
209477,36525,2,EL,1,100,0.436871
209527,36544,2,EL,1,100,0.437073
209577,36544,2,EL,1,100,0.437476
209627,36562,2,EL,1,100,0.438080
209678,36562,2,EL,1,100,0.437476
209728,36580,2,EL,1,100,0.437476
209779,36580,2,EL,1,100,0.438483
209829,36598,2,EL,1,100,0.438483
209880,36598,2,EL,1,100,0.437476
209914,36616,3,EL,1,100,0.436267
209948,36616,3,EL,1,100,0.437878
209982,36616,3,EL,1,100,0.436469
210032,36634,2,EL,1,100,0.436871
210082,36634,2,EL,1,100,0.436267
210132,36652,2,EL,1,100,0.436469
210183,36652,2,EL,1,100,0.435461
210234,36670,2,EL,1,100,0.438281
210285,36670,2,EL,1,100,0.435864
210335,36689,2,EL,1,100,0.436066
210385,36689,2,EL,1,100,0.436267
210435,36707,2,EL,1,100,0.435260
210486,36707,2,EL,1,100,0.435260
210536,36725,2,EL,1,100,0.436871
210587,36725,2,EL,1,100,0.435663
210637,36743,2,EL,1,100,0.436267
210688,36743,2,EL,1,100,0.436066
210739,36761,2,EL,1,100,0.436267
210791,36761,2,EL,1,100,0.434454
210841,36779,2,EL,1,100,0.435864
210891,36779,2,EL,1,100,0.435864
210941,36797,2,EL,1,100,0.436469
210992,36797,2,EL,1,100,0.435260
211043,36816,2,EL,1,100,0.434857
211094,36816,2,EL,1,100,0.435461
211144,36834,2,EL,1,100,0.436469
211194,36834,2,EL,1,100,0.435864
211244,36852,2,EL,1,100,0.435461
211295,36852,2,EL,1,100,0.435461
211345,36870,2,EL,1,100,0.434656
211396,36870,2,EL,1,100,0.436670
211441,36891,4,EL,1,100,0.434454
211486,36891,4,EL,1,100,0.435059
211531,36891,4,EL,1,100,0.435461
211576,36891,4,EL,1,100,0.434253
211626,36909,2,EL,1,100,0.434656
211677,36909,2,EL,1,100,0.435461
211727,36927,2,EL,1,100,0.434454
211777,36927,2,EL,1,100,0.434656
211827,36946,2,EL,1,100,0.434656
211878,36946,2,EL,1,100,0.435059
211928,36964,2,EL,1,100,0.434454
211979,36964,2,EL,1,100,0.434052
212029,36982,2,EL,1,100,0.435864
212080,36982,2,EL,1,100,0.435059
212114,37000,3,EL,1,100,0.434253
212148,37000,3,EL,1,100,0.435864
212182,37000,3,EL,1,100,0.434253
212232,37018,2,EL,1,100,0.435864
212282,37018,2,EL,1,100,0.436469
212332,37036,2,EL,1,100,0.434857
212383,37036,2,EL,1,100,0.435059
212433,37054,2,EL,1,100,0.434052
212484,37054,2,EL,1,100,0.434656
212534,37073,2,EL,1,100,0.435059
212585,37073,2,EL,1,100,0.434253
212635,37091,2,EL,1,100,0.435461
212686,37091,2,EL,1,100,0.434857
212736,37109,2,EL,1,100,0.434857
212787,37109,2,EL,1,100,0.434857
212837,37127,2,EL,1,100,0.434656
212888,37127,2,EL,1,100,0.434253
212938,37145,2,EL,1,100,0.437274
212989,37145,2,EL,1,100,0.433850
213039,37163,2,EL,1,100,0.435461
213090,37163,2,EL,1,100,0.433850
213140,37181,2,EL,1,100,0.435663
213191,37181,2,EL,1,100,0.435461
213242,37200,2,EL,1,100,0.434656
213293,37200,2,EL,1,100,0.435260
213343,37218,2,EL,1,100,0.436066
213393,37218,2,EL,1,100,0.435260
213443,37236,2,EL,1,100,0.436469
213494,37236,2,EL,1,100,0.435864
213544,37254,2,EL,1,100,0.435663
213595,37254,2,EL,1,100,0.435864
213629,37272,3,EL,1,100,0.436267
213663,37272,3,EL,1,100,0.437274
213698,37272,3,EL,1,100,0.434656
213747,37290,2,EL,1,100,0.434656
213797,37290,2,EL,1,100,0.436670
213847,37308,2,EL,1,100,0.436670
213898,37308,2,EL,1,100,0.436267
213948,37326,2,EL,1,100,0.437274
213999,37326,2,EL,1,100,0.435663
214049,37345,2,EL,1,100,0.435663
214100,37345,2,EL,1,100,0.436469
214150,37363,2,EL,1,100,0.436469
214201,37363,2,EL,1,100,0.436670
214251,37381,2,EL,1,100,0.435260
214302,37381,2,EL,1,100,0.435663
214352,37399,2,EL,1,100,0.435461
214403,37399,2,EL,1,100,0.437476
214453,37417,2,EL,1,100,0.436267
214504,37417,2,EL,1,100,0.436066
214554,37435,2,EL,1,100,0.436469
214605,37435,2,EL,1,100,0.435663
214647,37453,4,EL,1,100,0.437677
214689,37453,4,EL,1,100,0.436670
214731,37453,4,EL,1,100,0.434857
214773,37453,4,EL,1,100,0.436066
214828,37472,2,EL,1,100,0.436267
214884,37472,2,EL,1,100,0.436267
214934,37490,2,EL,1,100,0.436066
214984,37490,2,EL,1,100,0.435864
215034,37508,2,EL,1,100,0.437073
215085,37508,2,EL,1,100,0.437073
215135,37526,2,EL,1,100,0.437476
215186,37526,2,EL,1,100,0.437073
215237,37544,2,EL,1,100,0.437476
215288,37544,2,EL,1,100,0.436469
215338,37562,2,EL,1,100,0.437878
215388,37562,2,EL,1,100,0.437274
215438,37580,2,EL,1,100,0.437274
215489,37580,2,EL,1,100,0.436267
215539,37599,2,EL,1,100,0.437878
215590,37599,2,EL,1,100,0.437677
215640,37617,2,EL,1,100,0.437476
215691,37617,2,EL,1,100,0.437677
215741,37635,2,EL,1,100,0.437274
215792,37635,2,EL,1,100,0.437677
215842,37653,2,EL,1,100,0.437677
215893,37653,2,EL,1,100,0.438080
215943,37671,2,EL,1,100,0.436871
215994,37671,2,EL,1,100,0.437878
216028,37689,3,EL,1,100,0.437677
216062,37689,3,EL,1,100,0.437073
216096,37689,3,EL,1,100,0.438080
216146,37707,2,EL,1,100,0.437677
216196,37707,2,EL,1,100,0.437274
216247,37726,2,EL,1,100,0.437677
216299,37726,2,EL,1,100,0.438080
216348,37744,2,EL,1,100,0.437878
216398,37744,2,EL,1,100,0.437677
216448,37762,2,EL,1,100,0.437878
216499,37762,2,EL,1,100,0.437677
216549,37780,2,EL,1,100,0.438281
216600,37780,2,EL,1,100,0.438281
216651,37798,2,EL,1,100,0.438885
216702,37798,2,EL,1,100,0.438684
216752,37816,2,EL,1,100,0.438281
216802,37816,2,EL,1,100,0.438885
216852,37834,2,EL,1,100,0.438281
216903,37834,2,EL,1,100,0.438281
216954,37853,2,EL,1,100,0.438885
217006,37853,2,EL,1,100,0.438483
217055,37871,2,EL,1,100,0.438080
217105,37871,2,EL,1,100,0.438080
217155,37889,2,EL,1,100,0.439490
217206,37889,2,EL,1,100,0.438483
217256,37907,2,EL,1,100,0.438483
217307,37907,2,EL,1,100,0.439691
217357,37925,2,EL,1,100,0.439288
217408,37925,2,EL,1,100,0.439087
217442,37943,3,EL,1,100,0.439087
217476,37943,3,EL,1,100,0.437878
217510,37943,3,EL,1,100,0.439288
217561,37961,2,EL,1,100,0.438885
217612,37961,2,EL,1,100,0.439087
217662,37979,2,EL,1,100,0.439087
217712,37979,2,EL,1,100,0.438684
217762,37998,2,EL,1,100,0.439087
217813,37998,2,EL,1,100,0.438885
217863,38016,2,EL,1,100,0.439691
217914,38016,2,EL,1,100,0.439691
217964,38034,2,EL,1,100,0.438885
218015,38034,2,EL,1,100,0.439893
218065,38052,2,EL,1,100,0.439288
218116,38052,2,EL,1,100,0.439288
218166,38070,2,EL,1,100,0.440900
218217,38070,2,EL,1,100,0.440295
218268,38088,2,EL,1,100,0.439490
218319,38088,2,EL,1,100,0.439691
218369,38106,2,EL,1,100,0.439490
218419,38106,2,EL,1,100,0.440497
218469,38125,2,EL,1,100,0.439288
218520,38125,2,EL,1,100,0.439893
218570,38143,2,EL,1,100,0.439691
218621,38143,2,EL,1,100,0.439288
218671,38161,2,EL,1,100,0.441302
218722,38161,2,EL,1,100,0.440497
218772,38179,2,EL,1,100,0.440094
218823,38179,2,EL,1,100,0.440295
218873,38197,2,EL,1,100,0.441101
218924,38197,2,EL,1,100,0.439893
218958,38215,3,EL,1,100,0.441302
218992,38215,3,EL,1,100,0.441705
219026,38215,3,EL,1,100,0.441101
219076,38233,2,EL,1,100,0.440698
219127,38233,2,EL,1,100,0.439691
219177,38251,2,EL,1,100,0.440698
219227,38251,2,EL,1,100,0.439691
219277,38270,2,EL,1,100,0.440295
219328,38270,2,EL,1,100,0.440295
219379,38288,2,EL,1,100,0.440900
219431,38288,2,EL,1,100,0.441907
219480,38306,2,EL,1,100,0.440698
219530,38306,2,EL,1,100,0.440698
219580,38324,2,EL,1,100,0.440497
219631,38324,2,EL,1,100,0.441101
219681,38342,2,EL,1,100,0.440698
219732,38342,2,EL,1,100,0.440295
219782,38360,2,EL,1,100,0.440900
219833,38360,2,EL,1,100,0.441504
219883,38378,2,EL,1,100,0.440497
219934,38378,2,EL,1,100,0.440497
219984,38397,2,EL,1,100,0.441504
220035,38397,2,EL,1,100,0.441302
220085,38415,2,EL,1,100,0.440900
220136,38415,2,EL,1,100,0.440698
220186,38433,2,EL,1,100,0.441101
220237,38433,2,EL,1,100,0.440698
220288,38451,2,EL,1,100,0.441705
220339,38451,2,EL,1,100,0.439691
220389,38469,2,EL,1,100,0.441907
220439,38469,2,EL,1,100,0.440094
220489,38487,2,EL,1,100,0.441101
220540,38487,2,EL,1,100,0.441302
220590,38505,2,EL,1,100,0.442310
220641,38505,2,EL,1,100,0.443115
220675,38524,3,EL,1,100,0.441705
220709,38524,3,EL,1,100,0.441907
220743,38524,3,EL,1,100,0.440497
220793,38542,2,EL,1,100,0.442310
220843,38542,2,EL,1,100,0.443115
220893,38560,2,EL,1,100,0.442310
220944,38560,2,EL,1,100,0.442914
220995,38578,2,EL,1,100,0.443719
221046,38578,2,EL,1,100,0.441705
221096,38596,2,EL,1,100,0.441907
221146,38596,2,EL,1,100,0.441101
221196,38614,2,EL,1,100,0.441705
221247,38614,2,EL,1,100,0.441907
221297,38632,2,EL,1,100,0.441907
221348,38632,2,EL,1,100,0.442108
221398,38650,2,EL,1,100,0.441907
221449,38650,2,EL,1,100,0.442310
221495,38669,4,EL,1,100,0.443115
221541,38669,4,EL,1,100,0.441504
221587,38669,4,EL,1,100,0.441705
221633,38669,4,EL,1,100,0.442511
221683,38687,2,EL,1,100,0.442511
221733,38687,2,EL,1,100,0.442914
221783,38705,2,EL,1,100,0.443115
221833,38705,2,EL,1,100,0.442108
221883,38723,2,EL,1,100,0.442914
221934,38723,2,EL,1,100,0.442914
221985,38741,2,EL,1,100,0.443518
222037,38741,2,EL,1,100,0.442914
222086,38759,2,EL,1,100,0.442712
222136,38759,2,EL,1,100,0.443719
222186,38778,2,EL,1,100,0.442712
222237,38778,2,EL,1,100,0.442914
222287,38796,2,EL,1,100,0.442914
222338,38796,2,EL,1,100,0.443719
222379,38817,4,EL,1,100,0.442310
222421,38817,4,EL,1,100,0.443518
222462,38817,4,EL,1,100,0.443518
222504,38817,4,EL,1,100,0.443719
222555,38836,2,EL,1,100,0.442712
222606,38836,2,EL,1,100,0.441705
222656,38855,2,EL,1,100,0.442511
222706,38855,2,EL,1,100,0.444122
222756,38873,2,EL,1,100,0.442712
222807,38873,2,EL,1,100,0.443921
222857,38891,2,EL,1,100,0.443317
222908,38891,2,EL,1,100,0.443921
222958,38910,2,EL,1,100,0.444122
223009,38910,2,EL,1,100,0.443719
223059,38928,2,EL,1,100,0.444525
223110,38928,2,EL,1,100,0.443317
223160,38946,2,EL,1,100,0.443921
223211,38946,2,EL,1,100,0.444727
223261,38964,2,EL,1,100,0.443719
223312,38964,2,EL,1,100,0.442914
223362,38982,2,EL,1,100,0.442914
223413,38982,2,EL,1,100,0.443719
223464,39000,2,EL,1,100,0.444928
223516,39000,2,EL,1,100,0.443518
223565,39018,2,EL,1,100,0.442712
223615,39018,2,EL,1,100,0.444122
223665,39036,2,EL,1,100,0.444525
223716,39036,2,EL,1,100,0.442310
223766,39055,2,EL,1,100,0.444122
223817,39055,2,EL,1,100,0.443921
223851,39073,3,EL,1,100,0.445532
223885,39073,3,EL,1,100,0.444122
223919,39073,3,EL,1,100,0.445331
223969,39091,2,EL,1,100,0.444122
224019,39091,2,EL,1,100,0.444525
224069,39109,2,EL,1,100,0.444525
224120,39109,2,EL,1,100,0.444324
224170,39127,2,EL,1,100,0.444727
224221,39127,2,EL,1,100,0.443115
224271,39145,2,EL,1,100,0.446539
224322,39145,2,EL,1,100,0.445129
224372,39163,2,EL,1,100,0.444727
224423,39163,2,EL,1,100,0.444324
224473,39182,2,EL,1,100,0.444928
224524,39182,2,EL,1,100,0.444727
224574,39200,2,EL,1,100,0.443518
224625,39200,2,EL,1,100,0.444525
224676,39218,2,EL,1,100,0.444324
224727,39218,2,EL,1,100,0.443719
224777,39236,2,EL,1,100,0.444525
224828,39236,2,EL,1,100,0.445734
224878,39254,2,EL,1,100,0.442914
224928,39254,2,EL,1,100,0.443719
224978,39272,2,EL,1,100,0.444324
225029,39272,2,EL,1,100,0.443518
225079,39290,2,EL,1,100,0.445331
225130,39290,2,EL,1,100,0.444324
225180,39309,2,EL,1,100,0.442914
225231,39309,2,EL,1,100,0.445331
225281,39327,2,EL,1,100,0.443921
225332,39327,2,EL,1,100,0.444122
225382,39345,2,EL,1,100,0.444525
225433,39345,2,EL,1,100,0.444928
225467,39363,3,EL,1,100,0.444727
225501,39363,3,EL,1,100,0.443921
225535,39363,3,EL,1,100,0.444122
225585,39381,2,EL,1,100,0.444324
225636,39381,2,EL,1,100,0.444928
225686,39399,2,EL,1,100,0.443317
225736,39399,2,EL,1,100,0.445129
225786,39417,2,EL,1,100,0.444928
225837,39417,2,EL,1,100,0.444122
225887,39435,2,EL,1,100,0.444324
225938,39435,2,EL,1,100,0.443518
225988,39454,2,EL,1,100,0.444324
226039,39454,2,EL,1,100,0.443518
226089,39472,2,EL,1,100,0.443921
226140,39472,2,EL,1,100,0.444324
226190,39490,2,EL,1,100,0.443719
226241,39490,2,EL,1,100,0.443115
226291,39508,2,EL,1,100,0.443317
226342,39508,2,EL,1,100,0.444122
226392,39526,2,EL,1,100,0.445331
226443,39526,2,EL,1,100,0.443115
226493,39544,2,EL,1,100,0.445129
226544,39544,2,EL,1,100,0.444324
226595,39562,2,EL,1,100,0.443719
226646,39562,2,EL,1,100,0.443921
226696,39581,2,EL,1,100,0.444525
226746,39581,2,EL,1,100,0.443921
226796,39599,2,EL,1,100,0.443921
226847,39599,2,EL,1,100,0.445129
226897,39617,2,EL,1,100,0.443719
226948,39617,2,EL,1,100,0.443719
226982,39635,3,EL,1,100,0.444525
227016,39635,3,EL,1,100,0.443921
227051,39635,3,EL,1,100,0.443719
227100,39653,2,EL,1,100,0.444324
227150,39653,2,EL,1,100,0.443719
227200,39671,2,EL,1,100,0.444525
227251,39671,2,EL,1,100,0.444727
227301,39689,2,EL,1,100,0.445331
227352,39689,2,EL,1,100,0.444727
227402,39708,2,EL,1,100,0.444928
227453,39708,2,EL,1,100,0.446338
227503,39726,2,EL,1,100,0.445331
227554,39726,2,EL,1,100,0.445935
227604,39744,2,EL,1,100,0.444122
227655,39744,2,EL,1,100,0.445129
227705,39762,2,EL,1,100,0.444525
227756,39762,2,EL,1,100,0.445734
227807,39780,2,EL,1,100,0.444928
227859,39780,2,EL,1,100,0.444525
227908,39798,2,EL,1,100,0.445935
227958,39798,2,EL,1,100,0.444928
228008,39816,2,EL,1,100,0.443518
228059,39816,2,EL,1,100,0.444525
228110,39834,2,EL,1,100,0.444928
228162,39834,2,EL,1,100,0.445734
228211,39853,2,EL,1,100,0.444324
228261,39853,2,EL,1,100,0.445532
228311,39871,2,EL,1,100,0.446136
228362,39871,2,EL,1,100,0.445734
228412,39889,2,EL,1,100,0.444525
228463,39889,2,EL,1,100,0.445532
228497,39907,3,EL,1,100,0.445129
228531,39907,3,EL,1,100,0.444727
228565,39907,3,EL,1,100,0.446136
228615,39925,2,EL,1,100,0.445935
228665,39925,2,EL,1,100,0.445532
228715,39943,2,EL,1,100,0.445532
228766,39943,2,EL,1,100,0.445331
228816,39961,2,EL,1,100,0.445935
228867,39961,2,EL,1,100,0.446539
228918,39980,2,EL,1,100,0.445935
228969,39980,2,EL,1,100,0.445935
229019,39998,2,EL,1,100,0.446338
229069,39998,2,EL,1,100,0.445935
229119,40016,2,EL,1,100,0.445532
229170,40016,2,EL,1,100,0.445935
229220,40034,2,EL,1,100,0.446741
229271,40034,2,EL,1,100,0.446338
229321,40052,2,EL,1,100,0.446136
229372,40052,2,EL,1,100,0.446136
229423,40070,2,EL,1,100,0.446136
229475,40070,2,EL,1,100,0.446539
229524,40088,2,EL,1,100,0.445532
229574,40088,2,EL,1,100,0.446136
229624,40106,2,EL,1,100,0.446741
229675,40106,2,EL,1,100,0.446136
229725,40125,2,EL,1,100,0.446741
229776,40125,2,EL,1,100,0.445734
229826,40143,2,EL,1,100,0.446539
229877,40143,2,EL,1,100,0.447949
229927,40161,2,EL,1,100,0.446338
229978,40161,2,EL,1,100,0.447345
230028,40179,2,EL,1,100,0.446136
230079,40179,2,EL,1,100,0.446338
230113,40197,3,EL,1,100,0.446338
230147,40197,3,EL,1,100,0.446942
230181,40197,3,EL,1,100,0.447949
230231,40215,2,EL,1,100,0.446136
230281,40215,2,EL,1,100,0.446741
230331,40233,2,EL,1,100,0.446539
230382,40233,2,EL,1,100,0.446741
230432,40252,2,EL,1,100,0.447345
230483,40252,2,EL,1,100,0.447144
230533,40270,2,EL,1,100,0.446741
230584,40270,2,EL,1,100,0.446741
230634,40288,2,EL,1,100,0.447345
230685,40288,2,EL,1,100,0.447345
230735,40306,2,EL,1,100,0.446741
230786,40306,2,EL,1,100,0.445331
230837,40324,2,EL,1,100,0.446136
230888,40324,2,EL,1,100,0.446741
230938,40342,2,EL,1,100,0.446136
230988,40342,2,EL,1,100,0.445532
231038,40360,2,EL,1,100,0.447144
231089,40360,2,EL,1,100,0.447345
231139,40379,2,EL,1,100,0.446942
231190,40379,2,EL,1,100,0.446942
231240,40397,2,EL,1,100,0.448151
231291,40397,2,EL,1,100,0.447345
231341,40415,2,EL,1,100,0.447144
231392,40415,2,EL,1,100,0.449561
231442,40433,2,EL,1,100,0.446741
231493,40433,2,EL,1,100,0.446338
231543,40451,2,EL,1,100,0.447949
231594,40451,2,EL,1,100,0.447546
231644,40469,2,EL,1,100,0.448755
231695,40469,2,EL,1,100,0.448151
231729,40487,3,EL,1,100,0.448956
231763,40487,3,EL,1,100,0.447949
231797,40487,3,EL,1,100,0.446942
231847,40505,2,EL,1,100,0.448151
231897,40505,2,EL,1,100,0.447949
231947,40524,2,EL,1,100,0.448755
231998,40524,2,EL,1,100,0.448352
232048,40542,2,EL,1,100,0.447949
232099,40542,2,EL,1,100,0.448352
232149,40560,2,EL,1,100,0.448352
232200,40560,2,EL,1,100,0.448352
232250,40578,2,EL,1,100,0.448956
232301,40578,2,EL,1,100,0.449359
232351,40596,2,EL,1,100,0.448755
232402,40596,2,EL,1,100,0.448755
232453,40614,2,EL,1,100,0.446741
232504,40614,2,EL,1,100,0.449561
232554,40632,2,EL,1,100,0.449158
232604,40632,2,EL,1,100,0.447345
232654,40651,2,EL,1,100,0.449158
232705,40651,2,EL,1,100,0.449158
232755,40669,2,EL,1,100,0.448553
232806,40669,2,EL,1,100,0.449359
232856,40687,2,EL,1,100,0.448352
232907,40687,2,EL,1,100,0.449561
232957,40705,2,EL,1,100,0.448956
233008,40705,2,EL,1,100,0.447748
233058,40723,2,EL,1,100,0.449158
233109,40723,2,EL,1,100,0.450970
233143,40741,3,EL,1,100,0.448956
233177,40741,3,EL,1,100,0.449359
233211,40741,3,EL,1,100,0.447546
233271,40762,3,EL,1,100,0.449963
233331,40762,3,EL,1,100,0.447949
233392,40762,3,EL,1,100,0.447546
233446,40782,2,EL,1,100,0.447345
233501,40782,2,EL,1,100,0.448151
233551,40801,2,EL,1,100,0.447949
233601,40801,2,EL,1,100,0.447345
233635,40819,3,EL,1,100,0.447748
233669,40819,3,EL,1,100,0.448553
233703,40819,3,EL,1,100,0.448151
233753,40837,2,EL,1,100,0.447748
233803,40837,2,EL,1,100,0.448553
233853,40855,2,EL,1,100,0.448151
233904,40855,2,EL,1,100,0.448755
233954,40873,2,EL,1,100,0.447949
234005,40873,2,EL,1,100,0.448352
234055,40891,2,EL,1,100,0.448151
234106,40891,2,EL,1,100,0.447949
234157,40910,2,EL,1,100,0.448352
234208,40910,2,EL,1,100,0.448755
234258,40928,2,EL,1,100,0.447949
234308,40928,2,EL,1,100,0.448755
234358,40946,2,EL,1,100,0.449158
234409,40946,2,EL,1,100,0.448151
234459,40964,2,EL,1,100,0.449561
234510,40964,2,EL,1,100,0.447546
234561,40982,2,EL,1,100,0.448956
234612,40982,2,EL,1,100,0.447144
234662,41000,2,EL,1,100,0.449561
234712,41000,2,EL,1,100,0.450165
234762,41018,2,EL,1,100,0.448956
234813,41018,2,EL,1,100,0.447748
234864,41037,2,EL,1,100,0.449158
234916,41037,2,EL,1,100,0.448956
234965,41055,2,EL,1,100,0.447748
235015,41055,2,EL,1,100,0.447748
235065,41073,2,EL,1,100,0.448956
235116,41073,2,EL,1,100,0.449158
235166,41091,2,EL,1,100,0.449762
235217,41091,2,EL,1,100,0.450769
235251,41109,3,EL,1,100,0.448956
235285,41109,3,EL,1,100,0.448553
235319,41109,3,EL,1,100,0.448956
235369,41127,2,EL,1,100,0.450165
235419,41127,2,EL,1,100,0.448755
235469,41145,2,EL,1,100,0.449963
235520,41145,2,EL,1,100,0.449359
235570,41163,2,EL,1,100,0.449963
235621,41163,2,EL,1,100,0.448755
235672,41182,2,EL,1,100,0.450366
235724,41182,2,EL,1,100,0.449158
235773,41200,2,EL,1,100,0.449158
235823,41200,2,EL,1,100,0.449963
235873,41218,2,EL,1,100,0.450970
235924,41218,2,EL,1,100,0.448352
235974,41236,2,EL,1,100,0.448151
236025,41236,2,EL,1,100,0.448956
236076,41254,2,EL,1,100,0.450970
236127,41254,2,EL,1,100,0.449762
236177,41272,2,EL,1,100,0.449561
236227,41272,2,EL,1,100,0.449359
236277,41290,2,EL,1,100,0.450769
236328,41290,2,EL,1,100,0.449359
236378,41309,2,EL,1,100,0.449158
236429,41309,2,EL,1,100,0.448956
236479,41327,2,EL,1,100,0.449963
236530,41327,2,EL,1,100,0.450165
236580,41345,2,EL,1,100,0.449158
236631,41345,2,EL,1,100,0.449762
236681,41363,2,EL,1,100,0.449963
236732,41363,2,EL,1,100,0.449762
236782,41381,2,EL,1,100,0.449158
236833,41381,2,EL,1,100,0.449359
236867,41399,3,EL,1,100,0.448755
236901,41399,3,EL,1,100,0.449963
236935,41399,3,EL,1,100,0.449561
236985,41417,2,EL,1,100,0.449561
237035,41417,2,EL,1,100,0.450769
237085,41435,2,EL,1,100,0.451978
237136,41435,2,EL,1,100,0.450366
237186,41454,2,EL,1,100,0.450568
237237,41454,2,EL,1,100,0.450366
237288,41472,2,EL,1,100,0.449762
237339,41472,2,EL,1,100,0.450366
237389,41490,2,EL,1,100,0.450970
237439,41490,2,EL,1,100,0.450568
237489,41508,2,EL,1,100,0.450366
237540,41508,2,EL,1,100,0.450366
237591,41526,2,EL,1,100,0.450165
237642,41526,2,EL,1,100,0.450165
237692,41544,2,EL,1,100,0.451172
237742,41544,2,EL,1,100,0.449762
237792,41562,2,EL,1,100,0.450568
237843,41562,2,EL,1,100,0.450165
237893,41581,2,EL,1,100,0.451776
237944,41581,2,EL,1,100,0.448956
237994,41599,2,EL,1,100,0.451172
238045,41599,2,EL,1,100,0.451575
238095,41617,2,EL,1,100,0.450366
238146,41617,2,EL,1,100,0.451373
238196,41635,2,EL,1,100,0.451172
238247,41635,2,EL,1,100,0.449963
238297,41653,2,EL,1,100,0.450366
238348,41653,2,EL,1,100,0.450970
238398,41671,2,EL,1,100,0.451978
238449,41671,2,EL,1,100,0.451373
238483,41689,3,EL,1,100,0.450970
238517,41689,3,EL,1,100,0.450568
238551,41689,3,EL,1,100,0.450769
238601,41708,2,EL,1,100,0.451978
238651,41708,2,EL,1,100,0.450970
238701,41726,2,EL,1,100,0.450568
238752,41726,2,EL,1,100,0.451373
238802,41744,2,EL,1,100,0.450568
238853,41744,2,EL,1,100,0.450769
238903,41762,2,EL,1,100,0.452380
238954,41762,2,EL,1,100,0.452582
239004,41780,2,EL,1,100,0.451776
239055,41780,2,EL,1,100,0.452582
239105,41798,2,EL,1,100,0.452179
239156,41798,2,EL,1,100,0.450769
239206,41816,2,EL,1,100,0.452179
239257,41816,2,EL,1,100,0.452380
239308,41834,2,EL,1,100,0.452582
239359,41834,2,EL,1,100,0.452783
239409,41853,2,EL,1,100,0.451373
239459,41853,2,EL,1,100,0.452985
239509,41871,2,EL,1,100,0.451575
239560,41871,2,EL,1,100,0.451373
239610,41889,2,EL,1,100,0.452179
239661,41889,2,EL,1,100,0.452783
239711,41907,2,EL,1,100,0.453387
239762,41907,2,EL,1,100,0.451978
239812,41925,2,EL,1,100,0.451575
239863,41925,2,EL,1,100,0.452783
239897,41943,3,EL,1,100,0.453589
239931,41943,3,EL,1,100,0.452380
239965,41943,3,EL,1,100,0.453186
240015,41961,2,EL,1,100,0.452179
240066,41961,2,EL,1,100,0.452380
240116,41980,2,EL,1,100,0.452179
240166,41980,2,EL,1,100,0.452582
240216,41998,2,EL,1,100,0.452985
240267,41998,2,EL,1,100,0.451978
240317,42016,2,EL,1,100,0.452380
240368,42016,2,EL,1,100,0.452985
240418,42034,2,EL,1,100,0.453589
240469,42034,2,EL,1,100,0.452783
240519,42052,2,EL,1,100,0.453387
240570,42052,2,EL,1,100,0.452783
240620,42070,2,EL,1,100,0.453589
240671,42070,2,EL,1,100,0.453387
240715,42088,4,EL,1,100,0.453589
240759,42088,4,EL,1,100,0.453387
240803,42088,4,EL,1,100,0.451373
240848,42088,4,EL,1,100,0.452783
240897,42107,2,EL,1,100,0.454797
240947,42107,2,EL,1,100,0.452582
240997,42125,2,EL,1,100,0.454193
241048,42125,2,EL,1,100,0.452380
241098,42143,2,EL,1,100,0.453992
241149,42143,2,EL,1,100,0.453387
241199,42161,2,EL,1,100,0.453589
241250,42161,2,EL,1,100,0.454395
241300,42179,2,EL,1,100,0.453790
241351,42179,2,EL,1,100,0.454193
241401,42197,2,EL,1,100,0.454797
241452,42197,2,EL,1,100,0.453387
241502,42215,2,EL,1,100,0.453790
241553,42215,2,EL,1,100,0.453186
241603,42234,2,EL,1,100,0.454193
241654,42234,2,EL,1,100,0.454999
241704,42252,2,EL,1,100,0.454797
241755,42252,2,EL,1,100,0.453387
241805,42270,2,EL,1,100,0.454797
241856,42270,2,EL,1,100,0.454193
241906,42288,2,EL,1,100,0.454596
241957,42288,2,EL,1,100,0.453186
242007,42306,2,EL,1,100,0.453992
242058,42306,2,EL,1,100,0.453387
242108,42324,2,EL,1,100,0.454193
242159,42324,2,EL,1,100,0.455402
242209,42342,2,EL,1,100,0.453387
242260,42342,2,EL,1,100,0.454999
242310,42360,2,EL,1,100,0.454193
242361,42360,2,EL,1,100,0.454193
242395,42379,3,EL,1,100,0.454999
242429,42379,3,EL,1,100,0.454999
242463,42379,3,EL,1,100,0.455804
242513,42397,2,EL,1,100,0.454596
242563,42397,2,EL,1,100,0.454395
242613,42415,2,EL,1,100,0.454193
242664,42415,2,EL,1,100,0.454797
242714,42433,2,EL,1,100,0.454999
242765,42433,2,EL,1,100,0.454596
242815,42451,2,EL,1,100,0.455603
242866,42451,2,EL,1,100,0.454999
242916,42469,2,EL,1,100,0.454999
242967,42469,2,EL,1,100,0.454999
243017,42487,2,EL,1,100,0.455804
243068,42487,2,EL,1,100,0.453992
243118,42506,2,EL,1,100,0.456006
243169,42506,2,EL,1,100,0.454395
243220,42524,2,EL,1,100,0.455200
243271,42524,2,EL,1,100,0.454596
243321,42542,2,EL,1,100,0.455603
243371,42542,2,EL,1,100,0.455200
243421,42560,2,EL,1,100,0.455603
243472,42560,2,EL,1,100,0.454999
243522,42578,2,EL,1,100,0.455804
243573,42578,2,EL,1,100,0.454193
243623,42596,2,EL,1,100,0.456409
243674,42596,2,EL,1,100,0.455603
243724,42614,2,EL,1,100,0.455603
243775,42614,2,EL,1,100,0.453790
243825,42633,2,EL,1,100,0.454395
243876,42633,2,EL,1,100,0.455804
243910,42651,3,EL,1,100,0.453790
243944,42651,3,EL,1,100,0.455603
243978,42651,3,EL,1,100,0.454797
244028,42669,2,EL,1,100,0.454999
244079,42669,2,EL,1,100,0.454797
244129,42690,4,EL,1,100,0.455200
244179,42690,4,EL,1,100,0.453186
244229,42690,4,EL,1,100,0.454596
244280,42690,4,EL,1,100,0.454193
244338,42709,2,EL,1,100,0.454596
244397,42709,2,EL,1,100,0.454193
244447,42728,2,EL,1,100,0.454193
244497,42728,2,EL,1,100,0.455402
244547,42746,2,EL,1,100,0.453387
244598,42746,2,EL,1,100,0.453387
244648,42765,2,EL,1,100,0.453992
244699,42765,2,EL,1,100,0.454797
244749,42783,2,EL,1,100,0.454193
244800,42783,2,EL,1,100,0.454999
244850,42801,2,EL,1,100,0.453790
244901,42801,2,EL,1,100,0.453186
244951,42819,2,EL,1,100,0.453589
245002,42819,2,EL,1,100,0.454193
245036,42837,3,EL,1,100,0.454193
245070,42837,3,EL,1,100,0.454596
245104,42837,3,EL,1,100,0.454596
245154,42855,2,EL,1,100,0.453790
245204,42855,2,EL,1,100,0.453186
245254,42873,2,EL,1,100,0.454596
245305,42873,2,EL,1,100,0.453589
245356,42892,2,EL,1,100,0.453589
245408,42892,2,EL,1,100,0.453992
245457,42910,2,EL,1,100,0.452985
245507,42910,2,EL,1,100,0.452985
245557,42928,2,EL,1,100,0.453992
245608,42928,2,EL,1,100,0.453186
245658,42946,2,EL,1,100,0.454999
245709,42946,2,EL,1,100,0.453790
245759,42964,2,EL,1,100,0.453589
245810,42964,2,EL,1,100,0.453589
245861,42982,2,EL,1,100,0.453387
245912,42982,2,EL,1,100,0.452985
245962,43000,2,EL,1,100,0.451575
246012,43000,2,EL,1,100,0.452380
246062,43019,2,EL,1,100,0.453387
246113,43019,2,EL,1,100,0.452783
246164,43037,2,EL,1,100,0.454193
246215,43037,2,EL,1,100,0.454395
246265,43055,2,EL,1,100,0.453387
246315,43055,2,EL,1,100,0.453186
246365,43073,2,EL,1,100,0.454193
246416,43073,2,EL,1,100,0.453186
246466,43091,2,EL,1,100,0.454596
246517,43091,2,EL,1,100,0.452380
246551,43109,3,EL,1,100,0.453790
246585,43109,3,EL,1,100,0.452582
246619,43109,3,EL,1,100,0.452582
246669,43127,2,EL,1,100,0.452380
246719,43127,2,EL,1,100,0.453387
246769,43145,2,EL,1,100,0.453790
246820,43145,2,EL,1,100,0.453387
246871,43164,2,EL,1,100,0.453790
246923,43164,2,EL,1,100,0.453387
246972,43182,2,EL,1,100,0.454193
247022,43182,2,EL,1,100,0.453790
247072,43200,2,EL,1,100,0.453790
247123,43200,2,EL,1,100,0.453790
247173,43218,2,EL,1,100,0.452985
247224,43218,2,EL,1,100,0.452985
247274,43236,2,EL,1,100,0.453790
247325,43236,2,EL,1,100,0.452985
247375,43254,2,EL,1,100,0.452380
247426,43254,2,EL,1,100,0.451776
247476,43272,2,EL,1,100,0.452582
247527,43272,2,EL,1,100,0.454193
247577,43291,2,EL,1,100,0.452582
247628,43291,2,EL,1,100,0.452380
247678,43309,2,EL,1,100,0.452783
247729,43309,2,EL,1,100,0.452985
247779,43327,2,EL,1,100,0.452985
247830,43327,2,EL,1,100,0.454395
247880,43345,2,EL,1,100,0.453387
247931,43345,2,EL,1,100,0.452985
247981,43363,2,EL,1,100,0.453589
248032,43363,2,EL,1,100,0.452783
248082,43381,2,EL,1,100,0.452985
248133,43381,2,EL,1,100,0.453589
248183,43399,2,EL,1,100,0.452985
248234,43399,2,EL,1,100,0.452783
248268,43417,3,EL,1,100,0.453186
248302,43417,3,EL,1,100,0.452380
248336,43417,3,EL,1,100,0.453186
248386,43436,2,EL,1,100,0.452582
248436,43436,2,EL,1,100,0.452582
248486,43454,2,EL,1,100,0.453790
248537,43454,2,EL,1,100,0.453186
248587,43472,2,EL,1,100,0.452380
248638,43472,2,EL,1,100,0.454193
248689,43490,2,EL,1,100,0.452179
248741,43490,2,EL,1,100,0.453186
248790,43508,2,EL,1,100,0.453790
248840,43508,2,EL,1,100,0.453387
248890,43526,2,EL,1,100,0.454999
248941,43526,2,EL,1,100,0.453186
248992,43544,2,EL,1,100,0.453790
249043,43544,2,EL,1,100,0.452783
249093,43563,2,EL,1,100,0.452985
249143,43563,2,EL,1,100,0.452582
249193,43581,2,EL,1,100,0.453387
249244,43581,2,EL,1,100,0.452783
249294,43599,2,EL,1,100,0.453790
249345,43599,2,EL,1,100,0.453186
249395,43617,2,EL,1,100,0.453387
249446,43617,2,EL,1,100,0.452179
249496,43635,2,EL,1,100,0.452179
249547,43635,2,EL,1,100,0.452179
249597,43653,2,EL,1,100,0.452985
249648,43653,2,EL,1,100,0.453992
249698,43671,2,EL,1,100,0.452985
249749,43671,2,EL,1,100,0.453387
249783,43690,3,EL,1,100,0.452380
249817,43690,3,EL,1,100,0.453186
249851,43690,3,EL,1,100,0.453589
249901,43708,2,EL,1,100,0.453790
249951,43708,2,EL,1,100,0.452985
250001,43726,2,EL,1,100,0.452582
250052,43726,2,EL,1,100,0.452582
250103,43744,2,EL,1,100,0.452783
250155,43744,2,EL,1,100,0.452985
250205,43762,2,EL,1,100,0.452380
250255,43762,2,EL,1,100,0.453589
250305,43780,2,EL,1,100,0.451172
250355,43780,2,EL,1,100,0.452783
250405,43798,2,EL,1,100,0.452783
250456,43798,2,EL,1,100,0.451776
250506,43816,2,EL,1,100,0.452783
250557,43816,2,EL,1,100,0.451373
250607,43835,2,EL,1,100,0.453186
250658,43835,2,EL,1,100,0.452582
250708,43853,2,EL,1,100,0.452179
250759,43853,2,EL,1,100,0.452179
250809,43871,2,EL,1,100,0.452380
250860,43871,2,EL,1,100,0.453186
250910,43889,2,EL,1,100,0.452380
250961,43889,2,EL,1,100,0.451776
251012,43907,2,EL,1,100,0.452985
251063,43907,2,EL,1,100,0.453186
251113,43925,2,EL,1,100,0.452380
251163,43925,2,EL,1,100,0.451575
251213,43943,2,EL,1,100,0.451575
251264,43943,2,EL,1,100,0.452380
251298,43962,3,EL,1,100,0.453186
251332,43962,3,EL,1,100,0.453790
251367,43962,3,EL,1,100,0.452582
251417,43980,2,EL,1,100,0.452380
251467,43980,2,EL,1,100,0.451978
251517,43998,2,EL,1,100,0.453589
251567,43998,2,EL,1,100,0.450568
251617,44016,2,EL,1,100,0.451978
251668,44016,2,EL,1,100,0.452582
251719,44034,2,EL,1,100,0.452985
251770,44034,2,EL,1,100,0.451776
251820,44052,2,EL,1,100,0.452179
251870,44052,2,EL,1,100,0.452380
251920,44070,2,EL,1,100,0.453589
251971,44070,2,EL,1,100,0.451373
252021,44089,2,EL,1,100,0.452380
252072,44089,2,EL,1,100,0.452380
252122,44107,2,EL,1,100,0.451172
252173,44107,2,EL,1,100,0.451776
252223,44125,2,EL,1,100,0.452179
252274,44125,2,EL,1,100,0.453186
252324,44143,2,EL,1,100,0.452380
252375,44143,2,EL,1,100,0.451776
252425,44161,2,EL,1,100,0.451172
252476,44161,2,EL,1,100,0.450970
252526,44179,2,EL,1,100,0.452179
252577,44179,2,EL,1,100,0.451172
252627,44197,2,EL,1,100,0.450769
252678,44197,2,EL,1,100,0.450970
252728,44215,2,EL,1,100,0.451373
252779,44215,2,EL,1,100,0.451172
252829,44234,2,EL,1,100,0.451172
252880,44234,2,EL,1,100,0.451776
252914,44252,3,EL,1,100,0.451978
252948,44252,3,EL,1,100,0.452783
252983,44252,3,EL,1,100,0.450568
253033,44270,2,EL,1,100,0.451978
253083,44270,2,EL,1,100,0.450165
253133,44288,2,EL,1,100,0.449963
253183,44288,2,EL,1,100,0.451373
253233,44306,2,EL,1,100,0.450165
253284,44306,2,EL,1,100,0.451575
253334,44324,2,EL,1,100,0.451172
253385,44324,2,EL,1,100,0.450970
253435,44342,2,EL,1,100,0.451776
253486,44342,2,EL,1,100,0.450769
253536,44361,2,EL,1,100,0.451172
253587,44361,2,EL,1,100,0.450769
253637,44379,2,EL,1,100,0.451575
253688,44379,2,EL,1,100,0.451373
253738,44397,2,EL,1,100,0.450165
253789,44397,2,EL,1,100,0.452179
253839,44415,2,EL,1,100,0.451978
253890,44415,2,EL,1,100,0.450970
253940,44433,2,EL,1,100,0.450769
253991,44433,2,EL,1,100,0.450568
254042,44451,2,EL,1,100,0.451978
254093,44451,2,EL,1,100,0.451575
254143,44469,2,EL,1,100,0.452582
254193,44469,2,EL,1,100,0.451978
254243,44487,2,EL,1,100,0.451172
254294,44487,2,EL,1,100,0.450568
254328,44506,3,EL,1,100,0.449359
254362,44506,3,EL,1,100,0.450568
254397,44506,3,EL,1,100,0.450970
254447,44524,2,EL,1,100,0.451373
254497,44524,2,EL,1,100,0.449963
254547,44542,2,EL,1,100,0.451172
254597,44542,2,EL,1,100,0.451172
254647,44560,2,EL,1,100,0.451172
254698,44560,2,EL,1,100,0.450769
254748,44578,2,EL,1,100,0.451172
254799,44578,2,EL,1,100,0.451172
254850,44596,2,EL,1,100,0.451172
254901,44596,2,EL,1,100,0.451575
254951,44614,2,EL,1,100,0.449762
255001,44614,2,EL,1,100,0.449359
255057,44636,3,EL,1,100,0.450165
255113,44636,3,EL,1,100,0.451172
255169,44636,3,EL,1,100,0.449963
255220,44655,2,EL,1,100,0.449158
255271,44655,2,EL,1,100,0.451575
255321,44674,2,EL,1,100,0.449158
255372,44674,2,EL,1,100,0.450165
255422,44692,2,EL,1,100,0.450970
255473,44692,2,EL,1,100,0.451373
255523,44710,2,EL,1,100,0.451373
255574,44710,2,EL,1,100,0.450769
255608,44728,3,EL,1,100,0.450970
255642,44728,3,EL,1,100,0.449561
255676,44728,3,EL,1,100,0.450165
255726,44746,2,EL,1,100,0.450568
255776,44746,2,EL,1,100,0.449359
255826,44765,2,EL,1,100,0.449762
255877,44765,2,EL,1,100,0.449963
255927,44783,2,EL,1,100,0.451172
255978,44783,2,EL,1,100,0.450165
256028,44801,2,EL,1,100,0.450769
256079,44801,2,EL,1,100,0.449359
256129,44819,2,EL,1,100,0.450970
256180,44819,2,EL,1,100,0.450769
256230,44837,2,EL,1,100,0.450568
256281,44837,2,EL,1,100,0.449762
256331,44855,2,EL,1,100,0.449762
256382,44855,2,EL,1,100,0.449561
256432,44873,2,EL,1,100,0.450769
256483,44873,2,EL,1,100,0.450568
256534,44892,2,EL,1,100,0.450366
256586,44892,2,EL,1,100,0.449762
256635,44910,2,EL,1,100,0.450970
256685,44910,2,EL,1,100,0.449561
256735,44928,2,EL,1,100,0.451172
256786,44928,2,EL,1,100,0.451373
256836,44946,2,EL,1,100,0.450769
256887,44946,2,EL,1,100,0.450970
256921,44964,3,EL,1,100,0.449963
256955,44964,3,EL,1,100,0.450970
256990,44964,3,EL,1,100,0.449963
257040,44982,2,EL,1,100,0.451575
257090,44982,2,EL,1,100,0.449963
257140,45000,2,EL,1,100,0.450568
257190,45000,2,EL,1,100,0.451373
257240,45019,2,EL,1,100,0.450970
257291,45019,2,EL,1,100,0.449762
257342,45037,2,EL,1,100,0.450568
257394,45037,2,EL,1,100,0.450568
257443,45055,2,EL,1,100,0.451172
257493,45055,2,EL,1,100,0.449963
257543,45073,2,EL,1,100,0.450769
257594,45073,2,EL,1,100,0.450970
257644,45091,2,EL,1,100,0.451373
257695,45091,2,EL,1,100,0.450366
257745,45109,2,EL,1,100,0.450165
257796,45109,2,EL,1,100,0.451978
257846,45127,2,EL,1,100,0.450568
257897,45127,2,EL,1,100,0.451776
257947,45145,2,EL,1,100,0.450366
257998,45145,2,EL,1,100,0.449359
258048,45164,2,EL,1,100,0.451373
258099,45164,2,EL,1,100,0.450568
258149,45182,2,EL,1,100,0.451172
258200,45182,2,EL,1,100,0.451373
258250,45200,2,EL,1,100,0.452380
258301,45200,2,EL,1,100,0.451172
258351,45218,2,EL,1,100,0.451373
258402,45218,2,EL,1,100,0.450970
258452,45236,2,EL,1,100,0.451575
258503,45236,2,EL,1,100,0.451776
258537,45254,3,EL,1,100,0.451978
258571,45254,3,EL,1,100,0.453186
258605,45254,3,EL,1,100,0.451172
258655,45272,2,EL,1,100,0.451373
258706,45272,2,EL,1,100,0.451373
258756,45291,2,EL,1,100,0.450568
258806,45291,2,EL,1,100,0.451978
258857,45309,2,EL,1,100,0.451373
258908,45309,2,EL,1,100,0.450769
258958,45327,2,EL,1,100,0.452582
259008,45327,2,EL,1,100,0.451978
259058,45345,2,EL,1,100,0.451373
259109,45345,2,EL,1,100,0.451575
259159,45363,2,EL,1,100,0.453589
259210,45363,2,EL,1,100,0.451172
259261,45381,2,EL,1,100,0.450769
259312,45381,2,EL,1,100,0.451575
259362,45399,2,EL,1,100,0.452179
259412,45399,2,EL,1,100,0.451172
259462,45417,2,EL,1,100,0.451172
259513,45417,2,EL,1,100,0.450970
259563,45436,2,EL,1,100,0.451373
259614,45436,2,EL,1,100,0.451172
259664,45454,2,EL,1,100,0.451776
259715,45454,2,EL,1,100,0.451575
259765,45472,2,EL,1,100,0.451776
259816,45472,2,EL,1,100,0.451776
259866,45490,2,EL,1,100,0.451575
259917,45490,2,EL,1,100,0.451776
259967,45508,2,EL,1,100,0.450970
260018,45508,2,EL,1,100,0.451575
260068,45526,2,EL,1,100,0.450568
260119,45526,2,EL,1,100,0.452582
260169,45544,2,EL,1,100,0.452179
260220,45544,2,EL,1,100,0.451575
260254,45563,3,EL,1,100,0.451172
260288,45563,3,EL,1,100,0.451373
260322,45563,3,EL,1,100,0.451776
260372,45581,2,EL,1,100,0.452783
260422,45581,2,EL,1,100,0.450970
260473,45599,2,EL,1,100,0.451776
260525,45599,2,EL,1,100,0.451172
260574,45617,2,EL,1,100,0.453186
260624,45617,2,EL,1,100,0.452179
260674,45635,2,EL,1,100,0.450970
260725,45635,2,EL,1,100,0.451776
260775,45653,2,EL,1,100,0.452179
260826,45653,2,EL,1,100,0.451575
260877,45671,2,EL,1,100,0.451172
260928,45671,2,EL,1,100,0.451575
260978,45690,2,EL,1,100,0.451373
261028,45690,2,EL,1,100,0.451172
261078,45708,2,EL,1,100,0.450568
261129,45708,2,EL,1,100,0.451575
261179,45726,2,EL,1,100,0.450366
261230,45726,2,EL,1,100,0.450769
261280,45744,2,EL,1,100,0.451172
261331,45744,2,EL,1,100,0.451172
261381,45762,2,EL,1,100,0.451373
261432,45762,2,EL,1,100,0.451776
261482,45780,2,EL,1,100,0.450970
261533,45780,2,EL,1,100,0.451776
261583,45798,2,EL,1,100,0.450366
261634,45798,2,EL,1,100,0.450165
261668,45816,3,EL,1,100,0.450165
261702,45816,3,EL,1,100,0.449963
261736,45816,3,EL,1,100,0.450165
261786,45835,2,EL,1,100,0.450568
261836,45835,2,EL,1,100,0.450970
261886,45853,2,EL,1,100,0.449561
261937,45853,2,EL,1,100,0.450165
261988,45871,2,EL,1,100,0.449561
262039,45871,2,EL,1,100,0.449561
262089,45889,2,EL,1,100,0.450769
262139,45889,2,EL,1,100,0.449762
262189,45907,2,EL,1,100,0.449762
262240,45907,2,EL,1,100,0.449762
262290,45925,2,EL,1,100,0.449359
262341,45925,2,EL,1,100,0.448553
262391,45943,2,EL,1,100,0.450165
262442,45943,2,EL,1,100,0.448755
262492,45962,2,EL,1,100,0.450165
262543,45962,2,EL,1,100,0.450366
262593,45980,2,EL,1,100,0.450970
262644,45980,2,EL,1,100,0.449158
262694,45998,2,EL,1,100,0.449359
262745,45998,2,EL,1,100,0.448151
262796,46016,2,EL,1,100,0.449762
262848,46016,2,EL,1,100,0.449561
262897,46034,2,EL,1,100,0.450165
262947,46034,2,EL,1,100,0.449963
262997,46052,2,EL,1,100,0.449762
263048,46052,2,EL,1,100,0.449963
263098,46070,2,EL,1,100,0.448755
263149,46070,2,EL,1,100,0.449561
263199,46088,2,EL,1,100,0.448352
263250,46088,2,EL,1,100,0.449963
263284,46107,3,EL,1,100,0.449158
263318,46107,3,EL,1,100,0.449963
263352,46107,3,EL,1,100,0.449561
263402,46125,2,EL,1,100,0.449762
263452,46125,2,EL,1,100,0.450366
263503,46143,2,EL,1,100,0.449158
263554,46143,2,EL,1,100,0.449762
263604,46161,2,EL,1,100,0.449963
263654,46161,2,EL,1,100,0.449561
263704,46179,2,EL,1,100,0.449158
263755,46179,2,EL,1,100,0.449561
263805,46197,2,EL,1,100,0.449762
263856,46197,2,EL,1,100,0.450165
263906,46215,2,EL,1,100,0.449158
263957,46215,2,EL,1,100,0.450165
264008,46234,2,EL,1,100,0.449561
264060,46234,2,EL,1,100,0.448755
264109,46252,2,EL,1,100,0.450769
264159,46252,2,EL,1,100,0.450366
264209,46270,2,EL,1,100,0.450366
264260,46270,2,EL,1,100,0.450568
264311,46288,2,EL,1,100,0.449762
264363,46288,2,EL,1,100,0.449561
264412,46306,2,EL,1,100,0.448755
264462,46306,2,EL,1,100,0.450568
264512,46324,2,EL,1,100,0.448352
264563,46324,2,EL,1,100,0.449359
264613,46342,2,EL,1,100,0.449963
264664,46342,2,EL,1,100,0.448553
264714,46361,2,EL,1,100,0.450366
264765,46361,2,EL,1,100,0.448755
264815,46379,2,EL,1,100,0.449762
264866,46379,2,EL,1,100,0.450366
264900,46397,3,EL,1,100,0.451172
264934,46397,3,EL,1,100,0.449762
264968,46397,3,EL,1,100,0.449561
265018,46415,2,EL,1,100,0.450769
265068,46415,2,EL,1,100,0.451172
265118,46433,2,EL,1,100,0.450769
265169,46433,2,EL,1,100,0.452179
265219,46451,2,EL,1,100,0.450769
265270,46451,2,EL,1,100,0.449963
265320,46469,2,EL,1,100,0.450568
265371,46469,2,EL,1,100,0.449963
265421,46487,2,EL,1,100,0.449359
265472,46487,2,EL,1,100,0.450970
265522,46506,2,EL,1,100,0.450165
265573,46506,2,EL,1,100,0.450165
