180136,31156,3,T0,1,100,26.633
180136,31156,3,T0,1,100,26.644
180136,31156,3,T0,1,100,26.644
180228,31175,1,T0,1,100,26.633
180328,31193,1,T0,1,100,26.649
180430,31211,1,T0,1,100,26.633
180532,31229,1,T0,1,100,26.644
180632,31248,1,T0,1,100,26.612
180733,31266,1,T0,1,100,26.649
180833,31284,1,T0,1,100,26.671
180935,31302,1,T0,1,100,26.654
181037,31320,1,T0,1,100,26.638
181137,31338,1,T0,1,100,26.633
181238,31356,1,T0,1,100,26.671
181340,31374,1,T0,1,100,26.660
181440,31393,1,T0,1,100,26.676
181540,31411,1,T0,1,100,26.681
181642,31429,1,T0,1,100,26.654
181743,31447,1,T0,1,100,26.654
181845,31465,1,T0,1,100,26.649
181944,31483,1,T0,1,100,26.671
182046,31501,1,T0,1,100,26.671
182148,31520,1,T0,1,100,26.671
182247,31538,1,T0,1,100,26.638
182349,31556,1,T0,1,100,26.628
182451,31574,1,T0,1,100,26.676
182552,31592,1,T0,1,100,26.654
182652,31610,1,T0,1,100,26.671
182754,31628,1,T0,1,100,26.703
182854,31647,1,T0,1,100,26.649
182956,31665,1,T0,1,100,26.681
183055,31683,1,T0,1,100,26.638
183156,31701,1,T0,1,100,26.628
183207,31719,2,T0,1,100,26.617
183259,31719,2,T0,1,100,26.671
183359,31737,1,T0,1,100,26.676
183461,31755,1,T0,1,100,26.638
183560,31773,1,T0,1,100,26.617
183661,31792,1,T0,1,100,26.638
183764,31810,1,T0,1,100,26.681
183864,31828,1,T0,1,100,26.665
183965,31846,1,T0,1,100,26.649
184065,31864,1,T0,1,100,26.676
184167,31882,1,T0,1,100,26.633
184270,31900,1,T0,1,100,26.638
184369,31919,1,T0,1,100,26.649
184470,31937,1,T0,1,100,26.654
184571,31955,1,T0,1,100,26.622
184671,31973,1,T0,1,100,26.628
184772,31991,1,T0,1,100,26.649
184875,32009,1,T0,1,100,26.644
184974,32027,1,T0,1,100,26.671
185077,32045,1,T0,1,100,26.676
185177,32064,1,T0,1,100,26.676
185279,32082,1,T0,1,100,26.671
185379,32100,1,T0,1,100,26.649
185479,32118,1,T0,1,100,26.665
185581,32136,1,T0,1,100,26.638
185682,32154,1,T0,1,100,26.654
185785,32172,1,T0,1,100,26.644
185883,32191,1,T0,1,100,26.649
185986,32209,1,T0,1,100,26.687
186086,32227,1,T0,1,100,26.676
186188,32245,1,T0,1,100,26.671
186287,32263,1,T0,1,100,26.649
186388,32281,1,T0,1,100,26.671
186439,32299,2,T0,1,100,26.660
186491,32299,2,T0,1,100,26.687
186591,32318,1,T0,1,100,26.612
186692,32336,1,T0,1,100,26.633
186793,32354,1,T0,1,100,26.654
186895,32372,1,T0,1,100,26.671
186994,32390,1,T0,1,100,26.671
187095,32408,1,T0,1,100,26.644
187197,32426,1,T0,1,100,26.687
187300,32444,1,T0,1,100,26.660
187398,32463,1,T0,1,100,26.638
187500,32481,1,T0,1,100,26.638
187602,32499,1,T0,1,100,26.628
187702,32517,1,T0,1,100,26.649
187803,32535,1,T0,1,100,26.644
187903,32553,1,T0,1,100,26.671
188006,32571,1,T0,1,100,26.649
188105,32590,1,T0,1,100,26.665
188206,32608,1,T0,1,100,26.671
188309,32626,1,T0,1,100,26.671
188409,32644,1,T0,1,100,26.671
188511,32662,1,T0,1,100,26.633
188610,32680,1,T0,1,100,26.665
188711,32698,1,T0,1,100,26.654
188814,32716,1,T0,1,100,26.671
188915,32735,1,T0,1,100,26.708
189015,32753,1,T0,1,100,26.654
189115,32771,1,T0,1,100,26.671
189218,32789,1,T0,1,100,26.654
189318,32807,1,T0,1,100,26.654
189419,32825,1,T0,1,100,26.703
189469,32843,2,T0,1,100,26.633
189520,32843,2,T0,1,100,26.665
189621,32862,1,T0,1,100,26.681
189721,32880,1,T0,1,100,26.660
189822,32898,1,T0,1,100,26.687
189925,32916,1,T0,1,100,26.671
190025,32934,1,T0,1,100,26.649
190126,32952,1,T0,1,100,26.687
190226,32970,1,T0,1,100,26.681
190332,32992,2,T0,1,100,26.697
190438,32992,2,T0,1,100,26.687
190538,33011,1,T0,1,100,26.665
190638,33030,1,T0,1,100,26.638
190739,33048,1,T0,1,100,26.671
190839,33066,1,T0,1,100,26.665
190941,33084,1,T0,1,100,26.713
191043,33102,1,T0,1,100,26.660
191142,33121,1,T0,1,100,26.692
191245,33139,1,T0,1,100,26.697
191345,33157,1,T0,1,100,26.676
191447,33175,1,T0,1,100,26.654
191546,33193,1,T0,1,100,26.660
191647,33211,1,T0,1,100,26.612
191749,33229,1,T0,1,100,26.681
191851,33248,1,T0,1,100,26.708
191951,33266,1,T0,1,100,26.665
192039,33284,2,T0,1,100,26.708
192127,33284,2,T0,1,100,26.687
192223,33302,1,T0,1,100,26.676
192325,33320,1,T0,1,100,26.703
192424,33338,1,T0,1,100,26.665
192525,33356,1,T0,1,100,26.676
192627,33375,1,T0,1,100,26.681
192728,33393,1,T0,1,100,26.676
192830,33411,1,T0,1,100,26.687
192929,33429,1,T0,1,100,26.703
193032,33447,1,T0,1,100,26.719
193132,33465,1,T0,1,100,26.724
193233,33483,1,T0,1,100,26.681
193333,33502,1,T0,1,100,26.730
193384,33520,2,T0,1,100,26.687
193435,33520,2,T0,1,100,26.687
193537,33538,1,T0,1,100,26.719
193636,33556,1,T0,1,100,26.708
193739,33574,1,T0,1,100,26.692
193839,33592,1,T0,1,100,26.676
193940,33610,1,T0,1,100,26.692
194041,33629,1,T0,1,100,26.730
194143,33647,1,T0,1,100,26.719
194243,33665,1,T0,1,100,26.703
194345,33683,1,T0,1,100,26.730
194445,33701,1,T0,1,100,26.719
194547,33719,1,T0,1,100,26.697
194647,33737,1,T0,1,100,26.697
194747,33755,1,T0,1,100,26.671
194850,33774,1,T0,1,100,26.713
194950,33792,1,T0,1,100,26.730
195052,33810,1,T0,1,100,26.724
195151,33828,1,T0,1,100,26.703
195252,33846,1,T0,1,100,26.697
195355,33864,1,T0,1,100,26.692
195455,33882,1,T0,1,100,26.730
195556,33901,1,T0,1,100,26.751
195657,33919,1,T0,1,100,26.719
195758,33937,1,T0,1,100,26.730
195863,33955,1,T0,1,100,26.713
195964,33973,1,T0,1,100,26.692
196064,33991,1,T0,1,100,26.719
196166,34009,1,T0,1,100,26.735
196265,34027,1,T0,1,100,26.735
196315,34046,2,T0,1,100,26.730
196366,34046,2,T0,1,100,26.746
196468,34064,1,T0,1,100,26.724
196568,34082,1,T0,1,100,26.730
196671,34100,1,T0,1,100,26.740
196771,34118,1,T0,1,100,26.756
196873,34136,1,T0,1,100,26.713
196972,34154,1,T0,1,100,26.724
197073,34173,1,T0,1,100,26.708
197175,34191,1,T0,1,100,26.671
197277,34209,1,T0,1,100,26.687
197376,34227,1,T0,1,100,26.660
197477,34245,1,T0,1,100,26.676
197580,34263,1,T0,1,100,26.697
197680,34281,1,T0,1,100,26.697
197781,34300,1,T0,1,100,26.713
197881,34318,1,T0,1,100,26.671
197983,34336,1,T0,1,100,26.681
198085,34354,1,T0,1,100,26.676
198184,34372,1,T0,1,100,26.676
198287,34390,1,T0,1,100,26.665
198387,34408,1,T0,1,100,26.654
198489,34426,1,T0,1,100,26.660
198588,34445,1,T0,1,100,26.697
198690,34463,1,T0,1,100,26.644
198792,34481,1,T0,1,100,26.713
198892,34499,1,T0,1,100,26.708
198993,34517,1,T0,1,100,26.676
199095,34535,1,T0,1,100,26.697
199196,34553,1,T0,1,100,26.676
199295,34572,1,T0,1,100,26.687
199346,34590,2,T0,1,100,26.654
199398,34590,2,T0,1,100,26.665
199498,34608,1,T0,1,100,26.681
199600,34626,1,T0,1,100,26.681
199699,34644,1,T0,1,100,26.697
199800,34662,1,T0,1,100,26.687
199903,34680,1,T0,1,100,26.697
200003,34699,1,T0,1,100,26.676
200104,34717,1,T0,1,100,26.697
200204,34735,1,T0,1,100,26.708
200306,34753,1,T0,1,100,26.676
200408,34771,1,T0,1,100,26.697
200509,34789,1,T0,1,100,26.681
200608,34807,1,T0,1,100,26.703
200710,34825,1,T0,1,100,26.730
200811,34844,1,T0,1,100,26.730
200911,34862,1,T0,1,100,26.713
201014,34880,1,T0,1,100,26.708
201114,34898,1,T0,1,100,26.719
201218,34919,2,T0,1,100,26.724
201323,34919,2,T0,1,100,26.703
201426,34938,1,T0,1,100,26.697
201526,34958,1,T0,1,100,26.713
201630,34976,1,T0,1,100,26.735
201729,34994,1,T0,1,100,26.708
201831,35012,1,T0,1,100,26.735
201931,35030,1,T0,1,100,26.756
202033,35048,1,T0,1,100,26.724
202132,35066,1,T0,1,100,26.719
202233,35084,1,T0,1,100,26.687
202284,35103,2,T0,1,100,26.713
202336,35103,2,T0,1,100,26.719
202436,35121,1,T0,1,100,26.756
202538,35139,1,T0,1,100,26.762
202637,35157,1,T0,1,100,26.697
202739,35175,1,T0,1,100,26.740
202841,35193,1,T0,1,100,26.740
202940,35211,1,T0,1,100,26.713
203042,35230,1,T0,1,100,26.719
203144,35248,1,T0,1,100,26.719
203245,35266,1,T0,1,100,26.708
203344,35284,1,T0,1,100,26.730
203447,35302,1,T0,1,100,26.697
203547,35320,1,T0,1,100,26.740
203648,35338,1,T0,1,100,26.735
203748,35357,1,T0,1,100,26.740
203849,35375,1,T0,1,100,26.713
203952,35393,1,T0,1,100,26.687
204051,35411,1,T0,1,100,26.772
204154,35429,1,T0,1,100,26.730
204254,35447,1,T0,1,100,26.719
204355,35465,1,T0,1,100,26.724
204455,35483,1,T0,1,100,26.730
204556,35502,1,T0,1,100,26.719
204659,35520,1,T0,1,100,26.692
204760,35538,1,T0,1,100,26.778
204860,35556,1,T0,1,100,26.746
204960,35574,1,T0,1,100,26.697
205063,35592,1,T0,1,100,26.778
205162,35610,1,T0,1,100,26.713
205264,35629,1,T0,1,100,26.708
205364,35647,1,T0,1,100,26.746
205415,35665,2,T0,1,100,26.799
205466,35665,2,T0,1,100,26.703
205566,35683,1,T0,1,100,26.735
205668,35701,1,T0,1,100,26.778
205770,35719,1,T0,1,100,26.730
205870,35737,1,T0,1,100,26.719
205971,35756,1,T0,1,100,26.740
206071,35774,1,T0,1,100,26.740
206173,35792,1,T0,1,100,26.762
206275,35810,1,T0,1,100,26.767
206374,35828,1,T0,1,100,26.735
206476,35846,1,T0,1,100,26.746
206577,35864,1,T0,1,100,26.746
206679,35882,1,T0,1,100,26.713
206779,35901,1,T0,1,100,26.740
206880,35919,1,T0,1,100,26.751
206980,35937,1,T0,1,100,26.783
207082,35955,1,T0,1,100,26.756
207183,35973,1,T0,1,100,26.719
207284,35991,1,T0,1,100,26.692
207387,36009,1,T0,1,100,26.746
207487,36028,1,T0,1,100,26.751
207589,36046,1,T0,1,100,26.756
207688,36064,1,T0,1,100,26.735
207789,36082,1,T0,1,100,26.756
207891,36100,1,T0,1,100,26.735
207992,36118,1,T0,1,100,26.735
208094,36136,1,T0,1,100,26.746
208195,36154,1,T0,1,100,26.713
208295,36173,1,T0,1,100,26.708
208395,36191,1,T0,1,100,26.735
208446,36209,2,T0,1,100,26.756
208498,36209,2,T0,1,100,26.740
208598,36227,1,T0,1,100,26.762
208700,36245,1,T0,1,100,26.740
208799,36263,1,T0,1,100,26.778
208900,36281,1,T0,1,100,26.740
209003,36300,1,T0,1,100,26.751
209103,36318,1,T0,1,100,26.762
209204,36336,1,T0,1,100,26.735
209304,36354,1,T0,1,100,26.772
209406,36372,1,T0,1,100,26.740
209509,36390,1,T0,1,100,26.730
209607,36408,1,T0,1,100,26.746
209710,36427,1,T0,1,100,26.730
209809,36445,1,T0,1,100,26.735
209912,36463,1,T0,1,100,26.719
210011,36481,1,T0,1,100,26.740
210114,36499,1,T0,1,100,26.767
210214,36517,1,T0,1,100,26.794
210316,36535,1,T0,1,100,26.724
210415,36553,1,T0,1,100,26.767
210518,36572,1,T0,1,100,26.772
210619,36590,1,T0,1,100,26.756
210718,36608,1,T0,1,100,26.746
210820,36626,1,T0,1,100,26.767
210920,36644,1,T0,1,100,26.751
211024,36662,1,T0,1,100,26.746
211123,36680,1,T0,1,100,26.756
211223,36699,1,T0,1,100,26.751
211326,36717,1,T0,1,100,26.719
211427,36735,1,T0,1,100,26.751
211527,36753,1,T0,1,100,26.767
211627,36771,1,T0,1,100,26.756
211678,36789,2,T0,1,100,26.751
211730,36789,2,T0,1,100,26.767
211830,36807,1,T0,1,100,26.740
211932,36825,1,T0,1,100,26.746
212031,36844,1,T0,1,100,26.756
212211,36865,1,T0,1,100,26.762
212308,36885,1,T0,1,100,26.762
212407,36903,1,T0,1,100,26.762
212508,36921,1,T0,1,100,26.751
212559,36939,2,T0,1,100,26.730
212611,36939,2,T0,1,100,26.746
212711,36958,1,T0,1,100,26.789
212812,36976,1,T0,1,100,26.767
212913,36994,1,T0,1,100,26.740
213014,37012,1,T0,1,100,26.746
213114,37030,1,T0,1,100,26.751
213215,37048,1,T0,1,100,26.756
213317,37066,1,T0,1,100,26.756
213417,37084,1,T0,1,100,26.740
213521,37103,1,T0,1,100,26.778
213619,37121,1,T0,1,100,26.740
213720,37139,1,T0,1,100,26.783
213823,37157,1,T0,1,100,26.762
213923,37175,1,T0,1,100,26.730
214023,37193,1,T0,1,100,26.767
214125,37211,1,T0,1,100,26.810
214227,37230,1,T0,1,100,26.778
214327,37248,1,T0,1,100,26.730
214428,37266,1,T0,1,100,26.767
214528,37284,1,T0,1,100,26.767
214631,37302,1,T0,1,100,26.740
214730,37320,1,T0,1,100,26.751
214831,37338,1,T0,1,100,26.740
214933,37357,1,T0,1,100,26.730
215035,37375,1,T0,1,100,26.767
215135,37393,1,T0,1,100,26.762
215236,37411,1,T0,1,100,26.756
215338,37429,1,T0,1,100,26.762
215437,37447,1,T0,1,100,26.740
215488,37465,2,T0,1,100,26.730
215540,37465,2,T0,1,100,26.751
215640,37483,1,T0,1,100,26.751
215742,37502,1,T0,1,100,26.778
215841,37520,1,T0,1,100,26.751
215942,37538,1,T0,1,100,26.746
216044,37556,1,T0,1,100,26.740
216145,37574,1,T0,1,100,26.783
216246,37592,1,T0,1,100,26.756
216346,37610,1,T0,1,100,26.799
216448,37629,1,T0,1,100,26.799
216550,37647,1,T0,1,100,26.767
216651,37665,1,T0,1,100,26.756
216751,37683,1,T0,1,100,26.783
216852,37701,1,T0,1,100,26.735
216953,37719,1,T0,1,100,26.815
217053,37737,1,T0,1,100,26.740
217156,37755,1,T0,1,100,26.772
217256,37774,1,T0,1,100,26.767
217358,37792,1,T0,1,100,26.756
217457,37810,1,T0,1,100,26.783
217559,37828,1,T0,1,100,26.762
217661,37846,1,T0,1,100,26.756
217760,37864,1,T0,1,100,26.735
217862,37882,1,T0,1,100,26.735
217954,37901,2,T0,1,100,26.735
218046,37901,2,T0,1,100,26.746
218139,37919,1,T0,1,100,26.783
218241,37937,1,T0,1,100,26.772
218342,37955,1,T0,1,100,26.767
218444,37973,1,T0,1,100,26.762
218543,37991,1,T0,1,100,26.762
218644,38009,1,T0,1,100,26.730
218747,38028,1,T0,1,100,26.778
218848,38046,1,T0,1,100,26.794
218949,38064,1,T0,1,100,26.751
219048,38082,1,T0,1,100,26.762
219149,38100,1,T0,1,100,26.799
219252,38118,1,T0,1,100,26.778
219352,38136,1,T0,1,100,26.783
219402,38155,2,T0,1,100,26.789
219453,38155,2,T0,1,100,26.762
219555,38173,1,T0,1,100,26.767
219654,38191,1,T0,1,100,26.767
219755,38209,1,T0,1,100,26.756
219858,38227,1,T0,1,100,26.762
219958,38245,1,T0,1,100,26.762
220059,38263,1,T0,1,100,26.772
220159,38282,1,T0,1,100,26.756
220262,38300,1,T0,1,100,26.762
220363,38318,1,T0,1,100,26.772
220463,38336,1,T0,1,100,26.762
220565,38354,1,T0,1,100,26.746
220664,38372,1,T0,1,100,26.756
220767,38390,1,T0,1,100,26.740
220868,38408,1,T0,1,100,26.767
220968,38427,1,T0,1,100,26.789
221068,38445,1,T0,1,100,26.746
221170,38463,1,T0,1,100,26.762
221272,38481,1,T0,1,100,26.746
221372,38499,1,T0,1,100,26.762
221474,38517,1,T0,1,100,26.762
221573,38535,1,T0,1,100,26.756
221675,38554,1,T0,1,100,26.746
221775,38572,1,T0,1,100,26.778
221876,38590,1,T0,1,100,26.794
221978,38608,1,T0,1,100,26.762
222079,38626,1,T0,1,100,26.751
222180,38644,1,T0,1,100,26.778
222282,38662,1,T0,1,100,26.751
222383,38681,1,T0,1,100,26.789
222482,38699,1,T0,1,100,26.762
222533,38717,2,T0,1,100,26.789
222585,38717,2,T0,1,100,26.783
222685,38735,1,T0,1,100,26.789
222787,38753,1,T0,1,100,26.772
222886,38771,1,T0,1,100,26.762
222987,38789,1,T0,1,100,26.740
223155,38810,1,T0,1,100,26.778
223252,38831,1,T0,1,100,26.783
223352,38849,1,T0,1,100,26.762
223452,38867,1,T0,1,100,26.799
223554,38885,1,T0,1,100,26.778
223656,38903,1,T0,1,100,26.751
223757,38921,1,T0,1,100,26.783
223856,38939,1,T0,1,100,26.772
223906,38958,2,T0,1,100,26.826
223957,38958,2,T0,1,100,26.772
224059,38976,1,T0,1,100,26.789
224159,38994,1,T0,1,100,26.810
224262,39012,1,T0,1,100,26.762
224362,39030,1,T0,1,100,26.783
224463,39048,1,T0,1,100,26.783
224563,39066,1,T0,1,100,26.810
224666,39085,1,T0,1,100,26.756
224766,39103,1,T0,1,100,26.767
224866,39121,1,T0,1,100,26.735
224969,39139,1,T0,1,100,26.772
225069,39157,1,T0,1,100,26.756
225171,39175,1,T0,1,100,26.783
225270,39193,1,T0,1,100,26.799
225371,39212,1,T0,1,100,26.794
225474,39230,1,T0,1,100,26.767
225575,39248,1,T0,1,100,26.799
225675,39266,1,T0,1,100,26.805
225775,39284,1,T0,1,100,26.778
225878,39302,1,T0,1,100,26.772
225977,39320,1,T0,1,100,26.778
226080,39338,1,T0,1,100,26.810
226179,39357,1,T0,1,100,26.799
226280,39375,1,T0,1,100,26.740
226383,39393,1,T0,1,100,26.810
226482,39411,1,T0,1,100,26.783
226585,39429,1,T0,1,100,26.772
226685,39447,1,T0,1,100,26.783
226786,39465,1,T0,1,100,26.789
226886,39484,1,T0,1,100,26.821
226936,39502,2,T0,1,100,26.789
226987,39502,2,T0,1,100,26.789
227089,39520,1,T0,1,100,26.762
227190,39538,1,T0,1,100,26.783
227291,39556,1,T0,1,100,26.794
227392,39574,1,T0,1,100,26.772
227492,39592,1,T0,1,100,26.805
227593,39610,1,T0,1,100,26.810
227696,39629,1,T0,1,100,26.756
227795,39647,1,T0,1,100,26.772
227898,39665,1,T0,1,100,26.762
227997,39683,1,T0,1,100,26.740
228098,39701,1,T0,1,100,26.746
228201,39719,1,T0,1,100,26.762
228301,39737,1,T0,1,100,26.810
228402,39756,1,T0,1,100,26.799
228502,39774,1,T0,1,100,26.799
228604,39792,1,T0,1,100,26.783
228706,39810,1,T0,1,100,26.842
228806,39828,1,T0,1,100,26.789
228907,39846,1,T0,1,100,26.724
229009,39864,1,T0,1,100,26.772
229108,39883,1,T0,1,100,26.778
229209,39901,1,T0,1,100,26.789
229311,39919,1,T0,1,100,26.837
229412,39937,1,T0,1,100,26.794
229513,39955,1,T0,1,100,26.772
229614,39973,1,T0,1,100,26.815
229715,39991,1,T0,1,100,26.767
229817,40009,1,T0,1,100,26.805
229916,40028,1,T0,1,100,26.821
229967,40046,2,T0,1,100,26.805
230019,40046,2,T0,1,100,26.756
230120,40064,1,T0,1,100,26.794
230220,40082,1,T0,1,100,26.794
230320,40100,1,T0,1,100,26.799
230422,40118,1,T0,1,100,26.783
230522,40136,1,T0,1,100,26.799
230625,40155,1,T0,1,100,26.805
230724,40173,1,T0,1,100,26.794
230825,40191,1,T0,1,100,26.815
230927,40209,1,T0,1,100,26.799
231029,40227,1,T0,1,100,26.778
231129,40245,1,T0,1,100,26.772
231230,40263,1,T0,1,100,26.815
231332,40282,1,T0,1,100,26.772
231431,40300,1,T0,1,100,26.815
231532,40318,1,T0,1,100,26.815
231635,40336,1,T0,1,100,26.805
231736,40354,1,T0,1,100,26.799
231835,40372,1,T0,1,100,26.805
231936,40390,1,T0,1,100,26.810
232039,40408,1,T0,1,100,26.799
232139,40427,1,T0,1,100,26.837
232240,40445,1,T0,1,100,26.826
232340,40463,1,T0,1,100,26.810
232442,40481,1,T0,1,100,26.762
232544,40499,1,T0,1,100,26.826
232643,40517,1,T0,1,100,26.799
232745,40535,1,T0,1,100,26.794
232845,40554,1,T0,1,100,26.783
232946,40572,1,T0,1,100,26.810
233047,40590,1,T0,1,100,26.810
233148,40608,1,T0,1,100,26.794
233199,40626,2,T0,1,100,26.783
233251,40626,2,T0,1,100,26.821
233352,40644,1,T0,1,100,26.815
233451,40662,1,T0,1,100,26.837
233553,40680,1,T0,1,100,26.783
233655,40699,1,T0,1,100,26.805
233754,40717,1,T0,1,100,26.762
233856,40735,1,T0,1,100,26.837
233949,40756,2,T0,1,100,26.805
234043,40756,2,T0,1,100,26.848
234139,40776,1,T0,1,100,26.799
234241,40794,1,T0,1,100,26.810
234340,40813,1,T0,1,100,26.821
234442,40831,1,T0,1,100,26.821
234542,40849,1,T0,1,100,26.805
234644,40867,1,T0,1,100,26.805
234746,40885,1,T0,1,100,26.837
234845,40903,1,T0,1,100,26.789
234947,40921,1,T0,1,100,26.810
235047,40939,1,T0,1,100,26.831
235148,40958,1,T0,1,100,26.810
235250,40976,1,T0,1,100,26.810
235350,40994,1,T0,1,100,26.799
235453,41012,1,T0,1,100,26.789
235554,41030,1,T0,1,100,26.772
235653,41048,1,T0,1,100,26.805
235755,41066,1,T0,1,100,26.858
235857,41085,1,T0,1,100,26.805
235956,41103,1,T0,1,100,26.799
236058,41121,1,T0,1,100,26.821
236158,41139,1,T0,1,100,26.783
236262,41157,1,T0,1,100,26.810
236360,41175,1,T0,1,100,26.826
236461,41193,1,T0,1,100,26.831
236564,41212,1,T0,1,100,26.826
236663,41230,1,T0,1,100,26.815
236765,41248,1,T0,1,100,26.810
236865,41266,1,T0,1,100,26.772
236916,41284,2,T0,1,100,26.794
236968,41284,2,T0,1,100,26.805
237068,41302,1,T0,1,100,26.810
237169,41320,1,T0,1,100,26.831
237269,41338,1,T0,1,100,26.810
237370,41357,1,T0,1,100,26.799
237473,41375,1,T0,1,100,26.821
237572,41393,1,T0,1,100,26.853
237674,41411,1,T0,1,100,26.821
237775,41429,1,T0,1,100,26.799
237877,41447,1,T0,1,100,26.821
237976,41465,1,T0,1,100,26.778
238077,41484,1,T0,1,100,26.810
238180,41502,1,T0,1,100,26.842
238279,41520,1,T0,1,100,26.848
238381,41538,1,T0,1,100,26.815
238483,41556,1,T0,1,100,26.794
238583,41574,1,T0,1,100,26.853
238683,41592,1,T0,1,100,26.831
238786,41610,1,T0,1,100,26.831
238886,41629,1,T0,1,100,26.815
238988,41647,1,T0,1,100,26.831
239087,41665,1,T0,1,100,26.842
239188,41683,1,T0,1,100,26.837
239291,41701,1,T0,1,100,26.826
239391,41719,1,T0,1,100,26.848
239493,41737,1,T0,1,100,26.848
239593,41756,1,T0,1,100,26.826
239693,41774,1,T0,1,100,26.831
239796,41792,1,T0,1,100,26.789
239896,41810,1,T0,1,100,26.789
239997,41828,1,T0,1,100,26.826
240047,41846,2,T0,1,100,26.826
240097,41846,2,T0,1,100,26.826
240200,41864,1,T0,1,100,26.858
240299,41883,1,T0,1,100,26.805
240402,41901,1,T0,1,100,26.826
240502,41919,1,T0,1,100,26.821
240603,41937,1,T0,1,100,26.815
240703,41955,1,T0,1,100,26.821
240806,41973,1,T0,1,100,26.848
240906,41991,1,T0,1,100,26.837
241006,42009,1,T0,1,100,26.821
241109,42028,1,T0,1,100,26.831
241209,42046,1,T0,1,100,26.794
241311,42064,1,T0,1,100,26.842
241410,42082,1,T0,1,100,26.837
241511,42100,1,T0,1,100,26.842
241614,42118,1,T0,1,100,26.826
241715,42136,1,T0,1,100,26.853
241814,42155,1,T0,1,100,26.842
241915,42173,1,T0,1,100,26.767
242018,42191,1,T0,1,100,26.848
242117,42209,1,T0,1,100,26.842
242219,42227,1,T0,1,100,26.837
242320,42245,1,T0,1,100,26.858
242421,42263,1,T0,1,100,26.858
242522,42282,1,T0,1,100,26.864
242622,42300,1,T0,1,100,26.826
242725,42318,1,T0,1,100,26.848
242825,42336,1,T0,1,100,26.831
242926,42354,1,T0,1,100,26.815
242976,42372,2,T0,1,100,26.837
243027,42372,2,T0,1,100,26.848
243128,42390,1,T0,1,100,26.810
243228,42408,1,T0,1,100,26.837
243330,42427,1,T0,1,100,26.837
243431,42445,1,T0,1,100,26.837
243533,42463,1,T0,1,100,26.848
243632,42481,1,T0,1,100,26.831
243733,42499,1,T0,1,100,26.848
243889,42517,1,T0,1,100,26.842
243987,42535,1,T0,1,100,26.815
244087,42554,1,T0,1,100,26.848
244188,42572,1,T0,1,100,26.842
244288,42590,1,T0,1,100,26.864
244389,42608,1,T0,1,100,26.864
244491,42626,1,T0,1,100,26.848
244591,42644,1,T0,1,100,26.880
244642,42662,2,T0,1,100,26.837
244694,42662,2,T0,1,100,26.837
244795,42681,1,T0,1,100,26.794
244961,42702,1,T0,1,100,26.864
245058,42722,1,T0,1,100,26.869
245161,42740,1,T0,1,100,26.858
245261,42758,1,T0,1,100,26.799
245362,42776,1,T0,1,100,26.858
245463,42794,1,T0,1,100,26.864
245565,42813,1,T0,1,100,26.837
245664,42831,1,T0,1,100,26.858
245765,42849,1,T0,1,100,26.842
245816,42867,2,T0,1,100,26.848
245868,42867,2,T0,1,100,26.815
245969,42885,1,T0,1,100,26.848
246068,42903,1,T0,1,100,26.853
246171,42921,1,T0,1,100,26.874
246272,42940,1,T0,1,100,26.869
246372,42958,1,T0,1,100,26.853
246474,42976,1,T0,1,100,26.880
246573,42994,1,T0,1,100,26.858
246674,43012,1,T0,1,100,26.869
246776,43030,1,T0,1,100,26.794
246877,43048,1,T0,1,100,26.831
246979,43066,1,T0,1,100,26.842
247079,43085,1,T0,1,100,26.821
247180,43103,1,T0,1,100,26.874
247280,43121,1,T0,1,100,26.874
247381,43139,1,T0,1,100,26.864
247484,43157,1,T0,1,100,26.848
247584,43175,1,T0,1,100,26.864
247685,43193,1,T0,1,100,26.848
247786,43212,1,T0,1,100,26.864
247887,43230,1,T0,1,100,26.864
247987,43248,1,T0,1,100,26.848
248089,43266,1,T0,1,100,26.826
248189,43284,1,T0,1,100,26.831
248291,43302,1,T0,1,100,26.842
248393,43320,1,T0,1,100,26.837
248492,43339,1,T0,1,100,26.864
248595,43357,1,T0,1,100,26.858
248695,43375,1,T0,1,100,26.864
248797,43393,1,T0,1,100,26.853
248897,43411,1,T0,1,100,26.880
248997,43429,1,T0,1,100,26.853
249048,43447,2,T0,1,100,26.853
249100,43447,2,T0,1,100,26.880
249200,43465,1,T0,1,100,26.880
249300,43484,1,T0,1,100,26.874
249403,43502,1,T0,1,100,26.869
249504,43520,1,T0,1,100,26.874
249603,43538,1,T0,1,100,26.842
249705,43556,1,T0,1,100,26.853
249805,43574,1,T0,1,100,26.853
249909,43592,1,T0,1,100,26.858
250008,43611,1,T0,1,100,26.896
250110,43629,1,T0,1,100,26.858
250211,43647,1,T0,1,100,26.853
250310,43665,1,T0,1,100,26.880
250412,43683,1,T0,1,100,26.853
250512,43701,1,T0,1,100,26.896
250615,43719,1,T0,1,100,26.853
250714,43737,1,T0,1,100,26.880
250817,43756,1,T0,1,100,26.880
250917,43774,1,T0,1,100,26.848
251019,43792,1,T0,1,100,26.896
251120,43810,1,T0,1,100,26.853
251219,43828,1,T0,1,100,26.869
251321,43846,1,T0,1,100,26.869
251422,43864,1,T0,1,100,26.853
251524,43883,1,T0,1,100,26.912
251623,43901,1,T0,1,100,26.853
251724,43919,1,T0,1,100,26.885
251827,43937,1,T0,1,100,26.842
251926,43955,1,T0,1,100,26.842
252028,43973,1,T0,1,100,26.896
252079,43991,2,T0,1,100,26.864
252130,43991,2,T0,1,100,26.890
252229,44010,1,T0,1,100,26.858
252330,44028,1,T0,1,100,26.864
252433,44046,1,T0,1,100,26.890
252533,44064,1,T0,1,100,26.880
252634,44082,1,T0,1,100,26.880
252734,44100,1,T0,1,100,26.896
252835,44118,1,T0,1,100,26.885
252938,44136,1,T0,1,100,26.869
253038,44155,1,T0,1,100,26.896
253139,44173,1,T0,1,100,26.858
253239,44191,1,T0,1,100,26.874
253342,44209,1,T0,1,100,26.858
253443,44227,1,T0,1,100,26.874
253543,44245,1,T0,1,100,26.890
253644,44263,1,T0,1,100,26.896
253744,44282,1,T0,1,100,26.826
253847,44300,1,T0,1,100,26.880
253946,44318,1,T0,1,100,26.858
254049,44336,1,T0,1,100,26.831
254149,44354,1,T0,1,100,26.869
254250,44372,1,T0,1,100,26.874
254350,44390,1,T0,1,100,26.858
254454,44409,1,T0,1,100,26.890
254553,44427,1,T0,1,100,26.896
254653,44445,1,T0,1,100,26.912
254756,44463,1,T0,1,100,26.880
254856,44481,1,T0,1,100,26.896
254958,44499,1,T0,1,100,26.831
255057,44517,1,T0,1,100,26.831
255108,44535,2,T0,1,100,26.864
255159,44535,2,T0,1,100,26.842
255260,44554,1,T0,1,100,26.880
255361,44572,1,T0,1,100,26.880
255461,44590,1,T0,1,100,26.837
255563,44608,1,T0,1,100,26.896
255665,44626,1,T0,1,100,26.880
255757,44647,2,T0,1,100,26.848
255850,44647,2,T0,1,100,26.890
255946,44668,1,T0,1,100,26.885
256047,44686,1,T0,1,100,26.885
256147,44704,1,T0,1,100,26.896
256250,44722,1,T0,1,100,26.923
256350,44740,1,T0,1,100,26.890
256451,44758,1,T0,1,100,26.848
256551,44776,1,T0,1,100,26.885
256654,44794,1,T0,1,100,26.874
256755,44813,1,T0,1,100,26.880
256854,44831,1,T0,1,100,26.880
256957,44849,1,T0,1,100,26.853
257057,44867,1,T0,1,100,26.896
257159,44885,1,T0,1,100,26.874
257258,44903,1,T0,1,100,26.874
257359,44921,1,T0,1,100,26.880
257462,44940,1,T0,1,100,26.885
257563,44958,1,T0,1,100,26.890
257662,44976,1,T0,1,100,26.912
257763,44994,1,T0,1,100,26.912
257866,45012,1,T0,1,100,26.912
257966,45030,1,T0,1,100,26.858
258068,45048,1,T0,1,100,26.896
258167,45066,1,T0,1,100,26.917
258268,45085,1,T0,1,100,26.869
258371,45103,1,T0,1,100,26.896
258471,45121,1,T0,1,100,26.906
258573,45139,1,T0,1,100,26.923
258673,45157,1,T0,1,100,26.896
258774,45175,1,T0,1,100,26.864
258874,45193,1,T0,1,100,26.906
258924,45212,2,T0,1,100,26.912
258975,45212,2,T0,1,100,26.885
259077,45230,1,T0,1,100,26.890
259179,45248,1,T0,1,100,26.912
259279,45266,1,T0,1,100,26.837
259380,45284,1,T0,1,100,26.885
259480,45302,1,T0,1,100,26.885
259581,45320,1,T0,1,100,26.901
259684,45339,1,T0,1,100,26.901
259784,45357,1,T0,1,100,26.901
259886,45375,1,T0,1,100,26.864
259985,45393,1,T0,1,100,26.874
260087,45411,1,T0,1,100,26.901
260189,45429,1,T0,1,100,26.896
260289,45447,1,T0,1,100,26.917
260390,45465,1,T0,1,100,26.928
260490,45484,1,T0,1,100,26.885
260592,45502,1,T0,1,100,26.896
260693,45520,1,T0,1,100,26.874
260794,45538,1,T0,1,100,26.917
260895,45556,1,T0,1,100,26.901
260997,45574,1,T0,1,100,26.917
261096,45592,1,T0,1,100,26.880
261197,45611,1,T0,1,100,26.874
261299,45629,1,T0,1,100,26.864
261400,45647,1,T0,1,100,26.890
261501,45665,1,T0,1,100,26.949
261602,45683,1,T0,1,100,26.896
261704,45701,1,T0,1,100,26.885
261804,45719,1,T0,1,100,26.864
261904,45737,1,T0,1,100,26.896
262006,45756,1,T0,1,100,26.917
262056,45774,2,T0,1,100,26.896
262107,45774,2,T0,1,100,26.923
262209,45792,1,T0,1,100,26.928
262308,45810,1,T0,1,100,26.896
262410,45828,1,T0,1,100,26.901
262510,45846,1,T0,1,100,26.923
262612,45864,1,T0,1,100,26.923
262714,45883,1,T0,1,100,26.885
262813,45901,1,T0,1,100,26.896
262915,45919,1,T0,1,100,26.939
263017,45937,1,T0,1,100,26.901
263118,45955,1,T0,1,100,26.896
263217,45973,1,T0,1,100,26.880
263319,45991,1,T0,1,100,26.880
263420,46010,1,T0,1,100,26.885
263520,46028,1,T0,1,100,26.917
263623,46046,1,T0,1,100,26.901
263724,46064,1,T0,1,100,26.890
263823,46082,1,T0,1,100,26.960
263924,46100,1,T0,1,100,26.917
264027,46118,1,T0,1,100,26.864
264127,46136,1,T0,1,100,26.939
264228,46155,1,T0,1,100,26.928
264328,46173,1,T0,1,100,26.939
264430,46191,1,T0,1,100,26.869
264533,46209,1,T0,1,100,26.912
264631,46227,1,T0,1,100,26.896
264733,46245,1,T0,1,100,26.901
264833,46263,1,T0,1,100,26.874
264935,46282,1,T0,1,100,26.917
265037,46300,1,T0,1,100,26.939
265136,46318,1,T0,1,100,26.939
265187,46336,2,T0,1,100,26.890
265239,46336,2,T0,1,100,26.906
265339,46354,1,T0,1,100,26.955
265440,46372,1,T0,1,100,26.912
265540,46390,1,T0,1,100,26.896
265643,46409,1,T0,1,100,26.901
265743,46427,1,T0,1,100,26.939
265844,46445,1,T0,1,100,26.896
265944,46463,1,T0,1,100,26.906
266048,46481,1,T0,1,100,26.971
266146,46499,1,T0,1,100,26.928
266247,46517,1,T0,1,100,26.906
266350,46535,1,T0,1,100,26.933
266450,46554,1,T0,1,100,26.874
266551,46572,1,T0,1,100,26.949
266644,46593,2,T0,1,100,26.923
266737,46593,2,T0,1,100,26.923
266832,46613,1,T0,1,100,26.933
266934,46631,1,T0,1,100,26.944
267034,46649,1,T0,1,100,26.928
267137,46668,1,T0,1,100,26.965
267238,46686,1,T0,1,100,26.906
267337,46704,1,T0,1,100,26.928
267440,46722,1,T0,1,100,26.917
267540,46740,1,T0,1,100,26.923
267641,46758,1,T0,1,100,26.939
267741,46776,1,T0,1,100,26.923
267844,46794,1,T0,1,100,26.933
267944,46813,1,T0,1,100,26.949
268045,46831,1,T0,1,100,26.928
268145,46849,1,T0,1,100,26.912
268249,46867,1,T0,1,100,26.917
268348,46885,1,T0,1,100,26.955
268448,46903,1,T0,1,100,26.906
268551,46921,1,T0,1,100,26.928
268651,46940,1,T0,1,100,26.912
268753,46958,1,T0,1,100,26.923
268852,46976,1,T0,1,100,26.944
268903,46994,2,T0,1,100,26.960
268954,46994,2,T0,1,100,26.971
269056,47012,1,T0,1,100,26.933
269156,47030,1,T0,1,100,26.933
269256,47048,1,T0,1,100,26.955
269357,47066,1,T0,1,100,26.960
269460,47085,1,T0,1,100,26.944
269559,47103,1,T0,1,100,26.928
269661,47121,1,T0,1,100,26.949
269830,47139,1,T0,1,100,26.928
269927,47157,1,T0,1,100,26.944
270027,47175,1,T0,1,100,26.971
270078,47194,2,T0,1,100,26.944
270129,47194,2,T0,1,100,26.912
270231,47212,1,T0,1,100,26.949
270332,47230,1,T0,1,100,26.928
270432,47248,1,T0,1,100,26.939
270533,47266,1,T0,1,100,26.976
270633,47284,1,T0,1,100,26.971
270734,47302,1,T0,1,100,26.923
270837,47320,1,T0,1,100,26.955
270936,47339,1,T0,1,100,26.971
271040,47357,1,T0,1,100,26.955
271139,47375,1,T0,1,100,26.912
271240,47393,1,T0,1,100,26.976
271342,47411,1,T0,1,100,26.944
271442,47429,1,T0,1,100,26.949
271543,47447,1,T0,1,100,26.944
271643,47466,1,T0,1,100,26.939
271744,47484,1,T0,1,100,26.933
271847,47502,1,T0,1,100,26.933
271947,47520,1,T0,1,100,26.949
272047,47538,1,T0,1,100,26.933
272150,47556,1,T0,1,100,26.949
272250,47574,1,T0,1,100,26.960
272350,47592,1,T0,1,100,26.971
272452,47611,1,T0,1,100,26.987
272553,47629,1,T0,1,100,26.955
272656,47647,1,T0,1,100,26.933
272755,47665,1,T0,1,100,26.976
272857,47683,1,T0,1,100,26.933
272956,47701,1,T0,1,100,26.955
273057,47719,1,T0,1,100,26.971
273108,47738,2,T0,1,100,26.955
273160,47738,2,T0,1,100,26.944
273260,47756,1,T0,1,100,26.976
273362,47774,1,T0,1,100,26.965
273461,47792,1,T0,1,100,26.965
273563,47810,1,T0,1,100,26.949
273664,47828,1,T0,1,100,26.971
273766,47846,1,T0,1,100,26.917
273865,47865,1,T0,1,100,26.960
273966,47883,1,T0,1,100,26.960
274068,47901,1,T0,1,100,26.965
274169,47919,1,T0,1,100,26.982
274271,47937,1,T0,1,100,26.955
274371,47955,1,T0,1,100,26.992
274472,47973,1,T0,1,100,26.971
274574,47991,1,T0,1,100,26.987
274673,48010,1,T0,1,100,26.987
274776,48028,1,T0,1,100,26.976
274876,48046,1,T0,1,100,26.960
274977,48064,1,T0,1,100,26.971
275077,48082,1,T0,1,100,26.955
275180,48100,1,T0,1,100,27.014
275279,48118,1,T0,1,100,26.982
275381,48137,1,T0,1,100,26.982
275481,48155,1,T0,1,100,26.976
275584,48173,1,T0,1,100,26.998
275685,48191,1,T0,1,100,26.960
275785,48209,1,T0,1,100,27.003
275887,48227,1,T0,1,100,26.976
275987,48245,1,T0,1,100,26.976
276089,48264,1,T0,1,100,26.944
276188,48282,1,T0,1,100,26.949
276289,48300,1,T0,1,100,26.992
276391,48318,1,T0,1,100,26.998
276441,48336,2,T0,1,100,26.992
276491,48336,2,T0,1,100,26.982
276594,48354,1,T0,1,100,27.024
276693,48372,1,T0,1,100,27.030
276795,48390,1,T0,1,100,26.971
276897,48409,1,T0,1,100,26.955
276997,48427,1,T0,1,100,26.928
277097,48445,1,T0,1,100,26.971
277199,48463,1,T0,1,100,26.987
277301,48481,1,T0,1,100,26.998
277400,48499,1,T0,1,100,26.992
277502,48517,1,T0,1,100,26.960
277583,48539,2,T0,1,100,26.982
277665,48539,2,T0,1,100,26.965
277764,48559,1,T0,1,100,26.960
277863,48577,1,T0,1,100,26.982
277964,48595,1,T0,1,100,26.965
278067,48613,1,T0,1,100,26.982
278168,48631,1,T0,1,100,26.998
278267,48649,1,T0,1,100,27.003
278368,48668,1,T0,1,100,26.982
278471,48686,1,T0,1,100,27.008
278572,48704,1,T0,1,100,26.998
278673,48722,1,T0,1,100,26.976
278772,48740,1,T0,1,100,26.971
278873,48758,1,T0,1,100,27.003
278976,48776,1,T0,1,100,26.992
279075,48795,1,T0,1,100,26.992
279177,48813,1,T0,1,100,26.987
279278,48831,1,T0,1,100,26.965
279380,48849,1,T0,1,100,27.024
279479,48867,1,T0,1,100,27.008
279581,48885,1,T0,1,100,27.019
279683,48903,1,T0,1,100,27.003
279783,48921,1,T0,1,100,26.965
279883,48940,1,T0,1,100,27.003
279986,48958,1,T0,1,100,27.003
280087,48976,1,T0,1,100,26.982
280187,48994,1,T0,1,100,26.982
280288,49012,1,T0,1,100,26.998
280388,49030,1,T0,1,100,26.976
280491,49048,1,T0,1,100,26.982
280590,49067,1,T0,1,100,26.971
280691,49085,1,T0,1,100,27.019
280742,49103,2,T0,1,100,27.035
280794,49103,2,T0,1,100,27.003
280894,49121,1,T0,1,100,27.003
280996,49139,1,T0,1,100,26.987
281095,49157,1,T0,1,100,27.008
281197,49175,1,T0,1,100,27.003
281298,49193,1,T0,1,100,26.976
281399,49212,1,T0,1,100,27.024
281499,49230,1,T0,1,100,27.030
281601,49248,1,T0,1,100,26.982
281703,49266,1,T0,1,100,27.008
281803,49284,1,T0,1,100,26.998
281904,49302,1,T0,1,100,27.014
282005,49320,1,T0,1,100,27.030
282106,49339,1,T0,1,100,27.008
282206,49357,1,T0,1,100,26.992
282308,49375,1,T0,1,100,27.019
282410,49393,1,T0,1,100,27.019
282510,49411,1,T0,1,100,27.019
282611,49429,1,T0,1,100,27.030
282713,49447,1,T0,1,100,27.024
282813,49466,1,T0,1,100,27.024
282913,49484,1,T0,1,100,27.035
283015,49502,1,T0,1,100,27.019
283116,49520,1,T0,1,100,26.982
283217,49538,1,T0,1,100,27.019
283318,49556,1,T0,1,100,27.030
283419,49574,1,T0,1,100,26.998
283521,49592,1,T0,1,100,27.062
283621,49611,1,T0,1,100,26.998
283722,49629,1,T0,1,100,26.998
283822,49647,1,T0,1,100,27.024
283873,49665,2,T0,1,100,26.992
283924,49665,2,T0,1,100,27.046
284026,49683,1,T0,1,100,27.008
284125,49701,1,T0,1,100,27.046
284228,49719,1,T0,1,100,27.024
284328,49738,1,T0,1,100,27.003
284428,49756,1,T0,1,100,27.003
284529,49774,1,T0,1,100,27.008
284632,49792,1,T0,1,100,27.024
284731,49810,1,T0,1,100,27.019
284833,49828,1,T0,1,100,27.035
284934,49846,1,T0,1,100,27.041
285035,49864,1,T0,1,100,27.051
285137,49883,1,T0,1,100,27.046
285237,49901,1,T0,1,100,27.008
285338,49919,1,T0,1,100,27.008
285438,49937,1,T0,1,100,27.008
285539,49955,1,T0,1,100,27.003
285642,49973,1,T0,1,100,27.046
285742,49991,1,T0,1,100,27.008
285843,50010,1,T0,1,100,27.030
285945,50028,1,T0,1,100,27.046
286046,50046,1,T0,1,100,27.008
286145,50064,1,T0,1,100,27.051
286247,50082,1,T0,1,100,27.062
286347,50100,1,T0,1,100,27.014
286451,50118,1,T0,1,100,27.019
286549,50137,1,T0,1,100,27.030
286652,50155,1,T0,1,100,27.046
286752,50173,1,T0,1,100,27.014
286852,50191,1,T0,1,100,27.019
286954,50209,1,T0,1,100,27.051
287004,50227,2,T0,1,100,26.998
287055,50227,2,T0,1,100,27.008
287157,50245,1,T0,1,100,27.030
287256,50263,1,T0,1,100,27.041
287357,50282,1,T0,1,100,27.051
287460,50300,1,T0,1,100,27.019
287561,50318,1,T0,1,100,27.073
287660,50336,1,T0,1,100,27.030
287761,50354,1,T0,1,100,27.062
287864,50372,1,T0,1,100,27.083
287964,50390,1,T0,1,100,27.062
288066,50409,1,T0,1,100,27.067
288165,50427,1,T0,1,100,27.067
288267,50445,1,T0,1,100,27.030
288369,50463,1,T0,1,100,27.035
288462,50484,2,T0,1,100,27.067
288555,50484,2,T0,1,100,27.057
288653,50504,1,T0,1,100,27.008
288751,50522,1,T0,1,100,27.051
288854,50541,1,T0,1,100,27.073
288953,50559,1,T0,1,100,27.024
289054,50577,1,T0,1,100,27.035
289157,50595,1,T0,1,100,27.083
289257,50613,1,T0,1,100,27.046
289359,50631,1,T0,1,100,27.041
289458,50649,1,T0,1,100,27.046
289559,50668,1,T0,1,100,27.105
289662,50686,1,T0,1,100,27.073
289761,50704,1,T0,1,100,27.051
289863,50722,1,T0,1,100,27.051
289963,50740,1,T0,1,100,27.100
290066,50758,1,T0,1,100,27.067
290167,50776,1,T0,1,100,27.078
290268,50795,1,T0,1,100,27.073
290367,50813,1,T0,1,100,27.062
290469,50831,1,T0,1,100,27.089
290571,50849,1,T0,1,100,27.089
290670,50867,1,T0,1,100,27.078
290721,50885,2,T0,1,100,27.100
290773,50885,2,T0,1,100,27.073
290873,50903,1,T0,1,100,27.078
290974,50921,1,T0,1,100,27.030
291074,50940,1,T0,1,100,27.062
291177,50958,1,T0,1,100,27.073
291276,50976,1,T0,1,100,27.062
291377,50994,1,T0,1,100,27.094
291479,51012,1,T0,1,100,27.100
291581,51030,1,T0,1,100,27.073
291681,51048,1,T0,1,100,27.051
291782,51067,1,T0,1,100,27.073
291884,51085,1,T0,1,100,27.057
291983,51103,1,T0,1,100,27.057
292085,51121,1,T0,1,100,27.121
292185,51139,1,T0,1,100,27.067
292286,51157,1,T0,1,100,27.062
292389,51175,1,T0,1,100,27.083
292489,51193,1,T0,1,100,27.083
292590,51212,1,T0,1,100,27.137
292691,51230,1,T0,1,100,27.078
292793,51248,1,T0,1,100,27.100
292892,51266,1,T0,1,100,27.089
292993,51284,1,T0,1,100,27.067
293096,51302,1,T0,1,100,27.089
293197,51320,1,T0,1,100,27.110
293298,51339,1,T0,1,100,27.089
293397,51357,1,T0,1,100,27.041
293499,51375,1,T0,1,100,27.073
293599,51393,1,T0,1,100,27.094
293701,51411,1,T0,1,100,27.105
293801,51429,1,T0,1,100,27.078
293852,51447,2,T0,1,100,27.100
293903,51447,2,T0,1,100,27.116
294005,51466,1,T0,1,100,27.089
294104,51484,1,T0,1,100,27.094
294207,51502,1,T0,1,100,27.126
294307,51520,1,T0,1,100,27.089
294408,51538,1,T0,1,100,27.089
294508,51556,1,T0,1,100,27.100
294609,51574,1,T0,1,100,27.094
294712,51592,1,T0,1,100,27.083
294812,51611,1,T0,1,100,27.116
294914,51629,1,T0,1,100,27.100
295013,51647,1,T0,1,100,27.105
295116,51665,1,T0,1,100,27.083
295215,51683,1,T0,1,100,27.116
295317,51701,1,T0,1,100,27.089
295417,51719,1,T0,1,100,27.067
295518,51738,1,T0,1,100,27.110
295604,51756,2,T0,1,100,27.078
295690,51756,2,T0,1,100,27.105
295785,51774,1,T0,1,100,27.116
295886,51792,1,T0,1,100,27.116
295987,51810,1,T0,1,100,27.083
296088,51828,1,T0,1,100,27.110
296190,51846,1,T0,1,100,27.132
296290,51865,1,T0,1,100,27.089
296390,51883,1,T0,1,100,27.126
296493,51901,1,T0,1,100,27.142
296593,51919,1,T0,1,100,27.110
296695,51937,1,T0,1,100,27.142
296794,51955,1,T0,1,100,27.121
296895,51973,1,T0,1,100,27.153
296998,51992,1,T0,1,100,27.132
297098,52010,1,T0,1,100,27.094
297199,52028,1,T0,1,100,27.067
297299,52046,1,T0,1,100,27.094
297401,52064,1,T0,1,100,27.100
297503,52082,1,T0,1,100,27.100
297604,52100,1,T0,1,100,27.126
297703,52118,1,T0,1,100,27.132
297806,52137,1,T0,1,100,27.083
297906,52155,1,T0,1,100,27.105
298006,52173,1,T0,1,100,27.110
298057,52191,2,T0,1,100,27.148
298109,52191,2,T0,1,100,27.100
298209,52209,1,T0,1,100,27.073
298310,52227,1,T0,1,100,27.105
298410,52245,1,T0,1,100,27.105
298512,52264,1,T0,1,100,27.089
298614,52282,1,T0,1,100,27.153
298714,52300,1,T0,1,100,27.126
298815,52318,1,T0,1,100,27.116
298915,52336,1,T0,1,100,27.132
299018,52354,1,T0,1,100,27.100
299119,52372,1,T0,1,100,27.159
299219,52391,1,T0,1,100,27.132
299319,52409,1,T0,1,100,27.116
299403,52430,2,T0,1,100,27.126
299487,52430,2,T0,1,100,27.110
299584,52450,1,T0,1,100,27.164
299684,52468,1,T0,1,100,27.105
299787,52486,1,T0,1,100,27.132
299887,52504,1,T0,1,100,27.116
299988,52523,1,T0,1,100,27.137
300088,52541,1,T0,1,100,27.137
300190,52559,1,T0,1,100,27.105
300292,52577,1,T0,1,100,27.089
300392,52595,1,T0,1,100,27.083
300493,52613,1,T0,1,100,27.126
300595,52631,1,T0,1,100,27.148
300694,52649,1,T0,1,100,27.121
300795,52668,1,T0,1,100,27.142
300898,52686,1,T0,1,100,27.094
300998,52704,1,T0,1,100,27.137
301100,52722,1,T0,1,100,27.094
301199,52740,1,T0,1,100,27.137
301301,52758,1,T0,1,100,27.110
301403,52776,1,T0,1,100,27.126
301502,52795,1,T0,1,100,27.126
301604,52813,1,T0,1,100,27.142
301704,52831,1,T0,1,100,27.121
301806,52849,1,T0,1,100,27.126
301909,52867,1,T0,1,100,27.132
302008,52885,1,T0,1,100,27.094
302109,52903,1,T0,1,100,27.126
302210,52922,1,T0,1,100,27.110
302310,52940,1,T0,1,100,27.164
302411,52958,1,T0,1,100,27.083
302462,52976,2,T0,1,100,27.153
302514,52976,2,T0,1,100,27.094
302614,52994,1,T0,1,100,27.180
302716,53012,1,T0,1,100,27.137
302816,53030,1,T0,1,100,27.094
302918,53048,1,T0,1,100,27.121
303018,53067,1,T0,1,100,27.132
303118,53085,1,T0,1,100,27.121
303220,53103,1,T0,1,100,27.142
303321,53121,1,T0,1,100,27.110
303424,53139,1,T0,1,100,27.153
303522,53157,1,T0,1,100,27.137
303625,53175,1,T0,1,100,27.137
303725,53194,1,T0,1,100,27.148
303827,53212,1,T0,1,100,27.094
303926,53230,1,T0,1,100,27.132
304027,53248,1,T0,1,100,27.132
304130,53266,1,T0,1,100,27.159
304230,53284,1,T0,1,100,27.153
304331,53302,1,T0,1,100,27.137
304432,53321,1,T0,1,100,27.126
304534,53339,1,T0,1,100,27.126
304634,53357,1,T0,1,100,27.105
304734,53375,1,T0,1,100,27.148
304836,53393,1,T0,1,100,27.126
304939,53411,1,T0,1,100,27.180
305038,53429,1,T0,1,100,27.153
305139,53447,1,T0,1,100,27.121
305241,53466,1,T0,1,100,27.153
305341,53484,1,T0,1,100,27.153
305442,53502,1,T0,1,100,27.175
305542,53520,1,T0,1,100,27.132
305593,53538,2,T0,1,100,27.148
305645,53538,2,T0,1,100,27.142
305744,53556,1,T0,1,100,27.121
305845,53574,1,T0,1,100,27.142
305948,53593,1,T0,1,100,27.132
306048,53611,1,T0,1,100,27.153
306149,53629,1,T0,1,100,27.169
306249,53647,1,T0,1,100,27.142
306350,53665,1,T0,1,100,27.137
306453,53683,1,T0,1,100,27.153
306554,53701,1,T0,1,100,27.153
306653,53719,1,T0,1,100,27.148
306754,53738,1,T0,1,100,27.159
306857,53756,1,T0,1,100,27.159
306956,53774,1,T0,1,100,27.159
307058,53792,1,T0,1,100,27.148
307159,53810,1,T0,1,100,27.185
307260,53828,1,T0,1,100,27.148
307360,53846,1,T0,1,100,27.132
307463,53865,1,T0,1,100,27.148
307564,53883,1,T0,1,100,27.132
307664,53901,1,T0,1,100,27.137
307765,53919,1,T0,1,100,27.116
307865,53937,1,T0,1,100,27.148
307968,53955,1,T0,1,100,27.185
308068,53973,1,T0,1,100,27.175
308169,53992,1,T0,1,100,27.132
308269,54010,1,T0,1,100,27.137
308372,54028,1,T0,1,100,27.153
308473,54046,1,T0,1,100,27.137
308572,54064,1,T0,1,100,27.148
308674,54082,1,T0,1,100,27.132
308724,54100,2,T0,1,100,27.137
308775,54100,2,T0,1,100,27.137
308877,54118,1,T0,1,100,27.169
308976,54137,1,T0,1,100,27.137
309077,54155,1,T0,1,100,27.137
309180,54173,1,T0,1,100,27.153
309279,54191,1,T0,1,100,27.132
309381,54209,1,T0,1,100,27.148
309483,54227,1,T0,1,100,27.121
309583,54245,1,T0,1,100,27.185
309683,54264,1,T0,1,100,27.153
309786,54282,1,T0,1,100,27.148
309886,54300,1,T0,1,100,27.169
309988,54318,1,T0,1,100,27.169
310087,54336,1,T0,1,100,27.148
310188,54354,1,T0,1,100,27.180
310282,54375,2,T0,1,100,27.175
310376,54375,2,T0,1,100,27.175
310475,54395,1,T0,1,100,27.175
310577,54414,1,T0,1,100,27.132
310676,54432,1,T0,1,100,27.164
310777,54450,1,T0,1,100,27.164
310880,54468,1,T0,1,100,27.142
310980,54486,1,T0,1,100,27.180
311081,54504,1,T0,1,100,27.180
311182,54523,1,T0,1,100,27.164
311284,54541,1,T0,1,100,27.159
311384,54559,1,T0,1,100,27.159
311484,54577,1,T0,1,100,27.175
311586,54595,1,T0,1,100,27.169
311689,54613,1,T0,1,100,27.159
311788,54631,1,T0,1,100,27.223
311889,54650,1,T0,1,100,27.164
311991,54668,1,T0,1,100,27.228
312091,54686,1,T0,1,100,27.148
312192,54704,1,T0,1,100,27.185
312292,54722,1,T0,1,100,27.137
312393,54740,1,T0,1,100,27.148
312444,54758,2,T0,1,100,27.180
312496,54758,2,T0,1,100,27.175
312595,54776,1,T0,1,100,27.164
312698,54795,1,T0,1,100,27.180
312798,54813,1,T0,1,100,27.175
312899,54831,1,T0,1,100,27.142
313000,54849,1,T0,1,100,27.175
313100,54867,1,T0,1,100,27.159
313203,54885,1,T0,1,100,27.153
313303,54903,1,T0,1,100,27.142
313405,54922,1,T0,1,100,27.180
313504,54940,1,T0,1,100,27.207
313607,54958,1,T0,1,100,27.196
313707,54976,1,T0,1,100,27.175
313808,54994,1,T0,1,100,27.153
313908,55012,1,T0,1,100,27.185
314009,55030,1,T0,1,100,27.169
314111,55048,1,T0,1,100,27.159
314212,55067,1,T0,1,100,27.175
314314,55085,1,T0,1,100,27.185
314414,55103,1,T0,1,100,27.196
314515,55121,1,T0,1,100,27.180
314615,55139,1,T0,1,100,27.196
314717,55157,1,T0,1,100,27.201
314819,55175,1,T0,1,100,27.169
314919,55194,1,T0,1,100,27.169
315020,55212,1,T0,1,100,27.137
315122,55230,1,T0,1,100,27.207
315222,55248,1,T0,1,100,27.153
315322,55266,1,T0,1,100,27.164
315424,55284,1,T0,1,100,27.201
315474,55302,2,T0,1,100,27.185
315525,55302,2,T0,1,100,27.180
315627,55321,1,T0,1,100,27.191
315726,55339,1,T0,1,100,27.201
315827,55357,1,T0,1,100,27.196
315930,55375,1,T0,1,100,27.180
316030,55393,1,T0,1,100,27.212
316131,55411,1,T0,1,100,27.185
316231,55429,1,T0,1,100,27.153
316333,55447,1,T0,1,100,27.175
316434,55466,1,T0,1,100,27.185
316536,55484,1,T0,1,100,27.207
316636,55502,1,T0,1,100,27.185
316738,55520,1,T0,1,100,27.185
316837,55538,1,T0,1,100,27.191
316938,55556,1,T0,1,100,27.169
317041,55574,1,T0,1,100,27.196
317141,55593,1,T0,1,100,27.185
317242,55611,1,T0,1,100,27.180
317342,55629,1,T0,1,100,27.212
317444,55647,1,T0,1,100,27.218
317546,55665,1,T0,1,100,27.169
317645,55683,1,T0,1,100,27.191
317747,55701,1,T0,1,100,27.191
317847,55719,1,T0,1,100,27.207
317949,55738,1,T0,1,100,27.142
318050,55756,1,T0,1,100,27.223
318152,55774,1,T0,1,100,27.191
318252,55792,1,T0,1,100,27.191
318353,55810,1,T0,1,100,27.185
318453,55828,1,T0,1,100,27.175
318554,55846,1,T0,1,100,27.207
318605,55865,2,T0,1,100,27.218
318657,55865,2,T0,1,100,27.191
318756,55883,1,T0,1,100,27.201
318859,55901,1,T0,1,100,27.180
318959,55919,1,T0,1,100,27.196
319061,55937,1,T0,1,100,27.201
319160,55955,1,T0,1,100,27.196
319261,55973,1,T0,1,100,27.191
319363,55992,1,T0,1,100,27.185
319465,56010,1,T0,1,100,27.196
319565,56028,1,T0,1,100,27.191
319665,56046,1,T0,1,100,27.185
319768,56064,1,T0,1,100,27.180
319868,56082,1,T0,1,100,27.175
319970,56100,1,T0,1,100,27.164
320073,56118,1,T0,1,100,27.175
320175,56137,1,T0,1,100,27.212
320274,56155,1,T0,1,100,27.228
320375,56173,1,T0,1,100,27.218
320478,56191,1,T0,1,100,27.218
320578,56209,1,T0,1,100,27.196
320679,56227,1,T0,1,100,27.218
320779,56245,1,T0,1,100,27.191
320881,56264,1,T0,1,100,27.250
320982,56282,1,T0,1,100,27.223
321082,56300,1,T0,1,100,27.223
321173,56321,2,T0,1,100,27.218
321264,56321,2,T0,1,100,27.180
321361,56341,1,T0,1,100,27.175
321456,56359,2,T0,1,100,27.196
321551,56359,2,T0,1,100,27.175
321651,56378,1,T0,1,100,27.212
321750,56396,1,T0,1,100,27.207
321851,56414,1,T0,1,100,27.244
321951,56432,1,T0,1,100,27.218
322053,56450,1,T0,1,100,27.191
322155,56468,1,T0,1,100,27.185
322255,56486,1,T0,1,100,27.218
322357,56505,1,T0,1,100,27.196
322456,56523,1,T0,1,100,27.234
322559,56541,1,T0,1,100,27.212
322658,56559,1,T0,1,100,27.228
322760,56577,1,T0,1,100,27.207
322860,56595,1,T0,1,100,27.260
322911,56613,2,T0,1,100,27.223
322962,56613,2,T0,1,100,27.223
323064,56631,1,T0,1,100,27.228
323163,56650,1,T0,1,100,27.234
323266,56668,1,T0,1,100,27.234
323365,56686,1,T0,1,100,27.228
323467,56704,1,T0,1,100,27.239
323567,56722,1,T0,1,100,27.201
323669,56740,1,T0,1,100,27.218
323771,56758,1,T0,1,100,27.175
323870,56777,1,T0,1,100,27.244
323972,56795,1,T0,1,100,27.223
324074,56813,1,T0,1,100,27.260
324173,56831,1,T0,1,100,27.185
324274,56849,1,T0,1,100,27.212
324377,56867,1,T0,1,100,27.212
324478,56885,1,T0,1,100,27.223
324579,56904,1,T0,1,100,27.228
324678,56922,1,T0,1,100,27.234
324779,56940,1,T0,1,100,27.244
324881,56958,1,T0,1,100,27.223
324982,56976,1,T0,1,100,27.201
325083,56994,1,T0,1,100,27.234
325183,57012,1,T0,1,100,27.244
325284,57030,1,T0,1,100,27.223
325386,57049,1,T0,1,100,27.212
325487,57067,1,T0,1,100,27.228
325589,57085,1,T0,1,100,27.234
325690,57103,1,T0,1,100,27.277
325789,57121,1,T0,1,100,27.207
325890,57139,1,T0,1,100,27.244
325941,57157,2,T0,1,100,27.223
325993,57157,2,T0,1,100,27.255
326093,57176,1,T0,1,100,27.228
326195,57194,1,T0,1,100,27.271
326294,57212,1,T0,1,100,27.228
326396,57230,1,T0,1,100,27.266
326497,57248,1,T0,1,100,27.250
326597,57266,1,T0,1,100,27.201
326700,57284,1,T0,1,100,27.196
326799,57302,1,T0,1,100,27.201
326901,57321,1,T0,1,100,27.207
327004,57339,1,T0,1,100,27.250
327102,57357,1,T0,1,100,27.212
327205,57375,1,T0,1,100,27.250
327305,57393,1,T0,1,100,27.212
327407,57411,1,T0,1,100,27.260
327506,57429,1,T0,1,100,27.239
327608,57448,1,T0,1,100,27.250
327709,57466,1,T0,1,100,27.228
327810,57484,1,T0,1,100,27.260
327910,57502,1,T0,1,100,27.228
328013,57520,1,T0,1,100,27.201
328112,57538,1,T0,1,100,27.239
328213,57556,1,T0,1,100,27.234
328315,57575,1,T0,1,100,27.255
328415,57593,1,T0,1,100,27.266
328519,57611,1,T0,1,100,27.244
328618,57629,1,T0,1,100,27.234
328720,57647,1,T0,1,100,27.223
328820,57665,1,T0,1,100,27.255
328921,57683,1,T0,1,100,27.271
329021,57701,1,T0,1,100,27.266
329122,57720,1,T0,1,100,27.244
329173,57738,2,T0,1,100,27.271
329225,57738,2,T0,1,100,27.244
329325,57756,1,T0,1,100,27.239
329426,57774,1,T0,1,100,27.234
329527,57792,1,T0,1,100,27.266
329629,57810,1,T0,1,100,27.239
329728,57828,1,T0,1,100,27.239
329829,57847,1,T0,1,100,27.255
329931,57865,1,T0,1,100,27.239
330032,57883,1,T0,1,100,27.309
330134,57901,1,T0,1,100,27.250
330233,57919,1,T0,1,100,27.244
330335,57937,1,T0,1,100,27.255
330436,57955,1,T0,1,100,27.244
330537,57973,1,T0,1,100,27.244
330638,57992,1,T0,1,100,27.260
330740,58010,1,T0,1,100,27.303
330839,58028,1,T0,1,100,27.277
330940,58046,1,T0,1,100,27.234
331043,58064,1,T0,1,100,27.266
331143,58082,1,T0,1,100,27.277
331244,58100,1,T0,1,100,27.244
331344,58119,1,T0,1,100,27.260
331445,58137,1,T0,1,100,27.260
331548,58155,1,T0,1,100,27.244
331648,58173,1,T0,1,100,27.201
331749,58191,1,T0,1,100,27.244
331849,58209,1,T0,1,100,27.244
331952,58227,1,T0,1,100,27.260
332052,58249,2,T0,1,100,27.255
332152,58249,2,T0,1,100,27.303
332224,58268,3,T0,1,100,27.244
332296,58268,3,T0,1,100,27.250
332368,58268,3,T0,1,100,27.282
332472,58287,1,T0,1,100,27.218
332573,58305,1,T0,1,100,27.277
332674,58323,1,T0,1,100,27.255
332776,58341,1,T0,1,100,27.293
332877,58360,1,T0,1,100,27.287
332978,58378,1,T0,1,100,27.287
333077,58396,1,T0,1,100,27.277
333180,58414,1,T0,1,100,27.234
333280,58432,1,T0,1,100,27.271
333382,58450,1,T0,1,100,27.271
333481,58468,1,T0,1,100,27.287
333582,58487,1,T0,1,100,27.277
333685,58505,1,T0,1,100,27.266
333785,58523,1,T0,1,100,27.250
333887,58541,1,T0,1,100,27.277
333986,58559,1,T0,1,100,27.266
334088,58577,1,T0,1,100,27.271
334190,58595,1,T0,1,100,27.293
334291,58614,1,T0,1,100,27.239
334391,58632,1,T0,1,100,27.266
334491,58650,1,T0,1,100,27.287
334593,58668,1,T0,1,100,27.260
334694,58686,1,T0,1,100,27.293
334794,58704,1,T0,1,100,27.266
334845,58722,2,T0,1,100,27.298
334897,58722,2,T0,1,100,27.228
334998,58740,1,T0,1,100,27.282
335097,58759,1,T0,1,100,27.223
335198,58777,1,T0,1,100,27.282
335301,58795,1,T0,1,100,27.277
335400,58813,1,T0,1,100,27.287
335502,58831,1,T0,1,100,27.319
335602,58849,1,T0,1,100,27.293
335706,58867,1,T0,1,100,27.303
335805,58886,1,T0,1,100,27.277
335905,58904,1,T0,1,100,27.228
336008,58922,1,T0,1,100,27.271
336107,58940,1,T0,1,100,27.298
336209,58958,1,T0,1,100,27.271
336309,58976,1,T0,1,100,27.266
336411,58994,1,T0,1,100,27.244
336513,59013,1,T0,1,100,27.277
336614,59031,1,T0,1,100,27.282
336714,59049,1,T0,1,100,27.266
336814,59067,1,T0,1,100,27.277
336917,59085,1,T0,1,100,27.255
337016,59103,1,T0,1,100,27.287
337118,59121,1,T0,1,100,27.266
337219,59139,1,T0,1,100,27.282
337321,59158,1,T0,1,100,27.298
337421,59176,1,T0,1,100,27.271
337521,59194,1,T0,1,100,27.287
337623,59212,1,T0,1,100,27.293
337723,59230,1,T0,1,100,27.282
337774,59248,2,T0,1,100,27.309
337826,59248,2,T0,1,100,27.282
337926,59266,1,T0,1,100,27.282
338028,59285,1,T0,1,100,27.266
338127,59303,1,T0,1,100,27.271
338229,59321,1,T0,1,100,27.303
338330,59339,1,T0,1,100,27.293
338432,59357,1,T0,1,100,27.282
338531,59375,1,T0,1,100,27.298
338632,59393,1,T0,1,100,27.325
338735,59411,1,T0,1,100,27.287
338835,59430,1,T0,1,100,27.303
338936,59448,1,T0,1,100,27.352
339038,59466,1,T0,1,100,27.309
339137,59484,1,T0,1,100,27.282
339240,59502,1,T0,1,100,27.330
339340,59520,1,T0,1,100,27.325
339441,59538,1,T0,1,100,27.228
339542,59557,1,T0,1,100,27.266
339644,59575,1,T0,1,100,27.303
339744,59593,1,T0,1,100,27.282
339846,59611,1,T0,1,100,27.330
339946,59629,1,T0,1,100,27.303
340047,59647,1,T0,1,100,27.309
340147,59665,1,T0,1,100,27.287
340249,59684,1,T0,1,100,27.260
340352,59702,1,T0,1,100,27.298
340451,59720,1,T0,1,100,27.298
340552,59738,1,T0,1,100,27.298
340652,59756,1,T0,1,100,27.314
340755,59774,1,T0,1,100,27.309
340855,59792,1,T0,1,100,27.341
340955,59810,1,T0,1,100,27.303
341006,59829,2,T0,1,100,27.325
341058,59829,2,T0,1,100,27.341
341158,59847,1,T0,1,100,27.309
341259,59865,1,T0,1,100,27.325
341361,59883,1,T0,1,100,27.352
341461,59901,1,T0,1,100,27.319
341561,59919,1,T0,1,100,27.266
341664,59937,1,T0,1,100,27.341
341763,59956,1,T0,1,100,27.309
341864,59974,1,T0,1,100,27.293
341966,59992,1,T0,1,100,27.314
342067,60010,1,T0,1,100,27.303
342168,60028,1,T0,1,100,27.303
342269,60046,1,T0,1,100,27.271
342370,60064,1,T0,1,100,27.336
342470,60082,1,T0,1,100,27.293
342573,60101,1,T0,1,100,27.325
342673,60119,1,T0,1,100,27.325
342774,60137,1,T0,1,100,27.341
342874,60155,1,T0,1,100,27.352
342958,60176,2,T0,1,100,27.293
343042,60176,2,T0,1,100,27.330
343141,60196,1,T0,1,100,27.341
343240,60215,1,T0,1,100,27.341
343343,60233,1,T0,1,100,27.309
343443,60251,1,T0,1,100,27.325
343545,60269,1,T0,1,100,27.336
343644,60287,1,T0,1,100,27.336
343745,60305,1,T0,1,100,27.346
343848,60323,1,T0,1,100,27.330
343948,60341,1,T0,1,100,27.341
344048,60360,1,T0,1,100,27.325
344151,60378,1,T0,1,100,27.314
344252,60396,1,T0,1,100,27.336
344351,60414,1,T0,1,100,27.325
344453,60432,1,T0,1,100,27.336
344553,60450,1,T0,1,100,27.330
344657,60468,1,T0,1,100,27.346
344755,60487,1,T0,1,100,27.298
344857,60505,1,T0,1,100,27.384
344959,60523,1,T0,1,100,27.314
345059,60541,1,T0,1,100,27.319
345160,60559,1,T0,1,100,27.336
345260,60577,1,T0,1,100,27.314
345311,60595,2,T0,1,100,27.336
345362,60595,2,T0,1,100,27.341
345463,60614,1,T0,1,100,27.325
345564,60632,1,T0,1,100,27.330
345664,60650,1,T0,1,100,27.319
345766,60668,1,T0,1,100,27.298
345868,60686,1,T0,1,100,27.346
345967,60704,1,T0,1,100,27.357
346069,60722,1,T0,1,100,27.373
346170,60740,1,T0,1,100,27.325
346272,60759,1,T0,1,100,27.314
346372,60777,1,T0,1,100,27.352
346472,60795,1,T0,1,100,27.319
346575,60813,1,T0,1,100,27.330
346675,60831,1,T0,1,100,27.303
346776,60849,1,T0,1,100,27.325
346877,60867,1,T0,1,100,27.319
346978,60886,1,T0,1,100,27.319
347078,60904,1,T0,1,100,27.357
347181,60922,1,T0,1,100,27.330
347281,60940,1,T0,1,100,27.319
347382,60958,1,T0,1,100,27.357
347473,60976,2,T0,1,100,27.346
347564,60976,2,T0,1,100,27.352
347661,60994,1,T0,1,100,27.346
347762,61013,1,T0,1,100,27.298
347861,61031,1,T0,1,100,27.330
347962,61049,1,T0,1,100,27.325
348065,61067,1,T0,1,100,27.330
348165,61085,1,T0,1,100,27.362
348267,61103,1,T0,1,100,27.352
348366,61121,1,T0,1,100,27.330
348467,61140,1,T0,1,100,27.325
348569,61158,1,T0,1,100,27.357
348671,61176,1,T0,1,100,27.309
348771,61194,1,T0,1,100,27.341
348872,61212,1,T0,1,100,27.319
348973,61230,1,T0,1,100,27.362
349073,61248,1,T0,1,100,27.352
349174,61266,1,T0,1,100,27.341
349225,61285,2,T0,1,100,27.346
349277,61285,2,T0,1,100,27.293
349378,61303,1,T0,1,100,27.352
349477,61321,1,T0,1,100,27.325
349578,61339,1,T0,1,100,27.341
349681,61357,1,T0,1,100,27.368
349781,61375,1,T0,1,100,27.357
349882,61393,1,T0,1,100,27.330
349982,61412,1,T0,1,100,27.352
350084,61430,1,T0,1,100,27.346
350186,61448,1,T0,1,100,27.330
350285,61466,1,T0,1,100,27.384
350388,61484,1,T0,1,100,27.346
350487,61502,1,T0,1,100,27.362
350589,61520,1,T0,1,100,27.341
350690,61539,1,T0,1,100,27.341
350790,61557,1,T0,1,100,27.346
350893,61575,1,T0,1,100,27.325
350994,61593,1,T0,1,100,27.352
351093,61611,1,T0,1,100,27.357
351196,61629,1,T0,1,100,27.346
351297,61647,1,T0,1,100,27.352
351396,61665,1,T0,1,100,27.336
351498,61684,1,T0,1,100,27.325
351598,61702,1,T0,1,100,27.341
351701,61720,1,T0,1,100,27.389
351800,61738,1,T0,1,100,27.384
351902,61756,1,T0,1,100,27.314
352004,61774,1,T0,1,100,27.341
352103,61792,1,T0,1,100,27.378
352205,61811,1,T0,1,100,27.325
352305,61829,1,T0,1,100,27.330
352356,61847,2,T0,1,100,27.384
352408,61847,2,T0,1,100,27.373
352508,61865,1,T0,1,100,27.373
352609,61883,1,T0,1,100,27.373
352711,61901,1,T0,1,100,27.378
352813,61919,1,T0,1,100,27.319
352915,61937,1,T0,1,100,27.336
353014,61956,1,T0,1,100,27.346
353116,61974,1,T0,1,100,27.378
353218,61992,1,T0,1,100,27.368
353319,62010,1,T0,1,100,27.368
353418,62028,1,T0,1,100,27.368
353520,62046,1,T0,1,100,27.368
353621,62064,1,T0,1,100,27.368
353721,62083,1,T0,1,100,27.352
353824,62101,1,T0,1,100,27.341
353907,62122,2,T0,1,100,27.362
353991,62122,2,T0,1,100,27.352
354086,62142,1,T0,1,100,27.389
354187,62159,1,T0,1,100,27.325
354290,62177,1,T0,1,100,27.357
354390,62195,1,T0,1,100,27.352
354492,62214,1,T0,1,100,27.325
354591,62232,1,T0,1,100,27.368
354694,62250,1,T0,1,100,27.368
354793,62268,1,T0,1,100,27.368
354894,62286,1,T0,1,100,27.357
354996,62304,1,T0,1,100,27.368
355096,62322,1,T0,1,100,27.362
355198,62341,1,T0,1,100,27.384
355299,62359,1,T0,1,100,27.373
355401,62377,1,T0,1,100,27.368
355501,62395,1,T0,1,100,27.368
355603,62413,1,T0,1,100,27.352
355702,62431,1,T0,1,100,27.378
355803,62449,1,T0,1,100,27.362
355905,62468,1,T0,1,100,27.341
356006,62486,1,T0,1,100,27.373
356107,62504,1,T0,1,100,27.352
356208,62522,1,T0,1,100,27.362
356309,62540,1,T0,1,100,27.352
356409,62558,1,T0,1,100,27.389
356510,62576,1,T0,1,100,27.352
356561,62594,2,T0,1,100,27.335
356613,62594,2,T0,1,100,27.378
356714,62613,1,T0,1,100,27.384
356813,62631,1,T0,1,100,27.416
356916,62649,1,T0,1,100,27.389
357017,62667,1,T0,1,100,27.368
357117,62685,1,T0,1,100,27.389
357218,62703,1,T0,1,100,27.384
357318,62721,1,T0,1,100,27.373
357419,62740,1,T0,1,100,27.336
357521,62758,1,T0,1,100,27.373
357623,62776,1,T0,1,100,27.400
357724,62794,1,T0,1,100,27.448
357824,62812,1,T0,1,100,27.432
357925,62830,1,T0,1,100,27.378
358025,62848,1,T0,1,100,27.368
358126,62866,1,T0,1,100,27.352
358229,62885,1,T0,1,100,27.373
358330,62903,1,T0,1,100,27.405
358429,62921,1,T0,1,100,27.378
358531,62939,1,T0,1,100,27.373
358632,62957,1,T0,1,100,27.384
358732,62975,1,T0,1,100,27.405
358835,62993,1,T0,1,100,27.384
358934,63012,1,T0,1,100,27.394
359036,63030,1,T0,1,100,27.384
359138,63048,1,T0,1,100,27.357
359237,63066,1,T0,1,100,27.357
359340,63084,1,T0,1,100,27.357
359440,63102,1,T0,1,100,27.362
359542,63120,1,T0,1,100,27.400
359641,63139,1,T0,1,100,27.389
359742,63157,1,T0,1,100,27.389
359793,63175,2,T0,1,100,27.394
359845,63175,2,T0,1,100,27.411
359945,63193,1,T0,1,100,27.389
360045,63211,1,T0,1,100,27.336
360148,63229,1,T0,1,100,27.378
360249,63247,1,T0,1,100,27.405
360348,63265,1,T0,1,100,27.405
360450,63284,1,T0,1,100,27.394
360550,63302,1,T0,1,100,27.373
360654,63320,1,T0,1,100,27.373
360753,63338,1,T0,1,100,27.378
360855,63356,1,T0,1,100,27.400
360955,63374,1,T0,1,100,27.378
361055,63392,1,T0,1,100,27.368
361157,63411,1,T0,1,100,27.362
361257,63429,1,T0,1,100,27.362
361360,63447,1,T0,1,100,27.368
361459,63465,1,T0,1,100,27.368
361561,63483,1,T0,1,100,27.384
361662,63501,1,T0,1,100,27.352
361764,63519,1,T0,1,100,27.427
361863,63537,1,T0,1,100,27.373
361964,63556,1,T0,1,100,27.400
362066,63574,1,T0,1,100,27.384
362167,63592,1,T0,1,100,27.400
362269,63610,1,T0,1,100,27.378
362369,63628,1,T0,1,100,27.400
362469,63646,1,T0,1,100,27.368
362572,63664,1,T0,1,100,27.368
362672,63683,1,T0,1,100,27.405
362773,63701,1,T0,1,100,27.400
362873,63719,1,T0,1,100,27.394
362924,63737,2,T0,1,100,27.400
362975,63737,2,T0,1,100,27.400
363075,63755,1,T0,1,100,27.378
363176,63773,1,T0,1,100,27.389
363279,63791,1,T0,1,100,27.352
363379,63810,1,T0,1,100,27.373
363480,63828,1,T0,1,100,27.389
363580,63846,1,T0,1,100,27.357
363683,63864,1,T0,1,100,27.362
363782,63882,1,T0,1,100,27.405
363886,63900,1,T0,1,100,27.384
363984,63918,1,T0,1,100,27.411
364086,63936,1,T0,1,100,27.368
364188,63955,1,T0,1,100,27.378
364288,63973,1,T0,1,100,27.394
364389,63991,1,T0,1,100,27.389
364489,64009,1,T0,1,100,27.378
364591,64027,1,T0,1,100,27.373
364692,64045,1,T0,1,100,27.394
364785,64066,2,T0,1,100,27.421
364878,64066,2,T0,1,100,27.373
364983,64086,1,T0,1,100,27.389
365082,64105,1,T0,1,100,27.378
365183,64123,1,T0,1,100,27.373
365284,64141,1,T0,1,100,27.405
365386,64159,1,T0,1,100,27.389
365485,64177,1,T0,1,100,27.421
365588,64195,1,T0,1,100,27.368
365687,64214,1,T0,1,100,27.384
365790,64232,1,T0,1,100,27.416
365891,64250,1,T0,1,100,27.373
365990,64268,1,T0,1,100,27.357
366093,64286,1,T0,1,100,27.389
366193,64304,1,T0,1,100,27.373
366294,64322,1,T0,1,100,27.389
366394,64341,1,T0,1,100,27.400
366495,64359,1,T0,1,100,27.411
366546,64377,2,T0,1,100,27.416
366598,64377,2,T0,1,100,27.389
366698,64395,1,T0,1,100,27.368
366799,64413,1,T0,1,100,27.400
366900,64431,1,T0,1,100,27.384
367002,64449,1,T0,1,100,27.405
367102,64468,1,T0,1,100,27.368
367203,64486,1,T0,1,100,27.378
367303,64504,1,T0,1,100,27.378
367406,64522,1,T0,1,100,27.362
367506,64540,1,T0,1,100,27.405
367606,64558,1,T0,1,100,27.384
367709,64576,1,T0,1,100,27.378
367808,64594,1,T0,1,100,27.421
367910,64613,1,T0,1,100,27.352
368010,64631,1,T0,1,100,27.405
368112,64649,1,T0,1,100,27.405
368214,64667,1,T0,1,100,27.368
368313,64685,1,T0,1,100,27.389
368416,64703,1,T0,1,100,27.384
368517,64721,1,T0,1,100,27.384
368616,64740,1,T0,1,100,27.362
368717,64758,1,T0,1,100,27.400
368819,64776,1,T0,1,100,27.384
368920,64794,1,T0,1,100,27.384
369021,64812,1,T0,1,100,27.443
369123,64830,1,T0,1,100,27.394
369222,64848,1,T0,1,100,27.384
369325,64866,1,T0,1,100,27.411
369425,64885,1,T0,1,100,27.378
369526,64903,1,T0,1,100,27.389
369626,64921,1,T0,1,100,27.368
369676,64939,2,T0,1,100,27.394
369727,64939,2,T0,1,100,27.416
369829,64957,1,T0,1,100,27.411
369930,64975,1,T0,1,100,27.389
370032,64993,1,T0,1,100,27.411
370131,65012,1,T0,1,100,27.416
370233,65030,1,T0,1,100,27.411
370333,65048,1,T0,1,100,27.421
370436,65066,1,T0,1,100,27.411
370537,65084,1,T0,1,100,27.373
370637,65102,1,T0,1,100,27.411
370737,65120,1,T0,1,100,27.405
370840,65139,1,T0,1,100,27.400
370939,65157,1,T0,1,100,27.394
371040,65175,1,T0,1,100,27.378
371142,65193,1,T0,1,100,27.368
371243,65211,1,T0,1,100,27.389
371345,65229,1,T0,1,100,27.378
371444,65247,1,T0,1,100,27.427
371546,65265,1,T0,1,100,27.427
371648,65284,1,T0,1,100,27.389
371747,65302,1,T0,1,100,27.443
371849,65320,1,T0,1,100,27.394
371951,65338,1,T0,1,100,27.416
372051,65356,1,T0,1,100,27.421
372152,65374,1,T0,1,100,27.394
372253,65392,1,T0,1,100,27.368
372354,65411,1,T0,1,100,27.432
372456,65429,1,T0,1,100,27.416
372555,65447,1,T0,1,100,27.411
372656,65465,1,T0,1,100,27.400
372707,65483,2,T0,1,100,27.421
372759,65483,2,T0,1,100,27.389
372859,65501,1,T0,1,100,27.411
372960,65519,1,T0,1,100,27.405
373061,2,1,T0,1,100,27.405
373162,20,1,T0,1,100,27.411
373263,38,1,T0,1,100,27.378
373358,56,2,T0,1,100,27.421
373453,56,2,T0,1,100,27.421
373551,74,1,T0,1,100,27.378
373651,92,1,T0,1,100,27.411
373753,110,1,T0,1,100,27.400
373852,129,1,T0,1,100,27.352
373953,147,1,T0,1,100,27.411
374056,165,1,T0,1,100,27.421
374157,183,1,T0,1,100,27.389
374256,201,1,T0,1,100,27.421
374359,219,1,T0,1,100,27.389
374458,237,1,T0,1,100,27.411
374559,256,1,T0,1,100,27.400
374662,274,1,T0,1,100,27.427
374762,292,1,T0,1,100,27.405
374864,310,1,T0,1,100,27.437
374963,328,1,T0,1,100,27.421
375064,346,1,T0,1,100,27.470
375167,364,1,T0,1,100,27.421
375267,382,1,T0,1,100,27.411
375368,401,1,T0,1,100,27.411
375468,419,1,T0,1,100,27.416
375570,437,1,T0,1,100,27.411
375668,458,2,T0,1,100,27.416
375767,458,2,T0,1,100,27.459
375869,477,1,T0,1,100,27.432
375970,496,1,T0,1,100,27.405
376072,515,1,T0,1,100,27.421
376172,533,1,T0,1,100,27.437
376273,551,1,T0,1,100,27.443
376373,569,1,T0,1,100,27.448
376474,587,1,T0,1,100,27.448
376525,605,2,T0,1,100,27.421
376577,605,2,T0,1,100,27.421
376676,623,1,T0,1,100,27.389
376779,641,1,T0,1,100,27.427
376879,660,1,T0,1,100,27.432
376981,678,1,T0,1,100,27.432
377080,696,1,T0,1,100,27.437
377181,714,1,T0,1,100,27.427
377283,732,1,T0,1,100,27.394
377384,750,1,T0,1,100,27.443
377486,768,1,T0,1,100,27.421
377586,787,1,T0,1,100,27.443
377688,805,1,T0,1,100,27.448
377788,823,1,T0,1,100,27.405
377889,841,1,T0,1,100,27.453
377989,859,1,T0,1,100,27.421
378090,877,1,T0,1,100,27.416
378193,895,1,T0,1,100,27.459
378292,914,1,T0,1,100,27.421
378394,932,1,T0,1,100,27.411
378495,950,1,T0,1,100,27.405
378597,968,1,T0,1,100,27.443
378696,986,1,T0,1,100,27.416
378797,1004,1,T0,1,100,27.421
378899,1022,1,T0,1,100,27.411
379001,1040,1,T0,1,100,27.464
379101,1059,1,T0,1,100,27.427
379203,1077,1,T0,1,100,27.394
379302,1095,1,T0,1,100,27.443
379403,1113,1,T0,1,100,27.416
379454,1131,2,T0,1,100,27.432
379506,1131,2,T0,1,100,27.464
379606,1149,1,T0,1,100,27.427
379708,1167,1,T0,1,100,27.405
379807,1186,1,T0,1,100,27.443
379908,1204,1,T0,1,100,27.459
380011,1222,1,T0,1,100,27.443
380110,1240,1,T0,1,100,27.448
380212,1258,1,T0,1,100,27.416
380312,1276,1,T0,1,100,27.411
380413,1294,1,T0,1,100,27.427
380516,1312,1,T0,1,100,27.443
380617,1331,1,T0,1,100,27.464
380716,1349,1,T0,1,100,27.453
380817,1367,1,T0,1,100,27.443
380920,1385,1,T0,1,100,27.437
381019,1403,1,T0,1,100,27.416
381121,1421,1,T0,1,100,27.453
381222,1439,1,T0,1,100,27.411
381323,1458,1,T0,1,100,27.416
381423,1476,1,T0,1,100,27.421
381526,1494,1,T0,1,100,27.470
381625,1512,1,T0,1,100,27.475
381726,1530,1,T0,1,100,27.448
381828,1548,1,T0,1,100,27.470
381929,1566,1,T0,1,100,27.453
382031,1585,1,T0,1,100,27.470
382130,1603,1,T0,1,100,27.464
382233,1621,1,T0,1,100,27.394
382333,1639,1,T0,1,100,27.453
382435,1657,1,T0,1,100,27.470
382535,1675,1,T0,1,100,27.459
382636,1693,1,T0,1,100,27.443
382687,1711,2,T0,1,100,27.443
382739,1711,2,T0,1,100,27.427
382839,1730,1,T0,1,100,27.464
382940,1748,1,T0,1,100,27.448
383041,1766,1,T0,1,100,27.480
383143,1784,1,T0,1,100,27.453
383242,1802,1,T0,1,100,27.443
383343,1820,1,T0,1,100,27.502
383445,1838,1,T0,1,100,27.480
383548,1857,1,T0,1,100,27.443
383646,1875,1,T0,1,100,27.459
383749,1893,1,T0,1,100,27.443
383849,1911,1,T0,1,100,27.448
383949,1929,1,T0,1,100,27.427
384051,1947,1,T0,1,100,27.459
384151,1965,1,T0,1,100,27.470
384254,1984,1,T0,1,100,27.427
384353,2002,1,T0,1,100,27.464
384454,2020,1,T0,1,100,27.464
384557,2038,1,T0,1,100,27.448
384657,2056,1,T0,1,100,27.443
384758,2074,1,T0,1,100,27.470
384858,2092,1,T0,1,100,27.411
384959,2110,1,T0,1,100,27.437
385062,2129,1,T0,1,100,27.453
385163,2147,1,T0,1,100,27.459
385262,2165,1,T0,1,100,27.486
385363,2183,1,T0,1,100,27.459
385466,2201,1,T0,1,100,27.470
385565,2219,1,T0,1,100,27.496
385667,2237,1,T0,1,100,27.448
385717,2256,2,T0,1,100,27.459
385768,2256,2,T0,1,100,27.464
385869,2274,1,T0,1,100,27.486
385969,2292,1,T0,1,100,27.470
386071,2310,1,T0,1,100,27.421
386173,2328,1,T0,1,100,27.470
386273,2346,1,T0,1,100,27.480
386374,2364,1,T0,1,100,27.459
386474,2382,1,T0,1,100,27.443
386564,2404,2,T0,1,100,27.432
386654,2404,2,T0,1,100,27.475
386753,2424,1,T0,1,100,27.459
386851,2442,1,T0,1,100,27.443
386952,2460,1,T0,1,100,27.491
387055,2478,1,T0,1,100,27.480
387155,2496,1,T0,1,100,27.421
387257,2515,1,T0,1,100,27.432
387356,2533,1,T0,1,100,27.464
387457,2551,1,T0,1,100,27.470
387560,2569,1,T0,1,100,27.470
387661,2587,1,T0,1,100,27.502
387760,2605,1,T0,1,100,27.475
387861,2623,1,T0,1,100,27.470
387964,2641,1,T0,1,100,27.496
388063,2660,1,T0,1,100,27.512
388166,2678,1,T0,1,100,27.491
388266,2696,1,T0,1,100,27.459
388367,2714,1,T0,1,100,27.507
388468,2732,1,T0,1,100,27.475
388570,2750,1,T0,1,100,27.475
388670,2768,1,T0,1,100,27.480
388770,2787,1,T0,1,100,27.491
388872,2805,1,T0,1,100,27.523
388972,2823,1,T0,1,100,27.496
389076,2841,1,T0,1,100,27.496
389174,2859,1,T0,1,100,27.507
389275,2877,1,T0,1,100,27.507
389378,2895,1,T0,1,100,27.464
389479,2914,1,T0,1,100,27.470
389578,2932,1,T0,1,100,27.464
389679,2950,1,T0,1,100,27.486
389730,2968,2,T0,1,100,27.496
389782,2968,2,T0,1,100,27.480
389882,2986,1,T0,1,100,27.480
389983,3004,1,T0,1,100,27.475
390083,3022,1,T0,1,100,27.475
390184,3040,1,T0,1,100,27.459
390287,3059,1,T0,1,100,27.529
390386,3077,1,T0,1,100,27.448
390488,3095,1,T0,1,100,27.486
390589,3113,1,T0,1,100,27.491
390691,3131,1,T0,1,100,27.470
390790,3149,1,T0,1,100,27.523
390891,3167,1,T0,1,100,27.502
390994,3186,1,T0,1,100,27.507
391095,3204,1,T0,1,100,27.496
391194,3222,1,T0,1,100,27.491
391296,3240,1,T0,1,100,27.459
391398,3258,1,T0,1,100,27.491
391497,3276,1,T0,1,100,27.475
391599,3294,1,T0,1,100,27.453
391700,3312,1,T0,1,100,27.475
391800,3331,1,T0,1,100,27.470
391902,3349,1,T0,1,100,27.502
392002,3367,1,T0,1,100,27.496
392105,3385,1,T0,1,100,27.486
392205,3403,1,T0,1,100,27.507
392307,3421,1,T0,1,100,27.496
392406,3439,1,T0,1,100,27.496
392507,3458,1,T0,1,100,27.507
392610,3476,1,T0,1,100,27.491
392711,3494,1,T0,1,100,27.518
392810,3512,1,T0,1,100,27.470
392860,3530,2,T0,1,100,27.486
392911,3530,2,T0,1,100,27.470
393013,3548,1,T0,1,100,27.507
393113,3566,1,T0,1,100,27.507
393216,3585,1,T0,1,100,27.480
393316,3603,1,T0,1,100,27.453
393417,3621,1,T0,1,100,27.502
393517,3639,1,T0,1,100,27.502
393620,3657,1,T0,1,100,27.459
393722,3675,1,T0,1,100,27.534
393820,3693,1,T0,1,100,27.486
393922,3711,1,T0,1,100,27.491
394023,3730,1,T0,1,100,27.502
394125,3748,1,T0,1,100,27.512
394225,3766,1,T0,1,100,27.523
394326,3784,1,T0,1,100,27.529
394427,3802,1,T0,1,100,27.512
394529,3820,1,T0,1,100,27.491
394628,3838,1,T0,1,100,27.491
394729,3857,1,T0,1,100,27.512
394832,3875,1,T0,1,100,27.486
394931,3893,1,T0,1,100,27.502
395033,3911,1,T0,1,100,27.491
395133,3929,1,T0,1,100,27.496
395235,3947,1,T0,1,100,27.475
395337,3965,1,T0,1,100,27.453
395436,3984,1,T0,1,100,27.491
395539,4002,1,T0,1,100,27.507
395640,4020,1,T0,1,100,27.486
395740,4038,1,T0,1,100,27.523
395840,4056,1,T0,1,100,27.529
395890,4074,2,T0,1,100,27.507
395941,4074,2,T0,1,100,27.507
396044,4092,1,T0,1,100,27.512
396144,4110,1,T0,1,100,27.486
396244,4129,1,T0,1,100,27.518
396345,4147,1,T0,1,100,27.502
396447,4165,1,T0,1,100,27.502
396547,4183,1,T0,1,100,27.523
396650,4201,1,T0,1,100,27.486
396749,4219,1,T0,1,100,27.518
396852,4237,1,T0,1,100,27.523
396951,4256,1,T0,1,100,27.491
397052,4274,1,T0,1,100,27.545
397155,4292,1,T0,1,100,27.496
397255,4310,1,T0,1,100,27.518
397356,4328,1,T0,1,100,27.534
397449,4349,2,T0,1,100,27.545
397542,4349,2,T0,1,100,27.496
397640,4368,1,T0,1,100,27.529
397742,4388,1,T0,1,100,27.464
397841,4406,1,T0,1,100,27.545
397943,4424,1,T0,1,100,27.507
398044,4442,1,T0,1,100,27.523
398145,4460,1,T0,1,100,27.512
398245,4478,1,T0,1,100,27.486
398348,4496,1,T0,1,100,27.453
398448,4515,1,T0,1,100,27.518
398549,4533,1,T0,1,100,27.529
398649,4551,1,T0,1,100,27.491
398750,4569,1,T0,1,100,27.502
398853,4587,1,T0,1,100,27.518
398953,4605,1,T0,1,100,27.550
399054,4623,1,T0,1,100,27.480
399155,4641,1,T0,1,100,27.486
399256,4660,1,T0,1,100,27.529
399358,4678,1,T0,1,100,27.507
399458,4696,1,T0,1,100,27.523
399559,4714,1,T0,1,100,27.534
399646,4732,2,T0,1,100,27.529
399734,4732,2,T0,1,100,27.529
399831,4750,1,T0,1,100,27.545
399933,4769,1,T0,1,100,27.502
400032,4787,1,T0,1,100,27.529
400133,4805,1,T0,1,100,27.518
400235,4823,1,T0,1,100,27.507
400335,4841,1,T0,1,100,27.545
400386,4859,2,T0,1,100,27.518
400438,4859,2,T0,1,100,27.496
400539,4877,1,T0,1,100,27.561
400639,4895,1,T0,1,100,27.529
400740,4914,1,T0,1,100,27.529
400843,4932,1,T0,1,100,27.502
400943,4950,1,T0,1,100,27.529
401045,4968,1,T0,1,100,27.523
401144,4986,1,T0,1,100,27.523
401245,5004,1,T0,1,100,27.529
401349,5022,1,T0,1,100,27.518
401448,5041,1,T0,1,100,27.512
401549,5059,1,T0,1,100,27.539
401649,5077,1,T0,1,100,27.491
401750,5095,1,T0,1,100,27.512
401853,5113,1,T0,1,100,27.539
401952,5131,1,T0,1,100,27.545
402055,5149,1,T0,1,100,27.550
402156,5168,1,T0,1,100,27.507
402256,5186,1,T0,1,100,27.561
402356,5204,1,T0,1,100,27.512
402459,5222,1,T0,1,100,27.539
402559,5240,1,T0,1,100,27.539
402660,5258,1,T0,1,100,27.496
402760,5276,1,T0,1,100,27.512
402863,5294,1,T0,1,100,27.539
402963,5313,1,T0,1,100,27.550
403063,5331,1,T0,1,100,27.529
403166,5349,1,T0,1,100,27.496
403266,5367,1,T0,1,100,27.518
403368,5385,1,T0,1,100,27.534
403467,5403,1,T0,1,100,27.571
403568,5421,1,T0,1,100,27.545
403619,5440,2,T0,1,100,27.507
403671,5440,2,T0,1,100,27.550
403772,5458,1,T0,1,100,27.502
403872,5476,1,T0,1,100,27.512
403973,5494,1,T0,1,100,27.529
404074,5512,1,T0,1,100,27.534
404174,5530,1,T0,1,100,27.582
404277,5548,1,T0,1,100,27.566
404376,5566,1,T0,1,100,27.534
404477,5585,1,T0,1,100,27.534
404579,5603,1,T0,1,100,27.534
404680,5621,1,T0,1,100,27.539
404782,5639,1,T0,1,100,27.529
404882,5657,1,T0,1,100,27.539
404984,5675,1,T0,1,100,27.545
405083,5693,1,T0,1,100,27.545
405185,5712,1,T0,1,100,27.502
405286,5730,1,T0,1,100,27.550
405388,5748,1,T0,1,100,27.507
405487,5766,1,T0,1,100,27.512
405588,5784,1,T0,1,100,27.561
405690,5802,1,T0,1,100,27.561
405790,5820,1,T0,1,100,27.502
405892,5839,1,T0,1,100,27.534
405993,5857,1,T0,1,100,27.550
406094,5875,1,T0,1,100,27.582
406196,5893,1,T0,1,100,27.555
406297,5911,1,T0,1,100,27.566
406397,5929,1,T0,1,100,27.555
406498,5947,1,T0,1,100,27.555
406599,5965,1,T0,1,100,27.550
406699,5984,1,T0,1,100,27.529
406750,6002,2,T0,1,100,27.529
406801,6002,2,T0,1,100,27.571
406904,6020,1,T0,1,100,27.534
407004,6038,1,T0,1,100,27.518
407105,6056,1,T0,1,100,27.534
407206,6074,1,T0,1,100,27.502
407306,6092,1,T0,1,100,27.529
407408,6111,1,T0,1,100,27.545
407511,6129,1,T0,1,100,27.539
407610,6147,1,T0,1,100,27.534
407711,6165,1,T0,1,100,27.523
407811,6183,1,T0,1,100,27.529
407913,6201,1,T0,1,100,27.561
408015,6219,1,T0,1,100,27.523
408114,6237,1,T0,1,100,27.512
408217,6256,1,T0,1,100,27.555
408317,6274,1,T0,1,100,27.502
408401,6295,2,T0,1,100,27.502
408485,6295,2,T0,1,100,27.529
408583,6315,1,T0,1,100,27.555
408684,6333,1,T0,1,100,27.545
408785,6351,1,T0,1,100,27.529
408887,6370,1,T0,1,100,27.555
408986,6388,1,T0,1,100,27.523
409087,6406,1,T0,1,100,27.523
409190,6424,1,T0,1,100,27.523
409289,6442,1,T0,1,100,27.539
409391,6460,1,T0,1,100,27.534
409493,6478,1,T0,1,100,27.523
409592,6496,1,T0,1,100,27.555
409693,6515,1,T0,1,100,27.502
409796,6533,1,T0,1,100,27.545
409895,6551,1,T0,1,100,27.555
409997,6569,1,T0,1,100,27.523
410097,6587,1,T0,1,100,27.486
410199,6605,1,T0,1,100,27.502
410302,6623,1,T0,1,100,27.512
410400,6642,1,T0,1,100,27.577
410503,6660,1,T0,1,100,27.555
410603,6678,1,T0,1,100,27.502
410705,6696,1,T0,1,100,27.539
410804,6714,1,T0,1,100,27.539
410905,6732,1,T0,1,100,27.518
410956,6750,2,T0,1,100,27.534
411008,6750,2,T0,1,100,27.539
411108,6769,1,T0,1,100,27.523
411209,6787,1,T0,1,100,27.550
411310,6805,1,T0,1,100,27.518
411412,6823,1,T0,1,100,27.555
411512,6841,1,T0,1,100,27.577
411613,6859,1,T0,1,100,27.486
411713,6877,1,T0,1,100,27.539
411816,6895,1,T0,1,100,27.534
411918,6914,1,T0,1,100,27.539
412018,6932,1,T0,1,100,27.534
412120,6950,1,T0,1,100,27.566
412219,6968,1,T0,1,100,27.561
412321,6986,1,T0,1,100,27.491
412421,7004,1,T0,1,100,27.539
412523,7022,1,T0,1,100,27.561
412625,7041,1,T0,1,100,27.571
412725,7059,1,T0,1,100,27.502
412826,7077,1,T0,1,100,27.534
412927,7095,1,T0,1,100,27.512
413029,7113,1,T0,1,100,27.555
413129,7131,1,T0,1,100,27.534
413231,7149,1,T0,1,100,27.566
413330,7167,1,T0,1,100,27.539
413432,7186,1,T0,1,100,27.534
413533,7204,1,T0,1,100,27.545
413633,7222,1,T0,1,100,27.518
413736,7240,1,T0,1,100,27.512
413836,7258,1,T0,1,100,27.545
413937,7276,1,T0,1,100,27.545
414037,7294,1,T0,1,100,27.523
414088,7313,2,T0,1,100,27.523
414139,7313,2,T0,1,100,27.550
414239,7331,1,T0,1,100,27.529
414342,7349,1,T0,1,100,27.561
414442,7367,1,T0,1,100,27.588
414543,7385,1,T0,1,100,27.534
414643,7403,1,T0,1,100,27.529
414744,7421,1,T0,1,100,27.550
414847,7440,1,T0,1,100,27.518
414947,7458,1,T0,1,100,27.529
415048,7476,1,T0,1,100,27.539
415148,7494,1,T0,1,100,27.571
415250,7512,1,T0,1,100,27.512
415352,7530,1,T0,1,100,27.571
415452,7548,1,T0,1,100,27.512
415553,7566,1,T0,1,100,27.539
415653,7585,1,T0,1,100,27.529
415756,7603,1,T0,1,100,27.555
415855,7621,1,T0,1,100,27.534
415958,7639,1,T0,1,100,27.539
416058,7657,1,T0,1,100,27.534
416160,7675,1,T0,1,100,27.561
416259,7693,1,T0,1,100,27.571
416360,7712,1,T0,1,100,27.550
416463,7730,1,T0,1,100,27.539
416563,7748,1,T0,1,100,27.571
416665,7766,1,T0,1,100,27.539
416765,7784,1,T0,1,100,27.534
416867,7802,1,T0,1,100,27.534
416966,7820,1,T0,1,100,27.491
417067,7838,1,T0,1,100,27.539
417118,7857,2,T0,1,100,27.534
417170,7857,2,T0,1,100,27.518
417270,7875,1,T0,1,100,27.512
417372,7893,1,T0,1,100,27.539
417471,7911,1,T0,1,100,27.496
417572,7929,1,T0,1,100,27.529
417675,7947,1,T0,1,100,27.566
417776,7965,1,T0,1,100,27.555
417875,7984,1,T0,1,100,27.529
417976,8002,1,T0,1,100,27.550
418078,8020,1,T0,1,100,27.555
418179,8038,1,T0,1,100,27.523
418281,8056,1,T0,1,100,27.566
418381,8074,1,T0,1,100,27.529
418482,8092,1,T0,1,100,27.512
418582,8111,1,T0,1,100,27.555
418683,8129,1,T0,1,100,27.502
418786,8147,1,T0,1,100,27.529
418885,8165,1,T0,1,100,27.512
418988,8183,1,T0,1,100,27.555
419087,8201,1,T0,1,100,27.550
419189,8219,1,T0,1,100,27.518
419282,8240,2,T0,1,100,27.550
419375,8240,2,T0,1,100,27.539
419476,8260,1,T0,1,100,27.561
419579,8279,1,T0,1,100,27.529
419680,8297,1,T0,1,100,27.534
419779,8315,1,T0,1,100,27.550
419880,8333,1,T0,1,100,27.529
419983,8351,1,T0,1,100,27.534
420083,8370,1,T0,1,100,27.561
420185,8388,1,T0,1,100,27.571
420284,8406,1,T0,1,100,27.512
420385,8424,1,T0,1,100,27.529
420488,8442,1,T0,1,100,27.550
420587,8460,1,T0,1,100,27.512
420689,8478,1,T0,1,100,27.523
420739,8496,2,T0,1,100,27.523
420790,8496,2,T0,1,100,27.523
420891,8515,1,T0,1,100,27.534
420991,8533,1,T0,1,100,27.534
421093,8551,1,T0,1,100,27.566
421195,8569,1,T0,1,100,27.529
421295,8587,1,T0,1,100,27.566
421395,8605,1,T0,1,100,27.561
421497,8623,1,T0,1,100,27.534
421599,8642,1,T0,1,100,27.577
421699,8660,1,T0,1,100,27.555
421800,8678,1,T0,1,100,27.523
421900,8696,1,T0,1,100,27.550
422003,8714,1,T0,1,100,27.539
422102,8732,1,T0,1,100,27.555
422203,8750,1,T0,1,100,27.566
422306,8769,1,T0,1,100,27.566
422406,8787,1,T0,1,100,27.550
422508,8805,1,T0,1,100,27.539
422607,8823,1,T0,1,100,27.555
422709,8841,1,T0,1,100,27.512
422811,8859,1,T0,1,100,27.561
422910,8877,1,T0,1,100,27.550
423012,8895,1,T0,1,100,27.529
423112,8914,1,T0,1,100,27.523
423214,8932,1,T0,1,100,27.539
423315,8950,1,T0,1,100,27.518
423416,8968,1,T0,1,100,27.571
423517,8986,1,T0,1,100,27.539
423618,9004,1,T0,1,100,27.534
423718,9022,1,T0,1,100,27.539
423819,9041,1,T0,1,100,27.545
423870,9059,2,T0,1,100,27.491
423922,9059,2,T0,1,100,27.539
424022,9077,1,T0,1,100,27.545
424123,9095,1,T0,1,100,27.561
424224,9113,1,T0,1,100,27.555
424325,9131,1,T0,1,100,27.555
424425,9149,1,T0,1,100,27.561
424526,9167,1,T0,1,100,27.555
424629,9186,1,T0,1,100,27.566
424729,9204,1,T0,1,100,27.539
424830,9222,1,T0,1,100,27.491
424930,9240,1,T0,1,100,27.555
425033,9258,1,T0,1,100,27.529
425133,9276,1,T0,1,100,27.555
425234,9294,1,T0,1,100,27.529
425334,9313,1,T0,1,100,27.529
425436,9331,1,T0,1,100,27.555
425538,9349,1,T0,1,100,27.550
425637,9367,1,T0,1,100,27.566
425740,9385,1,T0,1,100,27.545
425827,9403,2,T0,1,100,27.529
425915,9403,2,T0,1,100,27.571
426010,9422,1,T0,1,100,27.555
426112,9440,1,T0,1,100,27.523
426211,9458,1,T0,1,100,27.555
426312,9476,1,T0,1,100,27.534
426415,9494,1,T0,1,100,27.550
426515,9512,1,T0,1,100,27.545
426616,9530,1,T0,1,100,27.550
426716,9548,1,T0,1,100,27.512
426817,9567,1,T0,1,100,27.518
426920,9585,1,T0,1,100,27.534
427020,9603,1,T0,1,100,27.550
427121,9621,1,T0,1,100,27.529
427221,9639,1,T0,1,100,27.571
427323,9657,1,T0,1,100,27.571
427425,9675,1,T0,1,100,27.545
427526,9694,1,T0,1,100,27.539
427626,9712,1,T0,1,100,27.512
427728,9730,1,T0,1,100,27.534
427827,9748,1,T0,1,100,27.555
427928,9766,1,T0,1,100,27.496
427979,9784,2,T0,1,100,27.529
428031,9784,2,T0,1,100,27.539
428130,9802,1,T0,1,100,27.518
428233,9820,1,T0,1,100,27.539
428333,9839,1,T0,1,100,27.550
428435,9857,1,T0,1,100,27.534
428535,9875,1,T0,1,100,27.529
428635,9893,1,T0,1,100,27.523
428737,9911,1,T0,1,100,27.566
428838,9929,1,T0,1,100,27.545
428941,9947,1,T0,1,100,27.550
429039,9966,1,T0,1,100,27.577
429142,9984,1,T0,1,100,27.566
429242,10002,1,T0,1,100,27.539
429343,10020,1,T0,1,100,27.539
429443,10038,1,T0,1,100,27.577
429544,10056,1,T0,1,100,27.539
429647,10074,1,T0,1,100,27.566
429747,10092,1,T0,1,100,27.566
429848,10111,1,T0,1,100,27.550
429949,10129,1,T0,1,100,27.577
430051,10147,1,T0,1,100,27.518
430150,10165,1,T0,1,100,27.534
430235,10186,2,T0,1,100,27.539
430321,10186,2,T0,1,100,27.561
430417,10206,1,T0,1,100,27.550
430520,10225,1,T0,1,100,27.550
430620,10243,1,T0,1,100,27.529
430722,10261,1,T0,1,100,27.539
430822,10279,1,T0,1,100,27.550
430922,10297,1,T0,1,100,27.577
431025,10315,1,T0,1,100,27.577
431125,10333,1,T0,1,100,27.582
431226,10351,1,T0,1,100,27.534
431326,10370,1,T0,1,100,27.550
431427,10388,1,T0,1,100,27.566
431530,10406,1,T0,1,100,27.512
431631,10424,1,T0,1,100,27.577
431731,10442,1,T0,1,100,27.529
431831,10460,1,T0,1,100,27.539
431934,10478,1,T0,1,100,27.566
432033,10497,1,T0,1,100,27.571
432135,10515,1,T0,1,100,27.534
432235,10533,1,T0,1,100,27.529
432285,10551,2,T0,1,100,27.539
432336,10551,2,T0,1,100,27.561
432438,10569,1,T0,1,100,27.571
432539,10587,1,T0,1,100,27.539
432641,10605,1,T0,1,100,27.550
432740,10624,1,T0,1,100,27.523
432842,10642,1,T0,1,100,27.523
432944,10660,1,T0,1,100,27.545
433044,10678,1,T0,1,100,27.539
433146,10696,1,T0,1,100,27.523
433246,10714,1,T0,1,100,27.539
433346,10732,1,T0,1,100,27.582
433449,10750,1,T0,1,100,27.545
433548,10769,1,T0,1,100,27.550
433649,10787,1,T0,1,100,27.588
433752,10805,1,T0,1,100,27.545
433852,10823,1,T0,1,100,27.561
433954,10841,1,T0,1,100,27.561
434053,10859,1,T0,1,100,27.566
434156,10877,1,T0,1,100,27.571
434257,10896,1,T0,1,100,27.577
434356,10914,1,T0,1,100,27.555
434458,10932,1,T0,1,100,27.561
434558,10950,1,T0,1,100,27.550
434660,10968,1,T0,1,100,27.523
434761,10986,1,T0,1,100,27.566
434862,11004,1,T0,1,100,27.523
434963,11022,1,T0,1,100,27.566
435064,11041,1,T0,1,100,27.555
435164,11059,1,T0,1,100,27.534
435215,11077,2,T0,1,100,27.523
435266,11077,2,T0,1,100,27.529
435368,11095,1,T0,1,100,27.545
435468,11113,1,T0,1,100,27.555
435570,11131,1,T0,1,100,27.550
435670,11149,1,T0,1,100,27.577
435771,11168,1,T0,1,100,27.571
435871,11186,1,T0,1,100,27.571
435972,11204,1,T0,1,100,27.588
436075,11222,1,T0,1,100,27.529
436175,11240,1,T0,1,100,27.555
436276,11258,1,T0,1,100,27.566
436377,11276,1,T0,1,100,27.529
436479,11295,1,T0,1,100,27.571
436579,11313,1,T0,1,100,27.571
436680,11331,1,T0,1,100,27.571
436780,11349,1,T0,1,100,27.555
436882,11367,1,T0,1,100,27.545
436983,11385,1,T0,1,100,27.571
437083,11403,1,T0,1,100,27.529
437186,11421,1,T0,1,100,27.539
437286,11440,1,T0,1,100,27.555
437387,11458,1,T0,1,100,27.582
437487,11476,1,T0,1,100,27.561
437588,11494,1,T0,1,100,27.545
437690,11512,1,T0,1,100,27.555
437793,11530,1,T0,1,100,27.577
437891,11548,1,T0,1,100,27.566
437994,11567,1,T0,1,100,27.582
438095,11585,1,T0,1,100,27.539
438194,11603,1,T0,1,100,27.545
438296,11621,1,T0,1,100,27.571
438396,11639,1,T0,1,100,27.534
438447,11657,2,T0,1,100,27.582
438499,11657,2,T0,1,100,27.604
438598,11675,1,T0,1,100,27.555
438699,11693,1,T0,1,100,27.571
438802,11712,1,T0,1,100,27.566
438902,11730,1,T0,1,100,27.604
439004,11748,1,T0,1,100,27.555
439103,11766,1,T0,1,100,27.571
439204,11784,1,T0,1,100,27.550
439306,11802,1,T0,1,100,27.550
439407,11820,1,T0,1,100,27.588
439509,11839,1,T0,1,100,27.539
439610,11857,1,T0,1,100,27.582
439709,11875,1,T0,1,100,27.529
439810,11893,1,T0,1,100,27.566
439914,11911,1,T0,1,100,27.588
440013,11929,1,T0,1,100,27.571
440115,11947,1,T0,1,100,27.598
440214,11966,1,T0,1,100,27.561
440315,11984,1,T0,1,100,27.566
440418,12002,1,T0,1,100,27.571
440518,12020,1,T0,1,100,27.588
440619,12038,1,T0,1,100,27.518
440719,12056,1,T0,1,100,27.561
440820,12074,1,T0,1,100,27.614
440923,12092,1,T0,1,100,27.550
441023,12111,1,T0,1,100,27.577
441117,12132,2,T0,1,100,27.534
441211,12132,2,T0,1,100,27.555
441309,12151,1,T0,1,100,27.588
441411,12170,1,T0,1,100,27.529
441512,12188,1,T0,1,100,27.545
441613,12206,1,T0,1,100,27.609
441715,12225,1,T0,1,100,27.539
441816,12243,1,T0,1,100,27.534
441915,12261,1,T0,1,100,27.550
442016,12279,1,T0,1,100,27.577
442067,12297,2,T0,1,100,27.561
442119,12297,2,T0,1,100,27.582
442219,12315,1,T0,1,100,27.534
442320,12333,1,T0,1,100,27.593
442421,12351,1,T0,1,100,27.588
442522,12370,1,T0,1,100,27.529
442622,12388,1,T0,1,100,27.588
442723,12406,1,T0,1,100,27.550
442826,12424,1,T0,1,100,27.566
442925,12442,1,T0,1,100,27.577
443028,12460,1,T0,1,100,27.561
443128,12478,1,T0,1,100,27.588
443230,12497,1,T0,1,100,27.571
443331,12515,1,T0,1,100,27.545
443431,12533,1,T0,1,100,27.555
443531,12551,1,T0,1,100,27.582
443633,12569,1,T0,1,100,27.593
443735,12587,1,T0,1,100,27.555
443835,12605,1,T0,1,100,27.545
443937,12624,1,T0,1,100,27.555
444036,12642,1,T0,1,100,27.571
444138,12660,1,T0,1,100,27.571
444238,12678,1,T0,1,100,27.588
444339,12696,1,T0,1,100,27.550
444441,12714,1,T0,1,100,27.571
444543,12732,1,T0,1,100,27.571
444644,12750,1,T0,1,100,27.593
444745,12769,1,T0,1,100,27.593
444846,12787,1,T0,1,100,27.577
444946,12805,1,T0,1,100,27.561
444997,12823,2,T0,1,100,27.577
445048,12823,2,T0,1,100,27.566
445150,12841,1,T0,1,100,27.577
445251,12859,1,T0,1,100,27.577
445351,12877,1,T0,1,100,27.566
445451,12896,1,T0,1,100,27.614
445553,12914,1,T0,1,100,27.577
445653,12932,1,T0,1,100,27.555
445755,12950,1,T0,1,100,27.566
445855,12968,1,T0,1,100,27.550
445956,12986,1,T0,1,100,27.571
446059,13004,1,T0,1,100,27.550
446160,13022,1,T0,1,100,27.577
446261,13041,1,T0,1,100,27.582
446361,13059,1,T0,1,100,27.545
446462,13077,1,T0,1,100,27.582
446562,13095,1,T0,1,100,27.582
446663,13113,1,T0,1,100,27.630
446766,13131,1,T0,1,100,27.550
446867,13149,1,T0,1,100,27.582
446967,13168,1,T0,1,100,27.593
447068,13186,1,T0,1,100,27.582
447168,13204,1,T0,1,100,27.588
447269,13222,1,T0,1,100,27.598
447372,13240,1,T0,1,100,27.539
447471,13258,1,T0,1,100,27.598
447575,13276,1,T0,1,100,27.604
447674,13295,1,T0,1,100,27.571
447775,13313,1,T0,1,100,27.577
447877,13331,1,T0,1,100,27.545
447976,13349,1,T0,1,100,27.561
448078,13367,1,T0,1,100,27.577
448178,13385,1,T0,1,100,27.566
448279,13403,1,T0,1,100,27.539
448330,13421,2,T0,1,100,27.566
448382,13421,2,T0,1,100,27.577
448482,13440,1,T0,1,100,27.571
448582,13458,1,T0,1,100,27.566
448685,13476,1,T0,1,100,27.550
448784,13494,1,T0,1,100,27.577
448885,13512,1,T0,1,100,27.571
448987,13530,1,T0,1,100,27.545
449088,13548,1,T0,1,100,27.577
449191,13567,1,T0,1,100,27.561
449290,13585,1,T0,1,100,27.561
449392,13603,1,T0,1,100,27.566
449491,13621,1,T0,1,100,27.529
449592,13639,1,T0,1,100,27.555
449695,13657,1,T0,1,100,27.529
449795,13675,1,T0,1,100,27.550
449897,13694,1,T0,1,100,27.561
449996,13712,1,T0,1,100,27.523
450098,13730,1,T0,1,100,27.577
450199,13748,1,T0,1,100,27.550
450300,13766,1,T0,1,100,27.566
450400,13784,1,T0,1,100,27.566
450501,13802,1,T0,1,100,27.523
450604,13820,1,T0,1,100,27.555
450704,13839,1,T0,1,100,27.550
450806,13857,1,T0,1,100,27.566
450905,13875,1,T0,1,100,27.545
451007,13893,1,T0,1,100,27.582
451107,13911,1,T0,1,100,27.566
451208,13929,1,T0,1,100,27.555
451259,13947,2,T0,1,100,27.566
451311,13947,2,T0,1,100,27.571
451412,13966,1,T0,1,100,27.604
451511,13984,1,T0,1,100,27.555
451612,14002,1,T0,1,100,27.555
451715,14020,1,T0,1,100,27.529
451873,14038,1,T0,1,100,27.609
451978,14056,1,T0,1,100,27.550
452062,14077,2,T0,1,100,27.577
452147,14077,2,T0,1,100,27.566
452244,14098,1,T0,1,100,27.625
452344,14116,1,T0,1,100,27.561
452446,14134,1,T0,1,100,27.588
452547,14152,1,T0,1,100,27.566
452648,14170,1,T0,1,100,27.571
452748,14188,1,T0,1,100,27.550
452849,14206,1,T0,1,100,27.593
452952,14225,1,T0,1,100,27.588
453052,14243,1,T0,1,100,27.593
453154,14261,1,T0,1,100,27.598
453254,14279,1,T0,1,100,27.555
453355,14297,1,T0,1,100,27.571
453455,14315,1,T0,1,100,27.561
453556,14333,1,T0,1,100,27.545
453607,14352,2,T0,1,100,27.555
453659,14352,2,T0,1,100,27.561
453760,14370,1,T0,1,100,27.598
453859,14388,1,T0,1,100,27.555
453960,14406,1,T0,1,100,27.545
454063,14424,1,T0,1,100,27.625
454162,14442,1,T0,1,100,27.577
454265,14460,1,T0,1,100,27.593
454364,14479,1,T0,1,100,27.566
454467,14497,1,T0,1,100,27.539
454569,14515,1,T0,1,100,27.545
454667,14533,1,T0,1,100,27.571
454770,14551,1,T0,1,100,27.550
454870,14569,1,T0,1,100,27.566
454972,14587,1,T0,1,100,27.571
455071,14605,1,T0,1,100,27.561
455172,14624,1,T0,1,100,27.577
455274,14642,1,T0,1,100,27.545
455374,14660,1,T0,1,100,27.571
455477,14678,1,T0,1,100,27.582
455577,14696,1,T0,1,100,27.529
455679,14714,1,T0,1,100,27.593
455779,14732,1,T0,1,100,27.539
455880,14751,1,T0,1,100,27.561
455980,14769,1,T0,1,100,27.571
456084,14787,1,T0,1,100,27.550
456183,14805,1,T0,1,100,27.555
456284,14823,1,T0,1,100,27.545
456386,14841,1,T0,1,100,27.561
456485,14859,1,T0,1,100,27.582
456587,14877,1,T0,1,100,27.571
456687,14896,1,T0,1,100,27.588
456738,14914,2,T0,1,100,27.555
456789,14914,2,T0,1,100,27.566
456891,14932,1,T0,1,100,27.555
456991,14950,1,T0,1,100,27.582
457092,14968,1,T0,1,100,27.620
457194,14986,1,T0,1,100,27.577
457294,15004,1,T0,1,100,27.571
457395,15023,1,T0,1,100,27.582
457496,15041,1,T0,1,100,27.604
457596,15059,1,T0,1,100,27.571
457698,15077,1,T0,1,100,27.593
457800,15095,1,T0,1,100,27.593
457899,15113,1,T0,1,100,27.550
458002,15131,1,T0,1,100,27.582
458102,15150,1,T0,1,100,27.566
458203,15168,1,T0,1,100,27.593
458303,15186,1,T0,1,100,27.588
458404,15204,1,T0,1,100,27.582
458506,15222,1,T0,1,100,27.582
458608,15240,1,T0,1,100,27.566
458708,15258,1,T0,1,100,27.604
458809,15276,1,T0,1,100,27.593
458909,15295,1,T0,1,100,27.598
459010,15313,1,T0,1,100,27.588
459113,15331,1,T0,1,100,27.566
459212,15349,1,T0,1,100,27.604
459316,15367,1,T0,1,100,27.566
459414,15385,1,T0,1,100,27.598
459516,15403,1,T0,1,100,27.550
459618,15422,1,T0,1,100,27.598
459718,15440,1,T0,1,100,27.571
459820,15458,1,T0,1,100,27.588
459919,15476,1,T0,1,100,27.582
460020,15494,1,T0,1,100,27.609
460071,15512,2,T0,1,100,27.571
460123,15512,2,T0,1,100,27.582
460222,15530,1,T0,1,100,27.598
460325,15548,1,T0,1,100,27.588
460426,15567,1,T0,1,100,27.598
460527,15585,1,T0,1,100,27.604
460626,15603,1,T0,1,100,27.604
460728,15621,1,T0,1,100,27.561
460828,15639,1,T0,1,100,27.561
460931,15657,1,T0,1,100,27.609
461031,15675,1,T0,1,100,27.577
461133,15694,1,T0,1,100,27.577
461233,15712,1,T0,1,100,27.550
461333,15730,1,T0,1,100,27.593
461436,15748,1,T0,1,100,27.582
461536,15766,1,T0,1,100,27.614
461638,15784,1,T0,1,100,27.550
461737,15802,1,T0,1,100,27.566
461838,15821,1,T0,1,100,27.598
461941,15839,1,T0,1,100,27.582
462042,15857,1,T0,1,100,27.588
462142,15875,1,T0,1,100,27.582
462243,15893,1,T0,1,100,27.588
462345,15911,1,T0,1,100,27.539
462447,15929,1,T0,1,100,27.582
462547,15947,1,T0,1,100,27.555
462648,15966,1,T0,1,100,27.588
462749,15984,1,T0,1,100,27.582
462849,16002,1,T0,1,100,27.582
462941,16023,2,T0,1,100,27.609
463034,16023,2,T0,1,100,27.566
463132,16043,1,T0,1,100,27.588
463232,16061,1,T0,1,100,27.566
463334,16080,1,T0,1,100,27.582
463434,16098,1,T0,1,100,27.609
463534,16116,1,T0,1,100,27.604
463636,16134,1,T0,1,100,27.566
463686,16152,2,T0,1,100,27.614
463737,16152,2,T0,1,100,27.582
463839,16170,1,T0,1,100,27.614
463938,16188,1,T0,1,100,27.577
464039,16206,1,T0,1,100,27.566
464142,16225,1,T0,1,100,27.582
464243,16243,1,T0,1,100,27.561
464342,16261,1,T0,1,100,27.620
464443,16279,1,T0,1,100,27.620
464544,16297,1,T0,1,100,27.593
464647,16315,1,T0,1,100,27.561
464748,16333,1,T0,1,100,27.609
464847,16352,1,T0,1,100,27.593
464949,16370,1,T0,1,100,27.577
465051,16388,1,T0,1,100,27.577
465150,16406,1,T0,1,100,27.588
465253,16424,1,T0,1,100,27.614
465353,16442,1,T0,1,100,27.609
465454,16460,1,T0,1,100,27.593
465555,16479,1,T0,1,100,27.636
465657,16497,1,T0,1,100,27.604
465758,16515,1,T0,1,100,27.593
465857,16533,1,T0,1,100,27.593
465959,16551,1,T0,1,100,27.593
466060,16569,1,T0,1,100,27.593
466163,16587,1,T0,1,100,27.609
466262,16605,1,T0,1,100,27.598
466364,16624,1,T0,1,100,27.555
466464,16642,1,T0,1,100,27.598
466566,16660,1,T0,1,100,27.604
466665,16678,1,T0,1,100,27.620
466766,16696,1,T0,1,100,27.571
466817,16714,2,T0,1,100,27.593
466869,16714,2,T0,1,100,27.609
466969,16732,1,T0,1,100,27.604
467070,16751,1,T0,1,100,27.604
467170,16769,1,T0,1,100,27.555
467273,16787,1,T0,1,100,27.630
467374,16805,1,T0,1,100,27.588
467473,16823,1,T0,1,100,27.620
467575,16841,1,T0,1,100,27.636
467678,16859,1,T0,1,100,27.625
467777,16877,1,T0,1,100,27.593
467877,16896,1,T0,1,100,27.604
467980,16914,1,T0,1,100,27.609
468080,16932,1,T0,1,100,27.593
468182,16950,1,T0,1,100,27.577
468281,16968,1,T0,1,100,27.620
468382,16986,1,T0,1,100,27.566
468485,17004,1,T0,1,100,27.598
468585,17023,1,T0,1,100,27.609
468687,17041,1,T0,1,100,27.614
468786,17059,1,T0,1,100,27.620
468887,17077,1,T0,1,100,27.625
468990,17095,1,T0,1,100,27.609
469090,17113,1,T0,1,100,27.630
469191,17131,1,T0,1,100,27.625
469292,17150,1,T0,1,100,27.609
469393,17168,1,T0,1,100,27.630
469495,17186,1,T0,1,100,27.630
469596,17204,1,T0,1,100,27.588
469696,17222,1,T0,1,100,27.598
469798,17240,1,T0,1,100,27.636
469897,17258,1,T0,1,100,27.630
469947,17276,2,T0,1,100,27.652
469998,17276,2,T0,1,100,27.620
470101,17295,1,T0,1,100,27.620
470200,17313,1,T0,1,100,27.609
470303,17331,1,T0,1,100,27.636
470403,17349,1,T0,1,100,27.609
470505,17367,1,T0,1,100,27.620
470605,17385,1,T0,1,100,27.604
470705,17403,1,T0,1,100,27.620
470807,17422,1,T0,1,100,27.620
470909,17440,1,T0,1,100,27.593
471010,17458,1,T0,1,100,27.630
471109,17476,1,T0,1,100,27.620
471212,17494,1,T0,1,100,27.636
471312,17512,1,T0,1,100,27.582
471413,17530,1,T0,1,100,27.620
471513,17548,1,T0,1,100,27.625
471614,17567,1,T0,1,100,27.630
471717,17585,1,T0,1,100,27.636
471817,17603,1,T0,1,100,27.641
471918,17621,1,T0,1,100,27.641
472019,17639,1,T0,1,100,27.609
472121,17657,1,T0,1,100,27.609
472220,17675,1,T0,1,100,27.593
472321,17694,1,T0,1,100,27.630
472423,17712,1,T0,1,100,27.641
472526,17730,1,T0,1,100,27.598
472624,17748,1,T0,1,100,27.652
472726,17766,1,T0,1,100,27.652
472828,17784,1,T0,1,100,27.657
472927,17802,1,T0,1,100,27.625
473029,17821,1,T0,1,100,27.647
473079,17839,2,T0,1,100,27.614
473130,17839,2,T0,1,100,27.657
473232,17857,1,T0,1,100,27.630
473332,17875,1,T0,1,100,27.636
473432,17893,1,T0,1,100,27.625
473535,17911,1,T0,1,100,27.614
473635,17929,1,T0,1,100,27.609
473737,17947,1,T0,1,100,27.636
473830,17969,2,T0,1,100,27.641
473923,17969,2,T0,1,100,27.598
474019,17988,1,T0,1,100,27.647
474120,18007,1,T0,1,100,27.620
474221,18025,1,T0,1,100,27.593
474323,18043,1,T0,1,100,27.657
474422,18061,1,T0,1,100,27.652
474523,18080,1,T0,1,100,27.647
474625,18098,1,T0,1,100,27.614
474727,18116,1,T0,1,100,27.652
474827,18134,1,T0,1,100,27.657
474929,18152,1,T0,1,100,27.630
475030,18170,1,T0,1,100,27.652
475129,18188,1,T0,1,100,27.630
475231,18206,1,T0,1,100,27.630
475332,18225,1,T0,1,100,27.663
475434,18243,1,T0,1,100,27.620
475533,18261,1,T0,1,100,27.647
475634,18279,1,T0,1,100,27.625
475737,18297,1,T0,1,100,27.652
475837,18315,1,T0,1,100,27.668
475938,18333,1,T0,1,100,27.636
476038,18352,1,T0,1,100,27.657
476140,18370,1,T0,1,100,27.668
476243,18388,1,T0,1,100,27.625
476343,18406,1,T0,1,100,27.641
476442,18424,1,T0,1,100,27.630
476544,18442,1,T0,1,100,27.630
476646,18460,1,T0,1,100,27.657
476745,18478,1,T0,1,100,27.668
476796,18497,2,T0,1,100,27.700
476848,18497,2,T0,1,100,27.652
476948,18515,1,T0,1,100,27.663
477049,18533,1,T0,1,100,27.668
477149,18551,1,T0,1,100,27.641
477252,18569,1,T0,1,100,27.647
477353,18587,1,T0,1,100,27.684
477453,18605,1,T0,1,100,27.641
477554,18624,1,T0,1,100,27.652
477655,18642,1,T0,1,100,27.673
477758,18660,1,T0,1,100,27.657
477857,18678,1,T0,1,100,27.647
477945,18696,2,T0,1,100,27.668
478034,18696,2,T0,1,100,27.652
478129,18714,1,T0,1,100,27.663
478231,18732,1,T0,1,100,27.679
478332,18751,1,T0,1,100,27.673
478433,18769,1,T0,1,100,27.700
478533,18787,1,T0,1,100,27.668
478635,18805,1,T0,1,100,27.663
478737,18823,1,T0,1,100,27.684
478838,18841,1,T0,1,100,27.657
478938,18859,1,T0,1,100,27.684
479040,18878,1,T0,1,100,27.652
479139,18896,1,T0,1,100,27.625
479240,18914,1,T0,1,100,27.647
479343,18932,1,T0,1,100,27.668
479443,18950,1,T0,1,100,27.673
479544,18968,1,T0,1,100,27.722
479644,18986,1,T0,1,100,27.679
479746,19005,1,T0,1,100,27.668
479847,19023,1,T0,1,100,27.684
479947,19041,1,T0,1,100,27.711
480050,19059,1,T0,1,100,27.668
480149,19077,1,T0,1,100,27.695
480253,19095,1,T0,1,100,27.716
480352,19113,1,T0,1,100,27.679
480452,19131,1,T0,1,100,27.614
480555,19150,1,T0,1,100,27.679
480655,19168,1,T0,1,100,27.679
480755,19186,1,T0,1,100,27.647
480856,19204,1,T0,1,100,27.689
480907,19222,2,T0,1,100,27.679
480959,19222,2,T0,1,100,27.684
481059,19240,1,T0,1,100,27.673
481161,19258,1,T0,1,100,27.695
481260,19277,1,T0,1,100,27.679
481362,19295,1,T0,1,100,27.673
481464,19313,1,T0,1,100,27.684
481563,19331,1,T0,1,100,27.706
481665,19349,1,T0,1,100,27.636
481766,19367,1,T0,1,100,27.695
481868,19385,1,T0,1,100,27.700
481967,19404,1,T0,1,100,27.706
482068,19422,1,T0,1,100,27.689
482170,19440,1,T0,1,100,27.743
482271,19458,1,T0,1,100,27.657
482371,19476,1,T0,1,100,27.732
482472,19494,1,T0,1,100,27.706
482575,19512,1,T0,1,100,27.722
482675,19530,1,T0,1,100,27.684
482776,19549,1,T0,1,100,27.711
482877,19567,1,T0,1,100,27.679
482979,19585,1,T0,1,100,27.722
483078,19603,1,T0,1,100,27.700
483179,19621,1,T0,1,100,27.711
483282,19639,1,T0,1,100,27.722
483382,19657,1,T0,1,100,27.695
483484,19676,1,T0,1,100,27.706
483584,19694,1,T0,1,100,27.716
483684,19712,1,T0,1,100,27.706
483787,19730,1,T0,1,100,27.716
483887,19748,1,T0,1,100,27.722
483987,19766,1,T0,1,100,27.706
484038,19784,2,T0,1,100,27.695
484090,19784,2,T0,1,100,27.722
484190,19802,1,T0,1,100,27.727
484290,19821,1,T0,1,100,27.684
484393,19839,1,T0,1,100,27.695
484493,19857,1,T0,1,100,27.716
484594,19875,1,T0,1,100,27.743
484694,19893,1,T0,1,100,27.738
484862,19914,1,T0,1,100,27.722
484958,19935,1,T0,1,100,27.727
485060,19953,1,T0,1,100,27.706
485159,19971,1,T0,1,100,27.716
485260,19989,1,T0,1,100,27.711
485311,20007,2,T0,1,100,27.716
485363,20007,2,T0,1,100,27.722
485463,20025,1,T0,1,100,27.748
485564,20043,1,T0,1,100,27.722
485664,20061,1,T0,1,100,27.727
485765,20080,1,T0,1,100,27.727
485868,20098,1,T0,1,100,27.722
485967,20116,1,T0,1,100,27.727
486069,20134,1,T0,1,100,27.706
486170,20152,1,T0,1,100,27.743
486272,20170,1,T0,1,100,27.748
486371,20188,1,T0,1,100,27.732
486472,20207,1,T0,1,100,27.711
486575,20225,1,T0,1,100,27.689
486674,20243,1,T0,1,100,27.727
486777,20261,1,T0,1,100,27.732
486878,20279,1,T0,1,100,27.770
486978,20297,1,T0,1,100,27.716
487078,20315,1,T0,1,100,27.727
487181,20333,1,T0,1,100,27.759
487281,20352,1,T0,1,100,27.716
487383,20370,1,T0,1,100,27.716
487482,20388,1,T0,1,100,27.781
487583,20406,1,T0,1,100,27.727
487686,20424,1,T0,1,100,27.765
487787,20442,1,T0,1,100,27.732
487888,20460,1,T0,1,100,27.727
487987,20479,1,T0,1,100,27.716
488088,20497,1,T0,1,100,27.727
488191,20515,1,T0,1,100,27.759
488291,20533,1,T0,1,100,27.738
488392,20551,1,T0,1,100,27.700
488442,20569,2,T0,1,100,27.722
488493,20569,2,T0,1,100,27.765
488594,20587,1,T0,1,100,27.727
488694,20606,1,T0,1,100,27.722
488797,20624,1,T0,1,100,27.770
488897,20642,1,T0,1,100,27.716
488998,20660,1,T0,1,100,27.727
489098,20678,1,T0,1,100,27.765
489202,20696,1,T0,1,100,27.754
489301,20714,1,T0,1,100,27.743
489401,20732,1,T0,1,100,27.765
489504,20751,1,T0,1,100,27.754
489604,20769,1,T0,1,100,27.748
489706,20787,1,T0,1,100,27.748
489805,20805,1,T0,1,100,27.738
489907,20823,1,T0,1,100,27.700
490009,20841,1,T0,1,100,27.765
490109,20859,1,T0,1,100,27.743
490209,20878,1,T0,1,100,27.743
490310,20896,1,T0,1,100,27.743
490413,20914,1,T0,1,100,27.743
490512,20932,1,T0,1,100,27.748
490614,20950,1,T0,1,100,27.722
490715,20968,1,T0,1,100,27.722
490817,20986,1,T0,1,100,27.738
490917,21004,1,T0,1,100,27.716
491017,21023,1,T0,1,100,27.781
491120,21041,1,T0,1,100,27.765
491220,21059,1,T0,1,100,27.770
491321,21077,1,T0,1,100,27.738
491371,21095,2,T0,1,100,27.748
491422,21095,2,T0,1,100,27.711
491523,21113,1,T0,1,100,27.743
491623,21131,1,T0,1,100,27.748
491725,21150,1,T0,1,100,27.732
491826,21168,1,T0,1,100,27.748
491928,21186,1,T0,1,100,27.716
492027,21204,1,T0,1,100,27.732
492128,21222,1,T0,1,100,27.722
492231,21240,1,T0,1,100,27.775
492331,21258,1,T0,1,100,27.791
492433,21277,1,T0,1,100,27.775
492534,21295,1,T0,1,100,27.754
492633,21313,1,T0,1,100,27.770
492736,21331,1,T0,1,100,27.743
492836,21349,1,T0,1,100,27.765
492937,21367,1,T0,1,100,27.759
493037,21385,1,T0,1,100,27.775
493139,21403,1,T0,1,100,27.754
493241,21422,1,T0,1,100,27.732
493341,21440,1,T0,1,100,27.770
493442,21458,1,T0,1,100,27.738
493543,21476,1,T0,1,100,27.775
493643,21494,1,T0,1,100,27.738
493746,21512,1,T0,1,100,27.770
493848,21530,1,T0,1,100,27.775
493947,21549,1,T0,1,100,27.743
494048,21567,1,T0,1,100,27.770
494149,21585,1,T0,1,100,27.748
494251,21603,1,T0,1,100,27.759
494352,21621,1,T0,1,100,27.743
494451,21639,1,T0,1,100,27.754
494502,21657,2,T0,1,100,27.786
494554,21657,2,T0,1,100,27.759
494654,21676,1,T0,1,100,27.775
494755,21694,1,T0,1,100,27.791
494856,21712,1,T0,1,100,27.711
494957,21730,1,T0,1,100,27.791
495057,21748,1,T0,1,100,27.781
495160,21766,1,T0,1,100,27.716
495259,21784,1,T0,1,100,27.743
495360,21802,1,T0,1,100,27.775
495462,21821,1,T0,1,100,27.748
495563,21839,1,T0,1,100,27.759
495657,21860,2,T0,1,100,27.732
495752,21860,2,T0,1,100,27.765
495847,21879,1,T0,1,100,27.754
495948,21898,1,T0,1,100,27.765
496050,21916,1,T0,1,100,27.770
496150,21935,1,T0,1,100,27.786
496251,21953,1,T0,1,100,27.797
496352,21971,1,T0,1,100,27.759
496454,21989,1,T0,1,100,27.765
496554,22007,1,T0,1,100,27.770
496654,22025,1,T0,1,100,27.775
496757,22043,1,T0,1,100,27.786
496858,22061,1,T0,1,100,27.770
496958,22080,1,T0,1,100,27.775
497058,22098,1,T0,1,100,27.765
497160,22116,1,T0,1,100,27.759
497260,22134,1,T0,1,100,27.759
497363,22152,1,T0,1,100,27.797
497462,22170,1,T0,1,100,27.775
497563,22188,1,T0,1,100,27.743
497665,22207,1,T0,1,100,27.797
497767,22225,1,T0,1,100,27.743
497867,22243,1,T0,1,100,27.732
497968,22261,1,T0,1,100,27.738
498070,22279,1,T0,1,100,27.754
498169,22297,1,T0,1,100,27.759
498270,22315,1,T0,1,100,27.743
498321,22333,2,T0,1,100,27.786
498373,22333,2,T0,1,100,27.765
498474,22352,1,T0,1,100,27.748
498573,22370,1,T0,1,100,27.781
498674,22388,1,T0,1,100,27.770
498777,22406,1,T0,1,100,27.775
498877,22424,1,T0,1,100,27.759
498978,22442,1,T0,1,100,27.791
499078,22460,1,T0,1,100,27.738
499180,22479,1,T0,1,100,27.791
499282,22497,1,T0,1,100,27.797
499382,22515,1,T0,1,100,27.770
499483,22533,1,T0,1,100,27.781
499583,22551,1,T0,1,100,27.770
499685,22569,1,T0,1,100,27.786
499786,22587,1,T0,1,100,27.759
499886,22606,1,T0,1,100,27.791
499989,22624,1,T0,1,100,27.781
500089,22642,1,T0,1,100,27.759
500190,22660,1,T0,1,100,27.781
500291,22678,1,T0,1,100,27.722
500393,22696,1,T0,1,100,27.813
500492,22714,1,T0,1,100,27.770
500594,22732,1,T0,1,100,27.802
500694,22751,1,T0,1,100,27.765
500798,22769,1,T0,1,100,27.818
500896,22787,1,T0,1,100,27.775
500997,22805,1,T0,1,100,27.765
501100,22823,1,T0,1,100,27.759
501199,22841,1,T0,1,100,27.797
501301,22859,1,T0,1,100,27.770
501401,22878,1,T0,1,100,27.754
501452,22896,2,T0,1,100,27.770
501503,22896,2,T0,1,100,27.797
501605,22914,1,T0,1,100,27.786
501704,22932,1,T0,1,100,27.770
501806,22950,1,T0,1,100,27.781
501907,22968,1,T0,1,100,27.765
502009,22986,1,T0,1,100,27.765
502108,23004,1,T0,1,100,27.754
502210,23023,1,T0,1,100,27.748
502311,23041,1,T0,1,100,27.754
502413,23059,1,T0,1,100,27.732
502513,23077,1,T0,1,100,27.807
502613,23095,1,T0,1,100,27.791
502715,23113,1,T0,1,100,27.765
502815,23131,1,T0,1,100,27.797
502918,23150,1,T0,1,100,27.759
503018,23168,1,T0,1,100,27.754
503120,23186,1,T0,1,100,27.786
503219,23204,1,T0,1,100,27.743
503320,23222,1,T0,1,100,27.823
503423,23240,1,T0,1,100,27.781
503524,23258,1,T0,1,100,27.754
503623,23277,1,T0,1,100,27.781
503724,23295,1,T0,1,100,27.759
503827,23313,1,T0,1,100,27.781
503928,23331,1,T0,1,100,27.759
504017,23349,2,T0,1,100,27.797
504107,23349,2,T0,1,100,27.765
504202,23367,1,T0,1,100,27.748
504304,23385,1,T0,1,100,27.781
504406,23404,1,T0,1,100,27.781
504505,23422,1,T0,1,100,27.781
504606,23440,1,T0,1,100,27.770
504708,23458,1,T0,1,100,27.770
504810,23476,1,T0,1,100,27.748
504910,23494,1,T0,1,100,27.738
505011,23512,1,T0,1,100,27.754
505113,23531,1,T0,1,100,27.775
505212,23549,1,T0,1,100,27.732
505313,23567,1,T0,1,100,27.770
505364,23585,2,T0,1,100,27.738
505416,23585,2,T0,1,100,27.754
505516,23603,1,T0,1,100,27.781
505617,23621,1,T0,1,100,27.791
505717,23639,1,T0,1,100,27.781
505819,23657,1,T0,1,100,27.781
505921,23676,1,T0,1,100,27.759
506020,23694,1,T0,1,100,27.765
506123,23712,1,T0,1,100,27.797
506223,23730,1,T0,1,100,27.781
506325,23748,1,T0,1,100,27.775
506425,23766,1,T0,1,100,27.818
506527,23784,1,T0,1,100,27.738
506615,23806,2,T0,1,100,27.781
506703,23806,2,T0,1,100,27.738
506799,23826,1,T0,1,100,27.770
506900,23844,1,T0,1,100,27.786
507003,23862,1,T0,1,100,27.781
507103,23880,1,T0,1,100,27.743
507205,23898,1,T0,1,100,27.797
507305,23916,1,T0,1,100,27.775
507406,23935,1,T0,1,100,27.797
507506,23953,1,T0,1,100,27.748
507608,23971,1,T0,1,100,27.754
507708,23989,1,T0,1,100,27.759
507811,24007,1,T0,1,100,27.786
507912,24025,1,T0,1,100,27.748
508012,24043,1,T0,1,100,27.802
508114,24062,1,T0,1,100,27.748
508214,24080,1,T0,1,100,27.781
508315,24098,1,T0,1,100,27.775
508415,24116,1,T0,1,100,27.765
508516,24134,1,T0,1,100,27.770
508619,24152,1,T0,1,100,27.775
508721,24170,1,T0,1,100,27.791
508822,24188,1,T0,1,100,27.781
508921,24207,1,T0,1,100,27.770
509024,24225,1,T0,1,100,27.781
509124,24243,1,T0,1,100,27.775
509225,24261,1,T0,1,100,27.738
509325,24279,1,T0,1,100,27.754
509376,24297,2,T0,1,100,27.791
509427,24297,2,T0,1,100,27.754
509529,24315,1,T0,1,100,27.748
509628,24334,1,T0,1,100,27.759
509731,24352,1,T0,1,100,27.743
509830,24370,1,T0,1,100,27.706
509932,24388,1,T0,1,100,27.797
510032,24406,1,T0,1,100,27.770
510133,24424,1,T0,1,100,27.770
510235,24442,1,T0,1,100,27.791
510337,24461,1,T0,1,100,27.770
510436,24479,1,T0,1,100,27.754
510539,24497,1,T0,1,100,27.754
510640,24515,1,T0,1,100,27.797
510739,24533,1,T0,1,100,27.765
510841,24551,1,T0,1,100,27.770
510941,24569,1,T0,1,100,27.791
511043,24587,1,T0,1,100,27.765
511145,24606,1,T0,1,100,27.802
511244,24624,1,T0,1,100,27.770
511346,24642,1,T0,1,100,27.770
511447,24660,1,T0,1,100,27.786
511548,24678,1,T0,1,100,27.802
511648,24696,1,T0,1,100,27.759
511749,24714,1,T0,1,100,27.759
511851,24733,1,T0,1,100,27.754
511953,24751,1,T0,1,100,27.781
512053,24769,1,T0,1,100,27.743
512155,24787,1,T0,1,100,27.781
512254,24805,1,T0,1,100,27.732
512355,24823,1,T0,1,100,27.765
512406,24841,2,T0,1,100,27.716
512458,24841,2,T0,1,100,27.765
512558,24860,1,T0,1,100,27.797
512660,24878,1,T0,1,100,27.791
512759,24896,1,T0,1,100,27.743
512860,24914,1,T0,1,100,27.765
512963,24932,1,T0,1,100,27.775
513062,24950,1,T0,1,100,27.765
513164,24968,1,T0,1,100,27.743
513264,24986,1,T0,1,100,27.770
513365,25005,1,T0,1,100,27.781
513468,25023,1,T0,1,100,27.802
513569,25041,1,T0,1,100,27.738
513668,25059,1,T0,1,100,27.770
513770,25077,1,T0,1,100,27.765
513872,25095,1,T0,1,100,27.770
513971,25113,1,T0,1,100,27.791
514074,25132,1,T0,1,100,27.759
514174,25150,1,T0,1,100,27.786
514275,25168,1,T0,1,100,27.754
514375,25186,1,T0,1,100,27.765
514478,25204,1,T0,1,100,27.786
514578,25222,1,T0,1,100,27.786
514678,25240,1,T0,1,100,27.770
514780,25258,1,T0,1,100,27.759
514881,25277,1,T0,1,100,27.781
514984,25295,1,T0,1,100,27.738
515083,25313,1,T0,1,100,27.797
515185,25331,1,T0,1,100,27.765
515285,25349,1,T0,1,100,27.775
515387,25367,1,T0,1,100,27.781
515486,25385,1,T0,1,100,27.797
515587,25404,1,T0,1,100,27.786
515638,25422,2,T0,1,100,27.786
515690,25422,2,T0,1,100,27.781
515790,25440,1,T0,1,100,27.754
515892,25458,1,T0,1,100,27.759
515991,25476,1,T0,1,100,27.732
516093,25494,1,T0,1,100,27.791
516195,25512,1,T0,1,100,27.770
516294,25531,1,T0,1,100,27.775
516396,25549,1,T0,1,100,27.786
516498,25567,1,T0,1,100,27.759
516598,25585,1,T0,1,100,27.754
516698,25603,1,T0,1,100,27.775
516801,25621,1,T0,1,100,27.775
516900,25639,1,T0,1,100,27.791
517002,25657,1,T0,1,100,27.781
517102,25676,1,T0,1,100,27.802
517204,25694,1,T0,1,100,27.770
517306,25712,1,T0,1,100,27.775
517406,25730,1,T0,1,100,27.797
517500,25751,2,T0,1,100,27.748
517594,25751,2,T0,1,100,27.797
517690,25770,1,T0,1,100,27.786
517790,25790,1,T0,1,100,27.834
517893,25808,1,T0,1,100,27.775
517993,25826,1,T0,1,100,27.759
518094,25844,1,T0,1,100,27.791
518195,25862,1,T0,1,100,27.807
518297,25880,1,T0,1,100,27.775
518396,25898,1,T0,1,100,27.807
518497,25916,1,T0,1,100,27.748
518600,25935,1,T0,1,100,27.786
518702,25953,1,T0,1,100,27.791
518801,25971,1,T0,1,100,27.781
518903,25989,1,T0,1,100,27.802
519003,26007,1,T0,1,100,27.781
519103,26025,1,T0,1,100,27.781
519154,26043,2,T0,1,100,27.840
519206,26043,2,T0,1,100,27.770
519306,26062,1,T0,1,100,27.759
519408,26080,1,T0,1,100,27.807
519507,26098,1,T0,1,100,27.786
519608,26116,1,T0,1,100,27.797
519711,26134,1,T0,1,100,27.786
519810,26152,1,T0,1,100,27.802
519912,26170,1,T0,1,100,27.797
520012,26189,1,T0,1,100,27.786
520115,26207,1,T0,1,100,27.813
520217,26225,1,T0,1,100,27.786
520315,26243,1,T0,1,100,27.775
520418,26261,1,T0,1,100,27.770
520518,26279,1,T0,1,100,27.797
520618,26297,1,T0,1,100,27.786
520719,26315,1,T0,1,100,27.781
520822,26334,1,T0,1,100,27.765
520922,26352,1,T0,1,100,27.786
521023,26370,1,T0,1,100,27.813
521123,26388,1,T0,1,100,27.786
521226,26406,1,T0,1,100,27.845
521325,26424,1,T0,1,100,27.797
521426,26442,1,T0,1,100,27.781
521528,26461,1,T0,1,100,27.781
521629,26479,1,T0,1,100,27.807
521732,26497,1,T0,1,100,27.802
521831,26515,1,T0,1,100,27.807
521931,26533,1,T0,1,100,27.770
522033,26551,1,T0,1,100,27.823
522134,26569,1,T0,1,100,27.791
522234,26587,1,T0,1,100,27.791
522335,26606,1,T0,1,100,27.797
522386,26624,2,T0,1,100,27.791
522438,26624,2,T0,1,100,27.759
522538,26642,1,T0,1,100,27.797
522639,26660,1,T0,1,100,27.786
522740,26678,1,T0,1,100,27.823
522842,26696,1,T0,1,100,27.818
522941,26714,1,T0,1,100,27.818
523042,26733,1,T0,1,100,27.823
523144,26751,1,T0,1,100,27.759
523245,26769,1,T0,1,100,27.802
523346,26787,1,T0,1,100,27.791
523447,26805,1,T0,1,100,27.823
523547,26823,1,T0,1,100,27.775
523650,26841,1,T0,1,100,27.765
523750,26860,1,T0,1,100,27.823
523850,26878,1,T0,1,100,27.807
523952,26896,1,T0,1,100,27.802
524054,26914,1,T0,1,100,27.765
524153,26932,1,T0,1,100,27.770
524256,26950,1,T0,1,100,27.807
524356,26968,1,T0,1,100,27.765
524457,26986,1,T0,1,100,27.791
524557,27005,1,T0,1,100,27.781
524658,27023,1,T0,1,100,27.786
524761,27041,1,T0,1,100,27.845
524861,27059,1,T0,1,100,27.797
524963,27077,1,T0,1,100,27.802
525062,27095,1,T0,1,100,27.797
525165,27113,1,T0,1,100,27.797
525265,27132,1,T0,1,100,27.770
525366,27150,1,T0,1,100,27.791
525466,27168,1,T0,1,100,27.802
525516,27186,2,T0,1,100,27.775
525567,27186,2,T0,1,100,27.802
525670,27204,1,T0,1,100,27.818
525769,27222,1,T0,1,100,27.823
525872,27240,1,T0,1,100,27.829
525972,27258,1,T0,1,100,27.802
526073,27277,1,T0,1,100,27.765
526173,27295,1,T0,1,100,27.829
526275,27313,1,T0,1,100,27.813
526377,27331,1,T0,1,100,27.807
526476,27349,1,T0,1,100,27.791
526578,27367,1,T0,1,100,27.770
526680,27385,1,T0,1,100,27.818
526780,27404,1,T0,1,100,27.775
526880,27422,1,T0,1,100,27.797
526981,27440,1,T0,1,100,27.786
527085,27458,1,T0,1,100,27.781
527185,27476,1,T0,1,100,27.748
527285,27494,1,T0,1,100,27.802
527385,27512,1,T0,1,100,27.775
527488,27531,1,T0,1,100,27.786
527588,27549,1,T0,1,100,27.765
527690,27567,1,T0,1,100,27.818
527789,27585,1,T0,1,100,27.786
527890,27603,1,T0,1,100,27.813
527992,27621,1,T0,1,100,27.791
528094,27639,1,T0,1,100,27.775
528195,27657,1,T0,1,100,27.807
528295,27676,1,T0,1,100,27.840
528386,27697,2,T0,1,100,27.823
528478,27697,2,T0,1,100,27.823
528575,27717,1,T0,1,100,27.770
528675,27735,1,T0,1,100,27.807
528778,27753,1,T0,1,100,27.781
528878,27771,1,T0,1,100,27.802
528980,27790,1,T0,1,100,27.791
529079,27808,1,T0,1,100,27.797
529180,27826,1,T0,1,100,27.802
529231,27844,2,T0,1,100,27.797
529283,27844,2,T0,1,100,27.845
529383,27862,1,T0,1,100,27.781
529485,27880,1,T0,1,100,27.807
529584,27898,1,T0,1,100,27.829
529686,27916,1,T0,1,100,27.797
529787,27935,1,T0,1,100,27.781
529889,27953,1,T0,1,100,27.770
529988,27971,1,T0,1,100,27.823
530159,27989,1,T0,1,100,27.823
530256,28007,1,T0,1,100,27.791
530355,28025,1,T0,1,100,27.850
530406,28043,2,T0,1,100,27.807
530458,28043,2,T0,1,100,27.807
530558,28062,1,T0,1,100,27.802
530659,28080,1,T0,1,100,27.797
530759,28098,1,T0,1,100,27.829
530862,28116,1,T0,1,100,27.775
530962,28134,1,T0,1,100,27.807
531063,28152,1,T0,1,100,27.850
531163,28170,1,T0,1,100,27.797
531267,28189,1,T0,1,100,27.807
531366,28207,1,T0,1,100,27.834
531466,28225,1,T0,1,100,27.840
531569,28243,1,T0,1,100,27.845
531669,28261,1,T0,1,100,27.775
531771,28279,1,T0,1,100,27.813
531870,28297,1,T0,1,100,27.807
531972,28316,1,T0,1,100,27.807
532074,28334,1,T0,1,100,27.807
532175,28352,1,T0,1,100,27.781
532275,28370,1,T0,1,100,27.850
532375,28388,1,T0,1,100,27.818
532478,28406,1,T0,1,100,27.834
532577,28424,1,T0,1,100,27.813
532679,28442,1,T0,1,100,27.765
532779,28461,1,T0,1,100,27.781
532881,28479,1,T0,1,100,27.786
532983,28497,1,T0,1,100,27.802
533082,28515,1,T0,1,100,27.823
533185,28533,1,T0,1,100,27.802
533285,28551,1,T0,1,100,27.823
533387,28569,1,T0,1,100,27.813
533486,28588,1,T0,1,100,27.818
533536,28606,2,T0,1,100,27.786
533587,28606,2,T0,1,100,27.813
533690,28624,1,T0,1,100,27.818
533791,28642,1,T0,1,100,27.818
533890,28660,1,T0,1,100,27.834
533992,28678,1,T0,1,100,27.845
534093,28696,1,T0,1,100,27.791
534193,28715,1,T0,1,100,27.834
534296,28733,1,T0,1,100,27.802
534396,28751,1,T0,1,100,27.791
534497,28769,1,T0,1,100,27.818
534599,28787,1,T0,1,100,27.797
534699,28805,1,T0,1,100,27.791
534801,28823,1,T0,1,100,27.818
534901,28841,1,T0,1,100,27.840
535002,28860,1,T0,1,100,27.856
535102,28878,1,T0,1,100,27.786
535204,28896,1,T0,1,100,27.786
535306,28914,1,T0,1,100,27.807
535406,28932,1,T0,1,100,27.786
535506,28950,1,T0,1,100,27.765
535608,28968,1,T0,1,100,27.786
535709,28987,1,T0,1,100,27.813
535809,29005,1,T0,1,100,27.786
535912,29023,1,T0,1,100,27.813
536011,29041,1,T0,1,100,27.770
536115,29059,1,T0,1,100,27.802
536213,29077,1,T0,1,100,27.797
536315,29095,1,T0,1,100,27.770
536417,29113,1,T0,1,100,27.802
536516,29132,1,T0,1,100,27.802
536618,29150,1,T0,1,100,27.802
536718,29168,1,T0,1,100,27.802
536819,29186,1,T0,1,100,27.802
536870,29204,2,T0,1,100,27.791
536922,29204,2,T0,1,100,27.818
537023,29222,1,T0,1,100,27.834
537122,29240,1,T0,1,100,27.813
537224,29259,1,T0,1,100,27.829
537326,29277,1,T0,1,100,27.829
537425,29295,1,T0,1,100,27.807
537527,29313,1,T0,1,100,27.813
537628,29331,1,T0,1,100,27.797
537730,29349,1,T0,1,100,27.797
537830,29367,1,T0,1,100,27.818
537931,29386,1,T0,1,100,27.823
538032,29404,1,T0,1,100,27.834
538132,29422,1,T0,1,100,27.765
538235,29440,1,T0,1,100,27.850
538335,29458,1,T0,1,100,27.802
538437,29476,1,T0,1,100,27.813
538538,29494,1,T0,1,100,27.818
538638,29512,1,T0,1,100,27.807
538739,29531,1,T0,1,100,27.813
538841,29549,1,T0,1,100,27.818
538940,29567,1,T0,1,100,27.818
539041,29585,1,T0,1,100,27.818
539144,29603,1,T0,1,100,27.807
539244,29621,1,T0,1,100,27.840
539328,29642,2,T0,1,100,27.802
539412,29642,2,T0,1,100,27.829
539508,29663,1,T0,1,100,27.829
539610,29681,1,T0,1,100,27.818
539711,29699,1,T0,1,100,27.791
539813,29717,1,T0,1,100,27.813
539913,29735,1,T0,1,100,27.807
540015,29753,1,T0,1,100,27.797
540114,29771,1,T0,1,100,27.802
540215,29790,1,T0,1,100,27.802
540317,29808,1,T0,1,100,27.818
540418,29826,1,T0,1,100,27.807
540519,29844,1,T0,1,100,27.813
540620,29862,1,T0,1,100,27.813
540722,29880,1,T0,1,100,27.797
540822,29898,1,T0,1,100,27.786
540922,29917,1,T0,1,100,27.786
540973,29935,2,T0,1,100,27.840
541025,29935,2,T0,1,100,27.802
541125,29953,1,T0,1,100,27.856
541227,29971,1,T0,1,100,27.829
541326,29989,1,T0,1,100,27.802
541428,30007,1,T0,1,100,27.823
541528,30025,1,T0,1,100,27.813
541630,30043,1,T0,1,100,27.818
541732,30062,1,T0,1,100,27.807
541831,30080,1,T0,1,100,27.797
541933,30098,1,T0,1,100,27.856
542034,30116,1,T0,1,100,27.797
542136,30134,1,T0,1,100,27.786
542235,30152,1,T0,1,100,27.802
542336,30170,1,T0,1,100,27.807
542438,30189,1,T0,1,100,27.823
542538,30207,1,T0,1,100,27.818
542641,30225,1,T0,1,100,27.829
542741,30243,1,T0,1,100,27.818
542842,30261,1,T0,1,100,27.823
542942,30279,1,T0,1,100,27.813
543045,30297,1,T0,1,100,27.834
543146,30316,1,T0,1,100,27.791
543246,30334,1,T0,1,100,27.813
543346,30352,1,T0,1,100,27.834
543448,30370,1,T0,1,100,27.770
543550,30388,1,T0,1,100,27.807
543649,30406,1,T0,1,100,27.829
543752,30424,1,T0,1,100,27.791
543852,30442,1,T0,1,100,27.813
543953,30461,1,T0,1,100,27.802
544053,30479,1,T0,1,100,27.797
544154,30497,1,T0,1,100,27.823
544205,30515,2,T0,1,100,27.856
544257,30515,2,T0,1,100,27.802
544357,30533,1,T0,1,100,27.818
544458,30551,1,T0,1,100,27.813
544559,30569,1,T0,1,100,27.802
544661,30588,1,T0,1,100,27.791
544760,30606,1,T0,1,100,27.829
544862,30624,1,T0,1,100,27.818
544962,30642,1,T0,1,100,27.807
545066,30660,1,T0,1,100,27.807
545164,30678,1,T0,1,100,27.786
545265,30696,1,T0,1,100,27.829
545368,30714,1,T0,1,100,27.818
545467,30733,1,T0,1,100,27.823
545569,30751,1,T0,1,100,27.802
545669,30769,1,T0,1,100,27.818
545771,30787,1,T0,1,100,27.818
545873,30805,1,T0,1,100,27.823
545972,30823,1,T0,1,100,27.813
546074,30841,1,T0,1,100,27.797
546175,30860,1,T0,1,100,27.850
546277,30878,1,T0,1,100,27.840
546376,30896,1,T0,1,100,27.807
546478,30914,1,T0,1,100,27.829
546579,30932,1,T0,1,100,27.818
546681,30950,1,T0,1,100,27.818
546781,30968,1,T0,1,100,27.823
546881,30987,1,T0,1,100,27.834
546983,31005,1,T0,1,100,27.829
547083,31023,1,T0,1,100,27.807
547185,31041,1,T0,1,100,27.861
547235,31059,2,T0,1,100,27.791
547286,31059,2,T0,1,100,27.818
547388,31077,1,T0,1,100,27.823
547487,31095,1,T0,1,100,27.818
547588,31113,1,T0,1,100,27.823
547691,31132,1,T0,1,100,27.882
547791,31150,1,T0,1,100,27.823
547892,31168,1,T0,1,100,27.823
547992,31186,1,T0,1,100,27.845
548095,31204,1,T0,1,100,27.823
548197,31222,1,T0,1,100,27.823
548297,31240,1,T0,1,100,27.834
548396,31259,1,T0,1,100,27.840
548497,31277,1,T0,1,100,27.834
548600,31295,1,T0,1,100,27.818
548699,31313,1,T0,1,100,27.823
548802,31331,1,T0,1,100,27.818
548902,31349,1,T0,1,100,27.840
549004,31367,1,T0,1,100,27.791
549103,31385,1,T0,1,100,27.834
549204,31404,1,T0,1,100,27.797
549307,31422,1,T0,1,100,27.845
549406,31440,1,T0,1,100,27.823
549508,31458,1,T0,1,100,27.829
549610,31476,1,T0,1,100,27.813
549710,31494,1,T0,1,100,27.856
549811,31512,1,T0,1,100,27.823
549912,31531,1,T0,1,100,27.818
550012,31549,1,T0,1,100,27.775
550115,31567,1,T0,1,100,27.786
550208,31588,2,T0,1,100,27.829
550301,31588,2,T0,1,100,27.797
550400,31608,1,T0,1,100,27.813
550500,31626,1,T0,1,100,27.856
550600,31645,1,T0,1,100,27.829
550703,31663,1,T0,1,100,27.807
550804,31681,1,T0,1,100,27.781
550903,31699,1,T0,1,100,27.823
551005,31717,1,T0,1,100,27.818
551055,31735,2,T0,1,100,27.845
551106,31735,2,T0,1,100,27.791
551208,31753,1,T0,1,100,27.818
551307,31771,1,T0,1,100,27.786
551408,31790,1,T0,1,100,27.829
551511,31808,1,T0,1,100,27.823
551610,31826,1,T0,1,100,27.834
551712,31844,1,T0,1,100,27.829
551814,31862,1,T0,1,100,27.829
551914,31880,1,T0,1,100,27.829
552014,31898,1,T0,1,100,27.861
552117,31917,1,T0,1,100,27.797
552217,31935,1,T0,1,100,27.813
552319,31953,1,T0,1,100,27.829
552418,31971,1,T0,1,100,27.823
552519,31989,1,T0,1,100,27.802
552622,32007,1,T0,1,100,27.807
552722,32025,1,T0,1,100,27.856
552823,32043,1,T0,1,100,27.834
552923,32062,1,T0,1,100,27.818
553024,32080,1,T0,1,100,27.802
553126,32098,1,T0,1,100,27.813
553226,32116,1,T0,1,100,27.797
553329,32134,1,T0,1,100,27.791
553429,32152,1,T0,1,100,27.823
553531,32170,1,T0,1,100,27.834
553630,32189,1,T0,1,100,27.840
553733,32207,1,T0,1,100,27.786
553833,32225,1,T0,1,100,27.834
553935,32243,1,T0,1,100,27.807
554034,32261,1,T0,1,100,27.797
554085,32279,2,T0,1,100,27.845
554136,32279,2,T0,1,100,27.823
554236,32297,1,T0,1,100,27.818
554337,32316,1,T0,1,100,27.823
554440,32334,1,T0,1,100,27.840
554540,32352,1,T0,1,100,27.813
554641,32370,1,T0,1,100,27.818
554741,32388,1,T0,1,100,27.829
554842,32406,1,T0,1,100,27.791
554944,32424,1,T0,1,100,27.807
555046,32442,1,T0,1,100,27.802
555145,32461,1,T0,1,100,27.813
555247,32479,1,T0,1,100,27.834
555349,32497,1,T0,1,100,27.845
555449,32515,1,T0,1,100,27.840
555550,32533,1,T0,1,100,27.813
555650,32551,1,T0,1,100,27.823
555752,32569,1,T0,1,100,27.845
555854,32588,1,T0,1,100,27.850
555953,32606,1,T0,1,100,27.845
556056,32624,1,T0,1,100,27.840
556143,32642,2,T0,1,100,27.840
556231,32642,2,T0,1,100,27.856
556328,32660,1,T0,1,100,27.829
556429,32678,1,T0,1,100,27.829
556530,32696,1,T0,1,100,27.802
556632,32715,1,T0,1,100,27.807
556732,32733,1,T0,1,100,27.818
556832,32751,1,T0,1,100,27.845
556935,32769,1,T0,1,100,27.850
557035,32787,1,T0,1,100,27.823
557136,32805,1,T0,1,100,27.834
557236,32823,1,T0,1,100,27.807
557339,32842,1,T0,1,100,27.866
557440,32860,1,T0,1,100,27.775
557541,32878,1,T0,1,100,27.850
557642,32896,1,T0,1,100,27.807
557741,32914,1,T0,1,100,27.845
557844,32932,1,T0,1,100,27.861
557944,32950,1,T0,1,100,27.840
558045,32968,1,T0,1,100,27.834
558145,32987,1,T0,1,100,27.818
558196,33005,2,T0,1,100,27.823
558247,33005,2,T0,1,100,27.797
558349,33023,1,T0,1,100,27.807
558449,33041,1,T0,1,100,27.813
558551,33059,1,T0,1,100,27.818
558650,33077,1,T0,1,100,27.834
558752,33095,1,T0,1,100,27.856
558852,33114,1,T0,1,100,27.823
558954,33132,1,T0,1,100,27.829
559056,33150,1,T0,1,100,27.813
559155,33168,1,T0,1,100,27.856
559257,33186,1,T0,1,100,27.829
559359,33204,1,T0,1,100,27.818
559459,33222,1,T0,1,100,27.861
559559,33241,1,T0,1,100,27.861
559662,33259,1,T0,1,100,27.807
559762,33277,1,T0,1,100,27.845
559864,33295,1,T0,1,100,27.845
559963,33313,1,T0,1,100,27.829
560064,33331,1,T0,1,100,27.818
560166,33349,1,T0,1,100,27.802
560266,33367,1,T0,1,100,27.834
560368,33386,1,T0,1,100,27.861
560468,33404,1,T0,1,100,27.834
560570,33422,1,T0,1,100,27.813
