EpochTimestamp,EmotiBitTimestamp,PacketNumber,DataLength,TypeTag,ProtocolVersion,DataReliability,ER
1575568678.753834,32548.000,5132,4,ER,1,100,1.700273
1575568678.753834,32548.000,5132,4,ER,1,100,1.700394
1575568678.753834,32548.000,5132,4,ER,1,100,1.700716
1575568678.753834,32548.000,5132,4,ER,1,100,1.699790
1575568678.821635,32605.000,5150,1,ER,1,100,1.699750
1575568678.884083,32657.500,5168,2,ER,1,100,1.702852
1575568678.946530,32710.000,5168,2,ER,1,100,1.700314
1575568679.011952,32765.000,5186,2,ER,1,100,1.697776
1575568679.077373,32820.000,5186,2,ER,1,100,1.700435
1575568679.146958,32878.500,5202,2,ER,1,100,1.699347
1575568679.216542,32937.000,5202,2,ER,1,100,1.699709
1575568679.281964,32992.000,5220,1,ER,1,100,1.699145
1575568679.353333,33052.000,5238,2,ER,1,100,1.697212
1575568679.424701,33112.000,5238,2,ER,1,100,1.697897
1575568679.487149,33164.500,5256,2,ER,1,100,1.695319
1575568679.549597,33217.000,5256,2,ER,1,100,1.697494
1575568679.615613,33272.500,5274,2,ER,1,100,1.694513
1575568679.681629,33328.000,5274,2,ER,1,100,1.696406
1575568679.749430,33385.000,5292,2,ER,1,100,1.694070
1575568679.817230,33442.000,5292,2,ER,1,100,1.695883
1575568679.886220,33500.000,5311,1,ER,1,100,1.695601
1575568679.955805,33558.500,5328,2,ER,1,100,1.695158
1575568680.025389,33617.000,5328,2,ER,1,100,1.696567
1575568680.087243,33669.000,5346,2,ER,1,100,1.694029
1575568680.149096,33721.000,5346,2,ER,1,100,1.697534
1575568680.213922,33775.500,5364,2,ER,1,100,1.693989
1575568680.278749,33830.000,5364,2,ER,1,100,1.706799
1575568680.347739,33888.000,5381,2,ER,1,100,1.694513
1575568680.416729,33946.000,5381,2,ER,1,100,1.695802
1575568680.483340,34002.000,5398,2,ER,1,100,1.695359
1575568680.549951,34058.000,5398,2,ER,1,100,1.694553
1575568680.623698,34120.000,5416,1,ER,1,100,1.696970
1575568680.686146,34172.500,5434,2,ER,1,100,1.694150
1575568680.748594,34225.000,5434,2,ER,1,100,1.697252
1575568680.813421,34279.500,5452,2,ER,1,100,1.693949
1575568680.878247,34334.000,5452,2,ER,1,100,1.697856
1575568680.947832,34392.500,5471,2,ER,1,100,1.693788
1575568681.017417,34451.000,5471,2,ER,1,100,1.696648
1575568681.084028,34507.000,5489,2,ER,1,100,1.696728
1575568681.150639,34563.000,5489,2,ER,1,100,1.696044
1575568681.223197,34624.000,5507,1,ER,1,100,1.698501
1575568681.286239,34677.000,5524,2,ER,1,100,1.696044
1575568681.349282,34730.000,5524,2,ER,1,100,1.697937
1575568681.412919,34783.500,5542,2,ER,1,100,1.695923
1575568681.476556,34837.000,5542,2,ER,1,100,1.699307
1575568681.544357,34894.000,5560,2,ER,1,100,1.696890
1575568681.612157,34951.000,5560,2,ER,1,100,1.699629
1575568681.679363,35007.500,5576,2,ER,1,100,1.697776
1575568681.746568,35064.000,5576,2,ER,1,100,1.698420
1575568681.817937,35124.000,5594,1,ER,1,100,1.700072
1575568681.882764,35178.500,5613,2,ER,1,100,1.697333
1575568681.947591,35233.000,5613,2,ER,1,100,1.699427
1575568682.010633,35286.000,5631,2,ER,1,100,1.697172
1575568682.073676,35339.000,5631,2,ER,1,100,1.700757
1575568682.140882,35395.500,5649,2,ER,1,100,1.697695
1575568682.208087,35452.000,5649,2,ER,1,100,1.701563
1575568682.275887,35509.000,5667,2,ER,1,100,1.698904
1575568682.343688,35566.000,5667,2,ER,1,100,1.699186
1575568682.412678,35624.000,5685,1,ER,1,100,1.700273
1575568682.481073,35681.500,5702,2,ER,1,100,1.698944
1575568682.549468,35739.000,5702,2,ER,1,100,1.700918
1575568682.612511,35792.000,5720,2,ER,1,100,1.698300
1575568682.675553,35845.000,5720,2,ER,1,100,1.701321
1575568682.740975,35900.000,5738,2,ER,1,100,1.697252
1575568682.806396,35955.000,5738,2,ER,1,100,1.699025
1575568682.874197,36012.000,5755,2,ER,1,100,1.699186
1575568682.941997,36069.000,5755,2,ER,1,100,1.701321
1575568683.010987,36127.000,5773,1,ER,1,100,1.701845
1575568683.079977,36185.000,5791,2,ER,1,100,1.701845
1575568683.148967,36243.000,5791,2,ER,1,100,1.704221
1575568683.213199,36297.000,5809,2,ER,1,100,1.699830
1575568683.277431,36351.000,5809,2,ER,1,100,1.701160
1575568683.342257,36405.500,5827,2,ER,1,100,1.697494
1575568683.407084,36460.000,5827,2,ER,1,100,1.701039
1575568683.473695,36516.000,5845,2,ER,1,100,1.694835
1575568683.540306,36572.000,5845,2,ER,1,100,1.698380
1575568683.609296,36630.000,5863,1,ER,1,100,1.698944
1575568683.677096,36687.000,5880,2,ER,1,100,1.693667
1575568683.744897,36744.000,5880,2,ER,1,100,1.698501
1575568683.810318,36799.000,5898,2,ER,1,100,1.695923
1575568683.875740,36854.000,5898,2,ER,1,100,1.704141
1575568683.941161,36909.000,5917,2,ER,1,100,1.698340
1575568684.006582,36964.000,5917,2,ER,1,100,1.700153
1575568684.072004,37019.000,5933,2,ER,1,100,1.698098
1575568684.137425,37074.000,5933,2,ER,1,100,1.695762
1575568684.211173,37136.000,5951,1,ER,1,100,1.693949
1575568684.277784,37192.000,5969,2,ER,1,100,1.698944
1575568684.344395,37248.000,5969,2,ER,1,100,1.701079
1575568684.411601,37304.500,5987,2,ER,1,100,1.696245
1575568684.478806,37361.000,5987,2,ER,1,100,1.697011
1575568684.543038,37415.000,6005,2,ER,1,100,1.694553
1575568684.607270,37469.000,6005,2,ER,1,100,1.700515
1575568684.675467,37526.333,6026,3,ER,1,100,1.698461
1575568684.743664,37583.667,6026,3,ER,1,100,1.696527
1575568684.811861,37641.000,6026,3,ER,1,100,1.694553
1575568684.878472,37697.000,6047,1,ER,1,100,1.692418
1575568684.948057,37755.500,6065,2,ER,1,100,1.693143
1575568685.017641,37814.000,6065,2,ER,1,100,1.694392
1575568685.078900,37865.500,6083,2,ER,1,100,1.690525
1575568685.140158,37917.000,6083,2,ER,1,100,1.694513
1575568685.204390,37971.000,6101,2,ER,1,100,1.692217
1575568685.268622,38025.000,6101,2,ER,1,100,1.695238
1575568685.338206,38083.500,6119,2,ER,1,100,1.691733
1575568685.407791,38142.000,6119,2,ER,1,100,1.693304
1575568685.474402,38198.000,6137,2,ER,1,100,1.688108
1575568685.541013,38254.000,6137,2,ER,1,100,1.686053
1575568685.612382,38314.000,6155,1,ER,1,100,1.685248
1575568685.677208,38368.500,6172,2,ER,1,100,1.683556
1575568685.742035,38423.000,6172,2,ER,1,100,1.683918
1575568685.805672,38476.500,6191,2,ER,1,100,1.679930
1575568685.869310,38530.000,6191,2,ER,1,100,1.686013
1575568685.937705,38587.500,6209,2,ER,1,100,1.684724
1575568686.006100,38645.000,6209,2,ER,1,100,1.682710
1575568686.074495,38702.500,6225,2,ER,1,100,1.686013
1575568686.142890,38760.000,6225,2,ER,1,100,1.682307
1575568686.211880,38818.000,6243,1,ER,1,100,1.682549
1575568686.277896,38873.500,6261,2,ER,1,100,1.677795
1575568686.343913,38929.000,6261,2,ER,1,100,1.682025
1575568686.408739,38983.500,6279,2,ER,1,100,1.681663
1575568686.473566,39038.000,6279,2,ER,1,100,1.682428
1575568686.538987,39093.000,6297,2,ER,1,100,1.675096
1575568686.604409,39148.000,6297,2,ER,1,100,1.676305
1575568686.672209,39205.000,6315,2,ER,1,100,1.679004
1575568686.740010,39262.000,6315,2,ER,1,100,1.675580
1575568686.809000,39320.000,6333,1,ER,1,100,1.679729
1575568686.876205,39376.500,6351,2,ER,1,100,1.675177
1575568686.943411,39433.000,6351,2,ER,1,100,1.679286
1575568687.007048,39486.500,6369,2,ER,1,100,1.675660
1575568687.070685,39540.000,6369,2,ER,1,100,1.679648
1575568687.136107,39595.000,6387,2,ER,1,100,1.676668
1575568687.201528,39650.000,6387,2,ER,1,100,1.680092
1575568687.268734,39706.500,6403,2,ER,1,100,1.679366
1575568687.335940,39763.000,6403,2,ER,1,100,1.679810
1575568687.408498,39824.000,6421,1,ER,1,100,1.681219
1575568687.475109,39880.000,6439,2,ER,1,100,1.681219
1575568687.541720,39936.000,6439,2,ER,1,100,1.682589
1575568687.605357,39989.500,6457,2,ER,1,100,1.680817
1575568687.668994,40043.000,6457,2,ER,1,100,1.683435
1575568687.735605,40099.000,6475,2,ER,1,100,1.682629
1575568687.802216,40155.000,6475,2,ER,1,100,1.685812
1575568687.868827,40211.000,6494,2,ER,1,100,1.683395
1575568687.935438,40267.000,6494,2,ER,1,100,1.686698
1575568688.007997,40328.000,6512,1,ER,1,100,1.685127
1575568688.076392,40385.500,6529,2,ER,1,100,1.685409
1575568688.144787,40443.000,6529,2,ER,1,100,1.689961
1575568688.208424,40496.500,6547,2,ER,1,100,1.688390
1575568688.272061,40550.000,6547,2,ER,1,100,1.689921
1575568688.336888,40604.500,6565,2,ER,1,100,1.688027
1575568688.401715,40659.000,6565,2,ER,1,100,1.691975
1575568688.468920,40715.500,6581,2,ER,1,100,1.688350
1575568688.536126,40772.000,6581,2,ER,1,100,1.691814
1575568688.607495,40832.000,6599,1,ER,1,100,1.693143
1575568688.674106,40888.000,6617,2,ER,1,100,1.696769
1575568688.740717,40944.000,6617,2,ER,1,100,1.695762
1575568688.804949,40998.000,6635,2,ER,1,100,1.691451
1575568688.869181,41052.000,6635,2,ER,1,100,1.699266
1575568688.933413,41106.000,6654,2,ER,1,100,1.696648
1575568688.997645,41160.000,6654,2,ER,1,100,1.700193
1575568689.065445,41217.000,6672,2,ER,1,100,1.694755
1575568689.133245,41274.000,6672,2,ER,1,100,1.701401
1575568689.199262,41329.500,6690,2,ER,1,100,1.702449
1575568689.265278,41385.000,6690,2,ER,1,100,1.701482
1575568689.335457,41444.000,6708,1,ER,1,100,1.703093
1575568689.403258,41501.000,6725,2,ER,1,100,1.702006
1575568689.471058,41558.000,6725,2,ER,1,100,1.703335
1575568689.542427,41618.000,6743,2,ER,1,100,1.701361
1575568689.613796,41678.000,6743,2,ER,1,100,1.704262
1575568689.676244,41730.500,6759,2,ER,1,100,1.703697
1575568689.738691,41783.000,6759,2,ER,1,100,1.702852
1575568689.802923,41837.000,6777,2,ER,1,100,1.703214
1575568689.867155,41891.000,6777,2,ER,1,100,1.702086
1575568689.936145,41949.000,6796,1,ER,1,100,1.702771
1575568690.003946,42006.000,6814,2,ER,1,100,1.702046
1575568690.071746,42063.000,6814,2,ER,1,100,1.703899
1575568690.143115,42123.000,6832,2,ER,1,100,1.701804
1575568690.214484,42183.000,6832,2,ER,1,100,1.703859
1575568690.277526,42236.000,6850,2,ER,1,100,1.703375
1575568690.340569,42289.000,6850,2,ER,1,100,1.702529
1575568690.405396,42343.500,6868,2,ER,1,100,1.702449
1575568690.470222,42398.000,6868,2,ER,1,100,1.701764
1575568690.538023,42455.000,6886,1,ER,1,100,1.703899
1575568690.605228,42511.500,6903,2,ER,1,100,1.702287
1575568690.672434,42568.000,6903,2,ER,1,100,1.705188
1575568690.741027,42625.667,6924,3,ER,1,100,1.704624
1575568690.809621,42683.333,6924,3,ER,1,100,1.706477
1575568690.878214,42741.000,6924,3,ER,1,100,1.697695
1575568690.940662,42793.500,6945,2,ER,1,100,1.699387
1575568691.003110,42846.000,6945,2,ER,1,100,1.702811
1575568691.067936,42900.500,6963,2,ER,1,100,1.700314
1575568691.132763,42955.000,6963,2,ER,1,100,1.700153
1575568691.202942,43014.000,6981,1,ER,1,100,1.698219
1575568691.270148,43070.500,6998,2,ER,1,100,1.697655
1575568691.337354,43127.000,6998,2,ER,1,100,1.699951
1575568691.406938,43185.500,7016,2,ER,1,100,1.694956
1575568691.476523,43244.000,7016,2,ER,1,100,1.694070
1575568691.540755,43298.000,7032,2,ER,1,100,1.692499
1575568691.604987,43352.000,7032,2,ER,1,100,1.697212
1575568691.668030,43405.000,7050,2,ER,1,100,1.695117
1575568691.731072,43458.000,7050,2,ER,1,100,1.696326
1575568691.800062,43516.000,7068,1,ER,1,100,1.693949
1575568691.867862,43573.000,7087,2,ER,1,100,1.693063
1575568691.935663,43630.000,7087,2,ER,1,100,1.695359
1575568692.004653,43688.000,7105,2,ER,1,100,1.691170
1575568692.073642,43746.000,7105,2,ER,1,100,1.693506
1575568692.137280,43799.500,7123,2,ER,1,100,1.690404
1575568692.200917,43853.000,7123,2,ER,1,100,1.692338
1575568692.263959,43906.000,7141,2,ER,1,100,1.691774
1575568692.327002,43959.000,7141,2,ER,1,100,1.693465
1575568692.394208,44015.500,7159,2,ER,1,100,1.693707
1575568692.461413,44072.000,7159,2,ER,1,100,1.694271
1575568692.529214,44129.000,7177,1,ER,1,100,1.697695
1575568692.598204,44187.000,7194,2,ER,1,100,1.691653
1575568692.667194,44245.000,7194,2,ER,1,100,1.694392
1575568692.733210,44300.500,7212,2,ER,1,100,1.693345
1575568692.799226,44356.000,7212,2,ER,1,100,1.695641
1575568692.864053,44410.500,7229,2,ER,1,100,1.694191
1575568692.928879,44465.000,7229,2,ER,1,100,1.696527
1575568692.991922,44518.000,7247,2,ER,1,100,1.695721
1575568693.054964,44571.000,7247,2,ER,1,100,1.696285
1575568693.123954,44629.000,7265,1,ER,1,100,1.697011
1575568693.186997,44682.000,7283,2,ER,1,100,1.695319
1575568693.250039,44735.000,7283,2,ER,1,100,1.697655
1575568693.315461,44790.000,7301,2,ER,1,100,1.694634
1575568693.380882,44845.000,7301,2,ER,1,100,1.697494
1575568693.448088,44901.500,7319,2,ER,1,100,1.693385
1575568693.515294,44958.000,7319,2,ER,1,100,1.696849
1575568693.582499,45014.500,7337,2,ER,1,100,1.694513
1575568693.649705,45071.000,7337,2,ER,1,100,1.697131
1575568693.721074,45131.000,7355,1,ER,1,100,1.696728
1575568693.785306,45185.000,7373,2,ER,1,100,1.695883
1575568693.849538,45239.000,7373,2,ER,1,100,1.697131
1575568693.914364,45293.500,7391,2,ER,1,100,1.694634
1575568693.979191,45348.000,7391,2,ER,1,100,1.697534
1575568694.046397,45404.500,7409,2,ER,1,100,1.694553
1575568694.113602,45461.000,7409,2,ER,1,100,1.698179
1575568694.183187,45519.500,7427,2,ER,1,100,1.694795
1575568694.252772,45578.000,7427,2,ER,1,100,1.697333
1575568694.320572,45635.000,7443,1,ER,1,100,1.696769
1575568694.387183,45691.000,7461,2,ER,1,100,1.695198
1575568694.453794,45747.000,7461,2,ER,1,100,1.697131
1575568694.516836,45800.000,7479,2,ER,1,100,1.692257
1575568694.579879,45853.000,7479,2,ER,1,100,1.694432
1575568694.645895,45908.500,7497,2,ER,1,100,1.690122
1575568694.711911,45964.000,7497,2,ER,1,100,1.692177
1575568694.780901,46022.000,7515,2,ER,1,100,1.688188
1575568694.849891,46080.000,7515,2,ER,1,100,1.690001
1575568694.916502,46136.000,7534,1,ER,1,100,1.688551
1575568694.984303,46193.000,7551,2,ER,1,100,1.688068
1575568695.052103,46250.000,7551,2,ER,1,100,1.690001
1575568695.115740,46303.500,7569,2,ER,1,100,1.686416
1575568695.179377,46357.000,7569,2,ER,1,100,1.688994
1575568695.245394,46412.500,7587,2,ER,1,100,1.685892
1575568695.311410,46468.000,7587,2,ER,1,100,1.687302
1575568695.380995,46526.500,7605,2,ER,1,100,1.683798
1575568695.450579,46585.000,7605,2,ER,1,100,1.685771
1575568695.518379,46642.000,7621,1,ER,1,100,1.682589
1575568695.586775,46699.500,7639,2,ER,1,100,1.681783
1575568695.655170,46757.000,7639,2,ER,1,100,1.681058
1575568695.718807,46810.500,7657,2,ER,1,100,1.675258
1575568695.782444,46864.000,7657,2,ER,1,100,1.675902
1575568695.847866,46919.000,7676,2,ER,1,100,1.673163
1575568695.913287,46974.000,7676,2,ER,1,100,1.675096
1575568695.981682,47031.500,7694,2,ER,1,100,1.669819
1575568696.050077,47089.000,7694,2,ER,1,100,1.670907
1575568696.117878,47146.000,7712,1,ER,1,100,1.668691
1575568696.186273,47203.500,7730,2,ER,1,100,1.666677
1575568696.254668,47261.000,7730,2,ER,1,100,1.668691
1575568696.316521,47313.000,7747,2,ER,1,100,1.666919
1575568696.378374,47365.000,7747,2,ER,1,100,1.668772
1575568696.443201,47419.500,7765,2,ER,1,100,1.665831
1575568696.508028,47474.000,7765,2,ER,1,100,1.669336
1575568696.576423,47531.500,7783,2,ER,1,100,1.666758
1575568696.644818,47589.000,7783,2,ER,1,100,1.669054
1575568696.714403,47647.500,7799,2,ER,1,100,1.668288
1575568696.783987,47706.000,7799,2,ER,1,100,1.669094
1575568696.852382,47763.500,7821,2,ER,1,100,1.669981
1575568696.920778,47821.000,7821,2,ER,1,100,1.669537
1575568696.989768,47879.000,7841,2,ER,1,100,1.671028
1575568697.058757,47937.000,7841,2,ER,1,100,1.675096
1575568697.122989,47991.000,7859,2,ER,1,100,1.673968
1575568697.187221,48045.000,7859,2,ER,1,100,1.676748
1575568697.251453,48099.000,7877,2,ER,1,100,1.677795
1575568697.315685,48153.000,7877,2,ER,1,100,1.681783
1575568697.382296,48209.000,7893,2,ER,1,100,1.672075
1575568697.448907,48265.000,7893,2,ER,1,100,1.672438
1575568697.520276,48325.000,7911,1,ER,1,100,1.671390
1575568697.587482,48381.500,7929,2,ER,1,100,1.667563
1575568697.654687,48438.000,7929,2,ER,1,100,1.667926
1575568697.726651,48498.500,7947,2,ER,1,100,1.662931
1575568697.798615,48559.000,7947,2,ER,1,100,1.666395
1575568697.866415,48616.000,7966,2,ER,1,100,1.665751
1575568697.934215,48673.000,7966,2,ER,1,100,1.667644
1575568697.998447,48727.000,7984,1,ER,1,100,1.667080
1575568698.060895,48779.500,8002,2,ER,1,100,1.665428
1575568698.123343,48832.000,8002,2,ER,1,100,1.659869
1575568698.191738,48889.500,8019,2,ER,1,100,1.657573
1575568698.260133,48947.000,8019,2,ER,1,100,1.668047
1575568698.327934,49004.000,8037,2,ER,1,100,1.669578
1575568698.395734,49061.000,8037,2,ER,1,100,1.675217
1575568698.464724,49119.000,8053,2,ER,1,100,1.679326
1575568698.533714,49177.000,8053,2,ER,1,100,1.676144
1575568698.599135,49232.000,8071,1,ER,1,100,1.685409
1575568698.662178,49285.000,8089,2,ER,1,100,1.685369
1575568698.725220,49338.000,8089,2,ER,1,100,1.683717
1575568698.791831,49394.000,8108,2,ER,1,100,1.682750
1575568698.858442,49450.000,8108,2,ER,1,100,1.685892
1575568698.926243,49507.000,8126,2,ER,1,100,1.683757
1575568698.994043,49564.000,8126,2,ER,1,100,1.687584
1575568699.062438,49621.500,8144,2,ER,1,100,1.686577
1575568699.130833,49679.000,8144,2,ER,1,100,1.689034
1575568699.201013,49738.000,8162,1,ER,1,100,1.690283
1575568699.262271,49789.500,8179,2,ER,1,100,1.689155
1575568699.323529,49841.000,8179,2,ER,1,100,1.692378
1575568699.390140,49897.000,8197,2,ER,1,100,1.690323
1575568699.456751,49953.000,8197,2,ER,1,100,1.694150
1575568699.526336,50011.500,8215,2,ER,1,100,1.691210
1575568699.595920,50070.000,8215,2,ER,1,100,1.695319
1575568699.662531,50126.000,8231,2,ER,1,100,1.693465
1575568699.729142,50182.000,8231,2,ER,1,100,1.694674
1575568699.802890,50244.000,8249,1,ER,1,100,1.694029
1575568699.864148,50295.500,8268,2,ER,1,100,1.691612
1575568699.925407,50347.000,8268,2,ER,1,100,1.696003
1575568699.991423,50402.500,8286,2,ER,1,100,1.694029
1575568700.057439,50458.000,8286,2,ER,1,100,1.697252
1575568700.127618,50517.000,8304,2,ER,1,100,1.694956
1575568700.197798,50576.000,8304,2,ER,1,100,1.700435
1575568700.264409,50632.000,8322,2,ER,1,100,1.697816
1575568700.331020,50688.000,8322,2,ER,1,100,1.700233
1575568700.402389,50748.000,8340,1,ER,1,100,1.698380
1575568700.463052,50799.000,8357,2,ER,1,100,1.698541
1575568700.523715,50850.000,8357,2,ER,1,100,1.702489
1575568700.587948,50904.000,8375,2,ER,1,100,1.698420
1575568700.652179,50958.000,8375,2,ER,1,100,1.702086
1575568700.722359,51017.000,8393,2,ER,1,100,1.699468
1575568700.792538,51076.000,8393,2,ER,1,100,1.701119
1575568700.860934,51133.500,8411,2,ER,1,100,1.699266
1575568700.929329,51191.000,8411,2,ER,1,100,1.701039
1575568701.000697,51251.000,8428,1,ER,1,100,1.701965
1575568701.068498,51308.000,8446,2,ER,1,100,1.700555
1575568701.136298,51365.000,8446,2,ER,1,100,1.704060
1575568701.204694,51422.500,8464,2,ER,1,100,1.698098
1575568701.273089,51480.000,8464,2,ER,1,100,1.701079
1575568701.336726,51533.500,8482,2,ER,1,100,1.695520
1575568701.400363,51587.000,8482,2,ER,1,100,1.698662
1575568701.465785,51642.000,8500,2,ER,1,100,1.697897
1575568701.531206,51697.000,8500,2,ER,1,100,1.699468
1575568701.599006,51754.000,8518,1,ER,1,100,1.697897
1575568701.667402,51811.500,8535,2,ER,1,100,1.696527
1575568701.735797,51869.000,8535,2,ER,1,100,1.693586
1575568701.804787,51927.000,8553,2,ER,1,100,1.685288
1575568701.873776,51985.000,8553,2,ER,1,100,1.675137
1575568701.938009,52039.000,8570,2,ER,1,100,1.683395
1575568702.002240,52093.000,8570,2,ER,1,100,1.687745
1575568702.067067,52147.500,8588,2,ER,1,100,1.687101
1575568702.131894,52202.000,8588,2,ER,1,100,1.690283
1575568702.195531,52255.500,8606,2,ER,1,100,1.687181
1575568702.259168,52309.000,8606,2,ER,1,100,1.685409
1575568702.324590,52364.000,8624,1,ER,1,100,1.686940
1575568702.392985,52421.500,8642,2,ER,1,100,1.684926
1575568702.461380,52479.000,8642,2,ER,1,100,1.688873
1575568702.529181,52536.000,8660,2,ER,1,100,1.686456
1575568702.596981,52593.000,8660,2,ER,1,100,1.688994
1575568702.664781,52650.000,8678,2,ER,1,100,1.687624
1575568702.732582,52707.000,8678,2,ER,1,100,1.690605
1575568702.796219,52760.500,8696,2,ER,1,100,1.691572
1575568702.859856,52814.000,8696,2,ER,1,100,1.690485
1575568702.925278,52869.000,8718,2,ER,1,100,1.692781
1575568702.990699,52924.000,8718,2,ER,1,100,1.692177
1575568703.057905,52980.500,8738,2,ER,1,100,1.692861
1575568703.125111,53037.000,8738,2,ER,1,100,1.695439
1575568703.194695,53095.500,8756,2,ER,1,100,1.697373
1575568703.264280,53154.000,8756,2,ER,1,100,1.700555
1575568703.331486,53210.500,8774,2,ER,1,100,1.697212
1575568703.398691,53267.000,8774,2,ER,1,100,1.699629
1575568703.460544,53319.000,8792,2,ER,1,100,1.700878
1575568703.522397,53371.000,8792,2,ER,1,100,1.701482
1575568703.592577,53430.000,8810,1,ER,1,100,1.700999
1575568703.658593,53485.500,8827,2,ER,1,100,1.701240
1575568703.724609,53541.000,8827,2,ER,1,100,1.704302
1575568703.794194,53599.500,8845,2,ER,1,100,1.701442
1575568703.863778,53658.000,8845,2,ER,1,100,1.707484
1575568703.932173,53715.500,8862,2,ER,1,100,1.701925
1575568704.000569,53773.000,8862,2,ER,1,100,1.702690
1575568704.062422,53825.000,8880,2,ER,1,100,1.702126
1575568704.124274,53877.000,8880,2,ER,1,100,1.702328
1575568704.190886,53933.000,8898,1,ER,1,100,1.704262
1575568704.258091,53989.500,8916,2,ER,1,100,1.703416
1575568704.325297,54046.000,8916,2,ER,1,100,1.706195
1575568704.394287,54104.000,8934,2,ER,1,100,1.705148
1575568704.463277,54162.000,8934,2,ER,1,100,1.708209
1575568704.531077,54219.000,8952,2,ER,1,100,1.704100
1575568704.598877,54276.000,8952,2,ER,1,100,1.707444
1575568704.660731,54328.000,8970,2,ER,1,100,1.707847
1575568704.722584,54380.000,8970,2,ER,1,100,1.705148
1575568704.788005,54435.000,8988,2,ER,1,100,1.702852
1575568704.853426,54490.000,8988,2,ER,1,100,1.701563
1575568704.922416,54548.000,9007,1,ER,1,100,1.698018
1575568704.987838,54603.000,9024,2,ER,1,100,1.699145
1575568705.053259,54658.000,9024,2,ER,1,100,1.699589
1575568705.123439,54717.000,9042,2,ER,1,100,1.694634
1575568705.193618,54776.000,9042,2,ER,1,100,1.695681
1575568705.262013,54833.500,9058,2,ER,1,100,1.691170
1575568705.330408,54891.000,9058,2,ER,1,100,1.689397
1575568705.402967,54952.000,9076,1,ER,1,100,1.689518
1575568705.465414,55004.500,9094,2,ER,1,100,1.684885
1575568705.527862,55057.000,9094,2,ER,1,100,1.683556
1575568705.592094,55111.000,9112,2,ER,1,100,1.679246
1575568705.656326,55165.000,9112,2,ER,1,100,1.680172
1575568705.725316,55223.000,9130,2,ER,1,100,1.675781
1575568705.794306,55281.000,9130,2,ER,1,100,1.679044
1575568705.862701,55338.500,9149,2,ER,1,100,1.675419
1575568705.931096,55396.000,9149,2,ER,1,100,1.676788
1575568706.002465,55456.000,9167,1,ER,1,100,1.677312
1575568706.066102,55509.500,9184,2,ER,1,100,1.676949
1575568706.129740,55563.000,9184,2,ER,1,100,1.679930
1575568706.193971,55617.000,9202,2,ER,1,100,1.677675
1575568706.258204,55671.000,9202,2,ER,1,100,1.681219
1575568706.325409,55727.500,9220,2,ER,1,100,1.680172
1575568706.392615,55784.000,9220,2,ER,1,100,1.683596
1575568706.459821,55840.500,9236,2,ER,1,100,1.683717
1575568706.527026,55897.000,9236,2,ER,1,100,1.685046
1575568706.598395,55957.000,9254,1,ER,1,100,1.686940
1575568706.663816,56012.000,9272,2,ER,1,100,1.686577
1575568706.729238,56067.000,9272,2,ER,1,100,1.692096
1575568706.792280,56120.000,9291,2,ER,1,100,1.689357
1575568706.855323,56173.000,9291,2,ER,1,100,1.693304
1575568706.923123,56230.000,9309,2,ER,1,100,1.690928
1575568706.990924,56287.000,9309,2,ER,1,100,1.696326
1575568707.058724,56344.000,9327,2,ER,1,100,1.695238
1575568707.126525,56401.000,9327,2,ER,1,100,1.696970
1575568707.197893,56461.000,9345,1,ER,1,100,1.697212
1575568707.263910,56516.500,9362,2,ER,1,100,1.696970
1575568707.329926,56572.000,9362,2,ER,1,100,1.699548
1575568707.393563,56625.500,9380,2,ER,1,100,1.695681
1575568707.457200,56679.000,9380,2,ER,1,100,1.698138
1575568707.523811,56735.000,9398,2,ER,1,100,1.692539
1575568707.590422,56791.000,9398,2,ER,1,100,1.693788
1575568707.658223,56848.000,9414,2,ER,1,100,1.691492
1575568707.726023,56905.000,9414,2,ER,1,100,1.692056
1575568707.797392,56965.000,9432,1,ER,1,100,1.689800
1575568707.862813,57020.000,9451,2,ER,1,100,1.687423
1575568707.928235,57075.000,9451,2,ER,1,100,1.688350
1575568707.991277,57128.000,9469,2,ER,1,100,1.684805
1575568708.054320,57181.000,9469,2,ER,1,100,1.686094
1575568708.120931,57237.000,9487,2,ER,1,100,1.681944
1575568708.187542,57293.000,9487,2,ER,1,100,1.684966
1575568708.254747,57349.500,9505,2,ER,1,100,1.682629
1575568708.321953,57406.000,9505,2,ER,1,100,1.682911
1575568708.390943,57464.000,9523,2,ER,1,100,1.682509
1575568708.459933,57522.000,9523,2,ER,1,100,1.682227
1575568708.528923,57580.000,9541,1,ER,1,100,1.685167
1575568708.591965,57633.000,9558,2,ER,1,100,1.683193
1575568708.655008,57686.000,9558,2,ER,1,100,1.686778
1575568708.721024,57741.500,9576,2,ER,1,100,1.684845
1575568708.787040,57797.000,9576,2,ER,1,100,1.689518
1575568708.850083,57850.000,9595,2,ER,1,100,1.686013
1575568708.913125,57903.000,9595,2,ER,1,100,1.690243
1575568708.980529,57959.667,9614,3,ER,1,100,1.689558
1575568709.047933,58016.333,9614,3,ER,1,100,1.691572
1575568709.115337,58073.000,9614,3,ER,1,100,1.691089
1575568709.180758,58128.000,9634,2,ER,1,100,1.692781
1575568709.246180,58183.000,9634,2,ER,1,100,1.696124
1575568709.316359,58242.000,9652,1,ER,1,100,1.697695
1575568709.383565,58298.500,9669,2,ER,1,100,1.697373
1575568709.450770,58355.000,9669,2,ER,1,100,1.700273
1575568709.520355,58413.500,9687,2,ER,1,100,1.697574
1575568709.589940,58472.000,9687,2,ER,1,100,1.701643
1575568709.652982,58525.000,9703,2,ER,1,100,1.702489
1575568709.716025,58578.000,9703,2,ER,1,100,1.704463
1575568709.780851,58632.500,9721,2,ER,1,100,1.704463
1575568709.845678,58687.000,9721,2,ER,1,100,1.704705
1575568709.914668,58745.000,9740,1,ER,1,100,1.706638
1575568709.984253,58803.500,9758,2,ER,1,100,1.705470
1575568710.053837,58862.000,9758,2,ER,1,100,1.708411
1575568710.123422,58920.500,9776,2,ER,1,100,1.706235
1575568710.193007,58979.000,9776,2,ER,1,100,1.710787
1575568710.254860,59031.000,9794,2,ER,1,100,1.709901
1575568710.316713,59083.000,9794,2,ER,1,100,1.708813
1575568710.382134,59138.000,9812,2,ER,1,100,1.710143
1575568710.447556,59193.000,9812,2,ER,1,100,1.710787
1575568710.512977,59248.000,9830,1,ER,1,100,1.713084
1575568710.581967,59306.000,9847,2,ER,1,100,1.710707
1575568710.650957,59364.000,9847,2,ER,1,100,1.712479
1575568710.720541,59422.500,9865,2,ER,1,100,1.711230
1575568710.790126,59481.000,9865,2,ER,1,100,1.714816
1575568710.852574,59533.500,9882,2,ER,1,100,1.713809
1575568710.915022,59586.000,9882,2,ER,1,100,1.713889
1575568710.979254,59640.000,9900,2,ER,1,100,1.715420
1575568711.043486,59694.000,9900,2,ER,1,100,1.715098
1575568711.107718,59748.000,9918,1,ER,1,100,1.715339
1575568711.177897,59807.000,9936,2,ER,1,100,1.714050
1575568711.248076,59866.000,9936,2,ER,1,100,1.716347
1575568711.318256,59925.000,9954,2,ER,1,100,1.714332
1575568711.388435,59984.000,9954,2,ER,1,100,1.718642
1575568711.452072,60037.500,9972,2,ER,1,100,1.716508
1575568711.515709,60091.000,9972,2,ER,1,100,1.717474
1575568711.579347,60144.500,9990,2,ER,1,100,1.717958
1575568711.642984,60198.000,9990,2,ER,1,100,1.718562
1575568711.710784,60255.000,10008,1,ER,1,100,1.718562
1575568711.779180,60312.500,10026,2,ER,1,100,1.717313
1575568711.847575,60370.000,10026,2,ER,1,100,1.719166
1575568711.917159,60428.500,10044,2,ER,1,100,1.716548
1575568711.986744,60487.000,10044,2,ER,1,100,1.720214
1575568712.049787,60540.000,10060,2,ER,1,100,1.717515
1575568712.112829,60593.000,10060,2,ER,1,100,1.718441
1575568712.176466,60646.500,10078,2,ER,1,100,1.717192
1575568712.240103,60700.000,10078,2,ER,1,100,1.716628
1575568712.305525,60755.000,10096,1,ER,1,100,1.716588
1575568712.373920,60812.500,10114,2,ER,1,100,1.715984
1575568712.442315,60870.000,10114,2,ER,1,100,1.719489
1575568712.511900,60928.500,10132,2,ER,1,100,1.717031
1575568712.581485,60987.000,10132,2,ER,1,100,1.720657
1575568712.650474,61045.000,10150,2,ER,1,100,1.721543
1575568712.719464,61103.000,10150,2,ER,1,100,1.719650
1575568712.790833,61163.000,10168,1,ER,1,100,1.709579
1575568712.856849,61218.500,10186,2,ER,1,100,1.711351
1575568712.922866,61274.000,10186,2,ER,1,100,1.712237
1575568712.986503,61327.500,10204,2,ER,1,100,1.711230
1575568713.050140,61381.000,10204,2,ER,1,100,1.713889
1575568713.116156,61436.500,10222,2,ER,1,100,1.712922
1575568713.182172,61492.000,10222,2,ER,1,100,1.732339
1575568713.249973,61549.000,10240,2,ER,1,100,1.707444
1575568713.317773,61606.000,10240,2,ER,1,100,1.709458
1575568713.386168,61663.500,10256,2,ER,1,100,1.714332
1575568713.454564,61721.000,10256,2,ER,1,100,1.712721
1575568713.524743,61780.000,10274,1,ER,1,100,1.713849
1575568713.587785,61833.000,10292,2,ER,1,100,1.709257
1575568713.650828,61886.000,10292,2,ER,1,100,1.707041
1575568713.716249,61941.000,10310,2,ER,1,100,1.700193
1575568713.781671,61996.000,10310,2,ER,1,100,1.706598
1575568713.849471,62053.000,10329,2,ER,1,100,1.707645
1575568713.917272,62110.000,10329,2,ER,1,100,1.710828
1575568713.985072,62167.000,10347,2,ER,1,100,1.709700
1575568714.052872,62224.000,10347,2,ER,1,100,1.709095
1575568714.119483,62280.000,10365,1,ER,1,100,1.710264
1575568714.188473,62338.000,10382,2,ER,1,100,1.707524
1575568714.257463,62396.000,10382,2,ER,1,100,1.710143
1575568714.324669,62452.500,10400,2,ER,1,100,1.708008
1575568714.391875,62509.000,10400,2,ER,1,100,1.710264
1575568714.454322,62561.500,10416,2,ER,1,100,1.708169
1575568714.516770,62614.000,10416,2,ER,1,100,1.708250
1575568714.582786,62669.500,10434,2,ER,1,100,1.708652
1575568714.648803,62725.000,10434,2,ER,1,100,1.707565
1575568714.715413,62781.000,10452,1,ER,1,100,1.708572
1575568714.784998,62839.500,10471,2,ER,1,100,1.706195
1575568714.854583,62898.000,10471,2,ER,1,100,1.708934
1575568714.924167,62956.500,10489,2,ER,1,100,1.703859
1575568714.993752,63015.000,10489,2,ER,1,100,1.708169
1575568715.057191,63068.333,10510,3,ER,1,100,1.706799
1575568715.120630,63121.667,10510,3,ER,1,100,1.706316
1575568715.184069,63175.000,10510,3,ER,1,100,1.704181
1575568715.249490,63230.000,10528,2,ER,1,100,1.705107
1575568715.314912,63285.000,10528,2,ER,1,100,1.709821
1575568715.388660,63347.000,10548,1,ER,1,100,1.711230
1575568715.455271,63403.000,10566,2,ER,1,100,1.709780
1575568715.521882,63459.000,10566,2,ER,1,100,1.715057
1575568715.589682,63516.000,10584,2,ER,1,100,1.704825
1575568715.657482,63573.000,10584,2,ER,1,100,1.706396
1575568715.721714,63627.000,10602,2,ER,1,100,1.702731
1575568715.785946,63681.000,10602,2,ER,1,100,1.705510
1575568715.852557,63737.000,10621,2,ER,1,100,1.702489
1575568715.919168,63793.000,10621,2,ER,1,100,1.707645
1575568715.990537,63853.000,10639,1,ER,1,100,1.706437
1575568716.057148,63909.000,10656,2,ER,1,100,1.698541
1575568716.123759,63965.000,10656,2,ER,1,100,1.706074
1575568716.190370,64021.000,10674,2,ER,1,100,1.700757
1575568716.256981,64077.000,10674,2,ER,1,100,1.702610
1575568716.319428,64129.500,10692,2,ER,1,100,1.700878
1575568716.381876,64182.000,10692,2,ER,1,100,1.702408
1575568716.447892,64237.500,10708,2,ER,1,100,1.701361
1575568716.513909,64293.000,10708,2,ER,1,100,1.701965
1575568716.585278,64353.000,10726,1,ER,1,100,1.701563
1575568716.653673,64410.500,10744,2,ER,1,100,1.699870
1575568716.722068,64468.000,10744,2,ER,1,100,1.702167
1575568716.790463,64525.500,10762,2,ER,1,100,1.699951
1575568716.858858,64583.000,10762,2,ER,1,100,1.702408
1575568716.929038,64642.000,10781,2,ER,1,100,1.699709
1575568716.999217,64701.000,10781,2,ER,1,100,1.700837
1575568717.067017,64758.000,10799,1,ER,1,100,1.700273
1575568717.130655,64811.500,10816,2,ER,1,100,1.699387
1575568717.194292,64865.000,10816,2,ER,1,100,1.701160
1575568717.259119,64919.500,10834,2,ER,1,100,1.693546
1575568717.323945,64974.000,10834,2,ER,1,100,1.698420
1575568717.391151,65030.500,10852,2,ER,1,100,1.696567
1575568717.458357,65087.000,10852,2,ER,1,100,1.701724
1575568717.527941,65145.500,10868,2,ER,1,100,1.699589
1575568717.597526,65204.000,10868,2,ER,1,100,1.697574
1575568717.666516,65262.000,10886,1,ER,1,100,1.696809
1575568717.731343,65316.500,10904,2,ER,1,100,1.699750
1575568717.796169,65371.000,10904,2,ER,1,100,1.702650
1575568717.859212,65424.000,10923,2,ER,1,100,1.699669
1575568717.922254,65477.000,10923,2,ER,1,100,1.702932
1575568717.990649,65534.500,10941,2,ER,1,100,1.700918
1575568718.059045,65592.000,10941,2,ER,1,100,1.703617
1575568718.126845,65649.000,10959,2,ER,1,100,1.700676
1575568718.194645,65706.000,10959,2,ER,1,100,1.702892
1575568718.264825,65765.000,10977,1,ER,1,100,1.701361
1575568718.329651,65819.500,10994,2,ER,1,100,1.703093
1575568718.394478,65874.000,10994,2,ER,1,100,1.702207
1575568718.457521,65927.000,11012,2,ER,1,100,1.698702
1575568718.520563,65980.000,11012,2,ER,1,100,1.701280
1575568718.587174,66036.000,11030,2,ER,1,100,1.698541
1575568718.653785,66092.000,11030,2,ER,1,100,1.700999
1575568718.723370,66150.500,11048,2,ER,1,100,1.698662
1575568718.792954,66209.000,11048,2,ER,1,100,1.701885
1575568718.861349,66266.500,11065,2,ER,1,100,1.700273
1575568718.929744,66324.000,11065,2,ER,1,100,1.700636
1575568718.995166,66379.000,11083,1,ER,1,100,1.701361
1575568719.057019,66431.000,11101,2,ER,1,100,1.698380
1575568719.118872,66483.000,11101,2,ER,1,100,1.702126
1575568719.186672,66540.000,11119,2,ER,1,100,1.699709
1575568719.254473,66597.000,11119,2,ER,1,100,1.700958
1575568719.324058,66655.500,11137,2,ER,1,100,1.698420
1575568719.393642,66714.000,11137,2,ER,1,100,1.701119
1575568719.460848,66770.500,11155,2,ER,1,100,1.701119
1575568719.528054,66827.000,11155,2,ER,1,100,1.700394
1575568719.593475,66882.000,11173,1,ER,1,100,1.701965
1575568719.655328,66934.000,11190,2,ER,1,100,1.700032
1575568719.717181,66986.000,11190,2,ER,1,100,1.702731
1575568719.782008,67040.500,11209,2,ER,1,100,1.698582
1575568719.846834,67095.000,11209,2,ER,1,100,1.702006
1575568719.917014,67154.000,11227,2,ER,1,100,1.699226
1575568719.987193,67213.000,11227,2,ER,1,100,1.701885
1575568720.053804,67269.000,11243,2,ER,1,100,1.700435
1575568720.120415,67325.000,11243,2,ER,1,100,1.701724
1575568720.190594,67384.000,11261,1,ER,1,100,1.701683
1575568720.252447,67436.000,11279,2,ER,1,100,1.700475
1575568720.314301,67488.000,11279,2,ER,1,100,1.701683
1575568720.379722,67543.000,11297,2,ER,1,100,1.699347
1575568720.445143,67598.000,11297,2,ER,1,100,1.702811
1575568720.511754,67654.000,11315,2,ER,1,100,1.698944
1575568720.578365,67710.000,11315,2,ER,1,100,1.702892
1575568720.646166,67767.000,11333,2,ER,1,100,1.699548
1575568720.713966,67824.000,11333,2,ER,1,100,1.701280
1575568720.779387,67879.000,11351,2,ER,1,100,1.700676
1575568720.844809,67934.000,11351,2,ER,1,100,1.700394
1575568720.912609,67991.000,11370,1,ER,1,100,1.701200
1575568720.981004,68048.500,11387,2,ER,1,100,1.699427
1575568721.049400,68106.000,11387,2,ER,1,100,1.700394
1575568721.117993,68163.667,11408,3,ER,1,100,1.698018
1575568721.186587,68221.333,11408,3,ER,1,100,1.701563
1575568721.255180,68279.000,11408,3,ER,1,100,1.697856
1575568721.318817,68332.500,11426,2,ER,1,100,1.697574
1575568721.382454,68386.000,11426,2,ER,1,100,1.700435
1575568721.447876,68441.000,11446,2,ER,1,100,1.698461
1575568721.513297,68496.000,11446,2,ER,1,100,1.698582
1575568721.583477,68555.000,11464,1,ER,1,100,1.698541
1575568721.651872,68612.500,11481,2,ER,1,100,1.697655
1575568721.720267,68670.000,11481,2,ER,1,100,1.698944
1575568721.789852,68728.500,11499,2,ER,1,100,1.696446
1575568721.859436,68787.000,11499,2,ER,1,100,1.699911
1575568721.921884,68839.500,11516,2,ER,1,100,1.703214
1575568721.984332,68892.000,11516,2,ER,1,100,1.701683
1575568722.048564,68946.000,11534,2,ER,1,100,1.698622
1575568722.112796,69000.000,11534,2,ER,1,100,1.698461
1575568722.181786,69058.000,11552,1,ER,1,100,1.698461
1575568722.249586,69115.000,11570,2,ER,1,100,1.697333
1575568722.317386,69172.000,11570,2,ER,1,100,1.699226
1575568722.386376,69230.000,11588,2,ER,1,100,1.695439
1575568722.455366,69288.000,11588,2,ER,1,100,1.699105
1575568722.517814,69340.500,11606,2,ER,1,100,1.693063
1575568722.580262,69393.000,11606,2,ER,1,100,1.691371
1575568722.644494,69447.000,11624,2,ER,1,100,1.693224
1575568722.708726,69501.000,11624,2,ER,1,100,1.697011
1575568722.777716,69559.000,11642,1,ER,1,100,1.697736
1575568722.845516,69616.000,11660,2,ER,1,100,1.698823
1575568722.913316,69673.000,11660,2,ER,1,100,1.723678
1575568722.982901,69731.500,11678,2,ER,1,100,1.694875
1575568723.052486,69790.000,11678,2,ER,1,100,1.698541
1575568723.117907,69845.000,11694,2,ER,1,100,1.696406
1575568723.183329,69900.000,11694,2,ER,1,100,1.697574
1575568723.245776,69952.500,11712,2,ER,1,100,1.696527
1575568723.308224,70005.000,11712,2,ER,1,100,1.694634
1575568723.376619,70062.500,11730,2,ER,1,100,1.684926
1575568723.445014,70120.000,11730,2,ER,1,100,1.697534
1575568723.512815,70177.000,11748,1,ER,1,100,1.701361
1575568723.581805,70235.000,11766,2,ER,1,100,1.700515
1575568723.650795,70293.000,11766,2,ER,1,100,1.701563
1575568723.715621,70347.500,11784,2,ER,1,100,1.699669
1575568723.780448,70402.000,11784,2,ER,1,100,1.701764
1575568723.842896,70454.500,11803,2,ER,1,100,1.699508
1575568723.905344,70507.000,11803,2,ER,1,100,1.700636
1575568723.972549,70563.500,11821,2,ER,1,100,1.700394
1575568724.039755,70620.000,11821,2,ER,1,100,1.699870
1575568724.107555,70677.000,11839,1,ER,1,100,1.701321
1575568724.176545,70735.000,11856,2,ER,1,100,1.700233
1575568724.245535,70793.000,11856,2,ER,1,100,1.701925
1575568724.312741,70849.500,11874,2,ER,1,100,1.699830
1575568724.379946,70906.000,11874,2,ER,1,100,1.702167
1575568724.445368,70961.000,11890,2,ER,1,100,1.699669
1575568724.510789,71016.000,11890,2,ER,1,100,1.701079
1575568724.573832,71069.000,11908,2,ER,1,100,1.699870
1575568724.636874,71122.000,11908,2,ER,1,100,1.698018
1575568724.705864,71180.000,11926,1,ER,1,100,1.698984
1575568724.769501,71233.500,11945,2,ER,1,100,1.698984
1575568724.833139,71287.000,11945,2,ER,1,100,1.702771
1575568724.897371,71341.000,11963,2,ER,1,100,1.700475
1575568724.961603,71395.000,11963,2,ER,1,100,1.702287
1575568725.028808,71451.500,11981,2,ER,1,100,1.700596
1575568725.096014,71508.000,11981,2,ER,1,100,1.704342
1575568725.163815,71565.000,11999,2,ER,1,100,1.701160
1575568725.231615,71622.000,11999,2,ER,1,100,1.704141
1575568725.302984,71682.000,12017,1,ER,1,100,1.703013
1575568725.368405,71737.000,12034,2,ER,1,100,1.702247
1575568725.433827,71792.000,12034,2,ER,1,100,1.703939
1575568725.497464,71845.500,12052,2,ER,1,100,1.700958
1575568725.561101,71899.000,12052,2,ER,1,100,1.703738
1575568725.627712,71955.000,12070,2,ER,1,100,1.700555
1575568725.694323,72011.000,12070,2,ER,1,100,1.703617
1575568725.763908,72069.500,12088,2,ER,1,100,1.700958
1575568725.833492,72128.000,12088,2,ER,1,100,1.704060
1575568725.901293,72185.000,12105,1,ER,1,100,1.702489
1575568725.969093,72242.000,12123,2,ER,1,100,1.701039
1575568726.036894,72299.000,12123,2,ER,1,100,1.704060
1575568726.099936,72352.000,12141,2,ER,1,100,1.700072
1575568726.162979,72405.000,12141,2,ER,1,100,1.702690
1575568726.228995,72460.500,12159,2,ER,1,100,1.699266
1575568726.295011,72516.000,12159,2,ER,1,100,1.701724
1575568726.364001,72574.000,12177,2,ER,1,100,1.699427
1575568726.432991,72632.000,12177,2,ER,1,100,1.702046
1575568726.499602,72688.000,12195,1,ER,1,100,1.702046
1575568726.567997,72745.500,12212,2,ER,1,100,1.702449
1575568726.636392,72803.000,12212,2,ER,1,100,1.704785
1575568726.700029,72856.500,12230,2,ER,1,100,1.704785
1575568726.763666,72910.000,12230,2,ER,1,100,1.730365
1575568726.829088,72965.000,12249,2,ER,1,100,1.694755
1575568726.894509,73020.000,12249,2,ER,1,100,1.701442
1575568726.962904,73077.500,12267,2,ER,1,100,1.697011
1575568727.031300,73135.000,12267,2,ER,1,100,1.698984
1575568727.099100,73192.000,12283,1,ER,1,100,1.699105
1575568727.165711,73248.000,12302,3,ER,1,100,1.699951
1575568727.232322,73304.000,12302,3,ER,1,100,1.697816
1575568727.298933,73360.000,12302,3,ER,1,100,1.696084
1575568727.362570,73413.500,12324,2,ER,1,100,1.693627
1575568727.426207,73467.000,12324,2,ER,1,100,1.681300
1575568727.494602,73524.500,12342,2,ER,1,100,1.681743
1575568727.562998,73582.000,12342,2,ER,1,100,1.704463
1575568727.630798,73639.000,12360,2,ER,1,100,1.753286
1575568727.698599,73696.000,12360,2,ER,1,100,1.814315
1575568727.767588,73754.000,12376,2,ER,1,100,1.774475
1575568727.836578,73812.000,12376,2,ER,1,100,1.714010
1575568727.897242,73863.000,12395,1,ER,1,100,1.678077
1575568727.960879,73916.500,12413,2,ER,1,100,1.652779
1575568728.024516,73970.000,12413,2,ER,1,100,1.653746
1575568728.092317,74027.000,12431,2,ER,1,100,1.654955
1575568728.160117,74084.000,12431,2,ER,1,100,1.654109
1575568728.227323,74140.500,12449,2,ER,1,100,1.668571
1575568728.294528,74197.000,12449,2,ER,1,100,1.681139
1575568728.363518,74255.000,12467,2,ER,1,100,1.678923
1575568728.432508,74313.000,12467,2,ER,1,100,1.687947
1575568728.505067,74374.000,12485,1,ER,1,100,1.692217
1575568728.574057,74432.000,12502,2,ER,1,100,1.692579
1575568728.643046,74490.000,12502,2,ER,1,100,1.717555
1575568728.708468,74545.000,12520,2,ER,1,100,1.712278
1575568728.773889,74600.000,12520,2,ER,1,100,1.704906
1575568728.836337,74652.500,12537,2,ER,1,100,1.701280
1575568728.898785,74705.000,12537,2,ER,1,100,1.706477
1575568728.965396,74761.000,12555,2,ER,1,100,1.705752
1575568729.032007,74817.000,12555,2,ER,1,100,1.716951
1575568729.102186,74876.000,12573,1,ER,1,100,1.716951
1575568729.169986,74933.000,12591,2,ER,1,100,1.692378
1575568729.237787,74990.000,12591,2,ER,1,100,1.690605
1575568729.309751,75050.500,12609,2,ER,1,100,1.687423
1575568729.381714,75111.000,12609,2,ER,1,100,1.681985
1575568729.448325,75167.000,12627,1,ER,1,100,1.688914
1575568729.516125,75224.000,12645,2,ER,1,100,1.692861
1575568729.583926,75281.000,12645,2,ER,1,100,1.694875
1575568729.646968,75334.000,12662,2,ER,1,100,1.693667
1575568729.710011,75387.000,12662,2,ER,1,100,1.699870
1575568729.777217,75443.500,12681,2,ER,1,100,1.701683
1575568729.844422,75500.000,12681,2,ER,1,100,1.704906
1575568729.912223,75557.000,12699,2,ER,1,100,1.696769
1575568729.980023,75614.000,12699,2,ER,1,100,1.701683
1575568730.048418,75671.500,12715,2,ER,1,100,1.695480
1575568730.116813,75729.000,12715,2,ER,1,100,1.688632
1575568730.184614,75786.000,12733,1,ER,1,100,1.686698
1575568730.247061,75838.500,12751,2,ER,1,100,1.686497
1575568730.309509,75891.000,12751,2,ER,1,100,1.692861
1575568730.375525,75946.500,12769,2,ER,1,100,1.692861
1575568730.441542,76002.000,12769,2,ER,1,100,1.696124
1575568730.509937,76059.500,12787,2,ER,1,100,1.696366
1575568730.578332,76117.000,12787,2,ER,1,100,1.704141
1575568730.645538,76173.500,12805,2,ER,1,100,1.705631
1575568730.712743,76230.000,12805,2,ER,1,100,1.701119
1575568730.785302,76291.000,12823,1,ER,1,100,1.697011
1575568730.846560,76342.500,12841,2,ER,1,100,1.692579
1575568730.907818,76394.000,12841,2,ER,1,100,1.694634
1575568730.973835,76449.500,12859,2,ER,1,100,1.692499
1575568731.039851,76505.000,12859,2,ER,1,100,1.696406
1575568731.109435,76563.500,12877,2,ER,1,100,1.693949
1575568731.179020,76622.000,12877,2,ER,1,100,1.696890
1575568731.245631,76678.000,12893,2,ER,1,100,1.695439
1575568731.312242,76734.000,12893,2,ER,1,100,1.697453
1575568731.387179,76797.000,12911,1,ER,1,100,1.698662
1575568731.448437,76848.500,12929,2,ER,1,100,1.696769
1575568731.509696,76900.000,12929,2,ER,1,100,1.700314
1575568731.575712,76955.500,12947,2,ER,1,100,1.697131
1575568731.641728,77011.000,12947,2,ER,1,100,1.700797
1575568731.711907,77070.000,12965,2,ER,1,100,1.698823
1575568731.782087,77129.000,12965,2,ER,1,100,1.701603
1575568731.848698,77185.000,12984,2,ER,1,100,1.699266
1575568731.915309,77241.000,12984,2,ER,1,100,1.699548
1575568731.986677,77301.000,13002,1,ER,1,100,1.701079
1575568732.048531,77353.000,13019,2,ER,1,100,1.699186
1575568732.110384,77405.000,13019,2,ER,1,100,1.701522
1575568732.174616,77459.000,13037,2,ER,1,100,1.697977
1575568732.238847,77513.000,13037,2,ER,1,100,1.699307
1575568732.308432,77571.500,13055,2,ER,1,100,1.697051
1575568732.378017,77630.000,13055,2,ER,1,100,1.699508
1575568732.446412,77687.500,13071,2,ER,1,100,1.697011
1575568732.514807,77745.000,13071,2,ER,1,100,1.696970
1575568732.584986,77804.000,13089,1,ER,1,100,1.696849
1575568732.651597,77860.000,13107,2,ER,1,100,1.692620
1575568732.718208,77916.000,13107,2,ER,1,100,1.694231
1575568732.788388,77975.000,13125,2,ER,1,100,1.690525
1575568732.858567,78034.000,13125,2,ER,1,100,1.693546
1575568732.922204,78087.500,13144,2,ER,1,100,1.689760
1575568732.985842,78141.000,13144,2,ER,1,100,1.689437
1575568733.050074,78195.000,13162,2,ER,1,100,1.687343
1575568733.114305,78249.000,13162,2,ER,1,100,1.688108
1575568733.182106,78306.000,13180,1,ER,1,100,1.688188
1575568733.250699,78363.667,13200,3,ER,1,100,1.685812
1575568733.319293,78421.333,13200,3,ER,1,100,1.688390
1575568733.387886,78479.000,13200,3,ER,1,100,1.685651
1575568733.455092,78535.500,13220,2,ER,1,100,1.685288
1575568733.522297,78592.000,13220,2,ER,1,100,1.688914
1575568733.585935,78645.500,13238,2,ER,1,100,1.685973
1575568733.649572,78699.000,13238,2,ER,1,100,1.688027
1575568733.714993,78754.000,13256,2,ER,1,100,1.685812
1575568733.780415,78809.000,13256,2,ER,1,100,1.687947
1575568733.848215,78866.000,13275,1,ER,1,100,1.687786
1575568733.916016,78923.000,13292,2,ER,1,100,1.688591
1575568733.983816,78980.000,13292,2,ER,1,100,1.689437
1575568734.052806,79038.000,13310,2,ER,1,100,1.687141
1575568734.121796,79096.000,13310,2,ER,1,100,1.690686
1575568734.184839,79149.000,13328,2,ER,1,100,1.689679
1575568734.247881,79202.000,13328,2,ER,1,100,1.692136
1575568734.311518,79255.500,13344,2,ER,1,100,1.690928
1575568734.375155,79309.000,13344,2,ER,1,100,1.693828
1575568734.442956,79366.000,13362,2,ER,1,100,1.693345
1575568734.510756,79423.000,13362,2,ER,1,100,1.693748
1575568734.582125,79483.000,13380,1,ER,1,100,1.695480
1575568734.650520,79540.500,13398,2,ER,1,100,1.693627
1575568734.718915,79598.000,13398,2,ER,1,100,1.697011
1575568734.782553,79651.500,13416,2,ER,1,100,1.695117
1575568734.846190,79705.000,13416,2,ER,1,100,1.697051
1575568734.911611,79760.000,13435,2,ER,1,100,1.696044
1575568734.977033,79815.000,13435,2,ER,1,100,1.698098
1575568735.043644,79871.000,13453,2,ER,1,100,1.697333
1575568735.110255,79927.000,13453,2,ER,1,100,1.698259
1575568735.181623,79987.000,13471,1,ER,1,100,1.699508
1575568735.249424,80044.000,13488,2,ER,1,100,1.697856
1575568735.317224,80101.000,13488,2,ER,1,100,1.697011
1575568735.381456,80155.000,13506,2,ER,1,100,1.698219
1575568735.445688,80209.000,13506,2,ER,1,100,1.703214
1575568735.509326,80262.500,13524,2,ER,1,100,1.700878
1575568735.572963,80316.000,13524,2,ER,1,100,1.703778
1575568735.638979,80371.500,13540,2,ER,1,100,1.699105
1575568735.704995,80427.000,13540,2,ER,1,100,1.698420
1575568735.777554,80488.000,13558,1,ER,1,100,1.703013
1575568735.844164,80544.000,13577,2,ER,1,100,1.702408
1575568735.910775,80600.000,13577,2,ER,1,100,1.705309
1575568735.977386,80656.000,13595,2,ER,1,100,1.702892
1575568736.043997,80712.000,13595,2,ER,1,100,1.705309
1575568736.106445,80764.500,13613,2,ER,1,100,1.703778
1575568736.168893,80817.000,13613,2,ER,1,100,1.706316
1575568736.236098,80873.500,13631,2,ER,1,100,1.704584
1575568736.303304,80930.000,13631,2,ER,1,100,1.706074
1575568736.368726,80985.000,13649,2,ER,1,100,1.704745
1575568736.434147,81040.000,13649,2,ER,1,100,1.703174
1575568736.505516,81100.000,13667,1,ER,1,100,1.701965
1575568736.572721,81156.500,13684,2,ER,1,100,1.706114
1575568736.639927,81213.000,13684,2,ER,1,100,1.705953
1575568736.711891,81273.500,13700,2,ER,1,100,1.703778
1575568736.783854,81334.000,13700,2,ER,1,100,1.706477
1575568736.849276,81389.000,13719,1,ER,1,100,1.704262
1575568736.920645,81449.000,13737,2,ER,1,100,1.699105
1575568736.992014,81509.000,13737,2,ER,1,100,1.702408
1575568737.055651,81562.500,13755,2,ER,1,100,1.705027
1575568737.119288,81616.000,13755,2,ER,1,100,1.706356
1575568737.182925,81669.500,13773,2,ER,1,100,1.704624
1575568737.246562,81723.000,13773,2,ER,1,100,1.707363
1575568737.314958,81780.500,13791,2,ER,1,100,1.704463
1575568737.383353,81838.000,13791,2,ER,1,100,1.705712
1575568737.448774,81893.000,13809,1,ER,1,100,1.703053
1575568737.520143,81953.000,13826,2,ER,1,100,1.703013
1575568737.591512,82013.000,13826,2,ER,1,100,1.706719
1575568737.656934,82068.000,13844,2,ER,1,100,1.702892
1575568737.722355,82123.000,13844,2,ER,1,100,1.705712
1575568737.785992,82176.500,13862,2,ER,1,100,1.700596
1575568737.849629,82230.000,13862,2,ER,1,100,1.702690
1575568737.915646,82285.500,13879,2,ER,1,100,1.704785
1575568737.981662,82341.000,13879,2,ER,1,100,1.706477
1575568738.049462,82398.000,13897,2,ER,1,100,1.704906
1575568738.117263,82455.000,13897,2,ER,1,100,1.704987
1575568738.186253,82513.000,13915,1,ER,1,100,1.704463
1575568738.252863,82569.000,13933,2,ER,1,100,1.702731
1575568738.319474,82625.000,13933,2,ER,1,100,1.706558
1575568738.382517,82678.000,13951,2,ER,1,100,1.700072
1575568738.445559,82731.000,13951,2,ER,1,100,1.699991
1575568738.512170,82787.000,13969,2,ER,1,100,1.702408
1575568738.578781,82843.000,13969,2,ER,1,100,1.702972
1575568738.646582,82900.000,13987,2,ER,1,100,1.706679
1575568738.714382,82957.000,13987,2,ER,1,100,1.703859
1575568738.785751,83017.000,14005,1,ER,1,100,1.702731
1575568738.852362,83073.000,14023,2,ER,1,100,1.701119
1575568738.918973,83129.000,14023,2,ER,1,100,1.702570
1575568738.982610,83182.500,14041,2,ER,1,100,1.699548
1575568739.046247,83236.000,14041,2,ER,1,100,1.702287
1575568739.112263,83291.500,14059,2,ER,1,100,1.699427
1575568739.178280,83347.000,14059,2,ER,1,100,1.702811
1575568739.245485,83403.500,14075,2,ER,1,100,1.698420
1575568739.312691,83460.000,14075,2,ER,1,100,1.702932
1575568739.381681,83518.000,14096,2,ER,1,100,1.705389
1575568739.450671,83576.000,14096,2,ER,1,100,1.706799
1575568739.516092,83631.000,14116,2,ER,1,100,1.699468
1575568739.581514,83686.000,14116,2,ER,1,100,1.704624
1575568739.643961,83738.500,14134,2,ER,1,100,1.696809
1575568739.706409,83791.000,14134,2,ER,1,100,1.689760
1575568739.774210,83848.000,14152,2,ER,1,100,1.679528
1575568739.842010,83905.000,14152,2,ER,1,100,1.696205
1575568739.911595,83963.500,14169,2,ER,1,100,1.713124
1575568739.981179,84022.000,14169,2,ER,1,100,1.728190
1575568740.047790,84078.000,14187,1,ER,1,100,1.726498
1575568740.115591,84135.000,14205,2,ER,1,100,1.715178
1575568740.183391,84192.000,14205,2,ER,1,100,1.713889
1575568740.248813,84247.000,14223,2,ER,1,100,1.699870
1575568740.314234,84302.000,14223,2,ER,1,100,1.696890
1575568740.377871,84355.500,14241,2,ER,1,100,1.692579
1575568740.441509,84409.000,14241,2,ER,1,100,1.694271
1575568740.506335,84463.500,14259,2,ER,1,100,1.700072
1575568740.571162,84518.000,14259,2,ER,1,100,1.703375
1575568740.638962,84575.000,14277,2,ER,1,100,1.699669
1575568740.706763,84632.000,14277,2,ER,1,100,1.676023
1575568740.773374,84688.000,14295,1,ER,1,100,1.678964
1575568740.840579,84744.500,14313,2,ER,1,100,1.670907
1575568740.907785,84801.000,14313,2,ER,1,100,1.688470
1575568740.975585,84858.000,14331,2,ER,1,100,1.707001
1575568741.043386,84915.000,14331,2,ER,1,100,1.707565
1575568741.114160,84974.500,14347,2,ER,1,100,1.702570
1575568741.184934,85034.000,14347,2,ER,1,100,1.702570
1575568741.247382,85086.500,14365,2,ER,1,100,1.708491
1575568741.309830,85139.000,14365,2,ER,1,100,1.714091
1575568741.374062,85193.000,14383,1,ER,1,100,1.715581
1575568741.440673,85249.000,14401,2,ER,1,100,1.716185
1575568741.507283,85305.000,14401,2,ER,1,100,1.722469
1575568741.576868,85363.500,14419,2,ER,1,100,1.706477
1575568741.646453,85422.000,14419,2,ER,1,100,1.705913
1575568741.716632,85481.000,14437,2,ER,1,100,1.687786
1575568741.786812,85540.000,14437,2,ER,1,100,1.684482
1575568741.849259,85592.500,14456,2,ER,1,100,1.695117
1575568741.911707,85645.000,14456,2,ER,1,100,1.692942
1575568741.975939,85699.000,14474,1,ER,1,100,1.693465
1575568742.040766,85753.500,14491,2,ER,1,100,1.691693
1575568742.105592,85808.000,14491,2,ER,1,100,1.691653
1575568742.174582,85866.000,14509,2,ER,1,100,1.688511
1575568742.243572,85924.000,14509,2,ER,1,100,1.696487
1575568742.312562,85982.000,14525,2,ER,1,100,1.695439
1575568742.381552,86040.000,14525,2,ER,1,100,1.695319
1575568742.445189,86093.500,14543,2,ER,1,100,1.698461
1575568742.508826,86147.000,14543,2,ER,1,100,1.700233
1575568742.575437,86203.000,14561,1,ER,1,100,1.711915
1575568742.640264,86257.500,14579,2,ER,1,100,1.704463
1575568742.705091,86312.000,14579,2,ER,1,100,1.686819
1575568742.774081,86370.000,14597,2,ER,1,100,1.695037
1575568742.843071,86428.000,14597,2,ER,1,100,1.710546
1575568742.913250,86487.000,14616,2,ER,1,100,1.700475
1575568742.983429,86546.000,14616,2,ER,1,100,1.675580
1575568743.051230,86603.000,14634,1,ER,1,100,1.670383
1575568743.114867,86656.500,14652,2,ER,1,100,1.664824
1575568743.178504,86710.000,14652,2,ER,1,100,1.664824
1575568743.242141,86763.500,14669,2,ER,1,100,1.678037
1575568743.305779,86817.000,14669,2,ER,1,100,1.695802
1575568743.374174,86874.500,14687,2,ER,1,100,1.697574
1575568743.442569,86932.000,14687,2,ER,1,100,1.702408
1575568743.512154,86990.500,14703,2,ER,1,100,1.700878
1575568743.581738,87049.000,14703,2,ER,1,100,1.710143
1575568743.645970,87103.000,14721,2,ER,1,100,1.710707
1575568743.710202,87157.000,14721,2,ER,1,100,1.707847
1575568743.774434,87211.000,14739,1,ER,1,100,1.705309
1575568743.838666,87265.000,14758,2,ER,1,100,1.699427
1575568743.902898,87319.000,14758,2,ER,1,100,1.693304
1575568743.971293,87376.500,14776,2,ER,1,100,1.693586
1575568744.039689,87434.000,14776,2,ER,1,100,1.700475
1575568744.109273,87492.500,14794,2,ER,1,100,1.700555
1575568744.178858,87551.000,14794,2,ER,1,100,1.704342
1575568744.245469,87607.000,14812,1,ER,1,100,1.703295
1575568744.317432,87667.500,14829,2,ER,1,100,1.700958
1575568744.389396,87728.000,14829,2,ER,1,100,1.702610
1575568744.455412,87783.500,14847,2,ER,1,100,1.700273
1575568744.521428,87839.000,14847,2,ER,1,100,1.703939
1575568744.584471,87892.000,14865,2,ER,1,100,1.700193
1575568744.647513,87945.000,14865,2,ER,1,100,1.702328
1575568744.712935,88000.000,14881,2,ER,1,100,1.698219
1575568744.778356,88055.000,14881,2,ER,1,100,1.696728
1575568744.843778,88110.000,14900,1,ER,1,100,1.694594
1575568744.912768,88168.000,14918,2,ER,1,100,1.695963
1575568744.981757,88226.000,14918,2,ER,1,100,1.695520
1575568745.049558,88283.000,14936,2,ER,1,100,1.689679
1575568745.117358,88340.000,14936,2,ER,1,100,1.690847
1575568745.185159,88397.000,14954,2,ER,1,100,1.689921
1575568745.252959,88454.000,14954,2,ER,1,100,1.689961
1575568745.321354,88511.500,14972,2,ER,1,100,1.686416
1575568745.389750,88569.000,14972,2,ER,1,100,1.685771
1575568745.453585,88622.667,14993,3,ER,1,100,1.687907
1575568745.517420,88676.333,14993,3,ER,1,100,1.683516
1575568745.581256,88730.000,14993,3,ER,1,100,1.681260
1575568745.645488,88784.000,15013,1,ER,1,100,1.681340
1575568745.715072,88842.500,15031,2,ER,1,100,1.679447
1575568745.784657,88901.000,15031,2,ER,1,100,1.677997
1575568745.853052,88958.500,15050,2,ER,1,100,1.675499
1575568745.921448,89016.000,15050,2,ER,1,100,1.675822
1575568745.987464,89071.500,15068,2,ER,1,100,1.668007
1575568746.053480,89127.000,15068,2,ER,1,100,1.669578
1575568746.117117,89180.500,15086,2,ER,1,100,1.671028
1575568746.180754,89234.000,15086,2,ER,1,100,1.664583
1575568746.247365,89290.000,15104,1,ER,1,100,1.662447
1575568746.315166,89347.000,15121,2,ER,1,100,1.657050
1575568746.382966,89404.000,15121,2,ER,1,100,1.657573
1575568746.450172,89460.500,15139,2,ER,1,100,1.655277
1575568746.517377,89517.000,15139,2,ER,1,100,1.656284
1575568746.584583,89573.500,15155,2,ER,1,100,1.654834
1575568746.651789,89630.000,15155,2,ER,1,100,1.653827
1575568746.715426,89683.500,15173,2,ER,1,100,1.653867
1575568746.779063,89737.000,15173,2,ER,1,100,1.653625
1575568746.843890,89791.500,15192,2,ER,1,100,1.656445
1575568746.908717,89846.000,15192,2,ER,1,100,1.655196
1575568746.981275,89907.000,15210,1,ER,1,100,1.659225
1575568747.048481,89963.500,15228,2,ER,1,100,1.657533
1575568747.115686,90020.000,15228,2,ER,1,100,1.663455
1575568747.183487,90077.000,15246,2,ER,1,100,1.661682
1575568747.251287,90134.000,15246,2,ER,1,100,1.665872
1575568747.314924,90187.500,15264,2,ER,1,100,1.667604
1575568747.378562,90241.000,15264,2,ER,1,100,1.669457
1575568747.441604,90294.000,15282,1,ER,1,100,1.671954
1575568747.511784,90353.000,15300,2,ER,1,100,1.673968
1575568747.581963,90412.000,15300,2,ER,1,100,1.678118
1575568747.648574,90468.000,15317,2,ER,1,100,1.677634
1575568747.715185,90524.000,15317,2,ER,1,100,1.683354
1575568747.782985,90581.000,15334,2,ER,1,100,1.684442
1575568747.850786,90638.000,15334,2,ER,1,100,1.689518
1575568747.913233,90690.500,15352,2,ER,1,100,1.690565
1575568747.975681,90743.000,15352,2,ER,1,100,1.692499
1575568748.041103,90798.000,15370,2,ER,1,100,1.695278
1575568748.106524,90853.000,15370,2,ER,1,100,1.696688
1575568748.176703,90912.000,15388,1,ER,1,100,1.700072
1575568748.245099,90969.500,15406,2,ER,1,100,1.698863
1575568748.313494,91027.000,15406,2,ER,1,100,1.703295
1575568748.381889,91084.500,15424,2,ER,1,100,1.702489
1575568748.450284,91142.000,15424,2,ER,1,100,1.707242
1575568748.519869,91200.500,15442,2,ER,1,100,1.705188
1575568748.589453,91259.000,15442,2,ER,1,100,1.706276
1575568748.658443,91317.000,15460,1,ER,1,100,1.706598
1575568748.722675,91371.000,15477,2,ER,1,100,1.703778
1575568748.786907,91425.000,15477,2,ER,1,100,1.706558
1575568748.851139,91479.000,15496,2,ER,1,100,1.702892
1575568748.915371,91533.000,15496,2,ER,1,100,1.705631
1575568748.982577,91589.500,15514,2,ER,1,100,1.701442
1575568749.049783,91646.000,15514,2,ER,1,100,1.704262
1575568749.119367,91704.500,15530,2,ER,1,100,1.702086
1575568749.188952,91763.000,15530,2,ER,1,100,1.701925
1575568749.256752,91820.000,15548,1,ER,1,100,1.701885
1575568749.322768,91875.500,15566,2,ER,1,100,1.699347
1575568749.388785,91931.000,15566,2,ER,1,100,1.700999
1575568749.454206,91986.000,15584,2,ER,1,100,1.698582
1575568749.519628,92041.000,15584,2,ER,1,100,1.702207
1575568749.582670,92094.000,15602,2,ER,1,100,1.699266
1575568749.645712,92147.000,15602,2,ER,1,100,1.703375
1575568749.711134,92202.000,15620,2,ER,1,100,1.701039
1575568749.776555,92257.000,15620,2,ER,1,100,1.701925
1575568749.843761,92313.500,15639,2,ER,1,100,1.701321
1575568749.910967,92370.000,15639,2,ER,1,100,1.700475
1575568749.979957,92428.000,15657,1,ER,1,100,1.702489
1575568750.049541,92486.500,15674,2,ER,1,100,1.701603
1575568750.119126,92545.000,15674,2,ER,1,100,1.706719
1575568750.182763,92598.500,15692,2,ER,1,100,1.705269
1575568750.246400,92652.000,15692,2,ER,1,100,1.707887
1575568750.311227,92706.500,15708,2,ER,1,100,1.705470
1575568750.376054,92761.000,15708,2,ER,1,100,1.705994
1575568750.442665,92817.000,15726,2,ER,1,100,1.703899
1575568750.509276,92873.000,15726,2,ER,1,100,1.705591
1575568750.581834,92934.000,15744,1,ER,1,100,1.708129
1575568750.649040,92990.500,15762,2,ER,1,100,1.708008
1575568750.716245,93047.000,15762,2,ER,1,100,1.711915
1575568750.781072,93101.500,15780,2,ER,1,100,1.707363
1575568750.845899,93156.000,15780,2,ER,1,100,1.709257
1575568750.911915,93211.500,15799,2,ER,1,100,1.705309
1575568750.977931,93267.000,15799,2,ER,1,100,1.705832
1575568751.043947,93322.500,15817,2,ER,1,100,1.708572
1575568751.109964,93378.000,15817,2,ER,1,100,1.709861
1575568751.183711,93440.000,15835,1,ER,1,100,1.712197
1575568751.250917,93496.500,15852,2,ER,1,100,1.708813
1575568751.318123,93553.000,15852,2,ER,1,100,1.711714
1575568751.384734,93609.000,15870,2,ER,1,100,1.708250
1575568751.451345,93665.000,15870,2,ER,1,100,1.708773
1575568751.515180,93718.667,15889,3,ER,1,100,1.708975
1575568751.579015,93772.333,15889,3,ER,1,100,1.711029
1575568751.642851,93826.000,15889,3,ER,1,100,1.706679
1575568751.710651,93883.000,15909,1,ER,1,100,1.709136
1575568751.779641,93941.000,15927,2,ER,1,100,1.712842
1575568751.848631,93999.000,15927,2,ER,1,100,1.711835
1575568751.918216,94057.500,15945,2,ER,1,100,1.708813
1575568751.987801,94116.000,15945,2,ER,1,100,1.710989
1575568752.048464,94167.000,15963,2,ER,1,100,1.707605
1575568752.109128,94218.000,15963,2,ER,1,100,1.709055
1575568752.173954,94272.500,15981,2,ER,1,100,1.705228
1575568752.238781,94327.000,15981,2,ER,1,100,1.706960
1575568752.308960,94386.000,15997,2,ER,1,100,1.707524
1575568752.379140,94445.000,15997,2,ER,1,100,1.701361
1575568752.444561,94500.000,16015,1,ER,1,100,1.704705
1575568752.516525,94560.500,16033,2,ER,1,100,1.708975
1575568752.588489,94621.000,16033,2,ER,1,100,1.709579
1575568752.656884,94678.500,16051,2,ER,1,100,1.707927
1575568752.725279,94736.000,16051,2,ER,1,100,1.709297
1575568752.793674,94793.500,16069,2,ER,1,100,1.705752
1575568752.862069,94851.000,16069,2,ER,1,100,1.702570
1575568752.925112,94904.000,16088,1,ER,1,100,1.702086
1575568752.988749,94957.500,16105,2,ER,1,100,1.688309
1575568753.052386,95011.000,16105,2,ER,1,100,1.692458
1575568753.121376,95069.000,16123,2,ER,1,100,1.685369
1575568753.190366,95127.000,16123,2,ER,1,100,1.696205
1575568753.258166,95184.000,16141,2,ER,1,100,1.695560
1575568753.325967,95241.000,16141,2,ER,1,100,1.697816
1575568753.396146,95300.000,16157,1,ER,1,100,1.696728
1575568753.462162,95355.500,16175,2,ER,1,100,1.693667
1575568753.528178,95411.000,16175,2,ER,1,100,1.694996
1575568753.591816,95464.500,16193,2,ER,1,100,1.689880
1575568753.655453,95518.000,16193,2,ER,1,100,1.690283
1575568753.721469,95573.500,16211,2,ER,1,100,1.685087
1575568753.787485,95629.000,16211,2,ER,1,100,1.690122
1575568753.855880,95686.500,16230,2,ER,1,100,1.688148
1575568753.924276,95744.000,16230,2,ER,1,100,1.695359
1575568753.993266,95802.000,16248,2,ER,1,100,1.701442
1575568754.062255,95860.000,16248,2,ER,1,100,1.702126
1575568754.126487,95914.000,16266,1,ER,1,100,1.737616
1575568754.189530,95967.000,16283,2,ER,1,100,1.722429
1575568754.252572,96020.000,16283,2,ER,1,100,1.713043
1575568754.319183,96076.000,16301,2,ER,1,100,1.683193
1575568754.385794,96132.000,16301,2,ER,1,100,1.666677
1575568754.453595,96189.000,16319,2,ER,1,100,1.670101
1575568754.521395,96246.000,16319,2,ER,1,100,1.664180
1575568754.590385,96304.000,16335,2,ER,1,100,1.680011
1575568754.659375,96362.000,16335,2,ER,1,100,1.679608
1575568754.727175,96419.000,16353,1,ER,1,100,1.679810
1575568754.790218,96472.000,16372,2,ER,1,100,1.680333
1575568754.853260,96525.000,16372,2,ER,1,100,1.693385
1575568754.919276,96580.500,16390,2,ER,1,100,1.695439
1575568754.985293,96636.000,16390,2,ER,1,100,1.701603
1575568755.052498,96692.500,16408,2,ER,1,100,1.698461
1575568755.119704,96749.000,16408,2,ER,1,100,1.699186
1575568755.188694,96807.000,16426,2,ER,1,100,1.681622
1575568755.257684,96865.000,16426,2,ER,1,100,1.684966
1575568755.325484,96922.000,16444,1,ER,1,100,1.701361
1575568755.387932,96974.500,16461,2,ER,1,100,1.709055
1575568755.450380,97027.000,16461,2,ER,1,100,1.706638
1575568755.515801,97082.000,16479,2,ER,1,100,1.712963
1575568755.581223,97137.000,16479,2,ER,1,100,1.719690
1575568755.647239,97192.500,16497,2,ER,1,100,1.715178
1575568755.713255,97248.000,16497,2,ER,1,100,1.724282
1575568755.781650,97305.500,16513,2,ER,1,100,1.709055
1575568755.850045,97363.000,16513,2,ER,1,100,1.710344
1575568755.917846,97420.000,16532,1,ER,1,100,1.722228
1575568755.982672,97474.500,16550,2,ER,1,100,1.717233
1575568756.047499,97529.000,16550,2,ER,1,100,1.742732
1575568756.115300,97586.000,16568,2,ER,1,100,1.703335
1575568756.183100,97643.000,16568,2,ER,1,100,1.692499
1575568756.246737,97696.500,16586,2,ER,1,100,1.693586
1575568756.310374,97750.000,16586,2,ER,1,100,1.684281
1575568756.375796,97805.000,16604,2,ER,1,100,1.691975
1575568756.441217,97860.000,16604,2,ER,1,100,1.706960
1575568756.508423,97916.500,16622,2,ER,1,100,1.708491
1575568756.575629,97973.000,16622,2,ER,1,100,1.711553
1575568756.641050,98028.000,16640,1,ER,1,100,1.728955
1575568756.710635,98086.500,16657,2,ER,1,100,1.695117
1575568756.780220,98145.000,16657,2,ER,1,100,1.707645
1575568756.848615,98202.500,16676,2,ER,1,100,1.701804
1575568756.917010,98260.000,16676,2,ER,1,100,1.699790
1575568756.983621,98316.000,16692,2,ER,1,100,1.696970
1575568757.050232,98372.000,16692,2,ER,1,100,1.694513
1575568757.113869,98425.500,16710,2,ER,1,100,1.697776
1575568757.177506,98479.000,16710,2,ER,1,100,1.689357
1575568757.241738,98533.000,16728,1,ER,1,100,1.690041
1575568757.311323,98591.500,16746,2,ER,1,100,1.674412
1575568757.380908,98650.000,16746,2,ER,1,100,1.689316
1575568757.449303,98707.500,16764,2,ER,1,100,1.693949
1575568757.517698,98765.000,16764,2,ER,1,100,1.707202
1575568757.583516,98820.333,16785,3,ER,1,100,1.741241
1575568757.649334,98875.667,16785,3,ER,1,100,1.699307
1575568757.715152,98931.000,16785,3,ER,1,100,1.696326
1575568757.779978,98985.500,16805,2,ER,1,100,1.694432
1575568757.844805,99040.000,16805,2,ER,1,100,1.704060
1575568757.911416,99096.000,16824,2,ER,1,100,1.729761
1575568757.978027,99152.000,16824,2,ER,1,100,1.703254
1575568758.045827,99209.000,16842,1,ER,1,100,1.687101
1575568758.114223,99266.500,16860,2,ER,1,100,1.678359
1575568758.182618,99324.000,16860,2,ER,1,100,1.698300
1575568758.247444,99378.500,16878,2,ER,1,100,1.701321
1575568758.312271,99433.000,16878,2,ER,1,100,1.718642
1575568758.375908,99486.500,16896,2,ER,1,100,1.729277
1575568758.439545,99540.000,16896,2,ER,1,100,1.676305
1575568758.508535,99598.000,16914,2,ER,1,100,1.697695
1575568758.577525,99656.000,16914,2,ER,1,100,1.703013
1575568758.644136,99712.000,16932,1,ER,1,100,1.696165
1575568758.713721,99770.500,16949,2,ER,1,100,1.701804
1575568758.783305,99829.000,16949,2,ER,1,100,1.720576
1575568758.848727,99884.000,16968,2,ER,1,100,1.675056
1575568758.914148,99939.000,16968,2,ER,1,100,1.691895
1575568758.977786,99992.500,16984,2,ER,1,100,1.699870
1575568759.041423,100046.000,16984,2,ER,1,100,1.705309
1575568759.108629,100102.500,17002,2,ER,1,100,1.716145
1575568759.175834,100159.000,17002,2,ER,1,100,1.733547
1575568759.243635,100216.000,17020,1,ER,1,100,1.753004
1575568759.313219,100274.500,17038,2,ER,1,100,1.669981
1575568759.382804,100333.000,17038,2,ER,1,100,1.668329
1575568759.447631,100387.500,17056,2,ER,1,100,1.705792
1575568759.512457,100442.000,17056,2,ER,1,100,1.719489
1575568759.575500,100495.000,17074,2,ER,1,100,1.715259
1575568759.638542,100548.000,17074,2,ER,1,100,1.733386
1575568759.705748,100604.500,17092,2,ER,1,100,1.712197
1575568759.772954,100661.000,17092,2,ER,1,100,1.675298
1575568759.839565,100717.000,17111,1,ER,1,100,1.695762
1575568759.909149,100775.500,17128,2,ER,1,100,1.701321
1575568759.978734,100834.000,17128,2,ER,1,100,1.707081
1575568760.048319,100892.500,17146,2,ER,1,100,1.688753
1575568760.117903,100951.000,17146,2,ER,1,100,1.725128
1575568760.186893,101009.000,17162,2,ER,1,100,1.688793
1575568760.255883,101067.000,17162,2,ER,1,100,1.692781
1575568760.322494,101123.000,17180,1,ER,1,100,1.703375
1575568760.385536,101176.000,17198,2,ER,1,100,1.694110
1575568760.448579,101229.000,17198,2,ER,1,100,1.727908
1575568760.515190,101285.000,17216,2,ER,1,100,1.681703
1575568760.581801,101341.000,17216,2,ER,1,100,1.683274
1575568760.644843,101394.000,17234,2,ER,1,100,1.680817
1575568760.707886,101447.000,17234,2,ER,1,100,1.695963
1575568760.773902,101502.500,17252,2,ER,1,100,1.707162
1575568760.839918,101558.000,17252,2,ER,1,100,1.738502
1575568760.909503,101616.500,17271,2,ER,1,100,1.695439
1575568760.979087,101675.000,17271,2,ER,1,100,1.669618
1575568761.044509,101730.000,17289,1,ER,1,100,1.689276
1575568761.113499,101788.000,17306,2,ER,1,100,1.693022
1575568761.182489,101846.000,17306,2,ER,1,100,1.702207
1575568761.245531,101899.000,17324,2,ER,1,100,1.724161
1575568761.308574,101952.000,17324,2,ER,1,100,1.732258
1575568761.373400,102006.500,17342,2,ER,1,100,1.649315
1575568761.438227,102061.000,17342,2,ER,1,100,1.682629
1575568761.508406,102120.000,17358,2,ER,1,100,1.709579
1575568761.578586,102179.000,17358,2,ER,1,100,1.713889
1575568761.646386,102236.000,17376,1,ER,1,100,1.736810
1575568761.715376,102294.000,17394,2,ER,1,100,1.668651
1575568761.784366,102352.000,17394,2,ER,1,100,1.668369
1575568761.846814,102404.500,17413,2,ER,1,100,1.687947
1575568761.909262,102457.000,17413,2,ER,1,100,1.710626
1575568761.974683,102512.000,17431,2,ER,1,100,1.751675
1575568762.040104,102567.000,17431,2,ER,1,100,1.695923
1575568762.107905,102624.000,17449,2,ER,1,100,1.656163
1575568762.175705,102681.000,17449,2,ER,1,100,1.686335
1575568762.244695,102739.000,17467,1,ER,1,100,1.695480
1575568762.315469,102798.500,17484,2,ER,1,100,1.700878
1575568762.386244,102858.000,17484,2,ER,1,100,1.705107
1575568762.446907,102909.000,17502,2,ER,1,100,1.703738
1575568762.507571,102960.000,17502,2,ER,1,100,1.713728
1575568762.572992,103015.000,17520,2,ER,1,100,1.672599
1575568762.638413,103070.000,17520,2,ER,1,100,1.693788
1575568762.708593,103129.000,17536,2,ER,1,100,1.703859
1575568762.778772,103188.000,17536,2,ER,1,100,1.709418
1575568762.845383,103244.000,17555,1,ER,1,100,1.682911
1575568762.915563,103303.000,17573,2,ER,1,100,1.695842
1575568762.985742,103362.000,17573,2,ER,1,100,1.712761
1575568763.048784,103415.000,17591,2,ER,1,100,1.696970
1575568763.111827,103468.000,17591,2,ER,1,100,1.688712
1575568763.176059,103522.000,17609,2,ER,1,100,1.714413
1575568763.240291,103576.000,17609,2,ER,1,100,1.754616
1575568763.309875,103634.500,17627,2,ER,1,100,1.735924
1575568763.379460,103693.000,17627,2,ER,1,100,1.712439
1575568763.444882,103748.000,17645,1,ER,1,100,1.694432
1575568763.514466,103806.500,17662,2,ER,1,100,1.681058
1575568763.584051,103865.000,17662,2,ER,1,100,1.687383
1575568763.647093,103918.000,17683,3,ER,1,100,1.693546
1575568763.710136,103971.000,17683,3,ER,1,100,1.719569
1575568763.773178,104024.000,17683,3,ER,1,100,1.699870
1575568763.838005,104078.500,17704,2,ER,1,100,1.670786
1575568763.902832,104133.000,17704,2,ER,1,100,1.690444
1575568763.971227,104190.500,17722,2,ER,1,100,1.699709
1575568764.039622,104248.000,17722,2,ER,1,100,1.685731
1575568764.110991,104308.000,17740,1,ER,1,100,1.681381
1575568764.179386,104365.500,17757,2,ER,1,100,1.676748
1575568764.247781,104423.000,17757,2,ER,1,100,1.686174
1575568764.317366,104481.500,17775,2,ER,1,100,1.686174
1575568764.386950,104540.000,17775,2,ER,1,100,1.687302
1575568764.454156,104596.500,17791,2,ER,1,100,1.688068
1575568764.521362,104653.000,17791,2,ER,1,100,1.698018
1575568764.584404,104706.000,17809,2,ER,1,100,1.679568
1575568764.647447,104759.000,17809,2,ER,1,100,1.661118
1575568764.712868,104814.000,17827,1,ER,1,100,1.652739
1575568764.779479,104870.000,17846,2,ER,1,100,1.673243
1575568764.846090,104926.000,17846,2,ER,1,100,1.694392
1575568764.915675,104984.500,17864,2,ER,1,100,1.646455
1575568764.985260,105043.000,17864,2,ER,1,100,1.656284
1575568765.056034,105102.500,17882,2,ER,1,100,1.664703
1575568765.126808,105162.000,17882,2,ER,1,100,1.668691
1575568765.195798,105220.000,17900,1,ER,1,100,1.657009
1575568765.264193,105277.500,17917,2,ER,1,100,1.672639
1575568765.332588,105335.000,17917,2,ER,1,100,1.667926
1575568765.395630,105388.000,17935,2,ER,1,100,1.656566
1575568765.458673,105441.000,17935,2,ER,1,100,1.668691
1575568765.524094,105496.000,17953,2,ER,1,100,1.667201
1575568765.589516,105551.000,17953,2,ER,1,100,1.671350
1575568765.656722,105607.500,17971,2,ER,1,100,1.647663
1575568765.723927,105664.000,17971,2,ER,1,100,1.654230
1575568765.792917,105722.000,17987,1,ER,1,100,1.658701
1575568765.861312,105779.500,18006,2,ER,1,100,1.664381
1575568765.929707,105837.000,18006,2,ER,1,100,1.668893
1575568765.993939,105891.000,18024,2,ER,1,100,1.667281
1575568766.058171,105945.000,18024,2,ER,1,100,1.666274
1575568766.122998,105999.500,18042,2,ER,1,100,1.671874
1575568766.187825,106054.000,18042,2,ER,1,100,1.683234
1575568766.254436,106110.000,18060,2,ER,1,100,1.690887
1575568766.321047,106166.000,18060,2,ER,1,100,1.693224
1575568766.390631,106224.500,18078,2,ER,1,100,1.688591
1575568766.460216,106283.000,18078,2,ER,1,100,1.683153
1575568766.528016,106340.000,18096,1,ER,1,100,1.692740
1575568766.593438,106395.000,18113,2,ER,1,100,1.681179
1575568766.658859,106450.000,18113,2,ER,1,100,1.687947
1575568766.724281,106505.000,18131,2,ER,1,100,1.696809
1575568766.789702,106560.000,18131,2,ER,1,100,1.704020
1575568766.854529,106614.500,18150,2,ER,1,100,1.695399
1575568766.919356,106669.000,18150,2,ER,1,100,1.733668
1575568766.989535,106728.000,18166,2,ER,1,100,1.703254
1575568767.059714,106787.000,18166,2,ER,1,100,1.673203
1575568767.126325,106843.000,18184,1,ER,1,100,1.663938
1575568767.193531,106899.500,18202,2,ER,1,100,1.678641
1575568767.260737,106956.000,18202,2,ER,1,100,1.686497
1575568767.323184,107008.500,18220,2,ER,1,100,1.674693
1575568767.385632,107061.000,18220,2,ER,1,100,1.701079
1575568767.452838,107117.500,18238,2,ER,1,100,1.697011
1575568767.520043,107174.000,18238,2,ER,1,100,1.706396
1575568767.589033,107232.000,18256,2,ER,1,100,1.707565
1575568767.658023,107290.000,18256,2,ER,1,100,1.699629
1575568767.725824,107347.000,18274,1,ER,1,100,1.707927
1575568767.791840,107402.500,18292,2,ER,1,100,1.714332
1575568767.857856,107458.000,18292,2,ER,1,100,1.717474
1575568767.920304,107510.500,18310,2,ER,1,100,1.717998
1575568767.982752,107563.000,18310,2,ER,1,100,1.720536
1575568768.050552,107620.000,18328,2,ER,1,100,1.715057
1575568768.118352,107677.000,18328,2,ER,1,100,1.710143
1575568768.184963,107733.000,18344,2,ER,1,100,1.716387
1575568768.251574,107789.000,18344,2,ER,1,100,1.715863
1575568768.322943,107849.000,18362,1,ER,1,100,1.716387
1575568768.391933,107907.000,18380,2,ER,1,100,1.714574
1575568768.460923,107965.000,18380,2,ER,1,100,1.714655
1575568768.532292,108025.000,18398,2,ER,1,100,1.716830
1575568768.603661,108085.000,18398,2,ER,1,100,1.721180
1575568768.668487,108139.500,18416,2,ER,1,100,1.716789
1575568768.733314,108194.000,18416,2,ER,1,100,1.710586
1575568768.796951,108247.500,18434,2,ER,1,100,1.719086
1575568768.860589,108301.000,18434,2,ER,1,100,1.711432
1575568768.928389,108358.000,18453,1,ER,1,100,1.705792
1575568768.995000,108414.000,18470,2,ER,1,100,1.709740
1575568769.061611,108470.000,18470,2,ER,1,100,1.713486
1575568769.131196,108528.500,18488,2,ER,1,100,1.711029
1575568769.200780,108587.000,18488,2,ER,1,100,1.714655
1575568769.267391,108643.000,18504,2,ER,1,100,1.711392
1575568769.334002,108699.000,18504,2,ER,1,100,1.711190
1575568769.397639,108752.500,18522,2,ER,1,100,1.707121
1575568769.461277,108806.000,18522,2,ER,1,100,1.710868
1575568769.524319,108859.000,18540,1,ER,1,100,1.712318
1575568769.592714,108916.500,18558,2,ER,1,100,1.711512
1575568769.661109,108974.000,18558,2,ER,1,100,1.712278
1575568769.729306,109031.333,18579,3,ER,1,100,1.706517
1575568769.797503,109088.667,18579,3,ER,1,100,1.708209
1575568769.865700,109146.000,18579,3,ER,1,100,1.707041
1575568769.929932,109200.000,18600,2,ER,1,100,1.705470
1575568769.994164,109254.000,18600,2,ER,1,100,1.708129
1575568770.057801,109307.500,18618,2,ER,1,100,1.705430
1575568770.121439,109361.000,18618,2,ER,1,100,1.706759
1575568770.190428,109419.000,18636,1,ER,1,100,1.705550
1575568770.257634,109475.500,18654,2,ER,1,100,1.707001
1575568770.324840,109532.000,18654,2,ER,1,100,1.708934
1575568770.393830,109590.000,18672,2,ER,1,100,1.708169
1575568770.462820,109648.000,18672,2,ER,1,100,1.708451
1575568770.530025,109704.500,18690,2,ER,1,100,1.704060
1575568770.597231,109761.000,18690,2,ER,1,100,1.703496
1575568770.658489,109812.500,18708,2,ER,1,100,1.702852
1575568770.719747,109864.000,18708,2,ER,1,100,1.705510
1575568770.788737,109922.000,18726,1,ER,1,100,1.706719
1575568770.855943,109978.500,18745,2,ER,1,100,1.708330
1575568770.923149,110035.000,18745,2,ER,1,100,1.699750
1575568770.992139,110093.000,18762,2,ER,1,100,1.700314
1575568771.061128,110151.000,18762,2,ER,1,100,1.708370
1575568771.127145,110206.500,18780,2,ER,1,100,1.706679
1575568771.193161,110262.000,18780,2,ER,1,100,1.708975
1575568771.255609,110314.500,18796,2,ER,1,100,1.708934
1575568771.318056,110367.000,18796,2,ER,1,100,1.710546
1575568771.384667,110423.000,18814,2,ER,1,100,1.710908
1575568771.451278,110479.000,18814,2,ER,1,100,1.709821
1575568771.519078,110536.000,18832,1,ER,1,100,1.710667
1575568771.587474,110593.500,18850,2,ER,1,100,1.707121
1575568771.655869,110651.000,18850,2,ER,1,100,1.709095
1575568771.723669,110708.000,18868,2,ER,1,100,1.706155
1575568771.791470,110765.000,18868,2,ER,1,100,1.707927
1575568771.856891,110820.000,18887,2,ER,1,100,1.706114
1575568771.922313,110875.000,18887,2,ER,1,100,1.707242
1575568771.986545,110929.000,18905,2,ER,1,100,1.706517
1575568772.050777,110983.000,18905,2,ER,1,100,1.704342
1575568772.113819,111036.000,18923,1,ER,1,100,1.704664
1575568772.178051,111090.000,18940,2,ER,1,100,1.701482
1575568772.242283,111144.000,18940,2,ER,1,100,1.699709
1575568772.311868,111202.500,18958,2,ER,1,100,1.695198
1575568772.381452,111261.000,18958,2,ER,1,100,1.695037
1575568772.451037,111319.500,18976,2,ER,1,100,1.687786
1575568772.520622,111378.000,18976,2,ER,1,100,1.686335
1575568772.590801,111437.000,18992,1,ER,1,100,1.681340
1575568772.659196,111494.500,19010,2,ER,1,100,1.675459
1575568772.727591,111552.000,19010,2,ER,1,100,1.673566
1575568772.794797,111608.500,19028,2,ER,1,100,1.668007
1575568772.862003,111665.000,19028,2,ER,1,100,1.668087
1575568772.925640,111718.500,19047,2,ER,1,100,1.662166
1575568772.989277,111772.000,19047,2,ER,1,100,1.662447
1575568773.055293,111827.500,19065,2,ER,1,100,1.657332
1575568773.121310,111883.000,19065,2,ER,1,100,1.657291
1575568773.191489,111942.000,19083,1,ER,1,100,1.656042
1575568773.259884,111999.500,19101,2,ER,1,100,1.653625
1575568773.328279,112057.000,19101,2,ER,1,100,1.654834
1575568773.397269,112115.000,19118,2,ER,1,100,1.652941
1575568773.466259,112173.000,19118,2,ER,1,100,1.657050
1575568773.528707,112225.500,19136,2,ER,1,100,1.655116
1575568773.591155,112278.000,19136,2,ER,1,100,1.660192
1575568773.655386,112332.000,19152,2,ER,1,100,1.659507
1575568773.719619,112386.000,19152,2,ER,1,100,1.663334
1575568773.788608,112444.000,19170,1,ER,1,100,1.665590
1575568773.855814,112500.500,19189,2,ER,1,100,1.667040
1575568773.923020,112557.000,19189,2,ER,1,100,1.670706
1575568773.993199,112616.000,19207,2,ER,1,100,1.671310
1575568774.063379,112675.000,19207,2,ER,1,100,1.677070
1575568774.127016,112728.500,19225,2,ER,1,100,1.676869
1575568774.190653,112782.000,19225,2,ER,1,100,1.681743
1575568774.254290,112835.500,19243,2,ER,1,100,1.681864
1575568774.317927,112889.000,19243,2,ER,1,100,1.687060
1575568774.386322,112946.500,19261,2,ER,1,100,1.687705
1575568774.454718,113004.000,19261,2,ER,1,100,1.691049
1575568774.522518,113061.000,19279,1,ER,1,100,1.694392
1575568774.592103,113119.500,19296,2,ER,1,100,1.693989
1575568774.661687,113178.000,19296,2,ER,1,100,1.698863
1575568774.726514,113232.500,19314,2,ER,1,100,1.697011
1575568774.791341,113287.000,19314,2,ER,1,100,1.701845
1575568774.854383,113340.000,19333,2,ER,1,100,1.700918
1575568774.917426,113393.000,19333,2,ER,1,100,1.705188
1575568774.985821,113450.500,19349,2,ER,1,100,1.705792
1575568775.054216,113508.000,19349,2,ER,1,100,1.706114
1575568775.122017,113565.000,19367,1,ER,1,100,1.707404
1575568775.191006,113623.000,19385,2,ER,1,100,1.705470
1575568775.259996,113681.000,19385,2,ER,1,100,1.708088
1575568775.324228,113735.000,19403,2,ER,1,100,1.704342
1575568775.388460,113789.000,19403,2,ER,1,100,1.706517
1575568775.451503,113842.000,19421,2,ER,1,100,1.702328
1575568775.514545,113895.000,19421,2,ER,1,100,1.704825
1575568775.582940,113952.500,19439,2,ER,1,100,1.701603
1575568775.651336,114010.000,19439,2,ER,1,100,1.701321
1575568775.719136,114067.000,19457,1,ER,1,100,1.702247
1575568775.788919,114125.667,19478,3,ER,1,100,1.704423
1575568775.858702,114184.333,19478,3,ER,1,100,1.708048
1575568775.928485,114243.000,19478,3,ER,1,100,1.705470
1575568775.997475,114301.000,19498,2,ER,1,100,1.702932
1575568776.066464,114359.000,19498,2,ER,1,100,1.703375
1575568776.133670,114415.500,19516,2,ER,1,100,1.719609
1575568776.200876,114472.000,19516,2,ER,1,100,1.705148
1575568776.263918,114525.000,19534,2,ER,1,100,1.683636
1575568776.326961,114578.000,19534,2,ER,1,100,1.684281
1575568776.394761,114635.000,19552,1,ER,1,100,1.695319
1575568776.463751,114693.000,19569,2,ER,1,100,1.694956
1575568776.532741,114751.000,19569,2,ER,1,100,1.690001
1575568776.598162,114806.000,19587,2,ER,1,100,1.687745
1575568776.663584,114861.000,19587,2,ER,1,100,1.691290
1575568776.733169,114919.500,19603,2,ER,1,100,1.693385
1575568776.802753,114978.000,19603,2,ER,1,100,1.699830
1575568776.868175,115033.000,19622,1,ER,1,100,1.702610
1575568776.937759,115091.500,19640,2,ER,1,100,1.706437
1575568777.007344,115150.000,19640,2,ER,1,100,1.709982
1575568777.070386,115203.000,19658,2,ER,1,100,1.709498
1575568777.133429,115256.000,19658,2,ER,1,100,1.709458
1575568777.200040,115312.000,19676,2,ER,1,100,1.706719
1575568777.266651,115368.000,19676,2,ER,1,100,1.708652
1575568777.334451,115425.000,19694,2,ER,1,100,1.708290
1575568777.402252,115482.000,19694,2,ER,1,100,1.711190
1575568777.471241,115540.000,19712,1,ER,1,100,1.711955
1575568777.540231,115598.000,19729,2,ER,1,100,1.711069
1575568777.609221,115656.000,19729,2,ER,1,100,1.713527
1575568777.671669,115708.500,19747,2,ER,1,100,1.711230
1575568777.734117,115761.000,19747,2,ER,1,100,1.713889
1575568777.799538,115816.000,19765,2,ER,1,100,1.712640
1575568777.864960,115871.000,19765,2,ER,1,100,1.715541
1575568777.932760,115928.000,19782,2,ER,1,100,1.713245
1575568778.000561,115985.000,19782,2,ER,1,100,1.716467
1575568778.068361,116042.000,19800,1,ER,1,100,1.716910
1575568778.139135,116101.500,19818,2,ER,1,100,1.715823
1575568778.209909,116161.000,19818,2,ER,1,100,1.717958
1575568778.271168,116212.500,19836,2,ER,1,100,1.716749
1575568778.332426,116264.000,19836,2,ER,1,100,1.720697
1575568778.396658,116318.000,19854,2,ER,1,100,1.717072
1575568778.460890,116372.000,19854,2,ER,1,100,1.720536
1575568778.529880,116430.000,19872,2,ER,1,100,1.716669
1575568778.598870,116488.000,19872,2,ER,1,100,1.720093
1575568778.665480,116544.000,19890,1,ER,1,100,1.719166
1575568778.735660,116603.000,19908,2,ER,1,100,1.718884
1575568778.805839,116662.000,19908,2,ER,1,100,1.721342
1575568778.869477,116715.500,19926,2,ER,1,100,1.717152
1575568778.933114,116769.000,19926,2,ER,1,100,1.720616
1575568778.997346,116823.000,19944,2,ER,1,100,1.717837
1575568779.061578,116877.000,19944,2,ER,1,100,1.720818
1575568779.130568,116935.000,19962,2,ER,1,100,1.717595
1575568779.199558,116993.000,19962,2,ER,1,100,1.719891
1575568779.266168,117049.000,19978,2,ER,1,100,1.718562
1575568779.332779,117105.000,19978,2,ER,1,100,1.718240
1575568779.404148,117165.000,19996,1,ER,1,100,1.718804
1575568779.467191,117218.000,20014,2,ER,1,100,1.716145
1575568779.530233,117271.000,20014,2,ER,1,100,1.717958
1575568779.593276,117324.000,20032,2,ER,1,100,1.714775
1575568779.656318,117377.000,20032,2,ER,1,100,1.717152
1575568779.724118,117434.000,20050,2,ER,1,100,1.714252
1575568779.791919,117491.000,20050,2,ER,1,100,1.716145
1575568779.860909,117549.000,20069,2,ER,1,100,1.712882
1575568779.929899,117607.000,20069,2,ER,1,100,1.712600
1575568780.000078,117666.000,20087,1,ER,1,100,1.712076
1575568780.068473,117723.500,20104,2,ER,1,100,1.709780
1575568780.136868,117781.000,20104,2,ER,1,100,1.712076
1575568780.205264,117838.500,20122,2,ER,1,100,1.709579
1575568780.273659,117896.000,20122,2,ER,1,100,1.710989
1575568780.339080,117951.000,20138,2,ER,1,100,1.711311
1575568780.404502,118006.000,20138,2,ER,1,100,1.710304
1575568780.468734,118060.000,20156,2,ER,1,100,1.709941
1575568780.532966,118114.000,20156,2,ER,1,100,1.709418
1575568780.600766,118171.000,20174,1,ER,1,100,1.709780
1575568780.669756,118229.000,20192,2,ER,1,100,1.706759
1575568780.738746,118287.000,20192,2,ER,1,100,1.709055
1575568780.805357,118343.000,20210,2,ER,1,100,1.706558
1575568780.871968,118399.000,20210,2,ER,1,100,1.709941
1575568780.941552,118457.500,20229,2,ER,1,100,1.707283
1575568781.011137,118516.000,20229,2,ER,1,100,1.707806
1575568781.078937,118573.000,20247,1,ER,1,100,1.708411
1575568781.146143,118629.500,20264,2,ER,1,100,1.706034
1575568781.213349,118686.000,20264,2,ER,1,100,1.707927
1575568781.276391,118739.000,20282,2,ER,1,100,1.705148
1575568781.339434,118792.000,20282,2,ER,1,100,1.707887
1575568781.406045,118848.000,20300,2,ER,1,100,1.704543
1575568781.472656,118904.000,20300,2,ER,1,100,1.707686
1575568781.540456,118961.000,20316,2,ER,1,100,1.705389
1575568781.608256,119018.000,20316,2,ER,1,100,1.706759
1575568781.678436,119077.000,20334,1,ER,1,100,1.706920
1575568781.745641,119133.500,20352,2,ER,1,100,1.705470
1575568781.812847,119190.000,20352,2,ER,1,100,1.707605
1575568781.876683,119243.667,20374,3,ER,1,100,1.705067
1575568781.940518,119297.333,20374,3,ER,1,100,1.707444
1575568782.004354,119351.000,20374,3,ER,1,100,1.704181
1575568782.070965,119407.000,20392,2,ER,1,100,1.704262
1575568782.137575,119463.000,20392,2,ER,1,100,1.706880
1575568782.207755,119522.000,20410,2,ER,1,100,1.704342
1575568782.277934,119581.000,20410,2,ER,1,100,1.704825
1575568782.345735,119638.000,20428,1,ER,1,100,1.705188
1575568782.411751,119693.500,20446,2,ER,1,100,1.702731
1575568782.477767,119749.000,20446,2,ER,1,100,1.706074
1575568782.541999,119803.000,20464,2,ER,1,100,1.701643
1575568782.606231,119857.000,20464,2,ER,1,100,1.705309
1575568782.672842,119913.000,20482,2,ER,1,100,1.702006
1575568782.739453,119969.000,20482,2,ER,1,100,1.704060
1575568782.809037,120027.500,20500,2,ER,1,100,1.702368
1575568782.878622,120086.000,20500,2,ER,1,100,1.703375
1575568782.946423,120143.000,20519,1,ER,1,100,1.703778
1575568783.013034,120199.000,20536,2,ER,1,100,1.701522
1575568783.079644,120255.000,20536,2,ER,1,100,1.703536
1575568783.142092,120307.500,20554,2,ER,1,100,1.700193
1575568783.204540,120360.000,20554,2,ER,1,100,1.702650
1575568783.271746,120416.500,20572,2,ER,1,100,1.698743
1575568783.338951,120473.000,20572,2,ER,1,100,1.701361
1575568783.407941,120531.000,20588,2,ER,1,100,1.700032
1575568783.476931,120589.000,20588,2,ER,1,100,1.700676
1575568783.544732,120646.000,20606,1,ER,1,100,1.699870
1575568783.611342,120702.000,20624,2,ER,1,100,1.697897
1575568783.677953,120758.000,20624,2,ER,1,100,1.698340
1575568783.740401,120810.500,20642,2,ER,1,100,1.694513
1575568783.802849,120863.000,20642,2,ER,1,100,1.695802
1575568783.869460,120919.000,20661,2,ER,1,100,1.690243
1575568783.936071,120975.000,20661,2,ER,1,100,1.691371
1575568784.000303,121029.000,20679,2,ER,1,100,1.687343
1575568784.064535,121083.000,20679,2,ER,1,100,1.687907
1575568784.132930,121140.500,20697,2,ER,1,100,1.686013
1575568784.201325,121198.000,20697,2,ER,1,100,1.684482
1575568784.266747,121253.000,20715,1,ER,1,100,1.684724
1575568784.336926,121312.000,20732,2,ER,1,100,1.681381
1575568784.407105,121371.000,20732,2,ER,1,100,1.683959
1575568784.472527,121426.000,20750,2,ER,1,100,1.680575
1575568784.537948,121481.000,20750,2,ER,1,100,1.682791
1575568784.601585,121534.500,20766,2,ER,1,100,1.681139
1575568784.665223,121588.000,20766,2,ER,1,100,1.682025
1575568784.732428,121644.500,20784,2,ER,1,100,1.681542
1575568784.799634,121701.000,20784,2,ER,1,100,1.682307
1575568784.862676,121754.000,20803,1,ER,1,100,1.683475
1575568784.929882,121810.500,20821,2,ER,1,100,1.683354
1575568784.997088,121867.000,20821,2,ER,1,100,1.685852
1575568785.065483,121924.500,20839,2,ER,1,100,1.683516
1575568785.133878,121982.000,20839,2,ER,1,100,1.687181
1575568785.203463,122040.500,20857,2,ER,1,100,1.684845
1575568785.273047,122099.000,20857,2,ER,1,100,1.688551
1575568785.336685,122152.500,20875,2,ER,1,100,1.688027
1575568785.400322,122206.000,20875,2,ER,1,100,1.689115
1575568785.463364,122259.000,20893,2,ER,1,100,1.690646
1575568785.526407,122312.000,20893,2,ER,1,100,1.690202
1575568785.594207,122369.000,20911,1,ER,1,100,1.693506
1575568785.661413,122425.500,20928,2,ER,1,100,1.691612
1575568785.728619,122482.000,20928,2,ER,1,100,1.693949
1575568785.797609,122540.000,20946,2,ER,1,100,1.694070
1575568785.866598,122598.000,20946,2,ER,1,100,1.697051
1575568785.932020,122653.000,20963,2,ER,1,100,1.695923
1575568785.997441,122708.000,20963,2,ER,1,100,1.697695
1575568786.059889,122760.500,20981,2,ER,1,100,1.697856
1575568786.122337,122813.000,20981,2,ER,1,100,1.698098
1575568786.193706,122873.000,20999,1,ER,1,100,1.699709
1575568786.260317,122929.000,21017,2,ER,1,100,1.698219
1575568786.326928,122985.000,21017,2,ER,1,100,1.701683
1575568786.396512,123043.500,21035,2,ER,1,100,1.699548
1575568786.466097,123102.000,21035,2,ER,1,100,1.702972
1575568786.533897,123159.000,21053,2,ER,1,100,1.701280
1575568786.601698,123216.000,21053,2,ER,1,100,1.702006
1575568786.663551,123268.000,21071,2,ER,1,100,1.703053
1575568786.725404,123320.000,21071,2,ER,1,100,1.702811
1575568786.793204,123377.000,21089,1,ER,1,100,1.704100
1575568786.859815,123433.000,21107,2,ER,1,100,1.702932
1575568786.926426,123489.000,21107,2,ER,1,100,1.704946
1575568786.995416,123547.000,21125,2,ER,1,100,1.703496
1575568787.064406,123605.000,21125,2,ER,1,100,1.706437
1575568787.131612,123661.500,21141,2,ER,1,100,1.704825
1575568787.198817,123718.000,21141,2,ER,1,100,1.706074
1575568787.261265,123770.500,21159,2,ER,1,100,1.706195
1575568787.323713,123823.000,21159,2,ER,1,100,1.705188
1575568787.390324,123879.000,21177,1,ER,1,100,1.707404
1575568787.457529,123935.500,21195,2,ER,1,100,1.705470
1575568787.524735,123992.000,21195,2,ER,1,100,1.708370
1575568787.593725,124050.000,21213,2,ER,1,100,1.704705
1575568787.662715,124108.000,21213,2,ER,1,100,1.708773
1575568787.731110,124165.500,21231,2,ER,1,100,1.706799
1575568787.799505,124223.000,21231,2,ER,1,100,1.706759
1575568787.864332,124277.500,21250,2,ER,1,100,1.707283
1575568787.929158,124332.000,21250,2,ER,1,100,1.707524
1575568787.993787,124386.333,21271,3,ER,1,100,1.708048
1575568788.058415,124440.667,21271,3,ER,1,100,1.705389
1575568788.123044,124495.000,21271,3,ER,1,100,1.704463
1575568788.187276,124549.000,21291,1,ER,1,100,1.707323
1575568788.253887,124605.000,21309,2,ER,1,100,1.706034
1575568788.320498,124661.000,21309,2,ER,1,100,1.708894
1575568788.388298,124718.000,21327,2,ER,1,100,1.705349
1575568788.456099,124775.000,21327,2,ER,1,100,1.708088
1575568788.529846,124837.000,21345,1,ER,1,100,1.707484
1575568788.597647,124894.000,21363,2,ER,1,100,1.705873
1575568788.665447,124951.000,21363,2,ER,1,100,1.707162
1575568788.736816,125011.000,21380,2,ER,1,100,1.704825
1575568788.808185,125071.000,21380,2,ER,1,100,1.706679
1575568788.871822,125124.500,21399,2,ER,1,100,1.704543
1575568788.935459,125178.000,21399,2,ER,1,100,1.709015
1575568788.999097,125231.500,21415,2,ER,1,100,1.704060
1575568789.062734,125285.000,21415,2,ER,1,100,1.705752
1575568789.130534,125342.000,21433,1,ER,1,100,1.705712
1575568789.199524,125400.000,21451,2,ER,1,100,1.704906
1575568789.268514,125458.000,21451,2,ER,1,100,1.707806
1575568789.338099,125516.500,21469,2,ER,1,100,1.703254
1575568789.407683,125575.000,21469,2,ER,1,100,1.705550
1575568789.471915,125629.000,21487,2,ER,1,100,1.702731
1575568789.536147,125683.000,21487,2,ER,1,100,1.704624
1575568789.599785,125736.500,21505,2,ER,1,100,1.703818
1575568789.663422,125790.000,21505,2,ER,1,100,1.703456
1575568789.729438,125845.500,21523,2,ER,1,100,1.703778
1575568789.795454,125901.000,21523,2,ER,1,100,1.704543
1575568789.863255,125958.000,21542,1,ER,1,100,1.704785
1575568789.931055,126015.000,21559,2,ER,1,100,1.703133
1575568789.998855,126072.000,21559,2,ER,1,100,1.704423
1575568790.065466,126128.000,21577,2,ER,1,100,1.701482
1575568790.132077,126184.000,21577,2,ER,1,100,1.704262
1575568790.196309,126238.000,21593,2,ER,1,100,1.702167
1575568790.260541,126292.000,21593,2,ER,1,100,1.704423
1575568790.327747,126348.500,21611,2,ER,1,100,1.702006
1575568790.394953,126405.000,21611,2,ER,1,100,1.702811
1575568790.462753,126462.000,21629,1,ER,1,100,1.703174
1575568790.532338,126520.500,21647,2,ER,1,100,1.701643
1575568790.601922,126579.000,21647,2,ER,1,100,1.703657
1575568790.668533,126635.000,21665,2,ER,1,100,1.700475
1575568790.735144,126691.000,21665,2,ER,1,100,1.702771
1575568790.798187,126744.000,21683,2,ER,1,100,1.700999
1575568790.861229,126797.000,21683,2,ER,1,100,1.702126
1575568790.928435,126853.500,21702,2,ER,1,100,1.701361
1575568790.995641,126910.000,21702,2,ER,1,100,1.701482
1575568791.062251,126966.000,21720,1,ER,1,100,1.701321
1575568791.131836,127024.500,21737,2,ER,1,100,1.700112
1575568791.201421,127083.000,21737,2,ER,1,100,1.702167
1575568791.268032,127139.000,21755,2,ER,1,100,1.700072
1575568791.334643,127195.000,21755,2,ER,1,100,1.702731
1575568791.397685,127248.000,21771,2,ER,1,100,1.700475
1575568791.460728,127301.000,21771,2,ER,1,100,1.702368
1575568791.527339,127357.000,21789,2,ER,1,100,1.700354
1575568791.593950,127413.000,21789,2,ER,1,100,1.702489
1575568791.660560,127469.000,21807,1,ER,1,100,1.701804
1575568791.730145,127527.500,21825,2,ER,1,100,1.700394
1575568791.799730,127586.000,21825,2,ER,1,100,1.702529
1575568791.868720,127644.000,21844,2,ER,1,100,1.699709
1575568791.937710,127702.000,21844,2,ER,1,100,1.701724
1575568792.006699,127760.000,21862,2,ER,1,100,1.699709
1575568792.075689,127818.000,21862,2,ER,1,100,1.702489
1575568792.147058,127878.000,21880,1,ER,1,100,1.702006
1575568792.211290,127932.000,21897,2,ER,1,100,1.699629
1575568792.275522,127986.000,21897,2,ER,1,100,1.703133
1575568792.340349,128040.500,21915,2,ER,1,100,1.699589
1575568792.405175,128095.000,21915,2,ER,1,100,1.702489
1575568792.472976,128152.000,21933,2,ER,1,100,1.698138
1575568792.540776,128209.000,21933,2,ER,1,100,1.701563
1575568792.605603,128263.500,21949,2,ER,1,100,1.700475
1575568792.670430,128318.000,21949,2,ER,1,100,1.700032
1575568792.740609,128377.000,21967,1,ER,1,100,1.700435
1575568792.808409,128434.000,21986,2,ER,1,100,1.699669
1575568792.876210,128491.000,21986,2,ER,1,100,1.702046
1575568792.946984,128550.500,22004,2,ER,1,100,1.698340
1575568793.017758,128610.000,22004,2,ER,1,100,1.701200
1575568793.080801,128663.000,22022,2,ER,1,100,1.698702
1575568793.143843,128716.000,22022,2,ER,1,100,1.701724
1575568793.209265,128771.000,22040,2,ER,1,100,1.699669
1575568793.274686,128826.000,22040,2,ER,1,100,1.700918
1575568793.340108,128881.000,22058,1,ER,1,100,1.701925
1575568793.409692,128939.500,22075,2,ER,1,100,1.702046
1575568793.479277,128998.000,22075,2,ER,1,100,1.701724
1575568793.548862,129056.500,22093,2,ER,1,100,1.698219
1575568793.618446,129115.000,22093,2,ER,1,100,1.701643
1575568793.680299,129167.000,22111,2,ER,1,100,1.698944
1575568793.742152,129219.000,22111,2,ER,1,100,1.700918
1575568793.806979,129273.500,22127,2,ER,1,100,1.698582
1575568793.871806,129328.000,22127,2,ER,1,100,1.700314
1575568793.938416,129384.000,22146,2,ER,1,100,1.698984
1575568794.005028,129440.000,22146,2,ER,1,100,1.699266
1575568794.072828,129497.000,22167,2,ER,1,100,1.700918
1575568794.140628,129554.000,22167,2,ER,1,100,1.699025
1575568794.209023,129611.500,22185,2,ER,1,100,1.698300
1575568794.277419,129669.000,22185,2,ER,1,100,1.701039
1575568794.341056,129722.500,22204,2,ER,1,100,1.698582
1575568794.404693,129776.000,22204,2,ER,1,100,1.701845
1575568794.470114,129831.000,22223,2,ER,1,100,1.698823
1575568794.535536,129886.000,22223,2,ER,1,100,1.701442
1575568794.603931,129943.500,22239,2,ER,1,100,1.698984
1575568794.672326,130001.000,22239,2,ER,1,100,1.699629
1575568794.740127,130058.000,22257,1,ER,1,100,1.700837
1575568794.809711,130116.500,22275,2,ER,1,100,1.699266
1575568794.879296,130175.000,22275,2,ER,1,100,1.701603
1575568794.941149,130227.000,22294,2,ER,1,100,1.697816
1575568795.003002,130279.000,22294,2,ER,1,100,1.701160
1575568795.067829,130333.500,22312,2,ER,1,100,1.698541
1575568795.132655,130388.000,22312,2,ER,1,100,1.699991
1575568795.201051,130445.500,22330,2,ER,1,100,1.699508
1575568795.269446,130503.000,22330,2,ER,1,100,1.700193
1575568795.337246,130560.000,22348,1,ER,1,100,1.700072
1575568795.406236,130618.000,22365,2,ER,1,100,1.697977
1575568795.475226,130676.000,22365,2,ER,1,100,1.700032
1575568795.538269,130729.000,22383,2,ER,1,100,1.697292
1575568795.601311,130782.000,22383,2,ER,1,100,1.700475
1575568795.666732,130837.000,22401,2,ER,1,100,1.696688
1575568795.732154,130892.000,22401,2,ER,1,100,1.699790
1575568795.799360,130948.500,22417,2,ER,1,100,1.698863
1575568795.866565,131005.000,22417,2,ER,1,100,1.699991
1575568795.937934,131065.000,22436,1,ER,1,100,1.699951
1575568796.005734,131122.000,22454,2,ER,1,100,1.697333
1575568796.073535,131179.000,22454,2,ER,1,100,1.698944
1575568796.143120,131237.500,22472,2,ER,1,100,1.696930
1575568796.212704,131296.000,22472,2,ER,1,100,1.700032
1575568796.281099,131353.500,22490,2,ER,1,100,1.697091
1575568796.349494,131411.000,22490,2,ER,1,100,1.699025
1575568796.412537,131464.000,22508,2,ER,1,100,1.698702
1575568796.475580,131517.000,22508,2,ER,1,100,1.697333
1575568796.541001,131572.000,22526,1,ER,1,100,1.705550
1575568796.608207,131628.500,22543,2,ER,1,100,1.701039
1575568796.675412,131685.000,22543,2,ER,1,100,1.698783
1575568796.744402,131743.000,22561,2,ER,1,100,1.696406
1575568796.813392,131801.000,22561,2,ER,1,100,1.698501
1575568796.881192,131858.000,22578,2,ER,1,100,1.696930
1575568796.948993,131915.000,22578,2,ER,1,100,1.699186
1575568797.017983,131973.000,22596,1,ER,1,100,1.698420
1575568797.086973,132031.000,22614,2,ER,1,100,1.698058
1575568797.155963,132089.000,22614,2,ER,1,100,1.699911
1575568797.220195,132143.000,22632,2,ER,1,100,1.697897
1575568797.284426,132197.000,22632,2,ER,1,100,1.699307
1575568797.349253,132251.500,22650,2,ER,1,100,1.697011
1575568797.414080,132306.000,22650,2,ER,1,100,1.702328
1575568797.480691,132362.000,22668,2,ER,1,100,1.697453
1575568797.547302,132418.000,22668,2,ER,1,100,1.698984
1575568797.616292,132476.000,22686,1,ER,1,100,1.699750
1575568797.684092,132533.000,22703,2,ER,1,100,1.700515
1575568797.751893,132590.000,22703,2,ER,1,100,1.701442
1575568797.817314,132645.000,22721,2,ER,1,100,1.698582
1575568797.882735,132700.000,22721,2,ER,1,100,1.701724
1575568797.948157,132755.000,22740,2,ER,1,100,1.697977
1575568798.013578,132810.000,22740,2,ER,1,100,1.700757
1575568798.079000,132865.000,22756,2,ER,1,100,1.698300
1575568798.144421,132920.000,22756,2,ER,1,100,1.699669
1575568798.218169,132982.000,22774,1,ER,1,100,1.700153
1575568798.284780,133038.000,22792,2,ER,1,100,1.699387
1575568798.351391,133094.000,22792,2,ER,1,100,1.700878
1575568798.418597,133150.500,22810,2,ER,1,100,1.697212
1575568798.485802,133207.000,22810,2,ER,1,100,1.700273
1575568798.550034,133261.000,22828,2,ER,1,100,1.697655
1575568798.614266,133315.000,22828,2,ER,1,100,1.700354
1575568798.680877,133371.000,22846,2,ER,1,100,1.697011
1575568798.747488,133427.000,22846,2,ER,1,100,1.700716
1575568798.820046,133488.000,22864,1,ER,1,100,1.699830
1575568798.887252,133544.500,22882,2,ER,1,100,1.698984
1575568798.954458,133601.000,22882,2,ER,1,100,1.700032
1575568799.020474,133656.500,22900,2,ER,1,100,1.697776
1575568799.086490,133712.000,22900,2,ER,1,100,1.700394
1575568799.148938,133764.500,22918,2,ER,1,100,1.697252
1575568799.211386,133817.000,22918,2,ER,1,100,1.699226
1575568799.277402,133872.500,22936,2,ER,1,100,1.697131
1575568799.343418,133928.000,22936,2,ER,1,100,1.700797
1575568799.411813,133985.500,22952,2,ER,1,100,1.699105
1575568799.480208,134043.000,22952,2,ER,1,100,1.699025
1575568799.548009,134100.000,22970,1,ER,1,100,1.699750
1575568799.615809,134157.000,22988,2,ER,1,100,1.698501
1575568799.683610,134214.000,22988,2,ER,1,100,1.701683
1575568799.753194,134272.500,23006,2,ER,1,100,1.698461
1575568799.822779,134331.000,23006,2,ER,1,100,1.700193
1575568799.885227,134383.500,23025,2,ER,1,100,1.699669
1575568799.947675,134436.000,23025,2,ER,1,100,1.699548
1575568800.011312,134489.500,23043,2,ER,1,100,1.699065
1575568800.074949,134543.000,23043,2,ER,1,100,1.698582
1575568800.142749,134600.000,23064,2,ER,1,100,1.699548
1575568800.210550,134657.000,23064,2,ER,1,100,1.697212
1575568800.278350,134714.000,23082,2,ER,1,100,1.696527
1575568800.346151,134771.000,23082,2,ER,1,100,1.699347
1575568800.415141,134829.000,23102,2,ER,1,100,1.698138
1575568800.484130,134887.000,23102,2,ER,1,100,1.700475
1575568800.548362,134941.000,23120,2,ER,1,100,1.698138
1575568800.612594,134995.000,23120,2,ER,1,100,1.698541
1575568800.678611,135050.500,23138,2,ER,1,100,1.697856
1575568800.744627,135106.000,23138,2,ER,1,100,1.698219
1575568800.808264,135159.500,23156,2,ER,1,100,1.696970
1575568800.871901,135213.000,23156,2,ER,1,100,1.695560
1575568800.937323,135268.000,23175,1,ER,1,100,1.698340
1575568801.004528,135324.500,23192,2,ER,1,100,1.695158
1575568801.071734,135381.000,23192,2,ER,1,100,1.698501
1575568801.141319,135439.500,23210,2,ER,1,100,1.695883
1575568801.210903,135498.000,23210,2,ER,1,100,1.698420
1575568801.278704,135555.000,23226,2,ER,1,100,1.696608
1575568801.346504,135612.000,23226,2,ER,1,100,1.694755
1575568801.410736,135666.000,23244,1,ER,1,100,1.692660
1575568801.473779,135719.000,23262,2,ER,1,100,1.699951
1575568801.536821,135772.000,23262,2,ER,1,100,1.703617
1575568801.604622,135829.000,23280,2,ER,1,100,1.699589
1575568801.672422,135886.000,23280,2,ER,1,100,1.700918
1575568801.740222,135943.000,23298,2,ER,1,100,1.697292
1575568801.808023,136000.000,23298,2,ER,1,100,1.699307
1575568801.876418,136057.500,23317,2,ER,1,100,1.697736
1575568801.944813,136115.000,23317,2,ER,1,100,1.699669
1575568802.008450,136168.500,23335,2,ER,1,100,1.699870
1575568802.072088,136222.000,23335,2,ER,1,100,1.697977
1575568802.135130,136275.000,23353,1,ER,1,100,1.700716
1575568802.202930,136332.000,23370,2,ER,1,100,1.697816
1575568802.270731,136389.000,23370,2,ER,1,100,1.700958
1575568802.340316,136447.500,23388,2,ER,1,100,1.698582
1575568802.409900,136506.000,23388,2,ER,1,100,1.702852
1575568802.477106,136562.500,23404,2,ER,1,100,1.699145
1575568802.544312,136619.000,23404,2,ER,1,100,1.700394
1575568802.613302,136677.000,23422,1,ER,1,100,1.698098
1575568802.675749,136729.500,23440,2,ER,1,100,1.695963
1575568802.738197,136782.000,23440,2,ER,1,100,1.698300
1575568802.805403,136838.500,23459,2,ER,1,100,1.697937
1575568802.872608,136895.000,23459,2,ER,1,100,1.700072
1575568802.942788,136954.000,23477,2,ER,1,100,1.699790
1575568803.012967,137013.000,23477,2,ER,1,100,1.701603
1575568803.079578,137069.000,23495,2,ER,1,100,1.699105
1575568803.146189,137125.000,23495,2,ER,1,100,1.699266
1575568803.210421,137179.000,23513,2,ER,1,100,1.699911
1575568803.274653,137233.000,23513,2,ER,1,100,1.699307
1575568803.336506,137285.000,23531,1,ER,1,100,1.699991
1575568803.401927,137340.000,23548,2,ER,1,100,1.697131
1575568803.467349,137395.000,23548,2,ER,1,100,1.698904
1575568803.537528,137454.000,23566,2,ER,1,100,1.697212
1575568803.607708,137513.000,23566,2,ER,1,100,1.699105
1575568803.676103,137570.500,23584,2,ER,1,100,1.695842
1575568803.744498,137628.000,23584,2,ER,1,100,1.698501
1575568803.817056,137689.000,23600,1,ER,1,100,1.698501
1575568803.883667,137745.000,23619,2,ER,1,100,1.695883
1575568803.950278,137801.000,23619,2,ER,1,100,1.699387
1575568804.017484,137857.500,23637,2,ER,1,100,1.694674
1575568804.084689,137914.000,23637,2,ER,1,100,1.696326
1575568804.148327,137967.500,23655,2,ER,1,100,1.693465
1575568804.211964,138021.000,23655,2,ER,1,100,1.696809
1575568804.277980,138076.500,23673,2,ER,1,100,1.694594
1575568804.343996,138132.000,23673,2,ER,1,100,1.695923
1575568804.414176,138191.000,23691,1,ER,1,100,1.694755
1575568804.482571,138248.500,23708,2,ER,1,100,1.693506
1575568804.550966,138306.000,23708,2,ER,1,100,1.694916
1575568804.619361,138363.500,23726,2,ER,1,100,1.692942
1575568804.687756,138421.000,23726,2,ER,1,100,1.695238
1575568804.751394,138474.500,23742,2,ER,1,100,1.689679
1575568804.815031,138528.000,23742,2,ER,1,100,1.690807
1575568804.881047,138583.500,23761,2,ER,1,100,1.690082
1575568804.947063,138639.000,23761,2,ER,1,100,1.691371
1575568805.010700,138692.500,23779,2,ER,1,100,1.692660
1575568805.074338,138746.000,23779,2,ER,1,100,1.692378
1575568805.142138,138803.000,23797,1,ER,1,100,1.695037
1575568805.211128,138861.000,23815,2,ER,1,100,1.692217
1575568805.280118,138919.000,23815,2,ER,1,100,1.695560
1575568805.348513,138976.500,23833,2,ER,1,100,1.693828
1575568805.416908,139034.000,23833,2,ER,1,100,1.696849
1575568805.482330,139089.000,23851,2,ER,1,100,1.695842
1575568805.547751,139144.000,23851,2,ER,1,100,1.695520
1575568805.611388,139197.500,23869,2,ER,1,100,1.695278
1575568805.675025,139251.000,23869,2,ER,1,100,1.695077
1575568805.739258,139305.000,23887,1,ER,1,100,1.696728
1575568805.807653,139362.500,23905,2,ER,1,100,1.694352
1575568805.876048,139420.000,23905,2,ER,1,100,1.697333
1575568805.945632,139478.500,23923,2,ER,1,100,1.695601
1575568806.015217,139537.000,23923,2,ER,1,100,1.698501
1575568806.080639,139592.000,23939,2,ER,1,100,1.696285
1575568806.146060,139647.000,23939,2,ER,1,100,1.696406
1575568806.209896,139700.667,23958,3,ER,1,100,1.696084
1575568806.273731,139754.333,23958,3,ER,1,100,1.696890
1575568806.337566,139808.000,23958,3,ER,1,100,1.695762
1575568806.408935,139868.000,23980,1,ER,1,100,1.696648
1575568806.475546,139924.000,23997,2,ER,1,100,1.700112
1575568806.542157,139980.000,23997,2,ER,1,100,1.699347
1575568806.611742,140038.500,24015,2,ER,1,100,1.697977
1575568806.681326,140097.000,24015,2,ER,1,100,1.700193
1575568806.747937,140153.000,24031,2,ER,1,100,1.699186
1575568806.814548,140209.000,24031,2,ER,1,100,1.698984
1575568806.876401,140261.000,24050,2,ER,1,100,1.699951
1575568806.938254,140313.000,24050,2,ER,1,100,1.699790
1575568807.008434,140372.000,24068,1,ER,1,100,1.700112
1575568807.075639,140428.500,24086,2,ER,1,100,1.699025
1575568807.142845,140485.000,24086,2,ER,1,100,1.701119
1575568807.211835,140543.000,24104,2,ER,1,100,1.698098
1575568807.280825,140601.000,24104,2,ER,1,100,1.700757
1575568807.346246,140656.000,24122,2,ER,1,100,1.699508
1575568807.411668,140711.000,24122,2,ER,1,100,1.700515
1575568807.474116,140763.500,24140,2,ER,1,100,1.699911
1575568807.536563,140816.000,24140,2,ER,1,100,1.701079
1575568807.604364,140873.000,24158,1,ER,1,100,1.700032
1575568807.672164,140930.000,24175,2,ER,1,100,1.699468
1575568807.739964,140987.000,24175,2,ER,1,100,1.702207
1575568807.807170,141043.500,24193,2,ER,1,100,1.698863
1575568807.874376,141100.000,24193,2,ER,1,100,1.701119
1575568807.943961,141158.500,24212,2,ER,1,100,1.699307
1575568808.013545,141217.000,24212,2,ER,1,100,1.701683
1575568808.078967,141272.000,24228,1,ER,1,100,1.699548
1575568808.148551,141330.500,24246,2,ER,1,100,1.699709
1575568808.218136,141389.000,24246,2,ER,1,100,1.700958
1575568808.281178,141442.000,24264,2,ER,1,100,1.698582
1575568808.344221,141495.000,24264,2,ER,1,100,1.700193
1575568808.409048,141549.500,24282,2,ER,1,100,1.698541
1575568808.473874,141604.000,24282,2,ER,1,100,1.700314
1575568808.543459,141662.500,24300,2,ER,1,100,1.698340
1575568808.613044,141721.000,24300,2,ER,1,100,1.701361
1575568808.678465,141776.000,24318,1,ER,1,100,1.698904
1575568808.750429,141836.500,24335,2,ER,1,100,1.700273
1575568808.822392,141897.000,24335,2,ER,1,100,1.700676
1575568808.890787,141954.500,24354,2,ER,1,100,1.698340
1575568808.959183,142012.000,24354,2,ER,1,100,1.701160
1575568809.026983,142069.000,24370,2,ER,1,100,1.698300
1575568809.094783,142126.000,24370,2,ER,1,100,1.699629
1575568809.157231,142178.500,24388,2,ER,1,100,1.698944
1575568809.219679,142231.000,24388,2,ER,1,100,1.697736
1575568809.286290,142287.000,24406,1,ER,1,100,1.699629
1575568809.354090,142344.000,24424,2,ER,1,100,1.697574
1575568809.421891,142401.000,24424,2,ER,1,100,1.700314
1575568809.489691,142458.000,24442,2,ER,1,100,1.696446
1575568809.557492,142515.000,24442,2,ER,1,100,1.699548
1575568809.625887,142572.500,24460,2,ER,1,100,1.695762
1575568809.694282,142630.000,24460,2,ER,1,100,1.697011
1575568809.756730,142682.500,24478,2,ER,1,100,1.695721
1575568809.819177,142735.000,24478,2,ER,1,100,1.695842
1575568809.884004,142789.500,24497,2,ER,1,100,1.695278
1575568809.948831,142844.000,24497,2,ER,1,100,1.693506
1575568810.021389,142905.000,24515,1,ER,1,100,1.696245
1575568810.088000,142961.000,24532,2,ER,1,100,1.693264
1575568810.154611,143017.000,24532,2,ER,1,100,1.695641
1575568810.223601,143075.000,24550,2,ER,1,100,1.693103
1575568810.292591,143133.000,24550,2,ER,1,100,1.696567
1575568810.356228,143186.500,24566,2,ER,1,100,1.694634
1575568810.419865,143240.000,24566,2,ER,1,100,1.693385
1575568810.484097,143294.000,24584,2,ER,1,100,1.693345
1575568810.548329,143348.000,24584,2,ER,1,100,1.694432
1575568810.618509,143407.000,24602,1,ER,1,100,1.695037
1575568810.685714,143463.500,24620,2,ER,1,100,1.692781
1575568810.752920,143520.000,24620,2,ER,1,100,1.695037
1575568810.821910,143578.000,24638,2,ER,1,100,1.692378
1575568810.890900,143636.000,24638,2,ER,1,100,1.694795
1575568810.953347,143688.500,24657,2,ER,1,100,1.694110
1575568811.015795,143741.000,24657,2,ER,1,100,1.692982
1575568811.080027,143795.000,24675,2,ER,1,100,1.692821
1575568811.144259,143849.000,24675,2,ER,1,100,1.693828
1575568811.214439,143908.000,24693,1,ER,1,100,1.695681
1575568811.281644,143964.500,24710,2,ER,1,100,1.692942
1575568811.348850,144021.000,24710,2,ER,1,100,1.697333
1575568811.417840,144079.000,24728,2,ER,1,100,1.693748
1575568811.486830,144137.000,24728,2,ER,1,100,1.696326
1575568811.550467,144190.500,24744,2,ER,1,100,1.696245
1575568811.614104,144244.000,24744,2,ER,1,100,1.698702
1575568811.677742,144297.500,24762,2,ER,1,100,1.698259
1575568811.741379,144351.000,24762,2,ER,1,100,1.698501
1575568811.805016,144404.500,24780,2,ER,1,100,1.698501
1575568811.868653,144458.000,24780,2,ER,1,100,1.699307
1575568811.932885,144512.000,24799,1,ER,1,100,1.701321
1575568811.999496,144568.000,24817,2,ER,1,100,1.699307
1575568812.066107,144624.000,24817,2,ER,1,100,1.701724
1575568812.135692,144682.500,24835,2,ER,1,100,1.698582
1575568812.205276,144741.000,24835,2,ER,1,100,1.700958
1575568812.272680,144797.667,24856,3,ER,1,100,1.698743
1575568812.340084,144854.333,24856,3,ER,1,100,1.700918
1575568812.407488,144911.000,24856,3,ER,1,100,1.697897
1575568812.474099,144967.000,24876,2,ER,1,100,1.698300
1575568812.540710,145023.000,24876,2,ER,1,100,1.700958
1575568812.604942,145077.000,24894,1,ER,1,100,1.700233
1575568812.667984,145130.000,24912,2,ER,1,100,1.698944
1575568812.731027,145183.000,24912,2,ER,1,100,1.701442
1575568812.797043,145238.500,24931,2,ER,1,100,1.698662
1575568812.863059,145294.000,24931,2,ER,1,100,1.701280
1575568812.932644,145352.500,24949,2,ER,1,100,1.698662
1575568813.002228,145411.000,24949,2,ER,1,100,1.701563
1575568813.070624,145468.500,24967,2,ER,1,100,1.700394
1575568813.139019,145526.000,24967,2,ER,1,100,1.700354
1575568813.205630,145582.000,24985,1,ER,1,100,1.701240
1575568813.268672,145635.000,25002,2,ER,1,100,1.699065
1575568813.331715,145688.000,25002,2,ER,1,100,1.701280
1575568813.397731,145743.500,25020,2,ER,1,100,1.699548
1575568813.463747,145799.000,25020,2,ER,1,100,1.702328
1575568813.532142,145856.500,25038,2,ER,1,100,1.699468
1575568813.600538,145914.000,25038,2,ER,1,100,1.702247
1575568813.667743,145970.500,25054,2,ER,1,100,1.700636
1575568813.734949,146027.000,25054,2,ER,1,100,1.701522
1575568813.805128,146086.000,25072,1,ER,1,100,1.701361
1575568813.868171,146139.000,25091,2,ER,1,100,1.699307
1575568813.931213,146192.000,25091,2,ER,1,100,1.701160
1575568813.997229,146247.500,25109,2,ER,1,100,1.699025
1575568814.063246,146303.000,25109,2,ER,1,100,1.701321
1575568814.132830,146361.500,25127,2,ER,1,100,1.698622
1575568814.202415,146420.000,25127,2,ER,1,100,1.701563
1575568814.269620,146476.500,25145,2,ER,1,100,1.699468
1575568814.336826,146533.000,25145,2,ER,1,100,1.700354
1575568814.410574,146595.000,25163,1,ER,1,100,1.700716
1575568814.471832,146646.500,25180,2,ER,1,100,1.698622
1575568814.533091,146698.000,25180,2,ER,1,100,1.701280
1575568814.597917,146752.500,25198,2,ER,1,100,1.698501
1575568814.662744,146807.000,25198,2,ER,1,100,1.700918
1575568814.732923,146866.000,25216,2,ER,1,100,1.698702
1575568814.803103,146925.000,25216,2,ER,1,100,1.700354
1575568814.869714,146981.000,25233,2,ER,1,100,1.698984
1575568814.936325,147037.000,25233,2,ER,1,100,1.700999
1575568815.007694,147097.000,25251,1,ER,1,100,1.701845
1575568815.069546,147149.000,25269,2,ER,1,100,1.698984
1575568815.131399,147201.000,25269,2,ER,1,100,1.703657
1575568815.195632,147255.000,25287,2,ER,1,100,1.699709
1575568815.259863,147309.000,25287,2,ER,1,100,1.701764
1575568815.329448,147367.500,25305,2,ER,1,100,1.698340
1575568815.399033,147426.000,25305,2,ER,1,100,1.700555
1575568815.467428,147483.500,25323,2,ER,1,100,1.699307
1575568815.535823,147541.000,25323,2,ER,1,100,1.701079
1575568815.604813,147599.000,25341,1,ER,1,100,1.700797
1575568815.671424,147655.000,25358,2,ER,1,100,1.699307
1575568815.738035,147711.000,25358,2,ER,1,100,1.700475
1575568815.808214,147770.000,25376,2,ER,1,100,1.698783
1575568815.878394,147829.000,25376,2,ER,1,100,1.702167
1575568815.942031,147882.500,25393,2,ER,1,100,1.699508
1575568816.005668,147936.000,25393,2,ER,1,100,1.700555
1575568816.070495,147990.500,25411,2,ER,1,100,1.698582
1575568816.135321,148045.000,25411,2,ER,1,100,1.700716
1575568816.203122,148102.000,25429,1,ER,1,100,1.699266
1575568816.272707,148160.500,25447,2,ER,1,100,1.698340
1575568816.342291,148219.000,25447,2,ER,1,100,1.700273
1575568816.409497,148275.500,25465,2,ER,1,100,1.698219
1575568816.476702,148332.000,25465,2,ER,1,100,1.701442
1575568816.546287,148390.500,25483,2,ER,1,100,1.699629
1575568816.615872,148449.000,25483,2,ER,1,100,1.699790
1575568816.683672,148506.000,25501,1,ER,1,100,1.699790
1575568816.749094,148561.000,25518,2,ER,1,100,1.697937
1575568816.814515,148616.000,25518,2,ER,1,100,1.700757
1575568816.878152,148669.500,25537,2,ER,1,100,1.697212
1575568816.941790,148723.000,25537,2,ER,1,100,1.701160
1575568817.009590,148780.000,25555,2,ER,1,100,1.697695
1575568817.077390,148837.000,25555,2,ER,1,100,1.700555
1575568817.145191,148894.000,25571,2,ER,1,100,1.698823
1575568817.212991,148951.000,25571,2,ER,1,100,1.701603
1575568817.283171,149010.000,25589,1,ER,1,100,1.699750
1575568817.348592,149065.000,25607,2,ER,1,100,1.698904
1575568817.414014,149120.000,25607,2,ER,1,100,1.699629
1575568817.476461,149172.500,25625,2,ER,1,100,1.698259
1575568817.538909,149225.000,25625,2,ER,1,100,1.700837
1575568817.606709,149282.000,25643,2,ER,1,100,1.698461
1575568817.674510,149339.000,25643,2,ER,1,100,1.701039
1575568817.744095,149397.500,25661,2,ER,1,100,1.698018
1575568817.813679,149456.000,25661,2,ER,1,100,1.700153
1575568817.880290,149512.000,25680,1,ER,1,100,1.699266
1575568817.948685,149569.500,25698,2,ER,1,100,1.698622
1575568818.017080,149627.000,25698,2,ER,1,100,1.701079
1575568818.078933,149679.000,25715,2,ER,1,100,1.698420
1575568818.140786,149731.000,25715,2,ER,1,100,1.700555
1575568818.207992,149787.500,25733,2,ER,1,100,1.698219
1575568818.275198,149844.000,25733,2,ER,1,100,1.700757
1575568818.343791,149901.667,25752,3,ER,1,100,1.698420
1575568818.412385,149959.333,25752,3,ER,1,100,1.700314
1575568818.480978,150017.000,25752,3,ER,1,100,1.697856
1575568818.549968,150075.000,25774,1,ER,1,100,1.697816
1575568818.614795,150129.500,25791,2,ER,1,100,1.700032
1575568818.679621,150184.000,25791,2,ER,1,100,1.700596
1575568818.743853,150238.000,25809,2,ER,1,100,1.698259
1575568818.808085,150292.000,25809,2,ER,1,100,1.700636
1575568818.875291,150348.500,25828,2,ER,1,100,1.697937
1575568818.942497,150405.000,25828,2,ER,1,100,1.700636
1575568819.011487,150463.000,25846,2,ER,1,100,1.696930
1575568819.080477,150521.000,25846,2,ER,1,100,1.699427
1575568819.148277,150578.000,25862,1,ER,1,100,1.698944
1575568819.213698,150633.000,25880,2,ER,1,100,1.699186
1575568819.279120,150688.000,25880,2,ER,1,100,1.700958
1575568819.341568,150740.500,25898,2,ER,1,100,1.698863
1575568819.404015,150793.000,25898,2,ER,1,100,1.701442
1575568819.471816,150850.000,25916,2,ER,1,100,1.698622
1575568819.539616,150907.000,25916,2,ER,1,100,1.700394
1575568819.605037,150962.000,25934,2,ER,1,100,1.698622
1575568819.670459,151017.000,25934,2,ER,1,100,1.702167
1575568819.740638,151076.000,25952,2,ER,1,100,1.699025
1575568819.810818,151135.000,25952,2,ER,1,100,1.700716
1575568819.876239,151190.000,25971,1,ER,1,100,1.700596
1575568819.947608,151250.000,25988,2,ER,1,100,1.698904
1575568820.018977,151310.000,25988,2,ER,1,100,1.701522
1575568820.082614,151363.500,26006,2,ER,1,100,1.698138
1575568820.146251,151417.000,26006,2,ER,1,100,1.700999
1575568820.210483,151471.000,26024,2,ER,1,100,1.698420
1575568820.274715,151525.000,26024,2,ER,1,100,1.703818
1575568820.342516,151582.000,26040,2,ER,1,100,1.699508
1575568820.410316,151639.000,26040,2,ER,1,100,1.698702
1575568820.473359,151692.000,26058,1,ER,1,100,1.699991
1575568820.541754,151749.500,26076,2,ER,1,100,1.699911
1575568820.610149,151807.000,26076,2,ER,1,100,1.700918
1575568820.678544,151864.500,26094,2,ER,1,100,1.696728
1575568820.746939,151922.000,26094,2,ER,1,100,1.700596
1575568820.817119,151981.000,26112,2,ER,1,100,1.697776
1575568820.887298,152040.000,26112,2,ER,1,100,1.700354
1575568820.949746,152092.500,26131,2,ER,1,100,1.698179
1575568821.012194,152145.000,26131,2,ER,1,100,1.697856
1575568821.075831,152198.500,26149,2,ER,1,100,1.699025
1575568821.139468,152252.000,26149,2,ER,1,100,1.698098
1575568821.207268,152309.000,26167,1,ER,1,100,1.698944
1575568821.275069,152366.000,26184,2,ER,1,100,1.697615
1575568821.342869,152423.000,26184,2,ER,1,100,1.700878
1575568821.412454,152481.500,26202,2,ER,1,100,1.697615
1575568821.482038,152540.000,26202,2,ER,1,100,1.700153
1575568821.545081,152593.000,26218,2,ER,1,100,1.698098
1575568821.608124,152646.000,26218,2,ER,1,100,1.698702
1575568821.671166,152699.000,26236,2,ER,1,100,1.698823
1575568821.734209,152752.000,26236,2,ER,1,100,1.699307
1575568821.805578,152812.000,26254,1,ER,1,100,1.699266
1575568821.872783,152868.500,26273,2,ER,1,100,1.697534
1575568821.939989,152925.000,26273,2,ER,1,100,1.700273
1575568822.010168,152984.000,26291,2,ER,1,100,1.698300
1575568822.080348,153043.000,26291,2,ER,1,100,1.700153
1575568822.146364,153098.500,26309,2,ER,1,100,1.698622
1575568822.212380,153154.000,26309,2,ER,1,100,1.699347
1575568822.274828,153206.500,26327,2,ER,1,100,1.699065
1575568822.337276,153259.000,26327,2,ER,1,100,1.698904
1575568822.406265,153317.000,26345,1,ER,1,100,1.699226
1575568822.473471,153373.500,26362,2,ER,1,100,1.697574
1575568822.540677,153430.000,26362,2,ER,1,100,1.699025
1575568822.609667,153488.000,26380,2,ER,1,100,1.697252
1575568822.678656,153546.000,26380,2,ER,1,100,1.698420
1575568822.744078,153601.000,26396,2,ER,1,100,1.697937
1575568822.809499,153656.000,26396,2,ER,1,100,1.699709
1575568822.871947,153708.500,26415,2,ER,1,100,1.698622
1575568822.934395,153761.000,26415,2,ER,1,100,1.700032
1575568823.003385,153819.000,26433,1,ER,1,100,1.700716
1575568823.070590,153875.500,26451,2,ER,1,100,1.697897
1575568823.137796,153932.000,26451,2,ER,1,100,1.700153
1575568823.206786,153990.000,26469,2,ER,1,100,1.699186
1575568823.275776,154048.000,26469,2,ER,1,100,1.701401
1575568823.342387,154104.000,26487,2,ER,1,100,1.699951
1575568823.408998,154160.000,26487,2,ER,1,100,1.700636
1575568823.474419,154215.000,26505,2,ER,1,100,1.698984
1575568823.539841,154270.000,26505,2,ER,1,100,1.698219
1575568823.605262,154325.000,26523,1,ER,1,100,1.699186
1575568823.668305,154378.000,26540,2,ER,1,100,1.698702
1575568823.731347,154431.000,26540,2,ER,1,100,1.700757
1575568823.796174,154485.500,26559,2,ER,1,100,1.697937
1575568823.861001,154540.000,26559,2,ER,1,100,1.700596
1575568823.931180,154599.000,26577,2,ER,1,100,1.699025
1575568824.001359,154658.000,26577,2,ER,1,100,1.701804
1575568824.069755,154715.500,26593,2,ER,1,100,1.698743
1575568824.138150,154773.000,26593,2,ER,1,100,1.700153
1575568824.207139,154831.000,26611,1,ER,1,100,1.701039
1575568824.273751,154887.000,26629,2,ER,1,100,1.698420
1575568824.340361,154943.000,26629,2,ER,1,100,1.699991
1575568824.405386,154997.667,26650,3,ER,1,100,1.698904
1575568824.470411,155052.333,26650,3,ER,1,100,1.702207
1575568824.535436,155107.000,26650,3,ER,1,100,1.698622
1575568824.599668,155161.000,26670,2,ER,1,100,1.698259
1575568824.663900,155215.000,26670,2,ER,1,100,1.701442
1575568824.733485,155273.500,26686,2,ER,1,100,1.699589
1575568824.803070,155332.000,26686,2,ER,1,100,1.699468
1575568824.870870,155389.000,26705,1,ER,1,100,1.698179
1575568824.941049,155448.000,26723,2,ER,1,100,1.699186
1575568825.011229,155507.000,26723,2,ER,1,100,1.700193
1575568825.073676,155559.500,26741,2,ER,1,100,1.696769
1575568825.136124,155612.000,26741,2,ER,1,100,1.700394
1575568825.200951,155666.500,26759,2,ER,1,100,1.697695
1575568825.265778,155721.000,26759,2,ER,1,100,1.700032
1575568825.332983,155777.500,26777,2,ER,1,100,1.697172
1575568825.400189,155834.000,26777,2,ER,1,100,1.700837
1575568825.467395,155890.500,26795,2,ER,1,100,1.698219
1575568825.534600,155947.000,26795,2,ER,1,100,1.698582
1575568825.605969,156007.000,26813,1,ER,1,100,1.700072
1575568825.669606,156060.500,26830,2,ER,1,100,1.696688
1575568825.733244,156114.000,26830,2,ER,1,100,1.702368
1575568825.798070,156168.500,26848,2,ER,1,100,1.698823
1575568825.862897,156223.000,26848,2,ER,1,100,1.702167
