EpochTimestamp,EmotiBitTimestamp,PacketNumber,DataLength,TypeTag,ProtocolVersion,DataReliability,ER
1575568018.215179,76296.000,12854,3,ER,1,100,1.640090
1575568018.215179,76296.000,12854,3,ER,1,100,1.678359
1575568018.215179,76296.000,12854,3,ER,1,100,1.644804
1575568018.285286,76355.000,12872,1,ER,1,100,1.612899
1575568018.352423,76411.500,12889,2,ER,1,100,1.654351
1575568018.419560,76468.000,12889,2,ER,1,100,1.655922
1575568018.487885,76525.500,12907,2,ER,1,100,1.652256
1575568018.556210,76583.000,12907,2,ER,1,100,1.650443
1575568018.624535,76640.500,12923,2,ER,1,100,1.648228
1575568018.692861,76698.000,12923,2,ER,1,100,1.647462
1575568018.755838,76751.000,12941,2,ER,1,100,1.643192
1575568018.818816,76804.000,12941,2,ER,1,100,1.642588
1575568018.885359,76860.000,12959,1,ER,1,100,1.645166
1575568018.953090,76917.000,12978,2,ER,1,100,1.641097
1575568019.020821,76974.000,12978,2,ER,1,100,1.631993
1575568019.087958,77030.500,12996,2,ER,1,100,1.633041
1575568019.155095,77087.000,12996,2,ER,1,100,1.648993
1575568019.224608,77145.500,13014,2,ER,1,100,1.656767
1575568019.294122,77204.000,13014,2,ER,1,100,1.659869
1575568019.357100,77257.000,13032,2,ER,1,100,1.663132
1575568019.420077,77310.000,13032,2,ER,1,100,1.661481
1575568019.484244,77364.000,13050,1,ER,1,100,1.662730
1575568019.550192,77419.500,13067,2,ER,1,100,1.663132
1575568019.616141,77475.000,13067,2,ER,1,100,1.669014
1575568019.685060,77533.000,13085,2,ER,1,100,1.670706
1575568019.753979,77591.000,13085,2,ER,1,100,1.672518
1575568019.822898,77649.000,13101,2,ER,1,100,1.671229
1575568019.891818,77707.000,13101,2,ER,1,100,1.671108
1575568019.954201,77759.500,13120,2,ER,1,100,1.671793
1575568020.016585,77812.000,13120,2,ER,1,100,1.670142
1575568020.080751,77866.000,13138,1,ER,1,100,1.676627
1575568020.146700,77921.500,13156,2,ER,1,100,1.676426
1575568020.212649,77977.000,13156,2,ER,1,100,1.678923
1575568020.282756,78036.000,13174,2,ER,1,100,1.682025
1575568020.352864,78095.000,13174,2,ER,1,100,1.703416
1575568020.423565,78154.500,13192,2,ER,1,100,1.669900
1575568020.494267,78214.000,13192,2,ER,1,100,1.672397
1575568020.555463,78265.500,13210,2,ER,1,100,1.675137
1575568020.616658,78317.000,13210,2,ER,1,100,1.677191
1575568020.683201,78373.000,13228,1,ER,1,100,1.691049
1575568020.746179,78426.000,13246,2,ER,1,100,1.688793
1575568020.809157,78479.000,13246,2,ER,1,100,1.677836
1575568020.878670,78537.500,13263,2,ER,1,100,1.673203
1575568020.948183,78596.000,13263,2,ER,1,100,1.671592
1575568021.017697,78654.500,13282,2,ER,1,100,1.668772
1575568021.087210,78713.000,13282,2,ER,1,100,1.674049
1575568021.149594,78765.500,13298,2,ER,1,100,1.673848
1575568021.211978,78818.000,13298,2,ER,1,100,1.682146
1575568021.276144,78872.000,13316,2,ER,1,100,1.690323
1575568021.340310,78926.000,13316,2,ER,1,100,1.688148
1575568021.408041,78983.000,13334,1,ER,1,100,1.688027
1575568021.475772,79040.000,13352,2,ER,1,100,1.689316
1575568021.543503,79097.000,13352,2,ER,1,100,1.695923
1575568021.613016,79155.500,13370,2,ER,1,100,1.696487
1575568021.682530,79214.000,13370,2,ER,1,100,1.698662
1575568021.747290,79268.500,13388,2,ER,1,100,1.698219
1575568021.812050,79323.000,13388,2,ER,1,100,1.704745
1575568021.875623,79376.500,13406,2,ER,1,100,1.706437
1575568021.939194,79430.000,13406,2,ER,1,100,1.705148
1575568022.004549,79485.000,13425,1,ER,1,100,1.703899
1575568022.071686,79541.500,13442,2,ER,1,100,1.703778
1575568022.138823,79598.000,13442,2,ER,1,100,1.712560
1575568022.208336,79656.500,13460,2,ER,1,100,1.719811
1575568022.277849,79715.000,13460,2,ER,1,100,1.731815
1575568022.344986,79771.500,13476,2,ER,1,100,1.718199
1575568022.412123,79828.000,13476,2,ER,1,100,1.712600
1575568022.475695,79881.500,13494,2,ER,1,100,1.708491
1575568022.539267,79935.000,13494,2,ER,1,100,1.679085
1575568022.604622,79990.000,13512,1,ER,1,100,1.692861
1575568022.672353,80047.000,13530,2,ER,1,100,1.704624
1575568022.740084,80104.000,13530,2,ER,1,100,1.708934
1575568022.807815,80161.000,13548,2,ER,1,100,1.698501
1575568022.875546,80218.000,13548,2,ER,1,100,1.713406
1575568022.943277,80275.000,13567,2,ER,1,100,1.700032
1575568023.011008,80332.000,13567,2,ER,1,100,1.700918
1575568023.074580,80385.500,13585,2,ER,1,100,1.702690
1575568023.138152,80439.000,13585,2,ER,1,100,1.703899
1575568023.199941,80491.000,13603,1,ER,1,100,1.710465
1575568023.266484,80547.000,13621,2,ER,1,100,1.707645
1575568023.333027,80603.000,13621,2,ER,1,100,1.697252
1575568023.402540,80661.500,13638,2,ER,1,100,1.694714
1575568023.472054,80720.000,13638,2,ER,1,100,1.696567
1575568023.540379,80777.500,13656,2,ER,1,100,1.694795
1575568023.608704,80835.000,13656,2,ER,1,100,1.698058
1575568023.672276,80888.500,13672,2,ER,1,100,1.693707
1575568023.735848,80942.000,13672,2,ER,1,100,1.693385
1575568023.798826,80995.000,13690,1,ER,1,100,1.699508
1575568023.865369,81051.000,13709,2,ER,1,100,1.688753
1575568023.931911,81107.000,13709,2,ER,1,100,1.690686
1575568024.001425,81165.500,13727,2,ER,1,100,1.672639
1575568024.070938,81224.000,13727,2,ER,1,100,1.683032
1575568024.137877,81280.333,13748,3,ER,1,100,1.679769
1575568024.204816,81336.667,13748,3,ER,1,100,1.657815
1575568024.271755,81393.000,13748,3,ER,1,100,1.646737
1575568024.332950,81444.500,13766,2,ER,1,100,1.635619
1575568024.394145,81496.000,13766,2,ER,1,100,1.655035
1575568024.458906,81550.500,13784,2,ER,1,100,1.625468
1575568024.523666,81605.000,13784,2,ER,1,100,1.624984
1575568024.591397,81662.000,13802,1,ER,1,100,1.607300
1575568024.660316,81720.000,13820,2,ER,1,100,1.607622
1575568024.729236,81778.000,13820,2,ER,1,100,1.609435
1575568024.798749,81836.500,13838,2,ER,1,100,1.598276
1575568024.868262,81895.000,13838,2,ER,1,100,1.606736
1575568024.931240,81948.000,13857,2,ER,1,100,1.612416
1575568024.994218,82001.000,13857,2,ER,1,100,1.602828
1575568025.058979,82055.500,13875,2,ER,1,100,1.599565
1575568025.123739,82110.000,13875,2,ER,1,100,1.606091
1575568025.192658,82168.000,13893,1,ER,1,100,1.614631
1575568025.257418,82222.500,13910,2,ER,1,100,1.619546
1575568025.322179,82277.000,13910,2,ER,1,100,1.629214
1575568025.388721,82333.000,13928,2,ER,1,100,1.627844
1575568025.455264,82389.000,13928,2,ER,1,100,1.630704
1575568025.522401,82445.500,13946,2,ER,1,100,1.630785
1575568025.589538,82502.000,13946,2,ER,1,100,1.636787
1575568025.657269,82559.000,13962,2,ER,1,100,1.645045
1575568025.725000,82616.000,13962,2,ER,1,100,1.649114
1575568025.796296,82676.000,13980,1,ER,1,100,1.654471
1575568025.864027,82733.000,13999,2,ER,1,100,1.653102
1575568025.931757,82790.000,13999,2,ER,1,100,1.653666
1575568025.995330,82843.500,14017,2,ER,1,100,1.656365
1575568026.058902,82897.000,14017,2,ER,1,100,1.657009
1575568026.124256,82952.000,14035,2,ER,1,100,1.656244
1575568026.189610,83007.000,14035,2,ER,1,100,1.658016
1575568026.259124,83065.500,14053,2,ER,1,100,1.664864
1575568026.328637,83124.000,14053,2,ER,1,100,1.677070
1575568026.397557,83182.000,14071,1,ER,1,100,1.666919
1575568026.464693,83238.500,14088,2,ER,1,100,1.671713
1575568026.531830,83295.000,14088,2,ER,1,100,1.677312
1575568026.602532,83354.500,14106,2,ER,1,100,1.679648
1575568026.673234,83414.000,14106,2,ER,1,100,1.686335
1575568026.737994,83468.500,14122,2,ER,1,100,1.687060
1575568026.802754,83523.000,14122,2,ER,1,100,1.689478
1575568026.866326,83576.500,14140,2,ER,1,100,1.695883
1575568026.929898,83630.000,14140,2,ER,1,100,1.698582
1575568026.994065,83684.000,14159,1,ER,1,100,1.697373
1575568027.062390,83741.500,14177,2,ER,1,100,1.697292
1575568027.130715,83799.000,14177,2,ER,1,100,1.701683
1575568027.198446,83856.000,14195,2,ER,1,100,1.700999
1575568027.266177,83913.000,14195,2,ER,1,100,1.706235
1575568027.332719,83969.000,14213,2,ER,1,100,1.707524
1575568027.399262,84025.000,14213,2,ER,1,100,1.710425
1575568027.463428,84079.000,14231,2,ER,1,100,1.712318
1575568027.527595,84133.000,14231,2,ER,1,100,1.711432
1575568027.590572,84186.000,14249,1,ER,1,100,1.714816
1575568027.660086,84244.500,14266,2,ER,1,100,1.714937
1575568027.729599,84303.000,14266,2,ER,1,100,1.717756
1575568027.799113,84361.500,14284,2,ER,1,100,1.716628
1575568027.868626,84420.000,14284,2,ER,1,100,1.720737
1575568027.935763,84476.500,14301,2,ER,1,100,1.720093
1575568028.002900,84533.000,14301,2,ER,1,100,1.721503
1575568028.066472,84586.500,14319,2,ER,1,100,1.721180
1575568028.130044,84640.000,14319,2,ER,1,100,1.721060
1575568028.193022,84693.000,14337,1,ER,1,100,1.722550
1575568028.261347,84750.500,14355,2,ER,1,100,1.720052
1575568028.329672,84808.000,14355,2,ER,1,100,1.715017
1575568028.399185,84866.500,14373,2,ER,1,100,1.714252
1575568028.468699,84925.000,14373,2,ER,1,100,1.723960
1575568028.535836,84981.500,14391,2,ER,1,100,1.720214
1575568028.602972,85038.000,14391,2,ER,1,100,1.721140
1575568028.665356,85090.500,14409,2,ER,1,100,1.716347
1575568028.727740,85143.000,14409,2,ER,1,100,1.707363
1575568028.790718,85196.000,14427,1,ER,1,100,1.714453
1575568028.857855,85252.500,14445,2,ER,1,100,1.723678
1575568028.924992,85309.000,14445,2,ER,1,100,1.731130
1575568028.993317,85366.500,14463,2,ER,1,100,1.725128
1575568029.061642,85424.000,14463,2,ER,1,100,1.722832
1575568029.128779,85480.500,14481,2,ER,1,100,1.717716
1575568029.195915,85537.000,14481,2,ER,1,100,1.723275
1575568029.264241,85594.500,14497,2,ER,1,100,1.724363
1575568029.332566,85652.000,14497,2,ER,1,100,1.723879
1575568029.403862,85712.000,14515,1,ER,1,100,1.724484
1575568029.472187,85769.500,14533,2,ER,1,100,1.726901
1575568029.540512,85827.000,14533,2,ER,1,100,1.730566
1575568029.610025,85885.500,14551,2,ER,1,100,1.727706
1575568029.679538,85944.000,14551,2,ER,1,100,1.716427
1575568029.742516,85997.000,14569,2,ER,1,100,1.716105
1575568029.805494,86050.000,14569,2,ER,1,100,1.720616
1575568029.870255,86104.500,14587,2,ER,1,100,1.722389
1575568029.935015,86159.000,14587,2,ER,1,100,1.713647
1575568030.003934,86217.000,14606,1,ER,1,100,1.708572
1575568030.071665,86274.000,14623,2,ER,1,100,1.707847
1575568030.139396,86331.000,14623,2,ER,1,100,1.709700
1575568030.207919,86388.667,14642,3,ER,1,100,1.705792
1575568030.276443,86446.333,14642,3,ER,1,100,1.706759
1575568030.344966,86504.000,14642,3,ER,1,100,1.691653
1575568030.407349,86556.500,14664,2,ER,1,100,1.695923
1575568030.469733,86609.000,14664,2,ER,1,100,1.694714
1575568030.535682,86664.500,14682,2,ER,1,100,1.705591
1575568030.601630,86720.000,14682,2,ER,1,100,1.712882
1575568030.671738,86779.000,14700,1,ER,1,100,1.724564
1575568030.739469,86836.000,14717,2,ER,1,100,1.720778
1575568030.807200,86893.000,14717,2,ER,1,100,1.728431
1575568030.874931,86950.000,14735,2,ER,1,100,1.708330
1575568030.942662,87007.000,14735,2,ER,1,100,1.708451
1575568031.005046,87059.500,14752,2,ER,1,100,1.705470
1575568031.067429,87112.000,14752,2,ER,1,100,1.700354
1575568031.133972,87168.000,14770,2,ER,1,100,1.694594
1575568031.200515,87224.000,14770,2,ER,1,100,1.690404
1575568031.270622,87283.000,14788,1,ER,1,100,1.687060
1575568031.337759,87339.500,14806,2,ER,1,100,1.676627
1575568031.404896,87396.000,14806,2,ER,1,100,1.670142
1575568031.473815,87454.000,14824,2,ER,1,100,1.656888
1575568031.542734,87512.000,14824,2,ER,1,100,1.651370
1575568031.606307,87565.500,14842,2,ER,1,100,1.642145
1575568031.669879,87619.000,14842,2,ER,1,100,1.634249
1575568031.734045,87673.000,14860,2,ER,1,100,1.623091
1575568031.798211,87727.000,14860,2,ER,1,100,1.615034
1575568031.868319,87786.000,14878,1,ER,1,100,1.611529
1575568031.935455,87842.500,14896,2,ER,1,100,1.606696
1575568032.002592,87899.000,14896,2,ER,1,100,1.610603
1575568032.072700,87958.000,14914,2,ER,1,100,1.600089
1575568032.142807,88017.000,14914,2,ER,1,100,1.597833
1575568032.205191,88069.500,14930,2,ER,1,100,1.596625
1575568032.267575,88122.000,14930,2,ER,1,100,1.594490
1575568032.331147,88175.500,14948,2,ER,1,100,1.597833
1575568032.394719,88229.000,14948,2,ER,1,100,1.605004
1575568032.463638,88287.000,14966,1,ER,1,100,1.610684
1575568032.530775,88343.500,14984,2,ER,1,100,1.611731
1575568032.597912,88400.000,14984,2,ER,1,100,1.616686
1575568032.666831,88458.000,15002,2,ER,1,100,1.619465
1575568032.735750,88516.000,15002,2,ER,1,100,1.627844
1575568032.807046,88576.000,15020,2,ER,1,100,1.633041
1575568032.878342,88636.000,15020,2,ER,1,100,1.639325
1575568032.943696,88691.000,15039,1,ER,1,100,1.645206
1575568033.014992,88751.000,15056,2,ER,1,100,1.648912
1575568033.086288,88811.000,15056,2,ER,1,100,1.654753
1575568033.152831,88867.000,15074,2,ER,1,100,1.658661
1575568033.219373,88923.000,15074,2,ER,1,100,1.666033
1575568033.282945,88976.500,15090,2,ER,1,100,1.669819
1575568033.346517,89030.000,15090,2,ER,1,100,1.674009
1575568033.412466,89085.500,15108,2,ER,1,100,1.680253
1575568033.478415,89141.000,15108,2,ER,1,100,1.683113
1575568033.543769,89196.000,15126,1,ER,1,100,1.688269
1575568033.613282,89254.500,15144,2,ER,1,100,1.691371
1575568033.682796,89313.000,15144,2,ER,1,100,1.696728
1575568033.753497,89372.500,15162,2,ER,1,100,1.696849
1575568033.824199,89432.000,15162,2,ER,1,100,1.701240
1575568033.891336,89488.500,15180,2,ER,1,100,1.705510
1575568033.958473,89545.000,15180,2,ER,1,100,1.708330
1575568034.029768,89605.000,15199,1,ER,1,100,1.714493
1575568034.092746,89658.000,15216,2,ER,1,100,1.715903
1575568034.155724,89711.000,15216,2,ER,1,100,1.720335
1575568034.221673,89766.500,15234,2,ER,1,100,1.717716
1575568034.287621,89822.000,15234,2,ER,1,100,1.719690
1575568034.354164,89878.000,15252,2,ER,1,100,1.717595
1575568034.420707,89934.000,15252,2,ER,1,100,1.720496
1575568034.489626,89992.000,15268,2,ER,1,100,1.720697
1575568034.558546,90050.000,15268,2,ER,1,100,1.723235
1575568034.626276,90107.000,15286,1,ER,1,100,1.725813
1575568034.691037,90161.500,15304,2,ER,1,100,1.724927
1575568034.755797,90216.000,15304,2,ER,1,100,1.727505
1575568034.819963,90270.000,15322,2,ER,1,100,1.726457
1575568034.884130,90324.000,15322,2,ER,1,100,1.729197
1575568034.950672,90380.000,15341,2,ER,1,100,1.726619
1575568035.017215,90436.000,15341,2,ER,1,100,1.728713
1575568035.087322,90495.000,15359,2,ER,1,100,1.725732
1575568035.157430,90554.000,15359,2,ER,1,100,1.726578
1575568035.226349,90612.000,15377,1,ER,1,100,1.725692
1575568035.292298,90667.500,15394,2,ER,1,100,1.723275
1575568035.358246,90723.000,15394,2,ER,1,100,1.725571
1575568035.422413,90777.000,15412,2,ER,1,100,1.722389
1575568035.486579,90831.000,15412,2,ER,1,100,1.722953
1575568035.553121,90887.000,15430,2,ER,1,100,1.720576
1575568035.619664,90943.000,15430,2,ER,1,100,1.721905
1575568035.689178,91001.500,15446,2,ER,1,100,1.718562
1575568035.758691,91060.000,15446,2,ER,1,100,1.717635
1575568035.826422,91117.000,15464,1,ER,1,100,1.715259
1575568035.892965,91173.000,15482,2,ER,1,100,1.711512
1575568035.959507,91229.000,15482,2,ER,1,100,1.711794
1575568036.021891,91281.500,15501,2,ER,1,100,1.709861
1575568036.084275,91334.000,15501,2,ER,1,100,1.712358
1575568036.150818,91390.000,15519,2,ER,1,100,1.709257
1575568036.217360,91446.000,15519,2,ER,1,100,1.711915
1575568036.285883,91503.667,15538,3,ER,1,100,1.709901
1575568036.354407,91561.333,15538,3,ER,1,100,1.708209
1575568036.422930,91619.000,15538,3,ER,1,100,1.705510
1575568036.495414,91680.000,15560,1,ER,1,100,1.706799
1575568036.558392,91733.000,15578,2,ER,1,100,1.706679
1575568036.621370,91786.000,15578,2,ER,1,100,1.707001
1575568036.685536,91840.000,15596,2,ER,1,100,1.704221
1575568036.749702,91894.000,15596,2,ER,1,100,1.705269
1575568036.816245,91950.000,15614,2,ER,1,100,1.703818
1575568036.882787,92006.000,15614,2,ER,1,100,1.707605
1575568036.948736,92061.500,15633,2,ER,1,100,1.704141
1575568037.014685,92117.000,15633,2,ER,1,100,1.706799
1575568037.078851,92171.000,15651,2,ER,1,100,1.705712
1575568037.143017,92225.000,15651,2,ER,1,100,1.706155
1575568037.210748,92282.000,15669,1,ER,1,100,1.706517
1575568037.277885,92338.500,15686,2,ER,1,100,1.704624
1575568037.345022,92395.000,15686,2,ER,1,100,1.705389
1575568037.414535,92453.500,15704,2,ER,1,100,1.703899
1575568037.484049,92512.000,15704,2,ER,1,100,1.705994
1575568037.549997,92567.500,15722,2,ER,1,100,1.704423
1575568037.615946,92623.000,15722,2,ER,1,100,1.707686
1575568037.679518,92676.500,15738,2,ER,1,100,1.707686
1575568037.743090,92730.000,15738,2,ER,1,100,1.707404
1575568037.809633,92786.000,15756,2,ER,1,100,1.707766
1575568037.876175,92842.000,15756,2,ER,1,100,1.706960
1575568037.946283,92901.000,15775,1,ER,1,100,1.709659
1575568038.014608,92958.500,15793,2,ER,1,100,1.706799
1575568038.082933,93016.000,15793,2,ER,1,100,1.708612
1575568038.151258,93073.500,15811,2,ER,1,100,1.706155
1575568038.219583,93131.000,15811,2,ER,1,100,1.708290
1575568038.288502,93189.000,15829,1,ER,1,100,1.708451
1575568038.355639,93245.500,15847,2,ER,1,100,1.708693
1575568038.422776,93302.000,15847,2,ER,1,100,1.710344
1575568038.486348,93355.500,15864,2,ER,1,100,1.708411
1575568038.549920,93409.000,15864,2,ER,1,100,1.710223
1575568038.615275,93464.000,15882,2,ER,1,100,1.711029
1575568038.680629,93519.000,15882,2,ER,1,100,1.715379
1575568038.747766,93575.500,15900,2,ER,1,100,1.708854
1575568038.814903,93632.000,15900,2,ER,1,100,1.709095
1575568038.883822,93690.000,15916,2,ER,1,100,1.706477
1575568038.952741,93748.000,15916,2,ER,1,100,1.706114
1575568039.020472,93805.000,15935,1,ER,1,100,1.706437
1575568039.084044,93858.500,15953,2,ER,1,100,1.704221
1575568039.147616,93912.000,15953,2,ER,1,100,1.706799
1575568039.214159,93968.000,15971,2,ER,1,100,1.705631
1575568039.280702,94024.000,15971,2,ER,1,100,1.707363
1575568039.347839,94080.500,15989,2,ER,1,100,1.703697
1575568039.414976,94137.000,15989,2,ER,1,100,1.705913
1575568039.483895,94195.000,16007,2,ER,1,100,1.705228
1575568039.552814,94253.000,16007,2,ER,1,100,1.704584
1575568039.622921,94312.000,16025,1,ER,1,100,1.703697
1575568039.686494,94365.500,16042,2,ER,1,100,1.702529
1575568039.750066,94419.000,16042,2,ER,1,100,1.703899
1575568039.814826,94473.500,16060,2,ER,1,100,1.701442
1575568039.879586,94528.000,16060,2,ER,1,100,1.705228
1575568039.946723,94584.500,16079,2,ER,1,100,1.704020
1575568040.013860,94641.000,16079,2,ER,1,100,1.705913
1575568040.082185,94698.500,16095,2,ER,1,100,1.704100
1575568040.150510,94756.000,16095,2,ER,1,100,1.702932
1575568040.218241,94813.000,16113,1,ER,1,100,1.702852
1575568040.282407,94867.000,16131,2,ER,1,100,1.700999
1575568040.346574,94921.000,16131,2,ER,1,100,1.703416
1575568040.410146,94974.500,16149,2,ER,1,100,1.702006
1575568040.473718,95028.000,16149,2,ER,1,100,1.704423
1575568040.540260,95084.000,16167,2,ER,1,100,1.701039
1575568040.606803,95140.000,16167,2,ER,1,100,1.701079
1575568040.672158,95195.000,16185,2,ER,1,100,1.699991
1575568040.737512,95250.000,16185,2,ER,1,100,1.701280
1575568040.808808,95310.000,16203,1,ER,1,100,1.701240
1575568040.875945,95366.500,16222,2,ER,1,100,1.700555
1575568040.943082,95423.000,16222,2,ER,1,100,1.701764
1575568041.014971,95483.500,16239,2,ER,1,100,1.701885
1575568041.086861,95544.000,16239,2,ER,1,100,1.703818
1575568041.155186,95601.500,16257,2,ER,1,100,1.702368
1575568041.223511,95659.000,16257,2,ER,1,100,1.703738
1575568041.290648,95715.500,16273,2,ER,1,100,1.703053
1575568041.357785,95772.000,16273,2,ER,1,100,1.700314
1575568041.420763,95825.000,16291,1,ER,1,100,1.689115
1575568041.484929,95879.000,16309,2,ER,1,100,1.699669
1575568041.549096,95933.000,16309,2,ER,1,100,1.705228
1575568041.618015,95991.000,16327,2,ER,1,100,1.703254
1575568041.686934,96049.000,16327,2,ER,1,100,1.705631
1575568041.755259,96106.500,16345,2,ER,1,100,1.703577
1575568041.823584,96164.000,16345,2,ER,1,100,1.706074
1575568041.894880,96224.000,16363,1,ER,1,100,1.705309
1575568041.958452,96277.500,16381,2,ER,1,100,1.703778
1575568042.022024,96331.000,16381,2,ER,1,100,1.705430
1575568042.086190,96385.000,16399,2,ER,1,100,1.703295
1575568042.150357,96439.000,16399,2,ER,1,100,1.704543
1575568042.218087,96496.000,16417,2,ER,1,100,1.701724
1575568042.285819,96553.000,16417,2,ER,1,100,1.704664
1575568042.354342,96610.667,16436,3,ER,1,100,1.703536
1575568042.422865,96668.333,16436,3,ER,1,100,1.704745
1575568042.491388,96726.000,16436,3,ER,1,100,1.703335
1575568042.556742,96781.000,16454,2,ER,1,100,1.704423
1575568042.622097,96836.000,16454,2,ER,1,100,1.704624
1575568042.687451,96891.000,16476,1,ER,1,100,1.704946
1575568042.751023,96944.500,16493,2,ER,1,100,1.702449
1575568042.814595,96998.000,16493,2,ER,1,100,1.703375
1575568042.882921,97055.500,16511,2,ER,1,100,1.701200
1575568042.951246,97113.000,16511,2,ER,1,100,1.704221
1575568043.020759,97171.500,16529,2,ER,1,100,1.702892
1575568043.090272,97230.000,16529,2,ER,1,100,1.705067
1575568043.156221,97285.500,16546,2,ER,1,100,1.704664
1575568043.222170,97341.000,16546,2,ER,1,100,1.703375
1575568043.287524,97396.000,16564,1,ER,1,100,1.705712
1575568043.350502,97449.000,16582,2,ER,1,100,1.703939
1575568043.413480,97502.000,16582,2,ER,1,100,1.704503
1575568043.481805,97559.500,16600,2,ER,1,100,1.701240
1575568043.550130,97617.000,16600,2,ER,1,100,1.702570
1575568043.619643,97675.500,16618,2,ER,1,100,1.700153
1575568043.689157,97734.000,16618,2,ER,1,100,1.703174
1575568043.755700,97790.000,16636,2,ER,1,100,1.704423
1575568043.822242,97846.000,16636,2,ER,1,100,1.706477
1575568043.886409,97900.000,16654,1,ER,1,100,1.706276
1575568043.948198,97952.000,16672,2,ER,1,100,1.703496
1575568044.009988,98004.000,16672,2,ER,1,100,1.706235
1575568044.077125,98060.500,16690,2,ER,1,100,1.703536
1575568044.144262,98117.000,16690,2,ER,1,100,1.705510
1575568044.213775,98175.500,16708,2,ER,1,100,1.701845
1575568044.283288,98234.000,16708,2,ER,1,100,1.703214
1575568044.352802,98292.500,16724,2,ER,1,100,1.702690
1575568044.422315,98351.000,16724,2,ER,1,100,1.701321
1575568044.493611,98411.000,16742,1,ER,1,100,1.703254
1575568044.563124,98469.500,16760,2,ER,1,100,1.702207
1575568044.632638,98528.000,16760,2,ER,1,100,1.703617
1575568044.701557,98586.000,16778,2,ER,1,100,1.702126
1575568044.770476,98644.000,16778,2,ER,1,100,1.703979
1575568044.841772,98704.000,16796,1,ER,1,100,1.703979
1575568044.905344,98757.500,16814,2,ER,1,100,1.702892
1575568044.968916,98811.000,16814,2,ER,1,100,1.703496
1575568045.037241,98868.500,16832,2,ER,1,100,1.702811
1575568045.105566,98926.000,16832,2,ER,1,100,1.704342
1575568045.168544,98979.000,16850,2,ER,1,100,1.705792
1575568045.231522,99032.000,16850,2,ER,1,100,1.705953
1575568045.296282,99086.500,16868,2,ER,1,100,1.698944
1575568045.361042,99141.000,16868,2,ER,1,100,1.702086
1575568045.430556,99199.500,16884,2,ER,1,100,1.703013
1575568045.500069,99258.000,16884,2,ER,1,100,1.703093
1575568045.565424,99313.000,16902,1,ER,1,100,1.703053
1575568045.635531,99372.000,16920,2,ER,1,100,1.700837
1575568045.705639,99431.000,16920,2,ER,1,100,1.700878
1575568045.768617,99484.000,16938,2,ER,1,100,1.698662
1575568045.831595,99537.000,16938,2,ER,1,100,1.699347
1575568045.896949,99592.000,16956,2,ER,1,100,1.694634
1575568045.962304,99647.000,16956,2,ER,1,100,1.696084
1575568046.030035,99704.000,16975,2,ER,1,100,1.696769
1575568046.097765,99761.000,16975,2,ER,1,100,1.699548
1575568046.166685,99819.000,16993,1,ER,1,100,1.700999
1575568046.235604,99877.000,17010,2,ER,1,100,1.701925
1575568046.304523,99935.000,17010,2,ER,1,100,1.705148
1575568046.366907,99987.500,17028,2,ER,1,100,1.702368
1575568046.429291,100040.000,17028,2,ER,1,100,1.704302
1575568046.493457,100094.000,17046,2,ER,1,100,1.703214
1575568046.557623,100148.000,17046,2,ER,1,100,1.704503
1575568046.627731,100207.000,17062,2,ER,1,100,1.701240
1575568046.697838,100266.000,17062,2,ER,1,100,1.704705
1575568046.764381,100322.000,17080,1,ER,1,100,1.726377
1575568046.835083,100381.500,17098,2,ER,1,100,1.709538
1575568046.905784,100441.000,17098,2,ER,1,100,1.690323
1575568046.968168,100493.500,17117,2,ER,1,100,1.683999
1575568047.030552,100546.000,17117,2,ER,1,100,1.666476
1575568047.094124,100599.500,17135,2,ER,1,100,1.678964
1575568047.157696,100653.000,17135,2,ER,1,100,1.698622
1575568047.226615,100711.000,17153,2,ER,1,100,1.720214
1575568047.295534,100769.000,17153,2,ER,1,100,1.697172
1575568047.362077,100825.000,17171,1,ER,1,100,1.671471
1575568047.431591,100883.500,17188,2,ER,1,100,1.679608
1575568047.501104,100942.000,17188,2,ER,1,100,1.681018
1575568047.564676,100995.500,17206,2,ER,1,100,1.682267
1575568047.628248,101049.000,17206,2,ER,1,100,1.669094
1575568047.691820,101102.500,17224,2,ER,1,100,1.629294
1575568047.755392,101156.000,17224,2,ER,1,100,1.662891
1575568047.823717,101213.500,17240,2,ER,1,100,1.675137
1575568047.892042,101271.000,17240,2,ER,1,100,1.680414
1575568047.958585,101327.000,17259,2,ER,1,100,1.672397
1575568048.025128,101383.000,17259,2,ER,1,100,1.666435
1575568048.096424,101443.000,17277,1,ER,1,100,1.668450
1575568048.164749,101500.500,17295,2,ER,1,100,1.668530
1575568048.233074,101558.000,17295,2,ER,1,100,1.667926
1575568048.301993,101616.000,17313,2,ER,1,100,1.671189
1575568048.370912,101674.000,17313,2,ER,1,100,1.667926
1575568048.434286,101727.333,17334,3,ER,1,100,1.676627
1575568048.497660,101780.667,17334,3,ER,1,100,1.662488
1575568048.561034,101834.000,17334,3,ER,1,100,1.669860
1575568048.625795,101888.500,17354,2,ER,1,100,1.674573
1575568048.690555,101943.000,17354,2,ER,1,100,1.689598
1575568048.752345,101995.000,17372,1,ER,1,100,1.694110
1575568048.818887,102051.000,17390,2,ER,1,100,1.667805
1575568048.885430,102107.000,17390,2,ER,1,100,1.671068
1575568048.953755,102164.500,17409,2,ER,1,100,1.684120
1575568049.022080,102222.000,17409,2,ER,1,100,1.681099
1575568049.089811,102279.000,17427,2,ER,1,100,1.649396
1575568049.157542,102336.000,17427,2,ER,1,100,1.658661
1575568049.232403,102399.000,17445,1,ER,1,100,1.668933
1575568049.300728,102456.500,17462,2,ER,1,100,1.672921
1575568049.369053,102514.000,17462,2,ER,1,100,1.675822
1575568049.435596,102570.000,17480,2,ER,1,100,1.672317
1575568049.502138,102626.000,17480,2,ER,1,100,1.670182
1575568049.564522,102678.500,17498,2,ER,1,100,1.675620
1575568049.626906,102731.000,17498,2,ER,1,100,1.693385
1575568049.694637,102788.000,17514,2,ER,1,100,1.678198
1575568049.762368,102845.000,17514,2,ER,1,100,1.677191
1575568049.828911,102901.000,17532,1,ER,1,100,1.662568
1575568049.897830,102959.000,17551,2,ER,1,100,1.652900
1575568049.966749,103017.000,17551,2,ER,1,100,1.690605
1575568050.033292,103073.000,17569,2,ER,1,100,1.715863
1575568050.099835,103129.000,17569,2,ER,1,100,1.696728
1575568050.162813,103182.000,17587,2,ER,1,100,1.690283
1575568050.225791,103235.000,17587,2,ER,1,100,1.691572
1575568050.292333,103291.000,17605,2,ER,1,100,1.687786
1575568050.358876,103347.000,17605,2,ER,1,100,1.690686
1575568050.425419,103403.000,17623,1,ER,1,100,1.689437
1575568050.494338,103461.000,17641,2,ER,1,100,1.684764
1575568050.563257,103519.000,17641,2,ER,1,100,1.683596
1575568050.632176,103577.000,17658,2,ER,1,100,1.673566
1575568050.701096,103635.000,17658,2,ER,1,100,1.668812
1575568050.762885,103687.000,17676,2,ER,1,100,1.659467
1575568050.824675,103739.000,17676,2,ER,1,100,1.650926
1575568050.890029,103794.000,17693,2,ER,1,100,1.641500
1575568050.955384,103849.000,17693,2,ER,1,100,1.635297
1575568051.023115,103906.000,17711,1,ER,1,100,1.625468
1575568051.092628,103964.500,17729,2,ER,1,100,1.620795
1575568051.162142,104023.000,17729,2,ER,1,100,1.615356
1575568051.232249,104082.000,17747,2,ER,1,100,1.607501
1575568051.302357,104141.000,17747,2,ER,1,100,1.602708
1575568051.363552,104192.500,17765,2,ER,1,100,1.595376
1575568051.424748,104244.000,17765,2,ER,1,100,1.595497
1575568051.490102,104299.000,17783,2,ER,1,100,1.590421
1575568051.555457,104354.000,17783,2,ER,1,100,1.591670
1575568051.623188,104411.000,17801,1,ER,1,100,1.590340
1575568051.692107,104469.000,17818,2,ER,1,100,1.592516
1575568051.761026,104527.000,17818,2,ER,1,100,1.596705
1575568051.831134,104586.000,17836,2,ER,1,100,1.598518
1575568051.901241,104645.000,17836,2,ER,1,100,1.605447
1575568051.963031,104697.000,17855,2,ER,1,100,1.607139
1575568052.024820,104749.000,17855,2,ER,1,100,1.614027
1575568052.089581,104803.500,17871,2,ER,1,100,1.617330
1575568052.154341,104858.000,17871,2,ER,1,100,1.625387
1575568052.220884,104914.000,17889,2,ER,1,100,1.628448
1575568052.287426,104970.000,17889,2,ER,1,100,1.609556
1575568052.351593,105024.000,17907,1,ER,1,100,1.625709
1575568052.418135,105080.000,17925,2,ER,1,100,1.639849
1575568052.484678,105136.000,17925,2,ER,1,100,1.652296
1575568052.551221,105192.000,17943,2,ER,1,100,1.657130
1575568052.617764,105248.000,17943,2,ER,1,100,1.664220
1575568052.685494,105305.000,17961,2,ER,1,100,1.663777
1575568052.753226,105362.000,17961,2,ER,1,100,1.659668
1575568052.824521,105422.000,17979,1,ER,1,100,1.654915
1575568052.893440,105480.000,17997,2,ER,1,100,1.673566
1575568052.962360,105538.000,17997,2,ER,1,100,1.682710
1575568053.025932,105591.500,18015,2,ER,1,100,1.701522
1575568053.089504,105645.000,18015,2,ER,1,100,1.664542
1575568053.154858,105700.000,18033,2,ER,1,100,1.702570
1575568053.220213,105755.000,18033,2,ER,1,100,1.717112
1575568053.286756,105811.000,18051,2,ER,1,100,1.703536
1575568053.353298,105867.000,18051,2,ER,1,100,1.697051
1575568053.423406,105926.000,18067,2,ER,1,100,1.685973
1575568053.493513,105985.000,18067,2,ER,1,100,1.649557
1575568053.560056,106041.000,18085,1,ER,1,100,1.623051
1575568053.630163,106100.000,18103,2,ER,1,100,1.694634
1575568053.700271,106159.000,18103,2,ER,1,100,1.776771
1575568053.766220,106214.500,18121,2,ER,1,100,1.740718
1575568053.832168,106270.000,18121,2,ER,1,100,1.719166
1575568053.895740,106323.500,18139,2,ER,1,100,1.732379
1575568053.959312,106377.000,18139,2,ER,1,100,1.720576
1575568054.024667,106432.000,18158,2,ER,1,100,1.741282
1575568054.090021,106487.000,18158,2,ER,1,100,1.745552
1575568054.158940,106545.000,18176,1,ER,1,100,1.746599
1575568054.226671,106602.000,18193,2,ER,1,100,1.749177
1575568054.294402,106659.000,18193,2,ER,1,100,1.731614
1575568054.362133,106716.000,18211,2,ER,1,100,1.728713
1575568054.429864,106773.000,18211,2,ER,1,100,1.772662
1575568054.493238,106826.333,18230,3,ER,1,100,1.773750
1575568054.556612,106879.667,18230,3,ER,1,100,1.770406
1575568054.619986,106933.000,18230,3,ER,1,100,1.736810
1575568054.688906,106991.000,18250,2,ER,1,100,1.698501
1575568054.757825,107049.000,18250,2,ER,1,100,1.756750
1575568054.825556,107106.000,18268,1,ER,1,100,1.729237
1575568054.894475,107164.000,18285,2,ER,1,100,1.756307
1575568054.963394,107222.000,18285,2,ER,1,100,1.716508
1575568055.030531,107278.500,18304,2,ER,1,100,1.668007
1575568055.097668,107335.000,18304,2,ER,1,100,1.626233
1575568055.158864,107386.500,18321,2,ER,1,100,1.627965
1575568055.220059,107438.000,18321,2,ER,1,100,1.785513
1575568055.287790,107495.000,18338,2,ER,1,100,1.761343
1575568055.355521,107552.000,18338,2,ER,1,100,1.701079
1575568055.423252,107609.000,18356,1,ER,1,100,1.644723
1575568055.492171,107667.000,18374,2,ER,1,100,1.640735
1575568055.561090,107725.000,18374,2,ER,1,100,1.693103
1575568055.627633,107781.000,18392,2,ER,1,100,1.692338
1575568055.694176,107837.000,18392,2,ER,1,100,1.708572
1575568055.756560,107889.500,18410,2,ER,1,100,1.717595
1575568055.818944,107942.000,18410,2,ER,1,100,1.695480
1575568055.884298,107997.000,18428,2,ER,1,100,1.649718
1575568055.949652,108052.000,18428,2,ER,1,100,1.624702
1575568056.020948,108112.000,18447,1,ER,1,100,1.720697
1575568056.088085,108168.500,18464,2,ER,1,100,1.647140
1575568056.155222,108225.000,18464,2,ER,1,100,1.742853
1575568056.227112,108285.500,18482,2,ER,1,100,1.755300
1575568056.299002,108346.000,18482,2,ER,1,100,1.734635
1575568056.367327,108403.500,18498,2,ER,1,100,1.696890
1575568056.435652,108461.000,18498,2,ER,1,100,1.665791
1575568056.508136,108522.000,18516,1,ER,1,100,1.661279
1575568056.576461,108579.500,18534,2,ER,1,100,1.679528
1575568056.644786,108637.000,18534,2,ER,1,100,1.785231
1575568056.710735,108692.500,18552,2,ER,1,100,1.736287
1575568056.776683,108748.000,18552,2,ER,1,100,1.707726
1575568056.840255,108801.500,18570,2,ER,1,100,1.708813
1575568056.903827,108855.000,18570,2,ER,1,100,1.685127
1575568056.970370,108911.000,18589,2,ER,1,100,1.710828
1575568057.036913,108967.000,18589,2,ER,1,100,1.749056
1575568057.107020,109026.000,18607,1,ER,1,100,1.759329
1575568057.175345,109083.500,18624,2,ER,1,100,1.758966
1575568057.243671,109141.000,18624,2,ER,1,100,1.749540
1575568057.311402,109198.000,18642,2,ER,1,100,1.693224
1575568057.379133,109255.000,18642,2,ER,1,100,1.693909
1575568057.441516,109307.500,18658,2,ER,1,100,1.696728
1575568057.503900,109360.000,18658,2,ER,1,100,1.710103
1575568057.568660,109414.500,18676,2,ER,1,100,1.713889
1575568057.633421,109469.000,18676,2,ER,1,100,1.707323
1575568057.703528,109528.000,18694,1,ER,1,100,1.700515
1575568057.771259,109585.000,18712,2,ER,1,100,1.703496
1575568057.838990,109642.000,18712,2,ER,1,100,1.703939
1575568057.907315,109699.500,18730,2,ER,1,100,1.696970
1575568057.975641,109757.000,18730,2,ER,1,100,1.697453
1575568058.038024,109809.500,18749,2,ER,1,100,1.676506
1575568058.100408,109862.000,18749,2,ER,1,100,1.663696
1575568058.166951,109918.000,18767,2,ER,1,100,1.677675
1575568058.233494,109974.000,18767,2,ER,1,100,1.686980
1575568058.304789,110034.000,18785,1,ER,1,100,1.680696
1575568058.371926,110090.500,18802,2,ER,1,100,1.668087
1575568058.439063,110147.000,18802,2,ER,1,100,1.668369
1575568058.509171,110206.000,18820,2,ER,1,100,1.677675
1575568058.579278,110265.000,18820,2,ER,1,100,1.668490
1575568058.642850,110318.500,18836,2,ER,1,100,1.664301
1575568058.706422,110372.000,18836,2,ER,1,100,1.634370
1575568058.769994,110425.500,18854,2,ER,1,100,1.573099
1575568058.833566,110479.000,18854,2,ER,1,100,1.603674
1575568058.902486,110537.000,18872,1,ER,1,100,1.646213
1575568058.970217,110594.000,18891,2,ER,1,100,1.654995
1575568059.037947,110651.000,18891,2,ER,1,100,1.658903
1575568059.107461,110709.500,18909,2,ER,1,100,1.657251
1575568059.176974,110768.000,18909,2,ER,1,100,1.662004
1575568059.240546,110821.500,18927,2,ER,1,100,1.664542
1575568059.304118,110875.000,18927,2,ER,1,100,1.668933
1575568059.367690,110928.500,18945,2,ER,1,100,1.674532
1575568059.431262,110982.000,18945,2,ER,1,100,1.676466
1575568059.500182,111040.000,18963,1,ER,1,100,1.673405
1575568059.567318,111096.500,18980,2,ER,1,100,1.676708
1575568059.634455,111153.000,18980,2,ER,1,100,1.681058
1575568059.703375,111211.000,18998,2,ER,1,100,1.682307
1575568059.772294,111269.000,18998,2,ER,1,100,1.686658
1575568059.844184,111329.500,19014,2,ER,1,100,1.688229
1575568059.916074,111390.000,19014,2,ER,1,100,1.690243
1575568059.981428,111445.000,19033,1,ER,1,100,1.702449
1575568060.053318,111505.500,19051,2,ER,1,100,1.717515
1575568060.125208,111566.000,19051,2,ER,1,100,1.708451
1575568060.192939,111623.000,19069,2,ER,1,100,1.696446
1575568060.260670,111680.000,19069,2,ER,1,100,1.691895
1575568060.323648,111733.000,19087,2,ER,1,100,1.687705
1575568060.386626,111786.000,19087,2,ER,1,100,1.692297
1575568060.451980,111841.000,19105,2,ER,1,100,1.699870
1575568060.517335,111896.000,19105,2,ER,1,100,1.683073
1575568060.585660,111953.500,19126,2,ER,1,100,1.694070
1575568060.653985,112011.000,19126,2,ER,1,100,1.693909
1575568060.719934,112066.500,19146,2,ER,1,100,1.698138
1575568060.785882,112122.000,19146,2,ER,1,100,1.705470
1575568060.855395,112180.500,19164,2,ER,1,100,1.699186
1575568060.924909,112239.000,19164,2,ER,1,100,1.704100
1575568060.993234,112296.500,19183,2,ER,1,100,1.703979
1575568061.061559,112354.000,19183,2,ER,1,100,1.712157
1575568061.125725,112408.000,19201,2,ER,1,100,1.708048
1575568061.189891,112462.000,19201,2,ER,1,100,1.707847
1575568061.254058,112516.000,19219,1,ER,1,100,1.713164
1575568061.320006,112571.500,19236,2,ER,1,100,1.713164
1575568061.385955,112627.000,19236,2,ER,1,100,1.716467
1575568061.454280,112684.500,19254,2,ER,1,100,1.710908
1575568061.522605,112742.000,19254,2,ER,1,100,1.714614
1575568061.590930,112799.500,19272,2,ER,1,100,1.715702
1575568061.659255,112857.000,19272,2,ER,1,100,1.714252
1575568061.725204,112912.500,19288,2,ER,1,100,1.718199
1575568061.791152,112968.000,19288,2,ER,1,100,1.714252
1575568061.854130,113021.000,19306,1,ER,1,100,1.715017
1575568061.919485,113076.000,19325,2,ER,1,100,1.715782
1575568061.984839,113131.000,19325,2,ER,1,100,1.718159
1575568062.053758,113189.000,19343,2,ER,1,100,1.715782
1575568062.122678,113247.000,19343,2,ER,1,100,1.719448
1575568062.189815,113303.500,19361,2,ER,1,100,1.718079
1575568062.256951,113360.000,19361,2,ER,1,100,1.720455
1575568062.324088,113416.500,19379,2,ER,1,100,1.718320
1575568062.391225,113473.000,19379,2,ER,1,100,1.716548
1575568062.453015,113525.000,19397,1,ER,1,100,1.717998
1575568062.517775,113579.500,19414,2,ER,1,100,1.716467
1575568062.582536,113634.000,19414,2,ER,1,100,1.717635
1575568062.652643,113693.000,19432,2,ER,1,100,1.715299
1575568062.722750,113752.000,19432,2,ER,1,100,1.718159
1575568062.789887,113808.500,19450,2,ER,1,100,1.716467
1575568062.857024,113865.000,19450,2,ER,1,100,1.717555
1575568062.924755,113922.000,19466,2,ER,1,100,1.716508
1575568062.992486,113979.000,19466,2,ER,1,100,1.715098
1575568063.053087,114030.000,19485,1,ER,1,100,1.716024
1575568063.117254,114084.000,19503,2,ER,1,100,1.712237
1575568063.181420,114138.000,19503,2,ER,1,100,1.714413
1575568063.250339,114196.000,19521,2,ER,1,100,1.712076
1575568063.319258,114254.000,19521,2,ER,1,100,1.713889
1575568063.385801,114310.000,19539,2,ER,1,100,1.711754
1575568063.452344,114366.000,19539,2,ER,1,100,1.713406
1575568063.521857,114424.500,19557,2,ER,1,100,1.710908
1575568063.591371,114483.000,19557,2,ER,1,100,1.709055
1575568063.651972,114534.000,19575,1,ER,1,100,1.707121
1575568063.715544,114587.500,19592,2,ER,1,100,1.703214
1575568063.779116,114641.000,19592,2,ER,1,100,1.703053
1575568063.845659,114697.000,19610,2,ER,1,100,1.696930
1575568063.912201,114753.000,19610,2,ER,1,100,1.694352
1575568063.977556,114808.000,19629,2,ER,1,100,1.685651
1575568064.042910,114863.000,19629,2,ER,1,100,1.680575
1575568064.106483,114916.500,19647,2,ER,1,100,1.672115
1575568064.170054,114970.000,19647,2,ER,1,100,1.667443
1575568064.237786,115027.000,19663,2,ER,1,100,1.660232
1575568064.305516,115084.000,19663,2,ER,1,100,1.653666
1575568064.372059,115140.000,19681,1,ER,1,100,1.649033
1575568064.441573,115198.500,19699,2,ER,1,100,1.640856
1575568064.511086,115257.000,19699,2,ER,1,100,1.638157
1575568064.578223,115313.500,19717,2,ER,1,100,1.633887
1575568064.645360,115370.000,19717,2,ER,1,100,1.632275
1575568064.708338,115423.000,19735,2,ER,1,100,1.632195
1575568064.771316,115476.000,19735,2,ER,1,100,1.632396
1575568064.837858,115532.000,19753,2,ER,1,100,1.631268
1575568064.904401,115588.000,19753,2,ER,1,100,1.634813
1575568064.969755,115643.000,19772,1,ER,1,100,1.636183
1575568065.039269,115701.500,19789,2,ER,1,100,1.638157
1575568065.108782,115760.000,19789,2,ER,1,100,1.643676
1575568065.177107,115817.500,19807,2,ER,1,100,1.644078
1575568065.245432,115875.000,19807,2,ER,1,100,1.650322
1575568065.309004,115928.500,19823,2,ER,1,100,1.652498
1575568065.372576,115982.000,19823,2,ER,1,100,1.667604
1575568065.436743,116036.000,19841,2,ER,1,100,1.662246
1575568065.500909,116090.000,19841,2,ER,1,100,1.665106
1575568065.568640,116147.000,19859,1,ER,1,100,1.668530
1575568065.636371,116204.000,19877,2,ER,1,100,1.671028
1575568065.704102,116261.000,19877,2,ER,1,100,1.674452
1575568065.774209,116320.000,19895,2,ER,1,100,1.675499
1575568065.844317,116379.000,19895,2,ER,1,100,1.680011
1575568065.907295,116432.000,19913,2,ER,1,100,1.689921
1575568065.970273,116485.000,19913,2,ER,1,100,1.686899
1575568066.035627,116540.000,19932,2,ER,1,100,1.686456
1575568066.100981,116595.000,19932,2,ER,1,100,1.697655
1575568066.167524,116651.000,19950,2,ER,1,100,1.697816
1575568066.234067,116707.000,19950,2,ER,1,100,1.695037
1575568066.305363,116767.000,19968,1,ER,1,100,1.698219
1575568066.373094,116824.000,19985,2,ER,1,100,1.699589
1575568066.440825,116881.000,19985,2,ER,1,100,1.702972
1575568066.505585,116935.500,20003,2,ER,1,100,1.703053
1575568066.570345,116990.000,20003,2,ER,1,100,1.710505
1575568066.634908,117044.333,20022,3,ER,1,100,1.706356
1575568066.699470,117098.667,20022,3,ER,1,100,1.705550
1575568066.764032,117153.000,20022,3,ER,1,100,1.714735
1575568066.831763,117210.000,20042,1,ER,1,100,1.715621
1575568066.900682,117268.000,20060,2,ER,1,100,1.715541
1575568066.969602,117326.000,20060,2,ER,1,100,1.723033
1575568067.038521,117384.000,20078,2,ER,1,100,1.722510
1575568067.107440,117442.000,20078,2,ER,1,100,1.722792
1575568067.168636,117493.500,20096,2,ER,1,100,1.725370
1575568067.229831,117545.000,20096,2,ER,1,100,1.724322
1575568067.293997,117599.000,20114,2,ER,1,100,1.726337
1575568067.358164,117653.000,20114,2,ER,1,100,1.731614
1575568067.428271,117712.000,20130,2,ER,1,100,1.722147
1575568067.498379,117771.000,20130,2,ER,1,100,1.732097
1575568067.563733,117826.000,20148,1,ER,1,100,1.727585
1575568067.635623,117886.500,20166,2,ER,1,100,1.725209
1575568067.707513,117947.000,20166,2,ER,1,100,1.726860
1575568067.775838,118004.500,20184,2,ER,1,100,1.726498
1575568067.844163,118062.000,20184,2,ER,1,100,1.727303
1575568067.916647,118123.000,20202,1,ER,1,100,1.728673
1575568067.984972,118180.500,20221,2,ER,1,100,1.730768
1575568068.053297,118238.000,20221,2,ER,1,100,1.730204
1575568068.121028,118295.000,20238,2,ER,1,100,1.727102
1575568068.188759,118352.000,20238,2,ER,1,100,1.720536
1575568068.252331,118405.500,20256,2,ER,1,100,1.720576
1575568068.315903,118459.000,20256,2,ER,1,100,1.720496
1575568068.383634,118516.000,20272,2,ER,1,100,1.721462
1575568068.451365,118573.000,20272,2,ER,1,100,1.718925
1575568068.514937,118626.500,20290,2,ER,1,100,1.717797
1575568068.578510,118680.000,20290,2,ER,1,100,1.721100
1575568068.646240,118737.000,20308,1,ER,1,100,1.725732
1575568068.713971,118794.000,20326,2,ER,1,100,1.722268
1575568068.781703,118851.000,20326,2,ER,1,100,1.722389
1575568068.852404,118910.500,20344,2,ER,1,100,1.716910
1575568068.923106,118970.000,20344,2,ER,1,100,1.716870
1575568068.988460,119025.000,20363,2,ER,1,100,1.713285
1575568069.053815,119080.000,20363,2,ER,1,100,1.715178
1575568069.117387,119133.500,20381,2,ER,1,100,1.714614
1575568069.180959,119187.000,20381,2,ER,1,100,1.712197
1575568069.245125,119241.000,20399,1,ER,1,100,1.713084
1575568069.313450,119298.500,20416,2,ER,1,100,1.713446
1575568069.381775,119356.000,20416,2,ER,1,100,1.714050
1575568069.449506,119413.000,20434,2,ER,1,100,1.711996
1575568069.517237,119470.000,20434,2,ER,1,100,1.713688
1575568069.583186,119525.500,20450,2,ER,1,100,1.710989
1575568069.649134,119581.000,20450,2,ER,1,100,1.706558
1575568069.712706,119634.500,20468,2,ER,1,100,1.702932
1575568069.776278,119688.000,20468,2,ER,1,100,1.700314
1575568069.839256,119741.000,20486,1,ER,1,100,1.708129
1575568069.908770,119799.500,20505,2,ER,1,100,1.701643
1575568069.978283,119858.000,20505,2,ER,1,100,1.697856
1575568070.047796,119916.500,20523,2,ER,1,100,1.700233
1575568070.117310,119975.000,20523,2,ER,1,100,1.705188
1575568070.184447,120031.500,20541,2,ER,1,100,1.698138
1575568070.251584,120088.000,20541,2,ER,1,100,1.698179
1575568070.314561,120141.000,20559,2,ER,1,100,1.697534
1575568070.377539,120194.000,20559,2,ER,1,100,1.697937
1575568070.440517,120247.000,20577,1,ER,1,100,1.697413
1575568070.508248,120304.000,20594,2,ER,1,100,1.696567
1575568070.575979,120361.000,20594,2,ER,1,100,1.697011
1575568070.645493,120419.500,20612,2,ER,1,100,1.695923
1575568070.715006,120478.000,20612,2,ER,1,100,1.698380
1575568070.781549,120534.000,20628,2,ER,1,100,1.697212
1575568070.848091,120590.000,20628,2,ER,1,100,1.698018
1575568070.911069,120643.000,20646,2,ER,1,100,1.699589
1575568070.974047,120696.000,20646,2,ER,1,100,1.699427
1575568071.037025,120749.000,20665,1,ER,1,100,1.700112
1575568071.104162,120805.500,20683,2,ER,1,100,1.698018
1575568071.171299,120862.000,20683,2,ER,1,100,1.699589
1575568071.240812,120920.500,20701,2,ER,1,100,1.697574
1575568071.310326,120979.000,20701,2,ER,1,100,1.698662
1575568071.377463,121035.500,20719,2,ER,1,100,1.695883
1575568071.444599,121092.000,20719,2,ER,1,100,1.696970
1575568071.508171,121145.500,20737,2,ER,1,100,1.697252
1575568071.571743,121199.000,20737,2,ER,1,100,1.698179
1575568071.639474,121256.000,20755,1,ER,1,100,1.700273
1575568071.703047,121309.500,20772,2,ER,1,100,1.699790
1575568071.766618,121363.000,20772,2,ER,1,100,1.700757
1575568071.834350,121420.000,20790,2,ER,1,100,1.699911
1575568071.902081,121477.000,20790,2,ER,1,100,1.701482
1575568071.965059,121530.000,20809,2,ER,1,100,1.698461
1575568072.028036,121583.000,20809,2,ER,1,100,1.701925
1575568072.092797,121637.500,20827,2,ER,1,100,1.699186
1575568072.157557,121692.000,20827,2,ER,1,100,1.700555
1575568072.227664,121751.000,20843,2,ER,1,100,1.700032
1575568072.297772,121810.000,20843,2,ER,1,100,1.701160
1575568072.363127,121865.000,20861,1,ER,1,100,1.702610
1575568072.433828,121924.500,20879,2,ER,1,100,1.701925
1575568072.504530,121984.000,20879,2,ER,1,100,1.703657
1575568072.566914,122036.500,20897,2,ER,1,100,1.700394
1575568072.629297,122089.000,20897,2,ER,1,100,1.702650
1575568072.695048,122144.333,20918,3,ER,1,100,1.699669
1575568072.760798,122199.667,20918,3,ER,1,100,1.700676
1575568072.826549,122255.000,20918,3,ER,1,100,1.698340
1575568072.896062,122313.500,20938,2,ER,1,100,1.698662
1575568072.965576,122372.000,20938,2,ER,1,100,1.700596
1575568073.033307,122429.000,20957,1,ER,1,100,1.700837
1575568073.101038,122486.000,20975,2,ER,1,100,1.699870
1575568073.168769,122543.000,20975,2,ER,1,100,1.701845
1575568073.231153,122595.500,20993,2,ER,1,100,1.699911
1575568073.293536,122648.000,20993,2,ER,1,100,1.701442
1575568073.359485,122703.500,21011,2,ER,1,100,1.698944
1575568073.425433,122759.000,21011,2,ER,1,100,1.701079
1575568073.493759,122816.500,21029,2,ER,1,100,1.698420
1575568073.562084,122874.000,21029,2,ER,1,100,1.698179
1575568073.629815,122931.000,21047,1,ER,1,100,1.699629
1575568073.698140,122988.500,21064,2,ER,1,100,1.699468
1575568073.766465,123046.000,21064,2,ER,1,100,1.701643
1575568073.830037,123099.500,21082,2,ER,1,100,1.696970
1575568073.893609,123153.000,21082,2,ER,1,100,1.700314
1575568073.958369,123207.500,21101,2,ER,1,100,1.696769
1575568074.023130,123262.000,21101,2,ER,1,100,1.699951
1575568074.091455,123319.500,21119,2,ER,1,100,1.698662
1575568074.159780,123377.000,21119,2,ER,1,100,1.700515
1575568074.227511,123434.000,21135,1,ER,1,100,1.699105
1575568074.297024,123492.500,21153,2,ER,1,100,1.697615
1575568074.366538,123551.000,21153,2,ER,1,100,1.699830
1575568074.428921,123603.500,21171,2,ER,1,100,1.699629
1575568074.491305,123656.000,21171,2,ER,1,100,1.702046
1575568074.555471,123710.000,21189,2,ER,1,100,1.699065
1575568074.619637,123764.000,21189,2,ER,1,100,1.700354
1575568074.687369,123821.000,21207,2,ER,1,100,1.697574
1575568074.755100,123878.000,21207,2,ER,1,100,1.697574
1575568074.822830,123935.000,21225,1,ER,1,100,1.692781
1575568074.892344,123993.500,21244,2,ER,1,100,1.690202
1575568074.961857,124052.000,21244,2,ER,1,100,1.688632
1575568075.025429,124105.500,21261,2,ER,1,100,1.684724
1575568075.089001,124159.000,21261,2,ER,1,100,1.684241
1575568075.153167,124213.000,21279,2,ER,1,100,1.679528
1575568075.217334,124267.000,21279,2,ER,1,100,1.678520
1575568075.280906,124320.500,21297,2,ER,1,100,1.673485
1575568075.344478,124374.000,21297,2,ER,1,100,1.671269
1575568075.412209,124431.000,21315,2,ER,1,100,1.664059
1575568075.479940,124488.000,21315,2,ER,1,100,1.665428
1575568075.546483,124544.000,21331,1,ER,1,100,1.664301
1575568075.616590,124603.000,21349,2,ER,1,100,1.660635
1575568075.686697,124662.000,21349,2,ER,1,100,1.663052
1575568075.754429,124719.000,21367,2,ER,1,100,1.666597
1575568075.822160,124776.000,21367,2,ER,1,100,1.667000
1575568075.889890,124833.000,21385,2,ER,1,100,1.662931
1575568075.957622,124890.000,21385,2,ER,1,100,1.666718
1575568076.024164,124946.000,21404,2,ER,1,100,1.666556
1575568076.090707,125002.000,21404,2,ER,1,100,1.665831
1575568076.152497,125054.000,21422,1,ER,1,100,1.670021
1575568076.219633,125110.500,21439,2,ER,1,100,1.669296
1575568076.286770,125167.000,21439,2,ER,1,100,1.671149
1575568076.349748,125220.000,21457,2,ER,1,100,1.670544
1575568076.412726,125273.000,21457,2,ER,1,100,1.674170
1575568076.478675,125328.500,21475,2,ER,1,100,1.675942
1575568076.544623,125384.000,21475,2,ER,1,100,1.679407
1575568076.614137,125442.500,21491,2,ER,1,100,1.681944
1575568076.683650,125501.000,21491,2,ER,1,100,1.683838
1575568076.753757,125560.000,21509,1,ER,1,100,1.686295
1575568076.820894,125616.500,21527,2,ER,1,100,1.685651
1575568076.888031,125673.000,21527,2,ER,1,100,1.688591
1575568076.951009,125726.000,21546,2,ER,1,100,1.687786
1575568077.013987,125779.000,21546,2,ER,1,100,1.692136
1575568077.079936,125834.500,21564,2,ER,1,100,1.691008
1575568077.145884,125890.000,21564,2,ER,1,100,1.694150
1575568077.214209,125947.500,21582,2,ER,1,100,1.694070
1575568077.282535,126005.000,21582,2,ER,1,100,1.698702
1575568077.351454,126063.000,21600,1,ER,1,100,1.698904
1575568077.419779,126120.500,21617,2,ER,1,100,1.698179
1575568077.488104,126178.000,21617,2,ER,1,100,1.699709
1575568077.550488,126230.500,21635,2,ER,1,100,1.696245
1575568077.612872,126283.000,21635,2,ER,1,100,1.696930
1575568077.678226,126338.000,21653,2,ER,1,100,1.694916
1575568077.743581,126393.000,21653,2,ER,1,100,1.695842
1575568077.813688,126452.000,21669,2,ER,1,100,1.692056
1575568077.883795,126511.000,21669,2,ER,1,100,1.693224
1575568077.950338,126567.000,21688,1,ER,1,100,1.688954
1575568078.021040,126626.500,21706,2,ER,1,100,1.685651
1575568078.091742,126686.000,21706,2,ER,1,100,1.685570
1575568078.152937,126737.500,21724,2,ER,1,100,1.682428
1575568078.214133,126789.000,21724,2,ER,1,100,1.683596
1575568078.279487,126844.000,21742,2,ER,1,100,1.680212
1575568078.344841,126899.000,21742,2,ER,1,100,1.680011
1575568078.414949,126958.000,21760,2,ER,1,100,1.680857
1575568078.485056,127017.000,21760,2,ER,1,100,1.677352
1575568078.550411,127072.000,21778,1,ER,1,100,1.683193
1575568078.620518,127131.000,21795,2,ER,1,100,1.678359
1575568078.690626,127190.000,21795,2,ER,1,100,1.682670
1575568078.753604,127243.000,21816,3,ER,1,100,1.684684
1575568078.816582,127296.000,21816,3,ER,1,100,1.685973
1575568078.879560,127349.000,21816,3,ER,1,100,1.685892
1575568078.944914,127404.000,21837,2,ER,1,100,1.687020
1575568079.010269,127459.000,21837,2,ER,1,100,1.687826
1575568079.078000,127516.000,21855,2,ER,1,100,1.687584
1575568079.145730,127573.000,21855,2,ER,1,100,1.691975
1575568079.217026,127633.000,21873,1,ER,1,100,1.687302
1575568079.284757,127690.000,21890,2,ER,1,100,1.687584
1575568079.352488,127747.000,21890,2,ER,1,100,1.692942
1575568079.423784,127807.000,21908,2,ER,1,100,1.693627
1575568079.495080,127867.000,21908,2,ER,1,100,1.693022
1575568079.561623,127923.000,21924,2,ER,1,100,1.696769
1575568079.628165,127979.000,21924,2,ER,1,100,1.697494
1575568079.699461,128039.000,21942,1,ER,1,100,1.697574
1575568079.765410,128094.500,21960,2,ER,1,100,1.697695
1575568079.831358,128150.000,21960,2,ER,1,100,1.701804
1575568079.894930,128203.500,21979,2,ER,1,100,1.699991
1575568079.958502,128257.000,21979,2,ER,1,100,1.707363
1575568080.025639,128313.500,21997,2,ER,1,100,1.705107
1575568080.092776,128370.000,21997,2,ER,1,100,1.705873
1575568080.161101,128427.500,22015,2,ER,1,100,1.699065
1575568080.229426,128485.000,22015,2,ER,1,100,1.703375
1575568080.298346,128543.000,22033,1,ER,1,100,1.704543
1575568080.366076,128600.000,22050,2,ER,1,100,1.705067
1575568080.433807,128657.000,22050,2,ER,1,100,1.703939
1575568080.496785,128710.000,22068,2,ER,1,100,1.700797
1575568080.559763,128763.000,22068,2,ER,1,100,1.702247
1575568080.624524,128817.500,22086,2,ER,1,100,1.703335
1575568080.689284,128872.000,22086,2,ER,1,100,1.707726
1575568080.757609,128929.500,22104,2,ER,1,100,1.703174
1575568080.825934,128987.000,22104,2,ER,1,100,1.705510
1575568080.894259,129044.500,22120,2,ER,1,100,1.705631
1575568080.962584,129102.000,22120,2,ER,1,100,1.704221
1575568081.030315,129159.000,22139,1,ER,1,100,1.703536
1575568081.093293,129212.000,22157,2,ER,1,100,1.703295
1575568081.156271,129265.000,22157,2,ER,1,100,1.703657
1575568081.222220,129320.500,22175,2,ER,1,100,1.701482
1575568081.288168,129376.000,22175,2,ER,1,100,1.704664
1575568081.355305,129432.500,22193,2,ER,1,100,1.703859
1575568081.422442,129489.000,22193,2,ER,1,100,1.706396
1575568081.491361,129547.000,22211,2,ER,1,100,1.705671
1575568081.560281,129605.000,22211,2,ER,1,100,1.706195
1575568081.630388,129664.000,22229,1,ER,1,100,1.707968
1575568081.693366,129717.000,22246,2,ER,1,100,1.707041
1575568081.756344,129770.000,22246,2,ER,1,100,1.708088
1575568081.821698,129825.000,22264,2,ER,1,100,1.703939
1575568081.887053,129880.000,22264,2,ER,1,100,1.705188
1575568081.953596,129936.000,22283,2,ER,1,100,1.702570
1575568082.020138,129992.000,22283,2,ER,1,100,1.706437
1575568082.089057,130050.000,22299,2,ER,1,100,1.706074
1575568082.157977,130108.000,22299,2,ER,1,100,1.707645
1575568082.225708,130165.000,22317,1,ER,1,100,1.705067
1575568082.290468,130219.500,22335,2,ER,1,100,1.703577
1575568082.355228,130274.000,22335,2,ER,1,100,1.705510
1575568082.418801,130327.500,22353,2,ER,1,100,1.703617
1575568082.482373,130381.000,22353,2,ER,1,100,1.706034
1575568082.548321,130436.500,22371,2,ER,1,100,1.704302
1575568082.614270,130492.000,22371,2,ER,1,100,1.708612
1575568082.683189,130550.000,22389,2,ER,1,100,1.704785
1575568082.752108,130608.000,22389,2,ER,1,100,1.706235
1575568082.823404,130668.000,22407,1,ER,1,100,1.705953
1575568082.886976,130721.500,22425,2,ER,1,100,1.703496
1575568082.950548,130775.000,22425,2,ER,1,100,1.706114
1575568083.020656,130834.000,22443,2,ER,1,100,1.705349
1575568083.090763,130893.000,22443,2,ER,1,100,1.707887
1575568083.154929,130947.000,22461,2,ER,1,100,1.705027
1575568083.219095,131001.000,22461,2,ER,1,100,1.706638
1575568083.284450,131056.000,22477,2,ER,1,100,1.705148
1575568083.349804,131111.000,22477,2,ER,1,100,1.705832
1575568083.417535,131168.000,22495,1,ER,1,100,1.705832
1575568083.483484,131223.500,22513,2,ER,1,100,1.704221
1575568083.549433,131279.000,22513,2,ER,1,100,1.706558
1575568083.613599,131333.000,22531,2,ER,1,100,1.703899
1575568083.677765,131387.000,22531,2,ER,1,100,1.705389
1575568083.744308,131443.000,22549,2,ER,1,100,1.703456
1575568083.810850,131499.000,22549,2,ER,1,100,1.704262
1575568083.878581,131556.000,22567,2,ER,1,100,1.702086
1575568083.946312,131613.000,22567,2,ER,1,100,1.703375
1575568084.017608,131673.000,22586,1,ER,1,100,1.704463
1575568084.085339,131730.000,22603,2,ER,1,100,1.704705
1575568084.153070,131787.000,22603,2,ER,1,100,1.707283
1575568084.216642,131840.500,22621,2,ER,1,100,1.703133
1575568084.280214,131894.000,22621,2,ER,1,100,1.704221
1575568084.345569,131949.000,22639,2,ER,1,100,1.702408
1575568084.410923,132004.000,22639,2,ER,1,100,1.704543
1575568084.479248,132061.500,22656,2,ER,1,100,1.701240
1575568084.547573,132119.000,22656,2,ER,1,100,1.702771
1575568084.614116,132175.000,22673,1,ER,1,100,1.703254
1575568084.684223,132234.000,22691,2,ER,1,100,1.702449
1575568084.754331,132293.000,22691,2,ER,1,100,1.704100
1575568084.816913,132345.667,22712,3,ER,1,100,1.702811
1575568084.879495,132398.333,22712,3,ER,1,100,1.703939
1575568084.942076,132451.000,22712,3,ER,1,100,1.701442
1575568085.008619,132507.000,22733,2,ER,1,100,1.700958
1575568085.075162,132563.000,22733,2,ER,1,100,1.702892
1575568085.143487,132620.500,22751,2,ER,1,100,1.701482
1575568085.211812,132678.000,22751,2,ER,1,100,1.703295
1575568085.281326,132736.500,22767,2,ER,1,100,1.701401
1575568085.350839,132795.000,22767,2,ER,1,100,1.701885
1575568085.413817,132848.000,22785,1,ER,1,100,1.703174
1575568085.477389,132901.500,22803,2,ER,1,100,1.701724
1575568085.540961,132955.000,22803,2,ER,1,100,1.704020
1575568085.607504,133011.000,22821,2,ER,1,100,1.701724
1575568085.674047,133067.000,22821,2,ER,1,100,1.703536
1575568085.741777,133124.000,22839,2,ER,1,100,1.700555
1575568085.809508,133181.000,22839,2,ER,1,100,1.702650
1575568085.879022,133239.500,22857,2,ER,1,100,1.700958
1575568085.948535,133298.000,22857,2,ER,1,100,1.700596
1575568086.013890,133353.000,22876,1,ER,1,100,1.702368
1575568086.077462,133406.500,22893,2,ER,1,100,1.701522
1575568086.141034,133460.000,22893,2,ER,1,100,1.703818
1575568086.206388,133515.000,22911,2,ER,1,100,1.700918
1575568086.271743,133570.000,22911,2,ER,1,100,1.703335
1575568086.338285,133626.000,22929,2,ER,1,100,1.700515
1575568086.404828,133682.000,22929,2,ER,1,100,1.701965
1575568086.473747,133740.000,22945,2,ER,1,100,1.700918
1575568086.542666,133798.000,22945,2,ER,1,100,1.700394
1575568086.610398,133855.000,22963,1,ER,1,100,1.700273
1575568086.673375,133908.000,22981,2,ER,1,100,1.698622
1575568086.736353,133961.000,22981,2,ER,1,100,1.700354
1575568086.802302,134016.500,22999,2,ER,1,100,1.699307
1575568086.868251,134072.000,22999,2,ER,1,100,1.702610
1575568086.930634,134124.500,23018,2,ER,1,100,1.700515
1575568086.993018,134177.000,23018,2,ER,1,100,1.702489
1575568087.060749,134234.000,23036,2,ER,1,100,1.698984
1575568087.128480,134291.000,23036,2,ER,1,100,1.700958
1575568087.196805,134348.500,23054,2,ER,1,100,1.699427
1575568087.265130,134406.000,23054,2,ER,1,100,1.698984
1575568087.329297,134460.000,23072,1,ER,1,100,1.699709
1575568087.398810,134518.500,23089,2,ER,1,100,1.696728
1575568087.468323,134577.000,23089,2,ER,1,100,1.698058
1575568087.538431,134636.000,23107,2,ER,1,100,1.697091
1575568087.608538,134695.000,23107,2,ER,1,100,1.699145
1575568087.675675,134751.500,23123,2,ER,1,100,1.699508
1575568087.742812,134808.000,23123,2,ER,1,100,1.699629
1575568087.814108,134868.000,23141,1,ER,1,100,1.702086
1575568087.878868,134922.500,23160,2,ER,1,100,1.698984
1575568087.943628,134977.000,23160,2,ER,1,100,1.700112
1575568088.008389,135031.500,23178,2,ER,1,100,1.696688
1575568088.073149,135086.000,23178,2,ER,1,100,1.700475
1575568088.139692,135142.000,23196,2,ER,1,100,1.695762
1575568088.206234,135198.000,23196,2,ER,1,100,1.698461
1575568088.275748,135256.500,23214,2,ER,1,100,1.696648
1575568088.345261,135315.000,23214,2,ER,1,100,1.699669
1575568088.412992,135372.000,23232,1,ER,1,100,1.701401
1575568088.480129,135428.500,23249,2,ER,1,100,1.700193
1575568088.547266,135485.000,23249,2,ER,1,100,1.700918
1575568088.609650,135537.500,23267,2,ER,1,100,1.697776
1575568088.672034,135590.000,23267,2,ER,1,100,1.699750
1575568088.738576,135646.000,23285,2,ER,1,100,1.697373
1575568088.805119,135702.000,23285,2,ER,1,100,1.700837
1575568088.874038,135760.000,23301,2,ER,1,100,1.698783
1575568088.942957,135818.000,23301,2,ER,1,100,1.696446
1575568089.010688,135875.000,23320,1,ER,1,100,1.697413
1575568089.078419,135932.000,23338,2,ER,1,100,1.697051
1575568089.146150,135989.000,23338,2,ER,1,100,1.699991
1575568089.209722,136042.500,23356,2,ER,1,100,1.696165
1575568089.273294,136096.000,23356,2,ER,1,100,1.698702
1575568089.337461,136150.000,23374,2,ER,1,100,1.698461
1575568089.401627,136204.000,23374,2,ER,1,100,1.700716
1575568089.470546,136262.000,23392,2,ER,1,100,1.697856
1575568089.539465,136320.000,23392,2,ER,1,100,1.701482
1575568089.607196,136377.000,23410,1,ER,1,100,1.701200
1575568089.676116,136435.000,23427,2,ER,1,100,1.698179
1575568089.745035,136493.000,23427,2,ER,1,100,1.700314
1575568089.808607,136546.500,23445,2,ER,1,100,1.694674
1575568089.872179,136600.000,23445,2,ER,1,100,1.698018
1575568089.936939,136654.500,23464,2,ER,1,100,1.698018
1575568090.001699,136709.000,23464,2,ER,1,100,1.702811
1575568090.069431,136766.000,23480,2,ER,1,100,1.699468
1575568090.137161,136823.000,23480,2,ER,1,100,1.700676
1575568090.204892,136880.000,23498,1,ER,1,100,1.700193
1575568090.275000,136939.000,23516,2,ER,1,100,1.697615
1575568090.345108,136998.000,23516,2,ER,1,100,1.699226
1575568090.407491,137050.500,23534,2,ER,1,100,1.695923
1575568090.469875,137103.000,23534,2,ER,1,100,1.700596
1575568090.533447,137156.500,23552,2,ER,1,100,1.698018
1575568090.597019,137210.000,23552,2,ER,1,100,1.698219
1575568090.664750,137267.000,23570,2,ER,1,100,1.697333
1575568090.732481,137324.000,23570,2,ER,1,100,1.702610
1575568090.803777,137384.000,23588,1,ER,1,100,1.700153
1575568090.873092,137442.333,23609,3,ER,1,100,1.698179
1575568090.942408,137500.667,23609,3,ER,1,100,1.700757
1575568091.011723,137559.000,23609,3,ER,1,100,1.699145
1575568091.080048,137616.500,23627,2,ER,1,100,1.697897
1575568091.148373,137674.000,23627,2,ER,1,100,1.699911
1575568091.217886,137732.500,23647,2,ER,1,100,1.697977
1575568091.287400,137791.000,23647,2,ER,1,100,1.701401
1575568091.355131,137848.000,23665,1,ER,1,100,1.699266
1575568091.421079,137903.500,23682,2,ER,1,100,1.698461
1575568091.487028,137959.000,23682,2,ER,1,100,1.702207
1575568091.551788,138013.500,23700,2,ER,1,100,1.697413
1575568091.616549,138068.000,23700,2,ER,1,100,1.699750
1575568091.679527,138121.000,23718,2,ER,1,100,1.697856
1575568091.742505,138174.000,23718,2,ER,1,100,1.701200
1575568091.807859,138229.000,23736,2,ER,1,100,1.696608
1575568091.873214,138284.000,23736,2,ER,1,100,1.697776
1575568091.940944,138341.000,23754,2,ER,1,100,1.696205
1575568092.008675,138398.000,23754,2,ER,1,100,1.696809
1575568092.077595,138456.000,23771,1,ER,1,100,1.698461
1575568092.146514,138514.000,23789,2,ER,1,100,1.699548
1575568092.215433,138572.000,23789,2,ER,1,100,1.700193
1575568092.279005,138625.500,23807,2,ER,1,100,1.699186
1575568092.342577,138679.000,23807,2,ER,1,100,1.698944
1575568092.407338,138733.500,23825,2,ER,1,100,1.696970
1575568092.472098,138788.000,23825,2,ER,1,100,1.700837
1575568092.538641,138844.000,23843,2,ER,1,100,1.695883
1575568092.605183,138900.000,23843,2,ER,1,100,1.698098
1575568092.674103,138958.000,23861,1,ER,1,100,1.697091
1575568092.742428,139015.500,23879,2,ER,1,100,1.695439
1575568092.810753,139073.000,23879,2,ER,1,100,1.695923
1575568092.874919,139127.000,23896,2,ER,1,100,1.693465
1575568092.939085,139181.000,23896,2,ER,1,100,1.694634
1575568093.003845,139235.500,23915,2,ER,1,100,1.692740
1575568093.068606,139290.000,23915,2,ER,1,100,1.696285
1575568093.135149,139346.000,23933,2,ER,1,100,1.692740
1575568093.201691,139402.000,23933,2,ER,1,100,1.694875
1575568093.271205,139460.500,23949,2,ER,1,100,1.694916
1575568093.340718,139519.000,23949,2,ER,1,100,1.693143
1575568093.409637,139577.000,23967,1,ER,1,100,1.694594
1575568093.475586,139632.500,23985,2,ER,1,100,1.691612
1575568093.541534,139688.000,23985,2,ER,1,100,1.697736
1575568093.605107,139741.500,24003,2,ER,1,100,1.695520
1575568093.668679,139795.000,24003,2,ER,1,100,1.696205
1575568093.735221,139851.000,24021,2,ER,1,100,1.694271
1575568093.801764,139907.000,24021,2,ER,1,100,1.697091
1575568093.871277,139965.500,24039,2,ER,1,100,1.695641
1575568093.940791,140024.000,24039,2,ER,1,100,1.695439
1575568094.008522,140081.000,24058,1,ER,1,100,1.696245
1575568094.075659,140137.500,24075,2,ER,1,100,1.694191
1575568094.142795,140194.000,24075,2,ER,1,100,1.698380
1575568094.205179,140246.500,24093,2,ER,1,100,1.695721
1575568094.267563,140299.000,24093,2,ER,1,100,1.698098
1575568094.333512,140354.500,24111,2,ER,1,100,1.696245
1575568094.399460,140410.000,24111,2,ER,1,100,1.698823
1575568094.468379,140468.000,24127,2,ER,1,100,1.697091
1575568094.537299,140526.000,24127,2,ER,1,100,1.697413
1575568094.608594,140586.000,24145,1,ER,1,100,1.698219
1575568094.677514,140644.000,24163,2,ER,1,100,1.694956
1575568094.746433,140702.000,24163,2,ER,1,100,1.699830
1575568094.816540,140761.000,24181,2,ER,1,100,1.697212
1575568094.886648,140820.000,24181,2,ER,1,100,1.699951
1575568094.952002,140875.000,24200,2,ER,1,100,1.698340
1575568095.017357,140930.000,24200,2,ER,1,100,1.697615
1575568095.088653,140990.000,24218,1,ER,1,100,1.697212
1575568095.153413,141044.500,24235,2,ER,1,100,1.696245
1575568095.218173,141099.000,24235,2,ER,1,100,1.698622
1575568095.281745,141152.500,24253,2,ER,1,100,1.692982
1575568095.345317,141206.000,24253,2,ER,1,100,1.692378
1575568095.413048,141263.000,24269,2,ER,1,100,1.689800
1575568095.480779,141320.000,24269,2,ER,1,100,1.697212
1575568095.546134,141375.000,24287,2,ER,1,100,1.705591
1575568095.611488,141430.000,24287,2,ER,1,100,1.675459
1575568095.679219,141487.000,24305,1,ER,1,100,1.677675
1575568095.746950,141544.000,24323,2,ER,1,100,1.670907
1575568095.814681,141601.000,24323,2,ER,1,100,1.670504
1575568095.883600,141659.000,24341,2,ER,1,100,1.670786
1575568095.952520,141717.000,24341,2,ER,1,100,1.667080
1575568096.016686,141771.000,24360,2,ER,1,100,1.664180
1575568096.080852,141825.000,24360,2,ER,1,100,1.668047
1575568096.143830,141878.000,24378,2,ER,1,100,1.666556
1575568096.206808,141931.000,24378,2,ER,1,100,1.665146
1575568096.274539,141988.000,24396,1,ER,1,100,1.664784
1575568096.342270,142045.000,24414,2,ER,1,100,1.665025
1575568096.410001,142102.000,24414,2,ER,1,100,1.666194
1575568096.479514,142160.500,24431,2,ER,1,100,1.670142
1575568096.549028,142219.000,24431,2,ER,1,100,1.670222
1575568096.613194,142273.000,24447,2,ER,1,100,1.670182
1575568096.677360,142327.000,24447,2,ER,1,100,1.671149
1575568096.740932,142380.500,24465,2,ER,1,100,1.668812
1575568096.804504,142434.000,24465,2,ER,1,100,1.669578
1575568096.872235,142491.000,24483,2,ER,1,100,1.668087
1575568096.939966,142548.000,24483,2,ER,1,100,1.668530
1575568097.009480,142606.500,24505,2,ER,1,100,1.672921
1575568097.078993,142665.000,24505,2,ER,1,100,1.672800
1575568097.146724,142722.000,24525,2,ER,1,100,1.676023
1575568097.214455,142779.000,24525,2,ER,1,100,1.677836
1575568097.277433,142832.000,24543,2,ER,1,100,1.677554
1575568097.340411,142885.000,24543,2,ER,1,100,1.680333
1575568097.405765,142940.000,24560,2,ER,1,100,1.680011
1575568097.471119,142995.000,24560,2,ER,1,100,1.683113
1575568097.538256,143051.500,24577,2,ER,1,100,1.679044
1575568097.605393,143108.000,24577,2,ER,1,100,1.683274
1575568097.676689,143168.000,24595,1,ER,1,100,1.686094
1575568097.744420,143225.000,24613,2,ER,1,100,1.687987
1575568097.812151,143282.000,24613,2,ER,1,100,1.689800
1575568097.875723,143335.500,24631,2,ER,1,100,1.688148
1575568097.939295,143389.000,24631,2,ER,1,100,1.691451
1575568098.002867,143442.500,24650,2,ER,1,100,1.689719
1575568098.066439,143496.000,24650,2,ER,1,100,1.691733
1575568098.132388,143551.500,24668,2,ER,1,100,1.688108
1575568098.198336,143607.000,24668,2,ER,1,100,1.686376
1575568098.269632,143667.000,24686,1,ER,1,100,1.684281
1575568098.336175,143723.000,24703,2,ER,1,100,1.679568
1575568098.402718,143779.000,24703,2,ER,1,100,1.675902
1575568098.467478,143833.500,24721,2,ER,1,100,1.668611
1575568098.532238,143888.000,24721,2,ER,1,100,1.665872
1575568098.599969,143945.000,24739,2,ER,1,100,1.657211
1575568098.667700,144002.000,24739,2,ER,1,100,1.651692
1575568098.733055,144057.000,24755,2,ER,1,100,1.644038
1575568098.798409,144112.000,24755,2,ER,1,100,1.637552
1575568098.863169,144166.500,24773,2,ER,1,100,1.631027
1575568098.927930,144221.000,24773,2,ER,1,100,1.623292
1575568098.992096,144275.000,24792,1,ER,1,100,1.617814
1575568099.056262,144329.000,24810,2,ER,1,100,1.608951
1575568099.120428,144383.000,24810,2,ER,1,100,1.610563
1575568099.188159,144440.000,24828,2,ER,1,100,1.607662
1575568099.255890,144497.000,24828,2,ER,1,100,1.610643
1575568099.322433,144553.000,24846,2,ER,1,100,1.608750
1575568099.388976,144609.000,24846,2,ER,1,100,1.611127
1575568099.456707,144666.000,24864,2,ER,1,100,1.610643
1575568099.524438,144723.000,24864,2,ER,1,100,1.612174
1575568099.595733,144783.000,24882,1,ER,1,100,1.615598
1575568099.662870,144839.500,24899,2,ER,1,100,1.615356
1575568099.730007,144896.000,24899,2,ER,1,100,1.618458
1575568099.793579,144949.500,24917,2,ER,1,100,1.618458
1575568099.857151,145003.000,24917,2,ER,1,100,1.626998
1575568099.923100,145058.500,24936,2,ER,1,100,1.628489
1575568099.989048,145114.000,24936,2,ER,1,100,1.635579
1575568100.057374,145171.500,24952,2,ER,1,100,1.637109
1575568100.125699,145229.000,24952,2,ER,1,100,1.640292
1575568100.192241,145285.000,24970,1,ER,1,100,1.645247
1575568100.260566,145342.500,24988,2,ER,1,100,1.648228
1575568100.328892,145400.000,24988,2,ER,1,100,1.654028
1575568100.391275,145452.500,25006,2,ER,1,100,1.656284
1575568100.453659,145505.000,25006,2,ER,1,100,1.664703
1575568100.519014,145560.000,25024,2,ER,1,100,1.665106
1575568100.584368,145615.000,25024,2,ER,1,100,1.672075
1575568100.652099,145672.000,25042,2,ER,1,100,1.676466
1575568100.719830,145729.000,25042,2,ER,1,100,1.683274
1575568100.787561,145786.000,25060,1,ER,1,100,1.684684
1575568100.857668,145845.000,25078,2,ER,1,100,1.689236
1575568100.927776,145904.000,25078,2,ER,1,100,1.693788
1575568100.991348,145957.500,25096,2,ER,1,100,1.696084
1575568101.054920,146011.000,25096,2,ER,1,100,1.698018
1575568101.119086,146065.000,25114,2,ER,1,100,1.699226
1575568101.183253,146119.000,25114,2,ER,1,100,1.703979
1575568101.251578,146176.500,25130,2,ER,1,100,1.700354
1575568101.319903,146234.000,25130,2,ER,1,100,1.703133
1575568101.387634,146291.000,25148,1,ER,1,100,1.707565
1575568101.457147,146349.500,25166,2,ER,1,100,1.712600
1575568101.526660,146408.000,25166,2,ER,1,100,1.716789
1575568101.590233,146461.500,25184,2,ER,1,100,1.713204
1575568101.653805,146515.000,25184,2,ER,1,100,1.717837
1575568101.716783,146568.000,25202,2,ER,1,100,1.716951
1575568101.779760,146621.000,25202,2,ER,1,100,1.720818
1575568101.847492,146678.000,25220,2,ER,1,100,1.718481
1575568101.915222,146735.000,25220,2,ER,1,100,1.720335
1575568101.982953,146792.000,25239,1,ER,1,100,1.723033
1575568102.052467,146850.500,25256,2,ER,1,100,1.724161
1575568102.121980,146909.000,25256,2,ER,1,100,1.722792
1575568102.187335,146964.000,25274,2,ER,1,100,1.722067
1575568102.252689,147019.000,25274,2,ER,1,100,1.725732
1575568102.316855,147073.000,25292,2,ER,1,100,1.725330
1575568102.381021,147127.000,25292,2,ER,1,100,1.724886
1575568102.443999,147180.000,25310,2,ER,1,100,1.719891
1575568102.506977,147233.000,25310,2,ER,1,100,1.728995
1575568102.572926,147288.500,25326,2,ER,1,100,1.725007
1575568102.638875,147344.000,25326,2,ER,1,100,1.720375
1575568102.701852,147397.000,25344,2,ER,1,100,1.723235
1575568102.764830,147450.000,25344,2,ER,1,100,1.721382
1575568102.833750,147508.000,25362,1,ER,1,100,1.723597
1575568102.901480,147565.000,25381,2,ER,1,100,1.721865
1575568102.969212,147622.000,25381,2,ER,1,100,1.723154
1575568103.036546,147678.667,25402,3,ER,1,100,1.721865
1575568103.103881,147735.333,25402,3,ER,1,100,1.717394
1575568103.171216,147792.000,25402,3,ER,1,100,1.716628
1575568103.238353,147848.500,25420,2,ER,1,100,1.722510
1575568103.305490,147905.000,25420,2,ER,1,100,1.720294
1575568103.376786,147965.000,25439,1,ER,1,100,1.719005
1575568103.440952,148019.000,25457,2,ER,1,100,1.719368
1575568103.505118,148073.000,25457,2,ER,1,100,1.721462
1575568103.569284,148127.000,25475,2,ER,1,100,1.721261
1575568103.633451,148181.000,25475,2,ER,1,100,1.723195
1575568103.700587,148237.500,25493,2,ER,1,100,1.720778
1575568103.767724,148294.000,25493,2,ER,1,100,1.723718
1575568103.837238,148352.500,25511,2,ER,1,100,1.719045
1575568103.906751,148411.000,25511,2,ER,1,100,1.719609
1575568103.974482,148468.000,25530,1,ER,1,100,1.715662
1575568104.040430,148523.500,25547,2,ER,1,100,1.713809
1575568104.106379,148579.000,25547,2,ER,1,100,1.715299
1575568104.169357,148632.000,25565,2,ER,1,100,1.711996
1575568104.232335,148685.000,25565,2,ER,1,100,1.714977
1575568104.299472,148741.500,25583,2,ER,1,100,1.713043
1575568104.366609,148798.000,25583,2,ER,1,100,1.715178
1575568104.435528,148856.000,25601,2,ER,1,100,1.712278
1575568104.504447,148914.000,25601,2,ER,1,100,1.713809
1575568104.572178,148971.000,25617,1,ER,1,100,1.712963
1575568104.639315,149027.500,25635,2,ER,1,100,1.711674
1575568104.706452,149084.000,25635,2,ER,1,100,1.712399
1575568104.770024,149137.500,25653,2,ER,1,100,1.709418
1575568104.833596,149191.000,25653,2,ER,1,100,1.710465
1575568104.898950,149246.000,25672,2,ER,1,100,1.709095
1575568104.964305,149301.000,25672,2,ER,1,100,1.711432
1575568105.033224,149359.000,25690,2,ER,1,100,1.709377
1575568105.102143,149417.000,25690,2,ER,1,100,1.711190
1575568105.169874,149474.000,25708,1,ER,1,100,1.709176
1575568105.237605,149531.000,25725,2,ER,1,100,1.708773
1575568105.305336,149588.000,25725,2,ER,1,100,1.707484
1575568105.367720,149640.500,25743,2,ER,1,100,1.705148
1575568105.430104,149693.000,25743,2,ER,1,100,1.706679
1575568105.495458,149748.000,25761,2,ER,1,100,1.703375
1575568105.560813,149803.000,25761,2,ER,1,100,1.705510
1575568105.628544,149860.000,25779,2,ER,1,100,1.703657
1575568105.696275,149917.000,25779,2,ER,1,100,1.706960
1575568105.765788,149975.500,25795,2,ER,1,100,1.706235
1575568105.835301,150034.000,25795,2,ER,1,100,1.707242
1575568105.903032,150091.000,25814,1,ER,1,100,1.706920
1575568105.965416,150143.500,25832,2,ER,1,100,1.704785
1575568106.027800,150196.000,25832,2,ER,1,100,1.706155
1575568106.093749,150251.500,25850,2,ER,1,100,1.702731
1575568106.159697,150307.000,25850,2,ER,1,100,1.703738
1575568106.223269,150360.500,25868,2,ER,1,100,1.701643
1575568106.286841,150414.000,25868,2,ER,1,100,1.703697
1575568106.355166,150471.500,25886,2,ER,1,100,1.702046
1575568106.423491,150529.000,25886,2,ER,1,100,1.705067
1575568106.490034,150585.000,25904,1,ER,1,100,1.704705
1575568106.560142,150644.000,25922,2,ER,1,100,1.703295
1575568106.630249,150703.000,25922,2,ER,1,100,1.705873
1575568106.699168,150761.000,25939,2,ER,1,100,1.702408
1575568106.768088,150819.000,25939,2,ER,1,100,1.703214
1575568106.836413,150876.500,25956,2,ER,1,100,1.701361
1575568106.904738,150934.000,25956,2,ER,1,100,1.703778
1575568106.974845,150993.000,25974,1,ER,1,100,1.701724
1575568107.043170,151050.500,25992,2,ER,1,100,1.701603
1575568107.111496,151108.000,25992,2,ER,1,100,1.704624
1575568107.176850,151163.000,26010,2,ER,1,100,1.702731
1575568107.242204,151218.000,26010,2,ER,1,100,1.706114
1575568107.306371,151272.000,26028,2,ER,1,100,1.703174
1575568107.370537,151326.000,26028,2,ER,1,100,1.704624
1575568107.437080,151382.000,26046,2,ER,1,100,1.703335
1575568107.503622,151438.000,26046,2,ER,1,100,1.703093
1575568107.573730,151497.000,26064,1,ER,1,100,1.702006
1575568107.643243,151555.500,26081,2,ER,1,100,1.701724
1575568107.712757,151614.000,26081,2,ER,1,100,1.703496
1575568107.778111,151669.000,26099,2,ER,1,100,1.701724
1575568107.843466,151724.000,26099,2,ER,1,100,1.703778
1575568107.905849,151776.500,26118,2,ER,1,100,1.703416
1575568107.968233,151829.000,26118,2,ER,1,100,1.705550
1575568108.034776,151885.000,26136,2,ER,1,100,1.703093
1575568108.101319,151941.000,26136,2,ER,1,100,1.704705
1575568108.169050,151998.000,26152,2,ER,1,100,1.703174
1575568108.236780,152055.000,26152,2,ER,1,100,1.702852
1575568108.306888,152114.000,26170,1,ER,1,100,1.703939
1575568108.374619,152171.000,26188,2,ER,1,100,1.700273
1575568108.442350,152228.000,26188,2,ER,1,100,1.701522
1575568108.504140,152280.000,26206,2,ER,1,100,1.698420
1575568108.565929,152332.000,26206,2,ER,1,100,1.699186
1575568108.632472,152388.000,26224,2,ER,1,100,1.695198
1575568108.699015,152444.000,26224,2,ER,1,100,1.694231
1575568108.768528,152502.500,26242,2,ER,1,100,1.688470
1575568108.838042,152561.000,26242,2,ER,1,100,1.682952
1575568108.904584,152617.000,26261,1,ER,1,100,1.677675
1575568108.973503,152675.000,26278,2,ER,1,100,1.669618
1575568109.042423,152733.000,26278,2,ER,1,100,1.664341
1575568109.105005,152785.667,26299,3,ER,1,100,1.654713
1575568109.167586,152838.333,26299,3,ER,1,100,1.650040
1575568109.230168,152891.000,26299,3,ER,1,100,1.642064
1575568109.296711,152947.000,26317,2,ER,1,100,1.637432
1575568109.363254,153003.000,26317,2,ER,1,100,1.637109
1575568109.432173,153061.000,26337,2,ER,1,100,1.631349
1575568109.501092,153119.000,26337,2,ER,1,100,1.626958
1575568109.568823,153176.000,26355,1,ER,1,100,1.625065
1575568109.635366,153232.000,26372,2,ER,1,100,1.621802
1575568109.701909,153288.000,26372,2,ER,1,100,1.622084
1575568109.764292,153340.500,26390,2,ER,1,100,1.619586
1575568109.826676,153393.000,26390,2,ER,1,100,1.622124
1575568109.893219,153449.000,26409,2,ER,1,100,1.622043
1575568109.959762,153505.000,26409,2,ER,1,100,1.626877
1575568110.023928,153559.000,26425,2,ER,1,100,1.629375
1575568110.088094,153613.000,26425,2,ER,1,100,1.634249
1575568110.158201,153672.000,26443,2,ER,1,100,1.638439
1575568110.228309,153731.000,26443,2,ER,1,100,1.641541
1575568110.293664,153786.000,26461,1,ER,1,100,1.645730
1575568110.365553,153846.500,26479,2,ER,1,100,1.646938
1575568110.437443,153907.000,26479,2,ER,1,100,1.652900
1575568110.505768,153964.500,26497,2,ER,1,100,1.653223
1575568110.574093,154022.000,26497,2,ER,1,100,1.658339
1575568110.646577,154083.000,26515,1,ER,1,100,1.661279
1575568110.714903,154140.500,26532,2,ER,1,100,1.665388
1575568110.783228,154198.000,26532,2,ER,1,100,1.671350
1575568110.851553,154255.500,26550,2,ER,1,100,1.674573
1575568110.919878,154313.000,26550,2,ER,1,100,1.679810
1575568110.983450,154366.500,26567,2,ER,1,100,1.681703
1575568111.047022,154420.000,26567,2,ER,1,100,1.685651
1575568111.112376,154475.000,26585,2,ER,1,100,1.687947
1575568111.177731,154530.000,26585,2,ER,1,100,1.690928
1575568111.246650,154588.000,26603,1,ER,1,100,1.693063
1575568111.314381,154645.000,26621,2,ER,1,100,1.693909
1575568111.382112,154702.000,26621,2,ER,1,100,1.697494
1575568111.451626,154760.500,26639,2,ER,1,100,1.698582
1575568111.521139,154819.000,26639,2,ER,1,100,1.704946
1575568111.583523,154871.500,26657,2,ER,1,100,1.705148
1575568111.645906,154924.000,26657,2,ER,1,100,1.709418
1575568111.710667,154978.500,26675,2,ER,1,100,1.709176
1575568111.775427,155033.000,26675,2,ER,1,100,1.711351
1575568111.842564,155089.500,26693,2,ER,1,100,1.713285
1575568111.909701,155146.000,26693,2,ER,1,100,1.713970
1575568111.977432,155203.000,26712,1,ER,1,100,1.715420
1575568112.046351,155261.000,26729,2,ER,1,100,1.714655
1575568112.115270,155319.000,26729,2,ER,1,100,1.717152
1575568112.180031,155373.500,26747,2,ER,1,100,1.716789
1575568112.244791,155428.000,26747,2,ER,1,100,1.720455
1575568112.307769,155481.000,26764,2,ER,1,100,1.720254
1575568112.370747,155534.000,26764,2,ER,1,100,1.723195
1575568112.439072,155591.500,26781,2,ER,1,100,1.723517
1575568112.507397,155649.000,26781,2,ER,1,100,1.723557
1575568112.575128,155706.000,26799,1,ER,1,100,1.725088
1575568112.644641,155764.500,26817,2,ER,1,100,1.723114
1575568112.714155,155823.000,26817,2,ER,1,100,1.726256
1575568112.780103,155878.500,26835,2,ER,1,100,1.721583
1575568112.846052,155934.000,26835,2,ER,1,100,1.722590
1575568112.908436,155986.500,26854,2,ER,1,100,1.720858
1575568112.970819,156039.000,26854,2,ER,1,100,1.723195
1575568113.038550,156096.000,26872,2,ER,1,100,1.724403
1575568113.106282,156153.000,26872,2,ER,1,100,1.723114
1575568113.174012,156210.000,26890,1,ER,1,100,1.724806
1575568113.242932,156268.000,26907,2,ER,1,100,1.722671
1575568113.311851,156326.000,26907,2,ER,1,100,1.724927
1575568113.378394,156382.000,26925,2,ER,1,100,1.721744
1575568113.444936,156438.000,26925,2,ER,1,100,1.724040
1575568113.506726,156490.000,26941,2,ER,1,100,1.719972
1575568113.568516,156542.000,26941,2,ER,1,100,1.719529
1575568113.635653,156598.500,26959,2,ER,1,100,1.717917
1575568113.702789,156655.000,26959,2,ER,1,100,1.717072
1575568113.774085,156715.000,26977,1,ER,1,100,1.718965
1575568113.840628,156771.000,26996,2,ER,1,100,1.717998
1575568113.907171,156827.000,26996,2,ER,1,100,1.719609
1575568113.979060,156887.500,27014,2,ER,1,100,1.715944
1575568114.050950,156948.000,27014,2,ER,1,100,1.718763
1575568114.119276,157005.500,27032,2,ER,1,100,1.715863
1575568114.187601,157063.000,27032,2,ER,1,100,1.713728
1575568114.258896,157123.000,27050,1,ER,1,100,1.712922
1575568114.327221,157180.500,27067,2,ER,1,100,1.709136
1575568114.395547,157238.000,27067,2,ER,1,100,1.707927
1575568114.463872,157295.500,27085,2,ER,1,100,1.705349
1575568114.532197,157353.000,27085,2,ER,1,100,1.705107
1575568114.603492,157413.000,27101,1,ER,1,100,1.704745
1575568114.668847,157468.000,27119,2,ER,1,100,1.705349
1575568114.734201,157523.000,27119,2,ER,1,100,1.708250
1575568114.798962,157577.500,27137,2,ER,1,100,1.704866
1575568114.863722,157632.000,27137,2,ER,1,100,1.707121
1575568114.930265,157688.000,27156,2,ER,1,100,1.704745
1575568114.996808,157744.000,27156,2,ER,1,100,1.704705
1575568115.064538,157801.000,27174,2,ER,1,100,1.702328
1575568115.132270,157858.000,27174,2,ER,1,100,1.703013
1575568115.201189,157916.000,27195,3,ER,1,100,1.701321
1575568115.270108,157974.000,27195,3,ER,1,100,1.699548
1575568115.339027,158032.000,27195,3,ER,1,100,1.699347
1575568115.406758,158089.000,27215,1,ER,1,100,1.702126
1575568115.473895,158145.500,27233,2,ER,1,100,1.701522
1575568115.541032,158202.000,27233,2,ER,1,100,1.704463
1575568115.604604,158255.500,27251,2,ER,1,100,1.701482
1575568115.668176,158309.000,27251,2,ER,1,100,1.704785
1575568115.734125,158364.500,27269,2,ER,1,100,1.701643
1575568115.800073,158420.000,27269,2,ER,1,100,1.703939
1575568115.868993,158478.000,27287,2,ER,1,100,1.702046
1575568115.937912,158536.000,27287,2,ER,1,100,1.702449
1575568116.004454,158592.000,27306,1,ER,1,100,1.702811
1575568116.072780,158649.500,27323,2,ER,1,100,1.701200
1575568116.141105,158707.000,27323,2,ER,1,100,1.703697
1575568116.203488,158759.500,27341,2,ER,1,100,1.703133
1575568116.265872,158812.000,27341,2,ER,1,100,1.706074
1575568116.330039,158866.000,27359,2,ER,1,100,1.703577
1575568116.394205,158920.000,27359,2,ER,1,100,1.705712
1575568116.463718,158978.500,27375,2,ER,1,100,1.704584
1575568116.533231,159037.000,27375,2,ER,1,100,1.704463
1575568116.600962,159094.000,27393,1,ER,1,100,1.704020
1575568116.670476,159152.500,27411,2,ER,1,100,1.702006
1575568116.739989,159211.000,27411,2,ER,1,100,1.703093
1575568116.803561,159264.500,27429,2,ER,1,100,1.701764
1575568116.867133,159318.000,27429,2,ER,1,100,1.704825
1575568116.931299,159372.000,27448,2,ER,1,100,1.704020
1575568116.995466,159426.000,27448,2,ER,1,100,1.706396
1575568117.064385,159484.000,27466,2,ER,1,100,1.705027
1575568117.133304,159542.000,27466,2,ER,1,100,1.705430
1575568117.201035,159599.000,27484,1,ER,1,100,1.705953
1575568117.269954,159657.000,27501,2,ER,1,100,1.703617
1575568117.338874,159715.000,27501,2,ER,1,100,1.705349
1575568117.401257,159767.500,27519,2,ER,1,100,1.702287
1575568117.463641,159820.000,27519,2,ER,1,100,1.703416
1575568117.527213,159873.500,27537,2,ER,1,100,1.701764
1575568117.590785,159927.000,27537,2,ER,1,100,1.705228
1575568117.658516,159984.000,27553,2,ER,1,100,1.704463
1575568117.726247,160041.000,27553,2,ER,1,100,1.707363
1575568117.793978,160098.000,27571,1,ER,1,100,1.705309
1575568117.862303,160155.500,27590,2,ER,1,100,1.704020
1575568117.930629,160213.000,27590,2,ER,1,100,1.705349
1575568118.002518,160273.500,27608,2,ER,1,100,1.702852
1575568118.074408,160334.000,27608,2,ER,1,100,1.703697
1575568118.143922,160392.500,27626,2,ER,1,100,1.701724
1575568118.213435,160451.000,27626,2,ER,1,100,1.702167
1575568118.284731,160511.000,27644,1,ER,1,100,1.703254
1575568118.351868,160567.500,27661,2,ER,1,100,1.702086
1575568118.419004,160624.000,27661,2,ER,1,100,1.703899
1575568118.482577,160677.500,27679,2,ER,1,100,1.701683
1575568118.546149,160731.000,27679,2,ER,1,100,1.704181
1575568118.611503,160786.000,27697,2,ER,1,100,1.701280
1575568118.676857,160841.000,27697,2,ER,1,100,1.703496
1575568118.744588,160898.000,27713,2,ER,1,100,1.700999
1575568118.812320,160955.000,27713,2,ER,1,100,1.701724
1575568118.881239,161013.000,27731,1,ER,1,100,1.701563
1575568118.950158,161071.000,27750,2,ER,1,100,1.699468
1575568119.019077,161129.000,27750,2,ER,1,100,1.702046
1575568119.080867,161181.000,27768,2,ER,1,100,1.700072
1575568119.142657,161233.000,27768,2,ER,1,100,1.704181
1575568119.210982,161290.500,27786,2,ER,1,100,1.701401
1575568119.279307,161348.000,27786,2,ER,1,100,1.704302
1575568119.342285,161401.000,27804,2,ER,1,100,1.701885
1575568119.405262,161454.000,27804,2,ER,1,100,1.702932
1575568119.471805,161510.000,27822,2,ER,1,100,1.701885
1575568119.538348,161566.000,27822,2,ER,1,100,1.701240
1575568119.604891,161622.000,27840,1,ER,1,100,1.701603
1575568119.673810,161680.000,27857,2,ER,1,100,1.700273
1575568119.742729,161738.000,27857,2,ER,1,100,1.704020
1575568119.810460,161795.000,27875,2,ER,1,100,1.702086
1575568119.878191,161852.000,27875,2,ER,1,100,1.704382
1575568119.941169,161905.000,27892,2,ER,1,100,1.702690
1575568120.004147,161958.000,27892,2,ER,1,100,1.702650
1575568120.069501,162013.000,27910,2,ER,1,100,1.703093
1575568120.134856,162068.000,27910,2,ER,1,100,1.701764
1575568120.200210,162123.000,27928,1,ER,1,100,1.701683
1575568120.270318,162182.000,27946,2,ER,1,100,1.700072
1575568120.340425,162241.000,27946,2,ER,1,100,1.701482
1575568120.410533,162300.000,27964,2,ER,1,100,1.698219
1575568120.480640,162359.000,27964,2,ER,1,100,1.701683
1575568120.541836,162410.500,27982,2,ER,1,100,1.701845
1575568120.603031,162462.000,27982,2,ER,1,100,1.703013
1575568120.668386,162517.000,28000,2,ER,1,100,1.702972
1575568120.733740,162572.000,28000,2,ER,1,100,1.702892
1575568120.801471,162629.000,28018,1,ER,1,100,1.703697
1575568120.870985,162687.500,28036,2,ER,1,100,1.701925
1575568120.940498,162746.000,28036,2,ER,1,100,1.703254
1575568121.010011,162804.500,28054,2,ER,1,100,1.700596
1575568121.079525,162863.000,28054,2,ER,1,100,1.702247
1575568121.140720,162914.500,28070,2,ER,1,100,1.699790
1575568121.201916,162966.000,28070,2,ER,1,100,1.699347
1575568121.266478,163020.333,28089,3,ER,1,100,1.699830
1575568121.331040,163074.667,28089,3,ER,1,100,1.702126
1575568121.395603,163129.000,28089,3,ER,1,100,1.700757
1575568121.466898,163189.000,28111,1,ER,1,100,1.701522
1575568121.533441,163245.000,28128,2,ER,1,100,1.704181
1575568121.599984,163301.000,28128,2,ER,1,100,1.704020
1575568121.668309,163358.500,28146,2,ER,1,100,1.700837
1575568121.736634,163416.000,28146,2,ER,1,100,1.703133
1575568121.806148,163474.500,28163,2,ER,1,100,1.700555
1575568121.875661,163533.000,28163,2,ER,1,100,1.703013
1575568121.941610,163588.500,28181,2,ER,1,100,1.700999
1575568122.007558,163644.000,28181,2,ER,1,100,1.699589
1575568122.078854,163704.000,28199,1,ER,1,100,1.701563
1575568122.143020,163758.000,28217,2,ER,1,100,1.700757
1575568122.207186,163812.000,28217,2,ER,1,100,1.704020
1575568122.270758,163865.500,28235,2,ER,1,100,1.701764
1575568122.334330,163919.000,28235,2,ER,1,100,1.703536
1575568122.402061,163976.000,28253,2,ER,1,100,1.702006
1575568122.469792,164033.000,28253,2,ER,1,100,1.702811
1575568122.538117,164090.500,28271,2,ER,1,100,1.701643
1575568122.606442,164148.000,28271,2,ER,1,100,1.701522
1575568122.675362,164206.000,28289,1,ER,1,100,1.701764
1575568122.744281,164264.000,28306,2,ER,1,100,1.699709
1575568122.813200,164322.000,28306,2,ER,1,100,1.699870
1575568122.882120,164380.000,28324,2,ER,1,100,1.698219
1575568122.951039,164438.000,28324,2,ER,1,100,1.702207
1575568123.015799,164492.500,28341,2,ER,1,100,1.702046
1575568123.080559,164547.000,28341,2,ER,1,100,1.700757
1575568123.144726,164601.000,28359,2,ER,1,100,1.702529
1575568123.208892,164655.000,28359,2,ER,1,100,1.701361
1575568123.276623,164712.000,28377,1,ER,1,100,1.702731
1575568123.344354,164769.000,28395,2,ER,1,100,1.699387
1575568123.412085,164826.000,28395,2,ER,1,100,1.703657
1575568123.481598,164884.500,28413,2,ER,1,100,1.699387
1575568123.551111,164943.000,28413,2,ER,1,100,1.700072
1575568123.615872,164997.500,28431,2,ER,1,100,1.698219
1575568123.680632,165052.000,28431,2,ER,1,100,1.697695
1575568123.743016,165104.500,28449,2,ER,1,100,1.698340
1575568123.805400,165157.000,28449,2,ER,1,100,1.699427
1575568123.873131,165214.000,28467,1,ER,1,100,1.701643
1575568123.940862,165271.000,28485,2,ER,1,100,1.700394
1575568124.008593,165328.000,28485,2,ER,1,100,1.703295
1575568124.077512,165386.000,28503,2,ER,1,100,1.700153
1575568124.146431,165444.000,28503,2,ER,1,100,1.702247
1575568124.214162,165501.000,28519,2,ER,1,100,1.700918
1575568124.281893,165558.000,28519,2,ER,1,100,1.699991
1575568124.343683,165610.000,28537,2,ER,1,100,1.699750
1575568124.405473,165662.000,28537,2,ER,1,100,1.699347
1575568124.474392,165720.000,28555,1,ER,1,100,1.700394
1575568124.541528,165776.500,28573,2,ER,1,100,1.697373
1575568124.608665,165833.000,28573,2,ER,1,100,1.700153
1575568124.677585,165891.000,28591,2,ER,1,100,1.700153
1575568124.746504,165949.000,28591,2,ER,1,100,1.702368
1575568124.813641,166005.500,28609,2,ER,1,100,1.700999
1575568124.880778,166062.000,28609,2,ER,1,100,1.700676
1575568124.942567,166114.000,28628,2,ER,1,100,1.700716
1575568125.004357,166166.000,28628,2,ER,1,100,1.700032
1575568125.069711,166221.000,28646,1,ER,1,100,1.701361
1575568125.135660,166276.500,28663,2,ER,1,100,1.698380
1575568125.201608,166332.000,28663,2,ER,1,100,1.701401
1575568125.270528,166390.000,28681,2,ER,1,100,1.698138
1575568125.339447,166448.000,28681,2,ER,1,100,1.700475
1575568125.408366,166506.000,28697,2,ER,1,100,1.699790
1575568125.477285,166564.000,28697,2,ER,1,100,1.701240
1575568125.542046,166618.500,28715,2,ER,1,100,1.701683
1575568125.606806,166673.000,28715,2,ER,1,100,1.700112
1575568125.675725,166731.000,28733,1,ER,1,100,1.701965
1575568125.740486,166785.500,28751,2,ER,1,100,1.699790
1575568125.805246,166840.000,28751,2,ER,1,100,1.701442
1575568125.870600,166895.000,28769,2,ER,1,100,1.699025
1575568125.935955,166950.000,28769,2,ER,1,100,1.700958
1575568125.998933,167003.000,28788,2,ER,1,100,1.696970
1575568126.061911,167056.000,28788,2,ER,1,100,1.700797
1575568126.128453,167112.000,28806,2,ER,1,100,1.699951
1575568126.194996,167168.000,28806,2,ER,1,100,1.703577
1575568126.265104,167227.000,28824,1,ER,1,100,1.701401
1575568126.334617,167285.500,28841,2,ER,1,100,1.701845
1575568126.404130,167344.000,28841,2,ER,1,100,1.702852
1575568126.471861,167401.000,28859,2,ER,1,100,1.700716
1575568126.539593,167458.000,28859,2,ER,1,100,1.703013
1575568126.610888,167518.000,28875,2,ER,1,100,1.700757
1575568126.682184,167578.000,28875,2,ER,1,100,1.700596
1575568126.745756,167631.500,28893,2,ER,1,100,1.700999
1575568126.809328,167685.000,28893,2,ER,1,100,1.699709
1575568126.873494,167739.000,28911,1,ER,1,100,1.703013
1575568126.938849,167794.000,28930,2,ER,1,100,1.701039
1575568127.004203,167849.000,28930,2,ER,1,100,1.703939
1575568127.072528,167906.500,28948,2,ER,1,100,1.701643
1575568127.140853,167964.000,28948,2,ER,1,100,1.703254
1575568127.209178,168021.500,28966,2,ER,1,100,1.701160
1575568127.277504,168079.000,28966,2,ER,1,100,1.702650
1575568127.341670,168133.000,28987,3,ER,1,100,1.701764
1575568127.405836,168187.000,28987,3,ER,1,100,1.700233
1575568127.470002,168241.000,28987,3,ER,1,100,1.698501
1575568127.532980,168294.000,29007,1,ER,1,100,1.699468
1575568127.600117,168350.500,29025,2,ER,1,100,1.702932
1575568127.667254,168407.000,29025,2,ER,1,100,1.705349
1575568127.734985,168464.000,29043,2,ER,1,100,1.701804
1575568127.802716,168521.000,29043,2,ER,1,100,1.703818
1575568127.872229,168579.500,29061,2,ER,1,100,1.701845
1575568127.941743,168638.000,29061,2,ER,1,100,1.704825
1575568128.005909,168692.000,29080,2,ER,1,100,1.702650
1575568128.070075,168746.000,29080,2,ER,1,100,1.702046
1575568128.133647,168799.500,29098,2,ER,1,100,1.701321
1575568128.197219,168853.000,29098,2,ER,1,100,1.700555
1575568128.266138,168911.000,29116,1,ER,1,100,1.701442
1575568128.333869,168968.000,29133,2,ER,1,100,1.698904
1575568128.401600,169025.000,29133,2,ER,1,100,1.702006
1575568128.471114,169083.500,29151,2,ER,1,100,1.701522
1575568128.540627,169142.000,29151,2,ER,1,100,1.703738
1575568128.604793,169196.000,29167,2,ER,1,100,1.702771
1575568128.668959,169250.000,29167,2,ER,1,100,1.701401
1575568128.731343,169302.500,29185,2,ER,1,100,1.702932
1575568128.793727,169355.000,29185,2,ER,1,100,1.701724
1575568128.862646,169413.000,29203,1,ER,1,100,1.703295
1575568128.929189,169469.000,29222,2,ER,1,100,1.699951
1575568128.995732,169525.000,29222,2,ER,1,100,1.702126
1575568129.064651,169583.000,29240,2,ER,1,100,1.699105
1575568129.133570,169641.000,29240,2,ER,1,100,1.700193
1575568129.199519,169696.500,29258,2,ER,1,100,1.700596
1575568129.265467,169752.000,29258,2,ER,1,100,1.701683
1575568129.330228,169806.500,29276,2,ER,1,100,1.702892
1575568129.394988,169861.000,29276,2,ER,1,100,1.701845
1575568129.459154,169915.000,29294,1,ER,1,100,1.703617
1575568129.522726,169968.500,29312,2,ER,1,100,1.701321
1575568129.586298,170022.000,29312,2,ER,1,100,1.703174
1575568129.653435,170078.500,29329,2,ER,1,100,1.700112
1575568129.720572,170135.000,29329,2,ER,1,100,1.701119
1575568129.789491,170193.000,29347,2,ER,1,100,1.698662
1575568129.858410,170251.000,29347,2,ER,1,100,1.700354
1575568129.926142,170308.000,29364,2,ER,1,100,1.698823
1575568129.993872,170365.000,29364,2,ER,1,100,1.700475
1575568130.061603,170422.000,29382,1,ER,1,100,1.701240
1575568130.128740,170478.500,29400,2,ER,1,100,1.699709
1575568130.195877,170535.000,29400,2,ER,1,100,1.700354
1575568130.263014,170591.500,29418,2,ER,1,100,1.698420
1575568130.330151,170648.000,29418,2,ER,1,100,1.700716
1575568130.399664,170706.500,29436,2,ER,1,100,1.697655
1575568130.469177,170765.000,29436,2,ER,1,100,1.697977
1575568130.531561,170817.500,29454,2,ER,1,100,1.695721
1575568130.593945,170870.000,29454,2,ER,1,100,1.693909
1575568130.659300,170925.000,29472,1,ER,1,100,1.694594
1575568130.726436,170981.500,29489,2,ER,1,100,1.693909
1575568130.793573,171038.000,29489,2,ER,1,100,1.697172
1575568130.863087,171096.500,29507,2,ER,1,100,1.695037
1575568130.932600,171155.000,29507,2,ER,1,100,1.696930
1575568131.000925,171212.500,29524,2,ER,1,100,1.695721
1575568131.069250,171270.000,29524,2,ER,1,100,1.697212
1575568131.131634,171322.500,29542,2,ER,1,100,1.696487
1575568131.194018,171375.000,29542,2,ER,1,100,1.695359
1575568131.256996,171428.000,29560,1,ER,1,100,1.695802
1575568131.324133,171484.500,29578,2,ER,1,100,1.693465
1575568131.391269,171541.000,29578,2,ER,1,100,1.695158
1575568131.459594,171598.500,29596,2,ER,1,100,1.692579
1575568131.527920,171656.000,29596,2,ER,1,100,1.693707
1575568131.598621,171715.500,29614,2,ER,1,100,1.691492
1575568131.669323,171775.000,29614,2,ER,1,100,1.693949
1575568131.731113,171827.000,29632,2,ER,1,100,1.692700
1575568131.792902,171879.000,29632,2,ER,1,100,1.689276
1575568131.858257,171934.000,29650,1,ER,1,100,1.688108
1575568131.923611,171989.000,29669,2,ER,1,100,1.684402
1575568131.988966,172044.000,29669,2,ER,1,100,1.682992
1575568132.057885,172102.000,29686,2,ER,1,100,1.677634
1575568132.126804,172160.000,29686,2,ER,1,100,1.675701
1575568132.196317,172218.500,29702,2,ER,1,100,1.669658
1575568132.265831,172277.000,29702,2,ER,1,100,1.667805
1575568132.328215,172329.500,29720,2,ER,1,100,1.665025
1575568132.390599,172382.000,29720,2,ER,1,100,1.663777
1575568132.454170,172435.500,29738,2,ER,1,100,1.664462
1575568132.517743,172489.000,29738,2,ER,1,100,1.662125
1575568132.585474,172546.000,29756,1,ER,1,100,1.662931
1575568132.653799,172603.500,29774,2,ER,1,100,1.660474
1575568132.722124,172661.000,29774,2,ER,1,100,1.663011
1575568132.791637,172719.500,29792,2,ER,1,100,1.660111
1575568132.861151,172778.000,29792,2,ER,1,100,1.662568
1575568132.925911,172832.500,29811,2,ER,1,100,1.661722
1575568132.990671,172887.000,29811,2,ER,1,100,1.661722
1575568133.054243,172940.500,29829,2,ER,1,100,1.662367
1575568133.117815,172994.000,29829,2,ER,1,100,1.662447
1575568133.185546,173051.000,29847,1,ER,1,100,1.667483
1575568133.249118,173104.500,29864,2,ER,1,100,1.667765
1575568133.312690,173158.000,29864,2,ER,1,100,1.672075
1575568133.380025,173214.667,29885,3,ER,1,100,1.670504
1575568133.447360,173271.333,29885,3,ER,1,100,1.674009
1575568133.514695,173328.000,29885,3,ER,1,100,1.672075
1575568133.585397,173387.500,29905,2,ER,1,100,1.673405
1575568133.656098,173447.000,29905,2,ER,1,100,1.676788
1575568133.722641,173503.000,29923,1,ER,1,100,1.676144
1575568133.793343,173562.500,29940,2,ER,1,100,1.675660
1575568133.864044,173622.000,29940,2,ER,1,100,1.678601
1575568133.932369,173679.500,29959,2,ER,1,100,1.678923
1575568134.000695,173737.000,29959,2,ER,1,100,1.682428
1575568134.069020,173794.500,29975,2,ER,1,100,1.681783
1575568134.137345,173852.000,29975,2,ER,1,100,1.683274
1575568134.205076,173909.000,29993,1,ER,1,100,1.684039
1575568134.268054,173962.000,30011,2,ER,1,100,1.682267
1575568134.331032,174015.000,30011,2,ER,1,100,1.683677
1575568134.396980,174070.500,30029,2,ER,1,100,1.681582
1575568134.462929,174126.000,30029,2,ER,1,100,1.684482
1575568134.531254,174183.500,30047,2,ER,1,100,1.681663
1575568134.599579,174241.000,30047,2,ER,1,100,1.685812
1575568134.668498,174299.000,30065,2,ER,1,100,1.685530
1575568134.737417,174357.000,30065,2,ER,1,100,1.689034
1575568134.803366,174412.500,30083,2,ER,1,100,1.691653
1575568134.869315,174468.000,30083,2,ER,1,100,1.690001
1575568134.932293,174521.000,30102,1,ER,1,100,1.692539
1575568134.996459,174575.000,30119,2,ER,1,100,1.691210
1575568135.060625,174629.000,30119,2,ER,1,100,1.694070
1575568135.128356,174686.000,30137,2,ER,1,100,1.692257
1575568135.196087,174743.000,30137,2,ER,1,100,1.694875
1575568135.264412,174800.500,30155,2,ER,1,100,1.693103
1575568135.332737,174858.000,30155,2,ER,1,100,1.695842
1575568135.401656,174916.000,30171,1,ER,1,100,1.697856
1575568135.465823,174970.000,30189,2,ER,1,100,1.699468
1575568135.529989,175024.000,30189,2,ER,1,100,1.702368
1575568135.594749,175078.500,30207,2,ER,1,100,1.702006
1575568135.659509,175133.000,30207,2,ER,1,100,1.705067
1575568135.726052,175189.000,30225,2,ER,1,100,1.703375
1575568135.792595,175245.000,30225,2,ER,1,100,1.705510
1575568135.862108,175303.500,30243,2,ER,1,100,1.703778
1575568135.931622,175362.000,30243,2,ER,1,100,1.705994
1575568136.000541,175420.000,30262,1,ER,1,100,1.703899
1575568136.065895,175475.000,30279,2,ER,1,100,1.703697
1575568136.131250,175530.000,30279,2,ER,1,100,1.707524
1575568136.194228,175583.000,30297,2,ER,1,100,1.707121
1575568136.257206,175636.000,30297,2,ER,1,100,1.710908
1575568136.323154,175691.500,30315,2,ER,1,100,1.708250
1575568136.389103,175747.000,30315,2,ER,1,100,1.710667
1575568136.458022,175805.000,30333,2,ER,1,100,1.708612
1575568136.526941,175863.000,30333,2,ER,1,100,1.710304
1575568136.597049,175922.000,30349,2,ER,1,100,1.709297
1575568136.667156,175981.000,30349,2,ER,1,100,1.708813
1575568136.728352,176032.500,30367,2,ER,1,100,1.708370
1575568136.789547,176084.000,30367,2,ER,1,100,1.705953
1575568136.853714,176138.000,30385,1,ER,1,100,1.708129
1575568136.920851,176194.500,30404,2,ER,1,100,1.707363
1575568136.987987,176251.000,30404,2,ER,1,100,1.710707
1575568137.052153,176305.000,30422,2,ER,1,100,1.709700
1575568137.116320,176359.000,30422,2,ER,1,100,1.711955
1575568137.186427,176418.000,30440,2,ER,1,100,1.709700
1575568137.256535,176477.000,30440,2,ER,1,100,1.710707
1575568137.321889,176532.000,30458,1,ER,1,100,1.710948
1575568137.393779,176592.500,30475,2,ER,1,100,1.708652
1575568137.465669,176653.000,30475,2,ER,1,100,1.709538
1575568137.533994,176710.500,30493,2,ER,1,100,1.706074
1575568137.602319,176768.000,30493,2,ER,1,100,1.707524
1575568137.670644,176825.500,30509,2,ER,1,100,1.706840
1575568137.738969,176883.000,30509,2,ER,1,100,1.708894
1575568137.810265,176943.000,30527,1,ER,1,100,1.710304
1575568137.879184,177001.000,30546,2,ER,1,100,1.709418
1575568137.948104,177059.000,30546,2,ER,1,100,1.710143
1575568138.011676,177112.500,30564,2,ER,1,100,1.707524
1575568138.075248,177166.000,30564,2,ER,1,100,1.709216
1575568138.142385,177222.500,30582,2,ER,1,100,1.705712
1575568138.209522,177279.000,30582,2,ER,1,100,1.707283
1575568138.273093,177332.500,30600,2,ER,1,100,1.704946
1575568138.336666,177386.000,30600,2,ER,1,100,1.705188
1575568138.404397,177443.000,30618,1,ER,1,100,1.704423
1575568138.470939,177499.000,30635,2,ER,1,100,1.705349
1575568138.537482,177555.000,30635,2,ER,1,100,1.707645
1575568138.606995,177613.500,30653,2,ER,1,100,1.706719
1575568138.676509,177672.000,30653,2,ER,1,100,1.710344
1575568138.742457,177727.500,30671,2,ER,1,100,1.705027
1575568138.808406,177783.000,30671,2,ER,1,100,1.706558
1575568138.871978,177836.500,30687,2,ER,1,100,1.705591
1575568138.935550,177890.000,30687,2,ER,1,100,1.704946
1575568139.000905,177945.000,30706,2,ER,1,100,1.703536
1575568139.066259,178000.000,30706,2,ER,1,100,1.703496
1575568139.135178,178058.000,30724,1,ER,1,100,1.704664
1575568139.202909,178115.000,30742,2,ER,1,100,1.705228
1575568139.270640,178172.000,30742,2,ER,1,100,1.706920
1575568139.338371,178229.000,30760,2,ER,1,100,1.704100
1575568139.406102,178286.000,30760,2,ER,1,100,1.707081
1575568139.469080,178339.000,30781,3,ER,1,100,1.705067
1575568139.532058,178392.000,30781,3,ER,1,100,1.705913
1575568139.595036,178445.000,30781,3,ER,1,100,1.702368
1575568139.662767,178502.000,30801,2,ER,1,100,1.702932
1575568139.730498,178559.000,30801,2,ER,1,100,1.705148
1575568139.798229,178616.000,30819,1,ER,1,100,1.703979
1575568139.867148,178674.000,30838,2,ER,1,100,1.700032
1575568139.936067,178732.000,30838,2,ER,1,100,1.702408
1575568140.003204,178788.500,30856,2,ER,1,100,1.700354
1575568140.070341,178845.000,30856,2,ER,1,100,1.702489
1575568140.131536,178896.500,30874,2,ER,1,100,1.698863
1575568140.192732,178948.000,30874,2,ER,1,100,1.700797
1575568140.260463,179005.000,30892,2,ER,1,100,1.698380
1575568140.328194,179062.000,30892,2,ER,1,100,1.696084
1575568140.395925,179119.000,30910,1,ER,1,100,1.696688
1575568140.464250,179176.500,30927,2,ER,1,100,1.693909
1575568140.532575,179234.000,30927,2,ER,1,100,1.694835
1575568140.599712,179290.500,30945,2,ER,1,100,1.691774
1575568140.666849,179347.000,30945,2,ER,1,100,1.695399
1575568140.728639,179399.000,30963,2,ER,1,100,1.694352
1575568140.790428,179451.000,30963,2,ER,1,100,1.697292
1575568140.855783,179506.000,30979,2,ER,1,100,1.695117
1575568140.921137,179561.000,30979,2,ER,1,100,1.697011
1575568140.992433,179621.000,30998,1,ER,1,100,1.696165
1575568141.058976,179677.000,31016,2,ER,1,100,1.696044
1575568141.125518,179733.000,31016,2,ER,1,100,1.696608
1575568141.198002,179794.000,31034,2,ER,1,100,1.693546
1575568141.270486,179855.000,31034,2,ER,1,100,1.695198
1575568141.338811,179912.500,31052,2,ER,1,100,1.692942
1575568141.407137,179970.000,31052,2,ER,1,100,1.695278
1575568141.479621,180031.000,31070,1,ER,1,100,1.697574
1575568141.547946,180088.500,31087,2,ER,1,100,1.696890
1575568141.616271,180146.000,31087,2,ER,1,100,1.699186
1575568141.681625,180201.000,31105,2,ER,1,100,1.697373
1575568141.746980,180256.000,31105,2,ER,1,100,1.701160
1575568141.817681,180315.500,31121,2,ER,1,100,1.698340
1575568141.888383,180375.000,31121,2,ER,1,100,1.697816
1575568141.950767,180427.500,31140,2,ER,1,100,1.696527
1575568142.013151,180480.000,31140,2,ER,1,100,1.694835
1575568142.077317,180534.000,31158,1,ER,1,100,1.696406
1575568142.143860,180590.000,31176,2,ER,1,100,1.696728
1575568142.210402,180646.000,31176,2,ER,1,100,1.701522
1575568142.278133,180703.000,31194,2,ER,1,100,1.700072
1575568142.345864,180760.000,31194,2,ER,1,100,1.701965
1575568142.417160,180820.000,31212,2,ER,1,100,1.701119
1575568142.488456,180880.000,31212,2,ER,1,100,1.701240
1575568142.550840,180932.500,31230,2,ER,1,100,1.700354
1575568142.613223,180985.000,31230,2,ER,1,100,1.697856
1575568142.677390,181039.000,31248,1,ER,1,100,1.699387
1575568142.743338,181094.500,31265,2,ER,1,100,1.697011
1575568142.809287,181150.000,31265,2,ER,1,100,1.699025
1575568142.877612,181207.500,31283,2,ER,1,100,1.698138
1575568142.945937,181265.000,31283,2,ER,1,100,1.703496
1575568143.014856,181323.000,31300,2,ER,1,100,1.701280
1575568143.083776,181381.000,31300,2,ER,1,100,1.702852
1575568143.147942,181435.000,31318,2,ER,1,100,1.702650
1575568143.212108,181489.000,31318,2,ER,1,100,1.701482
1575568143.275680,181542.500,31336,2,ER,1,100,1.703496
1575568143.339252,181596.000,31336,2,ER,1,100,1.701280
1575568143.405795,181652.000,31354,1,ER,1,100,1.702570
1575568143.474714,181710.000,31372,2,ER,1,100,1.699830
1575568143.543633,181768.000,31372,2,ER,1,100,1.700716
1575568143.613741,181827.000,31390,2,ER,1,100,1.699750
1575568143.683848,181886.000,31390,2,ER,1,100,1.703375
1575568143.748608,181940.500,31408,2,ER,1,100,1.703496
1575568143.813369,181995.000,31408,2,ER,1,100,1.703536
1575568143.878723,182050.000,31426,1,ER,1,100,1.705067
1575568143.942889,182104.000,31445,2,ER,1,100,1.703013
1575568144.007056,182158.000,31445,2,ER,1,100,1.705027
1575568144.075381,182215.500,31462,2,ER,1,100,1.702086
1575568144.143706,182273.000,31462,2,ER,1,100,1.704020
1575568144.213219,182331.500,31480,2,ER,1,100,1.700716
1575568144.282732,182390.000,31480,2,ER,1,100,1.701764
1575568144.348087,182445.000,31496,2,ER,1,100,1.700072
1575568144.413441,182500.000,31496,2,ER,1,100,1.700596
1575568144.477608,182554.000,31514,1,ER,1,100,1.704382
1575568144.541180,182607.500,31532,2,ER,1,100,1.702287
1575568144.604752,182661.000,31532,2,ER,1,100,1.705510
1575568144.672483,182718.000,31550,2,ER,1,100,1.702006
1575568144.740214,182775.000,31550,2,ER,1,100,1.704221
1575568144.809727,182833.500,31568,2,ER,1,100,1.701885
1575568144.879241,182892.000,31568,2,ER,1,100,1.702328
1575568144.948160,182950.000,31587,2,ER,1,100,1.701482
1575568145.017079,183008.000,31587,2,ER,1,100,1.701603
1575568145.088375,183068.000,31605,1,ER,1,100,1.702610
1575568145.157888,183126.500,31622,2,ER,1,100,1.700233
1575568145.227401,183185.000,31622,2,ER,1,100,1.703133
1575568145.296321,183243.000,31640,2,ER,1,100,1.700837
1575568145.365240,183301.000,31640,2,ER,1,100,1.704020
1575568145.436536,183361.000,31656,1,ER,1,100,1.703859
1575568145.506247,183419.667,31677,3,ER,1,100,1.702247
1575568145.575959,183478.333,31677,3,ER,1,100,1.703375
1575568145.645670,183537.000,31677,3,ER,1,100,1.700515
1575568145.708648,183590.000,31697,2,ER,1,100,1.699669
1575568145.771626,183643.000,31697,2,ER,1,100,1.701804
1575568145.837574,183698.500,31715,2,ER,1,100,1.699508
1575568145.903523,183754.000,31715,2,ER,1,100,1.701603
1575568145.970660,183810.500,31732,2,ER,1,100,1.701522
1575568146.037797,183867.000,31732,2,ER,1,100,1.702932
1575568146.106716,183925.000,31750,1,ER,1,100,1.703979
1575568146.175041,183982.500,31768,2,ER,1,100,1.703133
1575568146.243366,184040.000,31768,2,ER,1,100,1.704302
1575568146.308126,184094.500,31786,2,ER,1,100,1.701845
1575568146.372887,184149.000,31786,2,ER,1,100,1.703496
1575568146.440618,184206.000,31804,2,ER,1,100,1.700394
1575568146.508349,184263.000,31804,2,ER,1,100,1.702247
1575568146.570733,184315.500,31822,2,ER,1,100,1.700435
1575568146.633116,184368.000,31822,2,ER,1,100,1.699951
1575568146.699065,184423.500,31840,2,ER,1,100,1.701321
1575568146.765014,184479.000,31840,2,ER,1,100,1.701683
1575568146.831556,184535.000,31858,1,ER,1,100,1.702892
1575568146.901070,184593.500,31876,2,ER,1,100,1.700958
1575568146.970583,184652.000,31876,2,ER,1,100,1.701804
1575568147.038908,184709.500,31894,2,ER,1,100,1.699669
1575568147.107233,184767.000,31894,2,ER,1,100,1.702811
1575568147.169617,184819.500,31910,2,ER,1,100,1.700193
1575568147.232001,184872.000,31910,2,ER,1,100,1.699025
1575568147.297950,184927.500,31928,2,ER,1,100,1.699025
1575568147.363898,184983.000,31928,2,ER,1,100,1.698058
1575568147.429252,185038.000,31946,1,ER,1,100,1.700555
1575568147.499360,185097.000,31964,2,ER,1,100,1.699548
1575568147.569468,185156.000,31964,2,ER,1,100,1.700676
1575568147.640169,185215.500,31982,2,ER,1,100,1.697736
1575568147.710871,185275.000,31982,2,ER,1,100,1.698863
1575568147.772066,185326.500,32000,2,ER,1,100,1.696688
1575568147.833262,185378.000,32000,2,ER,1,100,1.695641
1575568147.897428,185432.000,32018,2,ER,1,100,1.693546
1575568147.961594,185486.000,32018,2,ER,1,100,1.692660
1575568148.029325,185543.000,32037,1,ER,1,100,1.690767
1575568148.098244,185601.000,32054,2,ER,1,100,1.688229
1575568148.167164,185659.000,32054,2,ER,1,100,1.690887
1575568148.236677,185717.500,32072,2,ER,1,100,1.690767
1575568148.306190,185776.000,32072,2,ER,1,100,1.691492
1575568148.367980,185828.000,32088,2,ER,1,100,1.689880
1575568148.429770,185880.000,32088,2,ER,1,100,1.689719
1575568148.493342,185933.500,32106,2,ER,1,100,1.689478
1575568148.556914,185987.000,32106,2,ER,1,100,1.688470
1575568148.624645,186044.000,32124,1,ER,1,100,1.688873
1575568148.692970,186101.500,32142,2,ER,1,100,1.687383
1575568148.761295,186159.000,32142,2,ER,1,100,1.688672
1575568148.830808,186217.500,32160,2,ER,1,100,1.685771
1575568148.900322,186276.000,32160,2,ER,1,100,1.688591
1575568148.966865,186332.000,32179,2,ER,1,100,1.689276
1575568149.033407,186388.000,32179,2,ER,1,100,1.692056
1575568149.104703,186448.000,32197,1,ER,1,100,1.692056
1575568149.171840,186504.500,32214,2,ER,1,100,1.691854
1575568149.238977,186561.000,32214,2,ER,1,100,1.693546
1575568149.308490,186619.500,32232,2,ER,1,100,1.691451
1575568149.378004,186678.000,32232,2,ER,1,100,1.693989
1575568149.441576,186731.500,32248,2,ER,1,100,1.692338
1575568149.505148,186785.000,32248,2,ER,1,100,1.692781
1575568149.569314,186839.000,32266,2,ER,1,100,1.692378
1575568149.633480,186893.000,32266,2,ER,1,100,1.693304
1575568149.700617,186949.500,32284,2,ER,1,100,1.693224
1575568149.767754,187006.000,32284,2,ER,1,100,1.695198
1575568149.839050,187066.000,32302,1,ER,1,100,1.698219
1575568149.906186,187122.500,32320,2,ER,1,100,1.698340
1575568149.973323,187179.000,32320,2,ER,1,100,1.699508
1575568150.044619,187239.000,32339,2,ER,1,100,1.698662
1575568150.115915,187299.000,32339,2,ER,1,100,1.699145
1575568150.183646,187356.000,32357,1,ER,1,100,1.699669
1575568150.249000,187411.000,32375,2,ER,1,100,1.696406
1575568150.314355,187466.000,32375,2,ER,1,100,1.697413
1575568150.377332,187519.000,32392,2,ER,1,100,1.695520
1575568150.440310,187572.000,32392,2,ER,1,100,1.699105
1575568150.508041,187629.000,32410,2,ER,1,100,1.699226
1575568150.575772,187686.000,32410,2,ER,1,100,1.702408
1575568150.643503,187743.000,32428,2,ER,1,100,1.701482
1575568150.711234,187800.000,32428,2,ER,1,100,1.703939
1575568150.781342,187859.000,32444,1,ER,1,100,1.703416
1575568150.847291,187914.500,32462,2,ER,1,100,1.702771
1575568150.913239,187970.000,32462,2,ER,1,100,1.703939
1575568150.975623,188022.500,32481,2,ER,1,100,1.700153
1575568151.038007,188075.000,32481,2,ER,1,100,1.701683
1575568151.105144,188131.500,32499,2,ER,1,100,1.699186
1575568151.172280,188188.000,32499,2,ER,1,100,1.700475
1575568151.241794,188246.500,32517,2,ER,1,100,1.699387
1575568151.311307,188305.000,32517,2,ER,1,100,1.703939
1575568151.379632,188362.500,32535,2,ER,1,100,1.703979
1575568151.447957,188420.000,32535,2,ER,1,100,1.704584
1575568151.514500,188476.000,32553,1,ER,1,100,1.704141
1575568151.577874,188529.333,32573,3,ER,1,100,1.702932
1575568151.641248,188582.667,32573,3,ER,1,100,1.703899
1575568151.704622,188636.000,32573,3,ER,1,100,1.702006
1575568151.771165,188692.000,32593,2,ER,1,100,1.701200
1575568151.837708,188748.000,32593,2,ER,1,100,1.701603
1575568151.906627,188806.000,32611,2,ER,1,100,1.700233
1575568151.975546,188864.000,32611,2,ER,1,100,1.701804
1575568152.043871,188921.500,32630,2,ER,1,100,1.702167
1575568152.112196,188979.000,32630,2,ER,1,100,1.702771
1575568152.173986,189031.000,32648,2,ER,1,100,1.704181
1575568152.235775,189083.000,32648,2,ER,1,100,1.703416
1575568152.301130,189138.000,32666,1,ER,1,100,1.705027
1575568152.367079,189193.500,32683,2,ER,1,100,1.703697
1575568152.433027,189249.000,32683,2,ER,1,100,1.705228
1575568152.501946,189307.000,32701,2,ER,1,100,1.701885
1575568152.570866,189365.000,32701,2,ER,1,100,1.703818
1575568152.640379,189423.500,32717,2,ER,1,100,1.701200
1575568152.709892,189482.000,32717,2,ER,1,100,1.700676
1575568152.770494,189533.000,32735,1,ER,1,100,1.702610
1575568152.840007,189591.500,32753,2,ER,1,100,1.703013
1575568152.909521,189650.000,32753,2,ER,1,100,1.704342
1575568152.973687,189704.000,32772,2,ER,1,100,1.702408
1575568153.037853,189758.000,32772,2,ER,1,100,1.704382
1575568153.103801,189813.500,32790,2,ER,1,100,1.701965
1575568153.169750,189869.000,32790,2,ER,1,100,1.703818
1575568153.233322,189922.500,32808,2,ER,1,100,1.700475
1575568153.296894,189976.000,32808,2,ER,1,100,1.700837
1575568153.365219,190033.500,32826,2,ER,1,100,1.699629
1575568153.433544,190091.000,32826,2,ER,1,100,1.701845
1575568153.497711,190145.000,32844,1,ER,1,100,1.703174
1575568153.563659,190200.500,32861,2,ER,1,100,1.701482
1575568153.629608,190256.000,32861,2,ER,1,100,1.702932
1575568153.697339,190313.000,32879,2,ER,1,100,1.700878
1575568153.765070,190370.000,32879,2,ER,1,100,1.704302
1575568153.836365,190430.000,32895,2,ER,1,100,1.700999
1575568153.907661,190490.000,32895,2,ER,1,100,1.701563
1575568153.971828,190544.000,32914,2,ER,1,100,1.700153
1575568154.035994,190598.000,32914,2,ER,1,100,1.699307
1575568154.100160,190652.000,32932,1,ER,1,100,1.700314
1575568154.164326,190706.000,32950,2,ER,1,100,1.698823
1575568154.228492,190760.000,32950,2,ER,1,100,1.702690
1575568154.297411,190818.000,32968,2,ER,1,100,1.700757
1575568154.366331,190876.000,32968,2,ER,1,100,1.702489
1575568154.434656,190933.500,32986,2,ER,1,100,1.700475
1575568154.502981,190991.000,32986,2,ER,1,100,1.701401
1575568154.568929,191046.500,33004,2,ER,1,100,1.701160
1575568154.634878,191102.000,33004,2,ER,1,100,1.699629
1575568154.697856,191155.000,33022,1,ER,1,100,1.700515
1575568154.763211,191210.000,33039,2,ER,1,100,1.698300
1575568154.828565,191265.000,33039,2,ER,1,100,1.700636
1575568154.896890,191322.500,33057,2,ER,1,100,1.698823
1575568154.965215,191380.000,33057,2,ER,1,100,1.701240
1575568155.034729,191438.500,33074,2,ER,1,100,1.700273
1575568155.104242,191497.000,33074,2,ER,1,100,1.702449
1575568155.170191,191552.500,33092,2,ER,1,100,1.700757
1575568155.236139,191608.000,33092,2,ER,1,100,1.699387
1575568155.301494,191663.000,33110,1,ER,1,100,1.699911
1575568155.364471,191716.000,33128,2,ER,1,100,1.698058
1575568155.427449,191769.000,33128,2,ER,1,100,1.700354
1575568155.495775,191826.500,33146,2,ER,1,100,1.696124
1575568155.564100,191884.000,33146,2,ER,1,100,1.699065
1575568155.633613,191942.500,33164,2,ER,1,100,1.697333
1575568155.703126,192001.000,33164,2,ER,1,100,1.700435
1575568155.770857,192058.000,33182,1,ER,1,100,1.700475
1575568155.836212,192113.000,33200,2,ER,1,100,1.698863
1575568155.901566,192168.000,33200,2,ER,1,100,1.700918
1575568155.963356,192220.000,33218,2,ER,1,100,1.698904
1575568156.025146,192272.000,33218,2,ER,1,100,1.700596
1575568156.092283,192328.500,33236,2,ER,1,100,1.697373
1575568156.159419,192385.000,33236,2,ER,1,100,1.699266
1575568156.228933,192443.500,33254,2,ER,1,100,1.696446
1575568156.298446,192502.000,33254,2,ER,1,100,1.697897
1575568156.367959,192560.500,33270,2,ER,1,100,1.698219
1575568156.437473,192619.000,33270,2,ER,1,100,1.699266
1575568156.499263,192671.000,33288,1,ER,1,100,1.699629
1575568156.564617,192726.000,33306,2,ER,1,100,1.699186
1575568156.629971,192781.000,33306,2,ER,1,100,1.700757
1575568156.693543,192834.500,33324,2,ER,1,100,1.698783
1575568156.757116,192888.000,33324,2,ER,1,100,1.700435
1575568156.823658,192944.000,33342,2,ER,1,100,1.698340
1575568156.890201,193000.000,33342,2,ER,1,100,1.698863
1575568156.955555,193055.000,33361,2,ER,1,100,1.697333
1575568157.020910,193110.000,33361,2,ER,1,100,1.698259
1575568157.084482,193163.500,33379,2,ER,1,100,1.697413
1575568157.148054,193217.000,33379,2,ER,1,100,1.699145
1575568157.212814,193271.500,33397,2,ER,1,100,1.701321
1575568157.277575,193326.000,33397,2,ER,1,100,1.698944
1575568157.341741,193380.000,33415,1,ER,1,100,1.700757
1575568157.411848,193439.000,33432,2,ER,1,100,1.698984
1575568157.481956,193498.000,33432,2,ER,1,100,1.700475
1575568157.550281,193555.500,33450,2,ER,1,100,1.698219
1575568157.618606,193613.000,33450,2,ER,1,100,1.701401
1575568157.683960,193668.000,33469,3,ER,1,100,1.699307
1575568157.749315,193723.000,33469,3,ER,1,100,1.696930
1575568157.814669,193778.000,33469,3,ER,1,100,1.695117
1575568157.879430,193832.500,33489,2,ER,1,100,1.696487
1575568157.944190,193887.000,33489,2,ER,1,100,1.698662
1575568158.011921,193944.000,33508,1,ER,1,100,1.697816
1575568158.077870,193999.500,33525,2,ER,1,100,1.695319
1575568158.143818,194055.000,33525,2,ER,1,100,1.695560
1575568158.211549,194112.000,33543,2,ER,1,100,1.691935
1575568158.279280,194169.000,33543,2,ER,1,100,1.692177
1575568158.346417,194225.500,33559,2,ER,1,100,1.688793
1575568158.413554,194282.000,33559,2,ER,1,100,1.686376
1575568158.486038,194343.000,33577,1,ER,1,100,1.683193
1575568158.547827,194395.000,33595,2,ER,1,100,1.680817
1575568158.609617,194447.000,33595,2,ER,1,100,1.679125
1575568158.674377,194501.500,33613,2,ER,1,100,1.674935
1575568158.739138,194556.000,33613,2,ER,1,100,1.673727
1575568158.806275,194612.500,33631,2,ER,1,100,1.666637
1575568158.873412,194669.000,33631,2,ER,1,100,1.662810
1575568158.941737,194726.500,33650,2,ER,1,100,1.652256
1575568159.010062,194784.000,33650,2,ER,1,100,1.652095
1575568159.078387,194841.500,33668,2,ER,1,100,1.644884
1575568159.146712,194899.000,33668,2,ER,1,100,1.635820
1575568159.208502,194951.000,33686,1,ER,1,100,1.631591
1575568159.272668,195005.000,33703,2,ER,1,100,1.624380
1575568159.336834,195059.000,33703,2,ER,1,100,1.624299
1575568159.405753,195117.000,33721,2,ER,1,100,1.619183
1575568159.474673,195175.000,33721,2,ER,1,100,1.618015
1575568159.541809,195231.500,33739,2,ER,1,100,1.613101
1575568159.608946,195288.000,33739,2,ER,1,100,1.611529
1575568159.677866,195346.000,33755,2,ER,1,100,1.609959
1575568159.746785,195404.000,33755,2,ER,1,100,1.606977
1575568159.806198,195454.000,33773,1,ER,1,100,1.606172
1575568159.869770,195507.500,33792,2,ER,1,100,1.603876
1575568159.933342,195561.000,33792,2,ER,1,100,1.605930
1575568160.001073,195618.000,33810,2,ER,1,100,1.607098
1575568160.068804,195675.000,33810,2,ER,1,100,1.613181
1575568160.135941,195731.500,33828,2,ER,1,100,1.615155
1575568160.203078,195788.000,33828,2,ER,1,100,1.620513
1575568160.272591,195846.500,33846,2,ER,1,100,1.621923
1575568160.342104,195905.000,33846,2,ER,1,100,1.624299
1575568160.405082,195958.000,33864,1,ER,1,100,1.627764
1575568160.468654,196011.500,33881,2,ER,1,100,1.628730
1575568160.532226,196065.000,33881,2,ER,1,100,1.634451
1575568160.596987,196119.500,33899,2,ER,1,100,1.634048
1575568160.661747,196174.000,33899,2,ER,1,100,1.640292
1575568160.725319,196227.500,33917,2,ER,1,100,1.644199
1575568160.788891,196281.000,33917,2,ER,1,100,1.652216
1575568160.852463,196334.500,33935,2,ER,1,100,1.654351
1575568160.916035,196388.000,33935,2,ER,1,100,1.661078
1575568160.982578,196444.000,33953,2,ER,1,100,1.660917
1575568161.049121,196500.000,33953,2,ER,1,100,1.666718
1575568161.116852,196557.000,33970,2,ER,1,100,1.668611
1575568161.184583,196614.000,33970,2,ER,1,100,1.670947
1575568161.253502,196672.000,33988,1,ER,1,100,1.674613
1575568161.323609,196731.000,34006,2,ER,1,100,1.675298
1575568161.393717,196790.000,34006,2,ER,1,100,1.680615
1575568161.462042,196847.500,34024,2,ER,1,100,1.683395
1575568161.530367,196905.000,34024,2,ER,1,100,1.688551
1575568161.597504,196961.500,34042,2,ER,1,100,1.689800
1575568161.664641,197018.000,34042,2,ER,1,100,1.691411
1575568161.726430,197070.000,34060,1,ER,1,100,1.694916
1575568161.791785,197125.000,34077,2,ER,1,100,1.694956
1575568161.857139,197180.000,34077,2,ER,1,100,1.700273
1575568161.924870,197237.000,34096,2,ER,1,100,1.698662
1575568161.992601,197294.000,34096,2,ER,1,100,1.701401
1575568162.061521,197352.000,34114,2,ER,1,100,1.699991
1575568162.130440,197410.000,34114,2,ER,1,100,1.705832
1575568162.196983,197466.000,34130,2,ER,1,100,1.707404
1575568162.263525,197522.000,34130,2,ER,1,100,1.708693
1575568162.326503,197575.000,34148,1,ER,1,100,1.711351
1575568162.390669,197629.000,34166,2,ER,1,100,1.710143
1575568162.454836,197683.000,34166,2,ER,1,100,1.712681
1575568162.521972,197739.500,34184,2,ER,1,100,1.711472
1575568162.589109,197796.000,34184,2,ER,1,100,1.713084
1575568162.657434,197853.500,34202,2,ER,1,100,1.711190
1575568162.725760,197911.000,34202,2,ER,1,100,1.713245
1575568162.795273,197969.500,34220,2,ER,1,100,1.712922
1575568162.864786,198028.000,34220,2,ER,1,100,1.715903
1575568162.926576,198080.000,34239,2,ER,1,100,1.718079
1575568162.988366,198132.000,34239,2,ER,1,100,1.716910
1575568163.054908,198188.000,34257,1,ER,1,100,1.718401
1575568163.121451,198244.000,34274,2,ER,1,100,1.716467
1575568163.187994,198300.000,34274,2,ER,1,100,1.717837
1575568163.257507,198358.500,34292,2,ER,1,100,1.715541
1575568163.327020,198417.000,34292,2,ER,1,100,1.716870
1575568163.397128,198476.000,34308,2,ER,1,100,1.715460
1575568163.467236,198535.000,34308,2,ER,1,100,1.714010
1575568163.527837,198586.000,34326,2,ER,1,100,1.714695
1575568163.588438,198637.000,34326,2,ER,1,100,1.714211
1575568163.652605,198691.000,34344,1,ER,1,100,1.717595
1575568163.720731,198748.333,34365,3,ER,1,100,1.715379
1575568163.788859,198805.667,34365,3,ER,1,100,1.716387
