EpochTimestamp,EmotiBitTimestamp,PacketNumber,DataLength,TypeTag,ProtocolVersion,DataReliability,MZ
1575568678.762161,32555.000,5144,10,MZ,1,100,30
1575568678.762161,32555.000,5144,10,MZ,1,100,30
1575568678.762161,32555.000,5144,10,MZ,1,100,30
1575568678.762161,32555.000,5144,10,MZ,1,100,31
1575568678.762161,32555.000,5144,10,MZ,1,100,30
1575568678.762161,32555.000,5144,10,MZ,1,100,30
1575568678.762161,32555.000,5144,10,MZ,1,100,29
1575568678.762161,32555.000,5144,10,MZ,1,100,30
1575568678.762161,32555.000,5144,10,MZ,1,100,29
1575568678.762161,32555.000,5144,10,MZ,1,100,30
1575568678.800819,32587.500,5161,2,MZ,1,100,30
1575568678.839477,32620.000,5161,2,MZ,1,100,30
1575568678.877540,32652.000,5180,4,MZ,1,100,31
1575568678.915604,32684.000,5180,4,MZ,1,100,31
1575568678.953667,32716.000,5180,4,MZ,1,100,29
1575568678.991730,32748.000,5180,4,MZ,1,100,30
1575568679.032569,32782.333,5196,3,MZ,1,100,31
1575568679.073408,32816.667,5196,3,MZ,1,100,29
1575568679.114247,32851.000,5196,3,MZ,1,100,30
1575568679.155086,32885.333,5214,3,MZ,1,100,30
1575568679.195925,32919.667,5214,3,MZ,1,100,30
1575568679.236763,32954.000,5214,3,MZ,1,100,30
1575568679.278395,32989.000,5232,3,MZ,1,100,30
1575568679.320027,33024.000,5232,3,MZ,1,100,29
1575568679.361659,33059.000,5232,3,MZ,1,100,30
1575568679.401705,33092.667,5250,3,MZ,1,100,30
1575568679.441751,33126.333,5250,3,MZ,1,100,29
1575568679.481797,33160.000,5250,3,MZ,1,100,30
1575568679.524618,33196.000,5268,2,MZ,1,100,32
1575568679.567439,33232.000,5268,2,MZ,1,100,30
1575568679.606692,33265.000,5286,4,MZ,1,100,31
1575568679.645945,33298.000,5286,4,MZ,1,100,30
1575568679.685198,33331.000,5286,4,MZ,1,100,29
1575568679.724451,33364.000,5286,4,MZ,1,100,30
1575568679.766677,33399.500,5304,2,MZ,1,100,30
1575568679.808904,33435.000,5304,2,MZ,1,100,30
1575568679.849346,33469.000,5322,3,MZ,1,100,29
1575568679.889789,33503.000,5322,3,MZ,1,100,29
1575568679.930231,33537.000,5322,3,MZ,1,100,30
1575568679.971863,33572.000,5340,3,MZ,1,100,30
1575568680.013495,33607.000,5340,3,MZ,1,100,28
1575568680.055126,33642.000,5340,3,MZ,1,100,30
1575568680.092397,33673.333,5358,3,MZ,1,100,30
1575568680.129667,33704.667,5358,3,MZ,1,100,30
1575568680.166938,33736.000,5358,3,MZ,1,100,29
1575568680.205596,33768.500,5375,4,MZ,1,100,29
1575568680.244254,33801.000,5375,4,MZ,1,100,29
1575568680.282912,33833.500,5375,4,MZ,1,100,29
1575568680.321570,33866.000,5375,4,MZ,1,100,29
1575568680.369149,33906.000,5392,2,MZ,1,100,31
1575568680.416729,33946.000,5392,2,MZ,1,100,29
1575568680.457567,33980.333,5410,3,MZ,1,100,30
1575568680.498406,34014.667,5410,3,MZ,1,100,30
1575568680.539245,34049.000,5410,3,MZ,1,100,30
1575568680.580877,34084.000,5428,3,MZ,1,100,30
1575568680.622509,34119.000,5428,3,MZ,1,100,30
1575568680.664141,34154.000,5428,3,MZ,1,100,29
1575568680.701808,34185.667,5446,3,MZ,1,100,30
1575568680.739475,34217.333,5446,3,MZ,1,100,29
1575568680.777142,34249.000,5446,3,MZ,1,100,30
1575568680.815998,34281.667,5464,3,MZ,1,100,30
1575568680.854854,34314.333,5464,3,MZ,1,100,30
1575568680.893711,34347.000,5464,3,MZ,1,100,30
1575568680.934946,34381.667,5483,3,MZ,1,100,30
1575568680.976181,34416.333,5483,3,MZ,1,100,31
1575568681.017417,34451.000,5483,3,MZ,1,100,29
1575568681.058255,34485.333,5501,3,MZ,1,100,30
1575568681.099094,34519.667,5501,3,MZ,1,100,30
1575568681.139933,34554.000,5501,3,MZ,1,100,29
1575568681.181169,34588.667,5518,3,MZ,1,100,30
1575568681.222404,34623.333,5518,3,MZ,1,100,30
1575568681.263639,34658.000,5518,3,MZ,1,100,30
1575568681.304081,34692.000,5536,3,MZ,1,100,30
1575568681.344524,34726.000,5536,3,MZ,1,100,30
1575568681.384966,34760.000,5536,3,MZ,1,100,30
1575568681.423823,34792.667,5554,3,MZ,1,100,30
1575568681.462679,34825.333,5554,3,MZ,1,100,30
1575568681.501535,34858.000,5554,3,MZ,1,100,30
1575568681.541185,34891.333,5570,3,MZ,1,100,30
1575568681.580834,34924.667,5570,3,MZ,1,100,29
1575568681.620483,34958.000,5570,3,MZ,1,100,29
1575568681.662512,34993.333,5588,3,MZ,1,100,30
1575568681.704540,35028.667,5588,3,MZ,1,100,29
1575568681.746568,35064.000,5588,3,MZ,1,100,30
1575568681.787804,35098.667,5606,3,MZ,1,100,29
1575568681.829039,35133.333,5606,3,MZ,1,100,31
1575568681.870275,35168.000,5606,3,MZ,1,100,30
1575568681.907941,35199.667,5625,3,MZ,1,100,29
1575568681.945608,35231.333,5625,3,MZ,1,100,30
1575568681.983275,35263.000,5625,3,MZ,1,100,30
1575568682.021735,35295.333,5643,3,MZ,1,100,30
1575568682.060195,35327.667,5643,3,MZ,1,100,30
1575568682.098655,35360.000,5643,3,MZ,1,100,31
1575568682.141476,35396.000,5661,3,MZ,1,100,30
1575568682.184298,35432.000,5661,3,MZ,1,100,30
1575568682.227119,35468.000,5661,3,MZ,1,100,30
1575568682.268354,35502.667,5679,3,MZ,1,100,30
1575568682.309589,35537.333,5679,3,MZ,1,100,30
1575568682.350825,35572.000,5679,3,MZ,1,100,31
1575568682.392457,35607.000,5696,3,MZ,1,100,31
1575568682.434088,35642.000,5696,3,MZ,1,100,30
1575568682.475720,35677.000,5696,3,MZ,1,100,30
1575568682.515370,35710.333,5714,3,MZ,1,100,30
1575568682.555019,35743.667,5714,3,MZ,1,100,31
1575568682.594668,35777.000,5714,3,MZ,1,100,30
1575568682.633128,35809.333,5732,3,MZ,1,100,31
1575568682.671588,35841.667,5732,3,MZ,1,100,30
1575568682.710048,35874.000,5732,3,MZ,1,100,30
1575568682.748508,35906.333,5748,3,MZ,1,100,30
1575568682.786968,35938.667,5748,3,MZ,1,100,30
1575568682.825428,35971.000,5748,3,MZ,1,100,30
1575568682.866663,36005.667,5767,3,MZ,1,100,30
1575568682.907898,36040.333,5767,3,MZ,1,100,31
1575568682.949134,36075.000,5767,3,MZ,1,100,30
1575568682.994334,36113.000,5785,3,MZ,1,100,30
1575568683.039534,36151.000,5785,3,MZ,1,100,30
1575568683.084735,36189.000,5785,3,MZ,1,100,29
1575568683.126366,36224.000,5803,2,MZ,1,100,29
1575568683.167998,36259.000,5803,2,MZ,1,100,30
1575568683.205764,36290.750,5821,4,MZ,1,100,28
1575568683.243530,36322.500,5821,4,MZ,1,100,30
1575568683.281296,36354.250,5821,4,MZ,1,100,30
1575568683.319062,36386.000,5821,4,MZ,1,100,30
1575568683.358712,36419.333,5839,3,MZ,1,100,30
1575568683.398361,36452.667,5839,3,MZ,1,100,30
1575568683.438010,36486.000,5839,3,MZ,1,100,29
1575568683.478453,36520.000,5857,3,MZ,1,100,30
1575568683.518895,36554.000,5857,3,MZ,1,100,28
1575568683.559338,36588.000,5857,3,MZ,1,100,28
1575568683.599780,36622.000,5874,3,MZ,1,100,24
1575568683.640222,36656.000,5874,3,MZ,1,100,21
1575568683.680665,36690.000,5874,3,MZ,1,100,17
1575568683.721900,36724.667,5892,3,MZ,1,100,15
1575568683.763135,36759.333,5892,3,MZ,1,100,12
1575568683.804371,36794.000,5892,3,MZ,1,100,12
1575568683.845606,36828.667,5910,3,MZ,1,100,12
1575568683.886841,36863.333,5910,3,MZ,1,100,10
1575568683.928077,36898.000,5910,3,MZ,1,100, 9
1575568683.967330,36931.000,5927,3,MZ,1,100, 8
1575568684.006582,36964.000,5927,3,MZ,1,100, 6
1575568684.045835,36997.000,5927,3,MZ,1,100, 6
1575568684.086674,37031.333,5945,3,MZ,1,100, 4
1575568684.127513,37065.667,5945,3,MZ,1,100, 5
1575568684.168352,37100.000,5945,3,MZ,1,100, 5
1575568684.209984,37135.000,5963,2,MZ,1,100, 4
1575568684.251616,37170.000,5963,2,MZ,1,100, 4
1575568684.293247,37205.000,5981,3,MZ,1,100, 5
1575568684.334879,37240.000,5981,3,MZ,1,100, 4
1575568684.376511,37275.000,5981,3,MZ,1,100, 3
1575568684.414872,37307.250,5999,4,MZ,1,100, 3
1575568684.453233,37339.500,5999,4,MZ,1,100, 2
1575568684.491593,37371.750,5999,4,MZ,1,100, 1
1575568684.529954,37404.000,5999,4,MZ,1,100, 2
1575568684.568810,37436.667,6017,3,MZ,1,100,-1
1575568684.607667,37469.333,6017,3,MZ,1,100,-2
1575568684.646523,37502.000,6017,3,MZ,1,100,-3
1575568684.687858,37536.750,6038,4,MZ,1,100,-4
1575568684.729192,37571.500,6038,4,MZ,1,100,-4
1575568684.770527,37606.250,6038,4,MZ,1,100,-3
1575568684.811861,37641.000,6038,4,MZ,1,100,-0
1575568684.856665,37678.667,6059,3,MZ,1,100,-1
1575568684.901469,37716.333,6059,3,MZ,1,100,-2
1575568684.946272,37754.000,6059,3,MZ,1,100,-1
1575568684.985922,37787.333,6077,3,MZ,1,100,-1
1575568685.025571,37820.667,6077,3,MZ,1,100,-1
1575568685.065220,37854.000,6077,3,MZ,1,100, 0
1575568685.102094,37885.000,6095,3,MZ,1,100, 1
1575568685.138968,37916.000,6095,3,MZ,1,100,-1
1575568685.175842,37947.000,6095,3,MZ,1,100,-3
1575568685.215888,37980.667,6113,3,MZ,1,100,-5
1575568685.255934,38014.333,6113,3,MZ,1,100,-6
1575568685.295980,38048.000,6113,3,MZ,1,100,-6
1575568685.336422,38082.000,6131,3,MZ,1,100,-4
1575568685.376864,38116.000,6131,3,MZ,1,100,-2
1575568685.417307,38150.000,6131,3,MZ,1,100,-2
1575568685.458542,38184.667,6149,3,MZ,1,100,-2
1575568685.499778,38219.333,6149,3,MZ,1,100,-2
1575568685.541013,38254.000,6149,3,MZ,1,100,-1
1575568685.585420,38291.333,6166,3,MZ,1,100,-2
1575568685.629827,38328.667,6166,3,MZ,1,100,-2
1575568685.674235,38366.000,6166,3,MZ,1,100,-2
1575568685.711902,38397.667,6184,3,MZ,1,100, 1
1575568685.749568,38429.333,6184,3,MZ,1,100, 1
1575568685.787235,38461.000,6184,3,MZ,1,100, 0
1575568685.826885,38494.333,6203,3,MZ,1,100,-4
1575568685.866534,38527.667,6203,3,MZ,1,100,-4
1575568685.906183,38561.000,6203,3,MZ,1,100,-3
1575568685.946229,38594.667,6219,3,MZ,1,100,-3
1575568685.986275,38628.333,6219,3,MZ,1,100, 0
1575568686.026321,38662.000,6219,3,MZ,1,100, 0
1575568686.067556,38696.667,6237,3,MZ,1,100, 1
1575568686.108792,38731.333,6237,3,MZ,1,100, 1
1575568686.150027,38766.000,6237,3,MZ,1,100, 2
1575568686.192055,38801.333,6255,3,MZ,1,100, 3
1575568686.234084,38836.667,6255,3,MZ,1,100, 6
1575568686.276112,38872.000,6255,3,MZ,1,100, 9
1575568686.313779,38903.667,6273,3,MZ,1,100,12
1575568686.351446,38935.333,6273,3,MZ,1,100,16
1575568686.389113,38967.000,6273,3,MZ,1,100,18
1575568686.427969,38999.667,6291,3,MZ,1,100,23
1575568686.466825,39032.333,6291,3,MZ,1,100,26
1575568686.505682,39065.000,6291,3,MZ,1,100,28
1575568686.549296,39101.667,6309,3,MZ,1,100,29
1575568686.592911,39138.333,6309,3,MZ,1,100,30
1575568686.636525,39175.000,6309,3,MZ,1,100,32
1575568686.677364,39209.333,6327,3,MZ,1,100,32
1575568686.718203,39243.667,6327,3,MZ,1,100,32
1575568686.759041,39278.000,6327,3,MZ,1,100,33
1575568686.800673,39313.000,6344,2,MZ,1,100,31
1575568686.842305,39348.000,6344,2,MZ,1,100,31
1575568686.881558,39381.000,6363,4,MZ,1,100,34
1575568686.920811,39414.000,6363,4,MZ,1,100,31
1575568686.960064,39447.000,6363,4,MZ,1,100,32
1575568686.999317,39480.000,6363,4,MZ,1,100,32
1575568687.036983,39511.667,6381,3,MZ,1,100,30
1575568687.074650,39543.333,6381,3,MZ,1,100,32
1575568687.112317,39575.000,6381,3,MZ,1,100,32
1575568687.152363,39608.667,6397,3,MZ,1,100,31
1575568687.192409,39642.333,6397,3,MZ,1,100,32
1575568687.232455,39676.000,6397,3,MZ,1,100,31
1575568687.272897,39710.000,6415,2,MZ,1,100,33
1575568687.313339,39744.000,6415,2,MZ,1,100,32
1575568687.358540,39782.000,6433,3,MZ,1,100,32
1575568687.403740,39820.000,6433,3,MZ,1,100,32
1575568687.448941,39858.000,6433,3,MZ,1,100,32
1575568687.489383,39892.000,6451,3,MZ,1,100,32
1575568687.529825,39926.000,6451,3,MZ,1,100,31
1575568687.570267,39960.000,6451,3,MZ,1,100,30
1575568687.608033,39991.750,6469,4,MZ,1,100,30
1575568687.645799,40023.500,6469,4,MZ,1,100,30
1575568687.683566,40055.250,6469,4,MZ,1,100,32
1575568687.721332,40087.000,6469,4,MZ,1,100,31
1575568687.761377,40120.667,6487,3,MZ,1,100,31
1575568687.801423,40154.333,6487,3,MZ,1,100,31
1575568687.841469,40188.000,6487,3,MZ,1,100,30
1575568687.883101,40223.000,6506,2,MZ,1,100,30
1575568687.924733,40258.000,6506,2,MZ,1,100,30
1575568687.965968,40292.667,6523,3,MZ,1,100,30
1575568688.007204,40327.333,6523,3,MZ,1,100,29
1575568688.048439,40362.000,6523,3,MZ,1,100,30
1575568688.090071,40397.000,6541,3,MZ,1,100,30
1575568688.131702,40432.000,6541,3,MZ,1,100,31
1575568688.173334,40467.000,6541,3,MZ,1,100,30
1575568688.214570,40501.667,6559,3,MZ,1,100,30
1575568688.255805,40536.333,6559,3,MZ,1,100,30
1575568688.297040,40571.000,6559,3,MZ,1,100,29
1575568688.335104,40603.000,6575,3,MZ,1,100,30
1575568688.373167,40635.000,6575,3,MZ,1,100,30
1575568688.411231,40667.000,6575,3,MZ,1,100,29
1575568688.452862,40702.000,6593,3,MZ,1,100,29
1575568688.494494,40737.000,6593,3,MZ,1,100,28
1575568688.536126,40772.000,6593,3,MZ,1,100,29
1575568688.576965,40806.333,6611,3,MZ,1,100,28
1575568688.617804,40840.667,6611,3,MZ,1,100,30
1575568688.658643,40875.000,6611,3,MZ,1,100,28
1575568688.699085,40909.000,6629,3,MZ,1,100,29
1575568688.739527,40943.000,6629,3,MZ,1,100,29
1575568688.779970,40977.000,6629,3,MZ,1,100,31
1575568688.818033,41009.000,6647,3,MZ,1,100,30
1575568688.856097,41041.000,6647,3,MZ,1,100,29
1575568688.894160,41073.000,6647,3,MZ,1,100,30
1575568688.931827,41104.667,6666,3,MZ,1,100,29
1575568688.969494,41136.333,6666,3,MZ,1,100,29
1575568689.007160,41168.000,6666,3,MZ,1,100,29
1575568689.049189,41203.333,6684,3,MZ,1,100,30
1575568689.091217,41238.667,6684,3,MZ,1,100,30
1575568689.133245,41274.000,6684,3,MZ,1,100,30
1575568689.172102,41306.667,6702,3,MZ,1,100,30
1575568689.210958,41339.333,6702,3,MZ,1,100,30
1575568689.249815,41372.000,6702,3,MZ,1,100,30
1575568689.295015,41410.000,6719,3,MZ,1,100,30
1575568689.340215,41448.000,6719,3,MZ,1,100,30
1575568689.385416,41486.000,6719,3,MZ,1,100,30
1575568689.426651,41520.667,6737,3,MZ,1,100,29
1575568689.467886,41555.333,6737,3,MZ,1,100,30
1575568689.509121,41590.000,6737,3,MZ,1,100,30
1575568689.550357,41624.667,6753,3,MZ,1,100,29
1575568689.591592,41659.333,6753,3,MZ,1,100,30
1575568689.632828,41694.000,6753,3,MZ,1,100,30
1575568689.670494,41725.667,6771,3,MZ,1,100,30
1575568689.708161,41757.333,6771,3,MZ,1,100,30
1575568689.745828,41789.000,6771,3,MZ,1,100,28
1575568689.784685,41821.667,6789,3,MZ,1,100,29
1575568689.823541,41854.333,6789,3,MZ,1,100,30
1575568689.862397,41887.000,6789,3,MZ,1,100,29
1575568689.903633,41921.667,6808,3,MZ,1,100,27
1575568689.944868,41956.333,6808,3,MZ,1,100,28
1575568689.986103,41991.000,6808,3,MZ,1,100,28
1575568690.027339,42025.667,6826,3,MZ,1,100,28
1575568690.068574,42060.333,6826,3,MZ,1,100,28
1575568690.109809,42095.000,6826,3,MZ,1,100,28
1575568690.151441,42130.000,6844,2,MZ,1,100,27
1575568690.193073,42165.000,6844,2,MZ,1,100,28
1575568690.234407,42199.750,6862,4,MZ,1,100,28
1575568690.275742,42234.500,6862,4,MZ,1,100,28
1575568690.317076,42269.250,6862,4,MZ,1,100,28
1575568690.358411,42304.000,6862,4,MZ,1,100,28
1575568690.396871,42336.333,6880,3,MZ,1,100,28
1575568690.435331,42368.667,6880,3,MZ,1,100,29
1575568690.473791,42401.000,6880,3,MZ,1,100,29
1575568690.514629,42435.333,6897,3,MZ,1,100,28
1575568690.555468,42469.667,6897,3,MZ,1,100,29
1575568690.596307,42504.000,6897,3,MZ,1,100,28
1575568690.636353,42537.667,6915,3,MZ,1,100,28
1575568690.676399,42571.333,6915,3,MZ,1,100,28
1575568690.716445,42605.000,6915,3,MZ,1,100,28
1575568690.756649,42638.800,6936,5,MZ,1,100,28
1575568690.796854,42672.600,6936,5,MZ,1,100,28
1575568690.837058,42706.400,6936,5,MZ,1,100,26
1575568690.877263,42740.200,6936,5,MZ,1,100,28
1575568690.917467,42774.000,6936,5,MZ,1,100,28
1575568690.955927,42806.333,6957,3,MZ,1,100,28
1575568690.994387,42838.667,6957,3,MZ,1,100,28
1575568691.032847,42871.000,6957,3,MZ,1,100,28
1575568691.076858,42908.000,6975,2,MZ,1,100,27
1575568691.120868,42945.000,6975,2,MZ,1,100,27
1575568691.161707,42979.333,6992,3,MZ,1,100,29
1575568691.202546,43013.667,6992,3,MZ,1,100,28
1575568691.243385,43048.000,6992,3,MZ,1,100,29
1575568691.284620,43082.667,7010,3,MZ,1,100,28
1575568691.325855,43117.333,7010,3,MZ,1,100,28
1575568691.367091,43152.000,7010,3,MZ,1,100,27
1575568691.408326,43186.667,7026,3,MZ,1,100,27
1575568691.449562,43221.333,7026,3,MZ,1,100,27
1575568691.490797,43256.000,7026,3,MZ,1,100,29
1575568691.528860,43288.000,7044,3,MZ,1,100,28
1575568691.566924,43320.000,7044,3,MZ,1,100,28
1575568691.604987,43352.000,7044,3,MZ,1,100,28
1575568691.643645,43384.500,7062,4,MZ,1,100,28
1575568691.682303,43417.000,7062,4,MZ,1,100,28
1575568691.720961,43449.500,7062,4,MZ,1,100,28
1575568691.759619,43482.000,7062,4,MZ,1,100,28
1575568691.800062,43516.000,7080,2,MZ,1,100,28
1575568691.840504,43550.000,7080,2,MZ,1,100,28
1575568691.885705,43588.000,7099,3,MZ,1,100,27
1575568691.930905,43626.000,7099,3,MZ,1,100,28
1575568691.976105,43664.000,7099,3,MZ,1,100,28
1575568692.017737,43699.000,7117,3,MZ,1,100,28
1575568692.059369,43734.000,7117,3,MZ,1,100,29
1575568692.101001,43769.000,7117,3,MZ,1,100,28
1575568692.137478,43799.667,7135,3,MZ,1,100,27
1575568692.173955,43830.333,7135,3,MZ,1,100,28
1575568692.210433,43861.000,7135,3,MZ,1,100,28
1575568692.249289,43893.667,7153,3,MZ,1,100,28
1575568692.288146,43926.333,7153,3,MZ,1,100,28
1575568692.327002,43959.000,7153,3,MZ,1,100,29
1575568692.366651,43992.333,7171,3,MZ,1,100,28
1575568692.406301,44025.667,7171,3,MZ,1,100,28
1575568692.445950,44059.000,7171,3,MZ,1,100,28
1575568692.487185,44093.667,7188,3,MZ,1,100,28
1575568692.528421,44128.333,7188,3,MZ,1,100,28
1575568692.569656,44163.000,7188,3,MZ,1,100,29
1575568692.611288,44198.000,7206,3,MZ,1,100,27
1575568692.652920,44233.000,7206,3,MZ,1,100,28
1575568692.694552,44268.000,7206,3,MZ,1,100,28
1575568692.736183,44303.000,7222,3,MZ,1,100,28
1575568692.777815,44338.000,7222,3,MZ,1,100,27
1575568692.819447,44373.000,7222,3,MZ,1,100,28
1575568692.855925,44403.667,7241,3,MZ,1,100,28
1575568692.892402,44434.333,7241,3,MZ,1,100,27
1575568692.928879,44465.000,7241,3,MZ,1,100,28
1575568692.966150,44496.333,7259,3,MZ,1,100,28
1575568693.003420,44527.667,7259,3,MZ,1,100,28
1575568693.040691,44559.000,7259,3,MZ,1,100,27
1575568693.080340,44592.333,7277,3,MZ,1,100,28
1575568693.119989,44625.667,7277,3,MZ,1,100,28
1575568693.159639,44659.000,7277,3,MZ,1,100,28
1575568693.197999,44691.250,7295,4,MZ,1,100,28
1575568693.236360,44723.500,7295,4,MZ,1,100,27
1575568693.274721,44755.750,7295,4,MZ,1,100,27
1575568693.313082,44788.000,7295,4,MZ,1,100,29
1575568693.356498,44824.500,7313,2,MZ,1,100,27
1575568693.399914,44861.000,7313,2,MZ,1,100,27
1575568693.440753,44895.333,7331,3,MZ,1,100,28
1575568693.481591,44929.667,7331,3,MZ,1,100,28
1575568693.522430,44964.000,7331,3,MZ,1,100,28
1575568693.563666,44998.667,7349,3,MZ,1,100,28
1575568693.604901,45033.333,7349,3,MZ,1,100,27
1575568693.646137,45068.000,7349,3,MZ,1,100,27
1575568693.686975,45102.333,7366,3,MZ,1,100,28
1575568693.727814,45136.667,7366,3,MZ,1,100,28
1575568693.768653,45171.000,7366,3,MZ,1,100,28
1575568693.806716,45203.000,7385,4,MZ,1,100,27
1575568693.844780,45235.000,7385,4,MZ,1,100,28
1575568693.882843,45267.000,7385,4,MZ,1,100,28
1575568693.920907,45299.000,7385,4,MZ,1,100,28
1575568693.960159,45332.000,7403,3,MZ,1,100,27
1575568693.999412,45365.000,7403,3,MZ,1,100,28
1575568694.038665,45398.000,7403,3,MZ,1,100,27
1575568694.080297,45433.000,7421,3,MZ,1,100,28
1575568694.121929,45468.000,7421,3,MZ,1,100,28
1575568694.163561,45503.000,7421,3,MZ,1,100,29
1575568694.209950,45542.000,7437,2,MZ,1,100,28
1575568694.256340,45581.000,7437,2,MZ,1,100,28
1575568694.298368,45616.333,7455,3,MZ,1,100,28
1575568694.340397,45651.667,7455,3,MZ,1,100,28
1575568694.382425,45687.000,7455,3,MZ,1,100,28
1575568694.419696,45718.333,7473,3,MZ,1,100,28
1575568694.456966,45749.667,7473,3,MZ,1,100,28
1575568694.494236,45781.000,7473,3,MZ,1,100,28
1575568694.533093,45813.667,7491,3,MZ,1,100,27
1575568694.571949,45846.333,7491,3,MZ,1,100,27
1575568694.610806,45879.000,7491,3,MZ,1,100,28
1575568694.650851,45912.667,7509,3,MZ,1,100,28
1575568694.690897,45946.333,7509,3,MZ,1,100,28
1575568694.730943,45980.000,7509,3,MZ,1,100,28
1575568694.771782,46014.333,7527,3,MZ,1,100,28
1575568694.812621,46048.667,7527,3,MZ,1,100,28
1575568694.853460,46083.000,7527,3,MZ,1,100,28
1575568694.895488,46118.333,7545,3,MZ,1,100,28
1575568694.937516,46153.667,7545,3,MZ,1,100,28
1575568694.979545,46189.000,7545,3,MZ,1,100,29
1575568695.020383,46223.333,7563,3,MZ,1,100,28
1575568695.061222,46257.667,7563,3,MZ,1,100,28
1575568695.102061,46292.000,7563,3,MZ,1,100,26
1575568695.140521,46324.333,7581,3,MZ,1,100,28
1575568695.178981,46356.667,7581,3,MZ,1,100,28
1575568695.217441,46389.000,7581,3,MZ,1,100,28
1575568695.258676,46423.667,7599,3,MZ,1,100,27
1575568695.299911,46458.333,7599,3,MZ,1,100,27
1575568695.341147,46493.000,7599,3,MZ,1,100,28
1575568695.382779,46528.000,7615,3,MZ,1,100,28
1575568695.424411,46563.000,7615,3,MZ,1,100,27
1575568695.466042,46598.000,7615,3,MZ,1,100,28
1575568695.507674,46633.000,7633,3,MZ,1,100,28
1575568695.549306,46668.000,7633,3,MZ,1,100,27
1575568695.590938,46703.000,7633,3,MZ,1,100,26
1575568695.629001,46735.000,7651,3,MZ,1,100,28
1575568695.667065,46767.000,7651,3,MZ,1,100,28
1575568695.705128,46799.000,7651,3,MZ,1,100,27
1575568695.743191,46831.000,7669,3,MZ,1,100,28
1575568695.781255,46863.000,7669,3,MZ,1,100,29
1575568695.819318,46895.000,7669,3,MZ,1,100,29
1575568695.863725,46932.333,7688,3,MZ,1,100,29
1575568695.908133,46969.667,7688,3,MZ,1,100,28
1575568695.952540,47007.000,7688,3,MZ,1,100,29
1575568695.994172,47042.000,7706,3,MZ,1,100,28
1575568696.035804,47077.000,7706,3,MZ,1,100,28
1575568696.077435,47112.000,7706,3,MZ,1,100,30
1575568696.118274,47146.333,7724,3,MZ,1,100,28
1575568696.159113,47180.667,7724,3,MZ,1,100,29
1575568696.199952,47215.000,7724,3,MZ,1,100,28
1575568696.238015,47247.000,7741,3,MZ,1,100,29
1575568696.276079,47279.000,7741,3,MZ,1,100,30
1575568696.314142,47311.000,7741,3,MZ,1,100,30
1575568696.351809,47342.667,7759,3,MZ,1,100,28
1575568696.389476,47374.333,7759,3,MZ,1,100,29
1575568696.427143,47406.000,7759,3,MZ,1,100,30
1575568696.467189,47439.667,7777,3,MZ,1,100,30
1575568696.507235,47473.333,7777,3,MZ,1,100,30
1575568696.547281,47507.000,7777,3,MZ,1,100,29
1575568696.588912,47542.000,7793,3,MZ,1,100,29
1575568696.630544,47577.000,7793,3,MZ,1,100,30
1575568696.672176,47612.000,7793,3,MZ,1,100,29
1575568696.713015,47646.333,7811,3,MZ,1,100,30
1575568696.753854,47680.667,7811,3,MZ,1,100,30
1575568696.794693,47715.000,7811,3,MZ,1,100,29
1575568696.836324,47750.000,7833,4,MZ,1,100,28
1575568696.877956,47785.000,7833,4,MZ,1,100,29
1575568696.919588,47820.000,7833,4,MZ,1,100,30
1575568696.961220,47855.000,7833,4,MZ,1,100,30
1575568697.002455,47889.667,7853,3,MZ,1,100,28
1575568697.043691,47924.333,7853,3,MZ,1,100,30
1575568697.084926,47959.000,7853,3,MZ,1,100,30
1575568697.125368,47993.000,7871,3,MZ,1,100,30
1575568697.165811,48027.000,7871,3,MZ,1,100,29
1575568697.206253,48061.000,7871,3,MZ,1,100,29
1575568697.245109,48093.667,7887,3,MZ,1,100,29
1575568697.283966,48126.333,7887,3,MZ,1,100,28
1575568697.322822,48159.000,7887,3,MZ,1,100,30
1575568697.363265,48193.000,7905,3,MZ,1,100,30
1575568697.403707,48227.000,7905,3,MZ,1,100,29
1575568697.444149,48261.000,7905,3,MZ,1,100,30
1575568697.485781,48296.000,7923,3,MZ,1,100,30
1575568697.527413,48331.000,7923,3,MZ,1,100,29
1575568697.569045,48366.000,7923,3,MZ,1,100,30
1575568697.610677,48401.000,7941,3,MZ,1,100,29
1575568697.652308,48436.000,7941,3,MZ,1,100,29
1575568697.693940,48471.000,7941,3,MZ,1,100,30
1575568697.735572,48506.000,7959,3,MZ,1,100,30
1575568697.777204,48541.000,7959,3,MZ,1,100,30
1575568697.818836,48576.000,7959,3,MZ,1,100,29
1575568697.859675,48610.333,7978,3,MZ,1,100,30
1575568697.900513,48644.667,7978,3,MZ,1,100,29
1575568697.941352,48679.000,7978,3,MZ,1,100,29
1575568697.979416,48711.000,7996,3,MZ,1,100,29
1575568698.017479,48743.000,7996,3,MZ,1,100,29
1575568698.055542,48775.000,7996,3,MZ,1,100,29
1575568698.094002,48807.333,8013,3,MZ,1,100,30
1575568698.132462,48839.667,8013,3,MZ,1,100,30
1575568698.170922,48872.000,8013,3,MZ,1,100,29
1575568698.212157,48906.667,8031,3,MZ,1,100,28
1575568698.253393,48941.333,8031,3,MZ,1,100,31
1575568698.294628,48976.000,8031,3,MZ,1,100,29
1575568698.339432,49013.667,8047,3,MZ,1,100,30
1575568698.384236,49051.333,8047,3,MZ,1,100,30
1575568698.429039,49089.000,8047,3,MZ,1,100,30
1575568698.470275,49123.667,8065,3,MZ,1,100,30
1575568698.511510,49158.333,8065,3,MZ,1,100,29
1575568698.552746,49193.000,8065,3,MZ,1,100,29
1575568698.590412,49224.667,8083,3,MZ,1,100,29
1575568698.628079,49256.333,8083,3,MZ,1,100,30
1575568698.665746,49288.000,8083,3,MZ,1,100,28
1575568698.704999,49321.000,8101,3,MZ,1,100,29
1575568698.744252,49354.000,8101,3,MZ,1,100,29
1575568698.783505,49387.000,8101,3,MZ,1,100,29
1575568698.823154,49420.333,8120,3,MZ,1,100,29
1575568698.862804,49453.667,8120,3,MZ,1,100,31
1575568698.902453,49487.000,8120,3,MZ,1,100,27
1575568698.943688,49521.667,8138,3,MZ,1,100,31
1575568698.984924,49556.333,8138,3,MZ,1,100,29
1575568699.026159,49591.000,8138,3,MZ,1,100,30
1575568699.066601,49625.000,8156,2,MZ,1,100,30
1575568699.107044,49659.000,8156,2,MZ,1,100,30
1575568699.150261,49695.333,8173,3,MZ,1,100,29
1575568699.193479,49731.667,8173,3,MZ,1,100,30
1575568699.236697,49768.000,8173,3,MZ,1,100,30
1575568699.275355,49800.500,8191,4,MZ,1,100,30
1575568699.314013,49833.000,8191,4,MZ,1,100,29
1575568699.352672,49865.500,8191,4,MZ,1,100,29
1575568699.391330,49898.000,8191,4,MZ,1,100,28
1575568699.431376,49931.667,8209,3,MZ,1,100,29
1575568699.471421,49965.333,8209,3,MZ,1,100,30
1575568699.511467,49999.000,8209,3,MZ,1,100,28
1575568699.553694,50034.500,8225,2,MZ,1,100,29
1575568699.595920,50070.000,8225,2,MZ,1,100,28
1575568699.636759,50104.333,8243,3,MZ,1,100,28
1575568699.677598,50138.667,8243,3,MZ,1,100,28
1575568699.718437,50173.000,8243,3,MZ,1,100,29
1575568699.758483,50206.667,8261,3,MZ,1,100,27
1575568699.798529,50240.333,8261,3,MZ,1,100,26
1575568699.838574,50274.000,8261,3,MZ,1,100,27
1575568699.876638,50306.000,8280,4,MZ,1,100,29
1575568699.914701,50338.000,8280,4,MZ,1,100,29
1575568699.952765,50370.000,8280,4,MZ,1,100,28
1575568699.990828,50402.000,8280,4,MZ,1,100,28
1575568700.037812,50441.500,8298,2,MZ,1,100,28
1575568700.084797,50481.000,8298,2,MZ,1,100,27
1575568700.125636,50515.333,8316,3,MZ,1,100,27
1575568700.166475,50549.667,8316,3,MZ,1,100,27
1575568700.207314,50584.000,8316,3,MZ,1,100,26
1575568700.248549,50618.667,8334,3,MZ,1,100,28
1575568700.289784,50653.333,8334,3,MZ,1,100,27
1575568700.331020,50688.000,8334,3,MZ,1,100,28
1575568700.370669,50721.333,8351,3,MZ,1,100,28
1575568700.410318,50754.667,8351,3,MZ,1,100,28
1575568700.449968,50788.000,8351,3,MZ,1,100,28
1575568700.486445,50818.667,8369,3,MZ,1,100,27
1575568700.522923,50849.333,8369,3,MZ,1,100,26
1575568700.559400,50880.000,8369,3,MZ,1,100,28
1575568700.599446,50913.667,8387,3,MZ,1,100,27
1575568700.639492,50947.333,8387,3,MZ,1,100,27
1575568700.679538,50981.000,8387,3,MZ,1,100,28
1575568700.720376,51015.333,8404,3,MZ,1,100,28
1575568700.761215,51049.667,8404,3,MZ,1,100,28
1575568700.802054,51084.000,8404,3,MZ,1,100,28
1575568700.844479,51119.667,8422,3,MZ,1,100,27
1575568700.886904,51155.333,8422,3,MZ,1,100,27
1575568700.929329,51191.000,8422,3,MZ,1,100,28
1575568700.970167,51225.333,8440,3,MZ,1,100,28
1575568701.011006,51259.667,8440,3,MZ,1,100,28
1575568701.051845,51294.000,8440,3,MZ,1,100,27
1575568701.096252,51331.333,8458,3,MZ,1,100,26
1575568701.140660,51368.667,8458,3,MZ,1,100,27
1575568701.185067,51406.000,8458,3,MZ,1,100,27
1575568701.225509,51440.000,8476,3,MZ,1,100,27
1575568701.265952,51474.000,8476,3,MZ,1,100,27
1575568701.306394,51508.000,8476,3,MZ,1,100,27
1575568701.344061,51539.667,8494,3,MZ,1,100,27
1575568701.381728,51571.333,8494,3,MZ,1,100,27
1575568701.419395,51603.000,8494,3,MZ,1,100,26
1575568701.459044,51636.333,8512,3,MZ,1,100,27
1575568701.498693,51669.667,8512,3,MZ,1,100,27
1575568701.538343,51703.000,8512,3,MZ,1,100,26
1575568701.579182,51737.333,8529,3,MZ,1,100,26
1575568701.620021,51771.667,8529,3,MZ,1,100,26
1575568701.660859,51806.000,8529,3,MZ,1,100,26
1575568701.702095,51840.667,8547,3,MZ,1,100,25
1575568701.743330,51875.333,8547,3,MZ,1,100,26
1575568701.784565,51910.000,8547,3,MZ,1,100,26
1575568701.825801,51944.667,8563,3,MZ,1,100,28
1575568701.867036,51979.333,8563,3,MZ,1,100,27
1575568701.908272,52014.000,8563,3,MZ,1,100,27
1575568701.949507,52048.667,8582,3,MZ,1,100,26
1575568701.990742,52083.333,8582,3,MZ,1,100,26
1575568702.031977,52118.000,8582,3,MZ,1,100,26
1575568702.067662,52148.000,8600,3,MZ,1,100,26
1575568702.103346,52178.000,8600,3,MZ,1,100,26
1575568702.139031,52208.000,8600,3,MZ,1,100,26
1575568702.177491,52240.333,8618,3,MZ,1,100,27
1575568702.215950,52272.667,8618,3,MZ,1,100,26
1575568702.254411,52305.000,8618,3,MZ,1,100,27
1575568702.297628,52341.333,8636,3,MZ,1,100,27
1575568702.340846,52377.667,8636,3,MZ,1,100,28
1575568702.384064,52414.000,8636,3,MZ,1,100,25
1575568702.424506,52448.000,8654,3,MZ,1,100,27
1575568702.464949,52482.000,8654,3,MZ,1,100,27
1575568702.505391,52516.000,8654,3,MZ,1,100,28
1575568702.547023,52551.000,8672,3,MZ,1,100,26
1575568702.588655,52586.000,8672,3,MZ,1,100,27
1575568702.630286,52621.000,8672,3,MZ,1,100,27
1575568702.670332,52654.667,8690,3,MZ,1,100,27
1575568702.710378,52688.333,8690,3,MZ,1,100,26
1575568702.750424,52722.000,8690,3,MZ,1,100,26
1575568702.788091,52753.667,8708,3,MZ,1,100,26
1575568702.825758,52785.333,8708,3,MZ,1,100,27
1575568702.863425,52817.000,8708,3,MZ,1,100,27
1575568702.903153,52850.400,8730,5,MZ,1,100,27
1575568702.942882,52883.800,8730,5,MZ,1,100,27
1575568702.982611,52917.200,8730,5,MZ,1,100,27
1575568703.022339,52950.600,8730,5,MZ,1,100,27
1575568703.062068,52984.000,8730,5,MZ,1,100,27
1575568703.109052,53023.500,8750,2,MZ,1,100,26
1575568703.156037,53063.000,8750,2,MZ,1,100,27
1575568703.197272,53097.667,8768,3,MZ,1,100,28
1575568703.238508,53132.333,8768,3,MZ,1,100,27
1575568703.279743,53167.000,8768,3,MZ,1,100,28
1575568703.319392,53200.333,8786,3,MZ,1,100,27
1575568703.359042,53233.667,8786,3,MZ,1,100,28
1575568703.398691,53267.000,8786,3,MZ,1,100,26
1575568703.436358,53298.667,8804,3,MZ,1,100,27
1575568703.474025,53330.333,8804,3,MZ,1,100,26
1575568703.511692,53362.000,8804,3,MZ,1,100,27
1575568703.551738,53395.667,8821,3,MZ,1,100,26
1575568703.591784,53429.333,8821,3,MZ,1,100,27
1575568703.631830,53463.000,8821,3,MZ,1,100,27
1575568703.673065,53497.667,8839,3,MZ,1,100,28
1575568703.714300,53532.333,8839,3,MZ,1,100,26
1575568703.755535,53567.000,8839,3,MZ,1,100,28
1575568703.796771,53601.667,8855,3,MZ,1,100,27
1575568703.838006,53636.333,8855,3,MZ,1,100,27
1575568703.879241,53671.000,8855,3,MZ,1,100,28
1575568703.919684,53705.000,8874,3,MZ,1,100,28
1575568703.960126,53739.000,8874,3,MZ,1,100,27
1575568704.000569,53773.000,8874,3,MZ,1,100,26
1575568704.041804,53807.667,8892,3,MZ,1,100,27
1575568704.083039,53842.333,8892,3,MZ,1,100,25
1575568704.124274,53877.000,8892,3,MZ,1,100,27
1575568704.163527,53910.000,8910,3,MZ,1,100,27
1575568704.202780,53943.000,8910,3,MZ,1,100,27
1575568704.242033,53976.000,8910,3,MZ,1,100,26
1575568704.283665,54011.000,8928,3,MZ,1,100,27
1575568704.325297,54046.000,8928,3,MZ,1,100,27
1575568704.366929,54081.000,8928,3,MZ,1,100,27
1575568704.408164,54115.667,8946,3,MZ,1,100,27
1575568704.449399,54150.333,8946,3,MZ,1,100,28
1575568704.490635,54185.000,8946,3,MZ,1,100,28
1575568704.529888,54218.000,8964,3,MZ,1,100,26
1575568704.569140,54251.000,8964,3,MZ,1,100,27
1575568704.608393,54284.000,8964,3,MZ,1,100,26
1575568704.646457,54316.000,8982,3,MZ,1,100,27
1575568704.684520,54348.000,8982,3,MZ,1,100,27
1575568704.722584,54380.000,8982,3,MZ,1,100,27
1575568704.765008,54415.667,9000,3,MZ,1,100,28
1575568704.807433,54451.333,9000,3,MZ,1,100,27
1575568704.849858,54487.000,9000,3,MZ,1,100,27
1575568704.885939,54517.333,9018,3,MZ,1,100,27
1575568704.922020,54547.667,9018,3,MZ,1,100,27
1575568704.958101,54578.000,9018,3,MZ,1,100,27
1575568704.998940,54612.333,9036,3,MZ,1,100,26
1575568705.039778,54646.667,9036,3,MZ,1,100,28
1575568705.080617,54681.000,9036,3,MZ,1,100,27
1575568705.125025,54718.333,9052,3,MZ,1,100,26
1575568705.169432,54755.667,9052,3,MZ,1,100,28
1575568705.213839,54793.000,9052,3,MZ,1,100,28
1575568705.255471,54828.000,9070,3,MZ,1,100,27
1575568705.297103,54863.000,9070,3,MZ,1,100,26
1575568705.338735,54898.000,9070,3,MZ,1,100,26
1575568705.379177,54932.000,9088,3,MZ,1,100,27
1575568705.419619,54966.000,9088,3,MZ,1,100,26
1575568705.460062,55000.000,9088,3,MZ,1,100,26
1575568705.497729,55031.667,9106,3,MZ,1,100,26
1575568705.535396,55063.333,9106,3,MZ,1,100,27
1575568705.573062,55095.000,9106,3,MZ,1,100,26
1575568705.613108,55128.667,9124,3,MZ,1,100,26
1575568705.653154,55162.333,9124,3,MZ,1,100,26
1575568705.693200,55196.000,9124,3,MZ,1,100,26
1575568705.733642,55230.000,9142,3,MZ,1,100,26
1575568705.774085,55264.000,9142,3,MZ,1,100,26
1575568705.814527,55298.000,9142,3,MZ,1,100,26
1575568705.856159,55333.000,9161,3,MZ,1,100,27
1575568705.897791,55368.000,9161,3,MZ,1,100,27
1575568705.939423,55403.000,9161,3,MZ,1,100,26
1575568705.987597,55443.500,9178,2,MZ,1,100,26
1575568706.035770,55484.000,9178,2,MZ,1,100,26
1575568706.073239,55515.500,9196,4,MZ,1,100,27
1575568706.110708,55547.000,9196,4,MZ,1,100,26
1575568706.148176,55578.500,9196,4,MZ,1,100,27
1575568706.185645,55610.000,9196,4,MZ,1,100,27
1575568706.224105,55642.333,9214,3,MZ,1,100,28
1575568706.262565,55674.667,9214,3,MZ,1,100,26
1575568706.301025,55707.000,9214,3,MZ,1,100,26
1575568706.342260,55741.667,9230,3,MZ,1,100,27
1575568706.383496,55776.333,9230,3,MZ,1,100,26
1575568706.424731,55811.000,9230,3,MZ,1,100,26
1575568706.465570,55845.333,9248,3,MZ,1,100,27
1575568706.506408,55879.667,9248,3,MZ,1,100,26
1575568706.547247,55914.000,9248,3,MZ,1,100,25
1575568706.589474,55949.500,9266,2,MZ,1,100,26
1575568706.631701,55985.000,9266,2,MZ,1,100,27
1575568706.669764,56017.000,9284,4,MZ,1,100,26
1575568706.707827,56049.000,9284,4,MZ,1,100,26
1575568706.745891,56081.000,9284,4,MZ,1,100,26
1575568706.783954,56113.000,9284,4,MZ,1,100,26
1575568706.825982,56148.333,9303,3,MZ,1,100,26
1575568706.868011,56183.667,9303,3,MZ,1,100,26
1575568706.910039,56219.000,9303,3,MZ,1,100,27
1575568706.950481,56253.000,9321,3,MZ,1,100,27
1575568706.990924,56287.000,9321,3,MZ,1,100,27
1575568707.031366,56321.000,9321,3,MZ,1,100,28
1575568707.072998,56356.000,9339,2,MZ,1,100,27
1575568707.114630,56391.000,9339,2,MZ,1,100,26
1575568707.155865,56425.667,9356,3,MZ,1,100,27
1575568707.197100,56460.333,9356,3,MZ,1,100,28
1575568707.238336,56495.000,9356,3,MZ,1,100,27
1575568707.277985,56528.333,9374,3,MZ,1,100,27
1575568707.317635,56561.667,9374,3,MZ,1,100,26
1575568707.357284,56595.000,9374,3,MZ,1,100,26
1575568707.395347,56627.000,9392,4,MZ,1,100,27
1575568707.433411,56659.000,9392,4,MZ,1,100,28
1575568707.471474,56691.000,9392,4,MZ,1,100,28
1575568707.509537,56723.000,9392,4,MZ,1,100,27
1575568707.549980,56757.000,9408,3,MZ,1,100,28
1575568707.590422,56791.000,9408,3,MZ,1,100,26
1575568707.630865,56825.000,9408,3,MZ,1,100,26
1575568707.678444,56865.000,9426,2,MZ,1,100,27
1575568707.726023,56905.000,9426,2,MZ,1,100,26
1575568707.767258,56939.667,9444,3,MZ,1,100,28
1575568707.808494,56974.333,9444,3,MZ,1,100,27
1575568707.849729,57009.000,9444,3,MZ,1,100,26
1575568707.887792,57041.000,9463,3,MZ,1,100,27
1575568707.925856,57073.000,9463,3,MZ,1,100,27
1575568707.963919,57105.000,9463,3,MZ,1,100,27
1575568708.002379,57137.333,9481,3,MZ,1,100,28
1575568708.040839,57169.667,9481,3,MZ,1,100,28
1575568708.079299,57202.000,9481,3,MZ,1,100,27
1575568708.118552,57235.000,9499,3,MZ,1,100,28
1575568708.157805,57268.000,9499,3,MZ,1,100,27
1575568708.197057,57301.000,9499,3,MZ,1,100,26
1575568708.238689,57336.000,9517,3,MZ,1,100,27
1575568708.280321,57371.000,9517,3,MZ,1,100,26
1575568708.321953,57406.000,9517,3,MZ,1,100,28
1575568708.363188,57440.667,9535,3,MZ,1,100,27
1575568708.404424,57475.333,9535,3,MZ,1,100,27
1575568708.445659,57510.000,9535,3,MZ,1,100,26
1575568708.485308,57543.333,9552,3,MZ,1,100,26
1575568708.524958,57576.667,9552,3,MZ,1,100,27
1575568708.564607,57610.000,9552,3,MZ,1,100,27
1575568708.606636,57645.333,9570,3,MZ,1,100,26
1575568708.648664,57680.667,9570,3,MZ,1,100,27
1575568708.690692,57716.000,9570,3,MZ,1,100,26
1575568708.725980,57745.667,9588,3,MZ,1,100,26
1575568708.761268,57775.333,9588,3,MZ,1,100,26
1575568708.796556,57805.000,9588,3,MZ,1,100,27
1575568708.837791,57839.667,9605,3,MZ,1,100,27
1575568708.879027,57874.333,9605,3,MZ,1,100,27
1575568708.920262,57909.000,9605,3,MZ,1,100,26
1575568708.959277,57941.800,9626,5,MZ,1,100,27
1575568708.998292,57974.600,9626,5,MZ,1,100,27
1575568709.037307,58007.400,9626,5,MZ,1,100,26
1575568709.076322,58040.200,9626,5,MZ,1,100,28
1575568709.115337,58073.000,9626,5,MZ,1,100,26
1575568709.157365,58108.333,9646,3,MZ,1,100,26
1575568709.199394,58143.667,9646,3,MZ,1,100,27
1575568709.241422,58179.000,9646,3,MZ,1,100,28
1575568709.282657,58213.667,9663,3,MZ,1,100,27
1575568709.323893,58248.333,9663,3,MZ,1,100,28
1575568709.365128,58283.000,9663,3,MZ,1,100,27
1575568709.406363,58317.667,9681,3,MZ,1,100,26
1575568709.447598,58352.333,9681,3,MZ,1,100,27
1575568709.488834,58387.000,9681,3,MZ,1,100,28
1575568709.528880,58420.667,9697,3,MZ,1,100,26
1575568709.568926,58454.333,9697,3,MZ,1,100,27
1575568709.608971,58488.000,9697,3,MZ,1,100,28
1575568709.647035,58520.000,9715,3,MZ,1,100,28
1575568709.685098,58552.000,9715,3,MZ,1,100,28
1575568709.723162,58584.000,9715,3,MZ,1,100,27
1575568709.762414,58617.000,9733,3,MZ,1,100,28
1575568709.801667,58650.000,9733,3,MZ,1,100,27
1575568709.840920,58683.000,9733,3,MZ,1,100,26
1575568709.882156,58717.667,9752,3,MZ,1,100,27
1575568709.923391,58752.333,9752,3,MZ,1,100,28
1575568709.964626,58787.000,9752,3,MZ,1,100,28
1575568710.005862,58821.667,9770,3,MZ,1,100,28
1575568710.047097,58856.333,9770,3,MZ,1,100,28
1575568710.088332,58891.000,9770,3,MZ,1,100,28
1575568710.136506,58931.500,9788,2,MZ,1,100,28
1575568710.184680,58972.000,9788,2,MZ,1,100,28
1575568710.222149,59003.500,9806,4,MZ,1,100,27
1575568710.259618,59035.000,9806,4,MZ,1,100,28
1575568710.297086,59066.500,9806,4,MZ,1,100,28
1575568710.334555,59098.000,9806,4,MZ,1,100,28
1575568710.373411,59130.667,9824,3,MZ,1,100,28
1575568710.412268,59163.333,9824,3,MZ,1,100,28
1575568710.451124,59196.000,9824,3,MZ,1,100,28
1575568710.492359,59230.667,9841,3,MZ,1,100,27
1575568710.533595,59265.333,9841,3,MZ,1,100,27
1575568710.574830,59300.000,9841,3,MZ,1,100,28
1575568710.614876,59333.667,9859,3,MZ,1,100,29
1575568710.654922,59367.333,9859,3,MZ,1,100,28
1575568710.694968,59401.000,9859,3,MZ,1,100,28
1575568710.737789,59437.000,9875,2,MZ,1,100,29
1575568710.780610,59473.000,9875,2,MZ,1,100,29
1575568710.821350,59507.250,9894,4,MZ,1,100,29
1575568710.862090,59541.500,9894,4,MZ,1,100,28
1575568710.902829,59575.750,9894,4,MZ,1,100,30
1575568710.943569,59610.000,9894,4,MZ,1,100,30
1575568710.982029,59642.333,9912,3,MZ,1,100,29
1575568711.020489,59674.667,9912,3,MZ,1,100,28
1575568711.058949,59707.000,9912,3,MZ,1,100,29
1575568711.099788,59741.333,9930,3,MZ,1,100,29
1575568711.140626,59775.667,9930,3,MZ,1,100,30
1575568711.181465,59810.000,9930,3,MZ,1,100,29
1575568711.222304,59844.333,9948,3,MZ,1,100,29
1575568711.263143,59878.667,9948,3,MZ,1,100,29
1575568711.303982,59913.000,9948,3,MZ,1,100,30
1575568711.346209,59948.500,9966,2,MZ,1,100,28
1575568711.388435,59984.000,9966,2,MZ,1,100,29
1575568711.427093,60016.500,9984,4,MZ,1,100,28
1575568711.465751,60049.000,9984,4,MZ,1,100,30
1575568711.504409,60081.500,9984,4,MZ,1,100,29
1575568711.543067,60114.000,9984,4,MZ,1,100,29
1575568711.581527,60146.333,10002,3,MZ,1,100,30
1575568711.619987,60178.667,10002,3,MZ,1,100,29
1575568711.658447,60211.000,10002,3,MZ,1,100,28
1575568711.699286,60245.333,10019,3,MZ,1,100,29
1575568711.740125,60279.667,10019,3,MZ,1,100,29
1575568711.780964,60314.000,10019,3,MZ,1,100,29
1575568711.827948,60353.500,10038,2,MZ,1,100,29
1575568711.874933,60393.000,10038,2,MZ,1,100,30
1575568711.915772,60427.333,10054,3,MZ,1,100,28
1575568711.956610,60461.667,10054,3,MZ,1,100,30
1575568711.997449,60496.000,10054,3,MZ,1,100,28
1575568712.035909,60528.333,10072,3,MZ,1,100,30
1575568712.074369,60560.667,10072,3,MZ,1,100,29
1575568712.112829,60593.000,10072,3,MZ,1,100,30
1575568712.150892,60625.000,10090,4,MZ,1,100,30
1575568712.188956,60657.000,10090,4,MZ,1,100,30
1575568712.227019,60689.000,10090,4,MZ,1,100,29
1575568712.265083,60721.000,10090,4,MZ,1,100,29
1575568712.305128,60754.667,10108,3,MZ,1,100,29
1575568712.345174,60788.333,10108,3,MZ,1,100,28
1575568712.385220,60822.000,10108,3,MZ,1,100,28
1575568712.427447,60857.500,10126,2,MZ,1,100,29
1575568712.469673,60893.000,10126,2,MZ,1,100,29
1575568712.510512,60927.333,10144,3,MZ,1,100,29
1575568712.551351,60961.667,10144,3,MZ,1,100,30
1575568712.592190,60996.000,10144,3,MZ,1,100,29
1575568712.634615,61031.667,10162,3,MZ,1,100,28
1575568712.677039,61067.333,10162,3,MZ,1,100,29
1575568712.719464,61103.000,10162,3,MZ,1,100,29
1575568712.760700,61137.667,10179,3,MZ,1,100,28
1575568712.801935,61172.333,10179,3,MZ,1,100,28
1575568712.843170,61207.000,10179,3,MZ,1,100,30
1575568712.884802,61242.000,10198,3,MZ,1,100,29
1575568712.926434,61277.000,10198,3,MZ,1,100,28
1575568712.968066,61312.000,10198,3,MZ,1,100,28
1575568713.006922,61344.667,10216,3,MZ,1,100,28
1575568713.045779,61377.333,10216,3,MZ,1,100,28
1575568713.084635,61410.000,10216,3,MZ,1,100,28
1575568713.123491,61442.667,10234,3,MZ,1,100,30
1575568713.162348,61475.333,10234,3,MZ,1,100,28
1575568713.201204,61508.000,10234,3,MZ,1,100,28
1575568713.242440,61542.667,10250,3,MZ,1,100,28
1575568713.283675,61577.333,10250,3,MZ,1,100,28
1575568713.324910,61612.000,10250,3,MZ,1,100,30
1575568713.366542,61647.000,10268,3,MZ,1,100,29
1575568713.408174,61682.000,10268,3,MZ,1,100,28
1575568713.449805,61717.000,10268,3,MZ,1,100,29
1575568713.489851,61750.667,10286,3,MZ,1,100,30
1575568713.529897,61784.333,10286,3,MZ,1,100,29
1575568713.569943,61818.000,10286,3,MZ,1,100,28
1575568713.608403,61850.333,10304,3,MZ,1,100,30
1575568713.646863,61882.667,10304,3,MZ,1,100,30
1575568713.685323,61915.000,10304,3,MZ,1,100,29
1575568713.727748,61950.667,10322,3,MZ,1,100,29
1575568713.770173,61986.333,10322,3,MZ,1,100,30
1575568713.812597,62022.000,10322,3,MZ,1,100,30
1575568713.849868,62053.333,10341,3,MZ,1,100,28
1575568713.887138,62084.667,10341,3,MZ,1,100,29
1575568713.924408,62116.000,10341,3,MZ,1,100,29
1575568713.968419,62153.000,10359,3,MZ,1,100,28
1575568714.012430,62190.000,10359,3,MZ,1,100,30
1575568714.056441,62227.000,10359,3,MZ,1,100,28
1575568714.097676,62261.667,10376,3,MZ,1,100,29
1575568714.138911,62296.333,10376,3,MZ,1,100,29
1575568714.180147,62331.000,10376,3,MZ,1,100,28
1575568714.220589,62365.000,10394,3,MZ,1,100,28
1575568714.261032,62399.000,10394,3,MZ,1,100,29
1575568714.301474,62433.000,10394,3,MZ,1,100,30
1575568714.341520,62466.667,10410,3,MZ,1,100,28
1575568714.381566,62500.333,10410,3,MZ,1,100,29
1575568714.421612,62534.000,10410,3,MZ,1,100,29
1575568714.459279,62565.667,10428,3,MZ,1,100,29
1575568714.496945,62597.333,10428,3,MZ,1,100,29
1575568714.534612,62629.000,10428,3,MZ,1,100,28
1575568714.573865,62662.000,10446,3,MZ,1,100,28
1575568714.613118,62695.000,10446,3,MZ,1,100,30
1575568714.652371,62728.000,10446,3,MZ,1,100,29
1575568714.694003,62763.000,10464,3,MZ,1,100,29
1575568714.735635,62798.000,10464,3,MZ,1,100,29
1575568714.777267,62833.000,10464,3,MZ,1,100,29
1575568714.817709,62867.000,10483,3,MZ,1,100,29
1575568714.858151,62901.000,10483,3,MZ,1,100,29
1575568714.898593,62935.000,10483,3,MZ,1,100,29
1575568714.946173,62975.000,10501,2,MZ,1,100,29
1575568714.993752,63015.000,10501,2,MZ,1,100,30
1575568715.032014,63047.167,10522,6,MZ,1,100,28
1575568715.070275,63079.333,10522,6,MZ,1,100,29
1575568715.108537,63111.500,10522,6,MZ,1,100,28
1575568715.146799,63143.667,10522,6,MZ,1,100,29
1575568715.185060,63175.833,10522,6,MZ,1,100,29
1575568715.223322,63208.000,10522,6,MZ,1,100,29
1575568715.263764,63242.000,10540,2,MZ,1,100,30
1575568715.304206,63276.000,10540,2,MZ,1,100,29
1575568715.345838,63311.000,10560,3,MZ,1,100,28
1575568715.387470,63346.000,10560,3,MZ,1,100,28
1575568715.429102,63381.000,10560,3,MZ,1,100,28
1575568715.470734,63416.000,10578,3,MZ,1,100,30
1575568715.512366,63451.000,10578,3,MZ,1,100,29
1575568715.553998,63486.000,10578,3,MZ,1,100,27
1575568715.592854,63518.667,10596,3,MZ,1,100,28
1575568715.631710,63551.333,10596,3,MZ,1,100,28
1575568715.670567,63584.000,10596,3,MZ,1,100,28
1575568715.709027,63616.333,10614,3,MZ,1,100,27
1575568715.747486,63648.667,10614,3,MZ,1,100,28
1575568715.785946,63681.000,10614,3,MZ,1,100,28
1575568715.830353,63718.333,10633,3,MZ,1,100,29
1575568715.874761,63755.667,10633,3,MZ,1,100,29
1575568715.919168,63793.000,10633,3,MZ,1,100,29
1575568715.960007,63827.333,10650,3,MZ,1,100,28
1575568716.000846,63861.667,10650,3,MZ,1,100,29
1575568716.041685,63896.000,10650,3,MZ,1,100,28
1575568716.082524,63930.333,10668,3,MZ,1,100,28
1575568716.123362,63964.667,10668,3,MZ,1,100,29
1575568716.164201,63999.000,10668,3,MZ,1,100,29
1575568716.203058,64031.667,10686,3,MZ,1,100,28
1575568716.241914,64064.333,10686,3,MZ,1,100,28
1575568716.280770,64097.000,10686,3,MZ,1,100,28
1575568716.317644,64128.000,10702,3,MZ,1,100,29
1575568716.354518,64159.000,10702,3,MZ,1,100,28
1575568716.391392,64190.000,10702,3,MZ,1,100,28
1575568716.432231,64224.333,10720,3,MZ,1,100,30
1575568716.473070,64258.667,10720,3,MZ,1,100,29
1575568716.513909,64293.000,10720,3,MZ,1,100,28
1575568716.558712,64330.667,10738,3,MZ,1,100,28
1575568716.603516,64368.333,10738,3,MZ,1,100,30
1575568716.648320,64406.000,10738,3,MZ,1,100,30
1575568716.686383,64438.000,10756,3,MZ,1,100,29
1575568716.724447,64470.000,10756,3,MZ,1,100,29
1575568716.762510,64502.000,10756,3,MZ,1,100,29
1575568716.803746,64536.667,10774,3,MZ,1,100,30
1575568716.844981,64571.333,10774,3,MZ,1,100,29
1575568716.886216,64606.000,10774,3,MZ,1,100,28
1575568716.932606,64645.000,10793,2,MZ,1,100,29
1575568716.978996,64684.000,10793,2,MZ,1,100,29
1575568717.018546,64717.250,10810,4,MZ,1,100,28
1575568717.058096,64750.500,10810,4,MZ,1,100,29
1575568717.097646,64783.750,10810,4,MZ,1,100,28
1575568717.137197,64817.000,10810,4,MZ,1,100,29
1575568717.175657,64849.333,10828,3,MZ,1,100,30
1575568717.214117,64881.667,10828,3,MZ,1,100,29
1575568717.252576,64914.000,10828,3,MZ,1,100,30
1575568717.292226,64947.333,10846,3,MZ,1,100,29
1575568717.331875,64980.667,10846,3,MZ,1,100,29
1575568717.371525,65014.000,10846,3,MZ,1,100,28
1575568717.413156,65049.000,10862,3,MZ,1,100,28
1575568717.454788,65084.000,10862,3,MZ,1,100,30
1575568717.496420,65119.000,10862,3,MZ,1,100,29
1575568717.537259,65153.333,10880,3,MZ,1,100,28
1575568717.578098,65187.667,10880,3,MZ,1,100,28
1575568717.618937,65222.000,10880,3,MZ,1,100,29
1575568717.658982,65255.667,10898,3,MZ,1,100,29
1575568717.699028,65289.333,10898,3,MZ,1,100,29
1575568717.739074,65323.000,10898,3,MZ,1,100,29
1575568717.780309,65357.667,10916,3,MZ,1,100,28
1575568717.821545,65392.333,10916,3,MZ,1,100,28
1575568717.862780,65427.000,10916,3,MZ,1,100,28
1575568717.902430,65460.333,10935,3,MZ,1,100,29
1575568717.942079,65493.667,10935,3,MZ,1,100,28
1575568717.981728,65527.000,10935,3,MZ,1,100,30
1575568718.022171,65561.000,10953,3,MZ,1,100,29
1575568718.062613,65595.000,10953,3,MZ,1,100,29
1575568718.103055,65629.000,10953,3,MZ,1,100,28
1575568718.144687,65664.000,10971,2,MZ,1,100,29
1575568718.186319,65699.000,10971,2,MZ,1,100,29
1575568718.227158,65733.333,10988,3,MZ,1,100,29
1575568718.267997,65767.667,10988,3,MZ,1,100,30
1575568718.308836,65802.000,10988,3,MZ,1,100,29
1575568718.346899,65834.000,11006,4,MZ,1,100,30
1575568718.384962,65866.000,11006,4,MZ,1,100,28
1575568718.423026,65898.000,11006,4,MZ,1,100,29
1575568718.461089,65930.000,11006,4,MZ,1,100,29
1575568718.499945,65962.667,11024,3,MZ,1,100,28
1575568718.538802,65995.333,11024,3,MZ,1,100,28
1575568718.577658,66028.000,11024,3,MZ,1,100,28
1575568718.623453,66066.500,11042,2,MZ,1,100,28
1575568718.669248,66105.000,11042,2,MZ,1,100,29
1575568718.710484,66139.667,11058,3,MZ,1,100,28
1575568718.751719,66174.333,11058,3,MZ,1,100,28
1575568718.792954,66209.000,11058,3,MZ,1,100,29
1575568718.834190,66243.667,11077,3,MZ,1,100,29
1575568718.875425,66278.333,11077,3,MZ,1,100,30
1575568718.916660,66313.000,11077,3,MZ,1,100,28
1575568718.954724,66345.000,11095,3,MZ,1,100,29
1575568718.992787,66377.000,11095,3,MZ,1,100,29
1575568719.030850,66409.000,11095,3,MZ,1,100,29
1575568719.069707,66441.667,11113,3,MZ,1,100,29
1575568719.108563,66474.333,11113,3,MZ,1,100,29
1575568719.147420,66507.000,11113,3,MZ,1,100,29
1575568719.188258,66541.333,11131,3,MZ,1,100,28
1575568719.229097,66575.667,11131,3,MZ,1,100,30
1575568719.269936,66610.000,11131,3,MZ,1,100,28
1575568719.311172,66644.667,11149,3,MZ,1,100,28
1575568719.352407,66679.333,11149,3,MZ,1,100,27
1575568719.393642,66714.000,11149,3,MZ,1,100,29
1575568719.438446,66751.667,11167,3,MZ,1,100,29
1575568719.483250,66789.333,11167,3,MZ,1,100,29
1575568719.528054,66827.000,11167,3,MZ,1,100,28
1575568719.565324,66858.333,11184,3,MZ,1,100,28
1575568719.602594,66889.667,11184,3,MZ,1,100,29
1575568719.639865,66921.000,11184,3,MZ,1,100,28
1575568719.677532,66952.667,11202,3,MZ,1,100,28
1575568719.715199,66984.333,11202,3,MZ,1,100,29
1575568719.752865,67016.000,11202,3,MZ,1,100,28
1575568719.793308,67050.000,11221,3,MZ,1,100,28
1575568719.833750,67084.000,11221,3,MZ,1,100,28
1575568719.874192,67118.000,11221,3,MZ,1,100,28
1575568719.915031,67152.333,11237,3,MZ,1,100,29
1575568719.955870,67186.667,11237,3,MZ,1,100,29
1575568719.996709,67221.000,11237,3,MZ,1,100,29
1575568720.037944,67255.667,11255,3,MZ,1,100,29
1575568720.079180,67290.333,11255,3,MZ,1,100,28
1575568720.120415,67325.000,11255,3,MZ,1,100,29
1575568720.159668,67358.000,11273,3,MZ,1,100,28
1575568720.198921,67391.000,11273,3,MZ,1,100,29
1575568720.238174,67424.000,11273,3,MZ,1,100,28
1575568720.279012,67458.333,11291,3,MZ,1,100,29
1575568720.319851,67492.667,11291,3,MZ,1,100,29
1575568720.360690,67527.000,11291,3,MZ,1,100,28
1575568720.401926,67561.667,11309,3,MZ,1,100,28
1575568720.443161,67596.333,11309,3,MZ,1,100,28
1575568720.484396,67631.000,11309,3,MZ,1,100,28
1575568720.518891,67660.000,11327,3,MZ,1,100,28
1575568720.553386,67689.000,11327,3,MZ,1,100,28
1575568720.587881,67718.000,11327,3,MZ,1,100,28
1575568720.629910,67753.333,11345,3,MZ,1,100,28
1575568720.671938,67788.667,11345,3,MZ,1,100,28
1575568720.713966,67824.000,11345,3,MZ,1,100,29
1575568720.752426,67856.333,11363,3,MZ,1,100,29
1575568720.790886,67888.667,11363,3,MZ,1,100,30
1575568720.829346,67921.000,11363,3,MZ,1,100,30
1575568720.874150,67958.667,11381,3,MZ,1,100,28
1575568720.918953,67996.333,11381,3,MZ,1,100,28
1575568720.963757,68034.000,11381,3,MZ,1,100,28
1575568721.004992,68068.667,11399,3,MZ,1,100,29
1575568721.046228,68103.333,11399,3,MZ,1,100,29
1575568721.087463,68138.000,11399,3,MZ,1,100,29
1575568721.127668,68171.800,11420,5,MZ,1,100,29
1575568721.167872,68205.600,11420,5,MZ,1,100,28
1575568721.208076,68239.400,11420,5,MZ,1,100,29
1575568721.248281,68273.200,11420,5,MZ,1,100,28
1575568721.288485,68307.000,11420,5,MZ,1,100,29
1575568721.326152,68338.667,11438,3,MZ,1,100,28
1575568721.363819,68370.333,11438,3,MZ,1,100,29
1575568721.401486,68402.000,11438,3,MZ,1,100,29
1575568721.441135,68435.333,11458,3,MZ,1,100,29
1575568721.480785,68468.667,11458,3,MZ,1,100,30
1575568721.520434,68502.000,11458,3,MZ,1,100,28
1575568721.562066,68537.000,11475,3,MZ,1,100,28
1575568721.603698,68572.000,11475,3,MZ,1,100,28
1575568721.645330,68607.000,11475,3,MZ,1,100,29
1575568721.686962,68642.000,11493,3,MZ,1,100,29
1575568721.728593,68677.000,11493,3,MZ,1,100,28
1575568721.770225,68712.000,11493,3,MZ,1,100,28
1575568721.810271,68745.667,11509,3,MZ,1,100,29
1575568721.850317,68779.333,11509,3,MZ,1,100,28
1575568721.890363,68813.000,11509,3,MZ,1,100,29
1575568721.931598,68847.667,11528,3,MZ,1,100,27
1575568721.972833,68882.333,11528,3,MZ,1,100,28
1575568722.014069,68917.000,11528,3,MZ,1,100,28
1575568722.053322,68950.000,11546,3,MZ,1,100,28
1575568722.092575,68983.000,11546,3,MZ,1,100,28
1575568722.131827,69016.000,11546,3,MZ,1,100,28
1575568722.172270,69050.000,11564,3,MZ,1,100,28
1575568722.212712,69084.000,11564,3,MZ,1,100,28
1575568722.253155,69118.000,11564,3,MZ,1,100,28
1575568722.294192,69152.500,11582,2,MZ,1,100,27
1575568722.335229,69187.000,11582,2,MZ,1,100,28
1575568722.375076,69220.500,11600,4,MZ,1,100,29
1575568722.414924,69254.000,11600,4,MZ,1,100,30
1575568722.454772,69287.500,11600,4,MZ,1,100,31
1575568722.494619,69321.000,11600,4,MZ,1,100,30
1575568722.533079,69353.333,11618,3,MZ,1,100,30
1575568722.571539,69385.667,11618,3,MZ,1,100,30
1575568722.609999,69418.000,11618,3,MZ,1,100,28
1575568722.652424,69453.667,11636,3,MZ,1,100,29
1575568722.694849,69489.333,11636,3,MZ,1,100,28
1575568722.737273,69525.000,11636,3,MZ,1,100,28
1575568722.777716,69559.000,11653,2,MZ,1,100,28
1575568722.818158,69593.000,11653,2,MZ,1,100,28
1575568722.859790,69628.000,11672,3,MZ,1,100,28
1575568722.901422,69663.000,11672,3,MZ,1,100,28
1575568722.943053,69698.000,11672,3,MZ,1,100,29
1575568722.984685,69733.000,11688,3,MZ,1,100,29
1575568723.026317,69768.000,11688,3,MZ,1,100,29
1575568723.067949,69803.000,11688,3,MZ,1,100,30
1575568723.105715,69834.750,11706,4,MZ,1,100,28
1575568723.143481,69866.500,11706,4,MZ,1,100,28
1575568723.181247,69898.250,11706,4,MZ,1,100,28
1575568723.219013,69930.000,11706,4,MZ,1,100,29
1575568723.258266,69963.000,11724,3,MZ,1,100,27
1575568723.297519,69996.000,11724,3,MZ,1,100,29
1575568723.336772,70029.000,11724,3,MZ,1,100,28
1575568723.378007,70063.667,11742,3,MZ,1,100,28
1575568723.419242,70098.333,11742,3,MZ,1,100,30
1575568723.460478,70133.000,11742,3,MZ,1,100,28
1575568723.506867,70172.000,11760,2,MZ,1,100,30
1575568723.553257,70211.000,11760,2,MZ,1,100,29
1575568723.594889,70246.000,11778,3,MZ,1,100,29
1575568723.636521,70281.000,11778,3,MZ,1,100,29
1575568723.678153,70316.000,11778,3,MZ,1,100,29
1575568723.715423,70347.333,11796,3,MZ,1,100,29
1575568723.752694,70378.667,11796,3,MZ,1,100,29
1575568723.789964,70410.000,11796,3,MZ,1,100,29
1575568723.828424,70442.333,11815,3,MZ,1,100,28
1575568723.866884,70474.667,11815,3,MZ,1,100,28
1575568723.905344,70507.000,11815,3,MZ,1,100,28
1575568723.944993,70540.333,11833,3,MZ,1,100,28
1575568723.984642,70573.667,11833,3,MZ,1,100,29
1575568724.024292,70607.000,11833,3,MZ,1,100,29
1575568724.065527,70641.667,11850,3,MZ,1,100,28
1575568724.106762,70676.333,11850,3,MZ,1,100,29
1575568724.147998,70711.000,11850,3,MZ,1,100,29
1575568724.189630,70746.000,11868,3,MZ,1,100,29
1575568724.231261,70781.000,11868,3,MZ,1,100,29
1575568724.272893,70816.000,11868,3,MZ,1,100,29
1575568724.315318,70851.667,11884,3,MZ,1,100,30
1575568724.357743,70887.333,11884,3,MZ,1,100,27
1575568724.400168,70923.000,11884,3,MZ,1,100,29
1575568724.437042,70954.000,11902,3,MZ,1,100,29
1575568724.473916,70985.000,11902,3,MZ,1,100,28
1575568724.510789,71016.000,11902,3,MZ,1,100,30
1575568724.548060,71047.333,11920,3,MZ,1,100,29
1575568724.585330,71078.667,11920,3,MZ,1,100,28
1575568724.622601,71110.000,11920,3,MZ,1,100,28
1575568724.663043,71144.000,11938,3,MZ,1,100,29
1575568724.703485,71178.000,11938,3,MZ,1,100,29
1575568724.743928,71212.000,11938,3,MZ,1,100,30
1575568724.781991,71244.000,11957,4,MZ,1,100,28
1575568724.820055,71276.000,11957,4,MZ,1,100,28
1575568724.858118,71308.000,11957,4,MZ,1,100,29
1575568724.896181,71340.000,11957,4,MZ,1,100,28
1575568724.938408,71375.500,11975,2,MZ,1,100,28
1575568724.980634,71411.000,11975,2,MZ,1,100,28
1575568725.021473,71445.333,11993,3,MZ,1,100,30
1575568725.062312,71479.667,11993,3,MZ,1,100,28
1575568725.103151,71514.000,11993,3,MZ,1,100,28
1575568725.144783,71549.000,12011,3,MZ,1,100,28
1575568725.186415,71584.000,12011,3,MZ,1,100,28
1575568725.228046,71619.000,12011,3,MZ,1,100,29
1575568725.269678,71654.000,12028,3,MZ,1,100,28
1575568725.311310,71689.000,12028,3,MZ,1,100,29
1575568725.352942,71724.000,12028,3,MZ,1,100,29
1575568725.391005,71756.000,12046,3,MZ,1,100,29
1575568725.429069,71788.000,12046,3,MZ,1,100,29
1575568725.467132,71820.000,12046,3,MZ,1,100,29
1575568725.504799,71851.667,12064,3,MZ,1,100,29
1575568725.542466,71883.333,12064,3,MZ,1,100,28
1575568725.580133,71915.000,12064,3,MZ,1,100,29
1575568725.621170,71949.500,12082,4,MZ,1,100,28
1575568725.662207,71984.000,12082,4,MZ,1,100,28
1575568725.703244,72018.500,12082,4,MZ,1,100,28
1575568725.744281,72053.000,12082,4,MZ,1,100,29
1575568725.790671,72092.000,12098,2,MZ,1,100,29
1575568725.837061,72131.000,12098,2,MZ,1,100,28
1575568725.879486,72166.667,12117,3,MZ,1,100,30
1575568725.921910,72202.333,12117,3,MZ,1,100,28
1575568725.964335,72238.000,12117,3,MZ,1,100,27
1575568726.002002,72269.667,12135,3,MZ,1,100,28
1575568726.039669,72301.333,12135,3,MZ,1,100,28
1575568726.077336,72333.000,12135,3,MZ,1,100,29
1575568726.116192,72365.667,12153,3,MZ,1,100,28
1575568726.155049,72398.333,12153,3,MZ,1,100,28
1575568726.193905,72431.000,12153,3,MZ,1,100,28
1575568726.233951,72464.667,12171,3,MZ,1,100,29
1575568726.273997,72498.333,12171,3,MZ,1,100,30
1575568726.314043,72532.000,12171,3,MZ,1,100,28
1575568726.354882,72566.333,12189,3,MZ,1,100,28
1575568726.395720,72600.667,12189,3,MZ,1,100,28
1575568726.436559,72635.000,12189,3,MZ,1,100,28
1575568726.478191,72670.000,12206,3,MZ,1,100,29
1575568726.519823,72705.000,12206,3,MZ,1,100,29
1575568726.561455,72740.000,12206,3,MZ,1,100,28
1575568726.603086,72775.000,12224,3,MZ,1,100,29
1575568726.644718,72810.000,12224,3,MZ,1,100,28
1575568726.686350,72845.000,12224,3,MZ,1,100,29
1575568726.724414,72877.000,12242,3,MZ,1,100,28
1575568726.762477,72909.000,12242,3,MZ,1,100,29
1575568726.800540,72941.000,12242,3,MZ,1,100,28
1575568726.841379,72975.333,12261,3,MZ,1,100,29
1575568726.882218,73009.667,12261,3,MZ,1,100,28
1575568726.923057,73044.000,12261,3,MZ,1,100,28
1575568726.964292,73078.667,12277,3,MZ,1,100,28
1575568727.005527,73113.333,12277,3,MZ,1,100,28
1575568727.046763,73148.000,12277,3,MZ,1,100,28
1575568727.087998,73182.667,12295,3,MZ,1,100,28
1575568727.129234,73217.333,12295,3,MZ,1,100,28
1575568727.170469,73252.000,12295,3,MZ,1,100,28
1575568727.209246,73284.600,12314,5,MZ,1,100,28
1575568727.248023,73317.200,12314,5,MZ,1,100,27
1575568727.286800,73349.800,12314,5,MZ,1,100,28
1575568727.325577,73382.400,12314,5,MZ,1,100,28
1575568727.364354,73415.000,12314,5,MZ,1,100,28
1575568727.403211,73447.667,12336,3,MZ,1,100,27
1575568727.442067,73480.333,12336,3,MZ,1,100,28
1575568727.480923,73513.000,12336,3,MZ,1,100,29
1575568727.521960,73547.500,12354,2,MZ,1,100,28
1575568727.562998,73582.000,12354,2,MZ,1,100,28
1575568727.608198,73620.000,12370,3,MZ,1,100,29
1575568727.653398,73658.000,12370,3,MZ,1,100,28
1575568727.698599,73696.000,12370,3,MZ,1,100,28
1575568727.739834,73730.667,12388,3,MZ,1,100,29
1575568727.781069,73765.333,12388,3,MZ,1,100,30
1575568727.822304,73800.000,12388,3,MZ,1,100,30
1575568727.859476,73831.250,12407,4,MZ,1,100,30
1575568727.896647,73862.500,12407,4,MZ,1,100,30
1575568727.933818,73893.750,12407,4,MZ,1,100,30
1575568727.970990,73925.000,12407,4,MZ,1,100,30
1575568728.010639,73958.333,12425,3,MZ,1,100,29
1575568728.050288,73991.667,12425,3,MZ,1,100,28
1575568728.089938,74025.000,12425,3,MZ,1,100,28
1575568728.130380,74059.000,12443,3,MZ,1,100,31
1575568728.170822,74093.000,12443,3,MZ,1,100,31
1575568728.211265,74127.000,12443,3,MZ,1,100,31
1575568728.252500,74161.667,12461,3,MZ,1,100,32
1575568728.293736,74196.333,12461,3,MZ,1,100,31
1575568728.334971,74231.000,12461,3,MZ,1,100,32
1575568728.382550,74271.000,12479,2,MZ,1,100,31
1575568728.430129,74311.000,12479,2,MZ,1,100,30
1575568728.468589,74343.333,12496,3,MZ,1,100,29
1575568728.507049,74375.667,12496,3,MZ,1,100,28
1575568728.545509,74408.000,12496,3,MZ,1,100,29
1575568728.587141,74443.000,12514,3,MZ,1,100,30
1575568728.628773,74478.000,12514,3,MZ,1,100,31
1575568728.670404,74513.000,12514,3,MZ,1,100,32
1575568728.711243,74547.333,12530,3,MZ,1,100,34
1575568728.752082,74581.667,12530,3,MZ,1,100,33
1575568728.792921,74616.000,12530,3,MZ,1,100,33
1575568728.830588,74647.667,12549,3,MZ,1,100,33
1575568728.868255,74679.333,12549,3,MZ,1,100,32
1575568728.905922,74711.000,12549,3,MZ,1,100,32
1575568728.946364,74745.000,12567,3,MZ,1,100,32
1575568728.986806,74779.000,12567,3,MZ,1,100,33
1575568729.027249,74813.000,12567,3,MZ,1,100,31
1575568729.068484,74847.667,12585,3,MZ,1,100,31
1575568729.109720,74882.333,12585,3,MZ,1,100,30
1575568729.150955,74917.000,12585,3,MZ,1,100,28
1575568729.192983,74952.333,12603,3,MZ,1,100,30
1575568729.235012,74987.667,12603,3,MZ,1,100,28
1575568729.277040,75023.000,12603,3,MZ,1,100,28
1575568729.319068,75058.333,12621,3,MZ,1,100,30
1575568729.361096,75093.667,12621,3,MZ,1,100,28
1575568729.403125,75129.000,12621,3,MZ,1,100,28
1575568729.444360,75163.667,12639,3,MZ,1,100,27
1575568729.485595,75198.333,12639,3,MZ,1,100,26
1575568729.526831,75233.000,12639,3,MZ,1,100,26
1575568729.564894,75265.000,12656,3,MZ,1,100,27
1575568729.602957,75297.000,12656,3,MZ,1,100,27
1575568729.641021,75329.000,12656,3,MZ,1,100,26
1575568729.679481,75361.333,12674,3,MZ,1,100,27
1575568729.717941,75393.667,12674,3,MZ,1,100,27
1575568729.756401,75426.000,12674,3,MZ,1,100,28
1575568729.797240,75460.333,12693,3,MZ,1,100,26
1575568729.838078,75494.667,12693,3,MZ,1,100,26
1575568729.878917,75529.000,12693,3,MZ,1,100,26
1575568729.925307,75568.000,12709,2,MZ,1,100,26
1575568729.971697,75607.000,12709,2,MZ,1,100,25
1575568730.013031,75641.750,12727,4,MZ,1,100,26
1575568730.054366,75676.500,12727,4,MZ,1,100,27
1575568730.095700,75711.250,12727,4,MZ,1,100,26
1575568730.137035,75746.000,12727,4,MZ,1,100,25
1575568730.175098,75778.000,12745,3,MZ,1,100,27
1575568730.213161,75810.000,12745,3,MZ,1,100,26
1575568730.251225,75842.000,12745,3,MZ,1,100,27
1575568730.289685,75874.333,12763,3,MZ,1,100,25
1575568730.328145,75906.667,12763,3,MZ,1,100,26
1575568730.366604,75939.000,12763,3,MZ,1,100,26
1575568730.406254,75972.333,12781,3,MZ,1,100,27
1575568730.445903,76005.667,12781,3,MZ,1,100,26
1575568730.485553,76039.000,12781,3,MZ,1,100,26
1575568730.527184,76074.000,12799,3,MZ,1,100,25
1575568730.568816,76109.000,12799,3,MZ,1,100,26
1575568730.610448,76144.000,12799,3,MZ,1,100,25
1575568730.650296,76177.500,12817,2,MZ,1,100,26
1575568730.690143,76211.000,12817,2,MZ,1,100,26
1575568730.733757,76247.667,12834,3,MZ,1,100,26
1575568730.777372,76284.333,12834,3,MZ,1,100,25
1575568730.820986,76321.000,12834,3,MZ,1,100,24
1575568730.859347,76353.250,12853,4,MZ,1,100,26
1575568730.897708,76385.500,12853,4,MZ,1,100,26
1575568730.936069,76417.750,12853,4,MZ,1,100,24
1575568730.974429,76450.000,12853,4,MZ,1,100,25
1575568731.014475,76483.667,12871,3,MZ,1,100,26
1575568731.054521,76517.333,12871,3,MZ,1,100,26
1575568731.094567,76551.000,12871,3,MZ,1,100,25
1575568731.136793,76586.500,12887,2,MZ,1,100,27
1575568731.179020,76622.000,12887,2,MZ,1,100,26
1575568731.219859,76656.333,12905,3,MZ,1,100,26
1575568731.260698,76690.667,12905,3,MZ,1,100,26
1575568731.301537,76725.000,12905,3,MZ,1,100,25
1575568731.342375,76759.333,12923,3,MZ,1,100,26
1575568731.383214,76793.667,12923,3,MZ,1,100,25
1575568731.424053,76828.000,12923,3,MZ,1,100,25
1575568731.462116,76860.000,12941,3,MZ,1,100,24
1575568731.500180,76892.000,12941,3,MZ,1,100,25
1575568731.538243,76924.000,12941,3,MZ,1,100,26
1575568731.581857,76960.667,12959,3,MZ,1,100,25
1575568731.625472,76997.333,12959,3,MZ,1,100,26
1575568731.669086,77034.000,12959,3,MZ,1,100,26
1575568731.709925,77068.333,12977,3,MZ,1,100,26
1575568731.750764,77102.667,12977,3,MZ,1,100,26
1575568731.791603,77137.000,12977,3,MZ,1,100,24
1575568731.832838,77171.667,12996,3,MZ,1,100,25
1575568731.874073,77206.333,12996,3,MZ,1,100,26
1575568731.915309,77241.000,12996,3,MZ,1,100,24
1575568731.955751,77275.000,13013,3,MZ,1,100,26
1575568731.996193,77309.000,13013,3,MZ,1,100,24
1575568732.036636,77343.000,13013,3,MZ,1,100,26
1575568732.073113,77373.667,13031,3,MZ,1,100,26
1575568732.109591,77404.333,13031,3,MZ,1,100,25
1575568732.146068,77435.000,13031,3,MZ,1,100,25
1575568732.186114,77468.667,13049,3,MZ,1,100,25
1575568732.226160,77502.333,13049,3,MZ,1,100,25
1575568732.266206,77536.000,13049,3,MZ,1,100,24
1575568732.306648,77570.000,13065,3,MZ,1,100,25
1575568732.347090,77604.000,13065,3,MZ,1,100,24
1575568732.387533,77638.000,13065,3,MZ,1,100,25
1575568732.429957,77673.667,13083,3,MZ,1,100,25
1575568732.472382,77709.333,13083,3,MZ,1,100,24
1575568732.514807,77745.000,13083,3,MZ,1,100,24
1575568732.555249,77779.000,13101,3,MZ,1,100,25
1575568732.595692,77813.000,13101,3,MZ,1,100,25
1575568732.636134,77847.000,13101,3,MZ,1,100,25
1575568732.680542,77884.333,13119,3,MZ,1,100,25
1575568732.724949,77921.667,13119,3,MZ,1,100,24
1575568732.769356,77959.000,13119,3,MZ,1,100,25
1575568732.810195,77993.333,13137,3,MZ,1,100,25
1575568732.851034,78027.667,13137,3,MZ,1,100,26
1575568732.891873,78062.000,13137,3,MZ,1,100,24
1575568732.929539,78093.667,13156,3,MZ,1,100,25
1575568732.967206,78125.333,13156,3,MZ,1,100,25
1575568733.004873,78157.000,13156,3,MZ,1,100,25
1575568733.043730,78189.667,13174,3,MZ,1,100,24
1575568733.082586,78222.333,13174,3,MZ,1,100,25
1575568733.121442,78255.000,13174,3,MZ,1,100,25
1575568733.162281,78289.333,13191,3,MZ,1,100,26
1575568733.203120,78323.667,13191,3,MZ,1,100,25
1575568733.243959,78358.000,13191,3,MZ,1,100,25
1575568733.285353,78392.800,13212,5,MZ,1,100,24
1575568733.326747,78427.600,13212,5,MZ,1,100,24
1575568733.368141,78462.400,13212,5,MZ,1,100,24
1575568733.409535,78497.200,13212,5,MZ,1,100,26
1575568733.450929,78532.000,13212,5,MZ,1,100,25
1575568733.490181,78565.000,13232,2,MZ,1,100,25
1575568733.529434,78598.000,13232,2,MZ,1,100,25
1575568733.567498,78630.000,13250,4,MZ,1,100,25
1575568733.605561,78662.000,13250,4,MZ,1,100,25
1575568733.643625,78694.000,13250,4,MZ,1,100,24
1575568733.681688,78726.000,13250,4,MZ,1,100,24
1575568733.726888,78764.000,13268,2,MZ,1,100,25
1575568733.772089,78802.000,13268,2,MZ,1,100,25
1575568733.812134,78835.667,13286,3,MZ,1,100,26
1575568733.852180,78869.333,13286,3,MZ,1,100,25
1575568733.892226,78903.000,13286,3,MZ,1,100,24
1575568733.933858,78938.000,13304,3,MZ,1,100,24
1575568733.975490,78973.000,13304,3,MZ,1,100,24
1575568734.017122,79008.000,13304,3,MZ,1,100,25
1575568734.057564,79042.000,13322,3,MZ,1,100,26
1575568734.098006,79076.000,13322,3,MZ,1,100,24
1575568734.138449,79110.000,13322,3,MZ,1,100,26
1575568734.176116,79141.667,13338,3,MZ,1,100,25
1575568734.213783,79173.333,13338,3,MZ,1,100,25
1575568734.251449,79205.000,13338,3,MZ,1,100,26
1575568734.290107,79237.500,13356,4,MZ,1,100,25
1575568734.328766,79270.000,13356,4,MZ,1,100,24
1575568734.367424,79302.500,13356,4,MZ,1,100,24
1575568734.406082,79335.000,13356,4,MZ,1,100,25
1575568734.452472,79374.000,13374,2,MZ,1,100,24
1575568734.498861,79413.000,13374,2,MZ,1,100,25
1575568734.540097,79447.667,13392,3,MZ,1,100,24
1575568734.581332,79482.333,13392,3,MZ,1,100,24
1575568734.622567,79517.000,13392,3,MZ,1,100,26
1575568734.664199,79552.000,13410,3,MZ,1,100,26
1575568734.705831,79587.000,13410,3,MZ,1,100,25
1575568734.747463,79622.000,13410,3,MZ,1,100,24
1575568734.785130,79653.667,13428,3,MZ,1,100,25
1575568734.822797,79685.333,13428,3,MZ,1,100,25
1575568734.860464,79717.000,13428,3,MZ,1,100,25
1575568734.899320,79749.667,13447,3,MZ,1,100,26
1575568734.938176,79782.333,13447,3,MZ,1,100,24
1575568734.977033,79815.000,13447,3,MZ,1,100,25
1575568735.017475,79849.000,13465,3,MZ,1,100,26
1575568735.057917,79883.000,13465,3,MZ,1,100,24
1575568735.098360,79917.000,13465,3,MZ,1,100,24
1575568735.139595,79951.667,13482,3,MZ,1,100,24
1575568735.180830,79986.333,13482,3,MZ,1,100,26
1575568735.222066,80021.000,13482,3,MZ,1,100,24
1575568735.267266,80059.000,13500,3,MZ,1,100,24
1575568735.312466,80097.000,13500,3,MZ,1,100,24
1575568735.357667,80135.000,13500,3,MZ,1,100,26
1575568735.394937,80166.333,13518,3,MZ,1,100,25
1575568735.432208,80197.667,13518,3,MZ,1,100,26
1575568735.469478,80229.000,13518,3,MZ,1,100,25
1575568735.507145,80260.667,13534,3,MZ,1,100,24
1575568735.544812,80292.333,13534,3,MZ,1,100,25
1575568735.582479,80324.000,13534,3,MZ,1,100,24
1575568735.623317,80358.333,13552,3,MZ,1,100,25
1575568735.664156,80392.667,13552,3,MZ,1,100,25
1575568735.704995,80427.000,13552,3,MZ,1,100,25
1575568735.746230,80461.667,13570,3,MZ,1,100,26
1575568735.787466,80496.333,13570,3,MZ,1,100,25
1575568735.828701,80531.000,13570,3,MZ,1,100,25
1575568735.869540,80565.333,13589,3,MZ,1,100,26
1575568735.910379,80599.667,13589,3,MZ,1,100,25
1575568735.951218,80634.000,13589,3,MZ,1,100,24
1575568735.990074,80666.667,13607,3,MZ,1,100,26
1575568736.028930,80699.333,13607,3,MZ,1,100,26
1575568736.067787,80732.000,13607,3,MZ,1,100,25
1575568736.104661,80763.000,13625,3,MZ,1,100,25
1575568736.141535,80794.000,13625,3,MZ,1,100,26
1575568736.178409,80825.000,13625,3,MZ,1,100,25
1575568736.220040,80860.000,13643,3,MZ,1,100,26
1575568736.261672,80895.000,13643,3,MZ,1,100,26
1575568736.303304,80930.000,13643,3,MZ,1,100,25
1575568736.341764,80962.333,13661,3,MZ,1,100,25
1575568736.380224,80994.667,13661,3,MZ,1,100,24
1575568736.418684,81027.000,13661,3,MZ,1,100,26
1575568736.464281,81065.333,13678,3,MZ,1,100,26
1575568736.509877,81103.667,13678,3,MZ,1,100,25
1575568736.555474,81142.000,13678,3,MZ,1,100,27
1575568736.596709,81176.667,13694,3,MZ,1,100,26
1575568736.637945,81211.333,13694,3,MZ,1,100,25
1575568736.679180,81246.000,13694,3,MZ,1,100,25
1575568736.720812,81281.000,13712,3,MZ,1,100,25
1575568736.762444,81316.000,13712,3,MZ,1,100,25
1575568736.804075,81351.000,13712,3,MZ,1,100,25
1575568736.845707,81386.000,13731,3,MZ,1,100,26
1575568736.887339,81421.000,13731,3,MZ,1,100,25
1575568736.928971,81456.000,13731,3,MZ,1,100,26
1575568736.971198,81491.500,13749,2,MZ,1,100,25
1575568737.013424,81527.000,13749,2,MZ,1,100,26
1575568737.051190,81558.750,13767,4,MZ,1,100,26
1575568737.088956,81590.500,13767,4,MZ,1,100,26
1575568737.126722,81622.250,13767,4,MZ,1,100,26
1575568737.164488,81654.000,13767,4,MZ,1,100,25
1575568737.204138,81687.333,13785,3,MZ,1,100,25
1575568737.243787,81720.667,13785,3,MZ,1,100,25
1575568737.283437,81754.000,13785,3,MZ,1,100,26
1575568737.323482,81787.667,13803,3,MZ,1,100,25
1575568737.363528,81821.333,13803,3,MZ,1,100,26
1575568737.403574,81855.000,13803,3,MZ,1,100,24
1575568737.445206,81890.000,13820,3,MZ,1,100,26
1575568737.486838,81925.000,13820,3,MZ,1,100,26
1575568737.528470,81960.000,13820,3,MZ,1,100,25
1575568737.570696,81995.500,13838,2,MZ,1,100,26
1575568737.612923,82031.000,13838,2,MZ,1,100,26
1575568737.655348,82066.667,13856,3,MZ,1,100,26
1575568737.697772,82102.333,13856,3,MZ,1,100,25
1575568737.740197,82138.000,13856,3,MZ,1,100,26
1575568737.777864,82169.667,13872,3,MZ,1,100,26
1575568737.815531,82201.333,13872,3,MZ,1,100,26
1575568737.853198,82233.000,13872,3,MZ,1,100,25
1575568737.893343,82266.750,13891,4,MZ,1,100,25
1575568737.933488,82300.500,13891,4,MZ,1,100,25
1575568737.973633,82334.250,13891,4,MZ,1,100,26
1575568738.013778,82368.000,13891,4,MZ,1,100,26
1575568738.054220,82402.000,13909,2,MZ,1,100,26
1575568738.094662,82436.000,13909,2,MZ,1,100,25
1575568738.136294,82471.000,13927,3,MZ,1,100,26
1575568738.177926,82506.000,13927,3,MZ,1,100,25
1575568738.219558,82541.000,13927,3,MZ,1,100,25
1575568738.258414,82573.667,13945,3,MZ,1,100,26
1575568738.297271,82606.333,13945,3,MZ,1,100,26
1575568738.336127,82639.000,13945,3,MZ,1,100,25
1575568738.373794,82670.667,13963,3,MZ,1,100,24
1575568738.411461,82702.333,13963,3,MZ,1,100,26
1575568738.449128,82734.000,13963,3,MZ,1,100,26
1575568738.492346,82770.333,13981,3,MZ,1,100,26
1575568738.535563,82806.667,13981,3,MZ,1,100,26
1575568738.578781,82843.000,13981,3,MZ,1,100,25
1575568738.620017,82877.667,13999,3,MZ,1,100,25
1575568738.661252,82912.333,13999,3,MZ,1,100,24
1575568738.702487,82947.000,13999,3,MZ,1,100,25
1575568738.743723,82981.667,14016,3,MZ,1,100,25
1575568738.784958,83016.333,14016,3,MZ,1,100,26
1575568738.826193,83051.000,14016,3,MZ,1,100,25
1575568738.866239,83084.667,14035,3,MZ,1,100,24
1575568738.906285,83118.333,14035,3,MZ,1,100,24
1575568738.946331,83152.000,14035,3,MZ,1,100,25
1575568738.984394,83184.000,14053,3,MZ,1,100,25
1575568739.022458,83216.000,14053,3,MZ,1,100,25
1575568739.060521,83248.000,14053,3,MZ,1,100,26
1575568739.099774,83281.000,14069,3,MZ,1,100,26
1575568739.139027,83314.000,14069,3,MZ,1,100,26
1575568739.178280,83347.000,14069,3,MZ,1,100,26
1575568739.219119,83381.333,14087,3,MZ,1,100,24
1575568739.259957,83415.667,14087,3,MZ,1,100,26
1575568739.300796,83450.000,14087,3,MZ,1,100,25
1575568739.344093,83486.400,14108,5,MZ,1,100,26
1575568739.387390,83522.800,14108,5,MZ,1,100,24
1575568739.430687,83559.200,14108,5,MZ,1,100,25
1575568739.473985,83595.600,14108,5,MZ,1,100,25
1575568739.517282,83632.000,14108,5,MZ,1,100,25
1575568739.554552,83663.333,14128,3,MZ,1,100,26
1575568739.591823,83694.667,14128,3,MZ,1,100,24
1575568739.629093,83726.000,14128,3,MZ,1,100,25
1575568739.667553,83758.333,14146,3,MZ,1,100,25
1575568739.706013,83790.667,14146,3,MZ,1,100,26
1575568739.744473,83823.000,14146,3,MZ,1,100,24
1575568739.786104,83858.000,14162,3,MZ,1,100,25
1575568739.827736,83893.000,14162,3,MZ,1,100,26
1575568739.869368,83928.000,14162,3,MZ,1,100,26
1575568739.910207,83962.333,14181,3,MZ,1,100,26
1575568739.951046,83996.667,14181,3,MZ,1,100,26
1575568739.991885,84031.000,14181,3,MZ,1,100,26
1575568740.033516,84066.000,14199,3,MZ,1,100,25
1575568740.075148,84101.000,14199,3,MZ,1,100,27
1575568740.116780,84136.000,14199,3,MZ,1,100,26
1575568740.154844,84168.000,14217,2,MZ,1,100,27
1575568740.192907,84200.000,14217,2,MZ,1,100,26
1575568740.232754,84233.500,14235,4,MZ,1,100,26
1575568740.272602,84267.000,14235,4,MZ,1,100,27
1575568740.312450,84300.500,14235,4,MZ,1,100,26
1575568740.352297,84334.000,14235,4,MZ,1,100,26
1575568740.389964,84365.667,14253,3,MZ,1,100,26
1575568740.427631,84397.333,14253,3,MZ,1,100,26
1575568740.465298,84429.000,14253,3,MZ,1,100,26
1575568740.507723,84464.667,14271,3,MZ,1,100,26
1575568740.550148,84500.333,14271,3,MZ,1,100,24
1575568740.592572,84536.000,14271,3,MZ,1,100,24
1575568740.630636,84568.000,14289,3,MZ,1,100,26
1575568740.668699,84600.000,14289,3,MZ,1,100,25
1575568740.706763,84632.000,14289,3,MZ,1,100,24
1575568740.748791,84667.333,14306,3,MZ,1,100,24
1575568740.790819,84702.667,14306,3,MZ,1,100,24
1575568740.832848,84738.000,14306,3,MZ,1,100,24
1575568740.874480,84773.000,14325,3,MZ,1,100,24
1575568740.916111,84808.000,14325,3,MZ,1,100,24
1575568740.957743,84843.000,14325,3,MZ,1,100,24
1575568740.998979,84877.667,14341,3,MZ,1,100,25
1575568741.040214,84912.333,14341,3,MZ,1,100,24
1575568741.081449,84947.000,14341,3,MZ,1,100,24
1575568741.122288,84981.333,14359,3,MZ,1,100,24
1575568741.163127,85015.667,14359,3,MZ,1,100,24
1575568741.203966,85050.000,14359,3,MZ,1,100,24
1575568741.241633,85081.667,14377,3,MZ,1,100,25
1575568741.279299,85113.333,14377,3,MZ,1,100,24
1575568741.316967,85145.000,14377,3,MZ,1,100,26
1575568741.355823,85177.667,14395,3,MZ,1,100,25
1575568741.394679,85210.333,14395,3,MZ,1,100,25
1575568741.433536,85243.000,14395,3,MZ,1,100,24
1575568741.474771,85277.667,14413,3,MZ,1,100,26
1575568741.516006,85312.333,14413,3,MZ,1,100,25
1575568741.557242,85347.000,14413,3,MZ,1,100,26
1575568741.598477,85381.667,14431,3,MZ,1,100,24
1575568741.639712,85416.333,14431,3,MZ,1,100,26
1575568741.680948,85451.000,14431,3,MZ,1,100,27
1575568741.729122,85491.500,14449,2,MZ,1,100,26
1575568741.777296,85532.000,14449,2,MZ,1,100,26
1575568741.814963,85563.667,14468,3,MZ,1,100,26
1575568741.852629,85595.333,14468,3,MZ,1,100,26
1575568741.890296,85627.000,14468,3,MZ,1,100,26
1575568741.928954,85659.500,14485,4,MZ,1,100,26
1575568741.967613,85692.000,14485,4,MZ,1,100,26
1575568742.006271,85724.500,14485,4,MZ,1,100,27
1575568742.044929,85757.000,14485,4,MZ,1,100,25
1575568742.084776,85790.500,14503,2,MZ,1,100,26
1575568742.124624,85824.000,14503,2,MZ,1,100,25
1575568742.165463,85858.333,14519,3,MZ,1,100,26
1575568742.206302,85892.667,14519,3,MZ,1,100,27
1575568742.247141,85927.000,14519,3,MZ,1,100,26
1575568742.288773,85962.000,14537,3,MZ,1,100,26
1575568742.330404,85997.000,14537,3,MZ,1,100,26
1575568742.372036,86032.000,14537,3,MZ,1,100,27
1575568742.410496,86064.333,14555,3,MZ,1,100,25
1575568742.448956,86096.667,14555,3,MZ,1,100,25
1575568742.487416,86129.000,14555,3,MZ,1,100,24
1575568742.529048,86164.000,14573,3,MZ,1,100,25
1575568742.570679,86199.000,14573,3,MZ,1,100,24
1575568742.612311,86234.000,14573,3,MZ,1,100,24
1575568742.652754,86268.000,14591,3,MZ,1,100,24
1575568742.693196,86302.000,14591,3,MZ,1,100,25
1575568742.733638,86336.000,14591,3,MZ,1,100,24
1575568742.775270,86371.000,14609,3,MZ,1,100,25
1575568742.816902,86406.000,14609,3,MZ,1,100,24
1575568742.858534,86441.000,14609,3,MZ,1,100,25
1575568742.900166,86476.000,14628,3,MZ,1,100,25
1575568742.941797,86511.000,14628,3,MZ,1,100,25
1575568742.983429,86546.000,14628,3,MZ,1,100,24
1575568743.022682,86579.000,14646,3,MZ,1,100,26
1575568743.061935,86612.000,14646,3,MZ,1,100,25
1575568743.101188,86645.000,14646,3,MZ,1,100,25
1575568743.139251,86677.000,14663,3,MZ,1,100,26
1575568743.177315,86709.000,14663,3,MZ,1,100,26
1575568743.215378,86741.000,14663,3,MZ,1,100,26
1575568743.255028,86774.333,14681,3,MZ,1,100,27
1575568743.294677,86807.667,14681,3,MZ,1,100,26
1575568743.334326,86841.000,14681,3,MZ,1,100,26
1575568743.379527,86879.000,14697,3,MZ,1,100,26
1575568743.424727,86917.000,14697,3,MZ,1,100,26
1575568743.469927,86955.000,14697,3,MZ,1,100,26
1575568743.510766,86989.333,14715,3,MZ,1,100,26
1575568743.551605,87023.667,14715,3,MZ,1,100,27
1575568743.592444,87058.000,14715,3,MZ,1,100,27
1575568743.631696,87091.000,14733,3,MZ,1,100,27
1575568743.670949,87124.000,14733,3,MZ,1,100,26
1575568743.710202,87157.000,14733,3,MZ,1,100,26
1575568743.747869,87188.667,14751,3,MZ,1,100,27
1575568743.785536,87220.333,14751,3,MZ,1,100,24
1575568743.823203,87252.000,14751,3,MZ,1,100,26
1575568743.862852,87285.333,14770,3,MZ,1,100,26
1575568743.902502,87318.667,14770,3,MZ,1,100,25
1575568743.942151,87352.000,14770,3,MZ,1,100,26
1575568743.983783,87387.000,14788,3,MZ,1,100,26
1575568744.025415,87422.000,14788,3,MZ,1,100,26
1575568744.067047,87457.000,14788,3,MZ,1,100,25
1575568744.107885,87491.333,14806,3,MZ,1,100,25
1575568744.148724,87525.667,14806,3,MZ,1,100,26
1575568744.189563,87560.000,14806,3,MZ,1,100,26
1575568744.232384,87596.000,14823,3,MZ,1,100,26
1575568744.275206,87632.000,14823,3,MZ,1,100,25
1575568744.318027,87668.000,14823,3,MZ,1,100,27
1575568744.359262,87702.667,14841,3,MZ,1,100,27
1575568744.400498,87737.333,14841,3,MZ,1,100,26
1575568744.441733,87772.000,14841,3,MZ,1,100,27
1575568744.483365,87807.000,14859,3,MZ,1,100,26
1575568744.524997,87842.000,14859,3,MZ,1,100,26
1575568744.566629,87877.000,14859,3,MZ,1,100,25
1575568744.605088,87909.333,14875,3,MZ,1,100,25
1575568744.643548,87941.667,14875,3,MZ,1,100,26
1575568744.682008,87974.000,14875,3,MZ,1,100,25
1575568744.720468,88006.333,14893,3,MZ,1,100,26
1575568744.758928,88038.667,14893,3,MZ,1,100,26
1575568744.797388,88071.000,14893,3,MZ,1,100,26
1575568744.838623,88105.667,14912,3,MZ,1,100,27
1575568744.879858,88140.333,14912,3,MZ,1,100,27
1575568744.921094,88175.000,14912,3,MZ,1,100,26
1575568744.961536,88209.000,14930,3,MZ,1,100,26
1575568745.001979,88243.000,14930,3,MZ,1,100,26
1575568745.042421,88277.000,14930,3,MZ,1,100,26
1575568745.083656,88311.667,14948,3,MZ,1,100,26
1575568745.124892,88346.333,14948,3,MZ,1,100,26
1575568745.166127,88381.000,14948,3,MZ,1,100,27
1575568745.207759,88416.000,14966,2,MZ,1,100,26
1575568745.249391,88451.000,14966,2,MZ,1,100,26
1575568745.289238,88484.500,14984,4,MZ,1,100,28
1575568745.329086,88518.000,14984,4,MZ,1,100,27
1575568745.368933,88551.500,14984,4,MZ,1,100,26
1575568745.408781,88585.000,14984,4,MZ,1,100,28
1575568745.447083,88617.200,15005,5,MZ,1,100,26
1575568745.485384,88649.400,15005,5,MZ,1,100,26
1575568745.523685,88681.600,15005,5,MZ,1,100,27
1575568745.561986,88713.800,15005,5,MZ,1,100,27
1575568745.600288,88746.000,15005,5,MZ,1,100,26
1575568745.641919,88781.000,15025,2,MZ,1,100,27
1575568745.683551,88816.000,15025,2,MZ,1,100,27
1575568745.727958,88853.333,15043,3,MZ,1,100,27
1575568745.772366,88890.667,15043,3,MZ,1,100,28
1575568745.816773,88928.000,15043,3,MZ,1,100,27
1575568745.858405,88963.000,15062,3,MZ,1,100,27
1575568745.900037,88998.000,15062,3,MZ,1,100,27
1575568745.941669,89033.000,15062,3,MZ,1,100,28
1575568745.980129,89065.333,15080,3,MZ,1,100,27
1575568746.018588,89097.667,15080,3,MZ,1,100,28
1575568746.057048,89130.000,15080,3,MZ,1,100,26
1575568746.095508,89162.333,15098,3,MZ,1,100,29
1575568746.133968,89194.667,15098,3,MZ,1,100,27
1575568746.172428,89227.000,15098,3,MZ,1,100,28
1575568746.211681,89260.000,15115,3,MZ,1,100,28
1575568746.250934,89293.000,15115,3,MZ,1,100,28
1575568746.290187,89326.000,15115,3,MZ,1,100,29
1575568746.331818,89361.000,15133,3,MZ,1,100,28
1575568746.373450,89396.000,15133,3,MZ,1,100,28
1575568746.415082,89431.000,15133,3,MZ,1,100,28
1575568746.455921,89465.333,15149,3,MZ,1,100,27
1575568746.496760,89499.667,15149,3,MZ,1,100,28
1575568746.537599,89534.000,15149,3,MZ,1,100,28
1575568746.580024,89569.667,15167,3,MZ,1,100,27
1575568746.622448,89605.333,15167,3,MZ,1,100,27
1575568746.664873,89641.000,15167,3,MZ,1,100,26
1575568746.702936,89673.000,15185,3,MZ,1,100,27
1575568746.741000,89705.000,15185,3,MZ,1,100,27
1575568746.779063,89737.000,15185,3,MZ,1,100,24
1575568746.818713,89770.333,15204,3,MZ,1,100,27
1575568746.858362,89803.667,15204,3,MZ,1,100,26
1575568746.898011,89837.000,15204,3,MZ,1,100,26
1575568746.939247,89871.667,15222,3,MZ,1,100,27
1575568746.980482,89906.333,15222,3,MZ,1,100,26
1575568747.021717,89941.000,15222,3,MZ,1,100,28
1575568747.062953,89975.667,15240,3,MZ,1,100,27
1575568747.104188,90010.333,15240,3,MZ,1,100,26
1575568747.145423,90045.000,15240,3,MZ,1,100,28
1575568747.185073,90078.333,15258,3,MZ,1,100,26
1575568747.224722,90111.667,15258,3,MZ,1,100,27
1575568747.264371,90145.000,15258,3,MZ,1,100,26
1575568747.302435,90177.000,15276,3,MZ,1,100,26
1575568747.340498,90209.000,15276,3,MZ,1,100,27
1575568747.378562,90241.000,15276,3,MZ,1,100,27
1575568747.422176,90277.667,15294,3,MZ,1,100,26
1575568747.465790,90314.333,15294,3,MZ,1,100,27
1575568747.509405,90351.000,15294,3,MZ,1,100,27
1575568747.550640,90385.667,15311,3,MZ,1,100,28
1575568747.591875,90420.333,15311,3,MZ,1,100,27
1575568747.633111,90455.000,15311,3,MZ,1,100,28
1575568747.673949,90489.333,15328,3,MZ,1,100,26
1575568747.714788,90523.667,15328,3,MZ,1,100,28
1575568747.755627,90558.000,15328,3,MZ,1,100,27
1575568747.795277,90591.333,15345,3,MZ,1,100,26
1575568747.834926,90624.667,15345,3,MZ,1,100,26
1575568747.874575,90658.000,15345,3,MZ,1,100,28
1575568747.911449,90689.000,15364,3,MZ,1,100,27
1575568747.948323,90720.000,15364,3,MZ,1,100,26
1575568747.985197,90751.000,15364,3,MZ,1,100,27
1575568748.025639,90785.000,15382,3,MZ,1,100,28
1575568748.066082,90819.000,15382,3,MZ,1,100,27
1575568748.106524,90853.000,15382,3,MZ,1,100,27
1575568748.146966,90887.000,15400,3,MZ,1,100,28
1575568748.187409,90921.000,15400,3,MZ,1,100,27
1575568748.227851,90955.000,15400,3,MZ,1,100,27
1575568748.269483,90990.000,15418,3,MZ,1,100,27
1575568748.311115,91025.000,15418,3,MZ,1,100,26
1575568748.352747,91060.000,15418,3,MZ,1,100,27
1575568748.394378,91095.000,15436,3,MZ,1,100,26
1575568748.436010,91130.000,15436,3,MZ,1,100,26
1575568748.477642,91165.000,15436,3,MZ,1,100,27
1575568748.523437,91203.500,15454,2,MZ,1,100,27
1575568748.569232,91242.000,15454,2,MZ,1,100,27
1575568748.610467,91276.667,15471,3,MZ,1,100,26
1575568748.651703,91311.333,15471,3,MZ,1,100,27
1575568748.692938,91346.000,15471,3,MZ,1,100,26
1575568748.730605,91377.667,15489,3,MZ,1,100,27
1575568748.768272,91409.333,15489,3,MZ,1,100,28
1575568748.805939,91441.000,15489,3,MZ,1,100,26
1575568748.845192,91474.000,15508,4,MZ,1,100,26
1575568748.884445,91507.000,15508,4,MZ,1,100,27
1575568748.923697,91540.000,15508,4,MZ,1,100,26
1575568748.962950,91573.000,15508,4,MZ,1,100,27
1575568749.003988,91607.500,15524,2,MZ,1,100,26
1575568749.045025,91642.000,15524,2,MZ,1,100,26
1575568749.086260,91676.667,15542,3,MZ,1,100,27
1575568749.127495,91711.333,15542,3,MZ,1,100,27
1575568749.168730,91746.000,15542,3,MZ,1,100,26
1575568749.210759,91781.333,15560,3,MZ,1,100,26
1575568749.252787,91816.667,15560,3,MZ,1,100,26
1575568749.294816,91852.000,15560,3,MZ,1,100,26
1575568749.332879,91884.000,15578,3,MZ,1,100,27
1575568749.370942,91916.000,15578,3,MZ,1,100,27
1575568749.409006,91948.000,15578,3,MZ,1,100,27
1575568749.447961,91980.750,15596,4,MZ,1,100,27
1575568749.486917,92013.500,15596,4,MZ,1,100,26
1575568749.525872,92046.250,15596,4,MZ,1,100,26
1575568749.564828,92079.000,15596,4,MZ,1,100,26
1575568749.603288,92111.333,15614,3,MZ,1,100,27
1575568749.641747,92143.667,15614,3,MZ,1,100,27
1575568749.680207,92176.000,15614,3,MZ,1,100,27
1575568749.724218,92213.000,15632,2,MZ,1,100,28
1575568749.768229,92250.000,15632,2,MZ,1,100,26
1575568749.808275,92283.667,15651,3,MZ,1,100,26
1575568749.848321,92317.333,15651,3,MZ,1,100,27
1575568749.888367,92351.000,15651,3,MZ,1,100,26
1575568749.929998,92386.000,15668,3,MZ,1,100,26
1575568749.971630,92421.000,15668,3,MZ,1,100,26
1575568750.013262,92456.000,15668,3,MZ,1,100,26
1575568750.054497,92490.667,15686,3,MZ,1,100,26
1575568750.095733,92525.333,15686,3,MZ,1,100,25
1575568750.136968,92560.000,15686,3,MZ,1,100,27
1575568750.174635,92591.667,15702,3,MZ,1,100,27
1575568750.212302,92623.333,15702,3,MZ,1,100,26
1575568750.249969,92655.000,15702,3,MZ,1,100,26
1575568750.289222,92688.000,15720,4,MZ,1,100,25
1575568750.328475,92721.000,15720,4,MZ,1,100,26
1575568750.367728,92754.000,15720,4,MZ,1,100,25
1575568750.406980,92787.000,15720,4,MZ,1,100,26
1575568750.447423,92821.000,15738,3,MZ,1,100,28
1575568750.487865,92855.000,15738,3,MZ,1,100,26
1575568750.528307,92889.000,15738,3,MZ,1,100,25
1575568750.575292,92928.500,15756,2,MZ,1,100,26
1575568750.622276,92968.000,15756,2,MZ,1,100,26
1575568750.663908,93003.000,15774,3,MZ,1,100,26
1575568750.705540,93038.000,15774,3,MZ,1,100,27
1575568750.747172,93073.000,15774,3,MZ,1,100,28
1575568750.784839,93104.667,15792,3,MZ,1,100,27
1575568750.822506,93136.333,15792,3,MZ,1,100,25
1575568750.860173,93168.000,15792,3,MZ,1,100,26
1575568750.899426,93201.000,15811,3,MZ,1,100,27
1575568750.938678,93234.000,15811,3,MZ,1,100,26
1575568750.977931,93267.000,15811,3,MZ,1,100,26
1575568751.018373,93301.000,15829,3,MZ,1,100,27
1575568751.058816,93335.000,15829,3,MZ,1,100,27
1575568751.099258,93369.000,15829,3,MZ,1,100,27
1575568751.140890,93404.000,15846,3,MZ,1,100,27
1575568751.182522,93439.000,15846,3,MZ,1,100,26
1575568751.224154,93474.000,15846,3,MZ,1,100,26
1575568751.266182,93509.333,15864,3,MZ,1,100,25
1575568751.308210,93544.667,15864,3,MZ,1,100,27
1575568751.350239,93580.000,15864,3,MZ,1,100,27
1575568751.391870,93615.000,15880,3,MZ,1,100,27
1575568751.433502,93650.000,15880,3,MZ,1,100,27
1575568751.475134,93685.000,15880,3,MZ,1,100,27
1575568751.514149,93717.800,15901,5,MZ,1,100,27
1575568751.553164,93750.600,15901,5,MZ,1,100,26
1575568751.592179,93783.400,15901,5,MZ,1,100,28
1575568751.631194,93816.200,15901,5,MZ,1,100,28
1575568751.670209,93849.000,15901,5,MZ,1,100,26
1575568751.711246,93883.500,15920,2,MZ,1,100,27
1575568751.752283,93918.000,15920,2,MZ,1,100,27
1575568751.793519,93952.667,15939,3,MZ,1,100,26
1575568751.834754,93987.333,15939,3,MZ,1,100,26
1575568751.875989,94022.000,15939,3,MZ,1,100,27
1575568751.915540,94055.250,15957,4,MZ,1,100,27
1575568751.955090,94088.500,15957,4,MZ,1,100,28
1575568751.994640,94121.750,15957,4,MZ,1,100,27
1575568752.034190,94155.000,15957,4,MZ,1,100,27
1575568752.071064,94186.000,15975,3,MZ,1,100,26
1575568752.107938,94217.000,15975,3,MZ,1,100,28
1575568752.144812,94248.000,15975,3,MZ,1,100,27
1575568752.185254,94282.000,15991,3,MZ,1,100,27
1575568752.225697,94316.000,15991,3,MZ,1,100,27
1575568752.266139,94350.000,15991,3,MZ,1,100,27
1575568752.313124,94389.500,16009,2,MZ,1,100,26
1575568752.360108,94429.000,16009,2,MZ,1,100,27
1575568752.401343,94463.667,16027,3,MZ,1,100,28
1575568752.442579,94498.333,16027,3,MZ,1,100,26
1575568752.483814,94533.000,16027,3,MZ,1,100,27
1575568752.525446,94568.000,16045,3,MZ,1,100,28
1575568752.567078,94603.000,16045,3,MZ,1,100,26
1575568752.608710,94638.000,16045,3,MZ,1,100,26
1575568752.650342,94673.000,16063,3,MZ,1,100,27
1575568752.691973,94708.000,16063,3,MZ,1,100,27
1575568752.733605,94743.000,16063,3,MZ,1,100,28
1575568752.774841,94777.667,16081,3,MZ,1,100,27
1575568752.816076,94812.333,16081,3,MZ,1,100,27
1575568752.857311,94847.000,16081,3,MZ,1,100,26
1575568752.894978,94878.667,16099,3,MZ,1,100,28
1575568752.932645,94910.333,16099,3,MZ,1,100,27
1575568752.970312,94942.000,16099,3,MZ,1,100,28
1575568753.009961,94975.333,16117,3,MZ,1,100,27
1575568753.049611,95008.667,16117,3,MZ,1,100,27
1575568753.089260,95042.000,16117,3,MZ,1,100,28
1575568753.129702,95076.000,16135,3,MZ,1,100,28
1575568753.170145,95110.000,16135,3,MZ,1,100,28
1575568753.210587,95144.000,16135,3,MZ,1,100,27
1575568753.251822,95178.667,16151,3,MZ,1,100,27
1575568753.293058,95213.333,16151,3,MZ,1,100,27
1575568753.334293,95248.000,16151,3,MZ,1,100,28
1575568753.379493,95286.000,16169,3,MZ,1,100,27
1575568753.424694,95324.000,16169,3,MZ,1,100,26
1575568753.469894,95362.000,16169,3,MZ,1,100,27
1575568753.507957,95394.000,16187,3,MZ,1,100,28
1575568753.546021,95426.000,16187,3,MZ,1,100,28
1575568753.584084,95458.000,16187,3,MZ,1,100,28
1575568753.622148,95490.000,16205,3,MZ,1,100,30
1575568753.660211,95522.000,16205,3,MZ,1,100,28
1575568753.698274,95554.000,16205,3,MZ,1,100,29
1575568753.738717,95588.000,16223,3,MZ,1,100,30
1575568753.779159,95622.000,16223,3,MZ,1,100,30
1575568753.819601,95656.000,16223,3,MZ,1,100,32
1575568753.860440,95690.333,16242,3,MZ,1,100,31
1575568753.901279,95724.667,16242,3,MZ,1,100,32
1575568753.942118,95759.000,16242,3,MZ,1,100,32
1575568753.983353,95793.667,16260,3,MZ,1,100,32
1575568754.024589,95828.333,16260,3,MZ,1,100,31
1575568754.065824,95863.000,16260,3,MZ,1,100,30
1575568754.104284,95895.333,16277,3,MZ,1,100,30
1575568754.142744,95927.667,16277,3,MZ,1,100,31
1575568754.181204,95960.000,16277,3,MZ,1,100,32
1575568754.218474,95991.333,16295,3,MZ,1,100,32
1575568754.255744,96022.667,16295,3,MZ,1,100,31
1575568754.293015,96054.000,16295,3,MZ,1,100,31
1575568754.337422,96091.333,16313,3,MZ,1,100,30
1575568754.381829,96128.667,16313,3,MZ,1,100,32
1575568754.426237,96166.000,16313,3,MZ,1,100,30
1575568754.467869,96201.000,16329,3,MZ,1,100,30
1575568754.509500,96236.000,16329,3,MZ,1,100,30
1575568754.551132,96271.000,16329,3,MZ,1,100,29
1575568754.592367,96305.667,16347,3,MZ,1,100,30
1575568754.633603,96340.333,16347,3,MZ,1,100,31
1575568754.674838,96375.000,16347,3,MZ,1,100,31
1575568754.714091,96408.000,16365,3,MZ,1,100,30
1575568754.753344,96441.000,16365,3,MZ,1,100,31
1575568754.792597,96474.000,16365,3,MZ,1,100,32
1575568754.829867,96505.333,16384,3,MZ,1,100,31
1575568754.867138,96536.667,16384,3,MZ,1,100,30
1575568754.904408,96568.000,16384,3,MZ,1,100,28
1575568754.944454,96601.667,16402,3,MZ,1,100,28
1575568754.984500,96635.333,16402,3,MZ,1,100,28
1575568755.024546,96669.000,16402,3,MZ,1,100,26
1575568755.066177,96704.000,16420,3,MZ,1,100,28
1575568755.107809,96739.000,16420,3,MZ,1,100,28
1575568755.149441,96774.000,16420,3,MZ,1,100,28
1575568755.196426,96813.500,16438,2,MZ,1,100,28
1575568755.243410,96853.000,16438,2,MZ,1,100,29
1575568755.282663,96886.000,16455,3,MZ,1,100,30
1575568755.321916,96919.000,16455,3,MZ,1,100,31
1575568755.361169,96952.000,16455,3,MZ,1,100,32
1575568755.399232,96984.000,16473,4,MZ,1,100,32
1575568755.437295,97016.000,16473,4,MZ,1,100,32
1575568755.475359,97048.000,16473,4,MZ,1,100,33
1575568755.513422,97080.000,16473,4,MZ,1,100,32
1575568755.552675,97113.000,16491,3,MZ,1,100,31
1575568755.591928,97146.000,16491,3,MZ,1,100,32
1575568755.631181,97179.000,16491,3,MZ,1,100,31
1575568755.672020,97213.333,16507,3,MZ,1,100,32
1575568755.712859,97247.667,16507,3,MZ,1,100,32
1575568755.753697,97282.000,16507,3,MZ,1,100,31
1575568755.794933,97316.667,16525,3,MZ,1,100,32
1575568755.836168,97351.333,16525,3,MZ,1,100,32
1575568755.877403,97386.000,16525,3,MZ,1,100,32
1575568755.916656,97419.000,16544,3,MZ,1,100,32
1575568755.955909,97452.000,16544,3,MZ,1,100,30
1575568755.995162,97485.000,16544,3,MZ,1,100,30
1575568756.035604,97519.000,16562,3,MZ,1,100,31
1575568756.076047,97553.000,16562,3,MZ,1,100,30
1575568756.116489,97587.000,16562,3,MZ,1,100,30
1575568756.154552,97619.000,16580,3,MZ,1,100,29
1575568756.192616,97651.000,16580,3,MZ,1,100,30
1575568756.230679,97683.000,16580,3,MZ,1,100,30
1575568756.272311,97718.000,16598,3,MZ,1,100,29
1575568756.313943,97753.000,16598,3,MZ,1,100,30
1575568756.355575,97788.000,16598,3,MZ,1,100,30
1575568756.396612,97822.500,16616,2,MZ,1,100,30
1575568756.437649,97857.000,16616,2,MZ,1,100,30
1575568756.474523,97888.000,16634,4,MZ,1,100,31
1575568756.511397,97919.000,16634,4,MZ,1,100,31
1575568756.548271,97950.000,16634,4,MZ,1,100,31
1575568756.585145,97981.000,16634,4,MZ,1,100,30
1575568756.631534,98020.000,16651,2,MZ,1,100,31
1575568756.677924,98059.000,16651,2,MZ,1,100,30
1575568756.718961,98093.500,16669,4,MZ,1,100,29
1575568756.759998,98128.000,16669,4,MZ,1,100,30
1575568756.801035,98162.500,16669,4,MZ,1,100,31
1575568756.842072,98197.000,16669,4,MZ,1,100,31
1575568756.883704,98232.000,16686,2,MZ,1,100,29
1575568756.925336,98267.000,16686,2,MZ,1,100,30
1575568756.965382,98300.667,16704,3,MZ,1,100,29
1575568757.005428,98334.333,16704,3,MZ,1,100,31
1575568757.045474,98368.000,16704,3,MZ,1,100,31
1575568757.083240,98399.750,16722,4,MZ,1,100,30
1575568757.121006,98431.500,16722,4,MZ,1,100,29
1575568757.158772,98463.250,16722,4,MZ,1,100,30
1575568757.196538,98495.000,16722,4,MZ,1,100,31
1575568757.236980,98529.000,16740,3,MZ,1,100,31
1575568757.277423,98563.000,16740,3,MZ,1,100,30
1575568757.317865,98597.000,16740,3,MZ,1,100,31
1575568757.359497,98632.000,16758,2,MZ,1,100,30
1575568757.401129,98667.000,16758,2,MZ,1,100,30
1575568757.446725,98705.333,16776,3,MZ,1,100,30
1575568757.492322,98743.667,16776,3,MZ,1,100,30
1575568757.537919,98782.000,16776,3,MZ,1,100,30
1575568757.576934,98814.800,16797,5,MZ,1,100,30
1575568757.615949,98847.600,16797,5,MZ,1,100,30
1575568757.654964,98880.400,16797,5,MZ,1,100,31
1575568757.693979,98913.200,16797,5,MZ,1,100,30
1575568757.732994,98946.000,16797,5,MZ,1,100,30
1575568757.771454,98978.333,16817,3,MZ,1,100,30
1575568757.809914,99010.667,16817,3,MZ,1,100,30
1575568757.848373,99043.000,16817,3,MZ,1,100,30
1575568757.888816,99077.000,16836,3,MZ,1,100,30
1575568757.929258,99111.000,16836,3,MZ,1,100,29
1575568757.969701,99145.000,16836,3,MZ,1,100,29
1575568758.009746,99178.667,16854,3,MZ,1,100,29
1575568758.049792,99212.333,16854,3,MZ,1,100,28
1575568758.089838,99246.000,16854,3,MZ,1,100,30
1575568758.131866,99281.333,16872,3,MZ,1,100,29
1575568758.173895,99316.667,16872,3,MZ,1,100,28
1575568758.215923,99352.000,16872,3,MZ,1,100,26
1575568758.257159,99386.667,16890,3,MZ,1,100,23
1575568758.298394,99421.333,16890,3,MZ,1,100,22
1575568758.339629,99456.000,16890,3,MZ,1,100,20
1575568758.378089,99488.333,16908,3,MZ,1,100,18
1575568758.416549,99520.667,16908,3,MZ,1,100,14
1575568758.455009,99553.000,16908,3,MZ,1,100,10
1575568758.495848,99587.333,16926,3,MZ,1,100, 8
1575568758.536686,99621.667,16926,3,MZ,1,100, 6
1575568758.577525,99656.000,16926,3,MZ,1,100, 4
1575568758.618364,99690.333,16943,3,MZ,1,100, 4
1575568758.659203,99724.667,16943,3,MZ,1,100, 5
1575568758.700042,99759.000,16943,3,MZ,1,100, 4
1575568758.741277,99793.667,16961,3,MZ,1,100, 6
1575568758.782512,99828.333,16961,3,MZ,1,100, 6
1575568758.823748,99863.000,16961,3,MZ,1,100, 5
1575568758.863001,99896.000,16978,3,MZ,1,100, 8
1575568758.902254,99929.000,16978,3,MZ,1,100,12
1575568758.941506,99962.000,16978,3,MZ,1,100,18
1575568758.979570,99994.000,16996,3,MZ,1,100,21
1575568759.017633,100026.000,16996,3,MZ,1,100,26
1575568759.055697,100058.000,16996,3,MZ,1,100,27
1575568759.095742,100091.667,17014,3,MZ,1,100,30
1575568759.135788,100125.333,17014,3,MZ,1,100,30
1575568759.175834,100159.000,17014,3,MZ,1,100,30
1575568759.221035,100197.000,17032,3,MZ,1,100,31
1575568759.266235,100235.000,17032,3,MZ,1,100,32
1575568759.311435,100273.000,17032,3,MZ,1,100,31
1575568759.352670,100307.667,17050,3,MZ,1,100,31
1575568759.393906,100342.333,17050,3,MZ,1,100,32
1575568759.435141,100377.000,17050,3,MZ,1,100,31
1575568759.472808,100408.667,17068,3,MZ,1,100,32
1575568759.510475,100440.333,17068,3,MZ,1,100,30
1575568759.548142,100472.000,17068,3,MZ,1,100,31
1575568759.586602,100504.333,17086,3,MZ,1,100,31
1575568759.625062,100536.667,17086,3,MZ,1,100,31
1575568759.663522,100569.000,17086,3,MZ,1,100,32
1575568759.703171,100602.333,17104,3,MZ,1,100,32
1575568759.742820,100635.667,17104,3,MZ,1,100,30
1575568759.782470,100669.000,17104,3,MZ,1,100,31
1575568759.824101,100704.000,17122,3,MZ,1,100,30
1575568759.865733,100739.000,17122,3,MZ,1,100,29
1575568759.907365,100774.000,17122,3,MZ,1,100,30
1575568759.948600,100808.667,17140,3,MZ,1,100,30
1575568759.989836,100843.333,17140,3,MZ,1,100,30
1575568760.031071,100878.000,17140,3,MZ,1,100,28
1575568760.074487,100914.500,17156,2,MZ,1,100,26
1575568760.117903,100951.000,17156,2,MZ,1,100,23
1575568760.159138,100985.667,17174,3,MZ,1,100,21
1575568760.200374,101020.333,17174,3,MZ,1,100,23
1575568760.241609,101055.000,17174,3,MZ,1,100,24
1575568760.283638,101090.333,17192,3,MZ,1,100,25
1575568760.325666,101125.667,17192,3,MZ,1,100,27
1575568760.367694,101161.000,17192,3,MZ,1,100,28
1575568760.405163,101192.500,17210,4,MZ,1,100,28
1575568760.442631,101224.000,17210,4,MZ,1,100,27
1575568760.480100,101255.500,17210,4,MZ,1,100,25
1575568760.517569,101287.000,17210,4,MZ,1,100,24
1575568760.554443,101318.000,17228,2,MZ,1,100,23
1575568760.591317,101349.000,17228,2,MZ,1,100,23
1575568760.632354,101383.500,17246,4,MZ,1,100,23
1575568760.673391,101418.000,17246,4,MZ,1,100,24
1575568760.714428,101452.500,17246,4,MZ,1,100,24
1575568760.755465,101487.000,17246,4,MZ,1,100,26
1575568760.796304,101521.333,17264,3,MZ,1,100,31
1575568760.837143,101555.667,17264,3,MZ,1,100,30
1575568760.877982,101590.000,17264,3,MZ,1,100,31
1575568760.918424,101624.000,17283,3,MZ,1,100,31
1575568760.958866,101658.000,17283,3,MZ,1,100,31
1575568760.999309,101692.000,17283,3,MZ,1,100,30
1575568761.040941,101727.000,17300,2,MZ,1,100,30
1575568761.082572,101762.000,17300,2,MZ,1,100,30
1575568761.122222,101795.333,17318,3,MZ,1,100,30
1575568761.161871,101828.667,17318,3,MZ,1,100,28
1575568761.201520,101862.000,17318,3,MZ,1,100,27
1575568761.239584,101894.000,17336,4,MZ,1,100,26
1575568761.277647,101926.000,17336,4,MZ,1,100,27
1575568761.315711,101958.000,17336,4,MZ,1,100,26
1575568761.353774,101990.000,17336,4,MZ,1,100,27
1575568761.394613,102024.333,17352,3,MZ,1,100,27
1575568761.435452,102058.667,17352,3,MZ,1,100,27
1575568761.476290,102093.000,17352,3,MZ,1,100,26
1575568761.523275,102132.500,17370,2,MZ,1,100,26
1575568761.570260,102172.000,17370,2,MZ,1,100,26
1575568761.610305,102205.667,17388,3,MZ,1,100,25
1575568761.650351,102239.333,17388,3,MZ,1,100,24
1575568761.690397,102273.000,17388,3,MZ,1,100,20
1575568761.731632,102307.667,17406,3,MZ,1,100,12
1575568761.772868,102342.333,17406,3,MZ,1,100, 6
1575568761.814103,102377.000,17406,3,MZ,1,100, 2
1575568761.851770,102408.667,17425,3,MZ,1,100, 1
1575568761.889437,102440.333,17425,3,MZ,1,100, 2
1575568761.927104,102472.000,17425,3,MZ,1,100, 2
1575568761.965960,102504.667,17443,3,MZ,1,100, 3
1575568762.004817,102537.333,17443,3,MZ,1,100, 4
1575568762.043673,102570.000,17443,3,MZ,1,100, 4
1575568762.084908,102604.667,17461,3,MZ,1,100, 5
1575568762.126144,102639.333,17461,3,MZ,1,100, 5
1575568762.167379,102674.000,17461,3,MZ,1,100, 6
1575568762.207821,102708.000,17478,3,MZ,1,100, 7
1575568762.248264,102742.000,17478,3,MZ,1,100, 8
1575568762.288706,102776.000,17478,3,MZ,1,100, 9
1575568762.333113,102813.333,17496,3,MZ,1,100,10
1575568762.377521,102850.667,17496,3,MZ,1,100,13
1575568762.421928,102888.000,17496,3,MZ,1,100,14
1575568762.459991,102920.000,17514,3,MZ,1,100,16
1575568762.498055,102952.000,17514,3,MZ,1,100,16
1575568762.536118,102984.000,17514,3,MZ,1,100,16
1575568762.575371,103017.000,17530,3,MZ,1,100,14
1575568762.614624,103050.000,17530,3,MZ,1,100,15
1575568762.653877,103083.000,17530,3,MZ,1,100,15
1575568762.695508,103118.000,17548,3,MZ,1,100,15
1575568762.737140,103153.000,17548,3,MZ,1,100,16
1575568762.778772,103188.000,17548,3,MZ,1,100,16
1575568762.819611,103222.333,17567,3,MZ,1,100,14
1575568762.860450,103256.667,17567,3,MZ,1,100,12
1575568762.901289,103291.000,17567,3,MZ,1,100,10
1575568762.942524,103325.667,17585,3,MZ,1,100, 7
1575568762.983759,103360.333,17585,3,MZ,1,100, 6
1575568763.024995,103395.000,17585,3,MZ,1,100, 8
1575568763.063058,103427.000,17603,3,MZ,1,100,11
1575568763.101122,103459.000,17603,3,MZ,1,100,12
1575568763.139185,103491.000,17603,3,MZ,1,100,10
1575568763.182006,103527.000,17621,3,MZ,1,100,12
1575568763.224828,103563.000,17621,3,MZ,1,100,10
1575568763.267649,103599.000,17621,3,MZ,1,100,10
1575568763.308091,103633.000,17639,3,MZ,1,100, 9
1575568763.348534,103667.000,17639,3,MZ,1,100, 9
1575568763.388976,103701.000,17639,3,MZ,1,100, 7
1575568763.430211,103735.667,17656,3,MZ,1,100, 7
1575568763.471447,103770.333,17656,3,MZ,1,100, 7
1575568763.512682,103805.000,17656,3,MZ,1,100, 7
1575568763.553917,103839.667,17674,3,MZ,1,100, 9
1575568763.595153,103874.333,17674,3,MZ,1,100, 9
1575568763.636388,103909.000,17674,3,MZ,1,100, 8
1575568763.673500,103940.200,17695,5,MZ,1,100,11
1575568763.710612,103971.400,17695,5,MZ,1,100,13
1575568763.747723,104002.600,17695,5,MZ,1,100,14
1575568763.784835,104033.800,17695,5,MZ,1,100,18
1575568763.821947,104065.000,17695,5,MZ,1,100,18
1575568763.861993,104098.667,17716,3,MZ,1,100,18
1575568763.902039,104132.333,17716,3,MZ,1,100,17
1575568763.942085,104166.000,17716,3,MZ,1,100,16
1575568763.983122,104200.500,17734,2,MZ,1,100,15
1575568764.024159,104235.000,17734,2,MZ,1,100,14
1575568764.066187,104270.333,17751,3,MZ,1,100,13
1575568764.108216,104305.667,17751,3,MZ,1,100,13
1575568764.150244,104341.000,17751,3,MZ,1,100,15
1575568764.191876,104376.000,17769,3,MZ,1,100,14
1575568764.233507,104411.000,17769,3,MZ,1,100,14
1575568764.275139,104446.000,17769,3,MZ,1,100,14
1575568764.319547,104483.333,17785,3,MZ,1,100,14
1575568764.363954,104520.667,17785,3,MZ,1,100,14
1575568764.408361,104558.000,17785,3,MZ,1,100,12
1575568764.448407,104591.667,17803,3,MZ,1,100,10
1575568764.488453,104625.333,17803,3,MZ,1,100, 4
1575568764.528499,104659.000,17803,3,MZ,1,100, 2
1575568764.566562,104691.000,17821,3,MZ,1,100, 0
1575568764.604625,104723.000,17821,3,MZ,1,100,-1
1575568764.642689,104755.000,17821,3,MZ,1,100,-0
1575568764.681942,104788.000,17839,3,MZ,1,100, 3
1575568764.721195,104821.000,17839,3,MZ,1,100, 6
1575568764.760448,104854.000,17839,3,MZ,1,100, 6
1575568764.801683,104888.667,17858,3,MZ,1,100, 8
1575568764.842918,104923.333,17858,3,MZ,1,100, 9
1575568764.884154,104958.000,17858,3,MZ,1,100,10
1575568764.925389,104992.667,17876,3,MZ,1,100, 8
1575568764.966624,105027.333,17876,3,MZ,1,100,10
1575568765.007860,105062.000,17876,3,MZ,1,100, 9
1575568765.049888,105097.333,17894,3,MZ,1,100, 8
1575568765.091916,105132.667,17894,3,MZ,1,100, 6
1575568765.133945,105168.000,17894,3,MZ,1,100, 7
1575568765.175576,105203.000,17911,3,MZ,1,100, 7
1575568765.217208,105238.000,17911,3,MZ,1,100, 5
1575568765.258840,105273.000,17911,3,MZ,1,100, 4
1575568765.298490,105306.333,17929,3,MZ,1,100, 4
1575568765.338139,105339.667,17929,3,MZ,1,100, 5
1575568765.377788,105373.000,17929,3,MZ,1,100, 8
1575568765.416248,105405.333,17947,3,MZ,1,100,10
1575568765.454708,105437.667,17947,3,MZ,1,100,12
1575568765.493168,105470.000,17947,3,MZ,1,100,12
1575568765.535593,105505.667,17965,3,MZ,1,100,15
1575568765.578017,105541.333,17965,3,MZ,1,100,18
1575568765.620442,105577.000,17965,3,MZ,1,100,17
1575568765.661281,105611.333,17981,3,MZ,1,100,15
1575568765.702120,105645.667,17981,3,MZ,1,100,14
1575568765.742959,105680.000,17981,3,MZ,1,100,17
1575568765.783798,105714.333,17999,3,MZ,1,100,18
1575568765.824636,105748.667,17999,3,MZ,1,100,19
1575568765.865475,105783.000,17999,3,MZ,1,100,20
1575568765.905918,105817.000,18018,3,MZ,1,100,22
1575568765.946360,105851.000,18018,3,MZ,1,100,22
1575568765.986803,105885.000,18018,3,MZ,1,100,23
1575568766.024469,105916.667,18036,3,MZ,1,100,24
1575568766.062136,105948.333,18036,3,MZ,1,100,24
1575568766.099803,105980.000,18036,3,MZ,1,100,24
1575568766.139452,106013.333,18054,3,MZ,1,100,24
1575568766.179102,106046.667,18054,3,MZ,1,100,21
1575568766.218751,106080.000,18054,3,MZ,1,100,18
1575568766.259194,106114.000,18072,3,MZ,1,100,12
1575568766.299636,106148.000,18072,3,MZ,1,100,11
1575568766.340078,106182.000,18072,3,MZ,1,100, 8
1575568766.387063,106221.500,18090,2,MZ,1,100, 6
1575568766.434047,106261.000,18090,2,MZ,1,100, 7
1575568766.476076,106296.333,18107,3,MZ,1,100, 7
1575568766.518104,106331.667,18107,3,MZ,1,100, 9
1575568766.560132,106367.000,18107,3,MZ,1,100, 9
1575568766.597898,106398.750,18125,4,MZ,1,100,10
1575568766.635664,106430.500,18125,4,MZ,1,100,10
1575568766.673430,106462.250,18125,4,MZ,1,100,10
1575568766.711196,106494.000,18125,4,MZ,1,100,10
1575568766.750053,106526.667,18143,3,MZ,1,100,10
1575568766.788909,106559.333,18143,3,MZ,1,100, 9
1575568766.827765,106592.000,18143,3,MZ,1,100, 9
1575568766.868604,106626.333,18160,3,MZ,1,100,11
1575568766.909443,106660.667,18160,3,MZ,1,100,14
1575568766.950282,106695.000,18160,3,MZ,1,100,16
1575568766.991914,106730.000,18178,3,MZ,1,100,22
1575568767.033546,106765.000,18178,3,MZ,1,100,25
1575568767.075178,106800.000,18178,3,MZ,1,100,27
1575568767.116809,106835.000,18196,2,MZ,1,100,28
1575568767.158441,106870.000,18196,2,MZ,1,100,27
1575568767.200469,106905.333,18214,3,MZ,1,100,25
1575568767.242498,106940.667,18214,3,MZ,1,100,26
1575568767.284526,106976.000,18214,3,MZ,1,100,27
1575568767.322590,107008.000,18232,4,MZ,1,100,28
1575568767.360653,107040.000,18232,4,MZ,1,100,27
1575568767.398716,107072.000,18232,4,MZ,1,100,29
1575568767.436780,107104.000,18232,4,MZ,1,100,29
1575568767.478412,107139.000,18250,3,MZ,1,100,30
1575568767.520043,107174.000,18250,3,MZ,1,100,31
1575568767.561675,107209.000,18250,3,MZ,1,100,30
1575568767.602712,107243.500,18268,2,MZ,1,100,30
1575568767.643749,107278.000,18268,2,MZ,1,100,30
1575568767.684588,107312.333,18285,3,MZ,1,100,30
1575568767.725427,107346.667,18285,3,MZ,1,100,31
1575568767.766266,107381.000,18285,3,MZ,1,100,30
1575568767.804329,107413.000,18304,4,MZ,1,100,32
1575568767.842393,107445.000,18304,4,MZ,1,100,32
1575568767.880456,107477.000,18304,4,MZ,1,100,32
1575568767.918519,107509.000,18304,4,MZ,1,100,33
1575568767.956187,107540.667,18322,3,MZ,1,100,34
1575568767.993853,107572.333,18322,3,MZ,1,100,31
1575568768.031520,107604.000,18322,3,MZ,1,100,30
1575568768.078505,107643.500,18338,2,MZ,1,100,29
1575568768.125489,107683.000,18338,2,MZ,1,100,30
1575568768.166725,107717.667,18356,3,MZ,1,100,29
1575568768.207960,107752.333,18356,3,MZ,1,100,28
1575568768.249195,107787.000,18356,3,MZ,1,100,27
1575568768.287655,107819.333,18374,3,MZ,1,100,26
1575568768.326115,107851.667,18374,3,MZ,1,100,26
1575568768.364575,107884.000,18374,3,MZ,1,100,26
1575568768.409379,107921.667,18392,3,MZ,1,100,26
1575568768.454183,107959.333,18392,3,MZ,1,100,26
1575568768.498986,107997.000,18392,3,MZ,1,100,26
1575568768.541015,108032.333,18410,3,MZ,1,100,25
1575568768.583043,108067.667,18410,3,MZ,1,100,26
1575568768.625071,108103.000,18410,3,MZ,1,100,26
1575568768.663531,108135.333,18428,3,MZ,1,100,26
1575568768.701991,108167.667,18428,3,MZ,1,100,26
1575568768.740451,108200.000,18428,3,MZ,1,100,26
1575568768.778911,108232.333,18446,3,MZ,1,100,27
1575568768.817371,108264.667,18446,3,MZ,1,100,26
1575568768.855831,108297.000,18446,3,MZ,1,100,28
1575568768.895876,108330.667,18464,3,MZ,1,100,28
1575568768.935922,108364.333,18464,3,MZ,1,100,27
1575568768.975968,108398.000,18464,3,MZ,1,100,27
1575568769.017204,108432.667,18482,3,MZ,1,100,30
1575568769.058439,108467.333,18482,3,MZ,1,100,28
1575568769.099674,108502.000,18482,3,MZ,1,100,29
1575568769.140513,108536.333,18498,3,MZ,1,100,28
1575568769.181352,108570.667,18498,3,MZ,1,100,29
1575568769.222191,108605.000,18498,3,MZ,1,100,30
1575568769.265409,108641.333,18516,3,MZ,1,100,28
1575568769.308626,108677.667,18516,3,MZ,1,100,29
1575568769.351844,108714.000,18516,3,MZ,1,100,29
1575568769.389511,108745.667,18534,3,MZ,1,100,28
1575568769.427178,108777.333,18534,3,MZ,1,100,30
1575568769.464845,108809.000,18534,3,MZ,1,100,30
1575568769.504494,108842.333,18552,3,MZ,1,100,31
1575568769.544144,108875.667,18552,3,MZ,1,100,30
1575568769.583793,108909.000,18552,3,MZ,1,100,33
1575568769.624235,108943.000,18570,3,MZ,1,100,32
1575568769.664678,108977.000,18570,3,MZ,1,100,34
1575568769.705120,109011.000,18570,3,MZ,1,100,32
1575568769.745800,109045.200,18591,5,MZ,1,100,32
1575568769.786481,109079.400,18591,5,MZ,1,100,32
1575568769.827161,109113.600,18591,5,MZ,1,100,33
1575568769.867841,109147.800,18591,5,MZ,1,100,33
1575568769.908521,109182.000,18591,5,MZ,1,100,32
1575568769.946981,109214.333,18612,3,MZ,1,100,33
1575568769.985441,109246.667,18612,3,MZ,1,100,32
1575568770.023901,109279.000,18612,3,MZ,1,100,33
1575568770.061964,109311.000,18630,3,MZ,1,100,34
1575568770.100028,109343.000,18630,3,MZ,1,100,33
1575568770.138091,109375.000,18630,3,MZ,1,100,33
1575568770.183886,109413.500,18648,2,MZ,1,100,33
1575568770.229681,109452.000,18648,2,MZ,1,100,32
1575568770.271313,109487.000,18666,3,MZ,1,100,33
1575568770.312945,109522.000,18666,3,MZ,1,100,33
1575568770.354577,109557.000,18666,3,MZ,1,100,34
1575568770.395812,109591.667,18684,3,MZ,1,100,32
1575568770.437047,109626.333,18684,3,MZ,1,100,33
1575568770.478283,109661.000,18684,3,MZ,1,100,32
1575568770.517932,109694.333,18702,3,MZ,1,100,33
1575568770.557581,109727.667,18702,3,MZ,1,100,32
1575568770.597231,109761.000,18702,3,MZ,1,100,33
1575568770.634997,109792.750,18720,4,MZ,1,100,31
1575568770.672763,109824.500,18720,4,MZ,1,100,32
1575568770.710529,109856.250,18720,4,MZ,1,100,32
1575568770.748295,109888.000,18720,4,MZ,1,100,32
1575568770.788142,109921.500,18738,2,MZ,1,100,33
1575568770.827990,109955.000,18738,2,MZ,1,100,32
1575568770.869622,109990.000,18756,3,MZ,1,100,32
1575568770.911254,110025.000,18756,3,MZ,1,100,33
1575568770.952886,110060.000,18756,3,MZ,1,100,32
1575568770.998086,110098.000,18774,3,MZ,1,100,33
1575568771.043286,110136.000,18774,3,MZ,1,100,32
1575568771.088486,110174.000,18774,3,MZ,1,100,31
1575568771.126550,110206.000,18790,3,MZ,1,100,33
1575568771.164613,110238.000,18790,3,MZ,1,100,32
1575568771.202677,110270.000,18790,3,MZ,1,100,32
1575568771.241137,110302.333,18808,3,MZ,1,100,32
1575568771.279596,110334.667,18808,3,MZ,1,100,32
1575568771.318056,110367.000,18808,3,MZ,1,100,33
1575568771.357309,110400.000,18826,3,MZ,1,100,32
1575568771.396562,110433.000,18826,3,MZ,1,100,32
1575568771.435815,110466.000,18826,3,MZ,1,100,32
1575568771.477050,110500.667,18844,3,MZ,1,100,33
1575568771.518286,110535.333,18844,3,MZ,1,100,32
1575568771.559521,110570.000,18844,3,MZ,1,100,33
1575568771.600756,110604.667,18862,3,MZ,1,100,32
1575568771.641992,110639.333,18862,3,MZ,1,100,32
1575568771.683227,110674.000,18862,3,MZ,1,100,32
1575568771.722480,110707.000,18880,3,MZ,1,100,32
1575568771.761733,110740.000,18880,3,MZ,1,100,33
1575568771.800986,110773.000,18880,3,MZ,1,100,33
1575568771.841428,110807.000,18899,3,MZ,1,100,32
1575568771.881870,110841.000,18899,3,MZ,1,100,32
1575568771.922313,110875.000,18899,3,MZ,1,100,32
1575568771.960376,110907.000,18917,3,MZ,1,100,33
1575568771.998440,110939.000,18917,3,MZ,1,100,32
1575568772.036503,110971.000,18917,3,MZ,1,100,31
1575568772.077342,111005.333,18934,3,MZ,1,100,33
1575568772.118181,111039.667,18934,3,MZ,1,100,32
1575568772.159019,111074.000,18934,3,MZ,1,100,32
1575568772.199065,111107.667,18952,3,MZ,1,100,32
1575568772.239111,111141.333,18952,3,MZ,1,100,32
1575568772.279157,111175.000,18952,3,MZ,1,100,32
1575568772.320392,111209.667,18970,3,MZ,1,100,32
1575568772.361628,111244.333,18970,3,MZ,1,100,32
1575568772.402863,111279.000,18970,3,MZ,1,100,32
1575568772.444495,111314.000,18986,3,MZ,1,100,32
1575568772.486127,111349.000,18986,3,MZ,1,100,32
1575568772.527759,111384.000,18986,3,MZ,1,100,32
1575568772.569390,111419.000,19004,3,MZ,1,100,31
1575568772.611022,111454.000,19004,3,MZ,1,100,32
1575568772.652654,111489.000,19004,3,MZ,1,100,32
1575568772.694682,111524.333,19022,3,MZ,1,100,31
1575568772.736711,111559.667,19022,3,MZ,1,100,32
1575568772.778739,111595.000,19022,3,MZ,1,100,32
1575568772.817595,111627.667,19040,3,MZ,1,100,31
1575568772.856452,111660.333,19040,3,MZ,1,100,31
1575568772.895308,111693.000,19040,3,MZ,1,100,32
1575568772.932975,111724.667,19059,3,MZ,1,100,32
1575568772.970642,111756.333,19059,3,MZ,1,100,32
1575568773.008309,111788.000,19059,3,MZ,1,100,32
1575568773.048355,111821.667,19077,3,MZ,1,100,32
1575568773.088401,111855.333,19077,3,MZ,1,100,33
1575568773.128446,111889.000,19077,3,MZ,1,100,32
1575568773.170078,111924.000,19095,3,MZ,1,100,32
1575568773.211710,111959.000,19095,3,MZ,1,100,31
1575568773.253342,111994.000,19095,3,MZ,1,100,32
1575568773.300921,112034.000,19112,2,MZ,1,100,32
1575568773.348500,112074.000,19112,2,MZ,1,100,31
1575568773.387753,112107.000,19130,4,MZ,1,100,32
1575568773.427006,112140.000,19130,4,MZ,1,100,32
1575568773.466259,112173.000,19130,4,MZ,1,100,31
1575568773.505512,112206.000,19130,4,MZ,1,100,32
1575568773.543972,112238.333,19146,3,MZ,1,100,31
1575568773.582432,112270.667,19146,3,MZ,1,100,31
1575568773.620892,112303.000,19146,3,MZ,1,100,31
1575568773.660144,112336.000,19164,3,MZ,1,100,32
1575568773.699397,112369.000,19164,3,MZ,1,100,32
1575568773.738650,112402.000,19164,3,MZ,1,100,32
1575568773.779093,112436.000,19182,3,MZ,1,100,31
1575568773.819535,112470.000,19182,3,MZ,1,100,31
1575568773.859977,112504.000,19182,3,MZ,1,100,31
1575568773.901609,112539.000,19201,3,MZ,1,100,32
1575568773.943241,112574.000,19201,3,MZ,1,100,31
1575568773.984873,112609.000,19201,3,MZ,1,100,32
1575568774.024126,112642.000,19219,3,MZ,1,100,31
1575568774.063379,112675.000,19219,3,MZ,1,100,32
1575568774.102631,112708.000,19219,3,MZ,1,100,31
1575568774.144263,112743.000,19237,3,MZ,1,100,31
1575568774.185895,112778.000,19237,3,MZ,1,100,32
1575568774.227527,112813.000,19237,3,MZ,1,100,30
1575568774.267176,112846.333,19255,3,MZ,1,100,30
1575568774.306826,112879.667,19255,3,MZ,1,100,30
1575568774.346475,112913.000,19255,3,MZ,1,100,32
1575568774.387710,112947.667,19273,3,MZ,1,100,31
1575568774.428946,112982.333,19273,3,MZ,1,100,32
1575568774.470181,113017.000,19273,3,MZ,1,100,30
1575568774.511218,113051.500,19290,2,MZ,1,100,31
1575568774.552255,113086.000,19290,2,MZ,1,100,31
1575568774.593887,113121.000,19308,3,MZ,1,100,32
1575568774.635519,113156.000,19308,3,MZ,1,100,32
1575568774.677151,113191.000,19308,3,MZ,1,100,31
1575568774.714917,113222.750,19326,4,MZ,1,100,31
1575568774.752683,113254.500,19326,4,MZ,1,100,30
1575568774.790449,113286.250,19326,4,MZ,1,100,32
1575568774.828215,113318.000,19326,4,MZ,1,100,32
1575568774.867468,113351.000,19343,3,MZ,1,100,32
1575568774.906720,113384.000,19343,3,MZ,1,100,31
1575568774.945973,113417.000,19343,3,MZ,1,100,30
1575568774.992363,113456.000,19361,2,MZ,1,100,31
1575568775.038753,113495.000,19361,2,MZ,1,100,31
1575568775.079988,113529.667,19379,3,MZ,1,100,30
1575568775.121223,113564.333,19379,3,MZ,1,100,30
1575568775.162459,113599.000,19379,3,MZ,1,100,30
1575568775.204091,113634.000,19397,3,MZ,1,100,31
1575568775.245723,113669.000,19397,3,MZ,1,100,33
1575568775.287354,113704.000,19397,3,MZ,1,100,31
1575568775.324228,113735.000,19415,3,MZ,1,100,31
1575568775.361102,113766.000,19415,3,MZ,1,100,31
1575568775.397976,113797.000,19415,3,MZ,1,100,31
1575568775.436932,113829.750,19433,4,MZ,1,100,30
1575568775.475887,113862.500,19433,4,MZ,1,100,31
1575568775.514843,113895.250,19433,4,MZ,1,100,31
1575568775.553798,113928.000,19433,4,MZ,1,100,32
1575568775.594835,113962.500,19451,2,MZ,1,100,31
1575568775.635872,113997.000,19451,2,MZ,1,100,30
1575568775.677108,114031.667,19468,3,MZ,1,100,31
1575568775.718343,114066.333,19468,3,MZ,1,100,32
1575568775.759578,114101.000,19468,3,MZ,1,100,31
1575568775.801448,114136.200,19490,5,MZ,1,100,32
1575568775.843318,114171.400,19490,5,MZ,1,100,31
1575568775.885188,114206.600,19490,5,MZ,1,100,31
1575568775.927057,114241.800,19490,5,MZ,1,100,32
1575568775.968927,114277.000,19490,5,MZ,1,100,31
1575568776.010559,114312.000,19510,3,MZ,1,100,30
1575568776.052191,114347.000,19510,3,MZ,1,100,30
1575568776.093822,114382.000,19510,3,MZ,1,100,31
1575568776.137833,114419.000,19528,2,MZ,1,100,32
1575568776.181844,114456.000,19528,2,MZ,1,100,31
1575568776.219908,114488.000,19546,4,MZ,1,100,32
1575568776.257971,114520.000,19546,4,MZ,1,100,32
1575568776.296034,114552.000,19546,4,MZ,1,100,32
1575568776.334098,114584.000,19546,4,MZ,1,100,32
1575568776.375333,114618.667,19563,3,MZ,1,100,31
1575568776.416568,114653.333,19563,3,MZ,1,100,31
1575568776.457804,114688.000,19563,3,MZ,1,100,32
1575568776.498246,114722.000,19581,3,MZ,1,100,32
1575568776.538688,114756.000,19581,3,MZ,1,100,31
1575568776.579131,114790.000,19581,3,MZ,1,100,33
1575568776.619970,114824.333,19597,3,MZ,1,100,32
1575568776.660809,114858.667,19597,3,MZ,1,100,32
1575568776.701647,114893.000,19597,3,MZ,1,100,31
1575568776.742090,114927.000,19615,3,MZ,1,100,32
1575568776.782532,114961.000,19615,3,MZ,1,100,32
1575568776.822974,114995.000,19615,3,MZ,1,100,32
1575568776.864606,115030.000,19634,2,MZ,1,100,31
1575568776.906238,115065.000,19634,2,MZ,1,100,31
1575568776.946284,115098.667,19652,3,MZ,1,100,32
1575568776.986330,115132.333,19652,3,MZ,1,100,32
1575568777.026376,115166.000,19652,3,MZ,1,100,32
1575568777.064439,115198.000,19670,4,MZ,1,100,32
1575568777.102502,115230.000,19670,4,MZ,1,100,32
1575568777.140566,115262.000,19670,4,MZ,1,100,31
1575568777.178629,115294.000,19670,4,MZ,1,100,30
1575568777.219072,115328.000,19688,3,MZ,1,100,32
1575568777.259514,115362.000,19688,3,MZ,1,100,30
1575568777.299956,115396.000,19688,3,MZ,1,100,31
1575568777.346941,115435.500,19706,2,MZ,1,100,33
1575568777.393925,115475.000,19706,2,MZ,1,100,31
1575568777.434368,115509.000,19723,3,MZ,1,100,32
1575568777.474810,115543.000,19723,3,MZ,1,100,31
1575568777.515252,115577.000,19723,3,MZ,1,100,31
1575568777.556488,115611.667,19741,3,MZ,1,100,30
1575568777.597723,115646.333,19741,3,MZ,1,100,31
1575568777.638958,115681.000,19741,3,MZ,1,100,31
1575568777.676625,115712.667,19759,3,MZ,1,100,32
1575568777.714292,115744.333,19759,3,MZ,1,100,32
1575568777.751959,115776.000,19759,3,MZ,1,100,30
1575568777.790815,115808.667,19775,3,MZ,1,100,32
1575568777.829672,115841.333,19775,3,MZ,1,100,31
1575568777.868528,115874.000,19775,3,MZ,1,100,31
1575568777.909764,115908.667,19794,3,MZ,1,100,32
1575568777.950999,115943.333,19794,3,MZ,1,100,32
1575568777.992234,115978.000,19794,3,MZ,1,100,32
1575568778.032280,116011.667,19812,3,MZ,1,100,32
1575568778.072326,116045.333,19812,3,MZ,1,100,32
1575568778.112372,116079.000,19812,3,MZ,1,100,30
1575568778.157176,116116.667,19830,3,MZ,1,100,31
1575568778.201979,116154.333,19830,3,MZ,1,100,30
1575568778.246783,116192.000,19830,3,MZ,1,100,32
1575568778.284847,116224.000,19848,3,MZ,1,100,31
1575568778.322910,116256.000,19848,3,MZ,1,100,31
1575568778.360973,116288.000,19848,3,MZ,1,100,31
1575568778.399433,116320.333,19866,3,MZ,1,100,31
1575568778.437893,116352.667,19866,3,MZ,1,100,30
1575568778.476353,116385.000,19866,3,MZ,1,100,31
1575568778.517192,116419.333,19884,3,MZ,1,100,32
1575568778.558031,116453.667,19884,3,MZ,1,100,30
1575568778.598870,116488.000,19884,3,MZ,1,100,30
1575568778.639708,116522.333,19902,3,MZ,1,100,32
1575568778.680547,116556.667,19902,3,MZ,1,100,30
1575568778.721386,116591.000,19902,3,MZ,1,100,32
1575568778.763018,116626.000,19919,3,MZ,1,100,30
1575568778.804650,116661.000,19919,3,MZ,1,100,31
1575568778.846282,116696.000,19919,3,MZ,1,100,31
1575568778.884345,116728.000,19938,3,MZ,1,100,30
1575568778.922408,116760.000,19938,3,MZ,1,100,31
1575568778.960472,116792.000,19938,3,MZ,1,100,31
1575568779.003293,116828.000,19956,3,MZ,1,100,32
1575568779.046114,116864.000,19956,3,MZ,1,100,31
1575568779.088936,116900.000,19956,3,MZ,1,100,31
1575568779.128982,116933.667,19972,3,MZ,1,100,30
1575568779.169027,116967.333,19972,3,MZ,1,100,30
1575568779.209073,117001.000,19972,3,MZ,1,100,32
1575568779.250309,117035.667,19990,3,MZ,1,100,31
1575568779.291544,117070.333,19990,3,MZ,1,100,30
1575568779.332779,117105.000,19990,3,MZ,1,100,32
1575568779.374015,117139.667,20008,3,MZ,1,100,31
1575568779.415250,117174.333,20008,3,MZ,1,100,31
1575568779.456485,117209.000,20008,3,MZ,1,100,32
1575568779.492963,117239.667,20026,3,MZ,1,100,31
1575568779.529440,117270.333,20026,3,MZ,1,100,32
