EpochTimestamp,EmotiBitTimestamp,PacketNumber,DataLength,TypeTag,ProtocolVersion,DataReliability,MZ
1575568018.254392,76329.000,12866,9,MZ,1,100,30
1575568018.254392,76329.000,12866,9,MZ,1,100,30
1575568018.254392,76329.000,12866,9,MZ,1,100,29
1575568018.254392,76329.000,12866,9,MZ,1,100,30
1575568018.254392,76329.000,12866,9,MZ,1,100,30
1575568018.254392,76329.000,12866,9,MZ,1,100,29
1575568018.254392,76329.000,12866,9,MZ,1,100,29
1575568018.254392,76329.000,12866,9,MZ,1,100,30
1575568018.254392,76329.000,12866,9,MZ,1,100,30
1575568018.295387,76363.500,12883,2,MZ,1,100,29
1575568018.336382,76398.000,12883,2,MZ,1,100,29
1575568018.377575,76432.667,12901,3,MZ,1,100,30
1575568018.418768,76467.333,12901,3,MZ,1,100,29
1575568018.459961,76502.000,12901,3,MZ,1,100,29
1575568018.504719,76539.667,12917,3,MZ,1,100,28
1575568018.549477,76577.333,12917,3,MZ,1,100,30
1575568018.594235,76615.000,12917,3,MZ,1,100,29
1575568018.633447,76648.000,12935,3,MZ,1,100,30
1575568018.672660,76681.000,12935,3,MZ,1,100,31
1575568018.711873,76714.000,12935,3,MZ,1,100,30
1575568018.749897,76746.000,12953,3,MZ,1,100,29
1575568018.787922,76778.000,12953,3,MZ,1,100,30
1575568018.825946,76810.000,12953,3,MZ,1,100,29
1575568018.865951,76843.667,12971,3,MZ,1,100,30
1575568018.905956,76877.333,12971,3,MZ,1,100,28
1575568018.945961,76911.000,12971,3,MZ,1,100,28
1575568018.987154,76945.667,12990,3,MZ,1,100,30
1575568019.028347,76980.333,12990,3,MZ,1,100,28
1575568019.069540,77015.000,12990,3,MZ,1,100,30
1575568019.110733,77049.667,13008,3,MZ,1,100,29
1575568019.151926,77084.333,13008,3,MZ,1,100,30
1575568019.193119,77119.000,13008,3,MZ,1,100,30
1575568019.233124,77152.667,13026,3,MZ,1,100,29
1575568019.273129,77186.333,13026,3,MZ,1,100,30
1575568019.313134,77220.000,13026,3,MZ,1,100,30
1575568019.354723,77255.000,13044,3,MZ,1,100,30
1575568019.396312,77290.000,13044,3,MZ,1,100,31
1575568019.437901,77325.000,13044,3,MZ,1,100,30
1575568019.476718,77357.667,13061,3,MZ,1,100,29
1575568019.515534,77390.333,13061,3,MZ,1,100,29
1575568019.554351,77423.000,13061,3,MZ,1,100,30
1575568019.595544,77457.667,13079,3,MZ,1,100,30
1575568019.636737,77492.333,13079,3,MZ,1,100,30
1575568019.677930,77527.000,13079,3,MZ,1,100,30
1575568019.717935,77560.667,13095,3,MZ,1,100,30
1575568019.757940,77594.333,13095,3,MZ,1,100,30
1575568019.797945,77628.000,13095,3,MZ,1,100,30
1575568019.840722,77664.000,13113,2,MZ,1,100,30
1575568019.883500,77700.000,13113,2,MZ,1,100,29
1575568019.921227,77731.750,13132,4,MZ,1,100,30
1575568019.958955,77763.500,13132,4,MZ,1,100,30
1575568019.996682,77795.250,13132,4,MZ,1,100,30
1575568020.034409,77827.000,13132,4,MZ,1,100,30
1575568020.073028,77859.500,13150,2,MZ,1,100,29
1575568020.111646,77892.000,13150,2,MZ,1,100,31
1575568020.155612,77929.000,13168,3,MZ,1,100,29
1575568020.199578,77966.000,13168,3,MZ,1,100,30
1575568020.243544,78003.000,13168,3,MZ,1,100,30
1575568020.285133,78038.000,13186,3,MZ,1,100,29
1575568020.326722,78073.000,13186,3,MZ,1,100,29
1575568020.368311,78108.000,13186,3,MZ,1,100,30
1575568020.410296,78143.333,13204,3,MZ,1,100,29
1575568020.452282,78178.667,13204,3,MZ,1,100,29
1575568020.494267,78214.000,13204,3,MZ,1,100,28
1575568020.531499,78245.333,13222,3,MZ,1,100,29
1575568020.568731,78276.667,13222,3,MZ,1,100,28
1575568020.605964,78308.000,13222,3,MZ,1,100,28
1575568020.643592,78339.667,13240,3,MZ,1,100,29
1575568020.681220,78371.333,13240,3,MZ,1,100,28
1575568020.718849,78403.000,13240,3,MZ,1,100,28
1575568020.759249,78437.000,13257,3,MZ,1,100,29
1575568020.799650,78471.000,13257,3,MZ,1,100,30
1575568020.840051,78505.000,13257,3,MZ,1,100,28
1575568020.885206,78543.000,13275,3,MZ,1,100,29
1575568020.930359,78581.000,13275,3,MZ,1,100,29
1575568020.975513,78619.000,13275,3,MZ,1,100,28
1575568021.016310,78653.333,13292,3,MZ,1,100,28
1575568021.057107,78687.667,13292,3,MZ,1,100,28
1575568021.097904,78722.000,13292,3,MZ,1,100,29
1575568021.135929,78754.000,13310,3,MZ,1,100,28
1575568021.173953,78786.000,13310,3,MZ,1,100,28
1575568021.211978,78818.000,13310,3,MZ,1,100,29
1575568021.249606,78849.667,13328,3,MZ,1,100,28
1575568021.287234,78881.333,13328,3,MZ,1,100,29
1575568021.324863,78913.000,13328,3,MZ,1,100,29
1575568021.365660,78947.333,13346,3,MZ,1,100,29
1575568021.406457,78981.667,13346,3,MZ,1,100,30
1575568021.447254,79016.000,13346,3,MZ,1,100,29
1575568021.488447,79050.667,13364,3,MZ,1,100,30
1575568021.529640,79085.333,13364,3,MZ,1,100,28
1575568021.570833,79120.000,13364,3,MZ,1,100,29
1575568021.611630,79154.333,13382,3,MZ,1,100,29
1575568021.652427,79188.667,13382,3,MZ,1,100,30
1575568021.693224,79223.000,13382,3,MZ,1,100,29
1575568021.735209,79258.333,13400,3,MZ,1,100,30
1575568021.777195,79293.667,13400,3,MZ,1,100,30
1575568021.819180,79329.000,13400,3,MZ,1,100,29
1575568021.857600,79361.333,13418,3,MZ,1,100,29
1575568021.896021,79393.667,13418,3,MZ,1,100,29
1575568021.934442,79426.000,13418,3,MZ,1,100,30
1575568021.973654,79459.000,13436,3,MZ,1,100,30
1575568022.012867,79492.000,13436,3,MZ,1,100,30
1575568022.052079,79525.000,13436,3,MZ,1,100,29
1575568022.093669,79560.000,13454,3,MZ,1,100,29
1575568022.135258,79595.000,13454,3,MZ,1,100,29
1575568022.176847,79630.000,13454,3,MZ,1,100,30
1575568022.217644,79664.333,13470,3,MZ,1,100,31
1575568022.258441,79698.667,13470,3,MZ,1,100,30
1575568022.299238,79733.000,13470,3,MZ,1,100,31
1575568022.339243,79766.667,13488,3,MZ,1,100,31
1575568022.379248,79800.333,13488,3,MZ,1,100,32
1575568022.419253,79834.000,13488,3,MZ,1,100,32
1575568022.457673,79866.333,13506,3,MZ,1,100,29
1575568022.496094,79898.667,13506,3,MZ,1,100,26
1575568022.534514,79931.000,13506,3,MZ,1,100,23
1575568022.577688,79967.333,13524,3,MZ,1,100,19
1575568022.620861,80003.667,13524,3,MZ,1,100,17
1575568022.664035,80040.000,13524,3,MZ,1,100,13
1575568022.704040,80073.667,13542,3,MZ,1,100, 9
1575568022.744045,80107.333,13542,3,MZ,1,100, 9
1575568022.784049,80141.000,13542,3,MZ,1,100, 7
1575568022.825243,80175.667,13560,3,MZ,1,100, 6
1575568022.866436,80210.333,13560,3,MZ,1,100, 6
1575568022.907629,80245.000,13560,3,MZ,1,100, 5
1575568022.948030,80279.000,13579,3,MZ,1,100, 3
1575568022.988431,80313.000,13579,3,MZ,1,100, 3
1575568023.028831,80347.000,13579,3,MZ,1,100, 2
1575568023.066460,80378.667,13597,3,MZ,1,100, 3
1575568023.104088,80410.333,13597,3,MZ,1,100, 4
1575568023.141716,80442.000,13597,3,MZ,1,100, 4
1575568023.180137,80474.333,13615,3,MZ,1,100, 2
1575568023.218557,80506.667,13615,3,MZ,1,100, 3
1575568023.256978,80539.000,13615,3,MZ,1,100, 4
1575568023.300944,80576.000,13632,3,MZ,1,100, 2
1575568023.344909,80613.000,13632,3,MZ,1,100, 2
1575568023.388875,80650.000,13632,3,MZ,1,100, 2
1575568023.430068,80684.667,13650,3,MZ,1,100, 4
1575568023.471261,80719.333,13650,3,MZ,1,100, 4
1575568023.512455,80754.000,13650,3,MZ,1,100, 4
1575568023.554044,80789.000,13666,2,MZ,1,100, 3
1575568023.595633,80824.000,13666,2,MZ,1,100, 4
1575568023.634251,80856.500,13684,4,MZ,1,100, 4
1575568023.672870,80889.000,13684,4,MZ,1,100, 4
1575568023.711488,80921.500,13684,4,MZ,1,100, 1
1575568023.750107,80954.000,13684,4,MZ,1,100,-4
1575568023.788924,80986.667,13702,3,MZ,1,100,-2
1575568023.827740,81019.333,13702,3,MZ,1,100,-5
1575568023.866557,81052.000,13702,3,MZ,1,100,-2
1575568023.906958,81086.000,13721,3,MZ,1,100,-2
1575568023.947359,81120.000,13721,3,MZ,1,100,-0
1575568023.987760,81154.000,13721,3,MZ,1,100, 2
1575568024.028953,81188.667,13739,3,MZ,1,100, 1
1575568024.070146,81223.333,13739,3,MZ,1,100,-4
1575568024.111339,81258.000,13739,3,MZ,1,100,-0
1575568024.152690,81292.800,13760,5,MZ,1,100,-3
1575568024.194042,81327.600,13760,5,MZ,1,100,-2
1575568024.235394,81362.400,13760,5,MZ,1,100, 0
1575568024.276745,81397.200,13760,5,MZ,1,100, 2
1575568024.318097,81432.000,13760,5,MZ,1,100, 2
1575568024.356121,81464.000,13776,2,MZ,1,100,-7
1575568024.394145,81496.000,13776,2,MZ,1,100,-0
1575568024.432566,81528.333,13796,3,MZ,1,100,-1
1575568024.470986,81560.667,13796,3,MZ,1,100,-2
1575568024.509407,81593.000,13796,3,MZ,1,100, 2
1575568024.550600,81627.667,13814,3,MZ,1,100, 3
1575568024.591793,81662.333,13814,3,MZ,1,100, 6
1575568024.632986,81697.000,13814,3,MZ,1,100, 7
1575568024.674179,81731.667,13832,3,MZ,1,100, 8
1575568024.715373,81766.333,13832,3,MZ,1,100,10
1575568024.756566,81801.000,13832,3,MZ,1,100, 9
1575568024.796967,81835.000,13850,3,MZ,1,100,10
1575568024.837368,81869.000,13850,3,MZ,1,100,11
1575568024.877769,81903.000,13850,3,MZ,1,100,11
1575568024.918962,81937.667,13869,3,MZ,1,100,12
1575568024.960155,81972.333,13869,3,MZ,1,100,12
1575568025.001348,82007.000,13869,3,MZ,1,100,12
1575568025.040956,82040.333,13887,3,MZ,1,100,15
1575568025.080565,82073.667,13887,3,MZ,1,100,15
1575568025.120174,82107.000,13887,3,MZ,1,100,15
1575568025.159783,82140.333,13904,3,MZ,1,100,15
1575568025.199392,82173.667,13904,3,MZ,1,100,14
1575568025.239000,82207.000,13904,3,MZ,1,100,15
1575568025.279797,82241.333,13922,3,MZ,1,100,15
1575568025.320594,82275.667,13922,3,MZ,1,100,15
1575568025.361391,82310.000,13922,3,MZ,1,100,15
1575568025.395851,82339.000,13940,3,MZ,1,100,16
1575568025.430311,82368.000,13940,3,MZ,1,100,18
1575568025.464770,82397.000,13940,3,MZ,1,100,18
1575568025.508736,82434.000,13956,3,MZ,1,100,21
1575568025.552702,82471.000,13956,3,MZ,1,100,21
1575568025.596668,82508.000,13956,3,MZ,1,100,22
1575568025.638257,82543.000,13974,3,MZ,1,100,24
1575568025.679846,82578.000,13974,3,MZ,1,100,26
1575568025.721435,82613.000,13974,3,MZ,1,100,26
1575568025.763024,82648.000,13992,3,MZ,1,100,28
1575568025.804613,82683.000,13992,3,MZ,1,100,29
1575568025.846203,82718.000,13992,3,MZ,1,100,32
1575568025.885811,82751.333,14011,3,MZ,1,100,31
1575568025.925420,82784.667,14011,3,MZ,1,100,33
1575568025.965029,82818.000,14011,3,MZ,1,100,33
1575568026.002657,82849.667,14029,3,MZ,1,100,34
1575568026.040286,82881.333,14029,3,MZ,1,100,32
1575568026.077914,82913.000,14029,3,MZ,1,100,32
1575568026.117523,82946.333,14047,3,MZ,1,100,35
1575568026.157131,82979.667,14047,3,MZ,1,100,34
1575568026.196740,83013.000,14047,3,MZ,1,100,33
1575568026.241894,83051.000,14065,3,MZ,1,100,34
1575568026.287048,83089.000,14065,3,MZ,1,100,33
1575568026.332202,83127.000,14065,3,MZ,1,100,33
1575568026.370227,83159.000,14082,3,MZ,1,100,33
1575568026.408251,83191.000,14082,3,MZ,1,100,33
1575568026.446275,83223.000,14082,3,MZ,1,100,31
1575568026.487468,83257.667,14100,3,MZ,1,100,28
1575568026.528661,83292.333,14100,3,MZ,1,100,27
1575568026.569855,83327.000,14100,3,MZ,1,100,24
1575568026.615405,83365.333,14116,3,MZ,1,100,25
1575568026.660955,83403.667,14116,3,MZ,1,100,24
1575568026.706505,83442.000,14116,3,MZ,1,100,26
1575568026.744529,83474.000,14134,3,MZ,1,100,27
1575568026.782554,83506.000,14134,3,MZ,1,100,26
1575568026.820578,83538.000,14134,3,MZ,1,100,28
1575568026.858207,83569.667,14152,3,MZ,1,100,29
1575568026.895835,83601.333,14152,3,MZ,1,100,30
1575568026.933463,83633.000,14152,3,MZ,1,100,30
1575568026.973468,83666.667,14171,3,MZ,1,100,30
1575568027.013473,83700.333,14171,3,MZ,1,100,29
1575568027.053478,83734.000,14171,3,MZ,1,100,30
1575568027.093879,83768.000,14189,3,MZ,1,100,30
1575568027.134279,83802.000,14189,3,MZ,1,100,30
1575568027.174680,83836.000,14189,3,MZ,1,100,29
1575568027.216270,83871.000,14207,3,MZ,1,100,29
1575568027.257859,83906.000,14207,3,MZ,1,100,30
1575568027.299448,83941.000,14207,3,MZ,1,100,29
1575568027.344008,83978.500,14225,2,MZ,1,100,29
1575568027.388568,84016.000,14225,2,MZ,1,100,28
1575568027.426889,84048.250,14243,4,MZ,1,100,29
1575568027.465211,84080.500,14243,4,MZ,1,100,29
1575568027.503532,84112.750,14243,4,MZ,1,100,30
1575568027.541854,84145.000,14243,4,MZ,1,100,30
1575568027.581858,84178.667,14260,3,MZ,1,100,29
1575568027.621863,84212.333,14260,3,MZ,1,100,29
1575568027.661868,84246.000,14260,3,MZ,1,100,29
1575568027.703061,84280.667,14278,3,MZ,1,100,29
1575568027.744254,84315.333,14278,3,MZ,1,100,28
1575568027.785448,84350.000,14278,3,MZ,1,100,29
1575568027.826641,84384.667,14294,3,MZ,1,100,28
1575568027.867834,84419.333,14294,3,MZ,1,100,29
1575568027.909027,84454.000,14294,3,MZ,1,100,28
1575568027.950022,84488.500,14313,2,MZ,1,100,30
1575568027.991017,84523.000,14313,2,MZ,1,100,28
1575568028.029041,84555.000,14331,3,MZ,1,100,30
1575568028.067066,84587.000,14331,3,MZ,1,100,30
1575568028.105090,84619.000,14331,3,MZ,1,100,30
1575568028.147472,84654.667,14349,3,MZ,1,100,30
1575568028.189853,84690.333,14349,3,MZ,1,100,30
1575568028.232234,84726.000,14349,3,MZ,1,100,28
1575568028.273823,84761.000,14367,3,MZ,1,100,29
1575568028.315413,84796.000,14367,3,MZ,1,100,28
1575568028.357002,84831.000,14367,3,MZ,1,100,30
1575568028.397799,84865.333,14385,3,MZ,1,100,30
1575568028.438596,84899.667,14385,3,MZ,1,100,29
1575568028.479393,84934.000,14385,3,MZ,1,100,30
1575568028.520586,84968.667,14403,3,MZ,1,100,29
1575568028.561779,85003.333,14403,3,MZ,1,100,29
1575568028.602972,85038.000,14403,3,MZ,1,100,29
1575568028.639808,85069.000,14421,3,MZ,1,100,29
1575568028.676645,85100.000,14421,3,MZ,1,100,29
1575568028.713481,85131.000,14421,3,MZ,1,100,29
1575568028.752297,85163.667,14438,3,MZ,1,100,30
1575568028.791114,85196.333,14438,3,MZ,1,100,28
1575568028.829931,85229.000,14438,3,MZ,1,100,29
1575568028.874688,85266.667,14457,3,MZ,1,100,30
1575568028.919446,85304.333,14457,3,MZ,1,100,30
1575568028.964204,85342.000,14457,3,MZ,1,100,30
1575568029.001338,85373.250,14475,4,MZ,1,100,29
1575568029.038471,85404.500,14475,4,MZ,1,100,30
1575568029.075604,85435.750,14475,4,MZ,1,100,30
1575568029.112737,85467.000,14475,4,MZ,1,100,30
1575568029.154326,85502.000,14491,2,MZ,1,100,30
1575568029.195915,85537.000,14491,2,MZ,1,100,31
1575568029.240673,85574.667,14509,3,MZ,1,100,32
1575568029.285431,85612.333,14509,3,MZ,1,100,32
1575568029.330189,85650.000,14509,3,MZ,1,100,32
1575568029.368214,85682.000,14527,3,MZ,1,100,33
1575568029.406238,85714.000,14527,3,MZ,1,100,32
1575568029.444262,85746.000,14527,3,MZ,1,100,32
1575568029.489020,85783.667,14545,3,MZ,1,100,32
1575568029.533778,85821.333,14545,3,MZ,1,100,33
1575568029.578536,85859.000,14545,3,MZ,1,100,33
1575568029.618541,85892.667,14563,3,MZ,1,100,32
1575568029.658546,85926.333,14563,3,MZ,1,100,32
1575568029.698551,85960.000,14563,3,MZ,1,100,33
1575568029.736575,85992.000,14581,3,MZ,1,100,33
1575568029.774600,86024.000,14581,3,MZ,1,100,32
1575568029.812624,86056.000,14581,3,MZ,1,100,32
1575568029.851836,86089.000,14599,3,MZ,1,100,32
1575568029.891049,86122.000,14599,3,MZ,1,100,31
1575568029.930262,86155.000,14599,3,MZ,1,100,32
1575568029.971455,86189.667,14617,3,MZ,1,100,31
1575568030.012648,86224.333,14617,3,MZ,1,100,32
1575568030.053841,86259.000,14617,3,MZ,1,100,32
1575568030.095034,86293.667,14635,3,MZ,1,100,32
1575568030.136227,86328.333,14635,3,MZ,1,100,32
1575568030.177421,86363.000,14635,3,MZ,1,100,33
1575568030.217108,86396.400,14654,5,MZ,1,100,32
1575568030.256797,86429.800,14654,5,MZ,1,100,32
1575568030.296484,86463.200,14654,5,MZ,1,100,32
1575568030.336172,86496.600,14654,5,MZ,1,100,32
1575568030.375860,86530.000,14654,5,MZ,1,100,32
1575568030.418638,86566.000,14676,2,MZ,1,100,32
1575568030.461415,86602.000,14676,2,MZ,1,100,32
1575568030.501222,86635.500,14694,4,MZ,1,100,32
1575568030.541029,86669.000,14694,4,MZ,1,100,32
1575568030.580836,86702.500,14694,4,MZ,1,100,32
1575568030.620643,86736.000,14694,4,MZ,1,100,32
1575568030.662232,86771.000,14711,2,MZ,1,100,32
1575568030.703821,86806.000,14711,2,MZ,1,100,32
1575568030.744618,86840.333,14729,3,MZ,1,100,33
1575568030.785415,86874.667,14729,3,MZ,1,100,33
1575568030.826212,86909.000,14729,3,MZ,1,100,30
1575568030.865821,86942.333,14745,3,MZ,1,100,32
1575568030.905430,86975.667,14745,3,MZ,1,100,31
1575568030.945038,87009.000,14745,3,MZ,1,100,32
1575568030.983063,87041.000,14764,3,MZ,1,100,31
1575568031.021087,87073.000,14764,3,MZ,1,100,32
1575568031.059112,87105.000,14764,3,MZ,1,100,32
1575568031.102285,87141.333,14782,3,MZ,1,100,32
1575568031.145459,87177.667,14782,3,MZ,1,100,31
1575568031.188632,87214.000,14782,3,MZ,1,100,32
1575568031.229429,87248.333,14800,3,MZ,1,100,31
1575568031.270226,87282.667,14800,3,MZ,1,100,32
1575568031.311023,87317.000,14800,3,MZ,1,100,32
1575568031.352612,87352.000,14818,3,MZ,1,100,32
1575568031.394202,87387.000,14818,3,MZ,1,100,32
1575568031.435791,87422.000,14818,3,MZ,1,100,32
1575568031.475796,87455.667,14836,3,MZ,1,100,32
1575568031.515800,87489.333,14836,3,MZ,1,100,32
1575568031.555805,87523.000,14836,3,MZ,1,100,32
1575568031.593830,87555.000,14854,3,MZ,1,100,32
1575568031.631854,87587.000,14854,3,MZ,1,100,31
1575568031.669879,87619.000,14854,3,MZ,1,100,32
1575568031.708695,87651.667,14872,3,MZ,1,100,31
1575568031.747512,87684.333,14872,3,MZ,1,100,32
1575568031.786328,87717.000,14872,3,MZ,1,100,31
1575568031.831086,87754.667,14889,3,MZ,1,100,32
1575568031.875844,87792.333,14889,3,MZ,1,100,32
1575568031.920602,87830.000,14889,3,MZ,1,100,31
1575568031.961399,87864.333,14908,3,MZ,1,100,32
1575568032.002196,87898.667,14908,3,MZ,1,100,33
1575568032.042993,87933.000,14908,3,MZ,1,100,32
1575568032.084186,87967.667,14924,3,MZ,1,100,31
1575568032.125379,88002.333,14924,3,MZ,1,100,32
1575568032.166573,88037.000,14924,3,MZ,1,100,32
1575568032.203409,88068.000,14942,3,MZ,1,100,33
1575568032.240245,88099.000,14942,3,MZ,1,100,30
1575568032.277081,88130.000,14942,3,MZ,1,100,32
1575568032.316293,88163.000,14960,3,MZ,1,100,32
1575568032.355506,88196.000,14960,3,MZ,1,100,32
1575568032.394719,88229.000,14960,3,MZ,1,100,32
1575568032.434724,88262.667,14978,3,MZ,1,100,32
1575568032.474729,88296.333,14978,3,MZ,1,100,30
1575568032.514734,88330.000,14978,3,MZ,1,100,31
1575568032.555927,88364.667,14996,3,MZ,1,100,31
1575568032.597120,88399.333,14996,3,MZ,1,100,30
1575568032.638313,88434.000,14996,3,MZ,1,100,30
1575568032.683467,88472.000,15014,3,MZ,1,100,30
1575568032.728621,88510.000,15014,3,MZ,1,100,31
1575568032.773775,88548.000,15014,3,MZ,1,100,32
1575568032.811799,88580.000,15032,3,MZ,1,100,32
1575568032.849823,88612.000,15032,3,MZ,1,100,32
1575568032.887848,88644.000,15032,3,MZ,1,100,31
1575568032.930229,88679.667,15050,3,MZ,1,100,32
1575568032.972611,88715.333,15050,3,MZ,1,100,32
1575568033.014992,88751.000,15050,3,MZ,1,100,32
1575568033.056185,88785.667,15068,3,MZ,1,100,32
1575568033.097378,88820.333,15068,3,MZ,1,100,32
1575568033.138572,88855.000,15068,3,MZ,1,100,32
1575568033.182537,88892.000,15084,2,MZ,1,100,31
1575568033.226503,88929.000,15084,2,MZ,1,100,32
1575568033.264923,88961.333,15102,3,MZ,1,100,31
1575568033.303344,88993.667,15102,3,MZ,1,100,31
1575568033.341764,89026.000,15102,3,MZ,1,100,31
1575568033.380680,89058.750,15120,4,MZ,1,100,31
1575568033.419595,89091.500,15120,4,MZ,1,100,32
1575568033.458511,89124.250,15120,4,MZ,1,100,31
1575568033.497427,89157.000,15120,4,MZ,1,100,31
1575568033.539610,89192.500,15138,2,MZ,1,100,31
1575568033.581794,89228.000,15138,2,MZ,1,100,32
1575568033.622987,89262.667,15156,3,MZ,1,100,31
1575568033.664180,89297.333,15156,3,MZ,1,100,32
1575568033.705373,89332.000,15156,3,MZ,1,100,31
1575568033.747358,89367.333,15174,3,MZ,1,100,31
1575568033.789343,89402.667,15174,3,MZ,1,100,30
1575568033.831329,89438.000,15174,3,MZ,1,100,32
1575568033.872522,89472.667,15192,3,MZ,1,100,30
1575568033.913715,89507.333,15192,3,MZ,1,100,31
1575568033.954908,89542.000,15192,3,MZ,1,100,30
1575568033.994913,89575.667,15210,3,MZ,1,100,31
1575568034.034918,89609.333,15210,3,MZ,1,100,30
1575568034.074923,89643.000,15210,3,MZ,1,100,29
1575568034.113343,89675.333,15228,3,MZ,1,100,30
1575568034.151763,89707.667,15228,3,MZ,1,100,31
1575568034.190184,89740.000,15228,3,MZ,1,100,31
1575568034.232961,89776.000,15246,3,MZ,1,100,32
1575568034.275739,89812.000,15246,3,MZ,1,100,31
1575568034.318516,89848.000,15246,3,MZ,1,100,31
1575568034.358917,89882.000,15262,3,MZ,1,100,31
1575568034.399318,89916.000,15262,3,MZ,1,100,31
1575568034.439719,89950.000,15262,3,MZ,1,100,31
1575568034.480516,89984.333,15280,3,MZ,1,100,31
1575568034.521313,90018.667,15280,3,MZ,1,100,31
1575568034.562110,90053.000,15280,3,MZ,1,100,31
1575568034.602907,90087.333,15298,3,MZ,1,100,31
1575568034.643704,90121.667,15298,3,MZ,1,100,31
1575568034.684501,90156.000,15298,3,MZ,1,100,31
1575568034.722130,90187.667,15316,3,MZ,1,100,31
1575568034.759758,90219.333,15316,3,MZ,1,100,30
1575568034.797386,90251.000,15316,3,MZ,1,100,31
1575568034.836599,90284.000,15334,3,MZ,1,100,31
1575568034.875812,90317.000,15334,3,MZ,1,100,32
1575568034.915024,90350.000,15334,3,MZ,1,100,30
1575568034.955425,90384.000,15353,3,MZ,1,100,32
1575568034.995826,90418.000,15353,3,MZ,1,100,30
1575568035.036227,90452.000,15353,3,MZ,1,100,31
1575568035.081777,90490.333,15371,3,MZ,1,100,31
1575568035.127327,90528.667,15371,3,MZ,1,100,32
1575568035.172877,90567.000,15371,3,MZ,1,100,31
1575568035.215061,90602.500,15388,2,MZ,1,100,30
1575568035.257244,90638.000,15388,2,MZ,1,100,32
1575568035.295269,90670.000,15406,4,MZ,1,100,32
1575568035.333293,90702.000,15406,4,MZ,1,100,31
1575568035.371317,90734.000,15406,4,MZ,1,100,31
1575568035.409342,90766.000,15406,4,MZ,1,100,32
1575568035.448158,90798.667,15424,3,MZ,1,100,31
1575568035.486975,90831.333,15424,3,MZ,1,100,31
1575568035.525791,90864.000,15424,3,MZ,1,100,30
1575568035.566984,90898.667,15440,3,MZ,1,100,32
1575568035.608178,90933.333,15440,3,MZ,1,100,30
1575568035.649371,90968.000,15440,3,MZ,1,100,31
1575568035.690960,91003.000,15458,3,MZ,1,100,31
1575568035.732549,91038.000,15458,3,MZ,1,100,31
1575568035.774138,91073.000,15458,3,MZ,1,100,32
1575568035.821075,91112.500,15476,2,MZ,1,100,32
1575568035.868011,91152.000,15476,2,MZ,1,100,31
1575568035.906432,91184.333,15494,3,MZ,1,100,31
1575568035.944852,91216.667,15494,3,MZ,1,100,31
1575568035.983273,91249.000,15494,3,MZ,1,100,31
1575568036.021000,91280.750,15513,4,MZ,1,100,31
1575568036.058727,91312.500,15513,4,MZ,1,100,30
1575568036.096455,91344.250,15513,4,MZ,1,100,31
1575568036.134182,91376.000,15513,4,MZ,1,100,30
1575568036.175771,91411.000,15531,3,MZ,1,100,29
1575568036.217360,91446.000,15531,3,MZ,1,100,31
1575568036.258950,91481.000,15531,3,MZ,1,100,30
1575568036.299945,91515.500,15550,4,MZ,1,100,32
1575568036.340940,91550.000,15550,4,MZ,1,100,31
1575568036.381935,91584.500,15550,4,MZ,1,100,31
1575568036.422930,91619.000,15550,4,MZ,1,100,32
1575568036.464123,91653.667,15572,3,MZ,1,100,30
1575568036.505316,91688.333,15572,3,MZ,1,100,31
1575568036.546509,91723.000,15572,3,MZ,1,100,32
1575568036.586910,91757.000,15590,3,MZ,1,100,30
1575568036.627311,91791.000,15590,3,MZ,1,100,30
1575568036.667712,91825.000,15590,3,MZ,1,100,31
1575568036.708113,91859.000,15608,3,MZ,1,100,30
1575568036.748514,91893.000,15608,3,MZ,1,100,29
1575568036.788915,91927.000,15608,3,MZ,1,100,30
1575568036.826939,91959.000,15626,3,MZ,1,100,30
1575568036.864964,91991.000,15626,3,MZ,1,100,31
1575568036.902988,92023.000,15626,3,MZ,1,100,31
1575568036.939824,92054.000,15645,4,MZ,1,100,31
1575568036.976660,92085.000,15645,4,MZ,1,100,30
1575568037.013496,92116.000,15645,4,MZ,1,100,30
1575568037.050333,92147.000,15645,4,MZ,1,100,30
1575568037.088951,92179.500,15663,2,MZ,1,100,30
1575568037.127570,92212.000,15663,2,MZ,1,100,32
1575568037.171535,92249.000,15680,3,MZ,1,100,30
1575568037.215501,92286.000,15680,3,MZ,1,100,31
1575568037.259467,92323.000,15680,3,MZ,1,100,29
1575568037.300660,92357.667,15698,3,MZ,1,100,31
1575568037.341853,92392.333,15698,3,MZ,1,100,30
1575568037.383046,92427.000,15698,3,MZ,1,100,30
1575568037.423843,92461.333,15716,3,MZ,1,100,32
1575568037.464640,92495.667,15716,3,MZ,1,100,30
1575568037.505437,92530.000,15716,3,MZ,1,100,31
1575568037.544650,92563.000,15732,3,MZ,1,100,30
1575568037.583863,92596.000,15732,3,MZ,1,100,29
1575568037.623075,92629.000,15732,3,MZ,1,100,30
1575568037.661496,92661.333,15750,3,MZ,1,100,31
1575568037.699916,92693.667,15750,3,MZ,1,100,32
1575568037.738337,92726.000,15750,3,MZ,1,100,29
1575568037.777550,92759.000,15768,3,MZ,1,100,30
1575568037.816762,92792.000,15768,3,MZ,1,100,30
1575568037.855975,92825.000,15768,3,MZ,1,100,30
1575568037.897960,92860.333,15787,3,MZ,1,100,31
1575568037.939945,92895.667,15787,3,MZ,1,100,30
1575568037.981930,92931.000,15787,3,MZ,1,100,31
1575568038.022331,92965.000,15805,3,MZ,1,100,31
1575568038.062732,92999.000,15805,3,MZ,1,100,30
1575568038.103133,93033.000,15805,3,MZ,1,100,31
1575568038.148287,93071.000,15823,3,MZ,1,100,30
1575568038.193441,93109.000,15823,3,MZ,1,100,31
1575568038.238595,93147.000,15823,3,MZ,1,100,30
1575568038.279788,93181.667,15841,3,MZ,1,100,30
1575568038.320982,93216.333,15841,3,MZ,1,100,30
1575568038.362175,93251.000,15841,3,MZ,1,100,30
1575568038.400991,93283.667,15858,3,MZ,1,100,30
1575568038.439808,93316.333,15858,3,MZ,1,100,30
1575568038.478624,93349.000,15858,3,MZ,1,100,30
1575568038.516253,93380.667,15876,3,MZ,1,100,30
1575568038.553881,93412.333,15876,3,MZ,1,100,30
1575568038.591509,93444.000,15876,3,MZ,1,100,30
1575568038.631514,93477.667,15894,3,MZ,1,100,30
1575568038.671519,93511.333,15894,3,MZ,1,100,31
1575568038.711524,93545.000,15894,3,MZ,1,100,30
1575568038.752321,93579.333,15910,3,MZ,1,100,31
1575568038.793118,93613.667,15910,3,MZ,1,100,30
1575568038.833915,93648.000,15910,3,MZ,1,100,32
1575568038.874712,93682.333,15928,3,MZ,1,100,31
1575568038.915509,93716.667,15928,3,MZ,1,100,30
1575568038.956306,93751.000,15928,3,MZ,1,100,31
1575568039.002648,93790.000,15947,2,MZ,1,100,32
1575568039.048991,93829.000,15947,2,MZ,1,100,32
1575568039.086718,93860.750,15965,4,MZ,1,100,30
1575568039.124445,93892.500,15965,4,MZ,1,100,31
1575568039.162173,93924.250,15965,4,MZ,1,100,31
1575568039.199900,93956.000,15965,4,MZ,1,100,31
1575568039.239905,93989.667,15983,3,MZ,1,100,32
1575568039.279910,94023.333,15983,3,MZ,1,100,30
1575568039.319915,94057.000,15983,3,MZ,1,100,32
1575568039.361504,94092.000,16001,3,MZ,1,100,32
1575568039.403093,94127.000,16001,3,MZ,1,100,31
1575568039.444682,94162.000,16001,3,MZ,1,100,30
1575568039.485875,94196.667,16019,3,MZ,1,100,32
1575568039.527068,94231.333,16019,3,MZ,1,100,31
1575568039.568261,94266.000,16019,3,MZ,1,100,31
1575568039.609851,94301.000,16036,2,MZ,1,100,32
1575568039.651440,94336.000,16036,2,MZ,1,100,30
1575568039.692633,94370.667,16054,3,MZ,1,100,31
1575568039.733826,94405.333,16054,3,MZ,1,100,31
1575568039.775019,94440.000,16054,3,MZ,1,100,31
1575568039.813935,94472.750,16072,4,MZ,1,100,31
1575568039.852850,94505.500,16072,4,MZ,1,100,31
1575568039.891766,94538.250,16072,4,MZ,1,100,32
1575568039.930682,94571.000,16072,4,MZ,1,100,31
1575568039.972271,94606.000,16089,2,MZ,1,100,32
1575568040.013860,94641.000,16089,2,MZ,1,100,31
1575568040.054657,94675.333,16107,3,MZ,1,100,30
1575568040.095454,94709.667,16107,3,MZ,1,100,30
1575568040.136251,94744.000,16107,3,MZ,1,100,31
1575568040.177048,94778.333,16125,3,MZ,1,100,32
1575568040.217845,94812.667,16125,3,MZ,1,100,30
1575568040.258642,94847.000,16125,3,MZ,1,100,30
1575568040.296072,94878.500,16143,4,MZ,1,100,31
1575568040.333503,94910.000,16143,4,MZ,1,100,30
1575568040.370933,94941.500,16143,4,MZ,1,100,32
1575568040.408363,94973.000,16143,4,MZ,1,100,30
1575568040.446784,95005.333,16161,3,MZ,1,100,31
1575568040.485204,95037.667,16161,3,MZ,1,100,31
1575568040.523625,95070.000,16161,3,MZ,1,100,32
1575568040.563234,95103.333,16179,3,MZ,1,100,30
1575568040.602842,95136.667,16179,3,MZ,1,100,32
1575568040.642451,95170.000,16179,3,MZ,1,100,31
1575568040.683248,95204.333,16197,3,MZ,1,100,32
1575568040.724045,95238.667,16197,3,MZ,1,100,31
1575568040.764842,95273.000,16197,3,MZ,1,100,30
1575568040.811779,95312.500,16215,2,MZ,1,100,30
1575568040.858715,95352.000,16215,2,MZ,1,100,31
1575568040.899908,95386.667,16233,3,MZ,1,100,30
1575568040.941101,95421.333,16233,3,MZ,1,100,31
1575568040.982294,95456.000,16233,3,MZ,1,100,31
1575568041.023883,95491.000,16251,3,MZ,1,100,32
1575568041.065473,95526.000,16251,3,MZ,1,100,30
1575568041.107062,95561.000,16251,3,MZ,1,100,31
1575568041.148651,95596.000,16267,3,MZ,1,100,31
1575568041.190240,95631.000,16267,3,MZ,1,100,31
1575568041.231829,95666.000,16267,3,MZ,1,100,31
1575568041.272230,95700.000,16285,3,MZ,1,100,32
1575568041.312631,95734.000,16285,3,MZ,1,100,31
1575568041.353032,95768.000,16285,3,MZ,1,100,31
1575568041.390661,95799.667,16303,3,MZ,1,100,30
1575568041.428289,95831.333,16303,3,MZ,1,100,31
1575568041.465917,95863.000,16303,3,MZ,1,100,31
1575568041.505922,95896.667,16321,3,MZ,1,100,30
1575568041.545927,95930.333,16321,3,MZ,1,100,31
1575568041.585932,95964.000,16321,3,MZ,1,100,30
1575568041.626333,95998.000,16339,3,MZ,1,100,31
1575568041.666734,96032.000,16339,3,MZ,1,100,31
1575568041.707134,96066.000,16339,3,MZ,1,100,31
1575568041.748724,96101.000,16357,3,MZ,1,100,30
1575568041.790313,96136.000,16357,3,MZ,1,100,31
1575568041.831902,96171.000,16357,3,MZ,1,100,30
1575568041.875868,96208.000,16374,3,MZ,1,100,32
1575568041.919833,96245.000,16374,3,MZ,1,100,31
1575568041.963799,96282.000,16374,3,MZ,1,100,31
1575568042.001824,96314.000,16393,3,MZ,1,100,31
1575568042.039848,96346.000,16393,3,MZ,1,100,31
1575568042.077873,96378.000,16393,3,MZ,1,100,31
1575568042.116689,96410.667,16411,3,MZ,1,100,30
1575568042.155506,96443.333,16411,3,MZ,1,100,31
1575568042.194322,96476.000,16411,3,MZ,1,100,30
1575568042.235515,96510.667,16429,3,MZ,1,100,31
1575568042.276708,96545.333,16429,3,MZ,1,100,30
1575568042.317902,96580.000,16429,3,MZ,1,100,32
1575568042.359253,96614.800,16448,5,MZ,1,100,31
1575568042.400605,96649.600,16448,5,MZ,1,100,31
1575568042.441956,96684.400,16448,5,MZ,1,100,31
1575568042.483308,96719.200,16448,5,MZ,1,100,31
1575568042.524659,96754.000,16448,5,MZ,1,100,31
1575568042.562090,96785.500,16466,2,MZ,1,100,31
1575568042.599520,96817.000,16466,2,MZ,1,100,31
1575568042.640713,96851.667,16487,3,MZ,1,100,31
1575568042.681906,96886.333,16487,3,MZ,1,100,31
1575568042.723099,96921.000,16487,3,MZ,1,100,31
1575568042.763104,96954.667,16505,3,MZ,1,100,30
1575568042.803109,96988.333,16505,3,MZ,1,100,31
1575568042.843114,97022.000,16505,3,MZ,1,100,31
1575568042.884307,97056.667,16522,3,MZ,1,100,30
1575568042.925500,97091.333,16522,3,MZ,1,100,32
1575568042.966693,97126.000,16522,3,MZ,1,100,31
1575568043.007886,97160.667,16540,3,MZ,1,100,31
1575568043.049079,97195.333,16540,3,MZ,1,100,31
1575568043.090272,97230.000,16540,3,MZ,1,100,30
1575568043.130277,97263.667,16558,3,MZ,1,100,31
1575568043.170282,97297.333,16558,3,MZ,1,100,31
1575568043.210287,97331.000,16558,3,MZ,1,100,30
1575568043.248311,97363.000,16576,3,MZ,1,100,31
1575568043.286336,97395.000,16576,3,MZ,1,100,29
1575568043.324360,97427.000,16576,3,MZ,1,100,30
1575568043.367138,97463.000,16594,3,MZ,1,100,31
1575568043.409915,97499.000,16594,3,MZ,1,100,31
1575568043.452693,97535.000,16594,3,MZ,1,100,31
1575568043.494282,97570.000,16612,3,MZ,1,100,30
1575568043.535871,97605.000,16612,3,MZ,1,100,30
1575568043.577460,97640.000,16612,3,MZ,1,100,30
1575568043.618257,97674.333,16630,3,MZ,1,100,30
1575568043.659054,97708.667,16630,3,MZ,1,100,31
1575568043.699851,97743.000,16630,3,MZ,1,100,31
1575568043.740648,97777.333,16648,3,MZ,1,100,31
1575568043.781445,97811.667,16648,3,MZ,1,100,31
1575568043.822242,97846.000,16648,3,MZ,1,100,31
1575568043.859474,97877.333,16665,3,MZ,1,100,29
1575568043.896707,97908.667,16665,3,MZ,1,100,31
1575568043.933939,97940.000,16665,3,MZ,1,100,30
1575568043.972359,97972.333,16684,3,MZ,1,100,30
1575568044.010780,98004.667,16684,3,MZ,1,100,30
1575568044.049201,98037.000,16684,3,MZ,1,100,31
1575568044.089998,98071.333,16702,3,MZ,1,100,31
1575568044.130795,98105.667,16702,3,MZ,1,100,31
1575568044.171592,98140.000,16702,3,MZ,1,100,31
1575568044.216349,98177.667,16718,3,MZ,1,100,30
1575568044.261107,98215.333,16718,3,MZ,1,100,31
1575568044.305865,98253.000,16718,3,MZ,1,100,30
1575568044.344682,98285.667,16736,3,MZ,1,100,31
1575568044.383498,98318.333,16736,3,MZ,1,100,31
1575568044.422315,98351.000,16736,3,MZ,1,100,31
1575568044.469251,98390.500,16754,2,MZ,1,100,31
1575568044.516188,98430.000,16754,2,MZ,1,100,31
1575568044.555400,98463.000,16772,4,MZ,1,100,31
1575568044.594613,98496.000,16772,4,MZ,1,100,29
1575568044.633826,98529.000,16772,4,MZ,1,100,31
1575568044.673038,98562.000,16772,4,MZ,1,100,30
1575568044.719975,98601.500,16790,2,MZ,1,100,30
1575568044.766911,98641.000,16790,2,MZ,1,100,30
1575568044.807312,98675.000,16807,3,MZ,1,100,31
1575568044.847713,98709.000,16807,3,MZ,1,100,30
1575568044.888114,98743.000,16807,3,MZ,1,100,30
1575568044.926931,98775.667,16826,3,MZ,1,100,31
1575568044.965747,98808.333,16826,3,MZ,1,100,31
1575568045.004564,98841.000,16826,3,MZ,1,100,31
1575568045.044569,98874.667,16844,3,MZ,1,100,31
1575568045.084574,98908.333,16844,3,MZ,1,100,31
1575568045.124578,98942.000,16844,3,MZ,1,100,31
1575568045.162603,98974.000,16862,4,MZ,1,100,29
1575568045.200627,99006.000,16862,4,MZ,1,100,31
1575568045.238652,99038.000,16862,4,MZ,1,100,31
1575568045.276676,99070.000,16862,4,MZ,1,100,31
1575568045.316483,99103.500,16878,2,MZ,1,100,30
1575568045.356290,99137.000,16878,2,MZ,1,100,32
1575568045.397285,99171.500,16896,4,MZ,1,100,30
1575568045.438280,99206.000,16896,4,MZ,1,100,30
1575568045.479275,99240.500,16896,4,MZ,1,100,30
1575568045.520270,99275.000,16896,4,MZ,1,100,31
1575568045.561859,99310.000,16914,2,MZ,1,100,31
1575568045.603448,99345.000,16914,2,MZ,1,100,31
1575568045.643849,99379.000,16932,3,MZ,1,100,31
1575568045.684250,99413.000,16932,3,MZ,1,100,31
1575568045.724651,99447.000,16932,3,MZ,1,100,31
1575568045.766240,99482.000,16950,3,MZ,1,100,31
1575568045.807829,99517.000,16950,3,MZ,1,100,32
1575568045.849419,99552.000,16950,3,MZ,1,100,31
1575568045.888235,99584.667,16968,3,MZ,1,100,29
1575568045.927052,99617.333,16968,3,MZ,1,100,30
1575568045.965868,99650.000,16968,3,MZ,1,100,29
1575568046.007061,99684.667,16987,3,MZ,1,100,30
1575568046.048254,99719.333,16987,3,MZ,1,100,29
1575568046.089448,99754.000,16987,3,MZ,1,100,29
1575568046.129849,99788.000,17004,3,MZ,1,100,30
1575568046.170249,99822.000,17004,3,MZ,1,100,29
1575568046.210650,99856.000,17004,3,MZ,1,100,28
1575568046.251844,99890.667,17022,3,MZ,1,100,27
1575568046.293037,99925.333,17022,3,MZ,1,100,28
1575568046.334230,99960.000,17022,3,MZ,1,100,27
1575568046.371462,99991.333,17040,3,MZ,1,100,26
1575568046.408694,100022.667,17040,3,MZ,1,100,27
1575568046.445927,100054.000,17040,3,MZ,1,100,25
1575568046.488308,100089.667,17056,3,MZ,1,100,26
1575568046.530689,100125.333,17056,3,MZ,1,100,26
1575568046.573071,100161.000,17056,3,MZ,1,100,27
1575568046.614660,100196.000,17074,3,MZ,1,100,25
1575568046.656249,100231.000,17074,3,MZ,1,100,27
1575568046.697838,100266.000,17074,3,MZ,1,100,27
1575568046.738635,100300.333,17092,3,MZ,1,100,29
1575568046.779432,100334.667,17092,3,MZ,1,100,32
1575568046.820229,100369.000,17092,3,MZ,1,100,32
1575568046.861423,100403.667,17110,3,MZ,1,100,33
1575568046.902616,100438.333,17110,3,MZ,1,100,33
1575568046.943809,100473.000,17110,3,MZ,1,100,32
1575568046.981833,100505.000,17129,3,MZ,1,100,31
1575568047.019857,100537.000,17129,3,MZ,1,100,29
1575568047.057882,100569.000,17129,3,MZ,1,100,26
1575568047.096302,100601.333,17147,3,MZ,1,100,23
1575568047.134723,100633.667,17147,3,MZ,1,100,25
1575568047.173143,100666.000,17147,3,MZ,1,100,25
1575568047.213940,100700.333,17165,3,MZ,1,100,21
1575568047.254737,100734.667,17165,3,MZ,1,100,20
1575568047.295534,100769.000,17165,3,MZ,1,100,15
1575568047.340292,100806.667,17182,3,MZ,1,100,11
1575568047.385050,100844.333,17182,3,MZ,1,100, 6
1575568047.429808,100882.000,17182,3,MZ,1,100, 9
1575568047.471001,100916.667,17200,3,MZ,1,100,17
1575568047.512194,100951.333,17200,3,MZ,1,100,24
1575568047.553387,100986.000,17200,3,MZ,1,100,32
1575568047.590224,101017.000,17218,3,MZ,1,100,34
1575568047.627060,101048.000,17218,3,MZ,1,100,31
1575568047.663896,101079.000,17218,3,MZ,1,100,28
1575568047.703505,101112.333,17234,3,MZ,1,100,21
1575568047.743114,101145.667,17234,3,MZ,1,100,21
1575568047.782722,101179.000,17234,3,MZ,1,100,23
1575568047.822331,101212.333,17252,3,MZ,1,100,23
1575568047.861940,101245.667,17252,3,MZ,1,100,24
1575568047.901548,101279.000,17252,3,MZ,1,100,26
1575568047.942742,101313.667,17271,3,MZ,1,100,28
1575568047.983935,101348.333,17271,3,MZ,1,100,29
1575568048.025128,101383.000,17271,3,MZ,1,100,31
1575568048.066123,101417.500,17289,2,MZ,1,100,31
1575568048.107118,101452.000,17289,2,MZ,1,100,29
1575568048.148707,101487.000,17307,4,MZ,1,100,27
1575568048.190296,101522.000,17307,4,MZ,1,100,24
1575568048.231885,101557.000,17307,4,MZ,1,100,21
1575568048.273475,101592.000,17307,4,MZ,1,100,19
1575568048.314272,101626.333,17325,3,MZ,1,100,20
1575568048.355069,101660.667,17325,3,MZ,1,100,19
1575568048.395866,101695.000,17325,3,MZ,1,100,20
1575568048.436029,101728.800,17346,5,MZ,1,100,19
1575568048.476192,101762.600,17346,5,MZ,1,100,19
1575568048.516356,101796.400,17346,5,MZ,1,100,20
1575568048.556519,101830.200,17346,5,MZ,1,100,20
1575568048.596682,101864.000,17346,5,MZ,1,100,21
1575568048.634113,101895.500,17366,2,MZ,1,100,21
1575568048.671543,101927.000,17366,2,MZ,1,100,21
1575568048.709864,101959.250,17384,4,MZ,1,100,21
1575568048.748186,101991.500,17384,4,MZ,1,100,20
1575568048.786507,102023.750,17384,4,MZ,1,100,19
1575568048.824829,102056.000,17384,4,MZ,1,100,19
1575568048.865626,102090.333,17402,3,MZ,1,100,19
1575568048.906423,102124.667,17402,3,MZ,1,100,18
1575568048.947220,102159.000,17402,3,MZ,1,100,17
1575568048.988413,102193.667,17421,3,MZ,1,100,18
1575568049.029606,102228.333,17421,3,MZ,1,100,17
1575568049.070799,102263.000,17421,3,MZ,1,100,17
1575568049.112983,102298.500,17439,2,MZ,1,100,17
1575568049.155166,102334.000,17439,2,MZ,1,100,18
1575568049.197151,102369.333,17456,3,MZ,1,100,17
1575568049.239136,102404.667,17456,3,MZ,1,100,17
1575568049.281121,102440.000,17456,3,MZ,1,100,16
1575568049.323107,102475.333,17474,3,MZ,1,100,19
1575568049.365092,102510.667,17474,3,MZ,1,100,17
1575568049.407078,102546.000,17474,3,MZ,1,100,17
1575568049.445102,102578.000,17492,3,MZ,1,100,16
1575568049.483126,102610.000,17492,3,MZ,1,100,19
1575568049.521151,102642.000,17492,3,MZ,1,100,17
1575568049.558779,102673.667,17508,3,MZ,1,100,18
1575568049.596407,102705.333,17508,3,MZ,1,100,18
1575568049.634036,102737.000,17508,3,MZ,1,100,18
1575568049.678001,102774.000,17526,3,MZ,1,100,19
1575568049.721967,102811.000,17526,3,MZ,1,100,20
1575568049.765933,102848.000,17526,3,MZ,1,100,22
1575568049.807126,102882.667,17544,3,MZ,1,100,21
1575568049.848319,102917.333,17544,3,MZ,1,100,21
1575568049.889512,102952.000,17544,3,MZ,1,100,18
1575568049.930309,102986.333,17563,3,MZ,1,100,19
1575568049.971106,103020.667,17563,3,MZ,1,100,18
1575568050.011903,103055.000,17563,3,MZ,1,100,21
1575568050.051116,103088.000,17581,3,MZ,1,100,18
1575568050.090328,103121.000,17581,3,MZ,1,100,20
1575568050.129541,103154.000,17581,3,MZ,1,100,19
1575568050.167566,103186.000,17599,3,MZ,1,100,18
1575568050.205590,103218.000,17599,3,MZ,1,100,18
1575568050.243614,103250.000,17599,3,MZ,1,100,19
1575568050.283223,103283.333,17617,3,MZ,1,100,19
1575568050.322832,103316.667,17617,3,MZ,1,100,19
1575568050.362441,103350.000,17617,3,MZ,1,100,19
1575568050.403634,103384.667,17635,3,MZ,1,100,19
1575568050.444827,103419.333,17635,3,MZ,1,100,19
1575568050.486020,103454.000,17635,3,MZ,1,100,18
1575568050.530382,103491.333,17652,3,MZ,1,100,19
1575568050.574744,103528.667,17652,3,MZ,1,100,19
1575568050.619106,103566.000,17652,3,MZ,1,100,19
1575568050.658318,103599.000,17670,3,MZ,1,100,18
1575568050.697531,103632.000,17670,3,MZ,1,100,18
1575568050.736743,103665.000,17670,3,MZ,1,100,20
1575568050.775164,103697.333,17687,3,MZ,1,100,18
1575568050.813585,103729.667,17687,3,MZ,1,100,18
1575568050.852005,103762.000,17687,3,MZ,1,100,19
1575568050.891614,103795.333,17704,3,MZ,1,100,19
1575568050.931222,103828.667,17704,3,MZ,1,100,19
1575568050.970831,103862.000,17704,3,MZ,1,100,19
1575568051.012420,103897.000,17723,3,MZ,1,100,19
1575568051.054010,103932.000,17723,3,MZ,1,100,19
1575568051.095599,103967.000,17723,3,MZ,1,100,19
1575568051.136396,104001.333,17741,3,MZ,1,100,19
1575568051.177193,104035.667,17741,3,MZ,1,100,20
1575568051.217990,104070.000,17741,3,MZ,1,100,20
1575568051.260173,104105.500,17759,2,MZ,1,100,19
1575568051.302357,104141.000,17759,2,MZ,1,100,20
1575568051.341866,104174.250,17777,4,MZ,1,100,21
1575568051.381376,104207.500,17777,4,MZ,1,100,19
1575568051.420886,104240.750,17777,4,MZ,1,100,21
1575568051.460396,104274.000,17777,4,MZ,1,100,20
1575568051.501193,104308.333,17795,3,MZ,1,100,21
1575568051.541990,104342.667,17795,3,MZ,1,100,22
1575568051.582787,104377.000,17795,3,MZ,1,100,21
1575568051.623782,104411.500,17812,2,MZ,1,100,21
1575568051.664777,104446.000,17812,2,MZ,1,100,19
1575568051.705772,104480.500,17830,4,MZ,1,100,20
1575568051.746767,104515.000,17830,4,MZ,1,100,21
1575568051.787762,104549.500,17830,4,MZ,1,100,21
1575568051.828757,104584.000,17830,4,MZ,1,100,22
1575568051.870346,104619.000,17848,2,MZ,1,100,21
1575568051.911935,104654.000,17848,2,MZ,1,100,21
1575568051.949069,104685.250,17865,4,MZ,1,100,21
1575568051.986202,104716.500,17865,4,MZ,1,100,20
1575568052.023335,104747.750,17865,4,MZ,1,100,20
1575568052.060468,104779.000,17865,4,MZ,1,100,20
1575568052.105622,104817.000,17883,2,MZ,1,100,20
1575568052.150776,104855.000,17883,2,MZ,1,100,21
1575568052.187315,104885.750,17901,4,MZ,1,100,20
1575568052.223854,104916.500,17901,4,MZ,1,100,21
1575568052.260394,104947.250,17901,4,MZ,1,100,22
1575568052.296933,104978.000,17901,4,MZ,1,100,21
1575568052.338126,105012.667,17919,3,MZ,1,100,20
1575568052.379319,105047.333,17919,3,MZ,1,100,21
1575568052.420512,105082.000,17919,3,MZ,1,100,21
1575568052.458140,105113.667,17937,3,MZ,1,100,21
1575568052.495769,105145.333,17937,3,MZ,1,100,20
1575568052.533397,105177.000,17937,3,MZ,1,100,20
1575568052.578155,105214.667,17955,3,MZ,1,100,21
1575568052.622913,105252.333,17955,3,MZ,1,100,20
1575568052.667670,105290.000,17955,3,MZ,1,100,20
1575568052.708666,105324.500,17973,2,MZ,1,100,20
1575568052.749661,105359.000,17973,2,MZ,1,100,21
1575568052.791250,105394.000,17990,3,MZ,1,100,21
1575568052.832839,105429.000,17990,3,MZ,1,100,22
1575568052.874428,105464.000,17990,3,MZ,1,100,23
1575568052.914829,105498.000,18009,3,MZ,1,100,24
1575568052.955230,105532.000,18009,3,MZ,1,100,25
1575568052.995631,105566.000,18009,3,MZ,1,100,25
1575568053.033655,105598.000,18027,4,MZ,1,100,26
1575568053.071680,105630.000,18027,4,MZ,1,100,25
1575568053.109704,105662.000,18027,4,MZ,1,100,27
1575568053.147729,105694.000,18027,4,MZ,1,100,27
1575568053.187734,105727.667,18045,3,MZ,1,100,29
1575568053.227738,105761.333,18045,3,MZ,1,100,28
1575568053.267743,105795.000,18045,3,MZ,1,100,29
1575568053.308738,105829.500,18061,2,MZ,1,100,29
1575568053.349733,105864.000,18061,2,MZ,1,100,28
1575568053.390927,105898.667,18079,3,MZ,1,100,29
1575568053.432120,105933.333,18079,3,MZ,1,100,28
1575568053.473313,105968.000,18079,3,MZ,1,100,29
1575568053.514902,106003.000,18097,3,MZ,1,100,29
1575568053.556491,106038.000,18097,3,MZ,1,100,29
1575568053.598080,106073.000,18097,3,MZ,1,100,29
1575568053.643234,106111.000,18115,3,MZ,1,100,28
1575568053.688388,106149.000,18115,3,MZ,1,100,28
1575568053.733542,106187.000,18115,3,MZ,1,100,29
1575568053.772359,106219.667,18133,3,MZ,1,100,29
1575568053.811176,106252.333,18133,3,MZ,1,100,31
1575568053.849992,106285.000,18133,3,MZ,1,100,32
1575568053.887620,106316.667,18151,3,MZ,1,100,32
1575568053.925249,106348.333,18151,3,MZ,1,100,32
1575568053.962877,106380.000,18151,3,MZ,1,100,32
1575568054.002486,106413.333,18170,3,MZ,1,100,32
1575568054.042094,106446.667,18170,3,MZ,1,100,32
1575568054.081703,106480.000,18170,3,MZ,1,100,31
1575568054.122104,106514.000,18187,3,MZ,1,100,33
1575568054.162505,106548.000,18187,3,MZ,1,100,31
1575568054.202906,106582.000,18187,3,MZ,1,100,30
1575568054.244495,106617.000,18205,3,MZ,1,100,29
1575568054.286084,106652.000,18205,3,MZ,1,100,31
1575568054.327674,106687.000,18205,3,MZ,1,100,30
1575568054.371243,106723.667,18221,3,MZ,1,100,31
1575568054.414813,106760.333,18221,3,MZ,1,100,30
1575568054.458383,106797.000,18221,3,MZ,1,100,30
1575568054.496882,106829.400,18242,5,MZ,1,100,31
1575568054.535382,106861.800,18242,5,MZ,1,100,30
1575568054.573882,106894.200,18242,5,MZ,1,100,30
1575568054.612381,106926.600,18242,5,MZ,1,100,30
1575568054.650881,106959.000,18242,5,MZ,1,100,31
1575568054.691678,106993.333,18262,3,MZ,1,100,29
1575568054.732475,107027.667,18262,3,MZ,1,100,30
1575568054.773272,107062.000,18262,3,MZ,1,100,30
1575568054.814267,107096.500,18279,2,MZ,1,100,30
1575568054.855262,107131.000,18279,2,MZ,1,100,30
1575568054.896456,107165.667,18297,3,MZ,1,100,31
1575568054.937649,107200.333,18297,3,MZ,1,100,31
1575568054.978842,107235.000,18297,3,MZ,1,100,29
1575568055.017460,107267.500,18315,4,MZ,1,100,30
1575568055.056079,107300.000,18315,4,MZ,1,100,31
1575568055.094697,107332.500,18315,4,MZ,1,100,30
1575568055.133316,107365.000,18315,4,MZ,1,100,30
1575568055.176687,107401.500,18332,2,MZ,1,100,31
1575568055.220059,107438.000,18332,2,MZ,1,100,30
1575568055.260064,107471.667,18350,3,MZ,1,100,30
1575568055.300069,107505.333,18350,3,MZ,1,100,30
1575568055.340074,107539.000,18350,3,MZ,1,100,31
1575568055.381267,107573.667,18368,3,MZ,1,100,30
1575568055.422460,107608.333,18368,3,MZ,1,100,30
1575568055.463653,107643.000,18368,3,MZ,1,100,30
1575568055.505242,107678.000,18386,3,MZ,1,100,31
1575568055.546831,107713.000,18386,3,MZ,1,100,30
1575568055.588421,107748.000,18386,3,MZ,1,100,31
1575568055.626841,107780.333,18404,3,MZ,1,100,31
1575568055.665262,107812.667,18404,3,MZ,1,100,29
1575568055.703682,107845.000,18404,3,MZ,1,100,31
1575568055.741409,107876.750,18422,4,MZ,1,100,30
1575568055.779137,107908.500,18422,4,MZ,1,100,29
1575568055.816864,107940.250,18422,4,MZ,1,100,31
1575568055.854591,107972.000,18422,4,MZ,1,100,29
1575568055.895388,108006.333,18440,3,MZ,1,100,30
1575568055.936185,108040.667,18440,3,MZ,1,100,30
1575568055.976983,108075.000,18440,3,MZ,1,100,29
1575568056.023919,108114.500,18458,2,MZ,1,100,30
1575568056.070855,108154.000,18458,2,MZ,1,100,30
1575568056.112048,108188.667,18476,3,MZ,1,100,29
1575568056.153241,108223.333,18476,3,MZ,1,100,30
1575568056.194435,108258.000,18476,3,MZ,1,100,30
1575568056.236420,108293.333,18492,3,MZ,1,100,31
1575568056.278405,108328.667,18492,3,MZ,1,100,30
1575568056.320390,108364.000,18492,3,MZ,1,100,30
1575568056.358811,108396.333,18510,3,MZ,1,100,31
1575568056.397231,108428.667,18510,3,MZ,1,100,30
1575568056.435652,108461.000,18510,3,MZ,1,100,30
1575568056.480410,108498.667,18528,3,MZ,1,100,31
1575568056.525168,108536.333,18528,3,MZ,1,100,30
1575568056.569926,108574.000,18528,3,MZ,1,100,30
1575568056.611911,108609.333,18546,3,MZ,1,100,31
1575568056.653896,108644.667,18546,3,MZ,1,100,30
1575568056.695881,108680.000,18546,3,MZ,1,100,28
1575568056.733906,108712.000,18564,3,MZ,1,100,23
1575568056.771930,108744.000,18564,3,MZ,1,100,18
1575568056.809955,108776.000,18564,3,MZ,1,100,16
1575568056.847583,108807.667,18582,3,MZ,1,100,10
1575568056.885211,108839.333,18582,3,MZ,1,100, 4
1575568056.922840,108871.000,18582,3,MZ,1,100,-0
1575568056.963241,108905.000,18601,3,MZ,1,100,-4
1575568057.003642,108939.000,18601,3,MZ,1,100,-6
1575568057.044043,108973.000,18601,3,MZ,1,100,-8
1575568057.085632,109008.000,18618,3,MZ,1,100,-4
1575568057.127221,109043.000,18618,3,MZ,1,100, 2
1575568057.168810,109078.000,18618,3,MZ,1,100, 7
1575568057.210399,109113.000,18636,3,MZ,1,100,15
1575568057.251988,109148.000,18636,3,MZ,1,100,21
1575568057.293578,109183.000,18636,3,MZ,1,100,25
1575568057.332394,109215.667,18652,3,MZ,1,100,27
1575568057.371211,109248.333,18652,3,MZ,1,100,28
1575568057.410028,109281.000,18652,3,MZ,1,100,28
1575568057.451221,109315.667,18670,3,MZ,1,100,28
1575568057.492414,109350.333,18670,3,MZ,1,100,27
1575568057.533607,109385.000,18670,3,MZ,1,100,29
1575568057.573215,109418.333,18688,3,MZ,1,100,30
1575568057.612824,109451.667,18688,3,MZ,1,100,30
1575568057.652433,109485.000,18688,3,MZ,1,100,27
1575568057.693230,109519.333,18706,3,MZ,1,100,28
1575568057.734027,109553.667,18706,3,MZ,1,100,28
1575568057.774824,109588.000,18706,3,MZ,1,100,28
1575568057.816413,109623.000,18724,2,MZ,1,100,27
1575568057.858002,109658.000,18724,2,MZ,1,100,26
1575568057.897215,109691.000,18742,4,MZ,1,100,26
1575568057.936428,109724.000,18742,4,MZ,1,100,25
1575568057.975641,109757.000,18742,4,MZ,1,100,25
1575568058.014853,109790.000,18742,4,MZ,1,100,25
1575568058.053472,109822.500,18761,2,MZ,1,100,25
1575568058.092090,109855.000,18761,2,MZ,1,100,25
1575568058.135264,109891.333,18779,3,MZ,1,100,26
1575568058.178437,109927.667,18779,3,MZ,1,100,25
1575568058.221611,109964.000,18779,3,MZ,1,100,26
1575568058.262804,109998.667,18796,3,MZ,1,100,25
1575568058.303997,110033.333,18796,3,MZ,1,100,25
1575568058.345190,110068.000,18796,3,MZ,1,100,25
1575568058.386780,110103.000,18814,3,MZ,1,100,25
1575568058.428369,110138.000,18814,3,MZ,1,100,26
1575568058.469958,110173.000,18814,3,MZ,1,100,26
1575568058.510755,110207.333,18830,3,MZ,1,100,27
1575568058.551552,110241.667,18830,3,MZ,1,100,25
1575568058.592349,110276.000,18830,3,MZ,1,100,26
1575568058.630373,110308.000,18848,3,MZ,1,100,26
1575568058.668398,110340.000,18848,3,MZ,1,100,25
1575568058.706422,110372.000,18848,3,MZ,1,100,25
1575568058.744843,110404.333,18866,3,MZ,1,100,27
1575568058.783263,110436.667,18866,3,MZ,1,100,25
1575568058.821684,110469.000,18866,3,MZ,1,100,27
1575568058.866045,110506.333,18884,3,MZ,1,100,27
1575568058.910407,110543.667,18884,3,MZ,1,100,26
1575568058.954769,110581.000,18884,3,MZ,1,100,24
1575568058.995962,110615.667,18903,3,MZ,1,100,25
1575568059.037155,110650.333,18903,3,MZ,1,100,26
1575568059.078348,110685.000,18903,3,MZ,1,100,25
1575568059.119938,110720.000,18921,3,MZ,1,100,25
1575568059.161527,110755.000,18921,3,MZ,1,100,26
1575568059.203116,110790.000,18921,3,MZ,1,100,27
1575568059.239952,110821.000,18939,3,MZ,1,100,27
1575568059.276788,110852.000,18939,3,MZ,1,100,27
1575568059.313624,110883.000,18939,3,MZ,1,100,27
1575568059.352837,110916.000,18957,3,MZ,1,100,27
1575568059.392050,110949.000,18957,3,MZ,1,100,27
1575568059.431262,110982.000,18957,3,MZ,1,100,25
1575568059.471267,111015.667,18974,3,MZ,1,100,26
1575568059.511272,111049.333,18974,3,MZ,1,100,26
1575568059.551277,111083.000,18974,3,MZ,1,100,25
1575568059.592470,111117.667,18992,3,MZ,1,100,27
1575568059.633663,111152.333,18992,3,MZ,1,100,26
1575568059.674856,111187.000,18992,3,MZ,1,100,27
1575568059.720406,111225.333,19008,3,MZ,1,100,27
1575568059.765956,111263.667,19008,3,MZ,1,100,26
1575568059.811507,111302.000,19008,3,MZ,1,100,27
1575568059.849531,111334.000,19026,3,MZ,1,100,27
1575568059.887555,111366.000,19026,3,MZ,1,100,27
1575568059.925580,111398.000,19026,3,MZ,1,100,28
1575568059.968357,111434.000,19045,3,MZ,1,100,27
1575568060.011135,111470.000,19045,3,MZ,1,100,28
1575568060.053912,111506.000,19045,3,MZ,1,100,28
1575568060.095105,111540.667,19063,3,MZ,1,100,29
1575568060.136298,111575.333,19063,3,MZ,1,100,30
1575568060.177491,111610.000,19063,3,MZ,1,100,29
1575568060.222646,111648.000,19081,2,MZ,1,100,29
1575568060.267799,111686.000,19081,2,MZ,1,100,29
1575568060.305824,111718.000,19099,3,MZ,1,100,29
1575568060.343848,111750.000,19099,3,MZ,1,100,29
1575568060.381873,111782.000,19099,3,MZ,1,100,29
1575568060.420491,111814.500,19117,4,MZ,1,100,28
1575568060.459110,111847.000,19117,4,MZ,1,100,28
1575568060.497728,111879.500,19117,4,MZ,1,100,28
1575568060.536347,111912.000,19117,4,MZ,1,100,27
1575568060.577639,111946.750,19138,4,MZ,1,100,27
1575568060.618931,111981.500,19138,4,MZ,1,100,26
1575568060.660223,112016.250,19138,4,MZ,1,100,29
1575568060.701515,112051.000,19138,4,MZ,1,100,28
1575568060.742312,112085.333,19158,3,MZ,1,100,27
1575568060.783109,112119.667,19158,3,MZ,1,100,28
1575568060.823906,112154.000,19158,3,MZ,1,100,27
1575568060.864307,112188.000,19176,3,MZ,1,100,29
1575568060.904708,112222.000,19176,3,MZ,1,100,28
1575568060.945109,112256.000,19176,3,MZ,1,100,29
1575568060.986698,112291.000,19195,3,MZ,1,100,29
1575568061.028288,112326.000,19195,3,MZ,1,100,28
1575568061.069877,112361.000,19195,3,MZ,1,100,28
1575568061.108297,112393.333,19213,3,MZ,1,100,28
1575568061.146718,112425.667,19213,3,MZ,1,100,29
1575568061.185138,112458.000,19213,3,MZ,1,100,29
1575568061.227124,112493.333,19230,3,MZ,1,100,28
1575568061.269109,112528.667,19230,3,MZ,1,100,30
1575568061.311094,112564.000,19230,3,MZ,1,100,28
1575568061.347534,112594.667,19248,3,MZ,1,100,29
1575568061.383974,112625.333,19248,3,MZ,1,100,28
1575568061.420414,112656.000,19248,3,MZ,1,100,29
1575568061.465172,112693.667,19266,3,MZ,1,100,29
1575568061.509930,112731.333,19266,3,MZ,1,100,29
1575568061.554688,112769.000,19266,3,MZ,1,100,28
1575568061.596277,112804.000,19282,3,MZ,1,100,29
1575568061.637866,112839.000,19282,3,MZ,1,100,29
1575568061.679456,112874.000,19282,3,MZ,1,100,29
1575568061.717876,112906.333,19300,3,MZ,1,100,30
1575568061.756297,112938.667,19300,3,MZ,1,100,29
1575568061.794717,112971.000,19300,3,MZ,1,100,30
1575568061.833138,113003.333,19318,3,MZ,1,100,29
1575568061.871558,113035.667,19318,3,MZ,1,100,29
1575568061.909979,113068.000,19318,3,MZ,1,100,30
1575568061.949191,113101.000,19337,3,MZ,1,100,29
1575568061.988404,113134.000,19337,3,MZ,1,100,28
1575568062.027617,113167.000,19337,3,MZ,1,100,29
1575568062.072771,113205.000,19355,3,MZ,1,100,30
1575568062.117925,113243.000,19355,3,MZ,1,100,29
1575568062.163079,113281.000,19355,3,MZ,1,100,29
1575568062.204668,113316.000,19373,3,MZ,1,100,29
1575568062.246257,113351.000,19373,3,MZ,1,100,29
1575568062.287846,113386.000,19373,3,MZ,1,100,28
1575568062.326663,113418.667,19391,3,MZ,1,100,29
1575568062.365479,113451.333,19391,3,MZ,1,100,30
1575568062.404296,113484.000,19391,3,MZ,1,100,29
1575568062.442320,113516.000,19408,3,MZ,1,100,31
1575568062.480345,113548.000,19408,3,MZ,1,100,30
1575568062.518369,113580.000,19408,3,MZ,1,100,29
1575568062.558374,113613.667,19426,3,MZ,1,100,29
1575568062.598379,113647.333,19426,3,MZ,1,100,29
1575568062.638384,113681.000,19426,3,MZ,1,100,28
1575568062.679973,113716.000,19444,3,MZ,1,100,31
1575568062.721562,113751.000,19444,3,MZ,1,100,30
1575568062.763151,113786.000,19444,3,MZ,1,100,29
1575568062.804147,113820.500,19460,2,MZ,1,100,29
1575568062.845141,113855.000,19460,2,MZ,1,100,30
1575568062.889899,113892.667,19478,3,MZ,1,100,29
1575568062.934657,113930.333,19478,3,MZ,1,100,29
1575568062.979415,113968.000,19478,3,MZ,1,100,29
1575568063.016251,113999.000,19497,4,MZ,1,100,29
1575568063.053087,114030.000,19497,4,MZ,1,100,30
1575568063.089924,114061.000,19497,4,MZ,1,100,30
1575568063.126760,114092.000,19497,4,MZ,1,100,29
1575568063.167557,114126.333,19515,3,MZ,1,100,28
1575568063.208354,114160.667,19515,3,MZ,1,100,29
1575568063.249151,114195.000,19515,3,MZ,1,100,30
1575568063.289552,114229.000,19533,3,MZ,1,100,29
1575568063.329953,114263.000,19533,3,MZ,1,100,29
1575568063.370354,114297.000,19533,3,MZ,1,100,30
1575568063.411349,114331.500,19551,2,MZ,1,100,29
1575568063.452344,114366.000,19551,2,MZ,1,100,29
1575568063.493933,114401.000,19569,3,MZ,1,100,29
1575568063.535522,114436.000,19569,3,MZ,1,100,29
1575568063.577111,114471.000,19569,3,MZ,1,100,29
1575568063.613947,114502.000,19586,3,MZ,1,100,29
1575568063.650784,114533.000,19586,3,MZ,1,100,30
1575568063.687620,114564.000,19586,3,MZ,1,100,30
1575568063.731189,114600.667,19604,3,MZ,1,100,29
1575568063.774759,114637.333,19604,3,MZ,1,100,29
1575568063.818329,114674.000,19604,3,MZ,1,100,30
1575568063.853976,114704.000,19622,4,MZ,1,100,30
1575568063.889625,114734.000,19622,4,MZ,1,100,28
1575568063.925272,114764.000,19622,4,MZ,1,100,29
1575568063.960920,114794.000,19622,4,MZ,1,100,30
1575568064.000133,114827.000,19641,3,MZ,1,100,30
1575568064.039346,114860.000,19641,3,MZ,1,100,29
1575568064.078558,114893.000,19641,3,MZ,1,100,29
1575568064.117771,114926.000,19657,3,MZ,1,100,29
1575568064.156984,114959.000,19657,3,MZ,1,100,29
1575568064.196196,114992.000,19657,3,MZ,1,100,29
1575568064.239370,115028.333,19675,3,MZ,1,100,29
1575568064.282543,115064.667,19675,3,MZ,1,100,29
1575568064.325717,115101.000,19675,3,MZ,1,100,29
1575568064.366910,115135.667,19693,3,MZ,1,100,27
1575568064.408103,115170.333,19693,3,MZ,1,100,29
1575568064.449296,115205.000,19693,3,MZ,1,100,28
1575568064.490885,115240.000,19711,2,MZ,1,100,28
1575568064.532475,115275.000,19711,2,MZ,1,100,29
1575568064.572479,115308.667,19729,3,MZ,1,100,29
1575568064.612484,115342.333,19729,3,MZ,1,100,29
1575568064.652489,115376.000,19729,3,MZ,1,100,29
1575568064.690811,115408.250,19747,4,MZ,1,100,28
1575568064.729132,115440.500,19747,4,MZ,1,100,28
1575568064.767454,115472.750,19747,4,MZ,1,100,29
1575568064.805775,115505.000,19747,4,MZ,1,100,29
1575568064.844988,115538.000,19765,3,MZ,1,100,30
1575568064.884200,115571.000,19765,3,MZ,1,100,29
1575568064.923413,115604.000,19765,3,MZ,1,100,28
1575568064.965596,115639.500,19783,2,MZ,1,100,30
1575568065.007780,115675.000,19783,2,MZ,1,100,30
1575568065.052538,115712.667,19801,3,MZ,1,100,31
1575568065.097296,115750.333,19801,3,MZ,1,100,30
1575568065.142053,115788.000,19801,3,MZ,1,100,31
1575568065.182454,115822.000,19817,3,MZ,1,100,30
1575568065.222855,115856.000,19817,3,MZ,1,100,29
1575568065.263256,115890.000,19817,3,MZ,1,100,29
1575568065.300884,115921.667,19835,3,MZ,1,100,30
1575568065.338513,115953.333,19835,3,MZ,1,100,29
1575568065.376141,115985.000,19835,3,MZ,1,100,29
1575568065.414958,116017.667,19853,3,MZ,1,100,29
1575568065.453774,116050.333,19853,3,MZ,1,100,29
1575568065.492591,116083.000,19853,3,MZ,1,100,29
1575568065.532596,116116.667,19871,3,MZ,1,100,29
1575568065.572601,116150.333,19871,3,MZ,1,100,28
1575568065.612606,116184.000,19871,3,MZ,1,100,29
1575568065.654195,116219.000,19889,3,MZ,1,100,28
1575568065.695784,116254.000,19889,3,MZ,1,100,29
1575568065.737373,116289.000,19889,3,MZ,1,100,28
1575568065.782131,116326.667,19907,3,MZ,1,100,29
1575568065.826889,116364.333,19907,3,MZ,1,100,29
1575568065.871647,116402.000,19907,3,MZ,1,100,30
1575568065.909275,116433.667,19925,3,MZ,1,100,29
1575568065.946903,116465.333,19925,3,MZ,1,100,30
1575568065.984532,116497.000,19925,3,MZ,1,100,30
1575568066.023348,116529.667,19944,3,MZ,1,100,31
1575568066.062165,116562.333,19944,3,MZ,1,100,32
1575568066.100981,116595.000,19944,3,MZ,1,100,30
1575568066.141382,116629.000,19962,3,MZ,1,100,30
1575568066.181783,116663.000,19962,3,MZ,1,100,30
1575568066.222184,116697.000,19962,3,MZ,1,100,30
1575568066.263377,116731.667,19979,3,MZ,1,100,30
1575568066.304571,116766.333,19979,3,MZ,1,100,28
1575568066.345764,116801.000,19979,3,MZ,1,100,27
1575568066.387749,116836.333,19997,3,MZ,1,100,27
1575568066.429734,116871.667,19997,3,MZ,1,100,26
1575568066.471720,116907.000,19997,3,MZ,1,100,27
1575568066.508952,116938.333,20013,3,MZ,1,100,27
1575568066.546184,116969.667,20013,3,MZ,1,100,26
1575568066.583416,117001.000,20013,3,MZ,1,100,27
1575568066.625005,117036.000,20034,5,MZ,1,100,29
1575568066.666595,117071.000,20034,5,MZ,1,100,28
1575568066.708184,117106.000,20034,5,MZ,1,100,29
1575568066.749773,117141.000,20034,5,MZ,1,100,29
1575568066.791362,117176.000,20034,5,MZ,1,100,29
1575568066.832357,117210.500,20053,2,MZ,1,100,29
1575568066.873352,117245.000,20053,2,MZ,1,100,29
1575568066.914347,117279.500,20072,4,MZ,1,100,27
1575568066.955343,117314.000,20072,4,MZ,1,100,27
1575568066.996338,117348.500,20072,4,MZ,1,100,24
1575568067.037333,117383.000,20072,4,MZ,1,100,24
1575568067.076545,117416.000,20090,3,MZ,1,100,20
1575568067.115758,117449.000,20090,3,MZ,1,100,18
1575568067.154971,117482.000,20090,3,MZ,1,100,15
1575568067.191807,117513.000,20108,3,MZ,1,100,13
1575568067.228643,117544.000,20108,3,MZ,1,100,11
1575568067.265479,117575.000,20108,3,MZ,1,100,10
1575568067.305484,117608.667,20124,3,MZ,1,100, 9
1575568067.345489,117642.333,20124,3,MZ,1,100, 8
1575568067.385494,117676.000,20124,3,MZ,1,100, 7
1575568067.432430,117715.500,20142,2,MZ,1,100, 8
1575568067.479366,117755.000,20142,2,MZ,1,100, 8
1575568067.518282,117787.750,20160,4,MZ,1,100, 8
1575568067.557198,117820.500,20160,4,MZ,1,100,10
1575568067.596113,117853.250,20160,4,MZ,1,100,11
1575568067.635029,117886.000,20160,4,MZ,1,100,10
1575568067.681965,117925.500,20178,2,MZ,1,100,13
1575568067.728902,117965.000,20178,2,MZ,1,100,13
1575568067.767322,117997.333,20196,3,MZ,1,100,15
1575568067.805743,118029.667,20196,3,MZ,1,100,16
1575568067.844163,118062.000,20196,3,MZ,1,100,17
1575568067.885356,118096.667,20214,3,MZ,1,100,18
1575568067.926549,118131.333,20214,3,MZ,1,100,16
1575568067.967742,118166.000,20214,3,MZ,1,100,16
1575568068.012896,118204.000,20232,3,MZ,1,100,16
1575568068.058050,118242.000,20232,3,MZ,1,100,17
1575568068.103204,118280.000,20232,3,MZ,1,100,17
1575568068.142813,118313.333,20250,3,MZ,1,100,17
1575568068.182422,118346.667,20250,3,MZ,1,100,17
1575568068.222031,118380.000,20250,3,MZ,1,100,17
1575568068.259659,118411.667,20266,3,MZ,1,100,17
1575568068.297287,118443.333,20266,3,MZ,1,100,17
1575568068.334916,118475.000,20266,3,MZ,1,100,17
1575568068.376109,118509.667,20284,3,MZ,1,100,17
1575568068.417302,118544.333,20284,3,MZ,1,100,17
1575568068.458495,118579.000,20284,3,MZ,1,100,16
1575568068.496915,118611.333,20302,3,MZ,1,100,17
1575568068.535336,118643.667,20302,3,MZ,1,100,16
1575568068.573756,118676.000,20302,3,MZ,1,100,16
1575568068.614553,118710.333,20320,3,MZ,1,100,15
1575568068.655350,118744.667,20320,3,MZ,1,100,15
1575568068.696147,118779.000,20320,3,MZ,1,100,14
1575568068.737341,118813.667,20338,3,MZ,1,100,13
1575568068.778534,118848.333,20338,3,MZ,1,100,14
1575568068.819727,118883.000,20338,3,MZ,1,100,13
1575568068.861316,118918.000,20356,3,MZ,1,100,13
1575568068.902905,118953.000,20356,3,MZ,1,100,13
1575568068.944494,118988.000,20356,3,MZ,1,100,13
1575568068.983311,119020.667,20375,3,MZ,1,100,15
1575568069.022128,119053.333,20375,3,MZ,1,100,13
1575568069.060944,119086.000,20375,3,MZ,1,100,13
1575568069.102137,119120.667,20393,3,MZ,1,100,14
1575568069.143330,119155.333,20393,3,MZ,1,100,14
1575568069.184524,119190.000,20393,3,MZ,1,100,14
1575568069.224528,119223.667,20410,3,MZ,1,100,12
1575568069.264533,119257.333,20410,3,MZ,1,100,13
1575568069.304538,119291.000,20410,3,MZ,1,100,13
1575568069.344939,119325.000,20428,3,MZ,1,100,13
1575568069.385340,119359.000,20428,3,MZ,1,100,13
1575568069.425741,119393.000,20428,3,MZ,1,100,14
1575568069.467330,119428.000,20444,3,MZ,1,100,13
1575568069.508919,119463.000,20444,3,MZ,1,100,12
1575568069.550508,119498.000,20444,3,MZ,1,100,12
1575568069.589325,119530.667,20462,3,MZ,1,100,13
1575568069.628142,119563.333,20462,3,MZ,1,100,11
1575568069.666958,119596.000,20462,3,MZ,1,100,13
1575568069.704587,119627.667,20480,3,MZ,1,100,13
1575568069.742215,119659.333,20480,3,MZ,1,100,14
1575568069.779843,119691.000,20480,3,MZ,1,100,13
1575568069.823413,119727.667,20498,3,MZ,1,100,13
1575568069.866982,119764.333,20498,3,MZ,1,100,12
1575568069.910552,119801.000,20498,3,MZ,1,100,13
1575568069.951745,119835.667,20517,3,MZ,1,100,13
1575568069.992938,119870.333,20517,3,MZ,1,100,14
1575568070.034132,119905.000,20517,3,MZ,1,100,15
1575568070.075325,119939.667,20535,3,MZ,1,100,15
1575568070.116518,119974.333,20535,3,MZ,1,100,15
1575568070.157711,120009.000,20535,3,MZ,1,100,15
1575568070.198706,120043.500,20553,2,MZ,1,100,13
1575568070.239701,120078.000,20553,2,MZ,1,100,14
1575568070.277725,120110.000,20571,4,MZ,1,100,14
1575568070.315750,120142.000,20571,4,MZ,1,100,15
1575568070.353774,120174.000,20571,4,MZ,1,100,15
1575568070.391798,120206.000,20571,4,MZ,1,100,15
1575568070.431011,120239.000,20588,3,MZ,1,100,15
1575568070.470224,120272.000,20588,3,MZ,1,100,15
1575568070.509437,120305.000,20588,3,MZ,1,100,15
1575568070.550234,120339.333,20606,3,MZ,1,100,15
1575568070.591031,120373.667,20606,3,MZ,1,100,16
1575568070.631828,120408.000,20606,3,MZ,1,100,16
1575568070.673417,120443.000,20622,2,MZ,1,100,15
1575568070.715006,120478.000,20622,2,MZ,1,100,15
1575568070.759368,120515.333,20640,3,MZ,1,100,14
1575568070.803730,120552.667,20640,3,MZ,1,100,14
1575568070.848091,120590.000,20640,3,MZ,1,100,15
1575568070.885324,120621.333,20658,3,MZ,1,100,14
1575568070.922556,120652.667,20658,3,MZ,1,100,14
1575568070.959788,120684.000,20658,3,MZ,1,100,15
1575568070.998704,120716.750,20677,4,MZ,1,100,16
1575568071.037619,120749.500,20677,4,MZ,1,100,15
1575568071.076535,120782.250,20677,4,MZ,1,100,14
1575568071.115451,120815.000,20677,4,MZ,1,100,12
1575568071.157040,120850.000,20695,2,MZ,1,100,13
1575568071.198629,120885.000,20695,2,MZ,1,100,13
1575568071.239030,120919.000,20713,3,MZ,1,100,14
1575568071.279431,120953.000,20713,3,MZ,1,100,14
1575568071.319832,120987.000,20713,3,MZ,1,100,13
1575568071.361421,121022.000,20731,3,MZ,1,100,13
1575568071.403010,121057.000,20731,3,MZ,1,100,14
1575568071.444599,121092.000,20731,3,MZ,1,100,12
1575568071.485792,121126.667,20749,3,MZ,1,100,13
1575568071.526986,121161.333,20749,3,MZ,1,100,13
1575568071.568179,121196.000,20749,3,MZ,1,100,12
1575568071.604718,121226.750,20766,4,MZ,1,100,12
1575568071.641257,121257.500,20766,4,MZ,1,100,12
1575568071.677796,121288.250,20766,4,MZ,1,100,11
1575568071.714335,121319.000,20766,4,MZ,1,100,11
1575568071.754736,121353.000,20784,3,MZ,1,100,11
1575568071.795137,121387.000,20784,3,MZ,1,100,12
1575568071.835538,121421.000,20784,3,MZ,1,100,12
1575568071.873562,121453.000,20802,3,MZ,1,100,11
1575568071.911587,121485.000,20802,3,MZ,1,100,11
1575568071.949611,121517.000,20802,3,MZ,1,100,11
1575568071.990804,121551.667,20821,3,MZ,1,100,11
1575568072.031997,121586.333,20821,3,MZ,1,100,11
1575568072.073190,121621.000,20821,3,MZ,1,100,11
1575568072.113987,121655.333,20837,3,MZ,1,100,11
1575568072.154784,121689.667,20837,3,MZ,1,100,11
1575568072.195581,121724.000,20837,3,MZ,1,100, 9
1575568072.236378,121758.333,20855,3,MZ,1,100,11
1575568072.277175,121792.667,20855,3,MZ,1,100, 9
1575568072.317972,121827.000,20855,3,MZ,1,100,10
1575568072.359562,121862.000,20873,2,MZ,1,100, 9
1575568072.401151,121897.000,20873,2,MZ,1,100, 8
1575568072.441948,121931.333,20891,3,MZ,1,100,10
1575568072.482745,121965.667,20891,3,MZ,1,100, 9
1575568072.523542,122000.000,20891,3,MZ,1,100, 8
1575568072.561269,122031.750,20909,4,MZ,1,100,10
1575568072.598997,122063.500,20909,4,MZ,1,100, 8
1575568072.636724,122095.250,20909,4,MZ,1,100, 8
1575568072.674451,122127.000,20909,4,MZ,1,100, 9
1575568072.717229,122163.000,20930,4,MZ,1,100, 9
1575568072.760006,122199.000,20930,4,MZ,1,100, 9
1575568072.802784,122235.000,20930,4,MZ,1,100, 9
1575568072.845561,122271.000,20930,4,MZ,1,100, 9
1575568072.886754,122305.667,20950,3,MZ,1,100, 8
1575568072.927948,122340.333,20950,3,MZ,1,100, 8
1575568072.969141,122375.000,20950,3,MZ,1,100, 9
1575568073.011126,122410.333,20969,3,MZ,1,100,10
1575568073.053111,122445.667,20969,3,MZ,1,100, 8
1575568073.095096,122481.000,20969,3,MZ,1,100, 8
1575568073.132725,122512.667,20987,3,MZ,1,100, 9
1575568073.170353,122544.333,20987,3,MZ,1,100, 8
1575568073.207981,122576.000,20987,3,MZ,1,100, 7
1575568073.246402,122608.333,21005,3,MZ,1,100, 8
1575568073.284822,122640.667,21005,3,MZ,1,100, 7
1575568073.323243,122673.000,21005,3,MZ,1,100, 7
1575568073.363248,122706.667,21023,3,MZ,1,100, 6
1575568073.403253,122740.333,21023,3,MZ,1,100, 6
1575568073.443257,122774.000,21023,3,MZ,1,100, 7
1575568073.484054,122808.333,21041,3,MZ,1,100, 7
1575568073.524852,122842.667,21041,3,MZ,1,100, 7
1575568073.565649,122877.000,21041,3,MZ,1,100, 7
1575568073.611199,122915.333,21058,3,MZ,1,100, 7
1575568073.656749,122953.667,21058,3,MZ,1,100, 6
1575568073.702299,122992.000,21058,3,MZ,1,100, 6
1575568073.740323,123024.000,21076,3,MZ,1,100, 7
1575568073.778347,123056.000,21076,3,MZ,1,100, 6
1575568073.816372,123088.000,21076,3,MZ,1,100, 7
1575568073.854396,123120.000,21094,3,MZ,1,100, 6
1575568073.892421,123152.000,21094,3,MZ,1,100, 6
1575568073.930445,123184.000,21094,3,MZ,1,100, 5
1575568073.970846,123218.000,21113,3,MZ,1,100, 4
1575568074.011247,123252.000,21113,3,MZ,1,100, 5
1575568074.051648,123286.000,21113,3,MZ,1,100, 5
1575568074.092841,123320.667,21129,3,MZ,1,100, 4
1575568074.134034,123355.333,21129,3,MZ,1,100, 4
1575568074.175227,123390.000,21129,3,MZ,1,100, 6
1575568074.216420,123424.667,21147,3,MZ,1,100, 6
1575568074.257613,123459.333,21147,3,MZ,1,100, 5
1575568074.298807,123494.000,21147,3,MZ,1,100, 5
1575568074.344555,123532.500,21165,2,MZ,1,100, 5
1575568074.390303,123571.000,21165,2,MZ,1,100, 6
1575568074.427733,123602.500,21183,4,MZ,1,100, 6
1575568074.465163,123634.000,21183,4,MZ,1,100, 4
1575568074.502594,123665.500,21183,4,MZ,1,100, 4
1575568074.540024,123697.000,21183,4,MZ,1,100, 5
1575568074.579633,123730.333,21201,3,MZ,1,100, 6
1575568074.619241,123763.667,21201,3,MZ,1,100, 5
1575568074.658850,123797.000,21201,3,MZ,1,100, 4
1575568074.700043,123831.667,21219,3,MZ,1,100, 6
1575568074.741236,123866.333,21219,3,MZ,1,100, 4
1575568074.782430,123901.000,21219,3,MZ,1,100, 4
1575568074.823227,123935.333,21237,3,MZ,1,100, 5
1575568074.864024,123969.667,21237,3,MZ,1,100, 4
1575568074.904821,124004.000,21237,3,MZ,1,100, 3
1575568074.944825,124037.667,21255,3,MZ,1,100, 4
1575568074.984830,124071.333,21255,3,MZ,1,100, 4
1575568075.024835,124105.000,21255,3,MZ,1,100, 4
1575568075.062464,124136.667,21273,3,MZ,1,100, 3
1575568075.100092,124168.333,21273,3,MZ,1,100, 3
1575568075.137720,124200.000,21273,3,MZ,1,100, 2
1575568075.176141,124232.333,21291,3,MZ,1,100, 3
1575568075.214561,124264.667,21291,3,MZ,1,100, 2
1575568075.252982,124297.000,21291,3,MZ,1,100, 2
1575568075.291798,124329.667,21309,3,MZ,1,100, 2
1575568075.330615,124362.333,21309,3,MZ,1,100, 0
1575568075.369431,124395.000,21309,3,MZ,1,100, 0
1575568075.413397,124432.000,21325,3,MZ,1,100,-1
1575568075.457363,124469.000,21325,3,MZ,1,100, 0
1575568075.501328,124506.000,21325,3,MZ,1,100, 1
1575568075.539749,124538.333,21343,3,MZ,1,100, 1
1575568075.578170,124570.667,21343,3,MZ,1,100, 0
1575568075.616590,124603.000,21343,3,MZ,1,100, 1
1575568075.661150,124640.500,21361,2,MZ,1,100, 1
1575568075.705710,124678.000,21361,2,MZ,1,100, 0
1575568075.747002,124712.750,21379,4,MZ,1,100, 2
1575568075.788294,124747.500,21379,4,MZ,1,100, 0
1575568075.829586,124782.250,21379,4,MZ,1,100, 1
1575568075.870878,124817.000,21379,4,MZ,1,100,-0
1575568075.911873,124851.500,21397,2,MZ,1,100, 0
1575568075.952868,124886.000,21397,2,MZ,1,100, 1
1575568075.992873,124919.667,21416,3,MZ,1,100, 1
1575568076.032878,124953.333,21416,3,MZ,1,100, 1
1575568076.072883,124987.000,21416,3,MZ,1,100, 1
1575568076.111304,125019.333,21433,3,MZ,1,100, 2
1575568076.149724,125051.667,21433,3,MZ,1,100, 2
1575568076.188144,125084.000,21433,3,MZ,1,100, 1
1575568076.227060,125116.750,21451,4,MZ,1,100, 0
1575568076.265976,125149.500,21451,4,MZ,1,100, 0
1575568076.304891,125182.250,21451,4,MZ,1,100, 0
1575568076.343807,125215.000,21451,4,MZ,1,100, 0
1575568076.382623,125247.667,21469,3,MZ,1,100,-1
1575568076.421440,125280.333,21469,3,MZ,1,100, 1
1575568076.460257,125313.000,21469,3,MZ,1,100, 0
1575568076.501054,125347.333,21485,3,MZ,1,100, 1
1575568076.541851,125381.667,21485,3,MZ,1,100, 1
1575568076.582648,125416.000,21485,3,MZ,1,100, 2
1575568076.623445,125450.333,21503,3,MZ,1,100, 1
1575568076.664242,125484.667,21503,3,MZ,1,100, 1
1575568076.705039,125519.000,21503,3,MZ,1,100, 1
1575568076.746628,125554.000,21521,2,MZ,1,100, 2
1575568076.788217,125589.000,21521,2,MZ,1,100, 2
1575568076.831391,125625.333,21539,3,MZ,1,100, 1
1575568076.874564,125661.667,21539,3,MZ,1,100, 2
1575568076.917738,125698.000,21539,3,MZ,1,100, 1
1575568076.955762,125730.000,21558,3,MZ,1,100, 1
1575568076.993787,125762.000,21558,3,MZ,1,100, 1
1575568077.031811,125794.000,21558,3,MZ,1,100, 2
1575568077.071321,125827.250,21576,4,MZ,1,100, 2
1575568077.110831,125860.500,21576,4,MZ,1,100, 3
1575568077.150340,125893.750,21576,4,MZ,1,100, 3
1575568077.189850,125927.000,21576,4,MZ,1,100, 2
1575568077.232033,125962.500,21594,2,MZ,1,100, 2
1575568077.274217,125998.000,21594,2,MZ,1,100, 2
1575568077.314618,126032.000,21611,3,MZ,1,100, 0
1575568077.355019,126066.000,21611,3,MZ,1,100, 2
1575568077.395420,126100.000,21611,3,MZ,1,100, 1
1575568077.436217,126134.333,21629,3,MZ,1,100, 2
1575568077.477014,126168.667,21629,3,MZ,1,100, 2
1575568077.517811,126203.000,21629,3,MZ,1,100, 3
1575568077.558608,126237.333,21647,3,MZ,1,100, 2
1575568077.599405,126271.667,21647,3,MZ,1,100, 3
1575568077.640202,126306.000,21647,3,MZ,1,100, 2
1575568077.679810,126339.333,21663,3,MZ,1,100, 2
1575568077.719419,126372.667,21663,3,MZ,1,100, 3
1575568077.759028,126406.000,21663,3,MZ,1,100, 3
1575568077.800617,126441.000,21681,3,MZ,1,100, 3
1575568077.842206,126476.000,21681,3,MZ,1,100, 2
1575568077.883795,126511.000,21681,3,MZ,1,100, 2
1575568077.924592,126545.333,21700,3,MZ,1,100, 2
1575568077.965389,126579.667,21700,3,MZ,1,100, 2
1575568078.006186,126614.000,21700,3,MZ,1,100, 2
1575568078.046587,126648.000,21718,3,MZ,1,100, 2
1575568078.086988,126682.000,21718,3,MZ,1,100, 3
1575568078.127389,126716.000,21718,3,MZ,1,100, 3
1575568078.165414,126748.000,21736,3,MZ,1,100, 3
1575568078.203438,126780.000,21736,3,MZ,1,100, 4
1575568078.241463,126812.000,21736,3,MZ,1,100, 2
1575568078.285032,126848.667,21754,3,MZ,1,100, 4
1575568078.328602,126885.333,21754,3,MZ,1,100, 4
1575568078.372171,126922.000,21754,3,MZ,1,100, 5
1575568078.412969,126956.333,21772,3,MZ,1,100, 4
1575568078.453766,126990.667,21772,3,MZ,1,100, 5
1575568078.494563,127025.000,21772,3,MZ,1,100, 5
1575568078.535756,127059.667,21789,3,MZ,1,100, 6
1575568078.576949,127094.333,21789,3,MZ,1,100, 6
1575568078.618142,127129.000,21789,3,MZ,1,100, 6
1575568078.658939,127163.333,21807,3,MZ,1,100, 4
1575568078.699736,127197.667,21807,3,MZ,1,100, 4
1575568078.740533,127232.000,21807,3,MZ,1,100, 3
1575568078.778082,127263.600,21828,5,MZ,1,100, 3
1575568078.815631,127295.200,21828,5,MZ,1,100, 4
1575568078.853180,127326.800,21828,5,MZ,1,100, 5
1575568078.890729,127358.400,21828,5,MZ,1,100, 4
1575568078.928278,127390.000,21828,5,MZ,1,100, 5
1575568078.968679,127424.000,21849,3,MZ,1,100, 5
1575568079.009080,127458.000,21849,3,MZ,1,100, 3
1575568079.049481,127492.000,21849,3,MZ,1,100, 3
1575568079.096418,127531.500,21867,2,MZ,1,100, 4
1575568079.143354,127571.000,21867,2,MZ,1,100, 4
1575568079.180982,127602.667,21884,3,MZ,1,100, 4
1575568079.218611,127634.333,21884,3,MZ,1,100, 3
1575568079.256239,127666.000,21884,3,MZ,1,100, 3
1575568079.301393,127704.000,21902,3,MZ,1,100, 3
1575568079.346547,127742.000,21902,3,MZ,1,100, 4
1575568079.391701,127780.000,21902,3,MZ,1,100, 4
1575568079.429329,127811.667,21918,3,MZ,1,100, 3
1575568079.466958,127843.333,21918,3,MZ,1,100, 4
1575568079.504586,127875.000,21918,3,MZ,1,100, 4
1575568079.545779,127909.667,21936,3,MZ,1,100, 5
1575568079.586972,127944.333,21936,3,MZ,1,100, 4
1575568079.628165,127979.000,21936,3,MZ,1,100, 4
1575568079.673319,128017.000,21954,3,MZ,1,100, 3
1575568079.718473,128055.000,21954,3,MZ,1,100, 4
1575568079.763627,128093.000,21954,3,MZ,1,100, 4
1575568079.801255,128124.667,21972,3,MZ,1,100, 4
1575568079.838884,128156.333,21972,3,MZ,1,100, 7
1575568079.876512,128188.000,21972,3,MZ,1,100, 8
1575568079.915725,128221.000,21991,3,MZ,1,100, 8
1575568079.954937,128254.000,21991,3,MZ,1,100, 8
1575568079.994150,128287.000,21991,3,MZ,1,100, 8
1575568080.033759,128320.333,22009,3,MZ,1,100, 7
1575568080.073368,128353.667,22009,3,MZ,1,100, 8
1575568080.112977,128387.000,22009,3,MZ,1,100, 9
1575568080.154170,128421.667,22027,3,MZ,1,100,10
1575568080.195363,128456.333,22027,3,MZ,1,100,11
1575568080.236556,128491.000,22027,3,MZ,1,100,11
1575568080.278541,128526.333,22044,3,MZ,1,100,10
1575568080.320526,128561.667,22044,3,MZ,1,100,10
1575568080.362512,128597.000,22044,3,MZ,1,100,10
1575568080.404497,128632.333,22062,3,MZ,1,100,10
1575568080.446482,128667.667,22062,3,MZ,1,100, 8
1575568080.488467,128703.000,22062,3,MZ,1,100,10
1575568080.525700,128734.333,22080,3,MZ,1,100,11
1575568080.562932,128765.667,22080,3,MZ,1,100,10
1575568080.600164,128797.000,22080,3,MZ,1,100,11
1575568080.640565,128831.000,22098,3,MZ,1,100,10
1575568080.680966,128865.000,22098,3,MZ,1,100,12
1575568080.721367,128899.000,22098,3,MZ,1,100,12
1575568080.762164,128933.333,22114,3,MZ,1,100,11
1575568080.802961,128967.667,22114,3,MZ,1,100,11
1575568080.843758,129002.000,22114,3,MZ,1,100,12
1575568080.884555,129036.333,22132,3,MZ,1,100,12
1575568080.925352,129070.667,22132,3,MZ,1,100,12
1575568080.966149,129105.000,22132,3,MZ,1,100,13
1575568081.005758,129138.333,22151,3,MZ,1,100,12
1575568081.045367,129171.667,22151,3,MZ,1,100,12
1575568081.084975,129205.000,22151,3,MZ,1,100,13
1575568081.122208,129236.333,22169,3,MZ,1,100,13
1575568081.159440,129267.667,22169,3,MZ,1,100,12
1575568081.196672,129299.000,22169,3,MZ,1,100,12
1575568081.240242,129335.667,22187,3,MZ,1,100,12
1575568081.283812,129372.333,22187,3,MZ,1,100,12
1575568081.327381,129409.000,22187,3,MZ,1,100,13
1575568081.368970,129444.000,22205,3,MZ,1,100,11
1575568081.410559,129479.000,22205,3,MZ,1,100,12
1575568081.452149,129514.000,22205,3,MZ,1,100,12
1575568081.493342,129548.667,22223,3,MZ,1,100,11
1575568081.534535,129583.333,22223,3,MZ,1,100,13
1575568081.575728,129618.000,22223,3,MZ,1,100,11
1575568081.616723,129652.500,22240,2,MZ,1,100,11
1575568081.657718,129687.000,22240,2,MZ,1,100,11
1575568081.695148,129718.500,22258,4,MZ,1,100,11
1575568081.732579,129750.000,22258,4,MZ,1,100,11
1575568081.770009,129781.500,22258,4,MZ,1,100,10
1575568081.807439,129813.000,22258,4,MZ,1,100,11
1575568081.847048,129846.333,22276,3,MZ,1,100,12
1575568081.886657,129879.667,22276,3,MZ,1,100,11
1575568081.926265,129913.000,22276,3,MZ,1,100,11
1575568081.967261,129947.500,22293,2,MZ,1,100,10
1575568082.008256,129982.000,22293,2,MZ,1,100,10
1575568082.053410,130020.000,22311,3,MZ,1,100, 9
1575568082.098564,130058.000,22311,3,MZ,1,100, 9
1575568082.143718,130096.000,22311,3,MZ,1,100,10
1575568082.184119,130130.000,22329,3,MZ,1,100,10
1575568082.224519,130164.000,22329,3,MZ,1,100, 8
1575568082.264920,130198.000,22329,3,MZ,1,100, 9
1575568082.303341,130230.333,22347,3,MZ,1,100, 9
1575568082.341761,130262.667,22347,3,MZ,1,100,11
1575568082.380182,130295.000,22347,3,MZ,1,100,10
1575568082.418206,130327.000,22365,4,MZ,1,100,11
1575568082.456231,130359.000,22365,4,MZ,1,100,12
1575568082.494255,130391.000,22365,4,MZ,1,100,11
1575568082.532279,130423.000,22365,4,MZ,1,100,11
1575568082.573473,130457.667,22383,3,MZ,1,100,11
1575568082.614666,130492.333,22383,3,MZ,1,100,11
1575568082.655859,130527.000,22383,3,MZ,1,100,10
1575568082.696854,130561.500,22401,2,MZ,1,100,10
1575568082.737849,130596.000,22401,2,MZ,1,100,10
1575568082.783003,130634.000,22418,3,MZ,1,100,10
1575568082.828157,130672.000,22418,3,MZ,1,100,10
1575568082.873311,130710.000,22418,3,MZ,1,100,10
1575568082.910939,130741.667,22437,3,MZ,1,100,11
1575568082.948568,130773.333,22437,3,MZ,1,100,12
1575568082.986196,130805.000,22437,3,MZ,1,100,11
1575568083.027785,130840.000,22455,3,MZ,1,100,11
1575568083.069374,130875.000,22455,3,MZ,1,100,11
1575568083.110964,130910.000,22455,3,MZ,1,100,12
1575568083.147007,130940.333,22471,3,MZ,1,100,12
1575568083.183052,130970.667,22471,3,MZ,1,100,11
1575568083.219095,131001.000,22471,3,MZ,1,100,11
1575568083.261477,131036.667,22489,3,MZ,1,100,11
1575568083.303858,131072.333,22489,3,MZ,1,100,11
1575568083.346240,131108.000,22489,3,MZ,1,100,12
1575568083.383472,131139.333,22507,3,MZ,1,100,13
1575568083.420704,131170.667,22507,3,MZ,1,100,11
1575568083.457936,131202.000,22507,3,MZ,1,100,11
1575568083.496357,131234.333,22525,3,MZ,1,100,10
1575568083.534777,131266.667,22525,3,MZ,1,100,12
1575568083.573198,131299.000,22525,3,MZ,1,100,11
1575568083.614193,131333.500,22543,4,MZ,1,100,12
1575568083.655188,131368.000,22543,4,MZ,1,100,12
1575568083.696183,131402.500,22543,4,MZ,1,100,12
1575568083.737178,131437.000,22543,4,MZ,1,100,13
1575568083.778371,131471.667,22561,3,MZ,1,100,11
1575568083.819564,131506.333,22561,3,MZ,1,100,12
1575568083.860757,131541.000,22561,3,MZ,1,100,11
1575568083.901752,131575.500,22579,2,MZ,1,100,12
1575568083.942748,131610.000,22579,2,MZ,1,100,12
1575568083.984337,131645.000,22597,3,MZ,1,100,12
1575568084.025926,131680.000,22597,3,MZ,1,100,13
1575568084.067515,131715.000,22597,3,MZ,1,100,13
1575568084.107124,131748.333,22615,3,MZ,1,100,12
1575568084.146733,131781.667,22615,3,MZ,1,100,12
1575568084.186341,131815.000,22615,3,MZ,1,100,13
1575568084.223970,131846.667,22633,3,MZ,1,100,12
1575568084.261598,131878.333,22633,3,MZ,1,100,12
1575568084.299226,131910.000,22633,3,MZ,1,100,11
1575568084.342796,131946.667,22650,3,MZ,1,100,11
1575568084.386366,131983.333,22650,3,MZ,1,100,11
1575568084.429935,132020.000,22650,3,MZ,1,100,11
1575568084.470336,132054.000,22667,3,MZ,1,100,11
1575568084.510737,132088.000,22667,3,MZ,1,100,11
1575568084.551138,132122.000,22667,3,MZ,1,100,10
1575568084.592727,132157.000,22685,3,MZ,1,100,11
1575568084.634316,132192.000,22685,3,MZ,1,100, 9
1575568084.675906,132227.000,22685,3,MZ,1,100, 9
1575568084.715118,132260.000,22703,3,MZ,1,100,10
1575568084.754331,132293.000,22703,3,MZ,1,100,10
1575568084.793544,132326.000,22703,3,MZ,1,100, 9
1575568084.831806,132358.200,22724,5,MZ,1,100, 9
1575568084.870068,132390.400,22724,5,MZ,1,100,10
1575568084.908330,132422.600,22724,5,MZ,1,100, 9
1575568084.946592,132454.800,22724,5,MZ,1,100, 9
1575568084.984854,132487.000,22724,5,MZ,1,100,10
1575568085.025651,132521.333,22745,3,MZ,1,100, 8
1575568085.066448,132555.667,22745,3,MZ,1,100, 8
1575568085.107245,132590.000,22745,3,MZ,1,100, 9
1575568085.152003,132627.667,22761,3,MZ,1,100, 8
1575568085.196761,132665.333,22761,3,MZ,1,100, 9
1575568085.241519,132703.000,22761,3,MZ,1,100,10
1575568085.282712,132737.667,22779,3,MZ,1,100, 9
1575568085.323905,132772.333,22779,3,MZ,1,100,10
1575568085.365098,132807.000,22779,3,MZ,1,100, 9
1575568085.403122,132839.000,22797,3,MZ,1,100, 9
1575568085.441147,132871.000,22797,3,MZ,1,100, 9
1575568085.479171,132903.000,22797,3,MZ,1,100,10
1575568085.517196,132935.000,22815,3,MZ,1,100, 9
1575568085.555220,132967.000,22815,3,MZ,1,100,10
1575568085.593245,132999.000,22815,3,MZ,1,100, 9
1575568085.633646,133033.000,22833,3,MZ,1,100, 8
1575568085.674047,133067.000,22833,3,MZ,1,100, 9
1575568085.714447,133101.000,22833,3,MZ,1,100, 8
1575568085.756037,133136.000,22851,3,MZ,1,100,10
1575568085.797626,133171.000,22851,3,MZ,1,100,10
1575568085.839215,133206.000,22851,3,MZ,1,100, 8
1575568085.880804,133241.000,22869,3,MZ,1,100,10
1575568085.922393,133276.000,22869,3,MZ,1,100, 9
1575568085.963983,133311.000,22869,3,MZ,1,100, 9
1575568086.006760,133347.000,22887,2,MZ,1,100,10
1575568086.049537,133383.000,22887,2,MZ,1,100, 7
1575568086.088156,133415.500,22905,4,MZ,1,100, 8
1575568086.126775,133448.000,22905,4,MZ,1,100, 6
1575568086.165393,133480.500,22905,4,MZ,1,100, 8
1575568086.204012,133513.000,22905,4,MZ,1,100, 7
1575568086.243224,133546.000,22923,3,MZ,1,100, 6
1575568086.282437,133579.000,22923,3,MZ,1,100, 6
1575568086.321650,133612.000,22923,3,MZ,1,100, 7
1575568086.362843,133646.667,22939,3,MZ,1,100, 6
1575568086.404036,133681.333,22939,3,MZ,1,100, 5
1575568086.445229,133716.000,22939,3,MZ,1,100, 5
1575568086.486818,133751.000,22957,2,MZ,1,100, 5
1575568086.528407,133786.000,22957,2,MZ,1,100, 5
1575568086.567323,133818.750,22975,4,MZ,1,100, 4
1575568086.606239,133851.500,22975,4,MZ,1,100, 5
1575568086.645154,133884.250,22975,4,MZ,1,100, 5
1575568086.684070,133917.000,22975,4,MZ,1,100, 5
1575568086.724471,133951.000,22993,3,MZ,1,100, 4
1575568086.764872,133985.000,22993,3,MZ,1,100, 4
1575568086.805273,134019.000,22993,3,MZ,1,100, 4
1575568086.842109,134050.000,23011,3,MZ,1,100, 3
1575568086.878945,134081.000,23011,3,MZ,1,100, 4
1575568086.915781,134112.000,23011,3,MZ,1,100, 5
1575568086.958162,134147.667,23030,3,MZ,1,100, 5
1575568087.000544,134183.333,23030,3,MZ,1,100, 4
1575568087.042925,134219.000,23030,3,MZ,1,100, 4
1575568087.083920,134253.500,23048,2,MZ,1,100, 3
1575568087.124915,134288.000,23048,2,MZ,1,100, 5
1575568087.164722,134321.500,23066,4,MZ,1,100, 4
1575568087.204529,134355.000,23066,4,MZ,1,100, 4
1575568087.244336,134388.500,23066,4,MZ,1,100, 4
1575568087.284142,134422.000,23066,4,MZ,1,100, 3
1575568087.325732,134457.000,23083,2,MZ,1,100, 4
1575568087.367321,134492.000,23083,2,MZ,1,100, 3
1575568087.408118,134526.333,23101,3,MZ,1,100, 3
1575568087.448915,134560.667,23101,3,MZ,1,100, 2
1575568087.489712,134595.000,23101,3,MZ,1,100, 2
1575568087.531697,134630.333,23117,3,MZ,1,100, 3
1575568087.573683,134665.667,23117,3,MZ,1,100, 2
1575568087.615668,134701.000,23117,3,MZ,1,100, 2
1575568087.656861,134735.667,23135,3,MZ,1,100, 2
1575568087.698054,134770.333,23135,3,MZ,1,100, 2
1575568087.739247,134805.000,23135,3,MZ,1,100, 2
1575568087.780440,134839.667,23153,3,MZ,1,100, 3
1575568087.821633,134874.333,23153,3,MZ,1,100, 1
1575568087.862827,134909.000,23153,3,MZ,1,100, 3
1575568087.901247,134941.333,23172,3,MZ,1,100, 2
1575568087.939667,134973.667,23172,3,MZ,1,100, 2
1575568087.978088,135006.000,23172,3,MZ,1,100, 2
1575568088.016112,135038.000,23190,3,MZ,1,100, 1
1575568088.054137,135070.000,23190,3,MZ,1,100, 0
1575568088.092161,135102.000,23190,3,MZ,1,100, 1
1575568088.132562,135136.000,23208,3,MZ,1,100, 1
1575568088.172963,135170.000,23208,3,MZ,1,100, 0
1575568088.213364,135204.000,23208,3,MZ,1,100, 1
1575568088.258518,135242.000,23226,3,MZ,1,100, 1
1575568088.303672,135280.000,23226,3,MZ,1,100, 2
1575568088.348826,135318.000,23226,3,MZ,1,100, 3
1575568088.391207,135353.667,23243,3,MZ,1,100, 1
1575568088.433589,135389.333,23243,3,MZ,1,100, 2
1575568088.475970,135425.000,23243,3,MZ,1,100, 1
1575568088.512806,135456.000,23261,3,MZ,1,100, 0
1575568088.549642,135487.000,23261,3,MZ,1,100, 1
1575568088.586478,135518.000,23261,3,MZ,1,100, 2
1575568088.625295,135550.667,23279,3,MZ,1,100, 2
1575568088.664112,135583.333,23279,3,MZ,1,100, 2
1575568088.702928,135616.000,23279,3,MZ,1,100, 2
1575568088.742933,135649.667,23295,3,MZ,1,100, 2
1575568088.782938,135683.333,23295,3,MZ,1,100, 3
1575568088.822943,135717.000,23295,3,MZ,1,100, 2
1575568088.864136,135751.667,23313,3,MZ,1,100, 4
1575568088.905329,135786.333,23313,3,MZ,1,100, 4
1575568088.946522,135821.000,23313,3,MZ,1,100, 3
1575568088.988508,135856.333,23332,3,MZ,1,100, 3
1575568089.030493,135891.667,23332,3,MZ,1,100, 4
1575568089.072478,135927.000,23332,3,MZ,1,100, 5
1575568089.113671,135961.667,23350,3,MZ,1,100, 4
1575568089.154864,135996.333,23350,3,MZ,1,100, 3
1575568089.196057,136031.000,23350,3,MZ,1,100, 4
1575568089.233686,136062.667,23368,3,MZ,1,100, 4
1575568089.271314,136094.333,23368,3,MZ,1,100, 4
1575568089.308942,136126.000,23368,3,MZ,1,100, 4
1575568089.349343,136160.000,23386,3,MZ,1,100, 3
1575568089.389744,136194.000,23386,3,MZ,1,100, 3
1575568089.430145,136228.000,23386,3,MZ,1,100, 3
1575568089.471734,136263.000,23404,3,MZ,1,100, 2
1575568089.513324,136298.000,23404,3,MZ,1,100, 2
1575568089.554913,136333.000,23404,3,MZ,1,100, 2
1575568089.596502,136368.000,23421,3,MZ,1,100, 2
1575568089.638091,136403.000,23421,3,MZ,1,100, 1
1575568089.679680,136438.000,23421,3,MZ,1,100,-1
1575568089.718101,136470.333,23439,3,MZ,1,100,-0
1575568089.756521,136502.667,23439,3,MZ,1,100,-2
1575568089.794942,136535.000,23439,3,MZ,1,100,-2
1575568089.836531,136570.000,23457,3,MZ,1,100,-2
1575568089.878120,136605.000,23457,3,MZ,1,100,-2
1575568089.919709,136640.000,23457,3,MZ,1,100,-2
1575568089.960110,136674.000,23474,3,MZ,1,100,-3
1575568090.000511,136708.000,23474,3,MZ,1,100,-0
1575568090.040912,136742.000,23474,3,MZ,1,100,-3
1575568090.082105,136776.667,23492,3,MZ,1,100,-1
1575568090.123298,136811.333,23492,3,MZ,1,100,-2
1575568090.164492,136846.000,23492,3,MZ,1,100,-2
1575568090.204892,136880.000,23510,2,MZ,1,100,-3
1575568090.245293,136914.000,23510,2,MZ,1,100,-2
1575568090.286487,136948.667,23528,3,MZ,1,100,-3
1575568090.327680,136983.333,23528,3,MZ,1,100,-0
1575568090.368873,137018.000,23528,3,MZ,1,100, 0
1575568090.406303,137049.500,23546,4,MZ,1,100,-2
1575568090.443733,137081.000,23546,4,MZ,1,100,-1
1575568090.481164,137112.500,23546,4,MZ,1,100,-2
1575568090.518594,137144.000,23546,4,MZ,1,100,-2
1575568090.557806,137177.000,23564,3,MZ,1,100,-2
1575568090.597019,137210.000,23564,3,MZ,1,100,-1
1575568090.636232,137243.000,23564,3,MZ,1,100,-2
1575568090.682574,137282.000,23582,2,MZ,1,100,-1
1575568090.728916,137321.000,23582,2,MZ,1,100,-0
1575568090.767535,137353.500,23599,4,MZ,1,100,-0
1575568090.806154,137386.000,23599,4,MZ,1,100,-1
1575568090.844772,137418.500,23599,4,MZ,1,100,-2
1575568090.883391,137451.000,23599,4,MZ,1,100,-1
1575568090.925277,137486.250,23621,4,MZ,1,100,-1
1575568090.967163,137521.500,23621,4,MZ,1,100,-1
1575568091.009049,137556.750,23621,4,MZ,1,100,-1
1575568091.050936,137592.000,23621,4,MZ,1,100,-2
1575568091.092525,137627.000,23639,3,MZ,1,100,-2
1575568091.134114,137662.000,23639,3,MZ,1,100,-1
1575568091.175703,137697.000,23639,3,MZ,1,100,-3
1575568091.220065,137734.333,23659,3,MZ,1,100,-3
1575568091.264427,137771.667,23659,3,MZ,1,100,-4
1575568091.308789,137809.000,23659,3,MZ,1,100,-4
1575568091.349190,137843.000,23676,3,MZ,1,100,-4
1575568091.389591,137877.000,23676,3,MZ,1,100,-4
1575568091.429991,137911.000,23676,3,MZ,1,100,-6
1575568091.468412,137943.333,23694,3,MZ,1,100,-8
1575568091.506832,137975.667,23694,3,MZ,1,100,-7
1575568091.545253,138008.000,23694,3,MZ,1,100,-7
1575568091.584069,138040.667,23712,3,MZ,1,100,-8
1575568091.622886,138073.333,23712,3,MZ,1,100,-9
1575568091.661703,138106.000,23712,3,MZ,1,100,-10
1575568091.700123,138138.333,23730,3,MZ,1,100,-10
1575568091.738544,138170.667,23730,3,MZ,1,100,-12
1575568091.776964,138203.000,23730,3,MZ,1,100,-12
1575568091.815385,138235.333,23747,3,MZ,1,100,-12
1575568091.853805,138267.667,23747,3,MZ,1,100,-12
1575568091.892226,138300.000,23747,3,MZ,1,100,-12
1575568091.933419,138334.667,23765,3,MZ,1,100,-12
1575568091.974612,138369.333,23765,3,MZ,1,100,-11
1575568092.015805,138404.000,23765,3,MZ,1,100,-11
1575568092.057394,138439.000,23783,3,MZ,1,100,-13
1575568092.098983,138474.000,23783,3,MZ,1,100,-14
1575568092.140573,138509.000,23783,3,MZ,1,100,-15
1575568092.184142,138545.667,23801,3,MZ,1,100,-13
1575568092.227712,138582.333,23801,3,MZ,1,100,-15
1575568092.271281,138619.000,23801,3,MZ,1,100,-13
1575568092.308910,138650.667,23819,3,MZ,1,100,-15
1575568092.346538,138682.333,23819,3,MZ,1,100,-15
1575568092.384166,138714.000,23819,3,MZ,1,100,-15
1575568092.423775,138747.333,23837,3,MZ,1,100,-16
1575568092.463384,138780.667,23837,3,MZ,1,100,-16
1575568092.502993,138814.000,23837,3,MZ,1,100,-17
1575568092.543394,138848.000,23855,3,MZ,1,100,-19
1575568092.583795,138882.000,23855,3,MZ,1,100,-17
1575568092.624196,138916.000,23855,3,MZ,1,100,-18
1575568092.664597,138950.000,23873,3,MZ,1,100,-18
1575568092.704998,138984.000,23873,3,MZ,1,100,-19
1575568092.745398,139018.000,23873,3,MZ,1,100,-22
1575568092.786195,139052.333,23890,3,MZ,1,100,-21
1575568092.826993,139086.667,23890,3,MZ,1,100,-20
1575568092.867790,139121.000,23890,3,MZ,1,100,-19
1575568092.905022,139152.333,23908,3,MZ,1,100,-18
1575568092.942254,139183.667,23908,3,MZ,1,100,-17
1575568092.979486,139215.000,23908,3,MZ,1,100,-17
1575568093.022264,139251.000,23927,3,MZ,1,100,-18
1575568093.065041,139287.000,23927,3,MZ,1,100,-19
1575568093.107819,139323.000,23927,3,MZ,1,100,-19
1575568093.149012,139357.667,23943,3,MZ,1,100,-19
1575568093.190205,139392.333,23943,3,MZ,1,100,-17
1575568093.231398,139427.000,23943,3,MZ,1,100,-18
1575568093.272987,139462.000,23961,3,MZ,1,100,-19
1575568093.314576,139497.000,23961,3,MZ,1,100,-18
1575568093.356165,139532.000,23961,3,MZ,1,100,-18
1575568093.398349,139567.500,23979,2,MZ,1,100,-15
1575568093.440532,139603.000,23979,2,MZ,1,100,-17
1575568093.478259,139634.750,23997,4,MZ,1,100,-18
1575568093.515987,139666.500,23997,4,MZ,1,100,-17
1575568093.553714,139698.250,23997,4,MZ,1,100,-19
1575568093.591441,139730.000,23997,4,MZ,1,100,-18
1575568093.630258,139762.667,24015,3,MZ,1,100,-17
1575568093.669075,139795.333,24015,3,MZ,1,100,-16
1575568093.707891,139828.000,24015,3,MZ,1,100,-17
1575568093.754827,139867.500,24033,2,MZ,1,100,-17
1575568093.801764,139907.000,24033,2,MZ,1,100,-16
1575568093.843353,139942.000,24051,3,MZ,1,100,-15
1575568093.884942,139977.000,24051,3,MZ,1,100,-15
1575568093.926532,140012.000,24051,3,MZ,1,100,-13
1575568093.967329,140046.333,24069,3,MZ,1,100,-15
1575568094.008126,140080.667,24069,3,MZ,1,100,-16
1575568094.048923,140115.000,24069,3,MZ,1,100,-16
1575568094.088135,140148.000,24087,3,MZ,1,100,-16
1575568094.127348,140181.000,24087,3,MZ,1,100,-17
1575568094.166561,140214.000,24087,3,MZ,1,100,-15
1575568094.204288,140245.750,24105,4,MZ,1,100,-16
1575568094.242015,140277.500,24105,4,MZ,1,100,-15
1575568094.279743,140309.250,24105,4,MZ,1,100,-15
1575568094.317470,140341.000,24105,4,MZ,1,100,-15
1575568094.358465,140375.500,24121,2,MZ,1,100,-15
1575568094.399460,140410.000,24121,2,MZ,1,100,-17
1575568094.440653,140444.667,24139,3,MZ,1,100,-16
1575568094.481846,140479.333,24139,3,MZ,1,100,-17
1575568094.523040,140514.000,24139,3,MZ,1,100,-17
1575568094.565421,140549.667,24157,3,MZ,1,100,-17
1575568094.607802,140585.333,24157,3,MZ,1,100,-17
1575568094.650184,140621.000,24157,3,MZ,1,100,-17
1575568094.691377,140655.667,24175,3,MZ,1,100,-17
1575568094.732570,140690.333,24175,3,MZ,1,100,-17
1575568094.773763,140725.000,24175,3,MZ,1,100,-17
1575568094.818917,140763.000,24193,3,MZ,1,100,-16
1575568094.864071,140801.000,24193,3,MZ,1,100,-16
1575568094.909225,140839.000,24193,3,MZ,1,100,-16
1575568094.945269,140869.333,24212,3,MZ,1,100,-15
1575568094.981313,140899.667,24212,3,MZ,1,100,-16
1575568095.017357,140930.000,24212,3,MZ,1,100,-15
1575568095.063699,140969.000,24229,2,MZ,1,100,-16
1575568095.110041,141008.000,24229,2,MZ,1,100,-14
1575568095.148660,141040.500,24247,4,MZ,1,100,-13
1575568095.187279,141073.000,24247,4,MZ,1,100,-13
1575568095.225897,141105.500,24247,4,MZ,1,100,-13
1575568095.264515,141138.000,24247,4,MZ,1,100,-14
1575568095.304520,141171.667,24263,3,MZ,1,100,-13
1575568095.344525,141205.333,24263,3,MZ,1,100,-13
1575568095.384530,141239.000,24263,3,MZ,1,100,-13
1575568095.422951,141271.333,24281,3,MZ,1,100,-13
1575568095.461371,141303.667,24281,3,MZ,1,100,-12
1575568095.499792,141336.000,24281,3,MZ,1,100,-16
1575568095.539400,141369.333,24299,3,MZ,1,100,-13
1575568095.579009,141402.667,24299,3,MZ,1,100,-13
1575568095.618618,141436.000,24299,3,MZ,1,100,-11
1575568095.659415,141470.333,24317,3,MZ,1,100,-16
1575568095.700212,141504.667,24317,3,MZ,1,100,-19
1575568095.741009,141539.000,24317,3,MZ,1,100,-21
1575568095.781806,141573.333,24335,3,MZ,1,100,-17
1575568095.822603,141607.667,24335,3,MZ,1,100,-12
1575568095.863400,141642.000,24335,3,MZ,1,100,-12
1575568095.904593,141676.667,24353,3,MZ,1,100,-13
1575568095.945786,141711.333,24353,3,MZ,1,100,-11
1575568095.986979,141746.000,24353,3,MZ,1,100,-13
1575568096.028172,141780.667,24372,3,MZ,1,100,-10
1575568096.069366,141815.333,24372,3,MZ,1,100,-11
1575568096.110559,141850.000,24372,3,MZ,1,100,-10
1575568096.148979,141882.333,24390,3,MZ,1,100,-10
1575568096.187400,141914.667,24390,3,MZ,1,100,-10
1575568096.225820,141947.000,24390,3,MZ,1,100,-10
1575568096.266221,141981.000,24408,3,MZ,1,100,-9
1575568096.306622,142015.000,24408,3,MZ,1,100,-9
1575568096.347023,142049.000,24408,3,MZ,1,100,-11
1575568096.388216,142083.667,24425,3,MZ,1,100,-11
1575568096.429409,142118.333,24425,3,MZ,1,100,-10
1575568096.470602,142153.000,24425,3,MZ,1,100,-11
1575568096.511597,142187.500,24441,2,MZ,1,100,-12
1575568096.552592,142222.000,24441,2,MZ,1,100,-12
1575568096.591211,142254.500,24459,4,MZ,1,100,-12
1575568096.629829,142287.000,24459,4,MZ,1,100,-13
1575568096.668448,142319.500,24459,4,MZ,1,100,-12
1575568096.707067,142352.000,24459,4,MZ,1,100,-12
1575568096.745091,142384.000,24477,3,MZ,1,100,-13
1575568096.783115,142416.000,24477,3,MZ,1,100,-11
1575568096.821140,142448.000,24477,3,MZ,1,100,-12
1575568096.865898,142485.667,24495,3,MZ,1,100,-11
1575568096.910655,142523.333,24495,3,MZ,1,100,-10
1575568096.955414,142561.000,24495,3,MZ,1,100,-11
1575568096.996408,142595.500,24517,4,MZ,1,100,-11
1575568097.037404,142630.000,24517,4,MZ,1,100,-11
1575568097.078399,142664.500,24517,4,MZ,1,100,-12
1575568097.119394,142699.000,24517,4,MZ,1,100,-12
1575568097.160191,142733.333,24537,3,MZ,1,100,-10
1575568097.200988,142767.667,24537,3,MZ,1,100,-9
1575568097.241785,142802.000,24537,3,MZ,1,100,-9
1575568097.279413,142833.667,24554,3,MZ,1,100,-8
1575568097.317041,142865.333,24554,3,MZ,1,100,-10
1575568097.354670,142897.000,24554,3,MZ,1,100,-9
1575568097.393486,142929.667,24571,3,MZ,1,100,-9
1575568097.432303,142962.333,24571,3,MZ,1,100,-8
1575568097.471119,142995.000,24571,3,MZ,1,100,-6
1575568097.511917,143029.333,24589,3,MZ,1,100,-4
1575568097.552714,143063.667,24589,3,MZ,1,100,-2
1575568097.593511,143098.000,24589,3,MZ,1,100,-1
1575568097.638664,143136.000,24607,3,MZ,1,100,-1
1575568097.683819,143174.000,24607,3,MZ,1,100,-1
1575568097.728972,143212.000,24607,3,MZ,1,100,-2
1575568097.768977,143245.667,24625,3,MZ,1,100,-2
1575568097.808982,143279.333,24625,3,MZ,1,100,-2
1575568097.848987,143313.000,24625,3,MZ,1,100,-2
1575568097.887408,143345.333,24643,3,MZ,1,100,-1
1575568097.925828,143377.667,24643,3,MZ,1,100,-2
1575568097.964249,143410.000,24643,3,MZ,1,100,-0
1575568098.001481,143441.333,24662,3,MZ,1,100,-0
1575568098.038713,143472.667,24662,3,MZ,1,100,-1
1575568098.075945,143504.000,24662,3,MZ,1,100,-2
1575568098.116742,143538.333,24680,3,MZ,1,100,-2
1575568098.157539,143572.667,24680,3,MZ,1,100,-1
1575568098.198336,143607.000,24680,3,MZ,1,100,-2
1575568098.239133,143641.333,24697,3,MZ,1,100,-1
1575568098.279930,143675.667,24697,3,MZ,1,100,-2
1575568098.320727,143710.000,24697,3,MZ,1,100,-2
1575568098.365089,143747.333,24715,3,MZ,1,100,-4
1575568098.409451,143784.667,24715,3,MZ,1,100,-2
1575568098.453813,143822.000,24715,3,MZ,1,100,-3
1575568098.491441,143853.667,24733,3,MZ,1,100,-5
1575568098.529069,143885.333,24733,3,MZ,1,100,-5
1575568098.566698,143917.000,24733,3,MZ,1,100,-5
1575568098.607099,143951.000,24749,3,MZ,1,100,-6
1575568098.647500,143985.000,24749,3,MZ,1,100,-7
1575568098.687901,144019.000,24749,3,MZ,1,100,-5
1575568098.724737,144050.000,24767,3,MZ,1,100,-5
1575568098.761573,144081.000,24767,3,MZ,1,100,-4
1575568098.798409,144112.000,24767,3,MZ,1,100,-4
1575568098.839998,144147.000,24785,3,MZ,1,100,-3
1575568098.881588,144182.000,24785,3,MZ,1,100,-2
1575568098.923177,144217.000,24785,3,MZ,1,100,-2
1575568098.961201,144249.000,24804,3,MZ,1,100,-4
1575568098.999225,144281.000,24804,3,MZ,1,100,-3
1575568099.037250,144313.000,24804,3,MZ,1,100,-3
1575568099.078047,144347.333,24822,3,MZ,1,100,-4
1575568099.118844,144381.667,24822,3,MZ,1,100,-5
1575568099.159641,144416.000,24822,3,MZ,1,100,-5
1575568099.198061,144448.333,24840,3,MZ,1,100,-4
1575568099.236482,144480.667,24840,3,MZ,1,100,-5
1575568099.274902,144513.000,24840,3,MZ,1,100,-4
1575568099.315303,144547.000,24858,3,MZ,1,100,-4
1575568099.355704,144581.000,24858,3,MZ,1,100,-4
1575568099.396105,144615.000,24858,3,MZ,1,100,-5
1575568099.437695,144650.000,24876,3,MZ,1,100,-5
1575568099.479284,144685.000,24876,3,MZ,1,100,-4
1575568099.520873,144720.000,24876,3,MZ,1,100,-5
1575568099.562462,144755.000,24893,3,MZ,1,100,-3
1575568099.604051,144790.000,24893,3,MZ,1,100,-4
1575568099.645640,144825.000,24893,3,MZ,1,100,-5
1575568099.684853,144858.000,24911,3,MZ,1,100,-4
1575568099.724066,144891.000,24911,3,MZ,1,100,-5
1575568099.763278,144924.000,24911,3,MZ,1,100,-6
1575568099.800907,144955.667,24929,3,MZ,1,100,-4
1575568099.838535,144987.333,24929,3,MZ,1,100,-5
1575568099.876163,145019.000,24929,3,MZ,1,100,-4
1575568099.920129,145056.000,24946,3,MZ,1,100,-4
1575568099.964095,145093.000,24946,3,MZ,1,100,-4
1575568100.008061,145130.000,24946,3,MZ,1,100,-5
1575568100.048461,145164.000,24964,3,MZ,1,100,-7
1575568100.088862,145198.000,24964,3,MZ,1,100,-6
1575568100.129263,145232.000,24964,3,MZ,1,100,-6
1575568100.170456,145266.667,24982,3,MZ,1,100,-6
1575568100.211650,145301.333,24982,3,MZ,1,100,-5
1575568100.252843,145336.000,24982,3,MZ,1,100,-6
1575568100.291263,145368.333,25000,3,MZ,1,100,-6
1575568100.329684,145400.667,25000,3,MZ,1,100,-5
1575568100.368104,145433.000,25000,3,MZ,1,100,-6
1575568100.406525,145465.333,25018,3,MZ,1,100,-6
1575568100.444945,145497.667,25018,3,MZ,1,100,-6
1575568100.483366,145530.000,25018,3,MZ,1,100,-4
1575568100.522578,145563.000,25036,3,MZ,1,100,-3
1575568100.561791,145596.000,25036,3,MZ,1,100,-2
1575568100.601004,145629.000,25036,3,MZ,1,100,-3
1575568100.645762,145666.667,25054,3,MZ,1,100,-4
1575568100.690520,145704.333,25054,3,MZ,1,100,-5
1575568100.735277,145742.000,25054,3,MZ,1,100,-3
1575568100.776867,145777.000,25071,3,MZ,1,100,-2
1575568100.818456,145812.000,25071,3,MZ,1,100,-1
1575568100.860045,145847.000,25071,3,MZ,1,100,-2
1575568100.899258,145880.000,25090,3,MZ,1,100,-2
1575568100.938470,145913.000,25090,3,MZ,1,100,-2
1575568100.977683,145946.000,25090,3,MZ,1,100,-2
1575568101.015707,145978.000,25108,3,MZ,1,100,-2
1575568101.053732,146010.000,25108,3,MZ,1,100,-1
1575568101.091756,146042.000,25108,3,MZ,1,100,-0
1575568101.131761,146075.667,25124,3,MZ,1,100,-2
1575568101.171766,146109.333,25124,3,MZ,1,100,-2
1575568101.211771,146143.000,25124,3,MZ,1,100,-2
1575568101.252964,146177.667,25142,3,MZ,1,100,-1
1575568101.294157,146212.333,25142,3,MZ,1,100,-1
1575568101.335350,146247.000,25142,3,MZ,1,100,-1
1575568101.376543,146281.667,25160,3,MZ,1,100, 1
1575568101.417736,146316.333,25160,3,MZ,1,100, 1
1575568101.458930,146351.000,25160,3,MZ,1,100, 2
1575568101.505866,146390.500,25178,2,MZ,1,100, 2
1575568101.552802,146430.000,25178,2,MZ,1,100, 0
1575568101.589936,146461.250,25196,4,MZ,1,100, 2
1575568101.627069,146492.500,25196,4,MZ,1,100, 1
1575568101.664202,146523.750,25196,4,MZ,1,100, 0
1575568101.701335,146555.000,25196,4,MZ,1,100, 3
1575568101.740548,146588.000,25214,3,MZ,1,100, 4
1575568101.779760,146621.000,25214,3,MZ,1,100, 5
1575568101.818973,146654.000,25214,3,MZ,1,100, 7
1575568101.860166,146688.667,25232,3,MZ,1,100, 8
1575568101.901359,146723.333,25232,3,MZ,1,100, 7
1575568101.942552,146758.000,25232,3,MZ,1,100, 5
1575568101.983350,146792.333,25250,3,MZ,1,100, 6
1575568102.024147,146826.667,25250,3,MZ,1,100, 4
1575568102.064944,146861.000,25250,3,MZ,1,100, 4
1575568102.107127,146896.500,25268,2,MZ,1,100, 4
1575568102.149310,146932.000,25268,2,MZ,1,100, 5
1575568102.190503,146966.667,25286,3,MZ,1,100, 5
1575568102.231696,147001.333,25286,3,MZ,1,100, 7
1575568102.272890,147036.000,25286,3,MZ,1,100,10
1575568102.308835,147066.250,25304,4,MZ,1,100,15
1575568102.344779,147096.500,25304,4,MZ,1,100,18
1575568102.380724,147126.750,25304,4,MZ,1,100,23
1575568102.416669,147157.000,25304,4,MZ,1,100,27
1575568102.458655,147192.333,25320,3,MZ,1,100,31
1575568102.500640,147227.667,25320,3,MZ,1,100,31
1575568102.542625,147263.000,25320,3,MZ,1,100,32
1575568102.577877,147292.667,25338,3,MZ,1,100,31
1575568102.613129,147322.333,25338,3,MZ,1,100,31
1575568102.648381,147352.000,25338,3,MZ,1,100,30
1575568102.689574,147386.667,25356,3,MZ,1,100,30
1575568102.730767,147421.333,25356,3,MZ,1,100,31
1575568102.771960,147456.000,25356,3,MZ,1,100,31
1575568102.813549,147491.000,25374,3,MZ,1,100,30
1575568102.855138,147526.000,25374,3,MZ,1,100,31
1575568102.896728,147561.000,25374,3,MZ,1,100,30
1575568102.936732,147594.667,25393,3,MZ,1,100,32
1575568102.976737,147628.333,25393,3,MZ,1,100,31
1575568103.016742,147662.000,25393,3,MZ,1,100,29
1575568103.057381,147696.200,25414,5,MZ,1,100,31
1575568103.098019,147730.400,25414,5,MZ,1,100,30
1575568103.138658,147764.600,25414,5,MZ,1,100,30
1575568103.179296,147798.800,25414,5,MZ,1,100,31
1575568103.219935,147833.000,25414,5,MZ,1,100,30
1575568103.260930,147867.500,25431,2,MZ,1,100,30
1575568103.301925,147902.000,25431,2,MZ,1,100,31
1575568103.342722,147936.333,25451,3,MZ,1,100,32
1575568103.383519,147970.667,25451,3,MZ,1,100,32
1575568103.424316,148005.000,25451,3,MZ,1,100,33
1575568103.462044,148036.750,25469,4,MZ,1,100,33
1575568103.499771,148068.500,25469,4,MZ,1,100,33
1575568103.537498,148100.250,25469,4,MZ,1,100,31
1575568103.575226,148132.000,25469,4,MZ,1,100,32
1575568103.614438,148165.000,25487,3,MZ,1,100,32
1575568103.653651,148198.000,25487,3,MZ,1,100,32
1575568103.692863,148231.000,25487,3,MZ,1,100,32
1575568103.739800,148270.500,25505,2,MZ,1,100,33
1575568103.786736,148310.000,25505,2,MZ,1,100,33
1575568103.827929,148344.667,25523,3,MZ,1,100,33
1575568103.869123,148379.333,25523,3,MZ,1,100,32
1575568103.910316,148414.000,25523,3,MZ,1,100,31
1575568103.951905,148449.000,25541,3,MZ,1,100,31
1575568103.993494,148484.000,25541,3,MZ,1,100,32
1575568104.035083,148519.000,25541,3,MZ,1,100,32
1575568104.072315,148550.333,25559,3,MZ,1,100,32
1575568104.109548,148581.667,25559,3,MZ,1,100,32
1575568104.146780,148613.000,25559,3,MZ,1,100,32
1575568104.185596,148645.667,25577,3,MZ,1,100,33
1575568104.224413,148678.333,25577,3,MZ,1,100,32
1575568104.263230,148711.000,25577,3,MZ,1,100,32
1575568104.303631,148745.000,25595,3,MZ,1,100,32
1575568104.344032,148779.000,25595,3,MZ,1,100,33
1575568104.384433,148813.000,25595,3,MZ,1,100,32
1575568104.425626,148847.667,25611,3,MZ,1,100,32
1575568104.466819,148882.333,25611,3,MZ,1,100,33
1575568104.508012,148917.000,25611,3,MZ,1,100,32
1575568104.553958,148955.667,25629,3,MZ,1,100,31
1575568104.599904,148994.333,25629,3,MZ,1,100,33
1575568104.645850,149033.000,25629,3,MZ,1,100,32
1575568104.682687,149064.000,25647,3,MZ,1,100,32
1575568104.719523,149095.000,25647,3,MZ,1,100,32
1575568104.756359,149126.000,25647,3,MZ,1,100,33
1575568104.794383,149158.000,25665,3,MZ,1,100,33
1575568104.832407,149190.000,25665,3,MZ,1,100,34
1575568104.870432,149222.000,25665,3,MZ,1,100,33
1575568104.911625,149256.667,25684,3,MZ,1,100,33
1575568104.952818,149291.333,25684,3,MZ,1,100,33
1575568104.994011,149326.000,25684,3,MZ,1,100,32
1575568105.035204,149360.667,25702,3,MZ,1,100,33
1575568105.076398,149395.333,25702,3,MZ,1,100,33
1575568105.117591,149430.000,25702,3,MZ,1,100,34
1575568105.159180,149465.000,25719,3,MZ,1,100,33
1575568105.200769,149500.000,25719,3,MZ,1,100,33
1575568105.242358,149535.000,25719,3,MZ,1,100,33
1575568105.283551,149569.667,25737,3,MZ,1,100,33
1575568105.324744,149604.333,25737,3,MZ,1,100,33
1575568105.365937,149639.000,25737,3,MZ,1,100,32
1575568105.403566,149670.667,25755,3,MZ,1,100,33
1575568105.441194,149702.333,25755,3,MZ,1,100,33
1575568105.478822,149734.000,25755,3,MZ,1,100,34
1575568105.519223,149768.000,25773,3,MZ,1,100,33
1575568105.559624,149802.000,25773,3,MZ,1,100,32
1575568105.600025,149836.000,25773,3,MZ,1,100,33
1575568105.641218,149870.667,25789,3,MZ,1,100,33
1575568105.682412,149905.333,25789,3,MZ,1,100,33
1575568105.723605,149940.000,25789,3,MZ,1,100,33
1575568105.764402,149974.333,25807,3,MZ,1,100,32
1575568105.805199,150008.667,25807,3,MZ,1,100,33
1575568105.845996,150043.000,25807,3,MZ,1,100,33
1575568105.885208,150076.000,25826,3,MZ,1,100,32
1575568105.924421,150109.000,25826,3,MZ,1,100,33
1575568105.963634,150142.000,25826,3,MZ,1,100,33
1575568106.004827,150176.667,25844,3,MZ,1,100,32
1575568106.046020,150211.333,25844,3,MZ,1,100,33
1575568106.087213,150246.000,25844,3,MZ,1,100,33
1575568106.123257,150276.333,25862,3,MZ,1,100,31
1575568106.159301,150306.667,25862,3,MZ,1,100,32
1575568106.195345,150337.000,25862,3,MZ,1,100,33
1575568106.234558,150370.000,25880,3,MZ,1,100,34
1575568106.273770,150403.000,25880,3,MZ,1,100,32
1575568106.312983,150436.000,25880,3,MZ,1,100,32
1575568106.356949,150473.000,25898,3,MZ,1,100,32
1575568106.400914,150510.000,25898,3,MZ,1,100,32
1575568106.444880,150547.000,25898,3,MZ,1,100,34
1575568106.483697,150579.667,25916,3,MZ,1,100,33
1575568106.522513,150612.333,25916,3,MZ,1,100,32
1575568106.561330,150645.000,25916,3,MZ,1,100,32
1575568106.606484,150683.000,25933,2,MZ,1,100,32
1575568106.651638,150721.000,25933,2,MZ,1,100,32
1575568106.690553,150753.750,25950,4,MZ,1,100,33
1575568106.729469,150786.500,25950,4,MZ,1,100,32
1575568106.768385,150819.250,25950,4,MZ,1,100,32
1575568106.807300,150852.000,25950,4,MZ,1,100,33
1575568106.853643,150891.000,25967,2,MZ,1,100,33
1575568106.899985,150930.000,25967,2,MZ,1,100,33
1575568106.941178,150964.667,25986,3,MZ,1,100,33
1575568106.982371,150999.333,25986,3,MZ,1,100,32
1575568107.023564,151034.000,25986,3,MZ,1,100,32
1575568107.065153,151069.000,26004,3,MZ,1,100,32
1575568107.106743,151104.000,26004,3,MZ,1,100,32
1575568107.148332,151139.000,26004,3,MZ,1,100,33
1575568107.185960,151170.667,26022,3,MZ,1,100,32
1575568107.223588,151202.333,26022,3,MZ,1,100,32
1575568107.261217,151234.000,26022,3,MZ,1,100,33
1575568107.300033,151266.667,26040,3,MZ,1,100,32
1575568107.338850,151299.333,26040,3,MZ,1,100,32
1575568107.377666,151332.000,26040,3,MZ,1,100,31
1575568107.418067,151366.000,26058,3,MZ,1,100,32
1575568107.458468,151400.000,26058,3,MZ,1,100,32
1575568107.498869,151434.000,26058,3,MZ,1,100,32
1575568107.544023,151472.000,26075,3,MZ,1,100,33
1575568107.589177,151510.000,26075,3,MZ,1,100,32
1575568107.634331,151548.000,26075,3,MZ,1,100,32
1575568107.672356,151580.000,26093,3,MZ,1,100,33
1575568107.710380,151612.000,26093,3,MZ,1,100,33
1575568107.748405,151644.000,26093,3,MZ,1,100,33
1575568107.789994,151679.000,26111,3,MZ,1,100,33
1575568107.831583,151714.000,26111,3,MZ,1,100,32
1575568107.873172,151749.000,26111,3,MZ,1,100,33
1575568107.910404,151780.333,26130,3,MZ,1,100,32
1575568107.947637,151811.667,26130,3,MZ,1,100,32
1575568107.984869,151843.000,26130,3,MZ,1,100,31
1575568108.024874,151876.667,26146,3,MZ,1,100,33
1575568108.064878,151910.333,26146,3,MZ,1,100,33
1575568108.104883,151944.000,26146,3,MZ,1,100,33
1575568108.146076,151978.667,26164,3,MZ,1,100,31
1575568108.187269,152013.333,26164,3,MZ,1,100,34
1575568108.228463,152048.000,26164,3,MZ,1,100,32
1575568108.269260,152082.333,26182,3,MZ,1,100,32
1575568108.310057,152116.667,26182,3,MZ,1,100,32
1575568108.350854,152151.000,26182,3,MZ,1,100,33
1575568108.393235,152186.667,26200,3,MZ,1,100,33
1575568108.435616,152222.333,26200,3,MZ,1,100,33
1575568108.477998,152258.000,26200,3,MZ,1,100,32
1575568108.516418,152290.333,26218,3,MZ,1,100,32
1575568108.554839,152322.667,26218,3,MZ,1,100,33
1575568108.593259,152355.000,26218,3,MZ,1,100,33
1575568108.633660,152389.000,26236,3,MZ,1,100,33
1575568108.674061,152423.000,26236,3,MZ,1,100,32
1575568108.714462,152457.000,26236,3,MZ,1,100,32
1575568108.755655,152491.667,26254,3,MZ,1,100,33
1575568108.796848,152526.333,26254,3,MZ,1,100,32
1575568108.838042,152561.000,26254,3,MZ,1,100,33
1575568108.878839,152595.333,26272,3,MZ,1,100,33
1575568108.919636,152629.667,26272,3,MZ,1,100,33
1575568108.960433,152664.000,26272,3,MZ,1,100,33
1575568108.999645,152697.000,26290,3,MZ,1,100,32
1575568109.038858,152730.000,26290,3,MZ,1,100,32
1575568109.078071,152763.000,26290,3,MZ,1,100,33
1575568109.118709,152797.200,26311,5,MZ,1,100,33
1575568109.159348,152831.400,26311,5,MZ,1,100,33
1575568109.199986,152865.600,26311,5,MZ,1,100,32
1575568109.240625,152899.800,26311,5,MZ,1,100,32
1575568109.281264,152934.000,26311,5,MZ,1,100,32
1575568109.322457,152968.667,26329,3,MZ,1,100,32
1575568109.363650,153003.333,26329,3,MZ,1,100,31
1575568109.404843,153038.000,26329,3,MZ,1,100,33
1575568109.445838,153072.500,26349,2,MZ,1,100,32
1575568109.486833,153107.000,26349,2,MZ,1,100,33
1575568109.527630,153141.333,26366,3,MZ,1,100,32
1575568109.568427,153175.667,26366,3,MZ,1,100,32
1575568109.609224,153210.000,26366,3,MZ,1,100,33
1575568109.647546,153242.250,26384,4,MZ,1,100,33
1575568109.685867,153274.500,26384,4,MZ,1,100,33
1575568109.724189,153306.750,26384,4,MZ,1,100,32
1575568109.762510,153339.000,26384,4,MZ,1,100,32
1575568109.800534,153371.000,26402,3,MZ,1,100,33
1575568109.838559,153403.000,26402,3,MZ,1,100,31
1575568109.876583,153435.000,26402,3,MZ,1,100,32
1575568109.916192,153468.333,26419,3,MZ,1,100,32
1575568109.955801,153501.667,26419,3,MZ,1,100,31
1575568109.995409,153535.000,26419,3,MZ,1,100,33
1575568110.035414,153568.667,26437,3,MZ,1,100,33
1575568110.075419,153602.333,26437,3,MZ,1,100,31
1575568110.115424,153636.000,26437,3,MZ,1,100,33
1575568110.162360,153675.500,26455,2,MZ,1,100,32
1575568110.209297,153715.000,26455,2,MZ,1,100,33
1575568110.250490,153749.667,26473,3,MZ,1,100,33
1575568110.291683,153784.333,26473,3,MZ,1,100,34
1575568110.332876,153819.000,26473,3,MZ,1,100,32
1575568110.374861,153854.333,26491,3,MZ,1,100,33
1575568110.416847,153889.667,26491,3,MZ,1,100,32
1575568110.458832,153925.000,26491,3,MZ,1,100,32
1575568110.497252,153957.333,26509,3,MZ,1,100,33
1575568110.535673,153989.667,26509,3,MZ,1,100,31
1575568110.574093,154022.000,26509,3,MZ,1,100,33
1575568110.618851,154059.667,26526,3,MZ,1,100,33
1575568110.663609,154097.333,26526,3,MZ,1,100,33
1575568110.708367,154135.000,26526,3,MZ,1,100,34
1575568110.749956,154170.000,26544,3,MZ,1,100,33
1575568110.791546,154205.000,26544,3,MZ,1,100,32
1575568110.833135,154240.000,26544,3,MZ,1,100,33
1575568110.873140,154273.667,26560,3,MZ,1,100,33
1575568110.913144,154307.333,26560,3,MZ,1,100,32
1575568110.953149,154341.000,26560,3,MZ,1,100,33
1575568110.990777,154372.667,26579,3,MZ,1,100,32
1575568111.028406,154404.333,26579,3,MZ,1,100,32
1575568111.066034,154436.000,26579,3,MZ,1,100,32
1575568111.105643,154469.333,26597,3,MZ,1,100,31
1575568111.145252,154502.667,26597,3,MZ,1,100,33
1575568111.184860,154536.000,26597,3,MZ,1,100,32
1575568111.226054,154570.667,26615,3,MZ,1,100,31
1575568111.267247,154605.333,26615,3,MZ,1,100,33
1575568111.308440,154640.000,26615,3,MZ,1,100,32
1575568111.349633,154674.667,26633,3,MZ,1,100,32
1575568111.390826,154709.333,26633,3,MZ,1,100,32
1575568111.432019,154744.000,26633,3,MZ,1,100,32
1575568111.472024,154777.667,26651,3,MZ,1,100,32
1575568111.512029,154811.333,26651,3,MZ,1,100,32
1575568111.552034,154845.000,26651,3,MZ,1,100,32
1575568111.593227,154879.667,26669,3,MZ,1,100,33
1575568111.634420,154914.333,26669,3,MZ,1,100,33
1575568111.675613,154949.000,26669,3,MZ,1,100,33
1575568111.714430,154981.667,26687,3,MZ,1,100,33
1575568111.753246,155014.333,26687,3,MZ,1,100,32
1575568111.792063,155047.000,26687,3,MZ,1,100,32
1575568111.832464,155081.000,26705,3,MZ,1,100,33
1575568111.872865,155115.000,26705,3,MZ,1,100,32
1575568111.913266,155149.000,26705,3,MZ,1,100,33
1575568111.954459,155183.667,26723,3,MZ,1,100,32
1575568111.995652,155218.333,26723,3,MZ,1,100,32
1575568112.036845,155253.000,26723,3,MZ,1,100,31
1575568112.076850,155286.667,26741,3,MZ,1,100,33
1575568112.116855,155320.333,26741,3,MZ,1,100,32
1575568112.156859,155354.000,26741,3,MZ,1,100,32
1575568112.198449,155389.000,26758,3,MZ,1,100,31
1575568112.240038,155424.000,26758,3,MZ,1,100,32
1575568112.281627,155459.000,26758,3,MZ,1,100,33
1575568112.320840,155492.000,26775,3,MZ,1,100,32
1575568112.360052,155525.000,26775,3,MZ,1,100,32
1575568112.399265,155558.000,26775,3,MZ,1,100,33
1575568112.440458,155592.667,26793,3,MZ,1,100,32
1575568112.481651,155627.333,26793,3,MZ,1,100,33
1575568112.522844,155662.000,26793,3,MZ,1,100,32
1575568112.563839,155696.500,26811,2,MZ,1,100,32
1575568112.604835,155731.000,26811,2,MZ,1,100,31
1575568112.646424,155766.000,26829,3,MZ,1,100,31
1575568112.688013,155801.000,26829,3,MZ,1,100,33
1575568112.729602,155836.000,26829,3,MZ,1,100,33
1575568112.767924,155868.250,26847,4,MZ,1,100,33
1575568112.806245,155900.500,26847,4,MZ,1,100,32
1575568112.844567,155932.750,26847,4,MZ,1,100,32
1575568112.882888,155965.000,26847,4,MZ,1,100,31
1575568112.920913,155997.000,26866,2,MZ,1,100,33
1575568112.958937,156029.000,26866,2,MZ,1,100,32
1575568113.002903,156066.000,26884,3,MZ,1,100,32
1575568113.046868,156103.000,26884,3,MZ,1,100,31
1575568113.090834,156140.000,26884,3,MZ,1,100,33
1575568113.132027,156174.667,26901,3,MZ,1,100,32
1575568113.173220,156209.333,26901,3,MZ,1,100,32
1575568113.214413,156244.000,26901,3,MZ,1,100,31
1575568113.256003,156279.000,26919,3,MZ,1,100,31
1575568113.297592,156314.000,26919,3,MZ,1,100,33
1575568113.339181,156349.000,26919,3,MZ,1,100,32
1575568113.377601,156381.333,26935,3,MZ,1,100,33
1575568113.416022,156413.667,26935,3,MZ,1,100,31
1575568113.454443,156446.000,26935,3,MZ,1,100,33
1575568113.492764,156478.250,26953,4,MZ,1,100,32
1575568113.531085,156510.500,26953,4,MZ,1,100,32
1575568113.569407,156542.750,26953,4,MZ,1,100,33
1575568113.607728,156575.000,26953,4,MZ,1,100,32
1575568113.647535,156608.500,26971,2,MZ,1,100,33
1575568113.687342,156642.000,26971,2,MZ,1,100,31
1575568113.732496,156680.000,26989,3,MZ,1,100,31
1575568113.777650,156718.000,26989,3,MZ,1,100,31
1575568113.822804,156756.000,26989,3,MZ,1,100,31
1575568113.863997,156790.667,27008,3,MZ,1,100,31
1575568113.905190,156825.333,27008,3,MZ,1,100,32
1575568113.946383,156860.000,27008,3,MZ,1,100,33
1575568113.988369,156895.333,27026,3,MZ,1,100,31
1575568114.030354,156930.667,27026,3,MZ,1,100,31
1575568114.072339,156966.000,27026,3,MZ,1,100,31
1575568114.110760,156998.333,27044,3,MZ,1,100,30
1575568114.149180,157030.667,27044,3,MZ,1,100,30
1575568114.187601,157063.000,27044,3,MZ,1,100,28
1575568114.228002,157097.000,27061,2,MZ,1,100,29
1575568114.268403,157131.000,27061,2,MZ,1,100,29
1575568114.310289,157166.250,27079,4,MZ,1,100,27
1575568114.352175,157201.500,27079,4,MZ,1,100,27
1575568114.394061,157236.750,27079,4,MZ,1,100,28
1575568114.435948,157272.000,27079,4,MZ,1,100,27
1575568114.476943,157306.500,27095,2,MZ,1,100,28
1575568114.517938,157341.000,27095,2,MZ,1,100,29
1575568114.563092,157379.000,27113,3,MZ,1,100,29
1575568114.608246,157417.000,27113,3,MZ,1,100,29
1575568114.653400,157455.000,27113,3,MZ,1,100,30
1575568114.691424,157487.000,27131,4,MZ,1,100,30
1575568114.729449,157519.000,27131,4,MZ,1,100,31
1575568114.767473,157551.000,27131,4,MZ,1,100,33
1575568114.805497,157583.000,27131,4,MZ,1,100,33
1575568114.844710,157616.000,27149,3,MZ,1,100,32
1575568114.883923,157649.000,27149,3,MZ,1,100,31
1575568114.923135,157682.000,27149,3,MZ,1,100,32
1575568114.964328,157716.667,27168,3,MZ,1,100,33
1575568115.005522,157751.333,27168,3,MZ,1,100,33
1575568115.046715,157786.000,27168,3,MZ,1,100,32
1575568115.087710,157820.500,27186,2,MZ,1,100,33
1575568115.128705,157855.000,27186,2,MZ,1,100,32
1575568115.171245,157890.800,27207,5,MZ,1,100,32
1575568115.213784,157926.600,27207,5,MZ,1,100,31
1575568115.256324,157962.400,27207,5,MZ,1,100,31
1575568115.298864,157998.200,27207,5,MZ,1,100,32
1575568115.341404,158034.000,27207,5,MZ,1,100,32
1575568115.380220,158066.667,27227,3,MZ,1,100,32
1575568115.419037,158099.333,27227,3,MZ,1,100,33
1575568115.457854,158132.000,27227,3,MZ,1,100,33
1575568115.496670,158164.667,27245,3,MZ,1,100,31
1575568115.535487,158197.333,27245,3,MZ,1,100,31
1575568115.574303,158230.000,27245,3,MZ,1,100,33
1575568115.615892,158265.000,27263,3,MZ,1,100,33
1575568115.657482,158300.000,27263,3,MZ,1,100,31
1575568115.699071,158335.000,27263,3,MZ,1,100,32
1575568115.739076,158368.667,27281,3,MZ,1,100,31
1575568115.779081,158402.333,27281,3,MZ,1,100,31
1575568115.819085,158436.000,27281,3,MZ,1,100,31
1575568115.859882,158470.333,27299,3,MZ,1,100,32
1575568115.900680,158504.667,27299,3,MZ,1,100,31
1575568115.941477,158539.000,27299,3,MZ,1,100,32
1575568115.983066,158574.000,27317,3,MZ,1,100,31
1575568116.024655,158609.000,27317,3,MZ,1,100,32
1575568116.066244,158644.000,27317,3,MZ,1,100,31
1575568116.104269,158676.000,27335,3,MZ,1,100,32
1575568116.142293,158708.000,27335,3,MZ,1,100,32
1575568116.180317,158740.000,27335,3,MZ,1,100,32
1575568116.218738,158772.333,27353,3,MZ,1,100,33
1575568116.257158,158804.667,27353,3,MZ,1,100,31
1575568116.295579,158837.000,27353,3,MZ,1,100,32
1575568116.338752,158873.333,27369,3,MZ,1,100,32
1575568116.381926,158909.667,27369,3,MZ,1,100,33
1575568116.425099,158946.000,27369,3,MZ,1,100,32
1575568116.466293,158980.667,27387,3,MZ,1,100,31
1575568116.507486,159015.333,27387,3,MZ,1,100,31
1575568116.548679,159050.000,27387,3,MZ,1,100,32
1575568116.590268,159085.000,27405,2,MZ,1,100,33
1575568116.631857,159120.000,27405,2,MZ,1,100,32
1575568116.671367,159153.250,27423,4,MZ,1,100,33
1575568116.710877,159186.500,27423,4,MZ,1,100,31
1575568116.750386,159219.750,27423,4,MZ,1,100,32
1575568116.789896,159253.000,27423,4,MZ,1,100,32
1575568116.827921,159285.000,27441,3,MZ,1,100,33
1575568116.865945,159317.000,27441,3,MZ,1,100,31
1575568116.903969,159349.000,27441,3,MZ,1,100,32
1575568116.943974,159382.667,27460,3,MZ,1,100,31
1575568116.983979,159416.333,27460,3,MZ,1,100,32
1575568117.023984,159450.000,27460,3,MZ,1,100,31
1575568117.070920,159489.500,27478,2,MZ,1,100,32
1575568117.117857,159529.000,27478,2,MZ,1,100,31
1575568117.159050,159563.667,27495,3,MZ,1,100,31
1575568117.200243,159598.333,27495,3,MZ,1,100,31
1575568117.241436,159633.000,27495,3,MZ,1,100,31
