EpochTimestamp,EmotiBitTimestamp,PacketNumber,DataLength,TypeTag,ProtocolVersion,DataReliability,T0
1575568018.184284,76270.000,12855,1,T0,1,100,28.939
1575568018.317369,76382.000,12873,1,T0,1,100,28.901
1575568018.456396,76499.000,12890,1,T0,1,100,28.901
1575568018.594235,76615.000,12924,1,T0,1,100,28.917
1575568018.723755,76724.000,12942,1,T0,1,100,28.901
1575568018.853276,76833.000,12960,1,T0,1,100,28.939
1575568018.988738,76947.000,12979,1,T0,1,100,28.934
1575568019.121823,77059.000,12997,1,T0,1,100,28.912
1575568019.263227,77178.000,13015,1,T0,1,100,28.955
1575568019.390371,77285.000,13033,1,T0,1,100,28.934
1575568019.515138,77390.000,13051,1,T0,1,100,28.966
1575568019.651789,77505.000,13068,1,T0,1,100,28.923
1575568019.788439,77620.000,13102,1,T0,1,100,28.939
1575568019.921524,77732.000,13121,1,T0,1,100,28.928
1575568020.049857,77840.000,13139,1,T0,1,100,28.944
1575568020.180566,77950.000,13157,1,T0,1,100,28.928
1575568020.319592,78067.000,13175,1,T0,1,100,28.960
1575568020.456243,78182.000,13193,1,T0,1,100,28.934
1575568020.586951,78292.000,13211,1,T0,1,100,28.923
1575568020.711719,78397.000,13229,1,T0,1,100,28.923
1575568020.844805,78509.000,13247,1,T0,1,100,28.960
1575568020.982643,78625.000,13264,1,T0,1,100,28.944
1575568021.120481,78741.000,13299,1,T0,1,100,28.955
1575568021.245249,78846.000,13317,1,T0,1,100,28.960
1575568021.374770,78955.000,13335,1,T0,1,100,28.971
1575568021.510232,79069.000,13353,1,T0,1,100,28.955
1575568021.648070,79185.000,13371,1,T0,1,100,28.971
1575568021.782344,79298.000,13389,1,T0,1,100,28.939
1575568021.907111,79403.000,13407,1,T0,1,100,28.960
1575568022.040197,79515.000,13426,1,T0,1,100,28.982
1575568022.176847,79630.000,13443,1,T0,1,100,28.982
1575568022.311121,79743.000,13477,1,T0,1,100,28.944
1575568022.445395,79856.000,13495,1,T0,1,100,28.976
1575568022.573727,79964.000,13513,1,T0,1,100,29.009
1575568022.703248,80073.000,13531,1,T0,1,100,28.944
1575568022.841086,80189.000,13549,1,T0,1,100,28.950
1575568022.980113,80306.000,13568,1,T0,1,100,28.971
1575568023.104880,80411.000,13586,1,T0,1,100,28.993
1575568023.233213,80519.000,13604,1,T0,1,100,28.976
1575568023.368675,80633.000,13622,1,T0,1,100,28.976
1575568023.505325,80748.000,13639,1,T0,1,100,28.934
1575568023.641975,80863.000,13673,1,T0,1,100,28.993
1575568023.769119,80970.000,13691,1,T0,1,100,28.971
1575568023.898640,81079.000,13710,1,T0,1,100,28.987
1575568024.032914,81192.000,13728,1,T0,1,100,28.966
1575568024.167187,81305.000,13749,2,T0,1,100,29.003
1575568024.301461,81418.000,13749,2,T0,1,100,28.950
1575568024.427417,81524.000,13785,1,T0,1,100,28.960
1575568024.559314,81635.000,13803,1,T0,1,100,28.944
1575568024.695964,81750.000,13821,1,T0,1,100,28.966
1575568024.833803,81866.000,13839,1,T0,1,100,28.971
1575568024.962135,81974.000,13858,1,T0,1,100,28.982
1575568025.089279,82081.000,13876,1,T0,1,100,28.955
1575568025.225929,82196.000,13894,1,T0,1,100,28.966
1575568025.361391,82310.000,13911,1,T0,1,100,28.934
1575568025.487347,82416.000,13929,1,T0,1,100,28.917
1575568025.625186,82532.000,13963,1,T0,1,100,28.960
1575568025.763024,82648.000,13981,1,T0,1,100,28.982
1575568025.900863,82764.000,14000,1,T0,1,100,28.966
1575568026.028007,82871.000,14018,1,T0,1,100,28.976
1575568026.158716,82981.000,14036,1,T0,1,100,28.955
1575568026.291801,83093.000,14054,1,T0,1,100,28.966
1575568026.433204,83212.000,14072,1,T0,1,100,28.934
1575568026.569855,83327.000,14089,1,T0,1,100,28.950
1575568026.706505,83442.000,14123,1,T0,1,100,28.950
1575568026.836025,83551.000,14141,1,T0,1,100,28.960
1575568026.963170,83658.000,14160,1,T0,1,100,28.950
1575568027.093879,83768.000,14178,1,T0,1,100,28.987
1575568027.231717,83884.000,14196,1,T0,1,100,28.960
1575568027.369555,84000.000,14214,1,T0,1,100,28.944
1575568027.495511,84106.000,14232,1,T0,1,100,28.939
1575568027.626220,84216.000,14250,1,T0,1,100,28.923
1575568027.765247,84333.000,14267,1,T0,1,100,28.955
1575568027.901897,84448.000,14302,1,T0,1,100,28.939
1575568028.034983,84560.000,14320,1,T0,1,100,28.998
1575568028.162127,84667.000,14338,1,T0,1,100,28.998
1575568028.295212,84779.000,14356,1,T0,1,100,28.960
1575568028.434239,84896.000,14374,1,T0,1,100,28.955
1575568028.569701,85010.000,14392,1,T0,1,100,28.966
1575568028.696845,85117.000,14410,1,T0,1,100,28.955
1575568028.827554,85227.000,14428,1,T0,1,100,29.019
1575568028.964204,85342.000,14446,1,T0,1,100,29.025
1575568029.093725,85451.000,14464,1,T0,1,100,28.939
1575568029.232752,85568.000,14498,1,T0,1,100,28.982
1575568029.371778,85685.000,14516,1,T0,1,100,29.019
1575568029.507240,85799.000,14534,1,T0,1,100,28.966
1575568029.648643,85918.000,14552,1,T0,1,100,28.966
1575568029.775788,86025.000,14570,1,T0,1,100,28.998
1575568029.901744,86131.000,14588,1,T0,1,100,29.003
1575568030.039582,86247.000,14607,1,T0,1,100,28.982
1575568030.177421,86363.000,14624,1,T0,1,100,28.950
1575568030.311694,86476.000,14643,1,T0,1,100,28.987
1575568030.438838,86583.000,14665,1,T0,1,100,29.019
1575568030.569547,86693.000,14683,1,T0,1,100,28.982
1575568030.703821,86806.000,14701,1,T0,1,100,29.009
1575568030.842848,86923.000,14718,1,T0,1,100,28.966
1575568030.974745,87034.000,14753,1,T0,1,100,28.971
1575568031.099513,87139.000,14771,1,T0,1,100,29.009
1575568031.233786,87252.000,14789,1,T0,1,100,28.971
1575568031.372813,87369.000,14807,1,T0,1,100,28.993
1575568031.510651,87485.000,14825,1,T0,1,100,29.014
1575568031.636607,87591.000,14843,1,T0,1,100,29.030
1575568031.767316,87701.000,14861,1,T0,1,100,28.982
1575568031.901590,87814.000,14879,1,T0,1,100,28.982
1575568032.039428,87930.000,14897,1,T0,1,100,29.003
1575568032.174890,88044.000,14931,1,T0,1,100,28.950
1575568032.298470,88148.000,14949,1,T0,1,100,29.025
1575568032.431555,88260.000,14967,1,T0,1,100,29.003
1575568032.565829,88373.000,14985,1,T0,1,100,28.998
1575568032.702479,88488.000,15003,1,T0,1,100,29.035
1575568032.843882,88607.000,15021,1,T0,1,100,29.003
1575568032.981721,88723.000,15040,1,T0,1,100,29.030
1575568033.119559,88839.000,15057,1,T0,1,100,29.041
1575568033.252645,88951.000,15091,1,T0,1,100,28.998
1575568033.380977,89059.000,15109,1,T0,1,100,28.998
1575568033.509310,89167.000,15127,1,T0,1,100,28.987
1575568033.648336,89284.000,15145,1,T0,1,100,29.035
1575568033.788551,89402.000,15163,1,T0,1,100,29.014
1575568033.925201,89517.000,15181,1,T0,1,100,29.030
1575568034.063040,89633.000,15200,1,T0,1,100,29.014
1575568034.190184,89740.000,15217,1,T0,1,100,28.993
1575568034.318516,89848.000,15235,1,T0,1,100,29.041
1575568034.455167,89963.000,15269,1,T0,1,100,29.003
1575568034.593005,90079.000,15287,1,T0,1,100,29.046
1575568034.722526,90188.000,15305,1,T0,1,100,29.014
1575568034.852046,90297.000,15323,1,T0,1,100,28.987
1575568034.985132,90409.000,15342,1,T0,1,100,28.998
1575568035.124159,90526.000,15360,1,T0,1,100,29.014
1575568035.261997,90642.000,15378,1,T0,1,100,29.035
1575568035.391518,90751.000,15395,1,T0,1,100,28.955
1575568035.518662,90858.000,15413,1,T0,1,100,28.993
1575568035.654124,90972.000,15447,1,T0,1,100,29.062
1575568035.794339,91090.000,15465,1,T0,1,100,28.987
1575568035.928612,91203.000,15483,1,T0,1,100,29.030
1575568036.053380,91308.000,15502,1,T0,1,100,29.003
1575568036.185277,91419.000,15520,1,T0,1,100,29.019
1575568036.321928,91534.000,15539,1,T0,1,100,29.019
1575568036.459766,91650.000,15561,1,T0,1,100,29.009
1575568036.592851,91762.000,15579,1,T0,1,100,29.009
1575568036.716431,91866.000,15597,1,T0,1,100,29.019
1575568036.851893,91980.000,15615,1,T0,1,100,29.025
1575568036.984978,92092.000,15634,1,T0,1,100,29.068
1575568037.109746,92197.000,15652,1,T0,1,100,29.073
1575568037.246396,92312.000,15670,1,T0,1,100,29.046
1575568037.383046,92427.000,15687,1,T0,1,100,29.025
1575568037.518508,92541.000,15705,1,T0,1,100,29.057
1575568037.649217,92651.000,15739,1,T0,1,100,29.025
1575568037.777550,92759.000,15757,1,T0,1,100,29.025
1575568037.908258,92869.000,15776,1,T0,1,100,29.035
1575568038.050850,92989.000,15794,1,T0,1,100,29.030
1575568038.187500,93104.000,15812,1,T0,1,100,29.030
1575568038.321774,93217.000,15830,1,T0,1,100,29.057
1575568038.456048,93330.000,15848,1,T0,1,100,29.035
1575568038.582003,93436.000,15865,1,T0,1,100,29.003
1575568038.711524,93545.000,15883,1,T0,1,100,29.030
1575568038.849362,93661.000,15917,1,T0,1,100,29.084
1575568038.988389,93778.000,15936,1,T0,1,100,29.046
1575568039.116722,93886.000,15954,1,T0,1,100,29.019
1575568039.245054,93994.000,15972,1,T0,1,100,29.025
1575568039.382892,94110.000,15990,1,T0,1,100,29.030
1575568039.519543,94225.000,16008,1,T0,1,100,29.030
1575568039.656193,94340.000,16026,1,T0,1,100,29.057
1575568039.782149,94446.000,16043,1,T0,1,100,29.041
1575568039.911669,94555.000,16061,1,T0,1,100,29.003
1575568040.050696,94672.000,16096,1,T0,1,100,28.998
1575568040.184970,94785.000,16114,1,T0,1,100,29.073
1575568040.315679,94895.000,16132,1,T0,1,100,29.052
1575568040.441635,95001.000,16150,1,T0,1,100,29.046
1575568040.577096,95115.000,16168,1,T0,1,100,29.073
1575568040.703053,95221.000,16186,1,T0,1,100,29.046
1575568040.843267,95339.000,16204,1,T0,1,100,29.014
1575568040.982294,95456.000,16223,1,T0,1,100,29.068
1575568041.118944,95571.000,16240,1,T0,1,100,29.062
1575568041.260348,95690.000,16274,1,T0,1,100,29.046
1575568041.391057,95800.000,16292,1,T0,1,100,29.062
1575568041.515824,95905.000,16310,1,T0,1,100,29.078
1575568041.652474,96020.000,16328,1,T0,1,100,29.057
1575568041.790313,96136.000,16346,1,T0,1,100,29.035
1575568041.928151,96252.000,16364,1,T0,1,100,29.052
1575568042.055295,96359.000,16382,1,T0,1,100,29.068
1575568042.186004,96469.000,16400,1,T0,1,100,29.073
1575568042.317902,96580.000,16418,1,T0,1,100,29.062
1575568042.455740,96696.000,16437,1,T0,1,100,29.035
1575568042.592390,96811.000,16455,1,T0,1,100,29.078
1575568042.717158,96916.000,16477,1,T0,1,100,29.030
1575568042.847867,97026.000,16494,1,T0,1,100,29.046
1575568042.986893,97143.000,16530,1,T0,1,100,29.094
1575568043.123544,97258.000,16547,1,T0,1,100,29.073
1575568043.254253,97368.000,16565,1,T0,1,100,29.062
1575568043.382585,97476.000,16583,1,T0,1,100,29.046
1575568043.515671,97588.000,16601,1,T0,1,100,29.078
1575568043.654697,97705.000,16619,1,T0,1,100,29.062
1575568043.793724,97822.000,16637,1,T0,1,100,29.041
1575568043.917303,97926.000,16655,1,T0,1,100,29.078
1575568044.046824,98035.000,16673,1,T0,1,100,29.094
1575568044.179909,98147.000,16691,1,T0,1,100,29.057
1575568044.316560,98262.000,16725,1,T0,1,100,29.089
1575568044.459151,98382.000,16743,1,T0,1,100,29.073
1575568044.599366,98500.000,16761,1,T0,1,100,29.089
1575568044.737205,98616.000,16779,1,T0,1,100,29.078
1575568044.876231,98733.000,16797,1,T0,1,100,29.078
1575568045.004564,98841.000,16815,1,T0,1,100,29.068
1575568045.136461,98952.000,16833,1,T0,1,100,29.094
1575568045.264793,99060.000,16851,1,T0,1,100,29.068
1575568045.399067,99173.000,16885,1,T0,1,100,29.068
1575568045.532152,99285.000,16903,1,T0,1,100,29.094
1575568045.673556,99404.000,16921,1,T0,1,100,29.094
1575568045.801888,99512.000,16939,1,T0,1,100,29.084
1575568045.926656,99617.000,16957,1,T0,1,100,29.111
1575568046.063306,99732.000,16976,1,T0,1,100,29.100
1575568046.201144,99848.000,16994,1,T0,1,100,29.078
1575568046.334230,99960.000,17011,1,T0,1,100,29.084
1575568046.461374,100067.000,17029,1,T0,1,100,29.062
1575568046.593271,100178.000,17063,1,T0,1,100,29.041
1575568046.731110,100294.000,17081,1,T0,1,100,29.073
1575568046.867760,100409.000,17099,1,T0,1,100,29.068
1575568047.000845,100521.000,17118,1,T0,1,100,29.127
1575568047.124425,100625.000,17136,1,T0,1,100,29.078
1575568047.258698,100738.000,17154,1,T0,1,100,29.084
1575568047.397725,100855.000,17172,1,T0,1,100,29.094
1575568047.535563,100971.000,17189,1,T0,1,100,29.100
1575568047.661519,101077.000,17207,1,T0,1,100,29.073
1575568047.791040,101186.000,17241,1,T0,1,100,29.073
1575568047.924125,101298.000,17260,1,T0,1,100,29.035
1575568048.061964,101414.000,17278,1,T0,1,100,29.035
1575568048.199802,101530.000,17296,1,T0,1,100,29.046
1575568048.337641,101646.000,17314,1,T0,1,100,29.025
1575568048.467162,101755.000,17335,1,T0,1,100,29.073
1575568048.596682,101864.000,17355,1,T0,1,100,29.052
1575568048.721450,101969.000,17373,1,T0,1,100,29.073
1575568048.853347,102080.000,17391,1,T0,1,100,29.052
1575568048.989997,102195.000,17410,1,T0,1,100,29.052
1575568049.124271,102308.000,17428,1,T0,1,100,29.078
1575568049.266862,102428.000,17446,1,T0,1,100,29.062
1575568049.407078,102546.000,17463,1,T0,1,100,29.078
1575568049.533033,102652.000,17481,1,T0,1,100,29.068
1575568049.662554,102761.000,17515,1,T0,1,100,29.068
1575568049.796828,102874.000,17533,1,T0,1,100,29.057
1575568049.929913,102986.000,17552,1,T0,1,100,29.073
1575568050.068940,103103.000,17570,1,T0,1,100,29.052
1575568050.194896,103209.000,17588,1,T0,1,100,29.052
1575568050.323228,103317.000,17606,1,T0,1,100,29.132
1575568050.459878,103432.000,17624,1,T0,1,100,29.094
1575568050.598905,103549.000,17642,1,T0,1,100,29.068
1575568050.730802,103660.000,17659,1,T0,1,100,29.089
1575568050.856758,103766.000,17694,1,T0,1,100,29.094
1575568050.991032,103879.000,17712,1,T0,1,100,29.073
1575568051.128870,103995.000,17730,1,T0,1,100,29.105
1575568051.266709,104111.000,17748,1,T0,1,100,29.105
1575568051.395041,104219.000,17766,1,T0,1,100,29.116
1575568051.520997,104325.000,17784,1,T0,1,100,29.089
1575568051.661212,104443.000,17802,1,T0,1,100,29.084
1575568051.796674,104557.000,17819,1,T0,1,100,29.100
1575568051.933324,104672.000,17837,1,T0,1,100,29.078
1575568052.058092,104777.000,17872,1,T0,1,100,29.084
1575568052.193554,104891.000,17890,1,T0,1,100,29.094
1575568052.317133,104995.000,17908,1,T0,1,100,29.116
1575568052.453783,105110.000,17926,1,T0,1,100,29.089
1575568052.583304,105219.000,17944,1,T0,1,100,29.105
1575568052.719954,105334.000,17962,1,T0,1,100,29.116
1575568052.860169,105452.000,17980,1,T0,1,100,29.089
1575568052.995631,105566.000,17998,1,T0,1,100,29.127
1575568053.120399,105671.000,18016,1,T0,1,100,29.121
1575568053.255861,105785.000,18034,1,T0,1,100,29.100
1575568053.392511,105900.000,18068,1,T0,1,100,29.100
1575568053.525596,106012.000,18086,1,T0,1,100,29.132
1575568053.665811,106130.000,18104,1,T0,1,100,29.137
1575568053.802462,106245.000,18122,1,T0,1,100,29.105
1575568053.926041,106349.000,18140,1,T0,1,100,29.094
1575568054.057938,106460.000,18159,1,T0,1,100,29.105
1575568054.193400,106574.000,18177,1,T0,1,100,29.105
1575568054.327674,106687.000,18194,1,T0,1,100,29.116
1575568054.458977,106797.500,18231,2,T0,1,100,29.105
1575568054.590280,106908.000,18231,2,T0,1,100,29.100
1575568054.723365,107020.000,18251,1,T0,1,100,29.105
1575568054.858827,107134.000,18269,1,T0,1,100,29.121
1575568055.000231,107253.000,18286,1,T0,1,100,29.143
1575568055.127375,107360.000,18322,1,T0,1,100,29.111
1575568055.255707,107468.000,18339,1,T0,1,100,29.100
1575568055.389981,107581.000,18357,1,T0,1,100,29.100
1575568055.527819,107697.000,18375,1,T0,1,100,29.116
1575568055.664469,107812.000,18393,1,T0,1,100,29.116
1575568055.788049,107916.000,18411,1,T0,1,100,29.137
1575568055.916381,108024.000,18429,1,T0,1,100,29.153
1575568056.055408,108141.000,18448,1,T0,1,100,29.137
1575568056.194435,108258.000,18465,1,T0,1,100,29.159
1575568056.331085,108373.000,18499,1,T0,1,100,29.159
1575568056.473676,108493.000,18517,1,T0,1,100,29.116
1575568056.611515,108609.000,18535,1,T0,1,100,29.137
1575568056.745789,108722.000,18553,1,T0,1,100,29.137
1575568056.872933,108829.000,18571,1,T0,1,100,29.116
1575568057.004830,108940.000,18590,1,T0,1,100,29.148
1575568057.139103,109053.000,18608,1,T0,1,100,29.121
1575568057.279319,109171.000,18625,1,T0,1,100,29.105
1575568057.410028,109281.000,18659,1,T0,1,100,29.111
1575568057.533607,109385.000,18677,1,T0,1,100,29.094
1575568057.669069,109499.000,18695,1,T0,1,100,29.046
1575568057.806907,109615.000,18713,1,T0,1,100,29.068
1575568057.942369,109729.000,18731,1,T0,1,100,29.052
1575568058.069513,109836.000,18750,1,T0,1,100,29.084
1575568058.201411,109947.000,18768,1,T0,1,100,29.084
1575568058.338061,110062.000,18786,1,T0,1,100,29.041
1575568058.473523,110176.000,18803,1,T0,1,100,29.046
1575568058.611361,110292.000,18837,1,T0,1,100,29.035
1575568058.736129,110397.000,18855,1,T0,1,100,29.052
1575568058.866838,110507.000,18873,1,T0,1,100,29.089
1575568059.005864,110624.000,18892,1,T0,1,100,29.073
1575568059.142514,110739.000,18910,1,T0,1,100,29.089
1575568059.273223,110849.000,18928,1,T0,1,100,29.052
1575568059.400367,110956.000,18946,1,T0,1,100,29.116
1575568059.532265,111067.000,18964,1,T0,1,100,29.078
1575568059.671292,111184.000,18981,1,T0,1,100,29.057
1575568059.811507,111302.000,19015,1,T0,1,100,29.111
1575568059.948157,111417.000,19034,1,T0,1,100,29.105
1575568060.090748,111537.000,19052,1,T0,1,100,29.084
1575568060.226210,111651.000,19070,1,T0,1,100,29.116
1575568060.355731,111760.000,19088,1,T0,1,100,29.078
1575568060.485252,111869.000,19106,1,T0,1,100,29.094
1575568060.621902,111984.000,19127,1,T0,1,100,29.100
1575568060.752611,112094.000,19147,1,T0,1,100,29.105
1575568060.890449,112210.000,19165,1,T0,1,100,29.089
1575568061.028288,112326.000,19184,1,T0,1,100,29.078
1575568061.158997,112436.000,19202,1,T0,1,100,29.100
1575568061.287329,112544.000,19220,1,T0,1,100,29.068
1575568061.420414,112656.000,19237,1,T0,1,100,29.089
1575568061.554688,112769.000,19255,1,T0,1,100,29.111
1575568061.696091,112888.000,19289,1,T0,1,100,29.127
1575568061.823236,112995.000,19307,1,T0,1,100,29.100
1575568061.949191,113101.000,19326,1,T0,1,100,29.084
1575568062.085842,113216.000,19344,1,T0,1,100,29.105
1575568062.224868,113333.000,19362,1,T0,1,100,29.127
1575568062.360330,113447.000,19380,1,T0,1,100,29.127
1575568062.485098,113552.000,19398,1,T0,1,100,29.132
1575568062.618183,113664.000,19415,1,T0,1,100,29.073
1575568062.756022,113780.000,19433,1,T0,1,100,29.137
1575568062.892672,113895.000,19467,1,T0,1,100,29.094
1575568063.023381,114005.000,19486,1,T0,1,100,29.105
1575568063.148149,114110.000,19504,1,T0,1,100,29.132
1575568063.285987,114226.000,19522,1,T0,1,100,29.100
1575568063.420261,114339.000,19540,1,T0,1,100,29.137
1575568063.558099,114455.000,19558,1,T0,1,100,29.089
1575568063.685243,114562.000,19576,1,T0,1,100,29.073
1575568063.818329,114674.000,19593,1,T0,1,100,29.132
1575568063.943096,114779.000,19611,1,T0,1,100,29.132
1575568064.076182,114891.000,19630,1,T0,1,100,29.143
1575568064.203326,114998.000,19664,1,T0,1,100,29.105
1575568064.337600,115111.000,19682,1,T0,1,100,29.132
1575568064.476626,115228.000,19700,1,T0,1,100,29.100
1575568064.615653,115345.000,19718,1,T0,1,100,29.143
1575568064.740421,115450.000,19736,1,T0,1,100,29.121
1575568064.872318,115561.000,19754,1,T0,1,100,29.105
1575568065.007780,115675.000,19773,1,T0,1,100,29.137
1575568065.142053,115788.000,19790,1,T0,1,100,29.132
1575568065.278704,115903.000,19824,1,T0,1,100,29.143
1575568065.405848,116010.000,19842,1,T0,1,100,29.148
1575568065.531804,116116.000,19860,1,T0,1,100,29.105
1575568065.669642,116232.000,19878,1,T0,1,100,29.105
1575568065.811045,116351.000,19896,1,T0,1,100,29.111
1575568065.939378,116459.000,19914,1,T0,1,100,29.137
1575568066.065334,116565.000,19933,1,T0,1,100,29.137
1575568066.201984,116680.000,19951,1,T0,1,100,29.169
1575568066.338634,116795.000,19969,1,T0,1,100,29.089
1575568066.476473,116911.000,19986,1,T0,1,100,29.127
1575568066.603617,117018.000,20023,2,T0,1,100,29.127
1575568066.730761,117125.000,20023,2,T0,1,100,29.143
1575568066.869788,117242.000,20043,1,T0,1,100,29.159
1575568067.005250,117356.000,20061,1,T0,1,100,29.137
1575568067.138335,117468.000,20079,1,T0,1,100,29.143
1575568067.263103,117573.000,20097,1,T0,1,100,29.116
1575568067.393811,117683.000,20131,1,T0,1,100,29.137
1575568067.530462,117798.000,20149,1,T0,1,100,29.121
1575568067.673053,117918.000,20167,1,T0,1,100,29.148
1575568067.812080,118035.000,20185,1,T0,1,100,29.127
1575568067.948730,118150.000,20203,1,T0,1,100,29.159
1575568068.088945,118268.000,20222,1,T0,1,100,29.132
1575568068.222031,118380.000,20239,1,T0,1,100,29.148
1575568068.345610,118484.000,20273,1,T0,1,100,29.148
1575568068.484637,118601.000,20291,1,T0,1,100,29.132
1575568068.615346,118711.000,20309,1,T0,1,100,29.121
1575568068.748431,118823.000,20327,1,T0,1,100,29.121
1575568068.888646,118941.000,20345,1,T0,1,100,29.159
1575568069.024108,119055.000,20364,1,T0,1,100,29.148
1575568069.147687,119159.000,20382,1,T0,1,100,29.121
1575568069.280773,119271.000,20400,1,T0,1,100,29.148
1575568069.416235,119385.000,20417,1,T0,1,100,29.169
1575568069.550508,119498.000,20451,1,T0,1,100,29.137
1575568069.682406,119609.000,20469,1,T0,1,100,29.153
1575568069.808362,119715.000,20487,1,T0,1,100,29.100
1575568069.943823,119829.000,20506,1,T0,1,100,29.143
1575568070.079285,119943.000,20524,1,T0,1,100,29.159
1575568070.221877,120063.000,20542,1,T0,1,100,29.105
1575568070.346645,120168.000,20560,1,T0,1,100,29.132
1575568070.473789,120275.000,20578,1,T0,1,100,29.169
1575568070.611627,120391.000,20595,1,T0,1,100,29.153
1575568070.748277,120506.000,20629,1,T0,1,100,29.148
1575568070.881363,120618.000,20647,1,T0,1,100,29.159
1575568071.006130,120723.000,20666,1,T0,1,100,29.159
1575568071.136839,120833.000,20684,1,T0,1,100,29.153
1575568071.275866,120950.000,20702,1,T0,1,100,29.164
1575568071.412516,121065.000,20720,1,T0,1,100,29.191
1575568071.540849,121173.000,20738,1,T0,1,100,29.111
1575568071.675122,121286.000,20756,1,T0,1,100,29.169
1575568071.802266,121393.000,20773,1,T0,1,100,29.180
1575568071.932975,121503.000,20791,1,T0,1,100,29.153
1575568072.061308,121611.000,20810,1,T0,1,100,29.159
1575568072.195581,121724.000,20844,1,T0,1,100,29.148
1575568072.329855,121837.000,20862,1,T0,1,100,29.169
1575568072.471258,121956.000,20880,1,T0,1,100,29.169
1575568072.599591,122064.000,20898,1,T0,1,100,29.186
1575568072.724358,122169.000,20919,1,T0,1,100,29.159
1575568072.862197,122285.000,20939,1,T0,1,100,29.132
1575568073.000035,122401.000,20958,1,T0,1,100,29.148
1575568073.135497,122515.000,20976,1,T0,1,100,29.153
1575568073.262641,122622.000,20994,1,T0,1,100,29.169
1575568073.394539,122733.000,21012,1,T0,1,100,29.169
1575568073.526436,122844.000,21030,1,T0,1,100,29.169
1575568073.664274,122960.000,21048,1,T0,1,100,29.153
1575568073.798548,123073.000,21065,1,T0,1,100,29.207
1575568073.923316,123178.000,21083,1,T0,1,100,29.164
1575568074.056401,123290.000,21102,1,T0,1,100,29.180
1575568074.195428,123407.000,21136,1,T0,1,100,29.191
1575568074.332078,123522.000,21154,1,T0,1,100,29.153
1575568074.460410,123630.000,21172,1,T0,1,100,29.164
1575568074.588743,123738.000,21190,1,T0,1,100,29.196
1575568074.720640,123849.000,21208,1,T0,1,100,29.191
1575568074.859667,123966.000,21226,1,T0,1,100,29.132
1575568074.996317,124081.000,21245,1,T0,1,100,29.148
1575568075.119896,124185.000,21262,1,T0,1,100,29.180
1575568075.250605,124295.000,21280,1,T0,1,100,29.180
1575568075.376561,124401.000,21298,1,T0,1,100,29.186
1575568075.512023,124515.000,21332,1,T0,1,100,29.159
1575568075.653426,124634.000,21350,1,T0,1,100,29.169
1575568075.790076,124749.000,21368,1,T0,1,100,29.169
1575568075.923162,124861.000,21386,1,T0,1,100,29.196
1575568076.059812,124976.000,21405,1,T0,1,100,29.212
1575568076.188144,125084.000,21423,1,T0,1,100,29.191
1575568076.317665,125193.000,21440,1,T0,1,100,29.196
1575568076.448374,125303.000,21458,1,T0,1,100,29.202
1575568076.582648,125416.000,21492,1,T0,1,100,29.223
1575568076.716921,125529.000,21510,1,T0,1,100,29.180
1575568076.857136,125647.000,21528,1,T0,1,100,29.148
1575568076.983092,125753.000,21547,1,T0,1,100,29.191
1575568077.110236,125860.000,21565,1,T0,1,100,29.218
1575568077.248075,125976.000,21583,1,T0,1,100,29.207
1575568077.385913,126092.000,21601,1,T0,1,100,29.164
1575568077.517811,126203.000,21618,1,T0,1,100,29.207
1575568077.644955,126310.000,21636,1,T0,1,100,29.212
1575568077.779228,126423.000,21670,1,T0,1,100,29.191
1575568077.917067,126539.000,21689,1,T0,1,100,29.207
1575568078.053717,126654.000,21707,1,T0,1,100,29.212
1575568078.184426,126764.000,21725,1,T0,1,100,29.212
1575568078.310382,126870.000,21743,1,T0,1,100,29.239
1575568078.450597,126988.000,21761,1,T0,1,100,29.228
1575568078.584871,127101.000,21779,1,T0,1,100,29.196
1575568078.723897,127218.000,21796,1,T0,1,100,29.223
1575568078.848665,127323.000,21817,1,T0,1,100,29.245
1575568078.978186,127432.000,21838,1,T0,1,100,29.186
1575568079.112459,127545.000,21856,1,T0,1,100,29.239
1575568079.253863,127664.000,21874,1,T0,1,100,29.223
1575568079.391701,127780.000,21891,1,T0,1,100,29.196
1575568079.527163,127894.000,21925,1,T0,1,100,29.261
1575568079.665001,128010.000,21943,1,T0,1,100,29.245
1575568079.801652,128125.000,21961,1,T0,1,100,29.228
1575568079.926419,128230.000,21980,1,T0,1,100,29.250
1575568080.060693,128343.000,21998,1,T0,1,100,29.245
1575568080.197343,128458.000,22016,1,T0,1,100,29.255
1575568080.332805,128572.000,22034,1,T0,1,100,29.234
1575568080.465891,128684.000,22051,1,T0,1,100,29.261
1575568080.593035,128791.000,22069,1,T0,1,100,29.223
1575568080.721367,128899.000,22087,1,T0,1,100,29.196
1575568080.859205,129015.000,22121,1,T0,1,100,29.234
1575568080.999421,129133.000,22140,1,T0,1,100,29.212
1575568081.123000,129237.000,22158,1,T0,1,100,29.245
1575568081.252521,129346.000,22176,1,T0,1,100,29.287
1575568081.390359,129462.000,22194,1,T0,1,100,29.228
1575568081.527009,129577.000,22212,1,T0,1,100,29.234
1575568081.662471,129691.000,22230,1,T0,1,100,29.261
1575568081.789615,129798.000,22247,1,T0,1,100,29.212
1575568081.919136,129907.000,22265,1,T0,1,100,29.250
1575568082.056974,130023.000,22300,1,T0,1,100,29.271
1575568082.193625,130138.000,22318,1,T0,1,100,29.266
1575568082.324334,130248.000,22336,1,T0,1,100,29.271
1575568082.450289,130354.000,22354,1,T0,1,100,29.234
1575568082.582187,130465.000,22372,1,T0,1,100,29.293
1575568082.718837,130580.000,22390,1,T0,1,100,29.261
1575568082.857864,130697.000,22408,1,T0,1,100,29.293
1575568082.986196,130805.000,22426,1,T0,1,100,29.271
1575568083.120470,130918.000,22444,1,T0,1,100,29.271
1575568083.255932,131032.000,22478,1,T0,1,100,29.239
1575568083.384264,131140.000,22496,1,T0,1,100,29.282
1575568083.518538,131253.000,22514,1,T0,1,100,29.261
1575568083.646870,131361.000,22532,1,T0,1,100,29.282
1575568083.778767,131472.000,22550,1,T0,1,100,29.261
1575568083.913041,131585.000,22568,1,T0,1,100,29.325
1575568084.053256,131703.000,22587,1,T0,1,100,29.309
1575568084.186341,131815.000,22604,1,T0,1,100,29.287
1575568084.311109,131920.000,22622,1,T0,1,100,29.304
1575568084.446571,132034.000,22657,1,T0,1,100,29.304
1575568084.582033,132148.000,22674,1,T0,1,100,29.320
1575568084.718683,132263.000,22692,1,T0,1,100,29.287
1575568084.848204,132372.000,22713,2,T0,1,100,29.336
1575568084.977724,132481.000,22713,2,T0,1,100,29.282
1575568085.107245,132590.000,22734,1,T0,1,100,29.298
1575568085.245084,132706.000,22768,1,T0,1,100,29.309
1575568085.384110,132823.000,22786,1,T0,1,100,29.298
1575568085.508878,132928.000,22804,1,T0,1,100,29.304
1575568085.638399,133037.000,22822,1,T0,1,100,29.330
1575568085.777425,133154.000,22840,1,T0,1,100,29.304
1575568085.914076,133269.000,22858,1,T0,1,100,29.330
1575568086.047161,133381.000,22877,1,T0,1,100,29.298
1575568086.174305,133488.000,22894,1,T0,1,100,29.293
1575568086.302637,133596.000,22912,1,T0,1,100,29.325
1575568086.441664,133713.000,22946,1,T0,1,100,29.287
1575568086.579503,133829.000,22964,1,T0,1,100,29.309
1575568086.705459,133935.000,22982,1,T0,1,100,29.309
1575568086.838544,134047.000,23000,1,T0,1,100,29.304
1575568086.962123,134151.000,23019,1,T0,1,100,29.309
1575568087.094020,134262.000,23037,1,T0,1,100,29.314
1575568087.231859,134378.000,23055,1,T0,1,100,29.277
1575568087.367321,134492.000,23073,1,T0,1,100,29.336
1575568087.500406,134604.000,23090,1,T0,1,100,29.298
1575568087.642998,134724.000,23124,1,T0,1,100,29.282
1575568087.780836,134840.000,23142,1,T0,1,100,29.304
1575568087.912734,134951.000,23161,1,T0,1,100,29.304
1575568088.041066,135059.000,23179,1,T0,1,100,29.320
1575568088.174151,135171.000,23197,1,T0,1,100,29.330
1575568088.308425,135284.000,23215,1,T0,1,100,29.320
1575568088.449828,135403.000,23233,1,T0,1,100,29.320
1575568088.578161,135511.000,23250,1,T0,1,100,29.330
1575568088.702928,135616.000,23268,1,T0,1,100,29.352
1575568088.839579,135731.000,23302,1,T0,1,100,29.363
1575568088.978605,135848.000,23321,1,T0,1,100,29.320
1575568089.112879,135961.000,23339,1,T0,1,100,29.341
1575568089.240023,136068.000,23357,1,T0,1,100,29.336
1575568089.370732,136178.000,23375,1,T0,1,100,29.373
1575568089.506194,136292.000,23393,1,T0,1,100,29.330
1575568089.641656,136406.000,23411,1,T0,1,100,29.363
1575568089.777118,136520.000,23428,1,T0,1,100,29.298
1575568089.901886,136625.000,23446,1,T0,1,100,29.363
1575568090.038536,136740.000,23481,1,T0,1,100,29.320
1575568090.172809,136853.000,23499,1,T0,1,100,29.330
1575568090.310648,136969.000,23517,1,T0,1,100,29.352
1575568090.438980,137077.000,23535,1,T0,1,100,29.346
1575568090.566124,137184.000,23553,1,T0,1,100,29.320
1575568090.698022,137295.000,23571,1,T0,1,100,29.379
1575568090.840613,137415.000,23589,1,T0,1,100,29.341
1575568090.979640,137532.000,23610,1,T0,1,100,29.363
1575568091.113914,137645.000,23628,1,T0,1,100,29.346
1575568091.252940,137762.000,23648,1,T0,1,100,29.368
1575568091.393155,137880.000,23666,1,T0,1,100,29.368
1575568091.517923,137985.000,23683,1,T0,1,100,29.346
1575568091.649820,138096.000,23701,1,T0,1,100,29.341
1575568091.776964,138203.000,23719,1,T0,1,100,29.368
1575568091.904108,138310.000,23755,1,T0,1,100,29.346
1575568092.043135,138427.000,23772,1,T0,1,100,29.384
1575568092.182162,138544.000,23790,1,T0,1,100,29.357
1575568092.309306,138651.000,23808,1,T0,1,100,29.379
1575568092.440015,138761.000,23826,1,T0,1,100,29.389
1575568092.573100,138873.000,23844,1,T0,1,100,29.373
1575568092.706186,138985.000,23862,1,T0,1,100,29.384
1575568092.845212,139102.000,23880,1,T0,1,100,29.373
1575568092.972357,139209.000,23897,1,T0,1,100,29.357
1575568093.100689,139317.000,23916,1,T0,1,100,29.368
1575568093.236151,139431.000,23950,1,T0,1,100,29.368
1575568093.376366,139549.000,23968,1,T0,1,100,29.384
1575568093.510640,139662.000,23986,1,T0,1,100,29.384
1575568093.635407,139767.000,24004,1,T0,1,100,29.368
1575568093.769681,139880.000,24022,1,T0,1,100,29.427
1575568093.907519,139996.000,24040,1,T0,1,100,29.411
1575568094.045358,140112.000,24059,1,T0,1,100,29.384
1575568094.174879,140221.000,24076,1,T0,1,100,29.368
1575568094.298458,140325.000,24094,1,T0,1,100,29.411
1575568094.437485,140442.000,24128,1,T0,1,100,29.363
1575568094.576511,140559.000,24146,1,T0,1,100,29.336
1575568094.713161,140674.000,24164,1,T0,1,100,29.405
1575568094.852188,140791.000,24182,1,T0,1,100,29.438
1575568094.984086,140902.000,24201,1,T0,1,100,29.411
1575568095.123112,141019.000,24219,1,T0,1,100,29.411
1575568095.251445,141127.000,24236,1,T0,1,100,29.373
1575568095.384530,141239.000,24270,1,T0,1,100,29.379
1575568095.511674,141346.000,24288,1,T0,1,100,29.411
1575568095.647136,141460.000,24306,1,T0,1,100,29.405
1575568095.782598,141574.000,24324,1,T0,1,100,29.416
1575568095.918060,141688.000,24342,1,T0,1,100,29.368
1575568096.049957,141799.000,24361,1,T0,1,100,29.405
1575568096.175913,141905.000,24379,1,T0,1,100,29.432
1575568096.306622,142015.000,24397,1,T0,1,100,29.432
1575568096.444460,142131.000,24415,1,T0,1,100,29.448
1575568096.584676,142249.000,24448,1,T0,1,100,29.389
1575568096.707067,142352.000,24466,1,T0,1,100,29.448
1575568096.837775,142462.000,24484,1,T0,1,100,29.405
1575568096.975020,142577.500,24506,2,T0,1,100,29.448
1575568097.112264,142693.000,24506,2,T0,1,100,29.427
1575568097.246538,142806.000,24526,1,T0,1,100,29.411
1575568097.373682,142913.000,24561,1,T0,1,100,29.454
1575568097.503203,143022.000,24578,1,T0,1,100,29.438
1575568097.638664,143136.000,24596,1,T0,1,100,29.432
1575568097.780068,143255.000,24614,1,T0,1,100,29.438
1575568097.908400,143363.000,24632,1,T0,1,100,29.443
1575568098.034356,143469.000,24651,1,T0,1,100,29.416
1575568098.166253,143580.000,24669,1,T0,1,100,29.438
1575568098.301715,143694.000,24687,1,T0,1,100,29.448
1575568098.439554,143810.000,24704,1,T0,1,100,29.438
1575568098.566698,143917.000,24722,1,T0,1,100,29.464
1575568098.698595,144028.000,24756,1,T0,1,100,29.411
1575568098.835245,144143.000,24774,1,T0,1,100,29.427
1575568098.962389,144250.000,24793,1,T0,1,100,29.411
1575568099.087157,144355.000,24811,1,T0,1,100,29.443
1575568099.224995,144471.000,24829,1,T0,1,100,29.438
1575568099.356893,144582.000,24847,1,T0,1,100,29.491
1575568099.491166,144695.000,24865,1,T0,1,100,29.470
1575568099.631381,144813.000,24883,1,T0,1,100,29.454
1575568099.763278,144924.000,24900,1,T0,1,100,29.443
1575568099.888046,145029.000,24918,1,T0,1,100,29.459
1575568100.024696,145144.000,24953,1,T0,1,100,29.464
1575568100.160158,145258.000,24971,1,T0,1,100,29.464
1575568100.295620,145372.000,24989,1,T0,1,100,29.432
1575568100.422764,145479.000,25007,1,T0,1,100,29.481
1575568100.552285,145588.000,25025,1,T0,1,100,29.497
1575568100.684182,145699.000,25043,1,T0,1,100,29.486
1575568100.822021,145815.000,25061,1,T0,1,100,29.454
1575568100.959859,145931.000,25079,1,T0,1,100,29.481
1575568101.084627,146036.000,25097,1,T0,1,100,29.497
1575568101.216524,146147.000,25131,1,T0,1,100,29.481
1575568101.355551,146264.000,25149,1,T0,1,100,29.502
1575568101.492201,146379.000,25167,1,T0,1,100,29.464
1575568101.622910,146489.000,25185,1,T0,1,100,29.507
1575568101.748866,146595.000,25203,1,T0,1,100,29.502
1575568101.880763,146706.000,25221,1,T0,1,100,29.513
1575568102.019789,146823.000,25240,1,T0,1,100,29.497
1575568102.158816,146940.000,25257,1,T0,1,100,29.481
1575568102.283584,147045.000,25275,1,T0,1,100,29.502
1575568102.414293,147155.000,25293,1,T0,1,100,29.491
1575568102.542625,147263.000,25327,1,T0,1,100,29.507
1575568102.669769,147370.000,25345,1,T0,1,100,29.481
1575568102.800478,147480.000,25363,1,T0,1,100,29.507
1575568102.939505,147597.000,25382,1,T0,1,100,29.481
1575568103.067837,147705.000,25403,1,T0,1,100,29.502
1575568103.205676,147821.000,25421,1,T0,1,100,29.464
1575568103.343514,147937.000,25440,1,T0,1,100,29.475
1575568103.474223,148047.000,25458,1,T0,1,100,29.513
1575568103.601367,148154.000,25476,1,T0,1,100,29.486
1575568103.735641,148267.000,25494,1,T0,1,100,29.502
1575568103.869915,148380.000,25512,1,T0,1,100,29.481
1575568104.011318,148499.000,25531,1,T0,1,100,29.486
1575568104.139650,148607.000,25548,1,T0,1,100,29.475
1575568104.263230,148711.000,25566,1,T0,1,100,29.470
1575568104.401068,148827.000,25584,1,T0,1,100,29.502
1575568104.540095,148944.000,25618,1,T0,1,100,29.523
1575568104.675557,149058.000,25636,1,T0,1,100,29.486
1575568104.800324,149163.000,25654,1,T0,1,100,29.459
1575568104.932222,149274.000,25673,1,T0,1,100,29.502
1575568105.068872,149389.000,25691,1,T0,1,100,29.502
1575568105.204334,149503.000,25709,1,T0,1,100,29.486
1575568105.337419,149615.000,25726,1,T0,1,100,29.459
1575568105.460999,149719.000,25744,1,T0,1,100,29.464
1575568105.597649,149834.000,25762,1,T0,1,100,29.491
1575568105.731923,149947.000,25796,1,T0,1,100,29.518
1575568105.869761,150063.000,25815,1,T0,1,100,29.497
1575568105.996905,150170.000,25833,1,T0,1,100,29.507
1575568106.129991,150282.000,25851,1,T0,1,100,29.545
1575568106.254758,150387.000,25869,1,T0,1,100,29.491
1575568106.390220,150501.000,25887,1,T0,1,100,29.497
1575568106.529247,150618.000,25905,1,T0,1,100,29.497
1575568106.662332,150730.000,25923,1,T0,1,100,29.475
1575568106.804924,150850.000,25957,1,T0,1,100,29.540
1575568106.942762,150966.000,25975,1,T0,1,100,29.486
1575568107.077036,151079.000,25993,1,T0,1,100,29.475
1575568107.211310,151192.000,26011,1,T0,1,100,29.464
1575568107.339642,151300.000,26029,1,T0,1,100,29.507
1575568107.469163,151409.000,26047,1,T0,1,100,29.513
1575568107.608190,151526.000,26065,1,T0,1,100,29.491
1575568107.748405,151644.000,26082,1,T0,1,100,29.502
1575568107.873172,151749.000,26100,1,T0,1,100,29.491
1575568108.001504,151857.000,26119,1,T0,1,100,29.481
1575568108.136966,151971.000,26153,1,T0,1,100,29.513
1575568108.270052,152083.000,26171,1,T0,1,100,29.507
1575568108.409079,152200.000,26189,1,T0,1,100,29.507
1575568108.536223,152307.000,26207,1,T0,1,100,29.540
1575568108.665743,152416.000,26225,1,T0,1,100,29.481
1575568108.800017,152529.000,26243,1,T0,1,100,29.491
1575568108.940232,152647.000,26262,1,T0,1,100,29.513
1575568109.072129,152758.000,26279,1,T0,1,100,29.502
1575568109.198085,152864.000,26300,1,T0,1,100,29.491
1575568109.331171,152976.000,26318,1,T0,1,100,29.540
1575568109.467821,153091.000,26338,1,T0,1,100,29.491
1575568109.605659,153207.000,26356,1,T0,1,100,29.507
1575568109.733992,153315.000,26373,1,T0,1,100,29.545
1575568109.857571,153419.000,26391,1,T0,1,100,29.513
1575568109.993033,153533.000,26426,1,T0,1,100,29.513
1575568110.123742,153643.000,26444,1,T0,1,100,29.556
1575568110.260392,153758.000,26462,1,T0,1,100,29.491
1575568110.402984,153878.000,26480,1,T0,1,100,29.523
1575568110.542010,153995.000,26498,1,T0,1,100,29.513
1575568110.678661,154110.000,26516,1,T0,1,100,29.475
1575568110.818876,154228.000,26533,1,T0,1,100,29.486
1575568110.953149,154341.000,26568,1,T0,1,100,29.529
1575568111.077917,154446.000,26586,1,T0,1,100,29.491
1575568111.213379,154560.000,26604,1,T0,1,100,29.475
1575568111.350029,154675.000,26622,1,T0,1,100,29.518
1575568111.485491,154789.000,26640,1,T0,1,100,29.464
1575568111.615012,154898.000,26658,1,T0,1,100,29.486
1575568111.744532,155007.000,26676,1,T0,1,100,29.523
1575568111.872865,155115.000,26694,1,T0,1,100,29.502
1575568112.010703,155231.000,26713,1,T0,1,100,29.518
1575568112.149730,155348.000,26730,1,T0,1,100,29.529
1575568112.274498,155453.000,26765,1,T0,1,100,29.497
1575568112.404018,155562.000,26782,1,T0,1,100,29.491
1575568112.543045,155679.000,26800,1,T0,1,100,29.513
1575568112.679695,155794.000,26818,1,T0,1,100,29.523
1575568112.812781,155906.000,26836,1,T0,1,100,29.545
1575568112.941113,156014.000,26855,1,T0,1,100,29.497
1575568113.071822,156124.000,26873,1,T0,1,100,29.497
1575568113.210849,156241.000,26891,1,T0,1,100,29.518
1575568113.348687,156357.000,26908,1,T0,1,100,29.523
1575568113.475831,156464.000,26942,1,T0,1,100,29.545
1575568113.605352,156573.000,26960,1,T0,1,100,29.529
1575568113.738437,156685.000,26978,1,T0,1,100,29.550
1575568113.873899,156799.000,26997,1,T0,1,100,29.545
1575568114.016491,156919.000,27015,1,T0,1,100,29.534
1575568114.155518,157036.000,27033,1,T0,1,100,29.497
1575568114.290979,157150.000,27051,1,T0,1,100,29.545
1575568114.432383,157269.000,27068,1,T0,1,100,29.507
1575568114.570221,157385.000,27102,1,T0,1,100,29.534
1575568114.703307,157497.000,27120,1,T0,1,100,29.529
1575568114.831639,157605.000,27138,1,T0,1,100,29.502
1575568114.964725,157717.000,27157,1,T0,1,100,29.572
1575568115.098998,157830.000,27175,1,T0,1,100,29.486
1575568115.240402,157949.000,27196,1,T0,1,100,29.566
1575568115.371110,158059.000,27216,1,T0,1,100,29.513
1575568115.510137,158176.000,27234,1,T0,1,100,29.497
1575568115.637281,158283.000,27252,1,T0,1,100,29.523
1575568115.767990,158393.000,27270,1,T0,1,100,29.518
1575568115.902264,158506.000,27288,1,T0,1,100,29.518
1575568116.040102,158622.000,27307,1,T0,1,100,29.513
1575568116.171999,158733.000,27324,1,T0,1,100,29.540
1575568116.295579,158837.000,27342,1,T0,1,100,29.497
1575568116.429852,158950.000,27376,1,T0,1,100,29.534
1575568116.567691,159066.000,27394,1,T0,1,100,29.491
1575568116.706718,159183.000,27412,1,T0,1,100,29.491
1575568116.833862,159290.000,27430,1,T0,1,100,29.481
1575568116.964571,159400.000,27449,1,T0,1,100,29.497
1575568117.098845,159513.000,27467,1,T0,1,100,29.513
1575568117.237871,159630.000,27485,1,T0,1,100,29.497
1575568117.369768,159741.000,27502,1,T0,1,100,29.529
1575568117.494536,159846.000,27520,1,T0,1,100,29.534
1575568117.627621,159958.000,27554,1,T0,1,100,29.518
1575568117.761895,160071.000,27572,1,T0,1,100,29.486
1575568117.897357,160185.000,27591,1,T0,1,100,29.550
1575568118.039949,160305.000,27609,1,T0,1,100,29.513
1575568118.180164,160423.000,27627,1,T0,1,100,29.545
1575568118.318002,160539.000,27645,1,T0,1,100,29.540
1575568118.452276,160652.000,27662,1,T0,1,100,29.502
1575568118.580608,160760.000,27680,1,T0,1,100,29.545
1575568118.707752,160867.000,27714,1,T0,1,100,29.556
1575568118.846779,160984.000,27732,1,T0,1,100,29.529
1575568118.984617,161100.000,27751,1,T0,1,100,29.507
1575568119.111762,161207.000,27769,1,T0,1,100,29.550
1575568119.248412,161322.000,27787,1,T0,1,100,29.540
1575568119.375556,161429.000,27805,1,T0,1,100,29.523
1575568119.502700,161536.000,27823,1,T0,1,100,29.523
1575568119.639350,161651.000,27841,1,T0,1,100,29.556
1575568119.777189,161767.000,27858,1,T0,1,100,29.529
1575568119.907898,161877.000,27893,1,T0,1,100,29.518
1575568120.037418,161986.000,27911,1,T0,1,100,29.566
1575568120.168127,162096.000,27929,1,T0,1,100,29.518
1575568120.307154,162213.000,27947,1,T0,1,100,29.545
1575568120.443804,162328.000,27965,1,T0,1,100,29.545
1575568120.573325,162437.000,27983,1,T0,1,100,29.507
1575568120.700469,162544.000,28001,1,T0,1,100,29.556
1575568120.835931,162658.000,28019,1,T0,1,100,29.529
1575568120.974958,162775.000,28037,1,T0,1,100,29.545
1575568121.110420,162889.000,28071,1,T0,1,100,29.556
1575568121.237564,162996.000,28090,2,T0,1,100,29.556
1575568121.364708,163103.000,28090,2,T0,1,100,29.540
1575568121.498982,163216.000,28112,1,T0,1,100,29.534
1575568121.636820,163332.000,28129,1,T0,1,100,29.545
1575568121.771094,163445.000,28164,1,T0,1,100,29.561
1575568121.908932,163561.000,28182,1,T0,1,100,29.534
1575568122.044394,163675.000,28200,1,T0,1,100,29.518
1575568122.175103,163785.000,28218,1,T0,1,100,29.518
1575568122.302247,163892.000,28236,1,T0,1,100,29.545
1575568122.437709,164006.000,28254,1,T0,1,100,29.566
1575568122.574359,164121.000,28272,1,T0,1,100,29.572
1575568122.708633,164234.000,28290,1,T0,1,100,29.529
1575568122.847660,164351.000,28307,1,T0,1,100,29.540
1575568122.986687,164468.000,28342,1,T0,1,100,29.545
1575568123.111454,164573.000,28360,1,T0,1,100,29.518
1575568123.244540,164685.000,28378,1,T0,1,100,29.523
1575568123.380002,164799.000,28396,1,T0,1,100,29.523
1575568123.514275,164912.000,28414,1,T0,1,100,29.529
1575568123.649737,165026.000,28432,1,T0,1,100,29.540
1575568123.775693,165132.000,28450,1,T0,1,100,29.566
1575568123.904026,165240.000,28468,1,T0,1,100,29.540
1575568124.041864,165356.000,28486,1,T0,1,100,29.556
1575568124.183267,165475.000,28520,1,T0,1,100,29.577
1575568124.311600,165583.000,28538,1,T0,1,100,29.561
1575568124.438744,165690.000,28556,1,T0,1,100,29.545
1575568124.576582,165806.000,28574,1,T0,1,100,29.513
1575568124.713233,165921.000,28592,1,T0,1,100,29.529
1575568124.849883,166036.000,28610,1,T0,1,100,29.540
1575568124.975839,166142.000,28629,1,T0,1,100,29.561
1575568125.100606,166247.000,28647,1,T0,1,100,29.540
1575568125.239633,166364.000,28664,1,T0,1,100,29.545
1575568125.375095,166478.000,28698,1,T0,1,100,29.556
1575568125.508180,166590.000,28716,1,T0,1,100,29.507
1575568125.643642,166704.000,28734,1,T0,1,100,29.518
1575568125.771975,166812.000,28752,1,T0,1,100,29.566
1575568125.905060,166924.000,28770,1,T0,1,100,29.534
1575568126.031016,167030.000,28789,1,T0,1,100,29.550
1575568126.162913,167141.000,28807,1,T0,1,100,29.550
1575568126.297187,167254.000,28825,1,T0,1,100,29.540
1575568126.439778,167374.000,28842,1,T0,1,100,29.550
1575568126.577617,167490.000,28876,1,T0,1,100,29.550
1575568126.715455,167606.000,28894,1,T0,1,100,29.593
1575568126.842599,167713.000,28912,1,T0,1,100,29.582
1575568126.973308,167823.000,28931,1,T0,1,100,29.518
1575568127.105206,167934.000,28949,1,T0,1,100,29.523
1575568127.241856,168049.000,28967,1,T0,1,100,29.556
1575568127.376129,168162.000,28988,1,T0,1,100,29.540
1575568127.499709,168266.000,29008,1,T0,1,100,29.572
1575568127.633982,168379.000,29026,1,T0,1,100,29.572
1575568127.770633,168494.000,29044,1,T0,1,100,29.593
1575568127.907283,168609.000,29062,1,T0,1,100,29.540
1575568128.036803,168718.000,29081,1,T0,1,100,29.577
1575568128.166324,168827.000,29099,1,T0,1,100,29.518
1575568128.299410,168939.000,29117,1,T0,1,100,29.545
1575568128.434872,169053.000,29134,1,T0,1,100,29.534
1575568128.576275,169172.000,29168,1,T0,1,100,29.540
1575568128.699854,169276.000,29186,1,T0,1,100,29.523
1575568128.830563,169386.000,29204,1,T0,1,100,29.572
1575568128.963649,169498.000,29223,1,T0,1,100,29.550
1575568129.100299,169613.000,29241,1,T0,1,100,29.566
1575568129.234572,169726.000,29259,1,T0,1,100,29.566
1575568129.362905,169834.000,29277,1,T0,1,100,29.556
1575568129.490049,169941.000,29295,1,T0,1,100,29.550
1575568129.620758,170051.000,29313,1,T0,1,100,29.540
1575568129.759785,170168.000,29330,1,T0,1,100,29.534
1575568129.890494,170278.000,29365,1,T0,1,100,29.550
1575568130.028332,170394.000,29383,1,T0,1,100,29.588
1575568130.163794,170508.000,29401,1,T0,1,100,29.534
1575568130.296880,170620.000,29419,1,T0,1,100,29.598
1575568130.438283,170739.000,29437,1,T0,1,100,29.534
1575568130.564239,170845.000,29455,1,T0,1,100,29.566
1575568130.690194,170951.000,29473,1,T0,1,100,29.513
1575568130.829221,171068.000,29490,1,T0,1,100,29.540
1575568130.967060,171184.000,29525,1,T0,1,100,29.588
1575568131.098957,171295.000,29543,1,T0,1,100,29.550
1575568131.226101,171402.000,29561,1,T0,1,100,29.577
1575568131.359186,171514.000,29579,1,T0,1,100,29.561
1575568131.492272,171626.000,29597,1,T0,1,100,29.545
1575568131.631299,171743.000,29615,1,T0,1,100,29.572
1575568131.763196,171854.000,29633,1,T0,1,100,29.572
1575568131.887963,171959.000,29651,1,T0,1,100,29.556
1575568132.023425,172073.000,29670,1,T0,1,100,29.540
1575568132.162452,172190.000,29703,1,T0,1,100,29.561
1575568132.299102,172305.000,29721,1,T0,1,100,29.529
1575568132.423870,172410.000,29739,1,T0,1,100,29.545
1575568132.553391,172519.000,29757,1,T0,1,100,29.572
1575568132.688853,172633.000,29775,1,T0,1,100,29.572
1575568132.826691,172749.000,29793,1,T0,1,100,29.598
1575568132.962153,172863.000,29812,1,T0,1,100,29.582
1575568133.085732,172967.000,29830,1,T0,1,100,29.534
1575568133.218818,173079.000,29848,1,T0,1,100,29.577
1575568133.345962,173186.000,29865,1,T0,1,100,29.588
1575568133.480236,173299.000,29886,1,T0,1,100,29.604
1575568133.622827,173419.000,29906,1,T0,1,100,29.593
1575568133.761854,173536.000,29924,1,T0,1,100,29.572
1575568133.896127,173649.000,29941,1,T0,1,100,29.572
1575568134.035154,173766.000,29976,1,T0,1,100,29.572
1575568134.175369,173884.000,29994,1,T0,1,100,29.588
1575568134.300137,173989.000,30012,1,T0,1,100,29.588
1575568134.430846,174099.000,30030,1,T0,1,100,29.572
1575568134.566308,174213.000,30048,1,T0,1,100,29.593
1575568134.700581,174326.000,30066,1,T0,1,100,29.556
1575568134.838420,174442.000,30084,1,T0,1,100,29.588
1575568134.965564,174549.000,30103,1,T0,1,100,29.593
1575568135.091520,174655.000,30120,1,T0,1,100,29.577
1575568135.229358,174771.000,30138,1,T0,1,100,29.566
1575568135.368385,174888.000,30172,1,T0,1,100,29.593
1575568135.499094,174998.000,30190,1,T0,1,100,29.620
1575568135.623862,175103.000,30208,1,T0,1,100,29.593
1575568135.760512,175218.000,30226,1,T0,1,100,29.566
1575568135.898350,175334.000,30244,1,T0,1,100,29.588
1575568136.036189,175450.000,30263,1,T0,1,100,29.625
1575568136.164521,175558.000,30280,1,T0,1,100,29.588
1575568136.288100,175662.000,30298,1,T0,1,100,29.620
1575568136.427127,175779.000,30316,1,T0,1,100,29.582
1575568136.562589,175893.000,30350,1,T0,1,100,29.582
1575568136.698051,176007.000,30368,1,T0,1,100,29.609
1575568136.822819,176112.000,30386,1,T0,1,100,29.609
1575568136.958281,176226.000,30405,1,T0,1,100,29.620
1575568137.083048,176331.000,30423,1,T0,1,100,29.572
1575568137.222075,176448.000,30441,1,T0,1,100,29.641
1575568137.361102,176565.000,30459,1,T0,1,100,29.588
1575568137.497752,176680.000,30476,1,T0,1,100,29.593
1575568137.640343,176800.000,30510,1,T0,1,100,29.609
1575568137.776994,176915.000,30528,1,T0,1,100,29.620
1575568137.916020,177032.000,30547,1,T0,1,100,29.609
1575568138.044353,177140.000,30565,1,T0,1,100,29.604
1575568138.177438,177252.000,30583,1,T0,1,100,29.615
1575568138.304582,177359.000,30601,1,T0,1,100,29.582
1575568138.440044,177473.000,30619,1,T0,1,100,29.620
1575568138.575506,177587.000,30636,1,T0,1,100,29.593
1575568138.709780,177700.000,30654,1,T0,1,100,29.620
1575568138.841677,177811.000,30688,1,T0,1,100,29.588
1575568138.967633,177917.000,30707,1,T0,1,100,29.625
1575568139.098342,178027.000,30725,1,T0,1,100,29.620
1575568139.236181,178143.000,30743,1,T0,1,100,29.604
1575568139.376395,178261.000,30761,1,T0,1,100,29.582
1575568139.501163,178366.000,30782,1,T0,1,100,29.625
1575568139.628307,178473.000,30802,1,T0,1,100,29.636
1575568139.766146,178589.000,30820,1,T0,1,100,29.593
1575568139.902796,178704.000,30839,1,T0,1,100,29.615
1575568140.037070,178817.000,30857,1,T0,1,100,29.582
1575568140.164214,178924.000,30875,1,T0,1,100,29.604
1575568140.293734,179033.000,30893,1,T0,1,100,29.598
1575568140.432761,179150.000,30911,1,T0,1,100,29.641
1575568140.569411,179265.000,30928,1,T0,1,100,29.588
1575568140.697744,179373.000,30946,1,T0,1,100,29.620
1575568140.824888,179480.000,30980,1,T0,1,100,29.625
1575568140.956785,179591.000,30999,1,T0,1,100,29.631
1575568141.092247,179705.000,31017,1,T0,1,100,29.615
1575568141.236027,179826.000,31035,1,T0,1,100,29.609
1575568141.375053,179943.000,31053,1,T0,1,100,29.615
1575568141.511704,180058.000,31071,1,T0,1,100,29.604
1575568141.653107,180177.000,31088,1,T0,1,100,29.631
1575568141.782628,180286.000,31122,1,T0,1,100,29.657
1575568141.919278,180401.000,31141,1,T0,1,100,29.625
1575568142.046422,180508.000,31159,1,T0,1,100,29.625
1575568142.178319,180619.000,31177,1,T0,1,100,29.604
1575568142.312593,180732.000,31195,1,T0,1,100,29.636
1575568142.452808,180850.000,31213,1,T0,1,100,29.625
1575568142.583517,180960.000,31231,1,T0,1,100,29.620
1575568142.707096,181064.000,31249,1,T0,1,100,29.604
1575568142.843746,181179.000,31266,1,T0,1,100,29.631
1575568142.981585,181295.000,31301,1,T0,1,100,29.647
1575568143.117047,181409.000,31319,1,T0,1,100,29.609
1575568143.244191,181516.000,31337,1,T0,1,100,29.636
1575568143.374900,181626.000,31355,1,T0,1,100,29.615
1575568143.510362,181740.000,31373,1,T0,1,100,29.625
1575568143.645824,181854.000,31391,1,T0,1,100,29.657
1575568143.783662,181970.000,31409,1,T0,1,100,29.620
1575568143.908430,182075.000,31427,1,T0,1,100,29.647
1575568144.043892,182189.000,31446,1,T0,1,100,29.636
1575568144.179354,182303.000,31463,1,T0,1,100,29.609
1575568144.316004,182418.000,31497,1,T0,1,100,29.631
1575568144.446713,182528.000,31515,1,T0,1,100,29.663
1575568144.573857,182635.000,31533,1,T0,1,100,29.588
1575568144.705754,182746.000,31551,1,T0,1,100,29.625
1575568144.844781,182863.000,31569,1,T0,1,100,29.647
1575568144.983808,182980.000,31588,1,T0,1,100,29.620
1575568145.121646,183096.000,31606,1,T0,1,100,29.684
1575568145.264238,183216.000,31623,1,T0,1,100,29.625
1575568145.404453,183334.000,31657,1,T0,1,100,29.625
1575568145.541697,183449.500,31678,2,T0,1,100,29.647
1575568145.678941,183565.000,31678,2,T0,1,100,29.620
1575568145.806086,183672.000,31698,1,T0,1,100,29.652
1575568145.934418,183780.000,31733,1,T0,1,100,29.668
1575568146.072256,183896.000,31751,1,T0,1,100,29.652
1575568146.210095,184012.000,31769,1,T0,1,100,29.679
1575568146.339616,184121.000,31787,1,T0,1,100,29.657
1575568146.477454,184237.000,31805,1,T0,1,100,29.663
1575568146.603410,184343.000,31823,1,T0,1,100,29.647
1575568146.729366,184449.000,31841,1,T0,1,100,29.679
1575568146.867204,184565.000,31859,1,T0,1,100,29.647
1575568147.005043,184681.000,31877,1,T0,1,100,29.657
1575568147.136940,184792.000,31911,1,T0,1,100,29.620
1575568147.265272,184900.000,31929,1,T0,1,100,29.668
1575568147.397169,185011.000,31947,1,T0,1,100,29.652
1575568147.536196,185128.000,31965,1,T0,1,100,29.641
1575568147.672846,185243.000,31983,1,T0,1,100,29.657
1575568147.803555,185353.000,32001,1,T0,1,100,29.674
1575568147.928323,185458.000,32019,1,T0,1,100,29.625
1575568148.063785,185572.000,32038,1,T0,1,100,29.631
1575568148.201623,185688.000,32055,1,T0,1,100,29.657
1575568148.339462,185804.000,32089,1,T0,1,100,29.631
1575568148.463041,185908.000,32107,1,T0,1,100,29.700
1575568148.592562,186017.000,32125,1,T0,1,100,29.700
1575568148.728024,186131.000,32143,1,T0,1,100,29.674
1575568148.865862,186247.000,32161,1,T0,1,100,29.684
1575568149.000136,186360.000,32180,1,T0,1,100,29.679
1575568149.137975,186476.000,32198,1,T0,1,100,29.663
1575568149.275813,186592.000,32215,1,T0,1,100,29.679
1575568149.411275,186706.000,32249,1,T0,1,100,29.668
1575568149.536042,186811.000,32267,1,T0,1,100,29.647
1575568149.669128,186923.000,32285,1,T0,1,100,29.679
1575568149.805778,187038.000,32303,1,T0,1,100,29.636
1575568149.940052,187151.000,32321,1,T0,1,100,29.663
1575568150.081455,187270.000,32340,1,T0,1,100,29.668
1575568150.220482,187387.000,32358,1,T0,1,100,29.631
1575568150.345249,187492.000,32376,1,T0,1,100,29.647
1575568150.475958,187602.000,32393,1,T0,1,100,29.668
1575568150.610232,187715.000,32411,1,T0,1,100,29.636
1575568150.744506,187828.000,32445,1,T0,1,100,29.647
1575568150.882344,187944.000,32463,1,T0,1,100,29.657
1575568151.009488,188051.000,32482,1,T0,1,100,29.684
1575568151.137821,188159.000,32500,1,T0,1,100,29.668
1575568151.273283,188273.000,32518,1,T0,1,100,29.716
1575568151.414686,188392.000,32536,1,T0,1,100,29.711
1575568151.544207,188501.000,32554,1,T0,1,100,29.700
1575568151.668974,188606.000,32574,1,T0,1,100,29.679
1575568151.805624,188721.000,32594,1,T0,1,100,29.679
1575568151.942275,188836.000,32612,1,T0,1,100,29.668
1575568152.080113,188952.000,32631,1,T0,1,100,29.679
1575568152.207257,189059.000,32649,1,T0,1,100,29.679
1575568152.332025,189164.000,32667,1,T0,1,100,29.674
1575568152.471051,189281.000,32684,1,T0,1,100,29.690
1575568152.606514,189395.000,32718,1,T0,1,100,29.652
1575568152.739599,189507.000,32736,1,T0,1,100,29.695
1575568152.875061,189621.000,32754,1,T0,1,100,29.674
1575568153.004581,189730.000,32773,1,T0,1,100,29.727
1575568153.138855,189843.000,32791,1,T0,1,100,29.695
1575568153.265999,189950.000,32809,1,T0,1,100,29.674
1575568153.401461,190064.000,32827,1,T0,1,100,29.700
1575568153.528605,190171.000,32845,1,T0,1,100,29.684
1575568153.665256,190286.000,32862,1,T0,1,100,29.674
1575568153.803094,190402.000,32896,1,T0,1,100,29.690
1575568153.942121,190519.000,32915,1,T0,1,100,29.716
1575568154.069265,190626.000,32933,1,T0,1,100,29.690
1575568154.197598,190734.000,32951,1,T0,1,100,29.722
1575568154.330683,190846.000,32969,1,T0,1,100,29.716
1575568154.468521,190962.000,32987,1,T0,1,100,29.743
1575568154.605171,191077.000,33005,1,T0,1,100,29.722
1575568154.727563,191180.000,33023,1,T0,1,100,29.706
1575568154.861836,191293.000,33040,1,T0,1,100,29.727
1575568155.000863,191410.000,33075,1,T0,1,100,29.700
1575568155.137513,191525.000,33093,1,T0,1,100,29.706
1575568155.268222,191635.000,33111,1,T0,1,100,29.711
1575568155.396554,191743.000,33129,1,T0,1,100,29.700
1575568155.529640,191855.000,33147,1,T0,1,100,29.695
1575568155.668667,191972.000,33165,1,T0,1,100,29.722
1575568155.807693,192089.000,33183,1,T0,1,100,29.706
1575568155.932461,192194.000,33201,1,T0,1,100,29.700
1575568156.061982,192303.000,33219,1,T0,1,100,29.722
1575568156.195067,192415.000,33237,1,T0,1,100,29.663
1575568156.331717,192530.000,33271,1,T0,1,100,29.674
1575568156.468368,192645.000,33289,1,T0,1,100,29.716
1575568156.596700,192753.000,33307,1,T0,1,100,29.700
1575568156.726221,192862.000,33325,1,T0,1,100,29.711
1575568156.860494,192975.000,33343,1,T0,1,100,29.738
1575568156.987638,193082.000,33362,1,T0,1,100,29.743
1575568157.117159,193191.000,33380,1,T0,1,100,29.727
1575568157.245492,193299.000,33398,1,T0,1,100,29.716
1575568157.379765,193412.000,33416,1,T0,1,100,29.711
1575568157.514039,193525.000,33433,1,T0,1,100,29.754
1575568157.648907,193638.500,33470,2,T0,1,100,29.690
1575568157.783775,193752.000,33470,2,T0,1,100,29.727
1575568157.908542,193857.000,33490,1,T0,1,100,29.674
1575568158.045192,193972.000,33509,1,T0,1,100,29.754
1575568158.177089,194083.000,33526,1,T0,1,100,29.716
1575568158.311363,194196.000,33560,1,T0,1,100,29.722
1575568158.450390,194313.000,33578,1,T0,1,100,29.738
1575568158.579911,194422.000,33596,1,T0,1,100,29.765
1575568158.703490,194526.000,33614,1,T0,1,100,29.775
1575568158.838952,194640.000,33632,1,T0,1,100,29.716
1575568158.977979,194757.000,33651,1,T0,1,100,29.749
1575568159.115817,194873.000,33669,1,T0,1,100,29.749
1575568159.240585,194978.000,33687,1,T0,1,100,29.722
1575568159.372482,195089.000,33704,1,T0,1,100,29.722
1575568159.507944,195203.000,33722,1,T0,1,100,29.738
1575568159.643406,195317.000,33756,1,T0,1,100,29.754
1575568159.776491,195429.000,33774,1,T0,1,100,29.765
1575568159.901259,195534.000,33793,1,T0,1,100,29.749
1575568160.036721,195648.000,33811,1,T0,1,100,29.722
1575568160.170995,195761.000,33829,1,T0,1,100,29.743
1575568160.307645,195876.000,33847,1,T0,1,100,29.716
1575568160.438354,195986.000,33865,1,T0,1,100,29.700
1575568160.567874,196095.000,33882,1,T0,1,100,29.700
1575568160.692642,196200.000,33900,1,T0,1,100,29.759
1575568160.822163,196309.000,33918,1,T0,1,100,29.727
1575568160.950495,196417.000,33954,1,T0,1,100,29.765
1575568161.080016,196526.000,33971,1,T0,1,100,29.716
1575568161.219042,196643.000,33989,1,T0,1,100,29.754
1575568161.359257,196761.000,34007,1,T0,1,100,29.759
1575568161.495908,196876.000,34025,1,T0,1,100,29.722
1575568161.633746,196992.000,34043,1,T0,1,100,29.743
1575568161.760890,197099.000,34061,1,T0,1,100,29.722
1575568161.888034,197206.000,34078,1,T0,1,100,29.733
1575568162.027061,197323.000,34097,1,T0,1,100,29.749
1575568162.164900,197439.000,34131,1,T0,1,100,29.749
1575568162.293232,197547.000,34149,1,T0,1,100,29.727
1575568162.422753,197656.000,34167,1,T0,1,100,29.765
1575568162.557026,197769.000,34185,1,T0,1,100,29.775
1575568162.692488,197883.000,34203,1,T0,1,100,29.754
1575568162.830327,197999.000,34221,1,T0,1,100,29.743
1575568162.958659,198107.000,34240,1,T0,1,100,29.749
1575568163.086992,198215.000,34258,1,T0,1,100,29.765
1575568163.222453,198329.000,34275,1,T0,1,100,29.716
1575568163.362669,198447.000,34309,1,T0,1,100,29.770
1575568163.496942,198560.000,34327,1,T0,1,100,29.770
1575568163.621710,198665.000,34345,1,T0,1,100,29.759
1575568163.755389,198777.500,34366,2,T0,1,100,29.743
1575568163.889069,198890.000,34366,2,T0,1,100,29.743
1575568164.026907,199006.000,34403,1,T0,1,100,29.754
1575568164.158804,199117.000,34421,1,T0,1,100,29.754
1575568164.283572,199222.000,34439,1,T0,1,100,29.770
1575568164.420222,199337.000,34457,1,T0,1,100,29.749
1575568164.554496,199450.000,34475,1,T0,1,100,29.738
1575568164.679264,199555.000,34493,1,T0,1,100,29.743
1575568164.814726,199669.000,34511,1,T0,1,100,29.754
1575568164.946623,199780.000,34530,1,T0,1,100,29.770
1575568165.078520,199891.000,34548,1,T0,1,100,29.733
1575568165.217547,200008.000,34565,1,T0,1,100,29.770
1575568165.354197,200123.000,34599,1,T0,1,100,29.743
1575568165.478965,200228.000,34617,1,T0,1,100,29.749
1575568165.613238,200341.000,34635,1,T0,1,100,29.754
1575568165.749888,200456.000,34653,1,T0,1,100,29.765
1575568165.884162,200569.000,34671,1,T0,1,100,29.759
1575568166.017247,200681.000,34690,1,T0,1,100,29.792
1575568166.144392,200788.000,34708,1,T0,1,100,29.765
1575568166.272724,200896.000,34726,1,T0,1,100,29.759
1575568166.410563,201012.000,34743,1,T0,1,100,29.754
1575568166.553154,201132.000,34777,1,T0,1,100,29.786
1575568166.679110,201238.000,34795,1,T0,1,100,29.765
1575568166.806254,201345.000,34813,1,T0,1,100,29.797
1575568166.944093,201461.000,34832,1,T0,1,100,29.765
1575568167.080743,201576.000,34850,1,T0,1,100,29.770
1575568167.216205,201690.000,34868,1,T0,1,100,29.722
1575568167.343349,201797.000,34886,1,T0,1,100,29.738
1575568167.470493,201904.000,34904,1,T0,1,100,29.754
1575568167.608331,202020.000,34921,1,T0,1,100,29.754
1575568167.743793,202134.000,34955,1,T0,1,100,29.786
1575568167.874502,202244.000,34974,1,T0,1,100,29.754
1575568168.002835,202352.000,34992,1,T0,1,100,29.797
1575568168.140673,202468.000,35010,1,T0,1,100,29.770
1575568168.267817,202575.000,35028,1,T0,1,100,29.786
1575568168.404468,202690.000,35046,1,T0,1,100,29.824
1575568168.542306,202806.000,35064,1,T0,1,100,29.786
1575568168.668262,202912.000,35082,1,T0,1,100,29.818
1575568168.807289,203029.000,35099,1,T0,1,100,29.781
1575568168.945127,203145.000,35134,1,T0,1,100,29.829
1575568169.081777,203260.000,35152,1,T0,1,100,29.759
1575568169.208921,203367.000,35170,1,T0,1,100,29.781
1575568169.344383,203481.000,35188,1,T0,1,100,29.781
1575568169.471528,203588.000,35206,1,T0,1,100,29.797
1575568169.608178,203703.000,35224,1,T0,1,100,29.792
1575568169.746016,203819.000,35242,1,T0,1,100,29.786
1575568169.883855,203935.000,35263,1,T0,1,100,29.792
1575568170.010999,204042.000,35284,1,T0,1,100,29.759
1575568170.139331,204150.000,35302,1,T0,1,100,29.781
1575568170.272417,204262.000,35320,1,T0,1,100,29.813
1575568170.410255,204378.000,35338,1,T0,1,100,29.775
1575568170.546905,204493.000,35356,1,T0,1,100,29.813
1575568170.671673,204598.000,35373,1,T0,1,100,29.765
1575568170.802382,204708.000,35391,1,T0,1,100,29.749
1575568170.941409,204825.000,35426,1,T0,1,100,29.813
1575568171.078059,204940.000,35444,1,T0,1,100,29.813
1575568171.208768,205050.000,35462,1,T0,1,100,29.781
1575568171.337100,205158.000,35480,1,T0,1,100,29.851
1575568171.468997,205269.000,35498,1,T0,1,100,29.770
1575568171.608024,205386.000,35516,1,T0,1,100,29.786
1575568171.747051,205503.000,35534,1,T0,1,100,29.749
1575568171.870630,205607.000,35551,1,T0,1,100,29.792
1575568172.000151,205716.000,35570,1,T0,1,100,29.792
1575568172.139178,205833.000,35604,1,T0,1,100,29.813
1575568172.271075,205944.000,35622,1,T0,1,100,29.797
1575568172.411290,206062.000,35640,1,T0,1,100,29.786
1575568172.549128,206178.000,35658,1,T0,1,100,29.786
1575568172.683402,206291.000,35676,1,T0,1,100,29.845
1575568172.825993,206411.000,35694,1,T0,1,100,29.797
1575568172.963832,206527.000,35712,1,T0,1,100,29.792
1575568173.093353,206636.000,35746,1,T0,1,100,29.797
1575568173.221685,206744.000,35764,1,T0,1,100,29.797
1575568173.355958,206857.000,35782,1,T0,1,100,29.754
1575568173.489044,206969.000,35800,1,T0,1,100,29.770
1575568173.630447,207088.000,35818,1,T0,1,100,29.818
1575568173.757591,207195.000,35836,1,T0,1,100,29.813
1575568173.883547,207301.000,35854,1,T0,1,100,29.818
1575568174.021386,207417.000,35873,1,T0,1,100,29.797
1575568174.160413,207534.000,35890,1,T0,1,100,29.797
1575568174.295874,207648.000,35924,1,T0,1,100,29.797
1575568174.420642,207753.000,35942,1,T0,1,100,29.818
1575568174.553727,207865.000,35960,1,T0,1,100,29.802
1575568174.691566,207981.000,35978,1,T0,1,100,29.840
1575568174.828216,208096.000,35996,1,T0,1,100,29.840
1575568174.961302,208208.000,36015,1,T0,1,100,29.781
1575568175.084881,208312.000,36033,1,T0,1,100,29.770
1575568175.222719,208428.000,36051,1,T0,1,100,29.818
1575568175.356993,208541.000,36068,1,T0,1,100,29.851
1575568175.494832,208657.000,36102,1,T0,1,100,29.824
1575568175.620787,208763.000,36120,1,T0,1,100,29.845
1575568175.750308,208872.000,36138,1,T0,1,100,29.802
1575568175.887552,208987.500,36160,2,T0,1,100,29.813
1575568176.024797,209103.000,36160,2,T0,1,100,29.824
1575568176.163824,209220.000,36196,1,T0,1,100,29.829
1575568176.298097,209333.000,36214,1,T0,1,100,29.834
1575568176.440689,209453.000,36232,1,T0,1,100,29.845
1575568176.578527,209569.000,36250,1,T0,1,100,29.824
1575568176.713989,209683.000,36268,1,T0,1,100,29.781
1575568176.847075,209795.000,36286,1,T0,1,100,29.851
1575568176.975407,209903.000,36304,1,T0,1,100,29.856
1575568177.104928,210012.000,36322,1,T0,1,100,29.786
1575568177.243954,210129.000,36356,1,T0,1,100,29.834
1575568177.385358,210248.000,36374,1,T0,1,100,29.840
1575568177.523196,210364.000,36392,1,T0,1,100,29.818
1575568177.659847,210479.000,36410,1,T0,1,100,29.813
1575568177.785802,210585.000,36428,1,T0,1,100,29.818
1575568177.914135,210693.000,36446,1,T0,1,100,29.813
1575568178.051973,210809.000,36465,1,T0,1,100,29.840
1575568178.191000,210926.000,36482,1,T0,1,100,29.786
1575568178.319332,211034.000,36516,1,T0,1,100,29.808
1575568178.448853,211143.000,36534,1,T0,1,100,29.845
1575568178.585503,211258.000,36552,1,T0,1,100,29.840
1575568178.722153,211373.000,36570,1,T0,1,100,29.851
1575568178.859992,211489.000,36588,1,T0,1,100,29.834
1575568178.987136,211596.000,36607,1,T0,1,100,29.813
1575568179.115468,211704.000,36625,1,T0,1,100,29.861
1575568179.255683,211822.000,36643,1,T0,1,100,29.834
1575568179.391145,211936.000,36660,1,T0,1,100,29.824
1575568179.525419,212049.000,36694,1,T0,1,100,29.824
1575568179.650187,212154.000,36712,1,T0,1,100,29.834
1575568179.780895,212264.000,36730,1,T0,1,100,29.867
1575568179.917546,212379.000,36749,1,T0,1,100,29.851
1575568180.060137,212499.000,36767,1,T0,1,100,29.867
1575568180.197976,212615.000,36785,1,T0,1,100,29.851
1575568180.335814,212731.000,36803,2,T0,1,100,29.856
1575568180.473653,212847.000,36803,2,T0,1,100,29.872
1575568180.606738,212959.000,36821,1,T0,1,100,29.872
1575568180.731506,213064.000,36839,1,T0,1,100,29.861
1575568180.869344,213180.000,36857,1,T0,1,100,29.840
1575568181.000053,213290.000,36875,1,T0,1,100,29.888
1575568181.131950,213401.000,36909,1,T0,1,100,29.877
1575568181.270977,213518.000,36927,1,T0,1,100,29.872
1575568181.406439,213632.000,36945,1,T0,1,100,29.861
1575568181.530018,213736.000,36963,1,T0,1,100,29.899
1575568181.663104,213848.000,36981,1,T0,1,100,29.872
1575568181.798566,213962.000,36999,1,T0,1,100,29.888
1575568181.932839,214075.000,37017,1,T0,1,100,29.813
1575568182.065925,214187.000,37038,1,T0,1,100,29.888
1575568182.195446,214296.000,37058,1,T0,1,100,29.856
1575568182.328531,214408.000,37076,1,T0,1,100,29.851
1575568182.463993,214522.000,37094,1,T0,1,100,29.883
1575568182.606585,214642.000,37111,1,T0,1,100,29.861
1575568182.731352,214747.000,37129,1,T0,1,100,29.910
1575568182.858496,214854.000,37147,1,T0,1,100,29.834
1575568182.996335,214970.000,37182,1,T0,1,100,29.888
1575568183.132985,215085.000,37200,1,T0,1,100,29.856
1575568183.268447,215199.000,37218,1,T0,1,100,29.861
1575568183.394403,215305.000,37236,1,T0,1,100,29.845
1575568183.522735,215413.000,37254,1,T0,1,100,29.883
1575568183.661762,215530.000,37272,1,T0,1,100,29.888
1575568183.800789,215647.000,37290,1,T0,1,100,29.883
1575568183.936250,215761.000,37307,1,T0,1,100,29.926
1575568184.078842,215881.000,37342,1,T0,1,100,29.888
1575568184.217869,215998.000,37360,1,T0,1,100,29.904
1575568184.353331,216112.000,37378,1,T0,1,100,29.899
1575568184.494734,216231.000,37396,1,T0,1,100,29.931
1575568184.621878,216338.000,37414,1,T0,1,100,29.872
1575568184.747834,216444.000,37432,1,T0,1,100,29.904
1575568184.885673,216560.000,37449,1,T0,1,100,29.867
1575568185.023511,216676.000,37484,1,T0,1,100,29.910
1575568185.158973,216790.000,37502,1,T0,1,100,29.942
1575568185.286117,216897.000,37520,1,T0,1,100,29.915
1575568185.418014,217008.000,37538,1,T0,1,100,29.888
1575568185.551100,217120.000,37556,1,T0,1,100,29.963
1575568185.688938,217236.000,37574,1,T0,1,100,29.910
1575568185.822024,217348.000,37592,1,T0,1,100,29.861
1575568185.946791,217453.000,37610,1,T0,1,100,29.904
1575568186.081065,217566.000,37628,1,T0,1,100,29.899
1575568186.220092,217683.000,37662,1,T0,1,100,29.926
1575568186.356742,217798.000,37680,1,T0,1,100,29.947
1575568186.482698,217904.000,37698,1,T0,1,100,29.926
1575568186.613407,218014.000,37716,1,T0,1,100,29.920
1575568186.747680,218127.000,37734,1,T0,1,100,29.926
1575568186.885519,218243.000,37752,1,T0,1,100,29.947
1575568187.022169,218358.000,37771,1,T0,1,100,29.888
1575568187.145748,218462.000,37789,1,T0,1,100,29.963
1575568187.278834,218574.000,37807,1,T0,1,100,29.893
1575568187.413107,218687.000,37824,1,T0,1,100,29.931
1575568187.549758,218802.000,37858,1,T0,1,100,29.926
1575568187.691161,218921.000,37876,1,T0,1,100,29.926
1575568187.831376,219039.000,37894,1,T0,1,100,29.910
1575568187.968026,219154.000,37912,1,T0,1,100,29.926
1575568188.110618,219274.000,37934,1,T0,1,100,29.936
1575568188.249645,219391.000,37954,1,T0,1,100,29.915
1575568188.375600,219497.000,37972,1,T0,1,100,29.926
1575568188.505121,219606.000,37990,1,T0,1,100,29.969
1575568188.641771,219721.000,38008,1,T0,1,100,29.926
1575568188.771292,219830.000,38026,1,T0,1,100,29.936
1575568188.910319,219947.000,38044,1,T0,1,100,29.952
1575568189.048157,220063.000,38061,1,T0,1,100,29.952
1575568189.177678,220172.000,38096,1,T0,1,100,29.958
1575568189.307199,220281.000,38114,1,T0,1,100,29.899
1575568189.440284,220393.000,38132,1,T0,1,100,29.985
1575568189.573369,220505.000,38150,1,T0,1,100,29.904
1575568189.714772,220624.000,38168,1,T0,1,100,29.926
1575568189.841917,220731.000,38186,1,T0,1,100,29.947
1575568189.969061,220838.000,38204,1,T0,1,100,29.920
1575568190.104523,220952.000,38223,1,T0,1,100,29.952
1575568190.244738,221070.000,38240,1,T0,1,100,29.952
1575568190.379011,221183.000,38274,1,T0,1,100,29.969
1575568190.503779,221288.000,38292,1,T0,1,100,29.985
1575568190.638053,221401.000,38310,1,T0,1,100,29.952
1575568190.775891,221517.000,38328,1,T0,1,100,29.942
1575568190.913730,221633.000,38346,1,T0,1,100,29.974
1575568191.044439,221743.000,38365,1,T0,1,100,29.926
1575568191.166830,221846.000,38383,1,T0,1,100,29.952
1575568191.304668,221962.000,38401,1,T0,1,100,30.001
1575568191.438942,222075.000,38418,1,T0,1,100,29.958
1575568191.575592,222190.000,38452,1,T0,1,100,29.974
1575568191.711054,222304.000,38470,1,T0,1,100,29.974
1575568191.844140,222416.000,38488,1,T0,1,100,29.974
1575568191.981978,222532.000,38506,1,T0,1,100,29.969
1575568192.119817,222648.000,38525,1,T0,1,100,29.995
1575568192.252902,222760.000,38543,1,T0,1,100,29.979
1575568192.377670,222865.000,38561,1,T0,1,100,29.974
1575568192.511943,222978.000,38578,1,T0,1,100,29.979
1575568192.648593,223093.000,38596,1,T0,1,100,29.963
1575568192.784055,223207.000,38630,1,T0,1,100,29.958
1575568192.917141,223319.000,38648,1,T0,1,100,29.974
1575568193.045473,223427.000,38667,1,T0,1,100,29.963
1575568193.176182,223537.000,38685,1,T0,1,100,29.974
1575568193.314021,223653.000,38703,1,T0,1,100,29.995
1575568193.455424,223772.000,38721,1,T0,1,100,30.001
1575568193.577815,223875.000,38739,1,T0,1,100,29.963
1575568193.707335,223984.000,38756,1,T0,1,100,29.963
1575568193.845174,224100.000,38774,1,T0,1,100,29.995
1575568193.981824,224215.000,38809,1,T0,1,100,29.974
1575568194.113127,224325.500,38830,2,T0,1,100,29.979
1575568194.244430,224436.000,38830,2,T0,1,100,30.011
1575568194.375139,224546.000,38848,1,T0,1,100,29.995
1575568194.514166,224663.000,38865,1,T0,1,100,30.001
1575568194.652004,224779.000,38901,1,T0,1,100,30.006
1575568194.781525,224888.000,38919,1,T0,1,100,29.979
1575568194.907481,224994.000,38937,1,T0,1,100,29.947
1575568195.039378,225105.000,38956,1,T0,1,100,30.033
1575568195.176028,225220.000,38974,1,T0,1,100,29.985
1575568195.315055,225337.000,38992,1,T0,1,100,29.995
1575568195.443388,225445.000,39010,1,T0,1,100,30.017
1575568195.575285,225556.000,39028,1,T0,1,100,30.027
1575568195.710747,225670.000,39045,1,T0,1,100,29.990
1575568195.839079,225778.000,39079,1,T0,1,100,30.001
1575568195.972164,225890.000,39098,1,T0,1,100,30.001
1575568196.099308,225997.000,39116,1,T0,1,100,30.022
1575568196.231206,226108.000,39134,1,T0,1,100,30.027
1575568196.365479,226221.000,39152,1,T0,1,100,30.017
1575568196.505694,226339.000,39170,1,T0,1,100,30.028
1575568196.636403,226449.000,39188,1,T0,1,100,29.995
1575568196.776618,226567.000,39206,1,T0,1,100,30.006
1575568196.903763,226674.000,39223,1,T0,1,100,29.979
1575568197.034472,226784.000,39242,1,T0,1,100,29.995
1575568197.166368,226895.000,39276,1,T0,1,100,30.017
1575568197.303019,227010.000,39294,1,T0,1,100,29.985
1575568197.438481,227124.000,39312,1,T0,1,100,30.001
1575568197.562060,227228.000,39330,1,T0,1,100,29.990
1575568197.696334,227341.000,39348,1,T0,1,100,30.038
1575568197.835361,227458.000,39366,1,T0,1,100,30.028
1575568197.972011,227573.000,39384,1,T0,1,100,30.017
1575568198.101532,227682.000,39402,1,T0,1,100,30.033
1575568198.229864,227790.000,39420,1,T0,1,100,29.995
1575568198.362949,227902.000,39454,1,T0,1,100,30.011
1575568198.498411,228016.000,39472,1,T0,1,100,30.049
1575568198.641003,228136.000,39490,1,T0,1,100,30.028
1575568198.764582,228240.000,39508,1,T0,1,100,30.070
1575568198.895291,228350.000,39526,1,T0,1,100,30.070
1575568199.028376,228462.000,39545,1,T0,1,100,30.006
1575568199.165027,228577.000,39563,1,T0,1,100,30.011
1575568199.299300,228690.000,39580,1,T0,1,100,30.033
1575568199.427633,228798.000,39598,1,T0,1,100,30.038
1575568199.554777,228905.000,39616,1,T0,1,100,30.044
1575568199.687862,229017.000,39650,1,T0,1,100,30.065
1575568199.815006,229124.000,39668,1,T0,1,100,30.038
1575568199.943339,229232.000,39687,1,T0,1,100,30.038
1575568200.072859,229341.000,39705,1,T0,1,100,30.049
1575568200.206539,229453.500,39726,2,T0,1,100,30.070
1575568200.340219,229566.000,39726,2,T0,1,100,30.060
1575568200.481622,229685.000,39762,1,T0,1,100,30.038
1575568200.607578,229791.000,39780,1,T0,1,100,30.044
1575568200.733534,229897.000,39798,1,T0,1,100,30.049
1575568200.871372,230013.000,39816,1,T0,1,100,30.028
1575568201.010399,230130.000,39835,1,T0,1,100,30.065
1575568201.142296,230241.000,39853,1,T0,1,100,30.070
1575568201.269440,230348.000,39871,1,T0,1,100,30.076
1575568201.402525,230460.000,39889,1,T0,1,100,30.060
1575568201.539176,230575.000,39906,1,T0,1,100,30.027
1575568201.675826,230690.000,39940,1,T0,1,100,30.065
1575568201.807723,230801.000,39958,1,T0,1,100,30.065
1575568201.931302,230905.000,39977,1,T0,1,100,30.060
1575568202.065576,231018.000,39995,1,T0,1,100,30.076
1575568202.204603,231135.000,40013,1,T0,1,100,30.044
1575568202.341253,231250.000,40031,1,T0,1,100,30.076
1575568202.467209,231356.000,40049,1,T0,1,100,30.033
1575568202.596730,231465.000,40067,1,T0,1,100,30.060
1575568202.729815,231577.000,40084,1,T0,1,100,30.070
1575568202.867654,231693.000,40119,1,T0,1,100,30.081
1575568203.003115,231807.000,40137,1,T0,1,100,30.028
1575568203.129071,231913.000,40155,1,T0,1,100,30.070
1575568203.260968,232024.000,40173,1,T0,1,100,30.065
1575568203.391677,232134.000,40191,1,T0,1,100,30.113
1575568203.516445,232239.000,40209,1,T0,1,100,30.044
1575568203.647154,232349.000,40227,1,T0,1,100,30.092
1575568203.774298,232456.000,40245,1,T0,1,100,30.054
1575568203.905007,232566.000,40263,1,T0,1,100,30.086
1575568204.044034,232683.000,40282,1,T0,1,100,30.065
1575568204.185437,232802.000,40299,1,T0,1,100,30.065
1575568204.323275,232918.000,40333,1,T0,1,100,30.076
1575568204.459926,233033.000,40351,1,T0,1,100,30.092
1575568204.588258,233141.000,40369,1,T0,1,100,30.092
1575568204.715402,233248.000,40387,1,T0,1,100,30.070
1575568204.854429,233365.000,40405,1,T0,1,100,30.070
1575568204.993456,233482.000,40424,1,T0,1,100,30.081
1575568205.120600,233589.000,40441,1,T0,1,100,30.113
1575568205.251309,233699.000,40459,1,T0,1,100,30.124
1575568205.385582,233812.000,40494,1,T0,1,100,30.129
1575568205.521044,233926.000,40511,1,T0,1,100,30.054
1575568205.658883,234042.000,40529,1,T0,1,100,30.092
1575568205.786027,234149.000,40547,1,T0,1,100,30.092
1575568205.913171,234256.000,40565,1,T0,1,100,30.065
1575568206.048633,234370.000,40584,1,T0,1,100,30.124
1575568206.188848,234488.000,40602,1,T0,1,100,30.092
1575568206.323122,234601.000,40621,1,T0,1,100,30.092
1575568206.447889,234706.000,40639,1,T0,1,100,30.097
1575568206.578598,234816.000,40661,1,T0,1,100,30.135
1575568206.715249,234931.000,40679,1,T0,1,100,30.086
1575568206.853087,235047.000,40697,1,T0,1,100,30.108
1575568206.983796,235157.000,40716,1,T0,1,100,30.108
1575568207.109752,235263.000,40734,1,T0,1,100,30.140
1575568207.246402,235378.000,40751,1,T0,1,100,30.092
1575568207.380676,235491.000,40785,1,T0,1,100,30.092
1575568207.504255,235595.000,40803,1,T0,1,100,30.097
1575568207.640905,235710.000,40821,1,T0,1,100,30.070
1575568207.772802,235821.000,40839,1,T0,1,100,30.092
1575568207.905888,235933.000,40857,1,T0,1,100,30.129
1575568208.046103,236051.000,40876,1,T0,1,100,30.103
1575568208.181565,236165.000,40894,1,T0,1,100,30.097
1575568208.306332,236270.000,40912,1,T0,1,100,30.108
1575568208.441794,236384.000,40929,1,T0,1,100,30.113
1575568208.577256,236498.000,40963,1,T0,1,100,30.124
1575568208.711530,236611.000,40981,1,T0,1,100,30.103
1575568208.843427,236722.000,40999,1,T0,1,100,30.145
1575568208.970571,236829.000,41018,1,T0,1,100,30.124
1575568209.098904,236937.000,41036,1,T0,1,100,30.097
1575568209.236742,237053.000,41054,1,T0,1,100,30.119
1575568209.379334,237173.000,41072,1,T0,1,100,30.113
1575568209.504101,237278.000,41090,1,T0,1,100,30.086
1575568209.631245,237385.000,41108,1,T0,1,100,30.103
1575568209.769084,237501.000,41125,1,T0,1,100,30.140
1575568209.905734,237616.000,41160,1,T0,1,100,30.151
1575568210.042384,237731.000,41178,1,T0,1,100,30.113
1575568210.167152,237836.000,41196,1,T0,1,100,30.081
1575568210.294296,237943.000,41214,1,T0,1,100,30.135
1575568210.433323,238060.000,41232,1,T0,1,100,30.140
1575568210.569973,238175.000,41250,1,T0,1,100,30.140
1575568210.699494,238284.000,41268,1,T0,1,100,30.108
1575568210.827826,238392.000,41286,1,T0,1,100,30.124
1575568210.966853,238509.000,41304,1,T0,1,100,30.135
1575568211.093997,238616.000,41322,1,T0,1,100,30.129
1575568211.230647,238731.000,41356,1,T0,1,100,30.140
1575568211.369674,238848.000,41374,1,T0,1,100,30.140
1575568211.496818,238955.000,41392,1,T0,1,100,30.140
1575568211.635845,239072.000,41410,1,T0,1,100,30.145
1575568211.773683,239188.000,41428,1,T0,1,100,30.135
1575568211.909145,239302.000,41446,1,T0,1,100,30.135
1575568212.036289,239409.000,41464,1,T0,1,100,30.145
1575568212.171751,239523.000,41482,1,T0,1,100,30.145
1575568212.304243,239634.500,41520,2,T0,1,100,30.167
1575568212.436734,239746.000,41520,2,T0,1,100,30.172
1575568212.574572,239862.000,41538,1,T0,1,100,30.162
1575568212.711223,239977.000,41555,1,T0,1,100,30.172
1575568212.838367,240084.000,41573,1,T0,1,100,30.167
1575568212.967887,240193.000,41608,1,T0,1,100,30.167
1575568213.099785,240304.000,41626,1,T0,1,100,30.145
1575568213.236435,240419.000,41644,1,T0,1,100,30.156
1575568213.371897,240533.000,41662,1,T0,1,100,30.145
1575568213.496664,240638.000,41680,1,T0,1,100,30.162
1575568213.629750,240750.000,41698,1,T0,1,100,30.204
1575568213.768776,240867.000,41716,1,T0,1,100,30.151
1575568213.905427,240982.000,41734,1,T0,1,100,30.162
1575568214.034947,241091.000,41752,1,T0,1,100,30.156
1575568214.162091,241198.000,41770,1,T0,1,100,30.172
1575568214.297553,241312.000,41804,1,T0,1,100,30.188
1575568214.436580,241429.000,41822,1,T0,1,100,30.167
1575568214.574419,241545.000,41840,1,T0,1,100,30.167
1575568214.697998,241649.000,41858,1,T0,1,100,30.172
1575568214.828707,241759.000,41876,1,T0,1,100,30.183
1575568214.966545,241875.000,41895,1,T0,1,100,30.215
1575568215.099631,241987.000,41913,1,T0,1,100,30.178
1575568215.239846,242105.000,41930,1,T0,1,100,30.199
1575568215.374120,242218.000,41964,1,T0,1,100,30.183
1575568215.511958,242334.000,41982,1,T0,1,100,30.151
1575568215.649796,242450.000,42000,1,T0,1,100,30.221
1575568215.776941,242557.000,42018,1,T0,1,100,30.183
1575568215.907650,242667.000,42036,1,T0,1,100,30.172
1575568216.047864,242785.000,42055,1,T0,1,100,30.199
1575568216.182138,242898.000,42073,1,T0,1,100,30.215
1575568216.315224,243010.000,42090,1,T0,1,100,30.172
1575568216.456627,243129.000,42124,1,T0,1,100,30.210
1575568216.581394,243234.000,42142,1,T0,1,100,30.231
1575568216.708539,243341.000,42160,1,T0,1,100,30.204
1575568216.846377,243457.000,42178,1,T0,1,100,30.221
1575568216.985404,243574.000,42197,1,T0,1,100,30.199
1575568217.116113,243684.000,42215,1,T0,1,100,30.226
1575568217.243257,243791.000,42233,1,T0,1,100,30.178
1575568217.377531,243904.000,42251,1,T0,1,100,30.258
1575568217.515369,244020.000,42268,1,T0,1,100,30.210
1575568217.652019,244135.000,42302,1,T0,1,100,30.199
1575568217.783916,244246.000,42320,1,T0,1,100,30.242
1575568217.908684,244351.000,42339,1,T0,1,100,30.231
1575568218.047711,244468.000,42357,1,T0,1,100,30.183
1575568218.181984,244581.000,42375,1,T0,1,100,30.221
1575568218.321011,244698.000,42393,1,T0,1,100,30.274
1575568218.445779,244803.000,42414,1,T0,1,100,30.210
1575568218.575300,244912.000,42434,1,T0,1,100,30.204
1575568218.710762,245026.000,42452,1,T0,1,100,30.226
1575568218.852165,245145.000,42470,1,T0,1,100,30.204
1575568218.990003,245261.000,42489,1,T0,1,100,30.221
1575568219.124277,245374.000,42507,1,T0,1,100,30.188
1575568219.262115,245490.000,42524,1,T0,1,100,30.247
1575568219.399954,245606.000,42558,1,T0,1,100,30.204
1575568219.538981,245723.000,42576,1,T0,1,100,30.253
1575568219.670878,245834.000,42594,1,T0,1,100,30.221
1575568219.798022,245941.000,42612,1,T0,1,100,30.258
1575568219.928731,246051.000,42630,1,T0,1,100,30.258
1575568220.067758,246168.000,42649,1,T0,1,100,30.258
1575568220.207973,246286.000,42667,1,T0,1,100,30.215
1575568220.331552,246390.000,42684,1,T0,1,100,30.199
1575568220.463449,246501.000,42702,1,T0,1,100,30.237
1575568220.598911,246615.000,42736,1,T0,1,100,30.274
1575568220.731997,246727.000,42754,1,T0,1,100,30.253
1575568220.869835,246843.000,42772,1,T0,1,100,30.221
1575568220.996979,246950.000,42791,1,T0,1,100,30.237
1575568221.127688,247060.000,42809,1,T0,1,100,30.269
1575568221.263150,247174.000,42827,1,T0,1,100,30.258
1575568221.403365,247292.000,42845,1,T0,1,100,30.247
1575568221.534074,247402.000,42862,1,T0,1,100,30.242
1575568221.658841,247507.000,42880,1,T0,1,100,30.237
1575568221.795492,247622.000,42898,1,T0,1,100,30.215
1575568221.932142,247737.000,42933,1,T0,1,100,30.258
1575568222.069980,247853.000,42951,1,T0,1,100,30.237
1575568222.197124,247960.000,42969,1,T0,1,100,30.215
1575568222.320704,248064.000,42987,1,T0,1,100,30.258
1575568222.459731,248181.000,43005,1,T0,1,100,30.247
1575568222.598757,248298.000,43023,1,T0,1,100,30.280
1575568222.735408,248413.000,43041,1,T0,1,100,30.237
1575568222.877999,248533.000,43075,1,T0,1,100,30.210
1575568223.012273,248646.000,43093,1,T0,1,100,30.242
1575568223.147735,248760.000,43111,1,T0,1,100,30.263
1575568223.283197,248874.000,43129,1,T0,1,100,30.285
1575568223.413906,248984.000,43147,1,T0,1,100,30.237
1575568223.537485,249088.000,43165,1,T0,1,100,30.269
1575568223.674135,249203.000,43183,1,T0,1,100,30.231
1575568223.810785,249318.000,43201,1,T0,1,100,30.263
1575568223.949812,249435.000,43218,1,T0,1,100,30.231
1575568224.078145,249543.000,43253,1,T0,1,100,30.263
1575568224.207665,249652.000,43271,1,T0,1,100,30.258
1575568224.337186,249761.000,43289,1,T0,1,100,30.247
1575568224.473836,249876.000,43310,2,T0,1,100,30.242
1575568224.610486,249991.000,43310,2,T0,1,100,30.242
1575568224.732877,250094.000,43330,1,T0,1,100,30.269
1575568224.864774,250205.000,43348,1,T0,1,100,30.306
1575568225.003801,250322.000,43383,1,T0,1,100,30.269
1575568225.140451,250437.000,43401,1,T0,1,100,30.247
1575568225.272349,250548.000,43419,1,T0,1,100,30.280
1575568225.400681,250656.000,43437,1,T0,1,100,30.285
1575568225.533767,250768.000,43455,1,T0,1,100,30.274
1575568225.672793,250885.000,43473,1,T0,1,100,30.290
1575568225.811820,251002.000,43490,1,T0,1,100,30.301
1575568225.936588,251107.000,43508,1,T0,1,100,30.263
1575568226.066108,251216.000,43527,1,T0,1,100,30.296
1575568226.199194,251328.000,43561,1,T0,1,100,30.280
1575568226.335844,251443.000,43579,1,T0,1,100,30.274
1575568226.477247,251562.000,43597,1,T0,1,100,30.280
1575568226.613897,251677.000,43615,1,T0,1,100,30.280
1575568226.742230,251785.000,43633,1,T0,1,100,30.290
1575568226.877692,251899.000,43651,1,T0,1,100,30.237
1575568227.004836,252006.000,43669,1,T0,1,100,30.301
1575568227.134356,252115.000,43687,1,T0,1,100,30.285
1575568227.262689,252223.000,43705,1,T0,1,100,30.285
1575568227.396963,252336.000,43739,1,T0,1,100,30.263
1575568227.531236,252449.000,43757,1,T0,1,100,30.296
1575568227.673828,252569.000,43775,1,T0,1,100,30.290
1575568227.811666,252685.000,43793,1,T0,1,100,30.306
1575568227.945940,252798.000,43811,1,T0,1,100,30.274
1575568228.073084,252905.000,43830,1,T0,1,100,30.306
1575568228.203793,253015.000,43848,1,T0,1,100,30.301
1575568228.338067,253128.000,43865,1,T0,1,100,30.306
1575568228.477093,253245.000,43899,1,T0,1,100,30.306
1575568228.608991,253356.000,43917,1,T0,1,100,30.296
1575568228.731382,253459.000,43935,1,T0,1,100,30.290
1575568228.869220,253575.000,43953,1,T0,1,100,30.301
1575568229.009435,253693.000,43972,1,T0,1,100,30.290
1575568229.147274,253809.000,43990,1,T0,1,100,30.285
1575568229.272041,253914.000,44008,1,T0,1,100,30.312
1575568229.402750,254024.000,44025,1,T0,1,100,30.285
1575568229.538212,254138.000,44043,1,T0,1,100,30.317
1575568229.677239,254255.000,44077,1,T0,1,100,30.317
1575568229.811512,254368.000,44095,1,T0,1,100,30.280
1575568229.935092,254472.000,44114,1,T0,1,100,30.285
1575568230.069366,254585.000,44132,1,T0,1,100,30.322
1575568230.203639,254698.000,44150,1,T0,1,100,30.317
1575568230.340290,254813.000,44168,1,T0,1,100,30.339
1575568230.473375,254925.000,44186,1,T0,1,100,30.306
1575568230.602895,255034.000,44207,1,T0,1,100,30.317
1575568230.727663,255139.000,44227,1,T0,1,100,30.333
1575568230.857184,255248.000,44245,1,T0,1,100,30.328
1575568230.986704,255357.000,44264,1,T0,1,100,30.296
1575568231.111472,255462.000,44282,1,T0,1,100,30.312
1575568231.242181,255572.000,44300,1,T0,1,100,30.301
1575568231.377643,255686.000,44318,1,T0,1,100,30.296
1575568231.511917,255799.000,44336,1,T0,1,100,30.333
1575568231.649755,255915.000,44353,1,T0,1,100,30.333
1575568231.776899,256022.000,44387,1,T0,1,100,30.317
1575568231.905232,256130.000,44406,1,T0,1,100,30.333
1575568232.044258,256247.000,44424,1,T0,1,100,30.296
1575568232.178532,256360.000,44442,1,T0,1,100,30.269
1575568232.311617,256472.000,44460,1,T0,1,100,30.301
1575568232.451833,256590.000,44478,1,T0,1,100,30.322
1575568232.576600,256695.000,44496,1,T0,1,100,30.328
1575568232.703744,256802.000,44514,1,T0,1,100,30.328
1575568232.841583,256918.000,44531,1,T0,1,100,30.339
1575568232.979421,257034.000,44566,1,T0,1,100,30.360
1575568233.114883,257148.000,44584,1,T0,1,100,30.344
1575568233.240839,257254.000,44602,1,T0,1,100,30.274
1575568233.375113,257367.000,44620,1,T0,1,100,30.349
1575568233.512951,257483.000,44638,1,T0,1,100,30.317
1575568233.649601,257598.000,44656,1,T0,1,100,30.333
1575568233.779122,257707.000,44674,1,T0,1,100,30.328
1575568233.903890,257812.000,44692,1,T0,1,100,30.296
1575568234.044105,257930.000,44710,1,T0,1,100,30.339
1575568234.178378,258043.000,44744,1,T0,1,100,30.344
1575568234.317405,258160.000,44762,1,T0,1,100,30.296
1575568234.442173,258265.000,44780,1,T0,1,100,30.344
1575568234.576446,258378.000,44798,1,T0,1,100,30.328
1575568234.701214,258483.000,44816,1,T0,1,100,30.312
1575568234.835488,258596.000,44834,1,T0,1,100,30.328
1575568234.966197,258706.000,44853,1,T0,1,100,30.360
1575568235.098094,258817.000,44871,1,T0,1,100,30.317
1575568235.237120,258934.000,44889,1,T0,1,100,30.322
1575568235.373771,259049.000,44906,1,T0,1,100,30.360
1575568235.498538,259154.000,44940,1,T0,1,100,30.280
1575568235.632812,259267.000,44958,1,T0,1,100,30.371
1575568235.761144,259375.000,44976,1,T0,1,100,30.355
1575568235.891853,259485.000,44995,1,T0,1,100,30.333
1575568236.030880,259602.000,45013,1,T0,1,100,30.349
1575568236.169907,259719.000,45031,1,T0,1,100,30.317
1575568236.293486,259823.000,45049,1,T0,1,100,30.381
1575568236.425383,259934.000,45067,1,T0,1,100,30.355
1575568236.560845,260048.000,45084,1,T0,1,100,30.376
1575568236.697495,260163.000,45105,1,T0,1,100,30.349
1575568236.831769,260276.000,45125,1,T0,1,100,30.376
1575568236.958913,260383.000,45144,1,T0,1,100,30.376
1575568237.088434,260492.000,45162,1,T0,1,100,30.349
1575568237.223896,260606.000,45180,1,T0,1,100,30.355
1575568237.365299,260725.000,45213,1,T0,1,100,30.376
1575568237.494820,260834.000,45231,1,T0,1,100,30.349
1575568237.619587,260939.000,45249,1,T0,1,100,30.371
1575568237.751485,261050.000,45267,1,T0,1,100,30.355
1575568237.886946,261164.000,45286,1,T0,1,100,30.344
1575568238.024785,261280.000,45304,1,T0,1,100,30.360
1575568238.151929,261387.000,45322,1,T0,1,100,30.360
1575568238.277885,261493.000,45340,1,T0,1,100,30.328
1575568238.414535,261608.000,45358,1,T0,1,100,30.328
1575568238.551185,261723.000,45375,1,T0,1,100,30.339
1575568238.677141,261829.000,45393,1,T0,1,100,30.339
1575568238.812603,261943.000,45427,1,T0,1,100,30.371
1575568238.946877,262056.000,45446,1,T0,1,100,30.365
1575568239.081151,262169.000,45464,1,T0,1,100,30.408
1575568239.221366,262287.000,45482,1,T0,1,100,30.371
1575568239.353263,262398.000,45500,1,T0,1,100,30.381
1575568239.478030,262503.000,45518,1,T0,1,100,30.365
1575568239.614681,262618.000,45536,1,T0,1,100,30.333
1575568239.752519,262734.000,45553,1,T0,1,100,30.371
1575568239.890358,262850.000,45588,1,T0,1,100,30.381
1575568240.017502,262957.000,45606,1,T0,1,100,30.414
1575568240.147022,263066.000,45624,1,T0,1,100,30.381
1575568240.278919,263177.000,45642,1,T0,1,100,30.381
1575568240.416758,263293.000,45660,1,T0,1,100,30.376
1575568240.554596,263409.000,45678,1,T0,1,100,30.392
1575568240.679364,263514.000,45696,1,T0,1,100,30.371
1575568240.810073,263624.000,45714,1,T0,1,100,30.403
1575568240.949100,263741.000,45732,1,T0,1,100,30.365
1575568241.085750,263856.000,45750,1,T0,1,100,30.371
1575568241.216459,263966.000,45784,1,T0,1,100,30.387
1575568241.344791,264074.000,45802,1,T0,1,100,30.376
1575568241.476688,264185.000,45820,1,T0,1,100,30.381
1575568241.615715,264302.000,45838,1,T0,1,100,30.376
1575568241.754742,264419.000,45856,1,T0,1,100,30.392
1575568241.879509,264524.000,45874,1,T0,1,100,30.376
1575568242.009030,264633.000,45893,1,T0,1,100,30.408
1575568242.148057,264750.000,45911,1,T0,1,100,30.398
1575568242.277578,264859.000,45928,1,T0,1,100,30.403
1575568242.417793,264977.000,45962,1,T0,1,100,30.398
1575568242.556819,265094.000,45980,1,T0,1,100,30.403
1575568242.691687,265207.500,46001,2,T0,1,100,30.419
1575568242.826555,265321.000,46001,2,T0,1,100,30.408
1575568242.964394,265437.000,46038,1,T0,1,100,30.392
1575568243.095102,265547.000,46056,1,T0,1,100,30.398
1575568243.223435,265655.000,46074,1,T0,1,100,30.403
1575568243.357708,265768.000,46092,1,T0,1,100,30.403
1575568243.491982,265881.000,46110,1,T0,1,100,30.403
1575568243.635762,266002.000,46128,1,T0,1,100,30.398
1575568243.773601,266118.000,46146,1,T0,1,100,30.408
1575568243.906686,266230.000,46163,1,T0,1,100,30.376
1575568244.035018,266338.000,46198,1,T0,1,100,30.414
1575568244.165727,266448.000,46216,1,T0,1,100,30.371
1575568244.300001,266561.000,46234,1,T0,1,100,30.392
1575568244.439028,266678.000,46252,1,T0,1,100,30.424
1575568244.569736,266788.000,46270,1,T0,1,100,30.451
1575568244.695692,266894.000,46288,1,T0,1,100,30.424
1575568244.831154,267008.000,46306,1,T0,1,100,30.408
1575568244.971369,267126.000,46325,1,T0,1,100,30.381
1575568245.109208,267242.000,46342,1,T0,1,100,30.392
1575568245.233975,267347.000,46360,1,T0,1,100,30.419
1575568245.364684,267457.000,46394,1,T0,1,100,30.392
1575568245.501335,267572.000,46412,1,T0,1,100,30.424
1575568245.639173,267688.000,46430,1,T0,1,100,30.419
1575568245.773447,267801.000,46448,1,T0,1,100,30.462
1575568245.897026,267905.000,46466,1,T0,1,100,30.430
1575568246.032488,268019.000,46485,1,T0,1,100,30.424
1575568246.170326,268135.000,46503,1,T0,1,100,30.430
1575568246.304600,268248.000,46520,1,T0,1,100,30.419
1575568246.447192,268368.000,46554,1,T0,1,100,30.419
1575568246.581465,268481.000,46572,1,T0,1,100,30.435
1575568246.719304,268597.000,46590,1,T0,1,100,30.435
1575568246.853578,268710.000,46608,1,T0,1,100,30.408
1575568246.983098,268819.000,46627,1,T0,1,100,30.414
1575568247.110242,268926.000,46645,1,T0,1,100,30.403
1575568247.240951,269036.000,46663,1,T0,1,100,30.371
1575568247.376413,269150.000,46681,1,T0,1,100,30.440
1575568247.510687,269263.000,46698,1,T0,1,100,30.446
1575568247.648525,269379.000,46732,1,T0,1,100,30.430
1575568247.774481,269485.000,46750,1,T0,1,100,30.451
1575568247.902814,269593.000,46769,1,T0,1,100,30.435
1575568248.040652,269709.000,46787,1,T0,1,100,30.392
1575568248.179679,269826.000,46805,1,T0,1,100,30.424
1575568248.306823,269933.000,46823,1,T0,1,100,30.424
1575568248.435155,270041.000,46841,1,T0,1,100,30.446
1575568248.571806,270156.000,46859,1,T0,1,100,30.446
1575568248.708456,270271.000,46876,1,T0,1,100,30.446
1575568248.846294,270387.000,46897,1,T0,1,100,30.451
1575568248.974627,270495.000,46918,1,T0,1,100,30.414
1575568249.102959,270603.000,46936,1,T0,1,100,30.446
1575568249.241986,270720.000,46954,1,T0,1,100,30.408
1575568249.377448,270834.000,46971,1,T0,1,100,30.440
1575568249.511722,270947.000,47005,1,T0,1,100,30.440
1575568249.636489,271052.000,47023,1,T0,1,100,30.435
1575568249.767198,271162.000,47041,1,T0,1,100,30.451
1575568249.903848,271277.000,47060,1,T0,1,100,30.446
1575568250.046440,271397.000,47078,1,T0,1,100,30.451
1575568250.184278,271513.000,47096,1,T0,1,100,30.440
1575568250.319740,271627.000,47114,1,T0,1,100,30.451
1575568250.462332,271747.000,47131,1,T0,1,100,30.446
1575568250.596606,271860.000,47165,1,T0,1,100,30.430
1575568250.736820,271978.000,47183,1,T0,1,100,30.446
1575568250.863965,272085.000,47201,1,T0,1,100,30.446
1575568250.994673,272195.000,47220,1,T0,1,100,30.457
1575568251.126571,272306.000,47238,1,T0,1,100,30.457
1575568251.265597,272423.000,47256,1,T0,1,100,30.424
1575568251.402248,272538.000,47274,1,T0,1,100,30.467
1575568251.525827,272642.000,47291,1,T0,1,100,30.478
1575568251.660101,272755.000,47309,1,T0,1,100,30.478
1575568251.796751,272870.000,47343,1,T0,1,100,30.462
1575568251.929836,272982.000,47362,1,T0,1,100,30.440
1575568252.062922,273094.000,47380,1,T0,1,100,30.462
1575568252.190066,273201.000,47398,1,T0,1,100,30.478
1575568252.323151,273313.000,47416,1,T0,1,100,30.462
1575568252.458613,273427.000,47434,1,T0,1,100,30.451
1575568252.600017,273546.000,47452,1,T0,1,100,30.483
1575568252.725972,273652.000,47469,1,T0,1,100,30.483
1575568252.853117,273759.000,47487,1,T0,1,100,30.462
1575568252.990955,273875.000,47522,1,T0,1,100,30.478
1575568253.127605,273990.000,47540,1,T0,1,100,30.457
1575568253.263067,274104.000,47558,1,T0,1,100,30.467
1575568253.389023,274210.000,47576,1,T0,1,100,30.478
1575568253.516167,274317.000,47594,1,T0,1,100,30.494
1575568253.654006,274433.000,47612,1,T0,1,100,30.515
1575568253.793032,274550.000,47630,1,T0,1,100,30.489
1575568253.928494,274664.000,47647,1,T0,1,100,30.473
1575568254.071086,274784.000,47682,1,T0,1,100,30.451
1575568254.210113,274901.000,47700,1,T0,1,100,30.473
1575568254.346763,275016.000,47718,1,T0,1,100,30.473
1575568254.488166,275135.000,47736,1,T0,1,100,30.499
1575568254.616498,275243.000,47754,1,T0,1,100,30.478
1575568254.753149,275358.000,47772,1,T0,1,100,30.505
1575568254.881481,275466.000,47793,1,T0,1,100,30.435
1575568255.013378,275577.000,47814,1,T0,1,100,30.505
1575568255.147652,275690.000,47832,1,T0,1,100,30.483
1575568255.289055,275809.000,47850,1,T0,1,100,30.467
1575568255.419764,275919.000,47868,1,T0,1,100,30.499
1575568255.543344,276023.000,47886,1,T0,1,100,30.419
1575568255.681182,276139.000,47903,1,T0,1,100,30.526
1575568255.819021,276255.000,47937,1,T0,1,100,30.510
1575568255.954483,276369.000,47956,1,T0,1,100,30.483
1575568256.081627,276476.000,47974,1,T0,1,100,30.521
1575568256.214712,276588.000,47992,1,T0,1,100,30.489
1575568256.351362,276703.000,48010,1,T0,1,100,30.515
1575568256.486824,276817.000,48028,1,T0,1,100,30.510
1575568256.623474,276932.000,48046,1,T0,1,100,30.499
1575568256.748242,277037.000,48064,1,T0,1,100,30.499
1575568256.882516,277150.000,48081,1,T0,1,100,30.494
1575568257.017978,277264.000,48116,1,T0,1,100,30.505
1575568257.154628,277379.000,48134,1,T0,1,100,30.473
1575568257.285337,277489.000,48152,1,T0,1,100,30.499
1575568257.412481,277596.000,48170,1,T0,1,100,30.499
1575568257.544378,277707.000,48188,1,T0,1,100,30.515
1575568257.686970,277827.000,48206,1,T0,1,100,30.494
1575568257.821243,277940.000,48224,1,T0,1,100,30.483
1575568257.956705,278054.000,48241,1,T0,1,100,30.489
1575568258.099297,278174.000,48276,1,T0,1,100,30.499
1575568258.239512,278292.000,48294,1,T0,1,100,30.499
1575568258.377350,278408.000,48312,1,T0,1,100,30.499
1575568258.515189,278524.000,48330,1,T0,1,100,30.494
1575568258.643521,278632.000,48348,1,T0,1,100,30.526
1575568258.773042,278741.000,48366,1,T0,1,100,30.510
1575568258.903751,278851.000,48384,1,T0,1,100,30.499
1575568259.038024,278964.000,48402,1,T0,1,100,30.494
1575568259.172298,279077.000,48420,1,T0,1,100,30.489
1575568259.312513,279195.000,48454,1,T0,1,100,30.499
1575568259.438469,279301.000,48472,1,T0,1,100,30.515
1575568259.564425,279407.000,48490,1,T0,1,100,30.473
1575568259.702263,279523.000,48508,1,T0,1,100,30.532
1575568259.841290,279640.000,48526,1,T0,1,100,30.467
1575568259.971999,279750.000,48544,1,T0,1,100,30.499
1575568260.100331,279858.000,48563,1,T0,1,100,30.462
1575568260.234605,279971.000,48581,1,T0,1,100,30.526
1575568260.372443,280087.000,48598,1,T0,1,100,30.515
1575568260.509094,280202.000,48632,1,T0,1,100,30.457
1575568260.639803,280312.000,48650,1,T0,1,100,30.542
1575568260.765759,280418.000,48668,1,T0,1,100,30.510
1575568260.903003,280533.500,48689,2,T0,1,100,30.489
1575568261.040247,280649.000,48689,2,T0,1,100,30.510
1575568261.178086,280765.000,48726,1,T0,1,100,30.489
1575568261.302853,280870.000,48744,1,T0,1,100,30.537
1575568261.432374,280979.000,48762,1,T0,1,100,30.537
1575568261.566648,281092.000,48780,1,T0,1,100,30.499
1575568261.708051,281211.000,48798,1,T0,1,100,30.515
1575568261.845889,281327.000,48816,1,T0,1,100,30.478
1575568261.981351,281441.000,48834,1,T0,1,100,30.532
1575568262.120378,281558.000,48852,1,T0,1,100,30.521
1575568262.255840,281672.000,48886,1,T0,1,100,30.489
1575568262.394867,281789.000,48904,1,T0,1,100,30.515
1575568262.525576,281899.000,48922,1,T0,1,100,30.483
1575568262.653908,282007.000,48940,1,T0,1,100,30.478
1575568262.784617,282117.000,48958,1,T0,1,100,30.521
1575568262.927209,282237.000,48976,1,T0,1,100,30.521
1575568263.063859,282352.000,48995,1,T0,1,100,30.521
1575568263.198133,282465.000,49012,1,T0,1,100,30.526
1575568263.332406,282578.000,49046,1,T0,1,100,30.521
1575568263.458362,282684.000,49064,1,T0,1,100,30.521
1575568263.587883,282793.000,49082,1,T0,1,100,30.521
1575568263.725721,282909.000,49100,1,T0,1,100,30.510
1575568263.867125,283028.000,49118,1,T0,1,100,30.510
1575568263.991892,283133.000,49136,1,T0,1,100,30.499
1575568264.120224,283241.000,49155,1,T0,1,100,30.521
1575568264.258063,283357.000,49173,1,T0,1,100,30.548
1575568264.394713,283472.000,49190,1,T0,1,100,30.526
1575568264.531363,283587.000,49224,1,T0,1,100,30.473
1575568264.658508,283694.000,49242,1,T0,1,100,30.515
1575568264.788028,283803.000,49260,1,T0,1,100,30.510
1575568264.925867,283919.000,49278,1,T0,1,100,30.510
1575568265.061329,284033.000,49297,1,T0,1,100,30.499
1575568265.193226,284144.000,49315,1,T0,1,100,30.505
1575568265.319182,284250.000,49333,1,T0,1,100,30.510
1575568265.451079,284361.000,49351,1,T0,1,100,30.489
1575568265.587729,284476.000,49369,1,T0,1,100,30.515
1575568265.730320,284596.000,49402,1,T0,1,100,30.521
1575568265.869347,284713.000,49420,1,T0,1,100,30.510
1575568266.005997,284828.000,49439,1,T0,1,100,30.548
1575568266.148589,284948.000,49457,1,T0,1,100,30.505
1575568266.281674,285060.000,49475,1,T0,1,100,30.505
1575568266.420701,285177.000,49493,1,T0,1,100,30.499
1575568266.547845,285284.000,49510,1,T0,1,100,30.537
1575568266.679743,285395.000,49528,1,T0,1,100,30.515
1575568266.812828,285507.000,49562,1,T0,1,100,30.521
1575568266.948884,285621.500,49583,2,T0,1,100,30.473
1575568267.084940,285736.000,49583,2,T0,1,100,30.489
1575568267.226343,285855.000,49604,1,T0,1,100,30.510
1575568267.354676,285963.000,49638,1,T0,1,100,30.558
1575568267.483008,286071.000,49656,1,T0,1,100,30.532
1575568267.614905,286182.000,49674,1,T0,1,100,30.532
1575568267.751555,286297.000,49692,1,T0,1,100,30.542
1575568267.887017,286411.000,49710,1,T0,1,100,30.537
1575568268.010597,286515.000,49728,1,T0,1,100,30.510
1575568268.142494,286626.000,49747,1,T0,1,100,30.542
1575568268.281521,286743.000,49765,1,T0,1,100,30.532
1575568268.418171,286858.000,49782,1,T0,1,100,30.510
1575568268.550068,286969.000,49800,1,T0,1,100,30.521
1575568268.678401,287077.000,49834,1,T0,1,100,30.537
1575568268.811486,287189.000,49852,1,T0,1,100,30.537
1575568268.950513,287306.000,49870,1,T0,1,100,30.521
1575568269.088351,287422.000,49889,1,T0,1,100,30.532
1575568269.213119,287527.000,49907,1,T0,1,100,30.521
1575568269.341451,287635.000,49925,1,T0,1,100,30.515
1575568269.474537,287747.000,49943,1,T0,1,100,30.537
1575568269.611187,287862.000,49961,1,T0,1,100,30.526
1575568269.753778,287982.000,49995,1,T0,1,100,30.526
1575568269.892805,288099.000,50012,1,T0,1,100,30.532
1575568270.029455,288214.000,50031,1,T0,1,100,30.510
1575568270.172047,288334.000,50049,1,T0,1,100,30.499
1575568270.306321,288447.000,50067,1,T0,1,100,30.515
1575568270.439406,288559.000,50085,1,T0,1,100,30.521
1575568270.567738,288667.000,50103,1,T0,1,100,30.505
1575568270.702012,288780.000,50120,1,T0,1,100,30.548
1575568270.836286,288893.000,50154,1,T0,1,100,30.532
1575568270.977689,289012.000,50172,1,T0,1,100,30.542
1575568271.108398,289122.000,50191,1,T0,1,100,30.537
1575568271.245048,289237.000,50209,1,T0,1,100,30.537
1575568271.372192,289344.000,50227,1,T0,1,100,30.542
1575568271.502901,289454.000,50245,1,T0,1,100,30.526
1575568271.637175,289567.000,50263,1,T0,1,100,30.505
1575568271.776202,289684.000,50281,1,T0,1,100,30.532
1575568271.906911,289794.000,50298,1,T0,1,100,30.526
1575568272.030490,289898.000,50316,1,T0,1,100,30.537
1575568272.168328,290014.000,50351,1,T0,1,100,30.526
1575568272.307355,290131.000,50369,1,T0,1,100,30.510
1575568272.444005,290246.000,50387,1,T0,1,100,30.515
1575568272.568773,290351.000,50405,1,T0,1,100,30.548
1575568272.699482,290461.000,50423,1,T0,1,100,30.532
1575568272.836132,290576.000,50441,1,T0,1,100,30.510
1575568272.973971,290692.000,50459,1,T0,1,100,30.553
1575568273.109432,290806.000,50479,1,T0,1,100,30.499
1575568273.233012,290910.000,50500,1,T0,1,100,30.532
1575568273.368474,291024.000,50518,1,T0,1,100,30.548
1575568273.502748,291137.000,50536,1,T0,1,100,30.505
1575568273.639398,291252.000,50554,1,T0,1,100,30.510
1575568273.779613,291370.000,50571,1,T0,1,100,30.526
1575568273.918639,291487.000,50605,1,T0,1,100,30.505
1575568274.056478,291603.000,50624,1,T0,1,100,30.521
1575568274.189564,291715.000,50642,1,T0,1,100,30.521
1575568274.317896,291823.000,50660,1,T0,1,100,30.532
1575568274.449793,291934.000,50678,1,T0,1,100,30.505
1575568274.591196,292053.000,50696,1,T0,1,100,30.483
1575568274.726658,292167.000,50713,1,T0,1,100,30.526
1575568274.860932,292280.000,50731,1,T0,1,100,30.478
1575568274.998770,292396.000,50765,1,T0,1,100,30.510
1575568275.125915,292503.000,50784,1,T0,1,100,30.489
1575568275.253059,292610.000,50802,1,T0,1,100,30.505
1575568275.389709,292725.000,50820,1,T0,1,100,30.510
1575568275.528736,292842.000,50838,1,T0,1,100,30.483
1575568275.657068,292950.000,50856,1,T0,1,100,30.537
1575568275.784212,293057.000,50874,1,T0,1,100,30.526
1575568275.918486,293170.000,50892,1,T0,1,100,30.489
1575568276.056324,293286.000,50909,1,T0,1,100,30.483
1575568276.194163,293402.000,50944,1,T0,1,100,30.499
1575568276.322495,293510.000,50962,1,T0,1,100,30.489
1575568276.449639,293617.000,50980,1,T0,1,100,30.478
1575568276.585101,293731.000,50998,1,T0,1,100,30.526
1575568276.725316,293849.000,51016,1,T0,1,100,30.510
1575568276.860778,293963.000,51034,1,T0,1,100,30.494
1575568276.985546,294068.000,51052,1,T0,1,100,30.515
1575568277.116255,294178.000,51071,1,T0,1,100,30.515
1575568277.251717,294292.000,51088,1,T0,1,100,30.483
1575568277.389555,294408.000,51122,1,T0,1,100,30.537
1575568277.520264,294518.000,51140,1,T0,1,100,30.515
1575568277.659291,294635.000,51158,1,T0,1,100,30.510
1575568277.793565,294748.000,51176,1,T0,1,100,30.505
1575568277.925462,294859.000,51194,1,T0,1,100,30.526
1575568278.063300,294975.000,51212,1,T0,1,100,30.532
1575568278.190444,295082.000,51231,1,T0,1,100,30.499
1575568278.321153,295192.000,51249,1,T0,1,100,30.510
1575568278.453050,295303.000,51266,1,T0,1,100,30.510
1575568278.590889,295419.000,51300,1,T0,1,100,30.521
1575568278.727539,295534.000,51318,1,T0,1,100,30.537
1575568278.852307,295639.000,51336,1,T0,1,100,30.521
1575568278.985392,295751.000,51354,1,T0,1,100,30.467
1575568279.114913,295860.000,51376,2,T0,1,100,30.526
1575568279.244433,295969.000,51376,2,T0,1,100,30.510
1575568279.382272,296085.000,51412,1,T0,1,100,30.526
1575568279.521299,296202.000,51430,1,T0,1,100,30.521
1575568279.644878,296306.000,51448,1,T0,1,100,30.521
1575568279.776775,296417.000,51466,1,T0,1,100,30.499
1575568279.911049,296530.000,51484,1,T0,1,100,30.483
1575568280.048887,296646.000,51502,1,T0,1,100,30.515
1575568280.183161,296759.000,51521,1,T0,1,100,30.526
1575568280.310305,296866.000,51538,1,T0,1,100,30.494
1575568280.439826,296975.000,51556,1,T0,1,100,30.542
1575568280.575288,297089.000,51590,1,T0,1,100,30.494
1575568280.714314,297206.000,51608,1,T0,1,100,30.515
1575568280.842647,297314.000,51626,1,T0,1,100,30.526
1575568280.969791,297421.000,51644,1,T0,1,100,30.542
1575568281.101688,297532.000,51663,1,T0,1,100,30.499
1575568281.237150,297646.000,51681,1,T0,1,100,30.510
1575568281.374989,297762.000,51699,1,T0,1,100,30.532
1575568281.504509,297871.000,51717,1,T0,1,100,30.457
1575568281.635218,297981.000,51734,1,T0,1,100,30.505
1575568281.770680,298095.000,51752,1,T0,1,100,30.521
1575568281.895448,298200.000,51786,1,T0,1,100,30.532
1575568282.022592,298307.000,51805,1,T0,1,100,30.505
1575568282.160430,298423.000,51823,1,T0,1,100,30.473
1575568282.298269,298539.000,51841,1,T0,1,100,30.521
1575568282.434919,298654.000,51859,1,T0,1,100,30.521
1575568282.575134,298772.000,51877,1,T0,1,100,30.510
1575568282.707031,298883.000,51895,1,T0,1,100,30.526
1575568282.831799,298988.000,51912,1,T0,1,100,30.505
1575568282.968449,299103.000,51930,1,T0,1,100,30.532
1575568283.105099,299218.000,51965,1,T0,1,100,30.521
1575568283.236204,299328.333,51983,3,T0,1,100,30.510
1575568283.367309,299438.667,51983,3,T0,1,100,30.537
1575568283.498414,299549.000,51983,3,T0,1,100,30.542
1575568283.629123,299659.000,52001,1,T0,1,100,30.494
1575568283.766962,299775.000,52018,1,T0,1,100,30.499
1575568283.904800,299891.000,52052,1,T0,1,100,30.510
1575568284.029568,299996.000,52071,1,T0,1,100,30.489
1575568284.161465,300107.000,52089,1,T0,1,100,30.499
1575568284.300492,300224.000,52107,1,T0,1,100,30.489
1575568284.437142,300339.000,52125,1,T0,1,100,30.564
1575568284.567851,300449.000,52143,1,T0,1,100,30.494
1575568284.694995,300556.000,52161,1,T0,1,100,30.510
1575568284.826892,300667.000,52179,1,T0,1,100,30.532
1575568284.965919,300784.000,52196,1,T0,1,100,30.542
1575568285.097222,300894.500,52234,2,T0,1,100,30.510
1575568285.228525,301005.000,52234,2,T0,1,100,30.521
1575568285.359234,301115.000,52252,1,T0,1,100,30.510
1575568285.487566,301223.000,52270,1,T0,1,100,30.505
1575568285.614710,301330.000,52290,1,T0,1,100,30.553
1575568285.746607,301441.000,52308,1,T0,1,100,30.526
1575568285.871375,301546.000,52326,1,T0,1,100,30.526
1575568286.003272,301657.000,52344,1,T0,1,100,30.494
1575568286.141111,301773.000,52363,1,T0,1,100,30.526
1575568286.278949,301889.000,52380,1,T0,1,100,30.499
1575568286.407282,301997.000,52414,1,T0,1,100,30.548
1575568286.545120,302113.000,52432,1,T0,1,100,30.515
1575568286.671076,302219.000,52450,1,T0,1,100,30.537
1575568286.797032,302325.000,52468,1,T0,1,100,30.515
1575568286.936059,302442.000,52486,1,T0,1,100,30.537
1575568287.073897,302558.000,52505,1,T0,1,100,30.532
1575568287.205794,302669.000,52523,1,T0,1,100,30.505
1575568287.332938,302776.000,52541,1,T0,1,100,30.526
1575568287.466024,302888.000,52558,1,T0,1,100,30.489
1575568287.602674,303003.000,52576,1,T0,1,100,30.542
1575568287.739324,303118.000,52610,1,T0,1,100,30.499
1575568287.870033,303228.000,52628,1,T0,1,100,30.521
1575568287.994801,303333.000,52647,1,T0,1,100,30.537
1575568288.130263,303447.000,52665,1,T0,1,100,30.537
1575568288.269289,303564.000,52683,1,T0,1,100,30.542
1575568288.407128,303680.000,52701,1,T0,1,100,30.521
1575568288.531895,303785.000,52719,1,T0,1,100,30.494
1575568288.661416,303894.000,52736,1,T0,1,100,30.521
1575568288.796878,304008.000,52754,1,T0,1,100,30.526
1575568288.934716,304124.000,52788,1,T0,1,100,30.526
1575568289.068990,304237.000,52807,1,T0,1,100,30.526
1575568289.194946,304343.000,52825,1,T0,1,100,30.521
1575568289.328032,304455.000,52843,1,T0,1,100,30.548
1575568289.459929,304566.000,52861,1,T0,1,100,30.558
1575568289.584696,304671.000,52879,1,T0,1,100,30.499
1575568289.716594,304782.000,52897,1,T0,1,100,30.537
1575568289.844926,304890.000,52915,1,T0,1,100,30.548
1575568289.975635,305000.000,52933,1,T0,1,100,30.574
1575568290.114661,305117.000,52951,1,T0,1,100,30.521
1575568290.253688,305234.000,52985,1,T0,1,100,30.494
1575568290.391527,305350.000,53003,1,T0,1,100,30.537
1575568290.526989,305464.000,53021,1,T0,1,100,30.526
1575568290.655321,305572.000,53039,1,T0,1,100,30.521
1575568290.783653,305680.000,53057,1,T0,1,100,30.526
1575568290.922680,305797.000,53075,1,T0,1,100,30.558
1575568291.061707,305914.000,53094,1,T0,1,100,30.532
1575568291.187663,306020.000,53111,1,T0,1,100,30.574
1575568291.317183,306129.000,53132,1,T0,1,100,30.537
1575568291.452645,306243.000,53150,1,T0,1,100,30.558
1575568291.589296,306358.000,53168,1,T0,1,100,30.569
1575568291.725946,306473.000,53186,1,T0,1,100,30.548
1575568291.853090,306580.000,53205,1,T0,1,100,30.569
1575568291.982611,306689.000,53223,1,T0,1,100,30.532
1575568292.118073,306803.000,53258,1,T0,1,100,30.553
1575568292.258288,306921.000,53276,1,T0,1,100,30.553
1575568292.391373,307033.000,53294,1,T0,1,100,30.558
1575568292.517329,307139.000,53312,1,T0,1,100,30.532
1575568292.648038,307249.000,53330,1,T0,1,100,30.532
1575568292.784688,307364.000,53348,1,T0,1,100,30.558
1575568292.922526,307480.000,53366,1,T0,1,100,30.548
1575568293.054424,307591.000,53384,1,T0,1,100,30.569
1575568293.191074,307706.000,53402,1,T0,1,100,30.580
1575568293.318218,307813.000,53436,1,T0,1,100,30.537
1575568293.453680,307927.000,53454,1,T0,1,100,30.558
1575568293.578448,308032.000,53472,1,T0,1,100,30.553
1575568293.715098,308147.000,53490,1,T0,1,100,30.580
1575568293.845807,308257.000,53508,1,T0,1,100,30.569
1575568293.978892,308369.000,53526,1,T0,1,100,30.548
1575568294.119107,308487.000,53545,1,T0,1,100,30.574
1575568294.253381,308600.000,53562,1,T0,1,100,30.548
1575568294.393596,308718.000,53580,1,T0,1,100,30.580
1575568294.521928,308826.000,53614,1,T0,1,100,30.580
1575568294.652637,308936.000,53632,1,T0,1,100,30.585
1575568294.783346,309046.000,53650,1,T0,1,100,30.558
1575568294.921185,309162.000,53668,1,T0,1,100,30.574
1575568295.057835,309277.000,53687,1,T0,1,100,30.585
1575568295.181414,309381.000,53705,1,T0,1,100,30.558
1575568295.313311,309492.000,53723,1,T0,1,100,30.574
1575568295.449961,309607.000,53741,1,T0,1,100,30.569
1575568295.586612,309722.000,53758,1,T0,1,100,30.596
1575568295.718509,309833.000,53792,1,T0,1,100,30.574
1575568295.845653,309940.000,53810,1,T0,1,100,30.585
1575568295.976362,310050.000,53829,1,T0,1,100,30.569
1575568296.111824,310164.000,53847,1,T0,1,100,30.553
1575568296.253227,310283.000,53865,1,T0,1,100,30.569
1575568296.379183,310389.000,53883,1,T0,1,100,30.580
1575568296.508704,310498.000,53901,1,T0,1,100,30.591
1575568296.641789,310610.000,53919,1,T0,1,100,30.564
1575568296.778439,310725.000,53936,1,T0,1,100,30.591
1575568296.915090,310840.000,53970,1,T0,1,100,30.569
1575568297.043422,310948.000,53989,1,T0,1,100,30.585
1575568297.174131,311058.000,54007,1,T0,1,100,30.596
1575568297.303651,311167.000,54026,2,T0,1,100,30.601
1575568297.433172,311276.000,54026,2,T0,1,100,30.601
1575568297.562693,311385.000,54048,1,T0,1,100,30.628
1575568297.699343,311500.000,54066,1,T0,1,100,30.564
1575568297.833617,311613.000,54100,1,T0,1,100,30.612
1575568297.967890,311726.000,54119,1,T0,1,100,30.601
1575568298.109294,311845.000,54137,1,T0,1,100,30.553
1575568298.237626,311953.000,54155,1,T0,1,100,30.601
1575568298.375464,312069.000,54173,1,T0,1,100,30.585
1575568298.502609,312176.000,54191,1,T0,1,100,30.558
1575568298.634506,312287.000,54209,1,T0,1,100,30.596
1575568298.768780,312400.000,54226,1,T0,1,100,30.601
1575568298.907806,312517.000,54260,1,T0,1,100,30.569
1575568299.038515,312627.000,54279,1,T0,1,100,30.601
1575568299.162094,312731.000,54297,1,T0,1,100,30.617
1575568299.298745,312846.000,54315,1,T0,1,100,30.596
1575568299.435395,312961.000,54333,1,T0,1,100,30.628
1575568299.573233,313077.000,54351,1,T0,1,100,30.623
1575568299.699189,313183.000,54369,1,T0,1,100,30.558
1575568299.829898,313293.000,54387,1,T0,1,100,30.574
1575568299.964172,313406.000,54405,1,T0,1,100,30.639
1575568300.098445,313519.000,54423,1,T0,1,100,30.607
1575568300.236284,313635.000,54457,1,T0,1,100,30.617
1575568300.359863,313739.000,54475,1,T0,1,100,30.633
1575568300.492949,313851.000,54493,1,T0,1,100,30.628
1575568300.627223,313964.000,54511,1,T0,1,100,30.569
1575568300.763873,314079.000,54529,1,T0,1,100,30.612
1575568300.895770,314190.000,54547,1,T0,1,100,30.591
1575568301.025290,314299.000,54566,1,T0,1,100,30.612
1575568301.150058,314404.000,54584,1,T0,1,100,30.617
1575568301.279579,314513.000,54602,1,T0,1,100,30.617
1575568301.409099,314622.000,54619,1,T0,1,100,30.585
1575568301.533867,314727.000,54637,1,T0,1,100,30.628
1575568301.663388,314836.000,54671,1,T0,1,100,30.607
1575568301.798850,314950.000,54689,1,T0,1,100,30.633
1575568301.931935,315062.000,54708,1,T0,1,100,30.612
1575568302.074527,315182.000,54726,1,T0,1,100,30.639
1575568302.213553,315299.000,54744,1,T0,1,100,30.607
1575568302.341886,315407.000,54762,1,T0,1,100,30.607
1575568302.471406,315516.000,54780,1,T0,1,100,30.607
1575568302.605680,315629.000,54797,1,T0,1,100,30.607
1575568302.738765,315741.000,54815,1,T0,1,100,30.607
1575568302.878980,315859.000,54849,1,T0,1,100,30.633
1575568303.006124,315966.000,54868,1,T0,1,100,30.628
1575568303.129704,316070.000,54886,1,T0,1,100,30.607
1575568303.267542,316186.000,54904,1,T0,1,100,30.617
1575568303.406569,316303.000,54923,1,T0,1,100,30.660
1575568303.540843,316416.000,54945,1,T0,1,100,30.655
1575568303.665611,316521.000,54963,1,T0,1,100,30.644
1575568303.799884,316634.000,54981,1,T0,1,100,30.660
1575568303.937723,316750.000,54999,1,T0,1,100,30.650
1575568304.076749,316867.000,55018,1,T0,1,100,30.660
1575568304.206270,316976.000,55036,1,T0,1,100,30.623
1575568304.329849,317080.000,55054,1,T0,1,100,30.660
1575568304.468876,317197.000,55072,1,T0,1,100,30.650
1575568304.604338,317311.000,55089,1,T0,1,100,30.660
1575568304.743365,317428.000,55123,1,T0,1,100,30.650
1575568304.878827,317542.000,55141,1,T0,1,100,30.628
1575568305.011912,317654.000,55160,1,T0,1,100,30.666
1575568305.137868,317760.000,55178,1,T0,1,100,30.660
1575568305.272142,317873.000,55196,1,T0,1,100,30.666
1575568305.405227,317985.000,55214,1,T0,1,100,30.676
1575568305.529995,318090.000,55232,1,T0,1,100,30.666
1575568305.665457,318204.000,55250,1,T0,1,100,30.644
1575568305.802107,318319.000,55267,1,T0,1,100,30.639
1575568305.936381,318432.000,55302,1,T0,1,100,30.650
1575568306.075408,318549.000,55320,1,T0,1,100,30.617
1575568306.214434,318666.000,55338,1,T0,1,100,30.639
1575568306.339202,318771.000,55356,1,T0,1,100,30.666
1575568306.472287,318883.000,55374,1,T0,1,100,30.666
1575568306.607749,318997.000,55392,1,T0,1,100,30.676
1575568306.742023,319110.000,55410,1,T0,1,100,30.666
1575568306.877485,319224.000,55427,1,T0,1,100,30.655
1575568307.004629,319331.000,55445,1,T0,1,100,30.687
1575568307.130585,319437.000,55464,1,T0,1,100,30.676
1575568307.268423,319553.000,55498,1,T0,1,100,30.644
1575568307.409827,319672.000,55516,1,T0,1,100,30.692
1575568307.538159,319780.000,55534,1,T0,1,100,30.687
1575568307.665303,319887.000,55552,1,T0,1,100,30.666
1575568307.803142,320003.000,55570,1,T0,1,100,30.660
1575568307.939792,320118.000,55588,1,T0,1,100,30.692
1575568308.077630,320234.000,55606,1,T0,1,100,30.687
1575568308.203586,320340.000,55624,1,T0,1,100,30.682
1575568308.328354,320445.000,55642,1,T0,1,100,30.660
1575568308.467381,320562.000,55676,1,T0,1,100,30.660
1575568308.602842,320676.000,55694,1,T0,1,100,30.692
1575568308.734740,320787.000,55712,1,T0,1,100,30.709
1575568308.871390,320902.000,55730,1,T0,1,100,30.676
1575568309.002099,321012.000,55749,1,T0,1,100,30.698
1575568309.135184,321124.000,55767,1,T0,1,100,30.682
1575568309.263516,321232.000,55785,1,T0,1,100,30.703
1575568309.400167,321347.000,55802,1,T0,1,100,30.692
1575568309.524934,321452.000,55821,1,T0,1,100,30.650
1575568309.662773,321568.000,55839,1,T0,1,100,30.735
1575568309.801800,321685.000,55861,1,T0,1,100,30.676
1575568309.938450,321800.000,55879,1,T0,1,100,30.730
1575568310.078665,321918.000,55897,1,T0,1,100,30.698
1575568310.211750,322030.000,55931,1,T0,1,100,30.703
1575568310.336518,322135.000,55949,1,T0,1,100,30.692
1575568310.471980,322249.000,55967,1,T0,1,100,30.735
1575568310.607442,322363.000,55985,1,T0,1,100,30.676
1575568310.744092,322478.000,56003,1,T0,1,100,30.719
1575568310.873613,322587.000,56021,1,T0,1,100,30.741
1575568311.003133,322696.000,56040,1,T0,1,100,30.725
1575568311.132654,322805.000,56058,1,T0,1,100,30.725
1575568311.270492,322921.000,56075,1,T0,1,100,30.735
1575568311.409519,323038.000,56109,1,T0,1,100,30.741
1575568311.534287,323143.000,56127,1,T0,1,100,30.698
1575568311.663807,323252.000,56145,1,T0,1,100,30.719
1575568311.802834,323369.000,56163,1,T0,1,100,30.687
1575568311.939484,323484.000,56181,1,T0,1,100,30.725
1575568312.072570,323596.000,56200,1,T0,1,100,30.725
1575568312.199714,323703.000,56218,1,T0,1,100,30.719
1575568312.328046,323811.000,56236,1,T0,1,100,30.751
1575568312.467073,323928.000,56253,1,T0,1,100,30.703
1575568312.604912,324044.000,56287,1,T0,1,100,30.768
1575568312.732056,324151.000,56305,1,T0,1,100,30.768
1575568312.865141,324263.000,56323,1,T0,1,100,30.725
1575568312.993474,324371.000,56342,1,T0,1,100,30.735
1575568313.120618,324478.000,56360,1,T0,1,100,30.692
1575568313.254891,324591.000,56378,1,T0,1,100,30.709
1575568313.380847,324697.000,56396,1,T0,1,100,30.698
1575568313.507991,324804.000,56414,1,T0,1,100,30.719
1575568313.645830,324920.000,56432,1,T0,1,100,30.709
1575568313.780103,325033.000,56450,1,T0,1,100,30.719
1575568313.913189,325145.000,56467,1,T0,1,100,30.741
1575568314.054592,325264.000,56502,1,T0,1,100,30.757
1575568314.182925,325372.000,56520,1,T0,1,100,30.773
1575568314.308880,325478.000,56538,1,T0,1,100,30.768
1575568314.445531,325593.000,56556,1,T0,1,100,30.784
1575568314.584557,325710.000,56574,1,T0,1,100,30.741
1575568314.716455,325821.000,56592,1,T0,1,100,30.735
1575568314.843599,325928.000,56610,1,T0,1,100,30.709
1575568314.975496,326039.000,56629,1,T0,1,100,30.725
1575568315.113334,326155.000,56646,1,T0,1,100,30.757
1575568315.249985,326270.000,56680,1,T0,1,100,30.735
1575568315.383070,326382.000,56698,1,T0,1,100,30.768
1575568315.511997,326490.500,56719,2,T0,1,100,30.719
1575568315.640923,326599.000,56719,2,T0,1,100,30.735
1575568315.779950,326716.000,56739,1,T0,1,100,30.757
1575568315.917788,326832.000,56774,1,T0,1,100,30.768
1575568316.043744,326938.000,56792,1,T0,1,100,30.784
1575568316.173265,327047.000,56810,1,T0,1,100,30.746
1575568316.306350,327159.000,56828,1,T0,1,100,30.746
1575568316.444189,327275.000,56846,1,T0,1,100,30.730
1575568316.582027,327391.000,56864,1,T0,1,100,30.784
1575568316.721054,327508.000,56882,1,T0,1,100,30.762
1575568316.861269,327626.000,56899,1,T0,1,100,30.751
1575568316.994354,327738.000,56934,1,T0,1,100,30.725
1575568317.121498,327845.000,56952,1,T0,1,100,30.768
1575568317.252207,327955.000,56970,1,T0,1,100,30.709
1575568317.381728,328064.000,56988,1,T0,1,100,30.773
1575568317.506495,328169.000,57006,1,T0,1,100,30.730
1575568317.638393,328280.000,57024,1,T0,1,100,30.773
1575568317.773855,328394.000,57042,1,T0,1,100,30.768
1575568317.906940,328506.000,57060,1,T0,1,100,30.757
1575568318.043590,328621.000,57079,1,T0,1,100,30.794
1575568318.170734,328728.000,57096,1,T0,1,100,30.768
1575568318.297879,328835.000,57114,1,T0,1,100,30.794
1575568318.435717,328951.000,57148,1,T0,1,100,30.751
1575568318.575932,329069.000,57166,1,T0,1,100,30.757
1575568318.703076,329176.000,57184,1,T0,1,100,30.757
1575568318.832597,329285.000,57202,1,T0,1,100,30.778
1575568318.966871,329398.000,57221,1,T0,1,100,30.773
1575568319.103521,329513.000,57239,1,T0,1,100,30.789
1575568319.241359,329629.000,57257,1,T0,1,100,30.773
1575568319.368503,329736.000,57274,1,T0,1,100,30.719
1575568319.496836,329844.000,57292,1,T0,1,100,30.768
1575568319.632298,329958.000,57310,1,T0,1,100,30.751
1575568319.772513,330076.000,57344,1,T0,1,100,30.741
1575568319.906786,330189.000,57363,1,T0,1,100,30.789
1575568320.031554,330294.000,57381,1,T0,1,100,30.794
1575568320.162263,330404.000,57399,1,T0,1,100,30.762
